DTS Sentinel unit serial number:	SN413079Multiplexer serial number:	ORYXHardware model number:	OX4-SRSoftware version number:	ORYX F/W v4.00 Oryx Data Collector v3.7.2.0data status	okinstallation	princeton_trtdifferential loss correction	single-endedforward channel	channel 2reverse channel	N/Adate	2019/09/14time	08:11:35forward acquisition time	60.00reverse acquisition time	0.00gamma	496.2192k internal	0.2333k external	0.2333temperature offset calibration	1.0124default loss term (dB/km)	0.3790temperature slope calibration	1.0000multiplexer offset coefficient	1.0000multiplexer slope coefficient	1.0000fibre end	0.00T internal ref (°C)	27.44T ext. ref 1 (°C)	3.59T ext. ref 2 (°C)	26.14length (m)	temperature (°C)	Stokes	anti-Stokes-747.200	-8.408	0.097	0.066
-746.185	-27.407	-0.218	-0.127
-745.171	-200.000	0.003	-0.042
-744.156	-110.167	0.149	0.031
-743.142	1.750	0.344	0.249
-742.127	115.719	-0.273	0.336
-741.112	38.591	0.244	-0.219
-740.098	192.277	-0.053	0.081
-739.083	387.486	-0.094	-0.195
-738.069	-103.885	-0.143	0.034
-737.054	112.552	-0.080	0.097
-736.039	-200.000	0.004	0.178
-735.025	-26.016	-0.116	-0.069
-734.010	-82.894	0.211	-0.069
-732.996	-102.344	-0.143	-0.035
-731.981	-88.450	-0.210	-0.063
-730.966	-200.000	0.031	-0.251
-729.952	8.723	-0.205	-0.155
-728.937	-200.000	-0.064	-0.325
-727.923	338.642	-0.263	-0.515
-726.908	800.000	-0.103	0.417
-725.894	306.705	-0.083	0.156
-724.879	276.975	-0.087	-0.155
-723.864	-3.945	-0.140	0.098
-722.850	218.810	-0.157	0.251
-721.835	542.920	-0.082	0.198
-720.821	-111.034	-0.213	-0.044
-719.806	211.564	-0.235	-0.372
-718.791	-100.160	-0.442	-0.110
-717.777	800.000	-0.110	-0.388
-716.762	44.296	-0.219	-0.202
-715.748	-56.842	-0.228	0.101
-714.733	160.949	-0.062	-0.087
-713.718	171.091	0.076	-0.109
-712.704	7.843	0.109	0.082
-711.689	25.944	-0.199	0.167
-710.675	-94.652	0.117	-0.032
-709.660	-200.000	-0.007	-0.188
-708.645	-53.345	-0.115	-0.053
-707.631	800.000	0.009	-0.039
-706.616	-10.330	0.153	-0.102
-705.602	152.247	0.050	0.068
-704.587	-128.180	-0.631	-0.090
-703.572	-30.659	0.234	-0.133
-702.558	800.000	-0.044	-0.131
-701.543	304.784	0.209	0.389
-700.529	376.536	0.080	-0.163
-699.514	-200.000	-0.007	0.250
-698.499	-139.887	0.354	-0.038
-697.485	-200.000	0.031	0.176
-696.470	-81.208	-0.181	0.060
-695.456	-56.166	0.383	-0.171
-694.441	72.144	-0.213	0.223
-693.426	-118.081	0.057	-0.010
-692.412	167.184	-0.119	0.170
-691.397	-181.008	-0.179	-0.004
-690.383	-139.996	-0.325	0.034
-689.368	-166.373	0.490	-0.021
-688.354	2.063	0.277	-0.200
-687.339	-200.000	0.032	-0.159
-686.324	620.995	0.038	-0.095
-685.310	318.497	-0.154	-0.293
-684.295	800.000	-0.058	-0.187
-683.281	-200.000	0.005	-0.028
-682.266	370.042	0.061	0.123
-681.251	115.732	0.155	-0.190
-680.237	127.299	0.330	-0.420
-679.222	-32.405	0.148	-0.083
-678.208	-141.318	-0.422	-0.043
-677.193	138.010	-0.122	0.160
-676.178	-8.252	-0.130	0.088
-675.164	-2.097	-0.435	-0.306
-674.149	206.555	-0.127	-0.198
-673.135	-200.000	-0.008	0.160
-672.120	-113.201	-0.379	-0.075
-671.105	173.016	0.078	-0.113
-670.091	-66.128	-0.170	0.068
-669.076	800.000	0.019	0.057
-668.062	800.000	0.037	-0.110
-667.047	188.273	-0.160	0.240
-666.032	394.848	-0.169	0.353
-665.018	-55.432	-0.307	-0.138
-664.003	-200.000	0.006	0.390
-662.989	113.741	0.178	0.217
-661.974	-200.000	0.009	-0.182
-660.959	800.000	-0.145	-0.432
-659.945	-200.000	-0.024	-0.295
-658.930	-82.270	0.238	-0.078
-657.916	-151.371	0.292	-0.022
-656.901	-72.241	-0.321	0.119
-655.886	-200.000	-0.015	-0.151
-654.872	-39.097	0.122	0.064
-653.857	800.000	-0.030	0.097
-652.843	43.716	-0.255	0.234
-651.828	-114.129	-0.283	-0.055
-650.814	-57.296	0.166	0.073
-649.799	-200.000	0.007	-0.114
-648.784	800.000	0.025	0.075
-647.770	25.367	0.089	-0.074
-646.755	-40.272	-0.460	-0.240
-645.741	800.000	-0.103	0.323
-644.726	-31.187	0.032	-0.018
-643.711	96.720	-0.278	0.319
-642.697	-109.807	-0.318	0.067
-641.682	-35.772	0.217	-0.118
-640.668	-53.212	0.284	-0.130
-639.653	-178.210	0.379	-0.009
-638.638	-147.323	0.149	-0.013
-637.624	800.000	-0.049	-0.166
-636.609	-58.826	-0.442	-0.192
-635.595	-65.887	0.180	-0.072
-634.580	-78.225	-0.249	-0.086
-633.565	13.522	0.205	-0.159
-632.551	-94.836	-0.061	-0.017
-631.536	-50.181	0.318	0.151
-630.522	506.885	0.056	0.130
-629.507	50.499	-0.173	-0.164
-628.492	-103.060	-0.323	-0.077
-627.478	275.948	0.060	0.107
-626.463	-61.108	-0.067	-0.028
-625.449	-50.014	0.121	-0.057
-624.434	463.540	-0.123	-0.274
-623.419	-16.619	0.323	-0.205
-622.405	33.908	-0.300	0.261
-621.390	-200.000	0.066	-0.313
-620.376	-73.234	0.054	0.020
-619.361	43.124	-0.261	-0.239
-618.346	225.433	-0.173	-0.280
-617.332	-0.962	0.169	0.120
-616.317	800.000	-0.063	0.257
-615.303	800.000	0.029	-0.114
-614.288	-128.932	0.189	-0.027
-613.273	157.533	-0.210	0.291
-612.259	-200.000	0.028	0.191
-611.244	-200.000	0.069	-0.365
-610.230	-118.182	0.226	-0.040
-609.215	34.325	-0.259	0.226
-608.201	-57.337	-0.141	0.062
-607.186	370.461	-0.026	-0.054
-606.171	516.653	0.076	-0.178
-605.157	800.000	-0.025	-0.102
-604.142	374.072	0.172	-0.350
-603.128	20.761	-0.229	0.185
-602.113	32.617	-0.114	-0.098
-601.098	-72.195	-0.170	0.063
-600.084	-32.991	0.174	0.097
-599.069	138.267	-0.134	-0.176
-598.055	250.742	-0.021	0.036
-597.040	29.620	-0.326	-0.277
-596.025	-32.361	-0.240	-0.134
-595.011	345.503	0.197	-0.386
-593.996	-200.000	-0.003	0.148
-592.982	99.245	0.262	-0.303
-591.967	-67.697	-0.054	0.021
-590.952	417.179	-0.170	0.364
-589.938	13.659	-0.057	-0.044
-588.923	177.345	0.070	0.102
-587.909	28.863	-0.101	0.086
-586.894	-200.000	0.009	-0.287
-585.879	148.046	-0.328	-0.442
-584.865	-92.774	-0.245	-0.068
-583.850	-200.000	-0.015	0.109
-582.836	40.579	-0.141	-0.127
-581.821	-156.881	0.200	0.012
-580.806	-137.457	0.075	0.008
-579.792	-66.986	0.107	-0.042
-578.777	315.738	0.074	-0.140
-577.763	-113.928	0.286	-0.056
-576.748	-44.888	-0.201	-0.100
-575.733	78.727	0.116	-0.124
-574.719	-200.000	-0.019	0.183
-573.704	7.374	0.278	0.208
-572.690	-115.643	-0.376	0.071
-571.675	-52.894	0.158	-0.073
-570.661	800.000	0.023	-0.095
-569.646	-3.249	-0.209	-0.145
-568.631	-170.273	-0.271	-0.010
-567.617	-31.236	0.341	-0.192
-566.602	-81.673	-0.103	-0.034
-565.588	407.546	-0.086	0.182
-564.573	20.178	-0.116	0.094
-563.558	-25.112	-0.191	0.113
-562.544	-146.756	0.239	0.021
-561.529	-67.569	-0.168	-0.066
-560.515	-122.659	-0.279	-0.045
-559.500	560.728	-0.136	0.327
-558.485	-28.638	-0.150	0.086
-557.471	-200.000	-0.036	-0.182
-556.456	381.369	0.115	0.235
-555.442	198.934	0.127	0.194
-554.427	-104.801	-0.116	-0.027
-553.412	-157.338	0.062	-0.004
-552.398	-200.000	-0.018	0.180
-551.383	-23.560	-0.133	0.080
-550.369	-115.332	-0.194	-0.037
-549.354	-60.250	0.273	-0.116
-548.339	226.261	-0.056	0.091
-547.325	800.000	-0.026	-0.081
-546.310	-58.837	-0.135	-0.058
-545.296	-200.000	0.005	-0.031
-544.281	800.000	0.089	0.387
-543.266	-126.261	-0.141	-0.021
-542.252	106.034	0.132	0.156
-541.237	-108.339	0.200	0.043
-540.223	-39.594	0.508	-0.265
-539.208	-200.000	0.029	-0.171
-538.193	-120.004	-0.104	-0.018
-537.179	305.458	-0.112	0.208
-536.164	2.450	0.227	0.164
-535.150	800.000	0.096	-0.363
-534.135	-98.615	0.089	-0.023
-533.121	356.731	0.112	0.222
-532.106	-34.865	-0.108	-0.059
-531.091	579.392	-0.057	0.139
-530.077	129.966	0.266	0.339
-529.062	583.420	0.069	-0.168
-528.048	-37.997	0.114	-0.060
-527.033	-14.100	0.250	-0.161
-526.018	504.986	-0.125	-0.288
-525.004	-200.000	-0.057	-0.325
-523.989	165.430	0.266	-0.375
-522.975	89.768	0.140	0.156
-521.960	-1.883	0.219	-0.153
-520.945	76.231	-0.143	0.151
-519.931	-127.451	0.215	0.031
-518.916	-200.000	0.009	-0.064
-517.902	11.637	0.184	-0.141
-516.887	-200.000	0.008	-0.394
-515.872	94.219	0.133	-0.150
-514.858	420.773	-0.236	-0.504
-513.843	-21.229	-0.239	-0.145
-512.829	32.792	-0.101	0.087
-511.814	46.186	-0.274	-0.253
-510.799	13.499	0.336	-0.260
-509.785	-200.000	0.074	0.413
-508.770	-200.000	0.037	0.179
-507.756	108.937	-0.106	-0.127
-506.741	-82.317	-0.044	0.014
-505.726	-200.000	0.008	0.220
-504.712	-200.000	-0.020	-0.215
-503.697	-127.989	-0.142	-0.020
-502.683	65.522	-0.094	-0.095
-501.668	-200.000	0.019	-0.330
-500.653	-68.871	-0.100	-0.039
-499.639	-163.356	-0.174	0.008
-498.624	-63.711	0.086	-0.035
-497.610	800.000	-0.091	-0.256
-496.595	-66.775	0.351	0.138
-495.581	-200.000	-0.062	0.310
-494.566	-38.732	0.110	-0.058
-493.551	-200.000	-0.016	-0.234
-492.537	-141.340	-0.217	0.022
-491.522	-11.403	0.083	0.055
-490.508	-171.102	0.152	0.005
-489.493	-200.000	-0.010	-0.048
-488.478	45.414	-0.264	-0.243
-487.464	800.000	0.080	-0.314
-486.449	114.447	-0.266	0.322
-485.435	-42.789	0.195	0.099
-484.420	288.805	-0.053	-0.095
-483.405	504.410	0.076	-0.176
-482.391	46.494	0.512	0.473
-481.376	137.512	-0.037	-0.049
-480.362	800.000	-0.106	-0.304
-479.347	20.935	-0.236	-0.191
-478.332	-200.000	-0.055	-0.329
-477.318	-157.295	-0.529	0.032
-476.303	-32.744	0.111	0.062
-475.289	21.372	0.170	0.137
-474.274	208.740	0.081	-0.125
-473.259	161.251	-0.147	0.204
-472.245	96.973	-0.059	0.067
-471.230	604.792	-0.002	-0.004
-470.216	-134.068	0.213	0.026
-469.201	-200.000	0.007	0.269
-468.186	179.321	-0.038	0.056
-467.172	-41.639	-0.242	-0.124
-466.157	-129.722	0.103	-0.014
-465.143	-12.190	-0.328	-0.214
-464.128	800.000	0.049	0.163
-463.113	90.145	0.250	0.278
-462.099	800.000	0.063	0.261
-461.084	-151.524	-0.292	-0.022
-460.070	800.000	-0.056	0.205
-459.055	-58.301	-0.063	0.027
-458.040	-200.000	0.026	0.197
-457.026	-138.606	0.144	0.016
-456.011	-136.417	0.014	0.002
-454.997	42.306	0.160	-0.144
-453.982	339.338	0.044	-0.086
-452.968	-200.000	0.002	0.146
-451.953	-200.000	-0.044	0.278
-450.938	-70.400	-0.141	0.053
-449.924	800.000	-0.018	0.051
-448.909	-200.000	0.026	-0.194
-447.895	-9.944	-0.179	0.118
-446.880	-60.567	0.324	-0.137
-445.865	-161.930	-0.288	0.014
-444.851	794.891	0.112	-0.306
-443.836	141.604	0.040	-0.053
-442.822	-109.681	0.274	0.057
-441.807	-48.788	0.130	0.062
-440.792	-4.548	0.180	0.123
-439.778	-57.572	0.126	-0.055
-438.763	136.881	-0.216	-0.280
-437.749	-115.155	0.241	-0.045
-436.734	222.437	0.099	0.159
-435.719	-31.157	0.373	-0.209
-434.705	-92.893	-0.377	-0.105
-433.690	520.464	0.086	0.200
-432.676	-48.076	-0.080	0.038
-431.661	141.999	-0.178	0.235
-430.646	-134.903	-0.265	-0.032
-429.632	47.504	-0.053	0.049
-428.617	-59.417	0.157	0.067
-427.603	-72.725	0.047	-0.017
-426.588	-81.482	-0.096	-0.031
-425.573	-139.975	0.421	-0.044
-424.559	-69.603	-0.218	-0.083
-423.544	206.188	-0.335	0.518
-422.530	-55.757	0.264	-0.117
-421.515	-200.000	0.013	-0.093
-420.500	-200.000	0.040	0.174
-419.486	-67.518	0.384	0.150
-418.471	19.499	0.139	0.111
-417.457	13.018	-0.142	-0.109
-416.442	25.517	0.191	0.158
-415.428	526.230	0.084	-0.196
-414.413	-49.137	-0.122	0.058
-413.398	-133.565	0.489	0.061
-412.384	-200.000	0.003	0.303
-411.369	46.872	0.351	0.324
-410.355	-90.431	0.033	0.009
-409.340	-124.726	-0.087	0.013
-408.325	-130.973	0.125	-0.017
-407.311	800.000	-0.142	0.393
-406.296	-84.203	-0.213	0.067
-405.282	-200.000	-0.073	0.330
-404.267	-166.389	-0.309	0.013
-403.252	-200.000	0.015	0.167
-402.238	-200.000	-0.008	-0.219
-401.223	-44.556	-0.117	-0.058
-400.209	172.511	0.057	-0.081
-399.194	-17.925	-0.146	-0.091
-398.179	-18.564	-0.118	0.073
-397.165	6.217	-0.244	0.180
-396.150	387.511	0.025	-0.051
-395.136	-200.000	-0.056	0.290
-394.121	-72.677	0.115	0.042
-393.106	800.000	-0.018	0.052
-392.092	-200.000	0.003	0.172
-391.077	-107.299	-0.191	-0.042
-390.063	-173.928	-0.030	0.001
-389.048	-128.165	-0.108	-0.015
-388.033	154.318	0.097	-0.132
-387.019	246.857	0.054	-0.091
-386.004	-57.726	0.186	-0.081
-384.990	-156.313	-0.104	0.006
-383.975	78.203	-0.150	-0.159
-382.960	-155.815	0.141	-0.009
-381.946	-53.286	-0.264	0.120
-380.931	16.997	0.437	0.343
-379.917	-53.648	-0.015	0.007
-378.902	-120.137	-0.217	0.037
-377.888	59.982	-0.160	0.157
-376.873	87.956	-0.163	0.179
-375.858	330.972	0.088	-0.169
-374.844	527.464	0.019	-0.045
-373.829	-200.000	0.068	0.320
-372.815	-200.000	-0.029	0.161
-371.800	104.614	-0.056	-0.065
-370.785	47.326	-0.338	0.312
-369.771	-94.363	0.111	0.030
-368.756	800.000	-0.050	0.180
-367.742	85.907	0.219	0.239
-366.727	-73.970	-0.189	-0.068
-365.712	-32.857	0.209	-0.115
-364.698	-200.000	0.015	-0.084
-363.683	294.037	0.053	0.096
-362.669	38.214	-0.237	0.209
-361.654	50.155	0.100	-0.094
-360.639	-105.948	0.247	-0.055
-359.625	251.178	-0.002	-0.003
-358.610	-25.166	0.078	0.046
-357.596	-112.680	-0.270	0.053
-356.581	800.000	0.066	-0.207
-355.566	-101.985	0.314	-0.075
-354.552	-176.561	-0.300	0.008
-353.537	-200.000	-0.013	-0.075
-352.523	-182.472	-0.060	-0.001
-351.508	254.926	0.110	-0.187
-350.493	253.222	-0.107	-0.180
-349.479	208.854	0.202	0.312
-348.464	-86.740	-0.261	-0.079
-347.450	-200.000	0.020	0.328
-346.435	11.535	-0.050	-0.038
-345.420	157.902	-0.118	-0.161
-344.406	-165.371	-0.180	0.008
-343.391	105.253	-0.161	-0.188
-342.377	45.769	0.134	-0.123
-341.362	-41.895	-0.304	-0.154
-340.348	-200.000	-0.011	-0.073
-339.333	-0.668	0.242	0.170
-338.318	800.000	-0.087	0.239
-337.304	-200.000	0.009	0.227
-336.289	-0.549	0.086	-0.060
-335.275	-18.730	0.218	0.134
-334.260	-79.255	-0.159	0.053
-333.245	-150.643	0.181	-0.014
-332.231	729.548	-0.051	-0.135
-331.216	23.050	0.242	0.196
-330.202	-113.776	-0.268	-0.052
-329.187	-53.772	0.191	0.086
-328.172	28.989	0.588	-0.493
-327.158	154.290	-0.065	-0.088
-326.143	-124.416	-0.143	0.022
-325.129	-200.000	0.001	0.089
-324.114	-184.144	-0.105	0.002
-323.099	-200.000	-0.006	-0.135
-322.085	430.298	0.244	-0.523
-321.070	495.621	0.114	0.258
-320.056	123.014	0.110	-0.137
-319.041	-2.471	-0.119	0.082
-318.026	36.010	-0.239	-0.208
-317.012	130.544	0.062	-0.079
-315.997	737.321	0.092	0.243
-314.983	-200.000	-0.015	-0.117
-313.968	159.293	0.124	-0.170
-312.953	27.313	-0.348	-0.289
-311.939	118.466	-0.029	0.036
-310.924	53.705	0.216	0.205
-309.910	-149.322	-0.321	-0.025
-308.895	-200.000	-0.011	0.188
-307.880	-127.228	-0.347	-0.050
-306.866	-82.103	0.194	0.063
-305.851	-58.493	-0.550	-0.236
-304.837	42.522	0.093	0.083
-303.822	62.828	-0.206	0.204
-302.807	162.761	-0.049	0.068
-301.793	-15.335	0.269	0.170
-300.778	-48.868	0.157	-0.075
-299.764	-79.704	-0.182	0.061
-298.749	-79.667	-0.200	-0.067
-297.735	-59.425	-0.082	0.035
-296.720	800.000	0.087	0.315
-295.705	-178.760	-0.182	0.004
-294.691	45.511	0.199	-0.182
-293.676	-200.000	-0.012	0.316
-292.662	800.000	0.061	0.206
-291.647	-178.435	-0.366	0.008
-290.632	134.683	0.082	0.105
-289.618	-200.000	-0.006	-0.160
-288.603	-13.050	0.210	0.135
-287.589	33.002	-0.221	-0.189
-286.574	10.479	0.139	-0.105
-285.559	95.727	-0.140	-0.158
-284.545	60.685	-0.121	0.119
-283.530	-23.516	0.178	0.105
-282.516	-173.448	0.188	0.006
-281.501	671.579	0.067	0.172
-280.486	174.935	0.161	0.230
-279.472	113.055	0.242	-0.289
-278.457	180.991	-0.114	0.166
-277.443	149.988	0.121	-0.162
-276.428	583.794	0.011	-0.026
-275.413	85.636	-0.045	0.048
-274.399	75.625	-0.228	0.237
-273.384	-200.000	-0.005	-0.293
-272.370	-112.245	-0.090	0.018
-271.355	-156.213	0.439	0.027
-270.340	448.857	0.063	-0.137
-269.326	800.000	0.042	0.116
-268.311	62.811	-0.170	0.167
-267.297	-124.106	0.367	-0.057
-266.282	429.790	0.175	-0.374
-265.267	130.102	0.261	0.330
-264.253	-121.751	-0.327	-0.053
-263.238	400.907	0.077	0.159
-262.224	247.119	-0.156	0.260
-261.209	-65.932	0.004	0.002
-260.195	-60.100	-0.249	0.105
-259.180	-146.455	-0.092	-0.008
-258.165	-200.000	0.037	-0.319
-257.151	-183.030	0.217	0.004
-256.136	-200.000	-0.037	0.267
-255.122	455.860	0.127	0.278
-254.107	-191.482	-0.162	0.002
-253.092	-200.000	-0.008	0.040
-252.078	82.817	-0.248	0.266
-251.063	-200.000	0.033	-0.240
-250.049	-78.262	-0.231	0.078
-249.034	183.815	-0.077	0.113
-248.019	100.837	0.126	0.145
-247.005	155.579	-0.263	-0.357
-245.990	598.263	0.108	-0.264
-244.976	415.434	-0.031	-0.065
-243.961	-42.973	-0.227	-0.113
-242.946	-200.000	0.018	0.153
-241.932	572.171	0.125	-0.300
-240.917	-145.616	-0.345	-0.030
-239.903	8.060	0.025	-0.018
-238.888	110.054	0.103	-0.122
-237.873	735.639	0.083	0.218
-236.859	-34.322	0.323	0.175
-235.844	-78.266	0.006	0.002
-234.830	-107.750	-0.300	0.065
-233.815	-200.000	-0.049	-0.219
-232.800	-200.000	-0.038	-0.457
-231.786	403.598	-0.168	0.349
-230.771	800.000	0.097	-0.268
-229.757	-115.271	-0.198	-0.037
-228.742	180.451	0.060	0.087
-227.727	-200.000	-0.023	-0.208
-226.713	-129.820	0.418	-0.057
-225.698	231.774	-0.168	0.272
-224.684	41.993	0.148	0.132
-223.669	800.000	-0.069	-0.241
-222.655	-64.451	0.196	0.079
-221.640	-60.084	0.126	-0.053
-220.625	-149.979	0.210	0.016
-219.611	-47.056	0.372	0.179
-218.596	256.223	0.116	-0.197
-217.582	706.647	-0.071	-0.184
-216.567	29.589	0.304	-0.254
-215.552	521.909	-0.179	0.415
-214.538	308.673	-0.108	0.199
-213.523	-110.830	-0.070	0.014
-212.509	-13.768	0.346	0.220
-211.494	800.000	-0.041	0.147
-210.479	355.037	-0.159	0.311
-209.465	800.000	0.112	-0.343
-208.450	-200.000	-0.037	0.412
-207.436	110.083	0.263	-0.311
-206.421	-101.786	-0.187	-0.045
-205.406	-103.028	-0.035	0.008
-204.392	77.557	-0.146	-0.153
-203.377	-200.000	-0.007	0.086
-202.363	19.901	0.320	0.254
-201.348	16.325	0.027	0.021
-200.333	-200.000	0.016	-0.178
-199.319	-200.000	0.056	-0.276
-198.304	146.058	0.099	0.131
-197.290	0.885	-0.185	-0.130
-196.275	339.766	-0.073	-0.140
-195.260	266.823	0.196	0.337
-194.246	-96.374	-0.051	-0.013
-193.231	-87.373	-0.042	-0.012
-192.217	322.035	-0.177	0.332
-191.202	800.000	0.058	0.192
-190.187	27.354	0.092	-0.076
-189.173	-54.630	-0.289	-0.128
-188.158	153.227	-0.072	-0.096
-187.144	800.000	-0.058	-0.166
-186.129	27.925	-0.111	0.092
-185.114	571.570	0.162	-0.388
-184.100	-200.000	0.072	-0.360
-183.085	246.193	0.197	-0.326
-182.071	-200.000	-0.012	-0.125
-181.056	-200.000	0.013	0.286
-180.042	36.635	0.159	-0.138
-179.027	-26.047	0.240	0.139
-178.012	-16.387	-0.412	0.257
-176.998	638.965	0.069	-0.174
-175.983	22.990	0.204	-0.165
-174.969	72.646	-0.154	-0.158
-173.954	195.992	-0.076	0.114
-172.939	37.335	-0.130	0.113
-171.925	-112.022	0.307	0.061
-170.910	-129.006	0.134	0.019
-169.896	-17.484	-0.193	0.120
-168.881	-27.861	-0.199	-0.113
-167.866	-32.295	0.113	-0.062
-166.852	-200.000	0.087	0.601
-165.837	-200.000	0.020	-0.280
-164.823	-51.124	0.187	-0.086
-163.808	85.733	0.113	0.122
-162.793	-200.000	0.022	-0.178
-161.779	800.000	-0.071	-0.286
-160.764	64.346	0.251	0.248
-159.750	-200.000	-0.001	0.030
-158.735	339.819	0.130	0.248
-157.720	800.000	0.015	0.052
-156.706	-145.103	-0.294	0.026
-155.691	-200.000	-0.004	0.207
-154.677	5.859	0.104	0.076
-153.662	458.781	0.103	0.225
-152.647	-14.688	-0.090	-0.057
-151.633	-108.897	0.094	0.020
-150.618	16.062	-0.207	-0.161
-149.604	-200.000	0.027	0.193
-148.589	-93.241	-0.036	0.010
-147.574	77.323	0.155	0.161
-146.560	800.000	0.052	-0.155
-145.545	-77.095	0.242	0.083
-144.531	-200.000	0.047	0.315
-143.516	800.000	-0.025	0.100
-142.502	-147.271	-0.238	0.020
-141.487	395.871	-0.020	0.040
-140.472	800.000	0.012	0.036
-139.458	-114.163	-0.454	-0.086
-138.443	-200.000	-0.003	0.024
-137.429	-126.092	-0.130	-0.019
-136.414	-200.000	0.008	0.056
-135.399	262.643	0.021	0.036
-134.385	78.776	0.281	-0.295
-133.370	-200.000	-0.104	-0.490
-132.356	-200.000	-0.027	-0.127
-131.341	46.007	-0.147	0.133
-130.326	-59.574	-0.336	-0.142
-129.312	-98.342	-0.166	-0.042
-128.297	-199.191	0.288	-0.002
-127.283	101.249	0.167	0.191
-126.268	-144.150	-0.070	-0.006
-125.253	153.566	0.090	0.121
-124.239	800.000	0.016	-0.055
-123.224	-184.968	0.071	-0.001
-122.210	-77.424	0.157	0.054
-121.195	-81.723	-0.169	0.054
-120.180	-200.000	0.012	0.258
-119.166	-91.603	-0.169	-0.047
-118.151	-200.000	-0.008	-0.059
-117.137	-200.000	0.002	0.238
-116.122	-130.999	-0.115	-0.015
-115.107	-43.955	-0.081	-0.040
-114.093	-147.039	0.367	0.031
-113.078	-88.919	-0.286	-0.083
-112.064	-102.195	0.125	0.029
-111.049	84.224	-0.171	-0.183
-110.034	657.804	-0.063	0.158
-109.020	-10.666	-0.244	0.158
-108.005	265.145	0.127	-0.217
-106.991	131.701	-0.075	0.094
-105.976	103.923	0.065	0.075
-104.962	-157.372	0.344	-0.020
-103.947	-200.000	0.010	-0.307
-102.932	93.552	-0.117	-0.130
-101.918	-149.915	0.083	0.006
-100.903	-144.798	-0.159	0.014
-99.889	-28.206	-0.145	0.082
-98.874	520.146	0.164	0.378
-97.859	-78.859	0.420	0.140
-96.845	245.779	0.056	-0.093
-95.830	18.576	-0.138	0.108
-94.816	130.685	0.180	0.227
-93.801	313.084	0.127	-0.233
-92.786	295.656	-0.084	-0.150
-91.772	-200.000	0.049	0.297
-90.757	88.485	-0.183	0.199
-89.743	71.301	-0.096	-0.098
-88.728	-95.724	0.026	-0.007
-87.713	104.784	-0.165	-0.191
-86.699	-200.000	-0.003	0.428
-85.684	357.965	-0.042	0.083
-84.670	-91.703	-0.259	0.072
-83.655	211.325	-0.119	0.184
-82.640	800.000	0.042	0.172
-81.626	-200.000	-0.013	-0.214
-80.611	-52.650	0.265	-0.120
-79.597	612.708	-0.058	-0.142
-78.582	800.000	-0.054	-0.196
-77.567	518.567	0.054	0.124
-76.553	-143.759	0.394	0.037
-75.538	800.000	0.091	-0.311
-74.524	-0.316	-0.018	-0.013
-73.509	160.142	0.281	-0.384
-72.494	-123.029	0.152	-0.024
-71.480	-34.482	-0.106	-0.057
-70.465	-144.401	0.022	-0.002
-69.451	663.854	-0.076	-0.191
-68.436	-97.161	0.180	0.046
-67.422	-9.842	0.094	-0.061
-66.407	-85.890	0.151	0.046
-65.392	800.000	-0.036	-0.100
-64.378	-144.490	-0.356	0.032
-63.363	146.877	-0.106	0.140
-62.349	-92.951	0.160	-0.044
-61.334	83.872	-0.693	-0.741
-60.319	99.295	0.295	0.334
-59.305	164.204	-0.700	-0.966
-58.290	198.340	0.728	1.090
-57.276	416.593	0.673	1.406
-56.261	-200.000	111.474	619.066
-55.246	507.009	1526.997	3467.059
-54.232	174.415	2713.558	3840.353
-53.217	101.792	2306.287	2633.085
-52.203	36.847	1909.373	1652.002
-51.188	30.732	1695.321	1420.246
-50.173	28.174	1653.095	1365.758
-49.159	48.816	1709.210	1569.304
-48.144	48.087	1723.948	1577.243
-47.130	30.204	1680.355	1403.490
-46.115	27.515	1665.468	1370.804
-45.100	27.391	1660.366	1365.617
-44.086	27.307	1657.957	1362.954
-43.071	27.412	1654.892	1361.168
-42.057	27.269	1652.933	1358.433
-41.042	27.340	1650.487	1356.898
-40.027	27.307	1648.587	1355.038
-39.013	27.279	1647.302	1353.717
-37.998	27.232	1645.410	1351.758
-36.984	27.409	1643.434	1351.397
-35.969	27.427	1642.670	1350.847
-34.954	27.499	1640.745	1349.746
-33.940	27.408	1639.133	1347.693
-32.925	27.368	1637.681	1346.152
-31.911	27.431	1636.132	1345.285
-30.896	27.456	1634.104	1343.752
-29.881	27.361	1632.555	1341.721
-28.867	27.388	1630.448	1340.139
-27.852	27.426	1629.126	1339.278
-26.838	27.388	1627.768	1337.825
-25.823	27.438	1626.110	1336.782
-24.809	27.487	1624.527	1335.787
-23.794	27.468	1623.304	1334.584
-22.779	27.420	1622.123	1333.215
-21.765	27.435	1620.663	1332.070
-20.750	27.403	1618.870	1330.305
-19.736	27.448	1617.674	1329.599
-18.721	27.498	1616.244	1328.740
-17.706	27.445	1615.148	1327.395
-16.692	27.453	1613.323	1325.902
-15.677	27.569	1611.388	1325.101
-14.663	27.556	1610.167	1323.949
-13.648	27.505	1609.122	1322.671
-12.633	27.395	1607.694	1320.645
-11.619	27.380	1606.447	1319.458
-10.604	27.488	1604.301	1318.431
-9.590	27.551	1603.294	1318.006
-8.575	27.646	1601.932	1317.521
-7.560	27.494	1601.197	1315.760
-6.546	27.479	1599.446	1314.165
-5.531	27.478	1598.516	1313.340
-4.517	27.499	1597.462	1312.573
-3.502	27.486	1596.692	1311.794
-2.487	27.667	1594.601	1311.330
-1.473	27.590	1583.881	1301.910
-0.458	25.677	1567.001	1274.453
0.556	24.044	1569.997	1251.662
1.571	22.225	1595.569	1258.931
2.586	21.910	1608.860	1267.029
3.600	19.183	1552.869	1203.788
4.615	10.992	1441.922	1064.312
5.629	4.497	1381.154	978.564
6.644	3.684	1373.093	967.672
7.659	3.511	1372.259	965.913
8.673	3.534	1371.144	965.189
9.688	3.611	1369.058	964.118
10.702	3.502	1366.317	961.420
11.717	6.586	1372.307	984.831
12.731	14.568	1387.194	1045.642
13.746	19.875	1395.493	1085.178
14.761	20.361	1394.564	1087.402
15.775	19.645	1392.555	1081.258
16.790	18.592	1389.871	1072.498
17.804	17.839	1387.640	1065.981
18.819	17.437	1386.632	1062.606
19.834	17.235	1385.378	1060.286
20.848	17.069	1384.226	1058.277
21.863	16.793	1383.092	1055.599
22.877	16.761	1381.798	1054.316
23.892	16.697	1380.882	1053.130
24.907	16.632	1380.350	1052.225
25.921	16.647	1379.080	1051.253
26.936	16.753	1377.887	1050.912
27.950	16.802	1377.099	1050.524
28.965	16.802	1376.267	1049.795
29.980	16.935	1375.212	1049.718
30.994	16.943	1373.494	1048.363
32.009	17.078	1372.661	1048.472
33.023	17.073	1371.710	1047.618
34.038	16.859	1370.417	1045.219
35.053	16.891	1368.823	1044.107
36.067	16.902	1367.839	1043.337
37.082	16.837	1366.998	1042.198
38.096	16.882	1366.340	1041.883
39.111	16.888	1365.083	1040.871
40.126	16.860	1364.459	1040.127
41.140	16.669	1363.701	1038.290
42.155	16.582	1363.340	1037.389
43.169	16.554	1363.066	1036.917
44.184	16.508	1363.103	1036.570
45.199	16.523	1362.347	1035.997
46.213	16.687	1361.606	1036.345
47.228	16.807	1360.934	1036.478
48.242	16.800	1359.380	1035.158
49.257	16.775	1358.189	1034.004
50.271	16.828	1356.311	1032.810
51.286	16.917	1355.515	1032.654
52.301	16.852	1354.170	1031.141
53.315	16.738	1353.195	1029.613
54.330	16.654	1351.728	1027.897
55.344	16.632	1350.433	1026.689
56.359	16.591	1349.587	1025.704
57.374	16.608	1348.404	1024.820
58.388	16.506	1348.109	1023.883
59.403	16.492	1347.384	1023.162
60.417	16.583	1346.394	1022.870
61.432	16.507	1345.950	1021.979
62.447	16.376	1344.741	1020.179
63.461	16.352	1343.521	1019.019
64.476	16.285	1342.607	1017.836
65.490	16.315	1341.133	1016.806
66.505	16.309	1339.730	1015.615
67.520	16.482	1338.042	1015.288
68.534	16.493	1337.220	1014.642
69.549	16.360	1336.585	1013.270
70.563	16.418	1335.318	1012.567
71.578	16.305	1333.781	1010.635
72.593	16.231	1333.645	1009.999
73.607	16.203	1332.688	1009.017
74.622	16.332	1331.473	1008.783
75.636	16.321	1330.861	1008.163
76.651	16.369	1330.728	1008.260
77.666	16.357	1330.133	1007.649
78.680	16.448	1329.270	1007.448
79.695	16.405	1328.645	1006.629
80.709	16.531	1328.235	1006.980
81.724	16.519	1327.524	1006.281
82.739	16.610	1326.279	1005.783
83.753	16.737	1325.111	1005.566
84.768	16.793	1324.385	1005.255
85.782	16.918	1323.148	1004.973
86.797	16.952	1321.899	1004.132
87.812	16.685	1321.139	1001.889
88.826	16.804	1319.640	1001.368
89.841	16.707	1319.229	1000.395
90.855	16.872	1318.018	1000.358
91.870	16.983	1316.930	1000.101
92.884	17.083	1315.933	999.845
93.899	16.951	1315.622	998.744
94.914	17.118	1314.738	998.965
95.928	17.096	1313.303	997.656
96.943	16.887	1312.894	996.028
97.957	16.801	1311.850	994.644
98.972	16.926	1310.582	994.326
99.987	16.954	1309.562	993.631
101.001	16.864	1308.679	992.348
102.016	16.910	1307.653	991.749
103.030	16.968	1306.666	991.254
104.045	16.994	1305.739	990.611
105.060	16.826	1304.748	988.793
106.074	16.633	1303.142	986.363
107.089	16.564	1301.511	984.640
108.103	16.446	1299.908	982.656
109.118	16.408	1299.240	981.844
110.133	16.459	1297.997	981.113
111.147	16.435	1296.520	979.767
112.162	16.520	1294.953	978.990
113.176	16.590	1294.231	978.763
114.191	16.632	1293.562	978.415
115.206	16.672	1291.941	977.333
116.220	16.579	1290.824	975.862
117.235	16.497	1289.995	974.677
118.249	16.610	1288.666	974.238
119.264	16.447	1287.745	972.519
120.279	16.465	1286.704	971.750
121.293	16.456	1285.320	970.568
122.308	16.471	1284.183	969.707
123.322	16.320	1283.593	968.310
124.337	16.368	1282.193	967.444
125.352	16.368	1281.054	966.498
126.366	16.378	1279.890	965.596
127.381	16.395	1278.967	964.906
128.395	16.412	1277.976	964.173
129.410	16.386	1276.783	963.037
130.424	16.474	1276.255	963.054
131.439	16.531	1275.199	962.501
132.454	16.524	1274.669	961.974
133.468	16.641	1273.623	961.763
134.483	16.574	1272.839	960.706
135.497	16.577	1271.819	959.869
136.512	16.534	1270.510	958.552
137.527	16.735	1269.100	958.542
138.541	16.585	1267.951	956.739
139.556	16.638	1266.714	956.021
140.570	16.756	1265.685	955.826
141.585	16.811	1264.786	955.373
142.600	16.803	1263.544	954.303
143.614	16.926	1262.704	954.280
144.629	16.935	1261.608	953.420
145.643	16.973	1260.839	952.967
146.658	16.764	1258.833	950.193
147.673	16.744	1257.823	949.231
148.687	16.637	1256.986	947.917
149.702	16.635	1255.415	946.641
150.716	16.630	1253.948	945.422
151.731	16.733	1252.746	945.008
152.746	16.708	1251.516	943.857
153.760	16.714	1250.817	943.277
154.775	16.850	1249.414	942.893
155.789	16.870	1248.790	942.453
156.804	16.923	1247.626	941.780
157.819	16.895	1246.562	940.742
158.833	17.000	1245.809	940.671
159.848	17.068	1245.244	940.536
160.862	16.980	1243.784	938.866
161.877	16.854	1242.469	937.095
162.892	16.639	1241.821	935.333
163.906	16.791	1240.433	935.044
164.921	16.675	1240.104	934.073
165.935	16.849	1238.977	934.099
166.950	16.897	1238.359	933.815
167.964	16.915	1237.455	933.149
168.979	16.870	1236.906	932.406
169.994	16.953	1235.813	931.955
171.008	16.889	1235.414	931.222
172.023	16.932	1234.540	930.714
173.037	17.161	1233.768	931.307
174.052	17.058	1233.000	930.084
175.067	16.879	1231.723	928.056
176.081	16.827	1230.640	926.872
177.096	16.848	1229.886	926.340
178.110	16.849	1228.473	925.195
179.125	16.885	1227.362	924.474
180.140	17.000	1226.001	923.997
181.154	16.935	1225.710	923.341
182.169	17.015	1224.113	922.491
183.183	17.100	1222.939	921.987
184.198	17.117	1221.769	921.117
185.213	17.216	1220.614	920.700
186.227	17.196	1219.419	919.605
187.242	17.254	1218.932	919.473
188.256	17.246	1217.709	918.424
189.271	17.350	1216.686	918.132
190.286	17.003	1216.109	915.745
191.300	16.830	1214.362	913.415
192.315	16.748	1214.142	912.727
193.329	16.886	1213.341	912.789
194.344	16.915	1212.763	912.427
195.359	16.999	1212.444	912.557
196.373	17.086	1211.841	912.495
197.388	17.267	1210.840	912.631
198.402	17.394	1211.240	913.535
199.417	17.350	1210.909	912.965
200.432	17.511	1209.595	912.758
201.446	17.517	1208.861	912.155
202.461	17.557	1208.142	911.748
203.475	17.627	1206.776	911.009
204.490	17.522	1205.635	909.505
205.504	17.468	1203.992	907.897
206.519	17.404	1203.262	906.928
207.534	17.260	1201.966	905.101
208.548	17.315	1201.467	904.938
209.563	17.367	1200.986	904.775
210.577	17.394	1199.403	903.642
211.592	17.533	1198.405	903.553
212.607	17.625	1197.730	903.448
213.621	17.544	1196.865	902.287
214.636	17.384	1196.497	901.085
215.650	17.483	1195.279	900.609
216.665	17.634	1194.415	900.680
217.680	17.716	1193.538	900.369
218.694	17.694	1192.914	899.702
219.709	17.667	1191.858	898.686
220.723	17.687	1191.307	898.293
221.738	17.702	1190.503	897.688
222.753	17.702	1189.803	897.083
223.767	17.680	1189.316	896.519
224.782	17.689	1188.741	896.051
225.796	17.930	1187.683	896.443
226.811	17.878	1186.903	895.503
227.826	17.761	1186.055	894.170
228.840	17.709	1185.295	893.245
229.855	17.696	1184.347	892.384
230.869	17.610	1183.469	891.193
231.884	17.784	1182.642	891.402
232.899	17.537	1181.924	889.492
233.913	17.461	1181.190	888.464
234.928	17.506	1180.695	888.247
235.942	17.469	1179.811	887.312
236.957	17.564	1178.767	886.940
237.972	17.550	1178.375	886.492
238.986	17.568	1177.441	885.804
240.001	17.532	1176.935	885.163
241.015	17.657	1175.980	885.011
242.030	17.689	1175.150	884.477
243.045	17.796	1174.413	884.399
244.059	17.792	1173.756	883.804
245.074	17.936	1172.359	883.419
246.088	17.815	1172.049	882.479
247.103	17.882	1171.352	882.226
248.117	18.006	1170.814	882.381
249.132	18.125	1169.727	882.098
250.147	18.195	1169.576	882.266
251.161	18.298	1168.785	882.122
252.176	18.346	1168.537	882.106
253.190	18.376	1167.940	881.730
254.205	18.499	1166.826	881.443
255.220	18.362	1166.732	880.592
256.234	18.436	1165.832	880.216
257.249	18.367	1165.118	879.244
258.263	18.336	1164.405	878.469
259.278	18.367	1164.009	878.253
260.293	18.417	1163.500	878.046
261.307	18.509	1162.606	877.765
262.322	18.635	1161.978	877.857
263.336	18.646	1161.447	877.436
264.351	18.549	1160.994	876.517
265.366	18.575	1160.075	875.881
266.380	18.621	1159.194	875.374
267.395	18.516	1158.406	874.166
268.409	18.469	1157.338	873.043
269.424	18.463	1156.987	872.670
270.439	18.523	1156.119	872.241
271.453	18.432	1155.116	870.946
272.468	18.313	1154.386	869.716
273.482	18.392	1153.821	869.611
274.497	18.275	1153.662	868.821
275.512	18.459	1152.655	868.919
276.526	18.421	1151.845	868.042
277.541	18.379	1151.440	867.444
278.555	18.563	1150.236	867.394
279.570	18.558	1149.543	866.768
280.585	18.608	1149.250	866.724
281.599	18.605	1148.383	865.977
282.614	18.610	1146.965	864.855
283.628	18.530	1146.400	863.948
284.643	18.505	1145.069	862.743
285.657	18.547	1144.198	862.222
286.672	18.551	1143.285	861.481
287.687	18.602	1142.495	861.064
288.701	18.647	1142.085	860.906
289.716	18.650	1140.999	860.026
290.730	18.585	1140.303	859.099
291.745	18.700	1139.487	858.984
292.760	18.707	1138.959	858.543
293.774	18.727	1138.470	858.201
294.789	18.835	1138.184	858.448
295.803	18.952	1136.912	857.995
296.818	18.834	1136.094	856.717
297.833	18.727	1135.649	855.771
298.847	18.742	1134.397	854.824
299.862	18.778	1133.913	854.564
300.876	18.762	1133.292	853.940
301.891	18.835	1132.817	853.870
302.906	18.973	1131.954	853.829
303.920	18.944	1131.504	853.270
304.935	19.125	1130.711	853.495
305.949	19.210	1130.083	853.364
306.964	19.119	1129.871	852.681
307.979	18.996	1128.859	851.234
308.993	19.102	1128.140	851.139
310.008	19.163	1127.328	850.753
311.022	19.105	1126.639	849.870
312.037	19.192	1125.059	849.033
313.052	19.053	1124.350	847.736
314.066	18.988	1123.169	846.453
315.081	18.803	1122.776	845.172
316.095	18.852	1121.937	844.706
317.110	18.881	1120.966	844.044
318.125	18.856	1120.473	843.474
319.139	18.884	1120.062	843.224
320.154	19.007	1119.192	843.100
321.168	19.003	1118.272	842.314
322.183	18.907	1118.249	841.751
323.197	18.989	1117.285	841.354
324.212	19.018	1116.637	840.932
325.227	19.068	1116.379	840.906
326.241	19.034	1115.545	840.039
327.256	18.989	1114.701	839.110
328.270	19.040	1113.672	838.508
329.285	19.006	1112.868	837.662
330.300	18.985	1112.047	836.868
331.314	19.138	1110.872	836.653
332.329	19.040	1109.902	835.377
333.343	19.057	1109.293	834.924
334.358	19.207	1108.370	834.885
335.373	19.242	1107.738	834.504
336.387	19.231	1106.846	833.705
337.402	19.281	1106.100	833.310
338.416	19.283	1105.421	832.735
339.431	19.268	1104.780	832.107
340.446	19.529	1104.230	832.876
341.460	19.450	1103.767	832.073
342.475	19.570	1102.697	831.771
343.489	19.575	1101.939	831.150
344.504	19.670	1100.904	830.753
345.519	19.589	1100.718	830.150
346.533	19.558	1099.987	829.375
347.548	19.764	1098.677	829.303
348.562	19.685	1098.097	828.410
349.577	19.530	1097.219	826.933
350.592	19.469	1096.360	825.921
351.606	19.380	1095.554	824.817
352.621	19.388	1094.627	824.083
353.635	19.431	1094.346	824.007
354.650	19.370	1093.564	823.049
355.665	19.489	1092.838	823.000
356.679	19.564	1091.856	822.544
357.694	19.501	1091.587	821.970
358.708	19.699	1090.890	822.311
359.723	19.622	1090.433	821.528
360.738	19.643	1089.576	820.910
361.752	19.497	1089.276	819.921
362.767	19.643	1088.567	820.005
363.781	19.686	1088.277	819.919
364.796	19.688	1087.955	819.612
365.810	19.770	1087.328	819.459
366.825	19.878	1086.774	819.478
367.840	20.046	1085.787	819.459
368.854	20.031	1085.405	819.025
369.869	20.056	1084.550	818.426
370.883	19.928	1083.908	817.265
371.898	19.841	1082.892	816.017
372.913	19.907	1082.672	816.090
373.927	20.064	1081.459	815.843
374.942	20.070	1081.199	815.602
375.956	20.058	1080.722	815.114
376.971	19.998	1080.272	814.417
377.986	20.074	1079.572	814.179
379.000	20.063	1079.297	813.846
380.015	20.112	1079.081	813.841
381.029	20.281	1078.215	813.910
382.044	20.300	1077.105	813.086
383.059	20.282	1076.540	812.506
384.073	20.194	1075.505	811.239
385.088	20.387	1074.020	810.948
386.102	20.307	1073.893	810.408
387.117	20.172	1072.574	808.710
388.132	20.018	1071.899	807.415
389.146	20.110	1070.484	806.702
390.161	20.068	1070.226	806.244
391.175	20.059	1069.572	805.637
392.190	20.133	1068.661	805.224
393.205	20.249	1068.375	805.475
394.219	20.332	1067.340	805.009
395.234	20.154	1066.453	803.443
396.248	20.133	1065.795	802.782
397.263	20.165	1064.459	801.851
398.278	20.021	1064.125	800.864
399.292	20.079	1063.225	800.380
400.307	19.982	1062.248	799.126
401.321	20.030	1061.927	799.039
402.336	20.069	1060.945	798.409
403.350	19.927	1060.123	797.063
404.365	20.002	1059.757	797.065
405.380	20.045	1058.908	796.554
406.394	20.060	1058.246	796.052
407.409	20.282	1057.544	796.475
408.423	20.520	1056.833	796.959
409.438	20.587	1055.826	796.436
410.453	20.587	1055.516	796.131
411.467	20.615	1054.649	795.534
412.482	20.589	1054.189	795.001
413.496	20.706	1053.741	795.127
414.511	20.741	1053.032	794.680
415.526	20.694	1052.792	794.216
416.540	20.792	1052.222	794.158
417.555	20.693	1051.972	793.451
418.569	20.732	1051.187	792.964
419.584	20.609	1050.863	792.090
420.599	20.559	1050.315	791.382
421.613	154.241	1403.868	1794.142
422.628	141.437	1455.343	1794.256
