DTS Sentinel unit serial number:	SN413079Multiplexer serial number:	ORYXHardware model number:	OX4-SRSoftware version number:	ORYX F/W v4.00 Oryx Data Collector v3.7.2.0data status	okinstallation	princeton_trtdifferential loss correction	single-endedforward channel	channel 2reverse channel	N/Adate	2019/09/16time	18:15:35forward acquisition time	60.00reverse acquisition time	0.00gamma	496.2192k internal	0.2318k external	0.2318temperature offset calibration	0.9950default loss term (dB/km)	0.3790temperature slope calibration	1.0000multiplexer offset coefficient	1.0000multiplexer slope coefficient	1.0000fibre end	0.00T internal ref (°C)	37.12T ext. ref 1 (°C)	15.73T ext. ref 2 (°C)	30.74length (m)	temperature (°C)	Stokes	anti-Stokes-747.200	-25.886	0.250	0.149
-746.185	-12.706	0.069	0.045
-745.171	14.856	0.257	-0.204
-744.156	-20.714	0.347	0.216
-743.142	-200.000	0.001	0.007
-742.127	581.994	-0.115	0.285
-741.112	-94.182	0.199	-0.055
-740.098	531.859	-0.123	0.295
-739.083	-15.871	0.157	-0.101
-738.069	-74.808	-0.228	-0.083
-737.054	9.243	-0.155	0.118
-736.039	-38.727	-0.117	0.062
-735.025	6.947	0.191	0.144
-734.010	118.423	-0.300	0.375
-732.996	-100.137	-0.111	0.028
-731.981	-68.537	-0.422	0.165
-730.966	-103.147	-0.463	0.111
-729.952	-65.956	-0.068	-0.027
-728.937	-104.970	-0.167	0.039
-727.923	56.991	0.043	0.043
-726.908	-113.798	-0.417	0.082
-725.894	787.439	-0.034	0.095
-724.879	518.320	-0.061	-0.145
-723.864	78.000	0.066	0.071
-722.850	-200.000	-0.033	-0.512
-721.835	-37.907	-0.155	0.083
-720.821	800.000	-0.023	-0.099
-719.806	-200.000	-0.005	0.153
-718.791	261.923	-0.040	0.071
-717.777	-49.826	-0.226	-0.108
-716.762	125.885	-0.036	0.045
-715.748	91.169	0.027	-0.031
-714.733	-200.000	-0.006	-0.463
-713.718	800.000	0.095	0.310
-712.704	-179.987	-0.119	0.003
-711.689	327.421	-0.105	0.203
-710.675	-200.000	0.006	-0.242
-709.660	254.407	-0.045	-0.077
-708.645	-200.000	0.012	0.057
-707.631	-200.000	0.002	-0.241
-706.616	252.155	-0.024	-0.042
-705.602	756.872	-0.080	0.218
-704.587	-187.548	-0.085	-0.001
-703.572	41.276	-0.162	0.148
-702.558	24.354	-0.162	-0.135
-701.543	-56.485	0.135	-0.060
-700.529	-163.424	-0.229	0.011
-699.514	611.086	-0.046	0.116
-698.499	-3.746	-0.125	-0.088
-697.485	-92.141	-0.390	-0.111
-696.470	-90.441	0.177	-0.052
-695.456	-200.000	-0.001	-0.010
-694.441	-200.000	-0.035	-0.273
-693.426	601.156	-0.074	0.185
-692.412	377.991	0.025	0.051
-691.397	-64.114	-0.114	0.047
-690.383	203.871	-0.048	0.075
-689.368	114.432	-0.220	0.271
-688.354	67.018	-0.061	-0.063
-687.339	-145.914	0.261	0.023
-686.324	-200.000	0.036	0.246
-685.310	800.000	-0.086	-0.301
-684.295	324.300	-0.011	0.021
-683.281	74.496	-0.037	-0.039
-682.266	222.919	0.061	0.099
-681.251	-160.209	-0.142	-0.008
-680.237	62.439	0.136	-0.137
-679.222	272.768	0.160	-0.284
-678.208	-200.000	0.024	-0.183
-677.193	108.811	-0.187	-0.226
-676.178	607.427	0.097	-0.244
-675.164	-79.978	0.117	-0.040
-674.149	116.144	0.202	-0.250
-673.135	36.328	0.060	-0.053
-672.120	800.000	0.042	0.126
-671.105	60.518	0.035	0.035
-670.091	51.730	-0.133	-0.128
-669.076	69.458	-0.085	-0.088
-668.062	-200.000	-0.030	-0.423
-667.047	-200.000	0.051	-0.451
-666.032	49.857	0.220	-0.210
-665.018	93.023	-0.105	-0.120
-664.003	47.897	0.069	0.065
-662.989	800.000	0.051	-0.188
-661.974	288.753	-0.138	0.252
-660.959	-70.907	-0.392	-0.149
-659.945	-91.009	-0.436	-0.126
-658.930	-10.489	-0.088	-0.058
-657.916	-150.059	0.181	-0.014
-656.901	166.749	0.182	-0.260
-655.886	-7.118	-0.150	-0.103
-654.872	-117.171	0.159	0.029
-653.857	-134.775	-0.418	-0.051
-652.843	-182.058	-0.228	-0.004
-651.828	307.944	0.031	-0.058
-650.814	-200.000	-0.002	0.076
-649.799	-148.242	0.319	-0.027
-648.784	-31.287	0.101	0.057
-647.770	-128.901	0.142	-0.020
-646.755	-117.835	-0.074	0.013
-645.741	-5.413	-0.239	-0.166
-644.726	70.420	-0.078	-0.082
-643.711	109.637	-0.135	-0.163
-642.697	-140.693	-0.341	0.036
-641.682	751.942	-0.048	-0.131
-640.668	-65.151	0.347	0.141
-639.653	-148.064	0.163	-0.014
-638.638	-200.000	0.049	-0.332
-637.624	275.178	-0.132	0.236
-636.609	-200.000	-0.073	-0.395
-635.595	739.975	-0.017	-0.047
-634.580	173.836	0.034	-0.050
-633.565	287.494	-0.064	-0.117
-632.551	165.805	0.145	-0.207
-631.536	-200.000	-0.061	0.297
-630.522	-46.249	-0.242	-0.120
-629.507	800.000	0.000	-0.001
-628.492	204.921	-0.171	-0.268
-627.478	800.000	0.006	0.025
-626.463	-38.071	0.200	0.107
-625.449	-66.343	0.203	-0.082
-624.434	-200.000	0.025	-0.147
-623.419	-113.890	-0.065	0.013
-622.405	545.361	0.058	-0.139
-621.390	-159.727	0.156	0.009
-620.376	-200.000	-0.077	0.343
-619.361	-12.331	-0.246	0.162
-618.346	524.872	-0.136	-0.323
-617.332	-200.000	0.060	-0.295
-616.317	-22.659	-0.257	-0.156
-615.303	-39.069	0.294	0.156
-614.288	-126.714	-0.058	0.009
-613.273	-147.163	0.486	0.042
-612.259	608.048	-0.056	-0.140
-611.244	-200.000	-0.018	0.133
-610.230	-117.047	-0.466	0.086
-609.215	-75.994	0.311	0.111
-608.201	-200.000	-0.002	0.108
-607.186	-75.842	0.172	-0.061
-606.171	800.000	0.098	-0.302
-605.157	-101.104	0.213	0.053
-604.142	195.275	0.103	-0.158
-603.128	-63.216	0.218	0.091
-602.113	-200.000	0.031	-0.212
-601.098	4.981	-0.213	-0.158
-600.084	-154.939	-0.118	0.008
-599.069	68.272	-0.282	0.291
-598.055	-200.000	0.016	0.114
-597.040	157.982	-0.169	-0.236
-596.025	79.936	0.071	0.077
-595.011	-200.000	0.016	0.171
-593.996	570.248	-0.143	-0.350
-592.982	-122.399	-0.137	0.022
-591.967	247.473	-0.159	-0.271
-590.952	-58.956	0.336	-0.146
-589.938	-66.766	-0.260	-0.104
-588.923	281.565	0.033	-0.060
-587.909	163.311	-0.193	-0.272
-586.894	800.000	0.079	-0.251
-585.879	92.455	-0.124	0.141
-584.865	0.693	0.130	-0.094
-583.850	-76.328	0.171	-0.061
-582.836	-42.198	-0.274	-0.141
-581.821	-200.000	0.019	0.165
-580.806	-200.000	-0.031	0.187
-579.792	800.000	-0.069	0.273
-578.777	-6.157	0.142	-0.097
-577.763	245.709	-0.257	0.435
-576.748	94.042	-0.107	-0.122
-575.733	-74.889	0.240	-0.087
-574.719	267.982	0.051	0.091
-573.704	-122.741	0.162	0.026
-572.690	70.745	-0.302	0.315
-571.675	775.026	-0.037	0.103
-570.661	242.675	-0.061	-0.103
-569.646	-200.000	-0.002	0.222
-568.631	-153.215	-0.261	-0.018
-567.617	800.000	-0.041	-0.173
-566.602	151.743	0.132	0.181
-565.588	348.000	0.126	-0.250
-564.573	-37.220	0.161	0.087
-563.558	-110.840	-0.238	0.049
-562.544	800.000	-0.073	0.249
-561.529	-124.961	0.455	0.070
-560.515	-188.385	0.285	0.004
-559.500	-31.027	0.229	0.130
-558.485	171.929	-0.076	0.110
-557.471	334.744	-0.096	-0.186
-556.456	-200.000	-0.018	0.114
-555.442	-71.888	0.268	-0.100
-554.427	465.154	-0.005	-0.012
-553.412	44.479	0.174	-0.160
-552.398	-200.000	-0.045	-0.312
-551.383	107.816	0.109	-0.131
-550.369	-84.507	0.183	0.058
-549.354	-107.346	0.090	0.020
-548.339	800.000	-0.053	-0.168
-547.325	-26.349	-0.409	-0.241
-546.310	-200.000	-0.009	0.171
-545.296	35.253	0.082	0.072
-544.281	-73.323	-0.362	-0.133
-543.266	-80.062	0.132	-0.044
-542.252	-148.835	0.093	-0.008
-541.237	12.003	-0.178	0.137
-540.223	-200.000	-0.036	-0.210
-539.208	-200.000	-0.021	0.275
-538.193	31.312	-0.301	0.260
-537.179	-22.112	-0.186	-0.113
-536.164	-77.855	-0.213	0.074
-535.150	-171.347	-0.279	-0.009
-534.135	-96.211	-0.057	-0.015
-533.121	-73.204	0.176	-0.065
-532.106	-123.284	0.242	0.039
-531.091	-200.000	0.016	-0.195
-530.077	800.000	-0.020	0.075
-529.062	281.813	0.083	0.149
-528.048	800.000	-0.034	-0.151
-527.033	120.356	-0.137	-0.171
-526.018	-56.067	0.466	0.208
-525.004	-86.405	0.348	0.107
-523.989	-200.000	0.015	0.328
-522.975	-200.000	-0.005	-0.060
-521.960	730.473	0.042	0.114
-520.945	-102.598	0.294	-0.070
-519.931	800.000	0.164	-0.590
-518.916	-42.012	-0.177	-0.091
-517.902	-200.000	0.016	0.085
-516.887	-100.609	-0.337	-0.084
-515.872	-134.490	0.095	0.012
-514.858	-175.793	0.355	-0.010
-513.843	151.913	0.115	-0.158
-512.829	800.000	-0.068	0.197
-511.814	-200.000	0.030	-0.362
-510.799	24.779	-0.066	-0.055
-509.785	576.884	-0.052	-0.127
-508.770	-18.069	0.188	-0.118
-507.756	268.923	-0.043	-0.076
-506.741	83.664	0.075	-0.082
-505.726	-200.000	0.053	0.352
-504.712	-12.570	-0.354	-0.232
-503.697	800.000	-0.095	-0.310
-502.683	446.427	-0.112	-0.247
-501.668	-200.000	0.022	-0.189
-500.653	800.000	0.023	-0.075
-499.639	121.160	-0.083	-0.103
-498.624	12.001	0.321	0.248
-497.610	-200.000	0.032	0.170
-496.595	96.563	-0.251	-0.288
-495.581	-200.000	0.006	-0.056
-494.566	-159.234	0.165	0.009
-493.551	294.214	0.151	-0.276
-492.537	-147.256	0.022	0.002
-491.522	-33.284	-0.206	-0.114
-490.508	60.069	0.115	-0.114
-489.493	-155.050	0.093	0.006
-488.478	-145.390	0.093	0.008
-487.464	-88.352	0.162	-0.048
-486.449	223.213	-0.115	0.186
-485.435	-17.608	-0.529	-0.333
-484.420	-69.015	0.363	-0.140
-483.405	-116.577	0.296	0.055
-482.391	-83.494	0.230	-0.074
-481.376	-117.261	-0.151	-0.028
-480.362	800.000	-0.037	0.130
-479.347	-127.793	-0.136	0.020
-478.332	-200.000	0.043	0.291
-477.318	607.869	0.024	-0.061
-476.303	800.000	0.078	-0.299
-475.289	71.093	-0.181	0.188
-474.274	273.905	0.070	-0.124
-473.259	-192.560	0.299	-0.003
-472.245	43.656	0.036	-0.033
-471.230	-200.000	0.003	-0.149
-470.216	800.000	0.106	0.426
-469.201	-176.026	0.211	-0.006
-468.186	1.313	-0.137	-0.098
-467.172	-63.630	-0.069	-0.028
-466.157	265.853	-0.079	-0.138
-465.143	-200.000	-0.011	-0.257
-464.128	-35.144	0.032	0.017
-463.113	-16.044	0.192	-0.122
-462.099	221.808	-0.079	-0.127
-461.084	-200.000	0.007	0.140
-460.070	40.332	-0.180	-0.162
-459.055	73.598	-0.158	0.166
-458.040	339.884	0.081	-0.158
-457.026	16.006	0.505	0.398
-456.011	-1.466	0.210	-0.148
-454.997	800.000	0.061	-0.233
-453.982	-148.199	0.108	-0.009
-452.968	-83.201	-0.319	-0.102
-451.953	800.000	-0.053	0.168
-450.938	-200.000	-0.010	-0.064
-449.924	80.516	0.070	-0.075
-448.909	-129.840	0.269	0.037
-447.895	-148.860	-0.144	-0.012
-446.880	-32.147	-0.280	0.157
-445.865	-37.693	0.083	0.044
-444.851	-20.533	0.227	0.139
-443.836	-113.313	0.234	0.046
-442.822	660.410	-0.160	0.412
-441.807	800.000	-0.047	0.181
-440.792	223.902	-0.186	0.301
-439.778	548.890	-0.052	0.125
-438.763	-165.107	-0.246	-0.011
-437.749	-21.823	0.361	-0.219
-436.734	110.848	0.049	-0.059
-435.719	800.000	0.043	-0.124
-434.705	-167.333	-0.179	-0.007
-433.690	-123.810	0.272	-0.043
-432.676	1.997	0.193	-0.139
-431.661	-127.244	-0.193	-0.028
-430.646	-188.098	-0.274	-0.004
-429.632	-103.587	-0.318	0.075
-428.617	169.287	-0.175	0.250
-427.603	800.000	0.034	-0.097
-426.588	-200.000	0.032	-0.355
-425.573	135.778	-0.037	-0.048
-424.559	-200.000	-0.001	0.008
-423.544	-39.424	-0.174	0.091
-422.530	-5.768	-0.190	-0.130
-421.515	-81.219	-0.119	0.039
-420.500	235.863	-0.260	-0.429
-419.486	-14.030	0.260	0.168
-418.471	454.224	0.117	0.259
-417.457	596.576	-0.065	0.160
-416.442	24.059	0.157	-0.129
-415.428	-64.115	-0.122	-0.050
-414.413	-200.000	-0.062	0.305
-413.398	-200.000	-0.065	0.332
-412.384	-85.518	0.089	0.028
-411.369	296.507	-0.025	-0.045
-410.355	10.111	-0.319	0.242
-409.340	-17.461	0.055	0.035
-408.325	71.063	0.199	0.206
-407.311	-50.437	-0.173	-0.081
-406.296	137.432	0.081	-0.106
-405.282	-8.941	-0.127	0.085
-404.267	127.179	0.090	-0.114
-403.252	-67.047	-0.072	-0.028
-402.238	92.164	0.041	0.046
-401.223	22.160	0.106	-0.087
-400.209	180.925	0.074	-0.108
-399.194	264.233	-0.188	-0.327
-398.179	-14.934	0.187	-0.120
-397.165	-200.000	0.097	0.430
-396.150	102.167	-0.104	0.121
-395.136	-59.319	-0.143	-0.061
-394.121	163.842	0.030	0.042
-393.106	67.092	0.201	-0.205
-392.092	101.075	-0.222	-0.258
-391.077	-200.000	-0.075	0.550
-390.063	230.062	-0.130	0.212
-389.048	42.080	-0.069	0.062
-388.033	-200.000	-0.022	0.166
-387.019	-131.913	-0.233	0.030
-386.004	-69.059	-0.227	0.087
-384.990	-200.000	-0.026	-0.137
-383.975	-13.020	-0.128	0.083
-382.960	76.026	-0.107	-0.113
-381.946	569.636	0.094	-0.228
-380.931	-8.202	0.147	-0.099
-379.917	-125.790	-0.257	-0.039
-378.902	-200.000	0.011	0.074
-377.888	-31.714	0.077	0.043
-376.873	-200.000	-0.001	0.199
-375.858	-33.868	0.036	-0.020
-374.844	313.374	0.125	0.234
-373.829	-200.000	0.001	-0.084
-372.815	-43.183	0.226	0.114
-371.800	-75.683	0.174	-0.062
-370.785	-200.000	-0.039	0.192
-369.771	9.082	0.304	0.229
-368.756	263.175	0.093	-0.162
-367.742	-17.782	0.235	0.147
-366.727	526.080	-0.067	0.156
-365.712	369.783	-0.016	-0.033
-364.698	-200.000	0.024	0.326
-363.683	-32.721	-0.184	0.102
-362.669	186.124	0.251	0.372
-361.654	-31.621	0.211	0.118
-360.639	-167.691	-0.226	-0.009
-359.625	-200.000	-0.009	-0.180
-358.610	349.916	0.088	0.173
-357.596	5.002	-0.093	0.068
-356.581	497.580	0.019	-0.043
-355.566	216.697	-0.086	0.136
-354.552	-78.821	0.483	-0.164
-353.537	-55.653	0.082	-0.037
-352.523	-200.000	0.016	0.117
-351.508	-107.698	0.021	0.004
-350.493	800.000	0.086	0.274
-349.479	676.458	-0.079	-0.203
-348.464	-200.000	-0.035	-0.361
-347.450	9.038	-0.156	-0.117
-346.435	-30.033	0.230	0.130
-345.420	800.000	-0.088	0.243
-344.406	-200.000	0.014	0.157
-343.391	19.895	-0.367	0.295
-342.377	-1.210	-0.095	0.067
-341.362	99.596	-0.058	-0.067
-340.348	-166.435	0.051	-0.002
-339.333	-200.000	0.001	-0.142
-338.318	-89.216	-0.409	-0.120
-337.304	800.000	0.019	-0.064
-336.289	-101.764	-0.384	-0.093
-335.275	-200.000	0.025	0.141
-334.260	800.000	0.030	0.122
-333.245	-163.697	-0.205	-0.010
-332.231	-41.005	0.130	0.067
-331.216	-19.558	0.194	-0.119
-330.202	-200.000	-0.038	0.208
-329.187	213.082	0.146	0.229
-328.172	-86.699	-0.240	0.073
-327.158	126.236	-0.160	0.202
-326.143	-200.000	-0.001	0.198
-325.129	-45.970	0.087	0.043
-324.114	176.030	-0.079	-0.115
-323.099	800.000	-0.051	-0.162
-322.085	195.616	-0.168	0.255
-321.070	-36.520	-0.174	0.093
-320.056	-112.856	-0.194	-0.038
-319.041	46.902	-0.058	-0.053
-318.026	1.411	-0.135	0.097
-317.012	140.110	-0.116	-0.152
-315.997	146.037	-0.281	-0.375
-314.983	-48.516	-0.193	0.092
-313.968	-200.000	0.016	-0.162
-312.953	-200.000	0.039	-0.348
-311.939	800.000	0.118	0.411
-310.924	-50.289	0.309	0.146
-309.910	-16.580	0.040	0.025
-308.895	800.000	-0.033	0.129
-307.880	150.757	0.107	-0.144
-306.866	-200.000	0.089	0.439
-305.851	48.450	0.068	0.063
-304.837	-49.573	0.294	0.139
-303.822	-134.785	0.210	0.025
-302.807	-110.970	-0.066	-0.013
-301.793	95.823	-0.137	0.156
-300.778	-164.927	0.094	0.004
-299.764	138.600	0.149	0.195
-298.749	122.435	-0.179	-0.223
-297.735	800.000	0.028	0.101
-296.720	-200.000	-0.014	-0.183
-295.705	165.160	-0.211	-0.296
-294.691	-5.531	-0.160	0.109
-293.676	605.358	-0.080	0.198
-292.662	99.634	0.070	0.080
-291.647	-131.030	0.328	0.044
-290.632	-53.430	-0.108	-0.049
-289.618	-124.429	0.113	0.017
-288.603	-88.749	0.172	0.051
-287.589	-200.000	0.028	-0.247
-286.574	800.000	0.090	0.329
-285.559	100.485	0.064	0.074
-284.545	-200.000	0.021	0.115
-283.530	250.338	0.086	0.146
-282.516	-95.059	0.219	0.059
-281.501	-136.720	-0.194	-0.022
-280.486	-59.734	-0.271	0.115
-279.472	-70.472	0.216	-0.081
-278.457	-11.101	-0.155	-0.102
-277.443	7.732	-0.170	-0.127
-276.428	-163.203	0.051	0.002
-275.413	120.440	-0.111	0.137
-274.399	63.607	0.223	0.222
-273.384	800.000	0.107	0.329
-272.370	-200.000	0.006	0.219
-271.355	-64.818	-0.202	-0.081
-270.340	-115.723	-0.095	-0.018
-269.326	-54.931	0.157	0.070
-268.311	-200.000	0.006	0.070
-267.297	-200.000	0.021	-0.497
-266.282	264.708	-0.082	-0.142
-265.267	-153.223	0.223	-0.015
-264.253	-116.845	0.347	0.063
-263.238	21.579	0.085	0.069
-262.224	33.872	0.029	-0.025
-261.209	113.226	0.230	0.277
-260.195	-6.824	-0.207	-0.140
-259.180	-200.000	0.008	0.095
-258.165	302.204	0.137	-0.251
-257.151	800.000	-0.090	0.332
-256.136	218.705	0.060	-0.095
-255.122	-6.057	0.295	0.200
-254.107	-178.688	-0.083	-0.002
-253.092	-16.657	0.142	-0.089
-252.078	395.241	0.040	0.083
-251.063	800.000	0.054	0.186
-250.049	-66.811	0.184	-0.072
-249.034	-94.531	0.173	0.047
-248.019	-152.186	-0.158	-0.011
-247.005	402.119	0.120	0.250
-245.990	800.000	-0.065	-0.253
-244.976	-200.000	-0.024	0.189
-243.961	164.381	-0.102	0.142
-242.946	-115.064	0.139	-0.026
-241.932	48.774	0.134	-0.125
-240.917	52.706	0.062	-0.058
-239.903	-200.000	-0.009	-0.106
-238.888	-200.000	-0.007	0.118
-237.873	-200.000	-0.010	0.056
-236.859	-72.867	-0.214	0.078
-235.844	202.488	0.123	-0.188
-234.830	-200.000	-0.031	-0.275
-233.815	-66.877	0.082	0.032
-232.800	353.867	-0.132	-0.260
-231.786	65.672	0.142	-0.143
-230.771	-200.000	-0.014	0.259
-229.757	138.448	0.078	0.101
-228.742	800.000	0.056	0.198
-227.727	192.396	0.351	0.526
-226.713	182.863	-0.069	-0.101
-225.698	-1.732	-0.062	-0.043
-224.684	-99.428	-0.181	0.045
-223.669	85.706	-0.011	-0.012
-222.655	387.978	0.078	0.161
-221.640	-35.688	-0.154	0.083
-220.625	-200.000	-0.004	-0.159
-219.611	-200.000	-0.001	-0.085
-218.596	-146.711	-0.466	-0.040
-217.582	105.942	-0.101	-0.118
-216.567	236.997	-0.116	0.190
-215.552	-19.450	-0.326	0.200
-214.538	-95.456	-0.071	0.019
-213.523	-200.000	0.031	0.154
-212.509	482.836	0.112	0.253
-211.494	655.015	-0.108	-0.275
-210.479	-112.547	0.256	0.051
-209.465	-78.267	0.198	-0.067
-208.450	-117.393	0.141	0.025
-207.436	800.000	-0.037	0.113
-206.421	318.435	0.135	0.253
-205.406	-31.043	0.182	0.102
-204.392	797.430	-0.044	-0.119
-203.377	-18.032	-0.238	-0.148
-202.363	-101.280	-0.027	-0.007
-201.348	-154.028	-0.161	0.011
-200.333	-200.000	0.008	0.158
-199.319	-38.687	0.241	-0.126
-198.304	-98.625	-0.223	0.056
-197.290	-200.000	-0.023	0.263
-196.275	800.000	-0.088	-0.319
-195.260	-137.012	-0.130	0.015
-194.246	-5.197	0.121	0.083
-193.231	800.000	0.075	-0.217
-192.217	-200.000	-0.005	0.030
-191.202	-200.000	0.015	-0.320
-190.187	800.000	0.083	-0.302
-189.173	-200.000	-0.019	-0.127
-188.158	-200.000	0.028	-0.360
-187.144	-69.096	0.368	-0.140
-186.129	454.932	-0.037	-0.082
-185.114	-15.860	-0.096	-0.061
-184.100	-200.000	-0.025	0.112
-183.085	-53.503	-0.291	0.132
-182.071	800.000	-0.059	-0.211
-181.056	800.000	0.063	-0.259
-180.042	-44.648	0.229	-0.113
-179.027	-175.585	-0.325	-0.009
-178.012	142.599	-0.251	-0.330
-176.998	-0.350	0.039	-0.027
-175.983	-200.000	-0.001	-0.029
-174.969	-152.298	-0.428	0.031
-173.954	49.511	0.058	-0.054
-172.939	223.839	-0.232	-0.371
-171.925	-15.827	0.115	0.073
-170.910	178.132	-0.236	0.341
-169.896	-125.046	0.111	-0.017
-168.881	-55.109	0.206	-0.092
-167.866	800.000	0.122	0.426
-166.852	-105.121	-0.112	-0.025
-165.837	169.151	-0.144	0.203
-164.823	478.039	0.212	0.475
-163.808	800.000	-0.059	0.180
-162.793	-35.291	0.144	-0.078
-161.779	-31.846	-0.190	0.105
-160.764	800.000	0.023	-0.068
-159.750	-91.692	-0.238	-0.067
-158.735	52.342	0.092	0.086
-157.720	15.385	-0.312	-0.242
-156.706	-114.427	-0.152	0.029
-155.691	-154.172	0.305	0.020
-154.677	109.395	0.215	-0.255
-153.662	-200.000	-0.065	-0.322
-152.647	605.195	0.045	-0.110
-151.633	-200.000	-0.061	-0.280
-150.618	9.009	0.258	0.192
-149.604	69.286	-0.074	0.075
-148.589	-58.896	0.173	0.074
-147.574	-200.000	-0.075	0.516
-146.560	18.230	-0.179	-0.141
-145.545	193.002	0.075	0.112
-144.531	52.578	0.258	-0.244
-143.516	-200.000	-0.011	0.124
-142.502	-163.772	0.194	-0.009
-141.487	-147.509	0.113	-0.009
-140.472	-118.223	-0.173	-0.031
-139.458	-93.736	0.343	0.093
-138.443	-193.715	0.376	0.003
-137.429	84.432	0.093	0.101
-136.414	170.838	0.117	-0.165
-135.399	-200.000	-0.015	-0.218
-134.385	-127.755	-0.077	-0.011
-133.370	-85.158	-0.070	-0.022
-132.356	-200.000	0.037	-0.185
-131.341	210.663	-0.038	0.059
-130.326	-200.000	-0.043	-0.374
-129.312	116.466	-0.099	0.120
-128.297	-127.696	-0.295	0.042
-127.283	-69.651	-0.215	-0.081
-126.268	-123.359	0.143	0.023
-125.253	153.627	0.074	0.100
-124.239	-45.130	-0.177	-0.087
-123.224	-85.622	-0.115	-0.035
-122.210	394.922	-0.170	0.350
-121.195	164.483	0.186	-0.259
-120.180	133.345	0.191	-0.244
-119.166	-200.000	-0.040	-0.248
-118.151	574.515	-0.106	-0.256
-117.137	70.601	-0.271	-0.277
-116.122	-140.521	0.145	0.015
-115.107	-170.386	0.233	-0.008
-114.093	-200.000	0.037	0.198
-113.078	800.000	-0.123	0.364
-112.064	-200.000	0.011	0.390
-111.049	800.000	-0.076	0.236
-110.034	323.553	0.033	0.062
-109.020	-11.439	-0.374	0.243
-108.005	-146.341	0.162	0.014
-106.991	-84.438	0.334	-0.104
-105.976	-200.000	-0.064	0.349
-104.962	-131.657	-0.081	0.010
-103.947	526.179	-0.086	-0.199
-102.932	123.308	-0.110	0.136
-101.918	-200.000	-0.053	0.280
-100.903	-145.900	0.162	0.014
-99.889	-25.246	-0.189	0.111
-98.874	30.407	0.115	-0.097
-97.859	-200.000	0.022	-0.286
-96.845	18.497	0.193	-0.152
-95.830	-67.483	0.517	-0.200
-94.816	119.182	0.259	0.316
-93.801	70.551	0.081	0.083
-92.786	-26.647	0.218	0.126
-91.772	-200.000	-0.026	-0.217
-90.757	800.000	-0.052	0.178
-89.743	-79.457	-0.119	-0.040
-88.728	-71.044	-0.180	0.067
-87.713	800.000	0.043	-0.180
-86.699	800.000	-0.061	-0.209
-85.684	-200.000	0.005	0.124
-84.670	385.446	-0.222	-0.452
-83.655	216.443	0.040	0.063
-82.640	279.421	-0.123	0.217
-81.626	40.930	-0.150	0.134
-80.611	-0.656	-0.168	0.117
-79.597	234.788	-0.117	0.190
-78.582	-86.773	0.355	0.107
-77.567	-36.000	0.257	0.137
-76.553	-72.325	-0.296	0.108
-75.538	800.000	0.027	0.116
-74.524	37.566	-0.025	0.022
-73.509	-22.623	0.052	0.031
-72.494	-200.000	-0.003	0.013
-71.480	-47.481	-0.093	0.045
-70.465	250.739	0.196	-0.328
-69.451	-100.554	-0.353	0.086
-68.436	18.275	-0.116	0.092
-67.422	58.266	0.188	0.182
-66.407	-200.000	-0.001	-0.157
-65.392	424.484	0.123	-0.260
-64.378	119.183	0.111	-0.135
-63.363	676.805	-0.019	-0.048
-62.349	70.135	0.133	-0.135
-61.334	321.061	-0.640	-1.200
-60.319	3.097	0.364	0.261
-59.305	-200.000	-0.153	-1.104
-58.290	469.788	0.536	1.187
-57.276	800.000	0.576	1.824
-56.261	-200.000	89.999	523.951
-55.246	496.430	1384.454	3135.714
-54.232	151.726	2586.143	3471.393
-53.217	110.302	2311.944	2735.371
-52.203	46.812	1927.580	1764.064
-51.188	40.445	1718.143	1523.593
-50.173	37.571	1674.715	1463.443
-49.159	53.449	1720.028	1624.323
-48.144	57.398	1737.715	1671.019
-47.130	40.195	1695.889	1501.719
-46.115	37.197	1680.817	1465.721
-45.100	37.087	1676.099	1460.717
-44.086	37.025	1673.120	1457.603
-43.071	36.976	1671.047	1455.366
-42.057	36.935	1668.252	1452.570
-41.042	36.984	1666.347	1451.222
-40.027	37.055	1664.339	1449.944
-39.013	37.016	1662.572	1448.056
-37.998	36.925	1661.177	1446.108
-36.984	37.044	1659.614	1445.577
-35.969	37.123	1658.019	1444.717
-34.954	37.151	1656.520	1443.562
-33.940	37.126	1654.609	1441.650
-32.925	37.027	1653.252	1439.676
-31.911	37.124	1651.364	1438.693
-30.896	37.061	1649.551	1436.592
-29.881	36.993	1648.252	1434.898
-28.867	37.126	1646.046	1433.908
-27.852	37.145	1644.658	1432.783
-26.838	37.160	1643.299	1431.651
-25.823	37.085	1641.982	1429.893
-24.809	37.150	1640.269	1428.824
-23.794	37.118	1638.635	1427.112
-22.779	37.103	1637.384	1425.852
-21.765	37.146	1635.677	1424.622
-20.750	37.077	1634.627	1423.146
-19.736	37.205	1632.651	1422.307
-18.721	37.204	1631.623	1421.353
-17.706	37.267	1629.417	1419.836
-16.692	37.133	1628.469	1417.971
-15.677	37.187	1626.759	1416.821
-14.663	37.251	1625.780	1416.378
-13.648	37.193	1624.564	1414.839
-12.633	37.152	1623.241	1413.329
-11.619	37.163	1621.162	1411.543
-10.604	37.166	1619.693	1410.235
-9.590	37.217	1618.196	1409.247
-8.575	37.264	1616.642	1408.177
-7.560	37.161	1616.184	1406.974
-6.546	37.156	1614.911	1405.776
-5.531	37.097	1614.071	1404.557
-4.517	37.103	1612.698	1403.354
-3.502	37.073	1611.845	1402.340
-2.487	37.250	1610.289	1402.207
-1.473	36.808	1598.382	1388.611
-0.458	33.538	1577.631	1347.336
0.556	27.091	1575.859	1308.304
1.571	24.284	1598.753	1306.657
2.586	23.510	1612.673	1312.191
3.600	22.679	1564.839	1267.190
4.615	19.731	1466.396	1167.491
5.629	16.659	1406.535	1099.801
6.644	15.782	1399.137	1088.248
7.659	15.815	1397.144	1086.814
8.673	15.724	1396.585	1085.697
9.688	15.609	1394.616	1083.327
10.702	15.501	1392.143	1080.618
11.717	16.961	1393.809	1091.213
12.731	19.401	1398.002	1110.124
13.746	19.463	1395.973	1108.814
14.761	17.667	1391.908	1093.965
15.775	16.407	1388.662	1083.250
16.790	15.261	1385.801	1073.585
17.804	14.386	1383.239	1065.908
18.819	13.911	1381.486	1061.431
19.834	13.653	1380.035	1058.574
20.848	13.302	1379.105	1055.523
21.863	13.084	1377.386	1052.725
22.877	12.915	1376.463	1050.848
23.892	12.870	1375.557	1049.780
24.907	12.828	1374.851	1048.884
25.921	12.862	1373.763	1048.174
26.936	12.941	1373.221	1048.169
27.950	12.969	1371.977	1047.308
28.965	13.012	1370.498	1046.359
29.980	13.103	1369.275	1045.907
30.994	13.077	1368.623	1045.154
32.009	13.130	1367.130	1044.254
33.023	13.151	1365.752	1043.241
34.038	13.154	1364.521	1042.228
35.053	12.979	1363.148	1039.986
36.067	13.052	1361.759	1039.295
37.082	13.044	1361.420	1038.889
38.096	13.061	1360.137	1037.927
39.111	13.008	1358.967	1036.609
40.126	12.932	1358.208	1035.464
41.140	12.919	1357.363	1034.646
42.155	12.832	1356.846	1033.613
43.169	12.812	1356.923	1033.453
44.184	12.759	1356.502	1032.714
45.199	12.766	1356.038	1032.308
46.213	12.876	1355.506	1032.501
47.228	12.935	1354.731	1032.189
48.242	12.947	1353.561	1031.285
49.257	12.855	1351.821	1029.288
50.271	12.975	1349.802	1028.410
51.286	12.911	1348.776	1027.138
52.301	12.925	1347.464	1026.135
53.315	12.877	1346.194	1024.777
54.330	12.883	1345.506	1024.206
55.344	12.854	1343.639	1022.512
56.359	12.927	1342.973	1022.368
57.374	12.883	1342.217	1021.430
58.388	12.778	1341.648	1020.253
59.403	12.767	1341.125	1019.697
60.417	12.787	1340.009	1018.883
61.432	12.727	1339.293	1017.878
62.447	12.728	1338.390	1017.106
63.461	12.665	1337.004	1015.574
64.476	12.699	1335.842	1014.812
65.490	12.634	1335.033	1013.710
66.505	12.639	1333.502	1012.486
67.520	12.741	1331.756	1011.699
68.534	12.798	1330.655	1011.123
69.549	12.703	1330.312	1010.191
70.563	12.718	1329.214	1009.358
71.578	12.685	1327.894	1008.066
72.593	12.639	1326.689	1006.777
73.607	12.664	1326.225	1006.492
74.622	12.610	1325.243	1005.325
75.636	12.572	1324.856	1004.712
76.651	12.695	1323.563	1004.395
77.666	12.653	1323.253	1003.812
78.680	12.689	1322.976	1003.731
79.695	12.772	1321.823	1003.277
80.709	12.792	1320.984	1002.674
81.724	12.721	1320.531	1001.804
82.739	12.710	1319.462	1000.842
83.753	12.846	1318.520	1000.861
84.768	13.010	1316.963	1000.590
85.782	13.010	1316.108	999.848
86.797	12.912	1314.783	998.162
87.812	12.838	1314.028	997.053
88.826	12.813	1312.693	995.801
89.841	12.951	1311.660	995.763
90.855	12.937	1310.548	994.742
91.870	12.959	1309.794	994.213
92.884	13.094	1308.617	994.050
93.899	12.934	1308.154	992.645
94.914	13.014	1306.958	992.132
95.928	13.049	1306.139	991.633
96.943	13.050	1305.176	990.819
97.957	13.052	1304.049	989.890
98.972	13.002	1303.317	988.944
99.987	12.972	1302.224	987.847
101.001	13.048	1300.885	987.201
102.016	12.977	1300.418	986.332
103.030	13.027	1299.102	985.547
104.045	12.952	1298.088	984.241
105.060	13.006	1296.691	983.417
106.074	12.911	1295.327	981.734
107.089	12.865	1294.238	980.545
108.103	12.776	1293.029	979.013
109.118	12.752	1292.152	978.122
110.133	12.763	1290.322	976.716
111.147	12.850	1288.682	975.904
112.162	12.804	1287.872	974.930
113.176	12.780	1286.726	973.834
114.191	12.917	1285.475	973.608
115.206	12.865	1284.624	972.570
116.220	12.857	1283.634	971.689
117.235	12.928	1281.900	970.711
118.249	12.917	1280.950	969.839
119.264	12.828	1280.464	968.863
120.279	12.779	1278.951	967.343
121.293	12.812	1277.906	966.663
122.308	12.868	1276.596	965.912
123.322	12.781	1275.863	964.766
124.337	12.776	1275.215	964.159
125.352	12.658	1274.287	962.682
126.366	12.791	1272.456	961.988
127.381	12.874	1271.447	961.626
128.395	12.812	1270.499	960.463
129.410	12.766	1269.504	959.359
130.424	12.850	1268.649	959.114
131.439	12.864	1267.814	958.482
132.454	12.899	1266.657	957.724
133.468	12.861	1266.549	957.337
134.483	12.872	1265.316	956.387
135.497	12.968	1264.122	955.951
136.512	12.839	1263.311	954.508
137.527	12.892	1261.873	953.645
138.541	12.942	1260.142	952.543
139.556	12.933	1258.868	951.440
140.570	13.029	1258.029	951.275
141.585	13.038	1256.739	950.270
142.600	13.005	1255.400	948.985
143.614	13.060	1254.285	948.371
144.629	13.116	1253.773	948.225
145.643	13.068	1252.614	946.987
146.658	12.898	1251.454	945.049
147.673	12.960	1249.763	944.045
148.687	13.006	1248.549	943.310
149.702	13.027	1246.734	941.975
150.716	12.892	1245.535	940.217
151.731	12.882	1244.506	939.296
152.746	13.020	1243.400	939.163
153.760	12.969	1242.108	937.816
154.775	13.055	1241.006	937.388
155.789	13.033	1240.274	936.630
156.804	13.078	1239.067	935.889
157.819	13.058	1238.105	934.968
158.833	13.171	1236.915	934.623
159.848	13.164	1235.928	933.759
160.862	13.132	1235.005	932.794
161.877	13.156	1234.064	932.138
162.892	13.085	1232.992	930.848
163.906	13.014	1232.203	929.768
164.921	13.105	1231.101	929.369
165.935	13.030	1230.276	928.241
166.950	13.116	1229.298	927.902
167.964	13.207	1228.645	927.841
168.979	13.087	1228.396	926.894
169.994	13.081	1227.302	925.955
171.008	13.110	1226.802	925.658
172.023	13.205	1225.513	925.133
173.037	13.250	1225.034	924.945
174.052	13.123	1223.990	923.364
175.067	13.155	1222.581	922.396
176.081	13.225	1221.713	922.050
177.096	13.188	1220.837	921.105
178.110	13.167	1219.989	920.267
179.125	13.146	1218.593	919.016
180.140	13.220	1217.354	918.408
181.154	13.209	1216.461	917.590
182.169	13.228	1215.033	916.542
183.183	13.273	1213.921	915.869
184.198	13.332	1212.436	914.995
185.213	13.432	1211.242	914.566
186.227	13.389	1210.417	913.623
187.242	13.465	1209.576	913.324
188.256	13.495	1208.711	912.757
189.271	13.374	1207.818	911.336
190.286	13.346	1206.795	910.329
191.300	13.196	1205.800	908.672
192.315	13.114	1205.233	907.715
193.329	13.190	1204.719	907.664
194.344	13.237	1203.923	907.246
195.359	13.270	1203.414	906.959
196.373	13.294	1202.704	906.478
197.388	13.453	1202.160	906.856
198.402	13.527	1201.296	906.530
199.417	13.547	1200.783	906.171
200.432	13.674	1199.876	906.102
201.446	13.639	1199.131	905.268
202.461	13.708	1198.108	904.795
203.475	13.717	1197.182	904.063
204.490	13.756	1195.764	903.126
205.504	13.589	1194.816	901.419
206.519	13.634	1192.985	900.201
207.534	13.523	1192.297	899.003
208.548	13.500	1191.688	898.338
209.563	13.622	1190.829	898.273
210.577	13.545	1189.970	897.130
211.592	13.714	1188.923	897.174
212.607	13.741	1188.169	896.671
213.621	13.745	1187.214	895.892
214.636	13.661	1186.494	894.817
215.650	13.712	1185.387	894.180
216.665	13.759	1184.319	893.544
217.680	13.815	1183.800	893.376
218.694	13.863	1182.895	892.872
219.709	13.858	1181.820	891.955
220.723	13.901	1181.430	891.812
221.738	13.910	1180.227	890.876
222.753	13.856	1179.847	890.217
223.767	13.939	1179.172	890.077
224.782	13.944	1178.492	889.512
225.796	13.954	1177.895	889.035
226.811	14.047	1177.007	888.784
227.826	13.937	1176.235	887.533
228.840	13.967	1175.455	887.026
229.855	14.010	1174.439	886.412
230.869	13.976	1173.947	885.782
231.884	13.894	1173.197	884.698
232.899	13.986	1172.313	884.446
233.913	13.886	1171.727	883.394
234.928	13.930	1171.100	883.076
235.942	13.820	1170.462	881.931
236.957	13.815	1169.585	881.165
237.972	13.931	1168.944	881.220
238.986	13.917	1167.943	880.311
240.001	13.930	1167.582	880.032
241.015	13.896	1166.614	879.043
242.030	13.974	1165.392	878.459
243.045	14.044	1164.441	878.034
244.059	14.061	1163.890	877.633
245.074	14.133	1162.605	876.965
246.088	14.055	1161.943	875.978
247.103	14.094	1161.856	876.038
248.117	14.190	1160.806	875.673
249.132	14.279	1159.934	875.408
250.147	14.352	1159.434	875.334
251.161	14.352	1158.772	874.759
252.176	14.309	1158.428	874.195
253.190	14.416	1157.376	873.884
254.205	14.454	1157.087	873.789
255.220	14.568	1156.524	873.885
256.234	14.416	1155.502	872.239
257.249	14.462	1154.989	872.015
258.263	14.440	1154.508	871.459
259.278	14.446	1153.649	870.763
260.293	14.543	1153.314	870.941
261.307	14.550	1152.759	870.484
262.322	14.558	1152.314	870.112
263.336	14.562	1151.621	869.534
264.351	14.628	1150.679	869.090
265.366	14.539	1150.313	868.268
266.380	14.638	1149.079	867.779
267.395	14.628	1148.534	867.238
268.409	14.667	1147.472	866.559
269.424	14.574	1147.167	865.774
270.439	14.551	1146.286	864.910
271.453	14.583	1145.675	864.540
272.468	14.609	1144.883	863.999
273.482	14.586	1143.989	863.127
274.497	14.612	1143.661	862.938
275.512	14.614	1142.932	862.324
276.526	14.685	1141.778	861.743
277.541	14.620	1141.503	861.124
278.555	14.625	1140.955	860.660
279.570	14.726	1140.042	860.416
280.585	14.868	1139.184	860.422
281.599	14.804	1138.563	859.547
282.614	14.798	1137.587	858.706
283.628	14.947	1135.978	858.180
284.643	14.853	1135.356	857.152
285.657	14.870	1134.395	856.437
286.672	14.887	1133.487	855.763
287.687	14.866	1132.504	854.839
288.701	14.856	1131.898	854.253
289.716	14.855	1131.064	853.544
290.730	14.865	1130.460	853.063
291.745	14.865	1129.827	852.508
292.760	14.933	1129.160	852.275
293.774	14.929	1128.667	851.811
294.789	14.886	1128.282	851.225
295.803	15.025	1126.949	850.850
296.818	14.934	1126.448	849.934
297.833	14.973	1125.570	849.394
298.847	14.900	1124.858	848.410
299.862	15.052	1123.777	848.291
300.876	15.132	1123.238	848.217
301.891	15.033	1122.746	847.268
302.906	15.063	1121.900	846.706
303.920	15.183	1120.920	846.497
304.935	15.138	1120.741	846.063
305.949	15.218	1120.395	846.126
306.964	15.159	1119.458	845.048
307.979	15.191	1118.376	844.318
308.993	15.150	1118.133	843.854
310.008	15.227	1117.422	843.627
311.022	15.312	1116.252	843.099
312.037	15.283	1115.000	841.931
313.052	15.240	1114.353	841.156
314.066	15.205	1113.385	840.172
315.081	15.157	1113.155	839.685
316.095	15.075	1112.218	838.492
317.110	15.163	1111.340	838.198
318.125	15.052	1110.924	837.255
319.139	15.083	1110.213	836.798
320.154	15.211	1109.170	836.580
321.168	15.204	1108.313	835.821
322.183	15.261	1108.257	835.989
323.197	15.354	1107.473	835.787
324.212	15.222	1106.888	834.616
325.227	15.391	1106.132	834.812
326.241	15.381	1105.047	833.869
327.256	15.374	1104.542	833.381
328.270	15.226	1104.013	832.175
329.285	15.258	1102.865	831.395
330.300	15.219	1102.084	830.537
331.314	15.418	1100.636	830.356
332.329	15.354	1100.153	829.606
333.343	15.329	1099.615	828.999
334.358	15.337	1098.742	828.309
335.373	15.381	1097.695	827.662
336.387	15.439	1097.204	827.507
337.402	15.595	1095.998	827.289
338.416	15.510	1095.672	826.553
339.431	15.477	1094.999	825.810
340.446	15.568	1094.386	825.721
341.460	15.670	1094.035	825.887
342.475	15.700	1092.856	825.071
343.489	15.668	1092.057	824.236
344.504	15.811	1090.786	823.904
345.519	15.753	1089.996	822.951
346.533	15.804	1089.015	822.385
347.548	15.744	1088.845	821.893
348.562	15.864	1088.053	821.809
349.577	15.741	1087.043	820.373
350.592	15.894	1086.090	820.325
351.606	15.600	1085.829	818.625
352.621	15.674	1085.106	818.366
353.635	15.648	1084.330	817.581
354.650	15.766	1083.764	817.658
355.665	15.774	1083.038	817.075
356.679	15.665	1082.475	816.049
357.694	15.809	1081.665	816.066
358.708	15.836	1081.041	815.653
359.723	15.736	1080.376	814.597
360.738	15.848	1079.985	814.772
361.752	15.893	1079.522	814.567
362.767	15.923	1078.679	814.002
363.781	15.822	1078.129	813.031
364.796	15.873	1077.591	812.795
365.810	15.990	1076.895	812.764
366.825	15.996	1076.354	812.314
367.840	16.038	1075.849	812.064
368.854	16.119	1075.170	811.870
369.869	16.100	1074.236	811.000
370.883	16.086	1073.289	810.148
371.898	15.985	1073.049	809.407
372.913	16.020	1072.400	809.014
373.927	16.165	1071.786	809.174
374.942	16.085	1071.113	808.211
375.956	16.073	1070.887	807.914
376.971	16.113	1070.447	807.700
377.986	16.183	1069.392	807.170
379.000	16.278	1068.380	806.788
380.015	16.368	1068.343	807.119
381.029	16.330	1067.544	806.261
382.044	16.282	1067.102	805.628
383.059	16.413	1066.321	805.593
384.073	16.382	1065.437	804.706
385.088	16.321	1064.588	803.701
386.102	16.284	1063.422	802.575
387.117	16.328	1062.392	801.933
388.132	16.251	1061.412	800.757
389.146	16.313	1060.787	800.513
390.161	16.239	1060.561	799.919
391.175	16.361	1059.254	799.438
392.190	16.451	1058.711	799.385
393.205	16.430	1058.193	798.822
394.219	16.357	1057.373	797.788
395.234	16.405	1056.488	797.279
396.248	16.490	1055.371	796.763
397.263	16.352	1054.443	795.345
398.278	16.406	1054.194	795.338
399.292	16.303	1053.152	793.998
400.307	16.317	1052.574	793.559
401.321	16.378	1052.023	793.360
402.336	16.375	1051.310	792.737
403.350	16.362	1050.415	791.931
404.365	16.413	1049.762	791.606
405.380	16.462	1049.273	791.401
406.394	16.421	1048.691	790.697
407.409	16.483	1047.730	790.191
408.423	16.666	1046.550	790.086
409.438	16.648	1046.187	789.659
410.453	16.660	1045.545	789.159
411.467	16.740	1044.938	789.006
412.482	16.747	1044.153	788.377
413.496	16.835	1043.411	788.154
414.511	16.785	1043.008	787.549
415.526	16.655	1042.942	786.824
416.540	16.793	1042.343	786.945
417.555	16.809	1041.790	786.532
418.569	16.963	1040.806	786.434
419.584	16.783	1040.906	785.603
420.599	16.836	1040.044	785.128
421.613	95.282	1309.838	1423.315
422.628	87.417	1349.146	1423.457
