DTS Sentinel unit serial number:	SN413079Multiplexer serial number:	ORYXHardware model number:	OX4-SRSoftware version number:	ORYX F/W v4.00 Oryx Data Collector v3.7.2.0data status	okinstallation	princeton_trtdifferential loss correction	single-endedforward channel	channel 2reverse channel	N/Adate	2019/09/11time	16:37:11forward acquisition time	60.00reverse acquisition time	0.00gamma	496.2192k internal	0.2284k external	0.2284temperature offset calibration	1.0018default loss term (dB/km)	0.3790temperature slope calibration	1.0000multiplexer offset coefficient	1.0000multiplexer slope coefficient	1.0000fibre end	0.00T internal ref (°C)	43.77T ext. ref 1 (°C)	1.10T ext. ref 2 (°C)	39.08length (m)	temperature (°C)	Stokes	anti-Stokes-747.200	-37.414	0.226	-0.124
-746.185	104.871	-0.236	0.286
-745.171	67.045	0.121	-0.126
-744.156	90.893	-0.140	0.161
-743.142	-23.637	-0.137	0.085
-742.127	-200.000	0.008	0.188
-741.112	-53.675	0.296	0.139
-740.098	-3.229	0.082	0.059
-739.083	157.712	-0.034	-0.048
-738.069	800.000	0.058	-0.219
-737.054	800.000	0.026	0.085
-736.039	-100.106	-0.267	-0.068
-735.025	221.398	0.224	0.370
-734.010	94.400	-0.119	-0.138
-732.996	-130.417	-0.456	-0.063
-731.981	-43.811	0.305	0.158
-730.966	-135.990	-0.132	-0.016
-729.952	636.863	-0.051	-0.132
-728.937	-200.000	0.008	0.071
-727.923	-173.944	-0.201	-0.006
-726.908	-83.740	-0.359	0.118
-725.894	-200.000	-0.026	-0.484
-724.879	-200.000	0.009	-0.233
-723.864	-200.000	-0.050	-0.244
-722.850	-120.035	-0.368	0.065
-721.835	800.000	0.026	0.094
-720.821	-137.991	-0.151	0.017
-719.806	241.933	-0.114	0.196
-718.791	323.046	0.105	0.206
-717.777	255.686	-0.111	0.195
-716.762	362.642	0.178	0.367
-715.748	-200.000	0.002	-0.210
-714.733	-81.652	-0.396	-0.133
-713.718	57.803	-0.202	0.203
-712.704	52.454	-0.207	-0.202
-711.689	-181.463	-0.111	0.002
-710.675	-59.292	0.347	-0.153
-709.660	-123.493	-0.030	0.005
-708.645	-200.000	0.025	-0.148
-707.631	-118.070	0.217	-0.040
-706.616	-70.044	-0.229	0.089
-705.602	27.319	0.304	-0.262
-704.587	-21.425	0.128	-0.080
-703.572	-200.000	0.059	0.333
-702.558	269.129	0.116	-0.208
-701.543	-106.949	0.163	-0.037
-700.529	800.000	-0.049	0.168
-699.514	192.468	0.190	-0.294
-698.499	-21.454	0.159	0.099
-697.485	-200.000	-0.053	0.306
-696.470	-200.000	-0.010	-0.204
-695.456	-200.000	-0.018	0.156
-694.441	-32.047	0.216	0.124
-693.426	-200.000	0.057	-0.334
-692.412	-106.505	0.099	-0.023
-691.397	82.352	-0.135	-0.150
-690.383	-200.000	0.008	-0.093
-689.368	2.541	0.177	0.132
-688.354	800.000	-0.034	-0.102
-687.339	-70.205	-0.140	-0.055
-686.324	221.172	0.073	-0.120
-685.310	-88.157	-0.093	0.028
-684.295	-53.513	0.291	0.136
-683.281	131.663	0.357	0.470
-682.266	-7.082	0.159	-0.110
-681.251	-28.007	-0.490	0.290
-680.237	-200.000	0.004	0.066
-679.222	800.000	0.045	-0.135
-678.208	-43.426	0.273	0.141
-677.193	105.811	-0.180	-0.218
-676.178	800.000	0.108	-0.320
-675.164	208.819	-0.101	-0.161
-674.149	800.000	0.088	-0.373
-673.135	-118.246	-0.496	-0.090
-672.120	332.889	-0.248	0.490
-671.105	128.646	-0.132	0.173
-670.091	610.835	-0.122	-0.313
-669.076	96.111	-0.067	-0.078
-668.062	-95.504	0.057	0.016
-667.047	-122.470	0.319	-0.053
-666.032	-118.495	-0.329	0.060
-665.018	257.156	-0.071	0.124
-664.003	-114.465	0.131	-0.026
-662.989	-1.493	-0.201	0.145
-661.974	-200.000	-0.011	-0.286
-660.959	-200.000	0.064	-0.456
-659.945	-200.000	0.025	0.236
-658.930	-43.302	0.121	0.063
-657.916	25.461	0.200	-0.170
-656.901	-58.671	0.398	-0.177
-655.886	81.618	-0.145	-0.161
-654.872	-14.898	-0.220	-0.144
-653.857	-136.333	0.212	-0.025
-652.843	800.000	0.054	0.221
-651.828	-72.534	0.186	-0.070
-650.814	266.272	0.031	-0.056
-649.799	-200.000	0.003	0.226
-648.784	-46.979	-0.363	0.181
-647.770	-69.450	-0.035	-0.014
-646.755	245.229	0.061	-0.104
-645.741	140.852	0.064	-0.086
-644.726	-53.333	-0.175	0.082
-643.711	-165.906	-0.211	-0.009
-642.697	-80.477	-0.188	-0.064
-641.682	-91.696	-0.292	0.085
-640.668	86.862	0.236	-0.267
-639.653	-87.040	0.303	0.094
-638.638	-200.000	0.042	-0.202
-637.624	67.108	-0.067	0.070
-636.609	213.469	-0.081	0.131
-635.595	155.554	-0.164	0.230
-634.580	18.047	-0.240	-0.196
-633.565	-10.253	-0.328	-0.223
-632.551	800.000	0.037	0.131
-631.536	184.351	-0.150	-0.227
-630.522	-200.000	0.016	-0.618
-629.507	-200.000	0.019	0.089
-628.492	433.813	0.065	0.144
-627.478	800.000	0.091	0.320
-626.463	45.487	-0.146	-0.137
-625.449	-200.000	-0.087	-0.479
-624.434	114.127	-0.123	0.153
-623.419	-109.062	-0.259	0.056
-622.405	-200.000	-0.004	0.028
-621.390	231.496	0.078	-0.131
-620.376	-86.861	0.058	0.018
-619.361	-8.280	-0.080	-0.055
-618.346	-161.483	0.200	0.011
-617.332	131.695	-0.201	-0.265
-616.317	800.000	-0.028	-0.103
-615.303	-15.598	0.504	-0.329
-614.288	-75.392	0.170	0.062
-613.273	-57.336	-0.335	-0.151
-612.259	192.914	0.124	-0.192
-611.244	-82.773	-0.486	-0.161
-610.230	-200.000	0.034	-0.198
-609.215	334.253	0.123	-0.244
-608.201	90.007	0.080	0.091
-607.186	-23.172	-0.320	-0.197
-606.171	238.081	0.141	-0.239
-605.157	676.229	0.170	0.450
-604.142	328.543	-0.083	0.163
-603.128	-40.529	0.188	-0.099
-602.113	265.007	-0.150	-0.266
-601.098	277.280	0.056	0.102
-600.084	800.000	0.041	-0.126
-599.069	-130.612	0.103	0.014
-598.055	800.000	0.070	0.304
-597.040	-200.000	-0.046	0.413
-596.025	108.657	0.084	0.102
-595.011	494.420	0.034	0.080
-593.996	510.147	0.098	0.232
-592.982	30.640	0.119	0.104
-591.967	-200.000	0.080	0.370
-590.952	800.000	-0.089	0.261
-589.938	-84.476	-0.127	-0.041
-588.923	-117.261	0.048	0.009
-587.909	-154.624	0.487	-0.033
-586.894	137.908	-0.074	-0.099
-585.879	-20.493	-0.213	0.134
-584.865	47.975	-0.186	-0.178
-583.850	-103.438	0.030	-0.007
-582.836	28.365	0.150	-0.129
-581.821	445.332	-0.078	-0.176
-580.806	-155.486	0.238	0.016
-579.792	-120.132	-0.174	-0.030
-578.777	-113.404	0.274	-0.055
-577.763	800.000	-0.012	-0.037
-576.748	-109.409	0.210	-0.045
-575.733	-200.000	-0.056	-0.311
-574.719	-200.000	0.009	-0.068
-573.704	-200.000	0.003	-0.037
-572.690	-200.000	0.036	0.271
-571.675	-28.444	0.289	0.170
-570.661	693.728	-0.047	-0.125
-569.646	-200.000	-0.018	-0.138
-568.631	566.668	-0.070	0.173
-567.617	800.000	-0.049	-0.169
-566.602	-200.000	-0.013	0.088
-565.588	-79.194	-0.105	0.036
-564.573	548.769	-0.146	-0.357
-563.558	-143.180	0.112	-0.011
-562.544	800.000	0.083	-0.319
-561.529	-31.943	-0.149	0.085
-560.515	268.583	-0.156	-0.278
-559.500	-200.000	-0.049	0.229
-558.485	-39.890	0.137	0.073
-557.471	-14.979	0.162	0.106
-556.456	53.985	-0.118	0.116
-555.442	22.373	-0.213	-0.177
-554.427	-200.000	-0.016	-0.212
-553.412	47.345	0.165	0.156
-552.398	800.000	-0.035	-0.124
-551.383	-14.047	0.141	0.093
-550.369	-147.747	-0.199	-0.017
-549.354	-69.683	-0.073	-0.028
-548.339	-6.908	-0.159	-0.110
-547.325	-166.215	-0.031	-0.001
-546.310	-140.345	-0.215	0.023
-545.296	36.314	0.188	-0.169
-544.281	776.055	-0.103	-0.287
-543.266	-189.096	0.048	0.001
-542.252	22.656	0.211	0.176
-541.237	93.750	-0.118	-0.136
-540.223	25.089	-0.132	0.111
-539.208	-25.462	-0.261	0.157
-538.193	-57.145	0.188	-0.084
-537.179	-34.418	-0.087	-0.049
-536.164	529.152	0.086	-0.206
-535.150	-52.367	0.047	-0.022
-534.135	27.713	-0.151	0.130
-533.121	97.043	0.086	-0.100
-532.106	-119.886	-0.253	0.044
-531.091	50.170	-0.163	0.157
-530.077	-93.260	0.162	0.046
-529.062	-200.000	0.004	0.046
-528.048	800.000	0.121	-0.478
-527.033	-114.929	-0.430	-0.083
-526.018	-106.787	-0.133	-0.030
-525.004	-168.094	-0.079	-0.003
-523.989	-48.490	-0.218	0.107
-522.975	-118.084	-0.280	0.051
-521.960	94.714	0.199	0.231
-520.945	-200.000	0.009	0.054
-519.931	148.537	0.035	0.048
-518.916	-3.031	-0.161	-0.114
-517.902	-149.182	0.257	-0.021
-516.887	15.314	0.030	0.024
-515.872	60.222	-0.047	0.047
-514.858	800.000	0.009	0.041
-513.843	-200.000	0.024	-0.178
-512.829	138.495	-0.068	-0.090
-511.814	23.663	0.106	-0.089
-510.799	613.385	0.138	-0.351
-509.785	-58.462	0.179	0.079
-508.770	-145.673	0.272	-0.025
-507.756	-150.357	0.137	0.011
-506.741	-113.412	-0.139	-0.028
-505.726	-31.017	0.149	0.086
-504.712	220.773	-0.053	-0.086
-503.697	-97.297	-0.173	0.046
-502.683	-177.368	0.255	-0.006
-501.668	800.000	0.098	-0.359
-500.653	-200.000	0.012	-0.122
-499.639	-9.375	0.164	0.111
-498.624	-126.658	0.395	0.059
-497.610	-44.551	-0.107	-0.054
-496.595	-12.137	-0.073	-0.049
-495.581	308.416	-0.131	0.248
-494.566	-76.522	-0.248	-0.089
-493.551	76.514	0.059	0.064
-492.537	-200.000	0.005	0.120
-491.522	-12.763	0.134	-0.089
-490.508	-10.403	-0.105	-0.071
-489.493	-133.805	-0.064	0.008
-488.478	128.626	-0.065	0.084
-487.464	-82.963	0.297	0.097
-486.449	289.876	-0.009	0.016
-485.435	-40.390	0.223	-0.118
-484.420	-37.187	0.326	-0.178
-483.405	99.749	-0.207	-0.244
-482.391	132.606	0.057	0.074
-481.376	511.557	-0.036	0.086
-480.362	-200.000	-0.005	0.097
-479.347	-200.000	-0.016	0.185
-478.332	95.766	0.296	0.344
-477.318	800.000	-0.109	0.347
-476.303	87.797	0.251	0.282
-475.289	599.428	-0.068	0.171
-474.274	78.384	0.058	0.062
-473.259	19.581	-0.249	0.204
-472.245	-200.000	0.037	-0.386
-471.230	71.872	0.217	-0.229
-470.216	-200.000	-0.011	-0.216
-469.201	-139.539	-0.289	0.031
-468.186	439.242	0.194	-0.430
-467.172	64.730	-0.167	0.171
-466.157	-12.793	0.234	0.155
-465.143	421.358	0.023	0.050
-464.128	-200.000	0.009	-0.203
-463.113	639.707	-0.024	0.061
-462.099	114.238	-0.162	0.200
-461.084	109.274	-0.269	0.328
-460.070	338.020	-0.070	-0.138
-459.055	-200.000	0.020	-0.150
-458.040	-200.000	0.015	-0.291
-457.026	-200.000	0.000	0.450
-456.011	-21.161	-0.214	0.133
-454.997	198.511	0.177	-0.275
-453.982	127.762	0.095	-0.123
-452.968	800.000	0.076	-0.219
-451.953	107.689	0.119	0.144
-450.938	29.426	0.137	-0.118
-449.924	-15.565	0.039	0.025
-448.909	-200.000	0.003	-0.056
-447.895	174.598	-0.199	-0.292
-446.880	800.000	-0.028	-0.082
-445.865	-45.056	-0.072	-0.036
-444.851	-200.000	-0.039	0.223
-443.836	-129.795	0.199	-0.028
-442.822	-164.093	0.232	0.011
-441.807	206.646	-0.008	-0.012
-440.792	800.000	-0.104	0.368
-439.778	-98.153	-0.257	-0.067
-438.763	-29.828	-0.124	-0.072
-437.749	-115.815	0.116	-0.022
-436.734	-146.890	0.157	0.014
-435.719	185.925	-0.110	-0.166
-434.705	46.745	0.212	-0.200
-433.690	800.000	-0.051	0.162
-432.676	409.035	0.107	0.230
-431.661	34.019	-0.305	0.270
-430.646	173.059	0.130	-0.190
-429.632	34.920	-0.208	-0.185
-428.617	800.000	-0.048	0.167
-427.603	-144.421	0.410	0.039
-426.588	-200.000	-0.022	-0.221
-425.573	270.196	-0.132	-0.236
-424.559	84.486	-0.087	0.096
-423.544	-21.968	0.255	0.157
-422.530	-100.724	0.115	0.029
-421.515	-82.986	0.193	0.063
-420.500	-200.000	-0.022	0.252
-419.486	-29.967	-0.143	-0.082
-418.471	-200.000	0.066	0.324
-417.457	-1.497	0.307	0.219
-416.442	-200.000	-0.002	-0.095
-415.428	226.655	-0.093	0.153
-414.413	800.000	0.074	-0.317
-413.398	-13.390	0.342	-0.225
-412.384	-115.319	-0.250	-0.048
-411.369	-200.000	0.004	0.065
-410.355	-36.627	-0.098	0.054
-409.340	290.250	0.097	0.178
-408.325	800.000	-0.056	-0.213
-407.311	-200.000	-0.012	-0.247
-406.296	-119.831	0.136	0.024
-405.282	351.378	0.031	-0.062
-404.267	800.000	0.039	0.152
-403.252	23.847	0.112	0.093
-402.238	-49.521	-0.175	-0.085
-401.223	141.605	-0.137	0.184
-400.209	-19.800	-0.198	0.124
-399.194	216.041	-0.166	0.267
-398.179	-16.767	0.323	0.207
-397.165	307.200	0.215	-0.407
-396.150	-29.330	0.213	0.124
-395.136	-200.000	-0.018	0.211
-394.121	61.663	-0.105	-0.106
-393.106	-155.940	-0.180	-0.012
-392.092	318.557	0.058	-0.111
-391.077	-200.000	0.002	-0.101
-390.063	-200.000	0.017	-0.208
-389.048	-84.242	0.075	-0.024
-388.033	258.409	0.029	0.051
-387.019	800.000	-0.101	0.323
-386.004	-59.618	-0.167	0.072
-384.990	-200.000	0.032	-0.246
-383.975	-119.483	-0.140	-0.025
-382.960	17.188	-0.097	-0.078
-381.946	48.506	-0.363	0.345
-380.931	-122.998	0.071	0.012
-379.917	-33.390	0.189	0.106
-378.902	-52.897	0.259	0.121
-377.888	-200.000	-0.054	-0.281
-376.873	-7.173	-0.212	-0.146
-375.858	-122.441	0.190	-0.031
-374.844	-18.141	0.169	-0.107
-373.829	-175.429	-0.105	0.003
-372.815	106.761	-0.114	0.137
-371.800	-92.240	0.279	-0.080
-370.785	164.786	0.092	0.131
-369.771	800.000	0.071	-0.226
-368.756	-200.000	0.031	0.333
-367.742	-130.265	0.132	-0.018
-366.727	-34.343	-0.032	0.018
-365.712	86.934	0.195	-0.218
-364.698	-200.000	0.003	0.031
-363.683	-76.869	-0.285	0.101
-362.669	-24.601	0.399	-0.240
-361.654	-188.758	0.331	0.004
-360.639	740.398	-0.035	-0.096
-359.625	-83.860	-0.172	0.056
-358.610	800.000	-0.082	0.249
-357.596	-99.785	0.261	-0.066
-356.581	21.141	0.191	0.157
-355.566	-200.000	-0.011	0.057
-354.552	800.000	0.061	0.205
-353.537	-54.302	0.179	-0.082
-352.523	-1.324	0.020	-0.014
-351.508	-126.984	-0.149	0.022
-350.493	-36.479	0.234	0.127
-349.479	194.417	-0.048	-0.073
-348.464	-73.514	0.143	-0.053
-347.450	141.574	0.102	-0.137
-346.435	-149.556	0.035	-0.003
-345.420	495.166	-0.076	0.176
-344.406	-48.744	0.248	-0.120
-343.391	570.866	0.082	0.202
-342.377	368.783	-0.075	0.153
-341.362	800.000	0.101	-0.376
-340.348	800.000	-0.106	0.386
-339.333	-200.000	-0.008	0.240
-338.318	-81.574	0.217	0.072
-337.304	-200.000	0.001	0.177
-336.289	-25.536	-0.249	-0.149
-335.275	-200.000	0.025	-0.251
-334.260	43.059	-0.111	-0.102
-333.245	17.183	0.074	0.059
-332.231	-200.000	0.042	0.335
-331.216	15.280	0.100	-0.079
-330.202	-80.594	-0.153	0.051
-329.187	121.941	-0.088	-0.111
-328.172	-60.207	-0.109	-0.047
-327.158	-62.050	-0.272	-0.115
-326.143	800.000	0.099	-0.292
-325.129	800.000	-0.075	-0.325
-324.114	-38.303	0.133	0.071
-323.099	542.582	-0.068	-0.163
-322.085	-145.600	-0.120	-0.011
-321.070	-30.108	-0.172	0.099
-320.056	9.901	-0.281	-0.215
-319.041	-121.734	-0.379	0.063
-318.026	13.490	0.066	0.052
-317.012	800.000	-0.046	0.158
-315.997	-200.000	0.002	0.033
-314.983	135.554	-0.271	0.356
-313.968	800.000	-0.127	0.368
-312.953	49.903	0.118	0.112
-311.939	-200.000	-0.046	-0.239
-310.924	220.509	-0.153	0.248
-309.910	0.774	0.097	0.070
-308.895	-61.117	-0.094	0.040
-307.880	800.000	0.037	0.150
-306.866	-200.000	-0.020	0.217
-305.851	-96.093	0.175	-0.047
-304.837	-117.793	0.395	-0.072
-303.822	49.189	0.208	-0.197
-302.807	-200.000	-0.029	0.187
-301.793	-200.000	0.010	0.188
-300.778	24.764	0.111	-0.092
-299.764	93.444	0.167	-0.191
-298.749	800.000	-0.002	-0.005
-297.735	768.341	-0.062	-0.169
-296.720	131.436	-0.124	-0.161
-295.705	762.270	-0.093	0.255
-294.691	-46.047	0.147	0.073
-293.676	-200.000	-0.018	-0.657
-292.662	-200.000	-0.009	-0.095
-291.647	-200.000	0.003	0.162
-290.632	-140.404	-0.257	-0.027
-289.618	-155.363	0.102	-0.007
-288.603	-17.980	0.024	-0.015
-287.589	-120.093	-0.288	-0.050
-286.574	-200.000	-0.009	-0.151
-285.559	148.182	-0.149	0.203
-284.545	-151.341	0.168	-0.013
-283.530	21.946	-0.211	0.173
-282.516	133.780	0.172	-0.225
-281.501	498.587	0.094	0.219
-280.486	-82.525	0.237	-0.077
-279.472	64.857	-0.090	-0.091
-278.457	94.256	-0.136	-0.156
-277.443	-118.029	0.193	-0.035
-276.428	129.988	-0.107	-0.138
-275.413	800.000	-0.017	-0.054
-274.399	800.000	0.082	0.335
-273.384	725.752	-0.036	-0.098
-272.370	11.277	-0.224	0.173
-271.355	-188.988	-0.196	-0.002
-270.340	-200.000	-0.049	-0.285
-269.326	612.449	-0.087	0.220
-268.311	35.095	-0.424	0.374
-267.297	-200.000	-0.063	-0.478
-266.282	580.967	-0.129	0.318
-265.267	-177.979	0.383	0.009
-264.253	-136.796	0.101	0.012
-263.238	659.742	-0.047	-0.121
-262.224	-200.000	0.013	-0.281
-261.209	-21.547	-0.120	-0.074
-260.195	542.942	-0.091	0.219
-259.180	-44.302	-0.295	0.149
-258.165	-162.548	0.150	-0.007
-257.151	-178.530	0.223	-0.005
-256.136	-5.987	0.291	0.200
-255.122	-53.549	-0.216	0.100
-254.107	-54.402	0.091	0.042
-253.092	174.886	-0.167	0.243
-252.078	800.000	-0.022	0.088
-251.063	-3.840	0.174	-0.121
-250.049	800.000	0.066	0.211
-249.034	28.702	-0.102	-0.087
-248.019	-80.514	-0.309	0.104
-247.005	552.963	0.109	0.265
-245.990	800.000	0.076	0.277
-244.976	14.841	-0.201	0.159
-243.961	212.113	-0.062	-0.099
-242.946	800.000	0.097	0.301
-241.932	-149.971	-0.080	0.006
-240.917	50.625	0.132	0.126
-239.903	-200.000	0.034	0.160
-238.888	-160.440	-0.231	-0.012
-237.873	-103.202	-0.426	0.101
-236.859	73.780	-0.080	-0.084
-235.844	800.000	-0.035	-0.131
-234.830	62.265	0.191	0.192
-233.815	464.108	0.119	-0.267
-232.800	-200.000	-0.062	0.314
-231.786	-200.000	-0.086	-0.525
-230.771	130.991	-0.060	-0.078
-229.757	-200.000	-0.006	-0.054
-228.742	-51.114	-0.154	0.073
-227.727	-132.963	0.376	-0.048
-226.713	152.586	0.108	-0.149
-225.698	3.896	-0.313	-0.230
-224.684	6.923	-0.244	0.183
-223.669	-38.242	0.081	-0.043
-222.655	234.752	-0.141	-0.235
-221.640	156.374	-0.196	-0.272
-220.625	147.862	-0.094	0.128
-219.611	345.517	0.062	-0.122
-218.596	-32.902	0.139	0.078
-217.582	447.189	0.064	0.142
-216.567	800.000	0.046	0.175
-215.552	-52.321	0.144	0.067
-214.538	39.879	0.199	-0.180
-213.523	-91.708	-0.319	0.091
-212.509	-107.742	0.212	0.047
-211.494	-137.538	0.068	-0.008
-210.479	528.428	0.272	-0.645
-209.465	-200.000	-0.020	-0.137
-208.450	-49.728	-0.268	-0.128
-207.436	-30.327	-0.146	-0.083
-206.421	-54.300	0.284	0.130
-205.406	687.234	-0.094	0.247
-204.392	-32.533	-0.178	0.100
-203.377	-93.783	-0.241	0.067
-202.363	181.617	-0.143	0.212
-201.348	42.324	0.057	-0.052
-200.333	800.000	0.093	-0.274
-199.319	116.751	0.222	-0.274
-198.304	162.209	-0.085	-0.120
-197.290	-200.000	0.001	-0.036
-196.275	800.000	0.046	-0.199
-195.260	-119.740	-0.094	-0.016
-194.246	-125.856	0.455	-0.069
-193.231	-112.983	-0.083	0.016
-192.217	-142.471	-0.147	-0.015
-191.202	-200.000	0.012	0.101
-190.187	-200.000	-0.062	-0.303
-189.173	-200.000	0.006	0.125
-188.158	-105.790	-0.372	0.084
-187.144	147.173	-0.081	0.109
-186.129	-200.000	-0.011	-0.140
-185.114	-149.746	-0.098	-0.008
-184.100	-94.657	0.114	0.031
-183.085	6.822	0.117	0.088
-182.071	800.000	-0.113	0.351
-181.056	-106.724	0.303	0.068
-180.042	-90.928	0.110	-0.032
-179.027	800.000	0.058	0.213
-178.012	-200.000	0.005	0.089
-176.998	-23.601	-0.098	-0.059
-175.983	-92.465	-0.354	0.100
-174.969	201.087	-0.166	-0.257
-173.954	-137.647	-0.286	-0.032
-172.939	59.778	0.135	0.134
-171.925	-76.475	-0.088	-0.031
-170.910	-118.576	0.392	0.070
-169.896	-67.066	-0.174	-0.069
-168.881	-200.000	0.013	0.159
-167.866	-36.692	-0.221	-0.119
-166.852	-200.000	-0.015	0.117
-165.837	321.369	0.149	0.284
-164.823	-22.951	0.321	-0.194
-163.808	-148.609	0.158	0.013
-162.793	-114.526	0.539	-0.104
-161.779	800.000	0.133	0.412
-160.764	148.343	-0.076	0.104
-159.750	-200.000	-0.014	0.135
-158.735	-53.229	0.088	-0.041
-157.720	20.813	0.236	0.192
-156.706	-70.213	0.367	0.140
-155.691	-200.000	0.001	0.012
-154.677	-1.903	0.129	0.091
-153.662	-126.226	-0.061	-0.009
-152.647	-186.955	0.068	-0.001
-151.633	-124.271	-0.339	-0.053
-150.618	800.000	-0.086	0.315
-149.604	0.213	0.152	0.109
-148.589	-73.614	-0.146	0.053
-147.574	792.247	0.085	0.236
-146.560	-25.444	-0.273	0.162
-145.545	-75.218	-0.123	-0.044
-144.531	278.076	-0.179	-0.319
-143.516	59.363	0.100	-0.099
-142.502	139.885	-0.118	0.157
-141.487	57.730	-0.032	-0.032
-140.472	-200.000	-0.049	0.363
-139.458	709.745	0.102	0.271
-138.443	259.148	-0.194	0.335
-137.429	-200.000	-0.004	-0.153
-136.414	800.000	-0.028	-0.090
-135.399	-200.000	-0.043	-0.352
-134.385	-32.656	-0.196	0.109
-133.370	-40.583	0.283	-0.147
-132.356	208.444	0.165	-0.259
-131.341	18.516	0.185	-0.148
-130.326	-91.666	0.357	0.102
-129.312	311.815	0.142	0.266
-128.297	306.672	-0.084	0.157
-127.283	-82.719	-0.056	-0.018
-126.268	-200.000	-0.262	0.001
-125.253	692.722	0.053	0.140
-124.239	800.000	-0.020	-0.063
-123.224	-16.717	-0.153	-0.097
-122.210	-200.000	0.022	-0.147
-121.195	122.622	0.317	0.397
-120.180	3.229	-0.054	0.039
-119.166	-23.929	0.119	-0.072
-118.151	-200.000	0.040	0.302
-117.137	484.363	0.045	-0.103
-116.122	106.968	-0.208	0.247
-115.107	356.421	0.148	-0.296
-114.093	-107.267	0.214	-0.047
-113.078	-78.550	-0.260	-0.089
-112.064	800.000	-0.050	-0.162
-111.049	-69.221	0.010	0.004
-110.034	-117.533	-0.114	0.021
-109.020	66.655	-0.115	-0.118
-108.005	-32.830	0.136	-0.076
-106.991	-200.000	0.043	0.283
-105.976	-200.000	0.060	0.294
-104.962	22.942	0.133	0.109
-103.947	154.203	0.085	-0.117
-102.932	18.966	-0.176	0.141
-101.918	100.017	-0.087	-0.100
-100.903	374.458	-0.097	0.197
-99.889	139.506	-0.208	0.275
-98.874	152.505	-0.019	0.026
-97.859	97.994	-0.003	0.004
-96.845	-177.027	-0.283	0.007
-95.830	33.354	0.128	-0.111
-94.816	16.214	0.305	-0.240
-93.801	800.000	0.026	-0.084
-92.786	207.513	0.088	0.138
-91.772	-200.000	0.051	0.454
-90.757	681.826	-0.034	-0.089
-89.743	345.343	0.072	0.142
-88.728	-200.000	0.069	0.396
-87.713	-200.000	-0.002	0.122
-86.699	703.687	0.075	-0.197
-85.684	-116.760	-0.202	0.037
-84.670	232.348	-0.141	0.231
-83.655	-80.993	0.415	-0.138
-82.640	76.011	0.268	-0.284
-81.626	-139.455	0.184	0.020
-80.611	-200.000	-0.009	-0.270
-79.597	168.187	-0.021	-0.030
-78.582	-95.739	0.268	0.072
-77.567	-9.050	-0.197	-0.132
-76.553	-200.000	-0.016	0.229
-75.538	-200.000	-0.020	-0.115
-74.524	-200.000	0.009	0.220
-73.509	-100.617	0.200	-0.049
-72.494	34.297	-0.159	-0.138
-71.480	21.649	-0.183	-0.149
-70.465	-200.000	0.014	0.364
-69.451	48.765	-0.075	-0.070
-68.436	75.943	0.075	0.079
-67.422	-200.000	-0.001	-0.011
-66.407	89.194	0.137	0.152
-65.392	50.814	0.211	-0.200
-64.378	-200.000	0.009	0.271
-63.363	-200.000	0.013	0.139
-62.349	444.279	-0.017	-0.038
-61.334	16.505	-0.636	-0.502
-60.319	-180.639	-0.188	-0.004
-59.305	-200.000	-0.029	-0.521
-58.290	195.037	0.497	0.754
-57.276	508.059	0.659	1.530
-56.261	-200.000	71.179	525.940
-55.246	602.362	1275.032	3168.728
-54.232	145.441	2501.892	3349.103
-53.217	114.933	2343.298	2857.575
-52.203	53.738	1961.684	1882.891
-51.188	47.423	1748.746	1628.991
-50.173	44.242	1701.276	1560.314
-49.159	57.715	1732.053	1692.895
-48.144	64.591	1750.431	1763.829
-47.130	47.098	1715.459	1595.225
-46.115	43.785	1702.055	1557.267
-45.100	43.527	1697.588	1551.136
-44.086	43.536	1694.702	1548.513
-43.071	43.546	1691.767	1545.843
-42.057	43.454	1689.949	1543.416
-41.042	43.535	1687.348	1541.602
-40.027	43.584	1685.556	1540.273
-39.013	43.663	1683.107	1538.573
-37.998	43.636	1681.811	1537.122
-36.984	43.657	1680.273	1535.816
-35.969	43.706	1679.016	1534.978
-34.954	43.743	1677.505	1533.819
-33.940	43.746	1675.391	1531.846
-32.925	43.765	1673.505	1530.207
-31.911	43.806	1671.519	1528.638
-30.896	43.790	1669.533	1526.637
-29.881	43.740	1668.040	1524.838
-28.867	43.674	1666.278	1522.669
-27.852	43.672	1665.346	1521.742
-26.838	43.680	1663.665	1520.209
-25.823	43.759	1662.192	1519.394
-24.809	43.834	1660.746	1518.576
-23.794	43.770	1659.350	1516.758
-22.779	43.796	1657.475	1515.179
-21.765	43.765	1655.948	1513.493
-20.750	43.782	1654.581	1512.306
-19.736	43.835	1653.040	1511.234
-18.721	43.851	1651.193	1509.602
-17.706	43.811	1650.151	1508.294
-16.692	43.801	1647.832	1506.044
-15.677	43.733	1646.901	1504.627
-14.663	43.799	1645.660	1503.921
-13.648	43.932	1643.971	1503.302
-12.633	43.732	1642.766	1500.661
-11.619	43.817	1641.265	1499.858
-10.604	43.865	1639.180	1498.252
-9.590	43.855	1638.260	1497.274
-8.575	43.873	1636.763	1495.982
-7.560	43.788	1635.746	1494.366
-6.546	43.805	1634.225	1493.042
-5.531	43.821	1633.071	1492.048
-4.517	43.724	1632.237	1490.510
-3.502	43.742	1630.970	1489.428
-2.487	43.816	1629.493	1488.565
-1.473	43.912	1618.139	1478.833
-0.458	41.523	1599.132	1444.141
0.556	36.766	1596.338	1406.760
1.571	33.645	1618.995	1403.550
2.586	32.562	1633.945	1408.298
3.600	28.500	1580.250	1332.450
4.615	15.528	1458.601	1142.141
5.629	3.531	1381.310	1003.847
6.644	1.221	1370.964	981.310
7.659	1.105	1368.872	978.974
8.673	1.098	1367.302	977.721
9.688	0.976	1365.849	975.813
10.702	0.641	1363.565	971.934
11.717	4.596	1371.633	1003.162
12.731	15.911	1393.597	1092.955
13.746	23.800	1406.541	1154.476
14.761	24.705	1406.866	1160.523
15.775	24.941	1406.426	1161.587
16.790	24.863	1405.997	1160.623
17.804	24.945	1405.192	1160.388
18.819	25.121	1405.191	1161.421
19.834	25.195	1404.276	1161.042
20.848	25.288	1403.085	1160.561
21.863	25.161	1402.735	1159.345
22.877	25.117	1402.113	1158.443
23.892	25.239	1401.112	1158.302
24.907	25.207	1399.947	1157.030
25.921	25.267	1399.061	1156.583
26.936	25.192	1398.250	1155.329
27.950	25.221	1396.837	1154.242
28.965	25.243	1395.906	1153.511
29.980	25.259	1394.564	1152.404
30.994	25.173	1393.514	1150.881
32.009	25.206	1392.079	1149.810
33.023	25.165	1391.361	1148.849
34.038	25.217	1390.237	1148.157
35.053	25.183	1389.300	1147.060
36.067	25.114	1387.830	1145.305
37.082	25.213	1386.955	1145.111
38.096	25.120	1386.014	1143.642
39.111	25.170	1384.985	1143.011
40.126	25.184	1384.491	1142.589
41.140	25.271	1383.722	1142.406
42.155	25.185	1383.467	1141.550
43.169	25.177	1383.615	1141.519
44.184	25.093	1383.280	1140.607
45.199	25.228	1382.689	1140.880
46.213	25.213	1382.201	1140.281
47.228	25.179	1381.402	1139.301
48.242	25.157	1380.000	1137.908
49.257	25.211	1378.207	1136.672
50.271	25.196	1377.417	1135.821
51.286	25.215	1375.858	1134.558
52.301	25.124	1374.796	1133.005
53.315	25.131	1374.126	1132.397
54.330	25.111	1373.265	1131.459
55.344	25.091	1371.954	1130.156
56.359	25.114	1370.686	1129.157
57.374	25.220	1369.672	1128.885
58.388	25.228	1369.200	1128.447
59.403	25.176	1369.120	1127.956
60.417	25.141	1368.262	1126.928
61.432	25.152	1367.695	1126.433
62.447	25.256	1366.359	1125.881
63.461	25.179	1365.410	1124.519
64.476	25.181	1364.424	1123.621
65.490	25.234	1363.505	1123.096
66.505	25.111	1362.234	1121.180
67.520	25.252	1360.493	1120.532
68.534	25.255	1359.405	1119.552
69.549	25.189	1358.650	1118.419
70.563	25.137	1357.922	1117.400
71.578	25.206	1356.620	1116.657
72.593	25.230	1355.857	1116.078
73.607	25.206	1355.228	1115.312
74.622	25.145	1354.364	1114.125
75.636	25.213	1353.710	1113.911
76.651	25.274	1352.415	1113.124
77.666	25.208	1352.604	1112.770
78.680	25.168	1352.195	1112.088
79.695	25.146	1351.607	1111.374
80.709	25.228	1350.327	1110.729
81.724	25.206	1349.485	1109.801
82.739	25.249	1348.760	1109.372
83.753	25.109	1347.996	1107.778
84.768	25.151	1346.723	1106.895
85.782	25.264	1345.308	1106.329
86.797	25.200	1344.318	1105.024
87.812	25.236	1343.559	1104.527
88.826	25.175	1342.716	1103.361
89.841	25.221	1341.101	1102.216
90.855	25.281	1339.959	1101.548
91.870	25.263	1339.192	1100.714
92.884	25.233	1338.645	1099.983
93.899	25.234	1338.182	1099.508
94.914	25.197	1336.674	1097.944
95.928	25.231	1336.041	1097.534
96.943	25.335	1335.479	1097.614
97.957	25.239	1335.096	1096.617
98.972	25.340	1333.490	1095.813
99.987	25.261	1333.066	1094.888
101.001	25.343	1331.498	1094.004
102.016	25.217	1330.568	1092.374
103.030	25.234	1329.673	1091.646
104.045	25.189	1329.204	1090.890
105.060	25.193	1328.701	1090.410
106.074	25.322	1327.001	1089.697
107.089	25.257	1326.600	1088.875
108.103	25.286	1325.336	1087.917
109.118	25.317	1323.922	1086.849
110.133	25.375	1322.674	1086.078
111.147	25.338	1322.054	1085.255
112.162	25.276	1320.592	1083.582
113.176	25.334	1319.677	1083.084
114.191	25.362	1318.994	1082.595
115.206	25.283	1317.927	1081.149
116.220	25.344	1316.679	1080.396
117.235	25.335	1315.688	1079.433
118.249	25.322	1315.124	1078.797
119.264	25.374	1313.996	1078.087
120.279	25.404	1313.142	1077.475
121.293	25.397	1312.602	1076.895
122.308	25.351	1311.802	1075.868
123.322	25.460	1311.000	1075.765
124.337	25.476	1310.152	1075.071
125.352	25.497	1308.991	1074.148
126.366	25.510	1307.658	1073.038
127.381	25.368	1307.865	1072.263
128.395	25.444	1306.719	1071.681
129.410	25.400	1305.725	1070.513
130.424	25.481	1305.398	1070.631
131.439	25.364	1304.380	1069.002
132.454	25.337	1303.606	1068.117
133.468	25.410	1302.654	1067.676
134.483	25.433	1302.335	1067.457
135.497	25.424	1301.750	1066.830
136.512	25.476	1300.751	1066.223
137.527	25.369	1299.296	1064.300
138.541	25.493	1298.119	1063.976
139.556	25.429	1296.809	1062.431
140.570	25.594	1295.802	1062.486
141.585	25.408	1295.193	1060.793
142.600	25.453	1293.914	1059.922
143.614	25.415	1293.039	1058.884
144.629	25.348	1292.405	1057.880
145.643	25.382	1291.170	1056.970
146.658	25.387	1289.804	1055.792
147.673	25.385	1289.086	1055.099
148.687	25.382	1287.907	1054.020
149.702	25.377	1286.929	1053.098
150.716	25.347	1285.617	1051.759
151.731	25.309	1284.762	1050.741
152.746	25.304	1283.910	1049.925
153.760	25.369	1282.550	1049.097
154.775	25.312	1281.791	1048.053
155.789	25.335	1280.836	1047.309
156.804	25.329	1280.054	1046.545
157.819	25.378	1278.837	1045.739
158.833	25.429	1278.162	1045.395
159.848	25.400	1277.464	1044.564
160.862	25.369	1276.581	1043.570
161.877	25.384	1275.574	1042.741
162.892	25.308	1274.748	1041.531
163.906	25.381	1274.161	1041.380
164.921	25.451	1273.365	1041.044
165.935	25.514	1272.614	1040.702
166.950	25.538	1272.145	1040.369
167.964	25.488	1271.594	1039.535
168.979	25.548	1270.820	1039.156
169.994	25.458	1270.707	1038.451
171.008	25.438	1269.502	1037.261
172.023	25.420	1268.894	1036.566
173.037	25.461	1268.035	1036.012
174.052	25.484	1267.373	1035.514
175.067	25.488	1266.763	1034.944
176.081	25.451	1265.762	1033.820
177.096	25.403	1264.943	1032.785
178.110	25.431	1264.176	1032.228
179.125	25.488	1262.925	1031.441
180.140	25.516	1261.804	1030.594
181.154	25.485	1260.629	1029.370
182.169	25.386	1260.199	1028.361
183.183	25.474	1259.000	1027.793
184.198	25.648	1257.287	1027.296
185.213	25.626	1256.400	1026.356
186.227	25.640	1255.738	1025.804
187.242	25.561	1254.832	1024.521
188.256	25.542	1254.593	1024.127
189.271	25.608	1253.169	1023.253
190.286	25.549	1252.724	1022.461
191.300	25.438	1252.391	1021.469
192.315	25.633	1251.324	1021.614
193.329	25.496	1251.243	1020.679
194.344	25.649	1250.489	1020.845
195.359	25.689	1249.993	1020.574
196.373	25.626	1249.744	1019.926
197.388	25.455	1249.413	1018.594
198.402	25.505	1248.868	1018.345
199.417	25.548	1248.888	1018.515
200.432	25.541	1247.830	1017.522
201.446	25.556	1247.105	1016.927
202.461	25.611	1246.344	1016.525
203.475	25.633	1245.180	1015.608
204.490	25.533	1244.741	1014.598
205.504	25.578	1243.356	1013.634
206.519	25.635	1242.532	1013.195
207.534	25.588	1241.829	1012.265
208.548	25.625	1240.764	1011.514
209.563	25.634	1240.601	1011.346
210.577	25.609	1239.623	1010.317
211.592	25.760	1238.216	1009.928
212.607	25.685	1237.618	1008.930
213.621	25.612	1237.243	1008.126
214.636	25.693	1236.387	1007.796
215.650	25.762	1235.114	1007.054
216.665	25.764	1233.962	1006.033
217.680	25.720	1233.302	1005.162
218.694	25.735	1232.583	1004.569
219.709	25.860	1231.859	1004.587
220.723	25.755	1231.442	1003.577
221.738	25.620	1230.826	1002.230
222.753	25.672	1229.718	1001.529
223.767	25.690	1229.428	1001.303
224.782	25.720	1228.912	1000.965
225.796	25.833	1228.357	1001.051
226.811	25.783	1227.665	1000.122
227.826	25.805	1227.187	999.767
228.840	25.732	1226.680	998.859
229.855	25.786	1225.623	998.210
230.869	25.812	1224.763	997.562
231.884	25.801	1224.146	996.911
232.899	25.629	1223.721	995.528
233.913	25.717	1223.345	995.621
234.928	25.894	1222.260	995.627
235.942	25.821	1221.589	994.586
236.957	25.842	1220.992	994.128
237.972	25.811	1220.288	993.300
238.986	25.759	1219.691	992.438
240.001	25.890	1219.361	992.802
241.015	25.956	1218.646	992.496
242.030	25.974	1217.675	991.715
243.045	26.010	1216.964	991.246
244.059	26.045	1216.059	990.614
245.074	25.949	1215.393	989.457
246.088	26.036	1214.661	989.253
247.103	25.967	1213.947	988.203
248.117	25.954	1213.000	987.276
249.132	25.990	1212.372	986.874
250.147	26.064	1211.569	986.539
251.161	26.007	1210.546	985.304
252.176	26.106	1209.936	985.260
253.190	26.049	1209.927	984.858
254.205	26.004	1209.209	983.940
255.220	26.033	1208.397	983.352
256.234	26.037	1207.876	982.862
257.249	26.067	1207.198	982.384
258.263	25.899	1206.736	981.010
259.278	26.025	1205.788	980.837
260.293	26.056	1205.443	980.637
261.307	26.097	1205.062	980.463
262.322	26.111	1204.348	979.871
263.336	26.063	1203.710	979.005
264.351	26.217	1202.847	979.048
265.366	26.132	1202.414	978.151
266.380	26.040	1201.679	976.967
267.395	26.009	1201.060	976.209
268.409	26.021	1200.514	975.744
269.424	26.089	1199.428	975.142
270.439	26.217	1199.349	975.688
271.453	26.137	1198.865	974.775
272.468	26.075	1197.973	973.629
273.482	26.167	1197.086	973.314
274.497	26.203	1196.437	972.897
275.512	26.204	1196.062	972.513
276.526	26.151	1195.882	971.994
277.541	26.229	1194.387	971.110
278.555	26.190	1194.174	970.644
279.570	26.188	1193.640	970.113
280.585	26.153	1192.661	969.043
281.599	26.225	1191.495	968.393
282.614	26.171	1190.870	967.513
283.628	26.214	1189.893	966.860
284.643	26.334	1189.138	966.803
285.657	26.186	1188.523	965.427
286.672	26.260	1187.759	965.117
287.687	26.189	1186.859	963.923
288.701	26.286	1186.110	963.749
289.716	26.349	1185.374	963.398
290.730	26.339	1184.203	962.308
291.745	26.280	1184.074	961.802
292.760	26.324	1183.465	961.461
293.774	26.247	1183.438	960.941
294.789	26.320	1182.716	960.661
295.803	26.375	1181.487	959.868
296.818	26.354	1181.138	959.388
297.833	26.400	1180.604	959.114
298.847	26.408	1179.718	958.350
299.862	26.398	1178.870	957.526
300.876	26.401	1178.029	956.772
301.891	26.429	1177.791	956.640
302.906	26.401	1176.857	955.654
303.920	26.591	1176.355	956.160
304.935	26.329	1176.074	954.468
305.949	26.358	1175.299	953.908
306.964	26.483	1174.421	953.770
307.979	26.486	1173.924	953.295
308.993	26.537	1173.340	953.006
310.008	26.558	1172.060	951.991
311.022	26.557	1171.617	951.544
312.037	26.580	1170.904	951.003
313.052	26.566	1169.864	949.998
314.066	26.639	1168.778	949.417
315.081	26.535	1168.247	948.356
316.095	26.526	1167.932	947.967
317.110	26.567	1167.280	947.571
318.125	26.542	1166.628	946.826
319.139	26.523	1166.306	946.379
320.154	26.547	1165.900	946.095
321.168	26.649	1165.060	945.861
322.183	26.661	1164.348	945.263
323.197	26.596	1163.820	944.411
324.212	26.627	1163.234	944.013
325.227	26.526	1163.185	943.362
326.241	26.674	1162.090	943.161
327.256	26.661	1161.490	942.523
328.270	26.772	1160.060	941.857
329.285	26.673	1159.446	940.762
330.300	26.885	1158.758	941.222
331.314	26.671	1158.324	939.674
332.329	26.817	1157.299	939.517
333.343	26.801	1156.218	938.470
334.358	26.739	1155.870	937.787
335.373	26.842	1155.328	937.798
336.387	26.840	1154.369	936.924
337.402	26.752	1153.891	935.998
338.416	26.888	1153.231	936.081
339.431	26.833	1152.898	935.447
340.446	26.878	1151.625	934.563
341.460	26.923	1151.289	934.437
342.475	27.017	1150.459	934.168
343.489	26.952	1149.523	932.989
344.504	26.859	1148.669	931.737
345.519	26.869	1147.725	930.941
346.533	26.894	1147.134	930.505
347.548	26.961	1146.582	930.320
348.562	27.016	1145.281	929.463
349.577	26.917	1144.925	928.582
350.592	26.932	1144.059	927.875
351.606	26.891	1143.342	927.004
352.621	26.942	1143.029	926.926
353.635	26.911	1142.623	926.356
354.650	27.062	1141.561	926.187
355.665	26.902	1141.493	925.232
356.679	27.041	1140.716	925.230
357.694	27.044	1140.045	924.616
358.708	27.078	1139.222	924.042
359.723	26.990	1138.749	923.128
360.738	27.010	1137.758	922.347
361.752	27.026	1137.317	921.989
362.767	27.094	1137.104	922.080
363.781	27.112	1136.451	921.560
364.796	27.086	1136.077	921.041
365.810	26.981	1135.555	920.004
366.825	27.120	1134.805	920.019
367.840	27.148	1134.115	919.521
368.854	27.269	1133.158	919.275
369.869	27.138	1132.668	918.135
370.883	27.222	1131.638	917.643
371.898	27.178	1131.359	917.113
372.913	27.241	1130.382	916.558
373.927	27.092	1130.543	915.855
374.942	27.233	1129.303	915.479
375.956	27.250	1128.924	915.176
376.971	27.278	1128.592	914.967
377.986	27.291	1128.040	914.503
379.000	27.386	1127.406	914.387
380.015	27.311	1127.169	913.735
381.029	27.231	1126.304	912.554
382.044	27.221	1125.678	911.917
383.059	27.304	1124.935	911.650
384.073	27.309	1124.695	911.401
385.088	27.428	1123.385	910.855
386.102	27.459	1122.376	910.107
387.117	27.383	1121.306	908.780
388.132	27.347	1120.651	907.992
389.146	27.464	1120.227	908.150
390.161	27.312	1119.716	906.899
391.175	27.396	1118.891	906.568
392.190	27.528	1117.920	906.356
393.205	27.409	1117.553	905.389
394.219	27.398	1116.845	904.676
395.234	27.390	1116.341	904.153
396.248	27.528	1115.478	904.058
397.263	27.467	1114.360	902.769
398.278	27.476	1114.237	902.634
399.292	27.556	1113.267	902.166
400.307	27.558	1112.641	901.585
401.321	27.455	1112.630	900.989
402.336	27.499	1111.026	899.829
403.350	27.474	1110.847	899.481
404.365	27.697	1109.871	899.707
405.380	27.611	1109.057	898.545
406.394	27.713	1108.399	898.438
407.409	27.629	1107.747	897.416
408.423	27.741	1107.312	897.532
409.438	27.642	1106.712	896.480
410.453	27.738	1105.661	896.022
411.467	27.625	1105.142	894.969
412.482	27.692	1104.460	894.665
413.496	27.782	1103.754	894.455
414.511	27.720	1103.307	893.711
415.526	27.846	1102.403	893.517
416.540	27.811	1102.181	893.084
417.555	27.707	1101.476	891.927
418.569	27.771	1101.391	892.092
419.584	27.805	1100.510	891.463
420.599	27.851	1100.149	891.316
421.613	76.015	1279.326	1301.021
422.628	71.165	1305.454	1301.164
