DTS Sentinel unit serial number:	SN413079Multiplexer serial number:	ORYXHardware model number:	OX4-SRSoftware version number:	ORYX F/W v4.00 Oryx Data Collector v3.7.2.0data status	okinstallation	princeton_trtdifferential loss correction	single-endedforward channel	channel 2reverse channel	N/Adate	2019/09/14time	04:19:35forward acquisition time	60.00reverse acquisition time	0.00gamma	496.2192k internal	0.2336k external	0.2336temperature offset calibration	1.0128default loss term (dB/km)	0.3790temperature slope calibration	1.0000multiplexer offset coefficient	1.0000multiplexer slope coefficient	1.0000fibre end	0.00T internal ref (°C)	26.73T ext. ref 1 (°C)	3.32T ext. ref 2 (°C)	21.91length (m)	temperature (°C)	Stokes	anti-Stokes-747.200	-45.135	0.104	-0.052
-746.185	372.755	-0.096	0.195
-745.171	-56.416	0.210	0.094
-744.156	7.624	-0.269	0.202
-743.142	-200.000	0.009	0.138
-742.127	-22.729	0.039	0.024
-741.112	-66.736	0.109	-0.043
-740.098	-74.528	0.098	-0.035
-739.083	-92.843	0.145	-0.041
-738.069	-145.679	-0.160	0.014
-737.054	126.114	0.020	0.026
-736.039	20.405	-0.201	-0.163
-735.025	800.000	-0.033	-0.136
-734.010	-193.255	0.202	0.002
-732.996	157.172	0.075	-0.104
-731.981	800.000	0.045	-0.132
-730.966	135.951	0.140	-0.184
-729.952	30.091	0.106	-0.091
-728.937	770.854	0.104	-0.285
-727.923	-89.114	-0.235	0.070
-726.908	-20.393	0.113	-0.070
-725.894	38.373	-0.203	-0.182
-724.879	112.917	-0.006	0.007
-723.864	79.121	0.173	-0.186
-722.850	137.386	0.139	0.183
-721.835	-47.477	0.381	-0.186
-720.821	165.704	0.128	-0.182
-719.806	-25.125	-0.059	0.035
-718.791	-68.324	-0.257	-0.100
-717.777	44.429	0.090	-0.083
-716.762	-130.874	0.266	0.036
-715.748	684.484	-0.010	-0.026
-714.733	-88.321	-0.178	0.053
-713.718	-22.612	-0.203	-0.123
-712.704	-135.454	-0.077	-0.009
-711.689	95.025	0.282	0.323
-710.675	-38.200	-0.332	0.177
-709.660	-67.280	-0.304	0.120
-708.645	-22.107	-0.207	0.126
-707.631	-16.510	0.310	-0.197
-706.616	33.428	0.181	-0.158
-705.602	-171.504	0.285	0.009
-704.587	27.239	-0.397	-0.334
-703.572	-200.000	-0.009	-0.350
-702.558	-200.000	0.050	-0.278
-701.543	36.091	-0.174	-0.154
-700.529	121.008	0.058	-0.073
-699.514	-200.000	-0.022	-0.251
-698.499	122.132	0.105	0.131
-697.485	215.285	-0.142	-0.227
-696.470	-65.947	-0.143	-0.057
-695.456	-36.094	-0.227	0.123
-694.441	111.189	0.176	-0.212
-693.426	-105.461	-0.417	-0.095
-692.412	-200.000	0.020	0.141
-691.397	299.341	-0.099	-0.184
-690.383	-200.000	-0.018	-0.226
-689.368	-200.000	-0.025	-0.270
-688.354	-24.232	-0.264	-0.158
-687.339	589.675	0.161	-0.398
-686.324	273.539	-0.012	-0.021
-685.310	-73.670	-0.115	-0.042
-684.295	800.000	0.033	0.094
-683.281	92.022	-0.168	-0.190
-682.266	-162.895	0.046	0.002
-681.251	96.962	0.131	0.151
-680.237	424.585	-0.159	0.342
-679.222	-46.562	-0.117	-0.058
-678.208	-200.000	-0.004	-0.139
-677.193	-70.169	-0.065	0.025
-676.178	64.583	0.169	-0.171
-675.164	-200.000	-0.039	-0.447
-674.149	-32.003	0.187	-0.105
-673.135	-63.724	-0.053	0.022
-672.120	-200.000	0.005	0.326
-671.105	-17.504	0.078	0.049
-670.091	800.000	-0.041	-0.176
-669.076	-145.763	-0.234	-0.021
-668.062	-16.782	-0.179	0.114
-667.047	145.413	-0.153	-0.206
-666.032	800.000	-0.040	-0.144
-665.018	-200.000	0.012	-0.079
-664.003	800.000	-0.041	0.152
-662.989	112.523	-0.061	-0.074
-661.974	-39.719	-0.279	0.146
-660.959	800.000	-0.090	-0.283
-659.945	200.423	0.191	0.294
-658.930	800.000	-0.038	0.117
-657.916	-88.516	0.166	-0.050
-656.901	-200.000	0.005	0.355
-655.886	-34.601	0.326	-0.178
-654.872	800.000	-0.038	0.118
-653.857	-42.801	-0.136	-0.069
-652.843	-200.000	0.003	-0.036
-651.828	96.063	-0.033	0.037
-650.814	-200.000	-0.042	0.187
-649.799	800.000	0.115	-0.449
-648.784	68.165	-0.105	-0.107
-647.770	3.956	-0.274	0.200
-646.755	800.000	0.154	0.448
-645.741	-129.439	-0.220	0.031
-644.726	53.442	-0.185	0.178
-643.711	90.041	-0.120	0.134
-642.697	-33.130	0.085	0.047
-641.682	-125.978	0.300	-0.045
-640.668	165.396	0.035	0.049
-639.653	-28.252	-0.596	-0.344
-638.638	50.662	-0.130	-0.123
-637.624	82.493	0.155	0.168
-636.609	604.537	-0.104	0.259
-635.595	86.534	-0.134	-0.148
-634.580	-76.313	0.053	-0.019
-633.565	-200.000	-0.015	-0.212
-632.551	151.489	-0.246	-0.334
-631.536	-200.000	-0.011	-0.094
-630.522	800.000	0.071	0.266
-629.507	47.150	0.165	0.154
-628.492	-112.166	-0.086	0.017
-627.478	800.000	-0.048	0.175
-626.463	800.000	-0.086	-0.279
-625.449	19.747	-0.241	-0.194
-624.434	56.565	-0.047	-0.045
-623.419	-99.695	-0.391	0.098
-622.405	125.719	0.134	0.169
-621.390	283.885	0.159	-0.285
-620.376	-97.720	-0.240	-0.062
-619.361	29.725	0.132	0.112
-618.346	-200.000	0.006	-0.072
-617.332	-200.000	0.035	-0.223
-616.317	-200.000	0.035	-0.163
-615.303	-200.000	-0.020	-0.307
-614.288	-200.000	-0.010	-0.133
-613.273	44.950	-0.267	0.245
-612.259	97.600	-0.152	0.175
-611.244	-123.832	-0.313	0.049
-610.230	-200.000	0.015	-0.180
-609.215	800.000	-0.048	-0.148
-608.201	-17.505	0.062	-0.039
-607.186	102.442	0.089	-0.103
-606.171	800.000	-0.040	0.150
-605.157	21.807	-0.192	0.157
-604.142	-47.809	-0.211	0.102
-603.128	-118.437	0.120	0.021
-602.113	79.213	-0.323	-0.346
-601.098	-108.215	-0.317	0.068
-600.084	558.000	0.107	-0.258
-599.069	-101.106	-0.220	0.054
-598.055	123.399	-0.038	0.048
-597.040	-102.772	-0.228	0.054
-596.025	-97.941	-0.543	0.140
-595.011	-36.604	0.265	-0.142
-593.996	168.831	-0.082	0.117
-592.982	212.063	0.192	0.302
-591.967	268.227	-0.105	-0.184
-590.952	92.365	0.147	0.166
-589.938	569.133	-0.143	-0.346
-588.923	-141.291	-0.277	-0.028
-587.909	800.000	-0.061	0.210
-586.894	800.000	0.042	-0.128
-585.879	501.431	0.086	-0.197
-584.865	-200.000	-0.015	-0.071
-583.850	-86.932	0.205	0.062
-582.836	-52.451	0.147	-0.068
-581.821	-200.000	0.026	0.173
-580.806	168.203	-0.025	-0.036
-579.792	-36.208	0.120	0.065
-578.777	-89.802	0.128	-0.037
-577.763	145.362	-0.119	-0.159
-576.748	30.956	0.102	0.087
-575.733	11.936	-0.068	0.053
-574.719	-6.196	-0.279	0.190
-573.704	-115.188	-0.388	0.073
-572.690	128.020	0.142	0.180
-571.675	363.960	0.073	-0.147
-570.661	154.818	0.038	0.052
-569.646	800.000	0.030	-0.106
-568.631	633.071	0.107	-0.271
-567.617	654.360	-0.079	-0.203
-566.602	-200.000	-0.017	-0.252
-565.588	800.000	0.047	-0.166
-564.573	-71.624	-0.175	-0.065
-563.558	90.256	0.197	-0.220
-562.544	-111.456	-0.367	0.074
-561.529	-17.640	-0.278	0.174
-560.515	-200.000	0.000	0.007
-559.500	-88.162	0.126	-0.038
-558.485	-200.000	-0.037	0.403
-557.471	-16.262	-0.112	0.071
-556.456	34.805	0.297	0.259
-555.442	50.460	0.198	0.187
-554.427	-40.204	0.210	0.109
-553.412	308.559	-0.154	-0.288
-552.398	-141.159	0.222	0.023
-551.383	34.477	-0.059	-0.051
-550.369	-173.221	0.274	0.008
-549.354	-97.984	0.331	0.085
-548.339	120.001	0.231	-0.286
-547.325	-200.000	0.014	-0.268
-546.310	68.765	-0.036	0.037
-545.296	-143.480	-0.343	-0.033
-544.281	21.528	0.176	-0.143
-543.266	-113.433	-0.234	0.046
-542.252	125.458	-0.028	0.035
-541.237	76.687	-0.113	-0.119
-540.223	249.148	-0.137	0.231
-539.208	67.196	0.089	0.090
-538.193	-81.736	0.120	-0.039
-537.179	487.699	0.121	-0.276
-536.164	-104.016	0.336	-0.078
-535.150	-142.913	-0.374	-0.036
-534.135	-53.464	0.096	0.044
-533.121	136.498	0.238	-0.309
-532.106	-165.457	-0.136	-0.006
-531.091	-91.808	-0.163	0.046
-530.077	-83.488	0.130	-0.041
-529.062	592.357	0.104	-0.256
-528.048	-200.000	-0.002	0.043
-527.033	-75.441	0.186	0.066
-526.018	94.926	0.125	0.142
-525.004	-200.000	0.008	0.054
-523.989	800.000	0.118	0.370
-522.975	-11.736	0.034	0.022
-521.960	-200.000	0.015	-0.081
-520.945	-200.000	0.060	-0.346
-519.931	-200.000	0.051	0.310
-518.916	-200.000	-0.016	-0.130
-517.902	-86.066	-0.172	0.053
-516.887	-94.975	-0.084	0.023
-515.872	192.937	-0.100	-0.150
-514.858	-68.723	-0.181	-0.070
-513.843	673.189	0.074	-0.191
-512.829	420.512	-0.129	0.276
-511.814	-161.783	0.083	0.004
-510.799	-63.272	-0.479	0.196
-509.785	-119.782	-0.017	0.003
-508.770	-119.663	0.271	-0.047
-507.756	52.533	0.094	-0.090
-506.741	196.967	-0.103	0.156
-505.726	472.872	0.079	0.178
-504.712	98.915	0.121	0.139
-503.697	-58.152	0.211	-0.091
-502.683	-4.067	-0.226	-0.156
-501.668	67.025	0.273	-0.277
-500.653	209.465	-0.074	-0.116
-499.639	800.000	-0.064	-0.215
-498.624	297.604	0.177	0.323
-497.610	445.714	0.107	-0.234
-496.595	-67.530	0.314	0.123
-495.581	81.891	-0.244	-0.263
-494.566	-14.708	-0.220	-0.141
-493.551	-22.491	-0.260	-0.157
-492.537	165.651	-0.375	0.527
-491.522	20.532	0.124	-0.100
-490.508	-128.900	-0.362	0.051
-489.493	-200.000	-0.030	-0.212
-488.478	-86.390	0.337	0.103
-487.464	48.655	-0.087	-0.081
-486.449	70.616	0.276	0.284
-485.435	-200.000	-0.028	-0.190
-484.420	-67.701	-0.191	-0.074
-483.405	800.000	0.066	0.232
-482.391	-96.342	0.279	-0.074
-481.376	26.093	0.194	-0.161
-480.362	135.411	0.092	-0.119
-479.347	-200.000	-0.035	-0.185
-478.332	-76.203	-0.162	0.057
-477.318	354.915	0.127	-0.250
-476.303	-82.911	-0.192	-0.062
-475.289	-96.930	-0.472	-0.123
-474.274	-200.000	0.031	-0.261
-473.259	-142.093	-0.239	0.024
-472.245	2.931	0.134	0.097
-471.230	225.324	-0.171	-0.275
-470.216	-50.112	-0.100	-0.047
-469.201	57.192	-0.446	-0.433
-468.186	34.705	0.160	-0.139
-467.172	-200.000	0.029	0.229
-466.157	-87.452	-0.156	-0.047
-465.143	33.012	0.129	0.111
-464.128	800.000	-0.029	0.085
-463.113	-117.621	-0.253	0.045
-462.099	126.628	0.155	0.195
-461.084	716.503	0.109	0.287
-460.070	196.938	-0.098	0.148
-459.055	41.334	-0.096	-0.086
-458.040	41.104	0.136	0.122
-457.026	-33.001	0.116	-0.064
-456.011	-82.434	-0.197	-0.064
-454.997	-13.020	0.010	0.007
-453.982	-200.000	0.019	0.215
-452.968	126.867	-0.192	0.241
-451.953	-26.552	0.141	0.082
-450.938	111.855	-0.052	-0.062
-449.924	-110.515	0.141	0.029
-448.909	219.928	0.090	0.144
-447.895	151.733	0.213	-0.288
-446.880	-7.221	0.059	0.039
-445.865	-200.000	0.029	-0.166
-444.851	188.970	0.162	-0.241
-443.836	373.611	0.144	-0.292
-442.822	6.599	0.268	-0.198
-441.807	-81.586	-0.149	0.048
-440.792	162.800	0.171	-0.238
-439.778	-31.863	-0.210	-0.117
-438.763	-58.229	-0.023	-0.010
-437.749	214.753	-0.013	0.020
-436.734	-184.969	-0.182	0.003
-435.719	-17.062	-0.087	0.055
-434.705	-49.676	-0.233	-0.110
-433.690	36.442	-0.161	-0.141
-432.676	-42.427	-0.082	0.041
-431.661	39.668	-0.135	0.121
-430.646	-32.388	-0.154	-0.085
-429.632	-26.832	-0.134	-0.078
-428.617	-167.411	0.197	-0.008
-427.603	649.415	0.034	-0.087
-426.588	-129.162	-0.160	-0.022
-425.573	-200.000	-0.017	0.076
-424.559	123.354	-0.042	0.052
-423.544	-51.034	0.353	-0.164
-422.530	-102.490	0.075	0.018
-421.515	-34.091	0.181	0.099
-420.500	-130.318	0.360	0.049
-419.486	-111.853	-0.353	-0.071
-418.471	-74.938	-0.067	0.024
-417.457	800.000	0.070	0.229
-416.442	-152.782	-0.115	-0.008
-415.428	212.160	0.063	0.099
-414.413	-40.236	0.092	0.047
-413.398	-123.551	-0.297	0.047
-412.384	-75.697	-0.124	0.044
-411.369	-200.000	0.038	-0.351
-410.355	395.167	0.040	0.084
-409.340	-200.000	0.022	-0.158
-408.325	-200.000	-0.060	0.319
-407.311	-38.153	-0.211	-0.111
-406.296	-26.830	-0.109	0.063
-405.282	174.329	0.204	0.292
-404.267	77.748	-0.197	-0.208
-403.252	131.343	-0.074	-0.094
-402.238	800.000	0.071	0.289
-401.223	-33.760	-0.151	0.082
-400.209	800.000	-0.076	0.220
-399.194	430.986	0.012	0.027
-398.179	-200.000	-0.001	0.163
-397.165	-78.578	0.013	-0.004
-396.150	59.158	-0.179	-0.175
-395.136	800.000	0.019	-0.070
-394.121	-115.480	-0.286	0.053
-393.106	688.613	-0.113	0.292
-392.092	-50.296	0.251	0.117
-391.077	-200.000	0.027	-0.179
-390.063	470.168	-0.061	0.137
-389.048	-124.951	0.424	0.065
-388.033	-200.000	0.004	0.317
-387.019	292.283	0.045	-0.082
-386.004	-200.000	0.046	-0.473
-384.990	-200.000	0.025	-0.191
-383.975	-200.000	0.008	-0.087
-382.960	-156.749	0.192	-0.012
-381.946	51.423	-0.075	-0.070
-380.931	-200.000	0.003	-0.190
-379.917	800.000	-0.035	-0.103
-378.902	-62.198	0.213	0.088
-377.888	-55.213	-0.233	0.104
-376.873	11.044	0.305	0.231
-375.858	-200.000	0.057	0.377
-374.844	210.026	-0.053	0.083
-373.829	-72.968	0.083	0.030
-372.815	54.414	-0.290	-0.276
-371.800	-9.199	-0.081	-0.053
-370.785	-81.081	0.191	-0.063
-369.771	204.082	0.134	0.205
-368.756	800.000	-0.093	0.325
-367.742	-41.296	-0.197	-0.101
-366.727	-200.000	0.011	-0.195
-365.712	47.619	-0.068	0.063
-364.698	-173.153	-0.161	-0.005
-363.683	-151.139	0.119	-0.009
-362.669	86.225	0.209	0.227
-361.654	-68.906	-0.077	-0.029
-360.639	-110.770	-0.483	-0.099
-359.625	-53.461	-0.183	-0.083
-358.610	-75.416	0.179	-0.063
-357.596	-200.000	-0.010	-0.134
-356.581	69.643	0.219	0.223
-355.566	-133.879	-0.144	0.018
-354.552	58.843	-0.094	0.092
-353.537	-98.585	-0.145	0.037
-352.523	-200.000	0.011	0.145
-351.508	-20.587	-0.148	0.090
-350.493	800.000	0.073	-0.226
-349.479	-16.961	0.155	-0.097
-348.464	38.631	0.057	-0.051
-347.450	-45.028	0.217	-0.107
-346.435	-200.000	-0.078	0.000
-345.420	-55.306	-0.049	0.022
-344.406	800.000	0.038	-0.119
-343.391	-24.461	0.216	0.127
-342.377	-5.432	0.073	-0.050
-341.362	-200.000	0.026	0.397
-340.348	-15.016	-0.144	0.091
-339.333	800.000	0.038	0.145
-338.318	-200.000	0.002	0.031
-337.304	800.000	-0.125	-0.388
-336.289	568.147	0.034	-0.082
-335.275	133.983	-0.115	0.147
-334.260	-159.921	-0.126	0.007
-333.245	19.000	0.272	0.216
-332.231	9.701	0.135	-0.101
-331.216	-70.408	-0.380	0.143
-330.202	45.979	-0.197	0.180
-329.187	472.235	-0.098	-0.219
-328.172	25.641	0.355	-0.292
-327.158	-120.256	-0.029	-0.005
-326.143	541.795	-0.072	0.170
-325.129	406.247	-0.066	0.137
-324.114	292.929	-0.174	-0.313
-323.099	-200.000	-0.006	-0.068
-322.085	800.000	-0.078	-0.244
-321.070	-119.969	0.395	-0.067
-320.056	-200.000	0.040	0.179
-319.041	34.709	-0.091	-0.079
-318.026	-200.000	-0.038	0.220
-317.012	-134.712	0.064	-0.008
-315.997	-36.667	0.203	0.108
-314.983	-95.089	-0.109	0.029
-313.968	-91.394	0.383	-0.108
-312.953	800.000	0.018	-0.077
-311.939	197.669	0.077	-0.116
-310.924	-96.014	0.072	-0.019
-309.910	-49.648	0.294	-0.138
-308.895	-200.000	0.036	0.194
-307.880	-200.000	0.054	0.292
-306.866	398.491	-0.078	0.160
-305.851	637.429	-0.110	-0.275
-304.837	800.000	-0.094	0.345
-303.822	-129.347	0.272	0.037
-302.807	119.410	-0.171	0.209
-301.793	-200.000	-0.003	-0.272
-300.778	-200.000	-0.050	-0.222
-299.764	24.584	-0.281	0.229
-298.749	406.216	-0.037	-0.076
-297.735	238.162	0.084	-0.137
-296.720	151.236	-0.080	0.107
-295.705	27.831	0.393	-0.327
-294.691	104.037	0.160	-0.186
-293.676	-55.058	-0.019	0.009
-292.662	250.075	0.239	0.400
-291.647	-46.869	-0.134	0.065
-290.632	212.154	-0.062	0.097
-289.618	-57.109	0.145	0.063
-288.603	-113.957	-0.201	0.038
-287.589	369.114	0.078	0.156
-286.574	-200.000	0.020	-0.273
-285.559	-68.574	-0.129	0.049
-284.545	-51.758	0.284	-0.130
-283.530	-139.667	0.272	-0.029
-282.516	-200.000	-0.044	0.236
-281.501	800.000	-0.033	-0.130
-280.486	-13.310	-0.100	0.064
-279.472	-89.080	0.339	0.099
-278.457	23.387	0.262	-0.212
-277.443	5.228	-0.257	-0.187
-276.428	797.709	-0.021	0.058
-275.413	800.000	0.008	-0.032
-274.399	-200.000	0.001	0.084
-273.384	-27.096	0.292	0.168
-272.370	-200.000	-0.012	-0.075
-271.355	-12.634	-0.143	0.092
-270.340	465.607	0.125	-0.275
-269.326	-200.000	0.001	0.384
-268.311	-200.000	0.018	-0.162
-267.297	-75.514	0.126	0.044
-266.282	-46.390	-0.213	0.103
-265.267	-200.000	0.013	-0.089
-264.253	-200.000	0.029	-0.180
-263.238	251.363	-0.158	0.265
-262.224	-7.087	0.251	0.168
-261.209	-81.849	0.264	-0.085
-260.195	33.814	0.185	-0.159
-259.180	45.331	0.131	-0.120
-258.165	18.649	0.277	0.218
-257.151	-133.012	0.143	-0.018
-256.136	126.995	-0.123	-0.154
-255.122	64.746	0.115	-0.114
-254.107	17.125	0.128	-0.100
-253.092	-184.688	0.141	0.002
-252.078	52.898	-0.334	-0.315
-251.063	123.181	0.100	0.123
-250.049	-200.000	0.013	-0.203
-249.034	-200.000	-0.003	-0.132
-248.019	305.484	0.227	-0.416
-247.005	122.137	0.252	-0.310
-245.990	-132.184	-0.216	-0.028
-244.976	-43.326	0.262	0.131
-243.961	439.548	-0.080	0.173
-242.946	-119.289	-0.107	-0.018
-241.932	-18.690	0.100	-0.061
-240.917	800.000	-0.034	0.105
-239.903	-149.908	-0.400	-0.031
-238.888	800.000	0.062	-0.201
-237.873	-128.786	0.314	0.044
-236.859	-200.000	0.011	0.328
-235.844	39.723	0.110	-0.097
-234.830	-200.000	-0.001	0.271
-233.815	-200.000	-0.005	0.136
-232.800	-41.615	-0.178	-0.090
-231.786	-200.000	0.022	-0.207
-230.771	29.703	0.110	0.092
-229.757	81.485	0.288	-0.307
-228.742	-155.800	0.462	-0.029
-227.727	-121.645	0.428	0.070
-226.713	-69.694	0.188	-0.071
-225.698	259.440	0.035	0.059
-224.684	318.008	0.046	0.086
-223.669	159.429	-0.041	0.056
-222.655	448.252	-0.105	-0.228
-221.640	211.914	0.142	-0.220
-220.625	-100.367	-0.226	0.055
-219.611	-125.948	0.194	-0.029
-218.596	-200.000	-0.028	-0.531
-217.582	-150.471	0.424	-0.032
-216.567	608.650	0.158	0.389
-215.552	490.431	-0.030	-0.067
-214.538	169.626	-0.195	0.275
-213.523	-200.000	0.010	0.230
-212.509	-51.965	0.239	0.109
-211.494	-12.816	-0.275	0.176
-210.479	437.359	0.140	0.301
-209.465	-22.346	0.335	0.200
-208.450	270.391	0.071	0.123
-207.436	-58.926	-0.019	-0.008
-206.421	-136.016	-0.118	-0.014
-205.406	-63.893	0.078	0.031
-204.392	78.469	-0.162	0.170
-203.377	-127.156	0.359	0.052
-202.363	-96.994	-0.163	0.042
-201.348	49.538	-0.048	-0.044
-200.333	-51.914	0.294	0.135
-199.319	45.829	0.182	-0.166
-198.304	-63.168	0.129	-0.052
-197.290	100.408	-0.264	0.301
-196.275	-74.194	-0.135	-0.048
-195.260	-175.282	-0.412	0.011
-194.246	-200.000	-0.035	-0.199
-193.231	-84.214	0.132	-0.041
-192.217	800.000	0.074	0.236
-191.202	-200.000	-0.020	0.438
-190.187	24.904	-0.004	0.003
-189.173	-200.000	-0.006	0.048
-188.158	-200.000	0.014	0.186
-187.144	800.000	-0.040	-0.147
-186.129	-164.883	-0.212	-0.009
-185.114	266.407	0.100	-0.172
-184.100	-85.644	0.360	0.110
-183.085	-9.369	0.286	0.187
-182.071	-142.332	-0.266	0.026
-181.056	111.970	0.078	0.093
-180.042	131.927	-0.214	-0.271
-179.027	599.336	0.076	0.185
-178.012	800.000	-0.080	0.229
-176.998	346.887	-0.050	-0.097
-175.983	84.047	-0.139	-0.149
-174.969	63.286	-0.252	-0.248
-173.954	15.222	-0.009	-0.007
-172.939	-126.958	-0.187	-0.027
-171.925	-200.000	-0.000	0.154
-170.910	800.000	0.097	-0.341
-169.896	-150.263	0.141	-0.011
-168.881	247.647	-0.109	0.181
-167.866	-93.527	-0.216	-0.059
-166.852	-200.000	-0.008	0.202
-165.837	438.970	-0.046	0.099
-164.823	174.832	-0.293	0.417
-163.808	800.000	-0.029	0.111
-162.793	143.003	-0.064	0.084
-161.779	0.519	-0.027	0.019
-160.764	40.218	0.189	0.167
-159.750	258.306	-0.157	0.265
-158.735	800.000	0.052	0.190
-157.720	-66.483	0.076	-0.030
-156.706	12.044	0.100	0.076
-155.691	-200.000	-0.013	-0.081
-154.677	-124.281	-0.167	0.026
-153.662	-200.000	-0.008	0.180
-152.647	-6.095	0.408	0.274
-151.633	124.155	0.047	0.058
-150.618	-58.628	0.218	-0.093
-149.604	388.761	-0.153	0.311
-148.589	-134.292	-0.043	0.005
-147.574	256.336	-0.084	-0.141
-146.560	-61.721	0.087	0.036
-145.545	219.120	-0.076	-0.120
-144.531	175.796	0.138	0.196
-143.516	225.186	0.024	-0.038
-142.502	-133.944	0.134	0.016
-141.487	47.984	-0.104	0.096
-140.472	-200.000	-0.052	0.277
-139.458	-44.919	0.095	-0.047
-138.443	314.640	-0.081	0.150
-137.429	-50.135	0.324	-0.151
-136.414	169.266	0.176	-0.247
-135.399	-165.343	-0.134	-0.006
-134.385	487.504	0.116	0.260
-133.370	800.000	-0.068	-0.218
-132.356	9.391	-0.082	-0.061
-131.341	-30.313	-0.302	0.168
-130.326	-162.642	-0.185	0.009
-129.312	658.218	-0.044	0.112
-128.297	-3.809	-0.310	0.211
-127.283	-150.047	-0.294	0.022
-126.268	303.312	-0.051	0.093
-125.253	-88.333	0.314	0.092
-124.239	800.000	-0.025	0.096
-123.224	-21.105	0.162	0.097
-122.210	-66.798	-0.040	0.015
-121.195	-59.568	0.111	0.047
-120.180	186.946	-0.050	0.073
-119.166	178.095	0.161	0.230
-118.151	-148.158	0.593	0.048
-117.137	258.798	0.264	0.446
-116.122	-200.000	0.001	0.101
-115.107	-53.009	0.095	0.043
-114.093	-200.000	-0.010	0.194
-113.078	203.991	0.095	0.145
-112.064	-73.212	-0.147	-0.053
-111.049	7.240	0.165	-0.121
-110.034	307.820	0.065	0.119
-109.020	-142.111	0.050	0.005
-108.005	782.963	0.004	-0.011
-106.991	95.993	0.257	0.287
-105.976	16.866	-0.182	0.141
-104.962	609.330	0.073	-0.180
-103.947	-53.611	0.158	0.071
-102.932	-200.000	-0.075	-0.441
-101.918	800.000	-0.108	-0.356
-100.903	-108.566	-0.348	-0.073
-99.889	35.523	-0.008	-0.007
-98.874	101.892	-0.084	-0.097
-97.859	-200.000	0.035	-0.179
-96.845	-200.000	0.028	0.199
-95.830	-136.471	0.153	0.017
-94.816	-36.475	0.141	0.074
-93.801	-200.000	-0.023	-0.228
-92.786	47.163	0.140	0.127
-91.772	210.537	-0.179	-0.276
-90.757	-57.656	-0.267	-0.114
-89.743	-6.056	-0.250	-0.167
-88.728	2.430	-0.136	-0.097
-87.713	427.619	-0.173	0.366
-86.699	800.000	0.034	-0.101
-85.684	447.387	0.146	-0.315
-84.670	-200.000	-0.031	-0.299
-83.655	-16.821	-0.108	0.067
-82.640	416.214	0.191	0.398
-81.626	641.821	0.063	0.157
-80.611	-100.806	0.111	0.027
-79.597	-125.845	0.305	-0.045
-78.582	244.736	0.178	-0.293
-77.567	-101.344	-0.225	-0.054
-76.553	-200.000	0.032	0.148
-75.538	-53.792	0.327	0.146
-74.524	-200.000	0.017	0.138
-73.509	-127.948	-0.286	0.040
-72.494	641.190	0.063	-0.157
-71.480	-64.989	0.212	0.084
-70.465	686.970	-0.042	0.108
-69.451	13.796	0.198	-0.151
-68.436	-136.043	0.245	-0.028
-67.422	-200.000	0.006	-0.119
-66.407	800.000	0.023	-0.089
-65.392	707.665	0.029	0.074
-64.378	-83.135	0.163	0.051
-63.363	800.000	-0.021	-0.070
-62.349	42.409	0.124	-0.110
-61.334	95.668	-0.940	-1.049
-60.319	-61.796	0.699	0.286
-59.305	680.856	-0.361	-0.920
-58.290	393.369	0.511	1.040
-57.276	544.039	0.619	1.444
-56.261	-200.000	116.216	654.499
-55.246	521.344	1536.236	3524.416
-54.232	174.241	2720.113	3843.740
-53.217	100.919	2302.853	2618.172
-52.203	36.057	1907.054	1641.452
-51.188	29.833	1696.876	1413.124
-50.173	27.371	1654.586	1359.484
-49.159	48.872	1711.347	1569.953
-48.144	47.225	1725.636	1570.508
-47.130	29.447	1682.666	1398.143
-46.115	26.751	1668.169	1365.761
-45.100	26.622	1663.285	1360.736
-44.086	26.612	1660.778	1358.557
-43.071	26.623	1658.407	1356.646
-42.057	26.513	1655.959	1353.771
-41.042	26.526	1653.798	1352.045
-40.027	26.633	1651.389	1350.819
-39.013	26.573	1649.708	1348.941
-37.998	26.538	1648.115	1347.328
-36.984	26.660	1646.872	1347.168
-35.969	26.738	1644.926	1346.098
-34.954	26.779	1643.613	1345.279
-33.940	26.711	1641.962	1343.368
-32.925	26.694	1640.732	1342.182
-31.911	26.654	1638.816	1340.263
-30.896	26.669	1636.810	1338.680
-29.881	26.767	1634.547	1337.502
-28.867	26.672	1633.818	1336.149
-27.852	26.688	1632.513	1335.147
-26.838	26.752	1630.569	1333.978
-25.823	26.831	1629.050	1333.262
-24.809	26.699	1628.793	1332.028
-23.794	26.815	1626.522	1330.971
-22.779	26.797	1625.452	1329.906
-21.765	26.702	1623.822	1327.825
-20.750	26.746	1622.023	1326.626
-19.736	26.831	1620.673	1326.092
-18.721	26.860	1618.551	1324.514
-17.706	26.717	1617.938	1322.912
-16.692	26.751	1616.170	1321.664
-15.677	26.794	1614.946	1320.927
-14.663	26.834	1613.834	1320.256
-13.648	26.746	1612.232	1318.252
-12.633	26.830	1610.263	1317.201
-11.619	26.767	1609.133	1315.763
-10.604	26.823	1607.479	1314.767
-9.590	26.813	1606.058	1313.477
-8.575	26.765	1604.567	1311.863
-7.560	26.783	1603.850	1311.351
-6.546	26.711	1603.131	1310.193
-5.531	26.701	1601.625	1308.837
-4.517	26.726	1600.235	1307.831
-3.502	26.821	1599.061	1307.503
-2.487	26.840	1597.373	1306.209
-1.473	26.462	1585.628	1293.847
-0.458	23.826	1566.486	1259.530
0.556	21.348	1568.150	1229.361
1.571	19.039	1593.047	1232.253
2.586	18.761	1605.322	1239.630
3.600	16.614	1549.943	1181.785
4.615	9.720	1442.461	1054.779
5.629	4.163	1383.621	976.717
6.644	3.424	1376.527	966.991
7.659	3.307	1375.692	965.587
8.673	3.316	1374.910	965.006
9.688	3.223	1372.624	962.734
10.702	3.367	1369.318	961.229
11.717	5.801	1374.490	980.000
12.731	13.043	1387.770	1034.932
13.746	18.970	1397.404	1079.339
14.761	20.276	1398.249	1088.092
15.775	19.736	1396.068	1082.914
16.790	18.621	1393.778	1074.069
17.804	17.804	1391.871	1067.395
18.819	17.515	1390.354	1064.328
19.834	17.319	1389.245	1062.160
20.848	17.139	1387.987	1059.984
21.863	16.938	1386.502	1057.499
22.877	16.791	1385.491	1055.717
23.892	16.913	1384.432	1055.578
24.907	16.834	1384.051	1054.703
25.921	16.767	1383.012	1053.404
26.936	16.814	1381.826	1052.698
27.950	16.885	1380.898	1052.339
28.965	16.928	1379.979	1051.813
29.980	17.020	1379.046	1051.579
30.994	17.214	1377.593	1051.578
32.009	17.102	1377.089	1050.407
33.023	17.127	1375.469	1049.229
34.038	17.153	1374.137	1048.281
35.053	17.080	1372.458	1046.458
36.067	16.981	1371.878	1045.316
37.082	17.115	1370.595	1045.070
38.096	17.130	1369.767	1044.437
39.111	17.035	1369.169	1043.306
40.126	16.964	1368.038	1041.916
41.140	16.750	1367.140	1039.826
42.155	16.653	1366.186	1038.411
43.169	16.639	1366.170	1038.220
44.184	16.610	1365.954	1037.791
45.199	16.645	1365.714	1037.732
46.213	16.717	1365.123	1037.629
47.228	16.907	1364.058	1037.894
48.242	16.865	1363.407	1037.048
49.257	17.005	1361.202	1036.136
50.271	16.977	1359.854	1034.845
51.286	16.931	1358.611	1033.529
52.301	16.864	1357.896	1032.483
53.315	16.772	1357.060	1031.200
54.330	16.784	1355.412	1029.927
55.344	16.773	1354.234	1028.872
56.359	16.667	1353.423	1027.522
57.374	16.674	1352.631	1026.873
58.388	16.613	1351.693	1025.701
59.403	16.641	1351.097	1025.327
60.417	16.573	1350.378	1024.279
61.432	16.602	1349.167	1023.448
62.447	16.629	1347.899	1022.556
63.461	16.476	1346.731	1020.654
64.476	16.472	1345.909	1019.919
65.490	16.531	1344.304	1018.967
66.505	16.409	1342.962	1017.123
67.520	16.480	1341.416	1016.289
68.534	16.479	1340.707	1015.660
69.549	16.518	1339.397	1014.813
70.563	16.515	1338.691	1014.168
71.578	16.346	1337.621	1012.257
72.593	16.339	1336.372	1011.180
73.607	16.310	1335.690	1010.401
74.622	16.495	1334.970	1010.871
75.636	16.457	1334.284	1010.034
76.651	16.453	1333.822	1009.574
77.666	16.355	1333.322	1008.521
78.680	16.475	1332.913	1008.839
79.695	16.488	1332.006	1008.141
80.709	16.553	1331.383	1007.962
81.724	16.584	1330.608	1007.473
82.739	16.668	1330.172	1007.556
83.753	16.677	1329.141	1006.740
84.768	16.900	1328.148	1007.222
85.782	17.031	1327.040	1007.070
86.797	17.011	1325.745	1005.881
87.812	16.917	1324.267	1004.111
88.826	16.912	1323.165	1003.158
89.841	16.911	1322.551	1002.598
90.855	17.051	1320.984	1002.149
91.870	16.987	1320.862	1001.590
92.884	17.116	1319.399	1001.152
93.899	17.144	1318.802	1000.778
94.914	17.259	1317.691	1000.519
95.928	17.180	1316.831	999.317
96.943	17.133	1315.914	998.255
97.957	16.975	1315.398	996.844
98.972	16.993	1314.218	995.970
99.987	17.010	1312.714	994.840
101.001	17.109	1311.615	994.500
102.016	16.979	1311.442	993.518
103.030	16.946	1310.499	992.524
104.045	17.040	1309.383	992.140
105.060	16.953	1307.713	990.281
106.074	16.743	1306.639	988.152
107.089	16.550	1305.201	985.853
108.103	16.475	1303.755	984.240
109.118	16.459	1302.286	982.950
110.133	16.624	1301.083	982.911
111.147	16.636	1299.868	981.975
112.162	16.649	1298.603	981.010
113.176	16.672	1297.561	980.271
114.191	16.816	1296.306	980.065
115.206	16.689	1295.614	978.720
116.220	16.628	1294.313	977.304
117.235	16.634	1293.213	976.421
118.249	16.681	1292.072	975.744
119.264	16.586	1290.918	974.237
120.279	16.624	1289.552	973.341
121.293	16.503	1288.422	971.702
122.308	16.448	1287.236	970.409
123.322	16.438	1286.540	969.740
124.337	16.309	1285.740	968.310
125.352	16.437	1283.940	967.605
126.366	16.387	1283.197	966.670
127.381	16.462	1282.046	966.148
128.395	16.440	1281.330	965.397
129.410	16.524	1280.174	964.920
130.424	16.470	1279.780	964.229
131.439	16.681	1278.338	964.259
132.454	16.603	1277.552	963.140
133.468	16.698	1276.745	962.982
134.483	16.627	1276.257	962.126
135.497	16.644	1275.341	961.446
136.512	16.701	1273.758	960.492
137.527	16.677	1272.632	959.422
138.541	16.704	1271.198	958.411
139.556	16.795	1270.014	957.950
140.570	16.851	1269.274	957.620
141.585	16.900	1267.877	956.761
142.600	17.064	1266.345	956.443
143.614	16.991	1266.291	955.906
144.629	16.873	1265.409	954.490
145.643	17.062	1263.625	954.124
146.658	16.999	1262.235	952.637
147.673	16.878	1260.898	950.864
148.687	16.720	1260.177	949.350
149.702	16.685	1258.556	947.849
150.716	16.719	1257.176	946.913
151.731	16.785	1255.877	946.224
152.746	16.767	1255.218	945.542
153.760	16.887	1253.679	944.965
154.775	16.886	1252.453	943.952
155.789	17.008	1251.947	944.169
156.804	16.987	1250.525	942.895
157.819	17.020	1249.741	942.404
158.833	17.054	1249.063	941.999
159.848	17.206	1248.336	942.211
160.862	17.078	1247.158	940.526
161.877	16.930	1245.828	938.621
162.892	16.762	1245.270	937.187
163.906	16.941	1243.808	936.995
164.921	16.880	1242.913	935.904
165.935	16.930	1242.136	935.511
166.950	17.017	1241.841	935.682
167.964	17.021	1240.898	934.916
168.979	16.877	1240.351	933.628
169.994	17.011	1239.185	933.401
171.008	17.026	1238.683	933.022
172.023	17.125	1237.749	932.780
173.037	17.247	1237.174	932.936
174.052	17.153	1236.299	931.681
175.067	16.983	1234.709	929.468
176.081	16.885	1233.753	928.128
177.096	17.001	1232.513	927.749
178.110	16.948	1231.545	926.644
179.125	17.006	1230.892	926.391
180.140	16.912	1229.516	924.758
181.154	17.108	1227.943	924.564
182.169	17.141	1227.134	924.052
183.183	17.194	1226.068	923.455
184.198	17.305	1224.707	922.949
185.213	17.267	1223.290	921.598
186.227	17.260	1222.464	920.856
187.242	17.349	1221.542	920.557
188.256	17.378	1220.501	919.850
189.271	17.329	1219.810	918.982
190.286	17.315	1218.441	917.797
191.300	16.896	1217.653	914.858
192.315	16.877	1216.601	913.888
193.329	16.837	1216.383	913.427
194.344	17.081	1215.224	913.787
195.359	17.090	1214.923	913.529
196.373	17.116	1215.143	913.755
197.388	17.284	1214.489	914.086
198.402	17.376	1214.469	914.484
199.417	17.509	1213.586	914.450
200.432	17.603	1212.627	914.154
201.446	17.587	1211.730	913.308
202.461	17.672	1211.033	913.159
203.475	17.623	1210.048	912.072
204.490	17.527	1208.754	910.503
205.504	17.442	1207.529	909.047
206.519	17.344	1206.549	907.703
207.534	17.394	1205.160	906.846
208.548	17.401	1203.970	905.910
209.563	17.489	1203.128	905.661
210.577	17.420	1202.366	904.642
211.592	17.582	1201.308	904.626
212.607	17.570	1201.068	904.302
213.621	17.550	1199.872	903.217
214.636	17.662	1198.674	902.827
215.650	17.621	1198.146	902.130
216.665	17.670	1197.256	901.643
217.680	17.775	1196.397	901.471
218.694	17.784	1195.637	900.865
219.709	17.694	1194.834	899.704
220.723	17.832	1193.739	899.530
221.738	17.703	1193.234	898.387
222.753	17.791	1192.307	898.073
223.767	17.798	1191.785	897.641
224.782	17.848	1191.532	897.632
225.796	17.918	1190.886	897.435
226.811	17.954	1189.859	896.769
227.826	17.700	1189.169	894.836
228.840	17.724	1188.163	894.127
229.855	17.740	1187.587	893.697
230.869	17.779	1186.350	892.893
231.884	17.742	1185.610	892.064
232.899	17.637	1185.033	890.999
233.913	17.658	1184.361	890.528
234.928	17.674	1183.412	889.815
235.942	17.653	1182.857	889.211
236.957	17.678	1181.911	888.554
237.972	17.636	1181.373	887.850
238.986	17.692	1180.484	887.395
240.001	17.591	1179.814	886.289
241.015	17.652	1178.682	885.675
242.030	17.813	1178.231	886.093
243.045	17.807	1177.667	885.561
244.059	17.783	1176.847	884.744
245.074	17.992	1175.629	884.832
246.088	17.867	1175.187	883.774
247.103	18.043	1174.182	883.851
248.117	18.041	1173.599	883.319
249.132	18.179	1172.892	883.426
250.147	18.400	1172.321	884.055
251.161	18.387	1171.889	883.585
252.176	18.422	1170.853	882.909
253.190	18.436	1170.382	882.543
254.205	18.473	1169.998	882.365
255.220	18.602	1169.219	882.369
256.234	18.611	1168.827	882.040
257.249	18.448	1168.131	880.596
258.263	18.395	1167.539	879.801
259.278	18.462	1167.001	879.662
260.293	18.517	1166.468	879.465
261.307	18.506	1165.750	878.788
262.322	18.667	1164.987	878.959
263.336	18.541	1164.458	877.840
264.351	18.596	1163.969	877.673
265.366	18.717	1163.012	877.492
266.380	18.817	1161.869	877.065
267.395	18.631	1161.205	875.538
268.409	18.555	1160.434	874.487
269.424	18.563	1159.655	873.864
270.439	18.558	1159.747	873.834
271.453	18.610	1158.321	872.945
272.468	18.439	1157.475	871.360
273.482	18.411	1156.538	870.435
274.497	18.511	1156.247	870.647
275.512	18.584	1155.399	870.305
276.526	18.526	1154.340	869.136
277.541	18.543	1153.658	868.631
278.555	18.557	1153.423	868.448
279.570	18.721	1152.792	868.726
280.585	18.782	1152.124	868.453
281.599	18.747	1151.212	867.511
282.614	18.635	1149.939	865.910
283.628	18.538	1148.639	864.368
284.643	18.563	1148.210	864.094
285.657	18.650	1147.233	863.721
286.672	18.674	1146.180	862.972
287.687	18.746	1145.305	862.599
288.701	18.711	1144.891	862.031
289.716	18.750	1143.670	861.231
290.730	18.723	1143.045	860.552
291.745	18.780	1142.288	860.192
292.760	18.796	1141.748	859.787
293.774	18.829	1141.348	859.577
294.789	18.935	1141.158	859.889
295.803	18.863	1140.550	858.990
296.818	18.928	1139.319	858.312
297.833	18.693	1138.664	856.570
298.847	18.760	1138.004	856.336
299.862	18.869	1136.872	855.947
300.876	18.787	1136.491	855.179
301.891	18.906	1135.403	854.878
302.906	18.976	1135.066	854.893
303.920	19.010	1134.709	854.719
304.935	19.056	1134.127	854.434
305.949	19.188	1133.485	854.527
306.964	19.226	1132.571	853.953
307.979	19.019	1131.864	852.321
308.993	19.141	1130.837	852.071
310.008	19.265	1130.053	852.022
311.022	19.166	1129.573	851.094
312.037	19.213	1128.489	850.435
313.052	19.158	1127.551	849.381
314.066	18.882	1126.589	847.219
315.081	18.828	1125.421	846.001
316.095	18.952	1124.669	845.973
317.110	18.935	1124.217	845.474
318.125	18.979	1123.502	845.076
319.139	18.956	1122.653	844.249
320.154	18.941	1122.082	843.670
321.168	18.914	1121.443	842.985
322.183	18.970	1120.877	842.757
323.197	18.978	1120.214	842.225
324.212	19.063	1119.506	842.033
325.227	19.132	1119.352	842.184
326.241	19.048	1118.418	840.994
327.256	19.181	1117.581	840.941
328.270	19.086	1116.361	839.485
329.285	18.863	1115.992	838.044
330.300	18.974	1115.058	837.809
331.314	18.969	1114.066	836.964
332.329	19.101	1113.012	836.743
333.343	19.108	1112.071	835.992
334.358	19.231	1111.064	835.758
335.373	19.279	1110.868	835.773
336.387	19.333	1109.940	835.261
337.402	19.312	1109.012	834.389
338.416	19.312	1108.901	834.231
339.431	19.277	1107.971	833.285
340.446	19.605	1106.790	833.909
341.460	19.703	1106.525	834.109
342.475	19.624	1105.950	833.219
343.489	19.591	1104.893	832.190
344.504	19.877	1103.662	832.565
345.519	19.607	1103.419	831.010
346.533	19.827	1102.164	831.047
347.548	19.836	1101.779	830.728
348.562	19.723	1101.019	829.542
349.577	19.616	1100.194	828.330
350.592	19.538	1098.961	826.956
351.606	19.463	1098.319	826.039
352.621	19.444	1097.666	825.387
353.635	19.356	1097.109	824.474
354.650	19.529	1096.099	824.466
355.665	19.425	1095.787	823.664
356.679	19.491	1095.061	823.359
357.694	19.676	1094.537	823.776
358.708	19.794	1093.200	823.256
359.723	19.582	1093.283	822.237
360.738	19.693	1091.939	821.683
361.752	19.675	1092.010	821.578
362.767	19.713	1091.392	821.222
363.781	19.794	1090.745	821.048
364.796	19.843	1090.338	820.899
365.810	19.854	1089.880	820.532
366.825	19.928	1089.194	820.296
367.840	20.007	1088.952	820.414
368.854	20.123	1088.338	820.427
369.869	20.253	1086.857	819.852
370.883	20.053	1086.365	818.463
371.898	19.936	1085.770	817.391
372.913	19.888	1085.545	816.925
373.927	20.082	1084.368	816.883
374.942	20.148	1084.242	817.023
375.956	20.061	1083.742	816.165
376.971	19.955	1083.284	815.249
377.986	19.958	1082.787	814.815
379.000	20.255	1081.744	815.356
380.015	20.222	1081.345	814.830
381.029	20.246	1080.597	814.304
382.044	20.327	1079.650	813.901
383.059	20.355	1079.255	813.662
384.073	20.327	1078.038	812.540
385.088	20.222	1077.600	811.645
386.102	20.295	1076.524	811.105
387.117	20.225	1075.327	809.808
388.132	20.064	1074.551	808.398
389.146	20.094	1073.714	807.836
390.161	20.132	1073.097	807.479
391.175	20.176	1072.402	807.088
392.190	20.226	1071.830	806.822
393.205	20.274	1071.104	806.426
394.219	20.211	1070.505	805.610
395.234	20.256	1069.507	804.997
396.248	20.158	1067.968	803.314
397.263	20.217	1067.238	802.967
398.278	20.094	1066.845	802.029
399.292	20.124	1065.691	801.230
400.307	19.920	1064.997	799.694
401.321	20.179	1064.107	800.150
402.336	20.036	1063.800	799.191
403.350	20.046	1062.814	798.426
404.365	20.121	1062.215	798.247
405.380	20.249	1061.811	798.463
406.394	20.272	1060.899	797.815
407.409	20.243	1060.299	797.160
408.423	20.481	1059.561	797.625
409.438	20.528	1058.974	797.327
410.453	20.513	1058.660	796.954
411.467	20.583	1058.024	796.724
412.482	20.592	1057.281	796.135
413.496	20.779	1056.353	796.221
414.511	20.694	1055.316	794.982
415.526	20.708	1055.502	795.117
416.540	20.845	1054.977	795.275
417.555	20.914	1054.014	794.795
418.569	20.684	1053.776	793.494
419.584	20.770	1053.372	793.514
420.599	20.695	1052.955	792.787
421.613	155.618	1403.581	1797.745
422.628	142.822	1454.637	1797.817
