DTS Sentinel unit serial number:	SN413079Multiplexer serial number:	ORYXHardware model number:	OX4-SRSoftware version number:	ORYX F/W v4.00 Oryx Data Collector v3.7.2.0data status	okinstallation	princeton_trtdifferential loss correction	single-endedforward channel	channel 2reverse channel	N/Adate	2019/09/14time	15:51:35forward acquisition time	60.00reverse acquisition time	0.00gamma	496.2192k internal	0.2304k external	0.2304temperature offset calibration	1.0140default loss term (dB/km)	0.3790temperature slope calibration	1.0000multiplexer offset coefficient	1.0000multiplexer slope coefficient	1.0000fibre end	0.00T internal ref (°C)	38.70T ext. ref 1 (°C)	5.13T ext. ref 2 (°C)	33.62length (m)	temperature (°C)	Stokes	anti-Stokes-747.200	-200.000	0.010	-0.146
-746.185	191.347	0.235	0.360
-745.171	800.000	0.069	-0.277
-744.156	397.489	0.113	0.241
-743.142	-33.205	0.220	0.124
-742.127	73.003	0.296	0.315
-741.112	682.499	-0.070	-0.185
-740.098	-200.000	0.047	0.273
-739.083	62.452	-0.258	-0.263
-738.069	-63.630	0.137	-0.057
-737.054	-171.599	0.149	0.005
-736.039	-198.964	-0.268	-0.001
-735.025	-21.518	0.227	0.141
-734.010	-155.550	-0.195	-0.013
-732.996	-40.982	-0.315	0.166
-731.981	-200.000	-0.014	0.429
-730.966	-200.000	0.004	0.225
-729.952	-9.195	0.123	-0.084
-728.937	-200.000	0.002	-0.301
-727.923	35.368	-0.291	0.260
-726.908	560.392	-0.063	0.155
-725.894	-153.511	-0.206	0.015
-724.879	137.596	-0.091	-0.121
-723.864	-18.599	-0.066	0.042
-722.850	-200.000	0.004	0.336
-721.835	583.950	-0.069	0.172
-720.821	-16.944	-0.288	0.185
-719.806	59.285	0.086	-0.087
-718.791	-200.000	-0.042	-0.331
-717.777	218.125	0.104	0.169
-716.762	800.000	-0.024	0.069
-715.748	214.885	0.073	0.118
-714.733	-200.000	0.002	0.102
-713.718	-200.000	-0.036	0.355
-712.704	32.716	-0.089	0.078
-711.689	-5.297	-0.285	0.199
-710.675	-121.346	-0.087	0.015
-709.660	-146.926	0.314	-0.027
-708.645	-64.035	-0.392	-0.163
-707.631	-57.897	0.237	-0.105
-706.616	252.569	0.114	0.198
-705.602	-3.503	-0.146	0.104
-704.587	206.682	0.039	-0.061
-703.572	-200.000	-0.054	-0.497
-702.558	-67.313	-0.147	-0.059
-701.543	-200.000	0.004	-0.073
-700.529	187.280	0.090	0.136
-699.514	581.762	0.068	0.170
-698.499	-103.512	-0.159	0.038
-697.485	63.201	-0.105	0.107
-696.470	-90.339	0.241	0.071
-695.456	466.971	-0.058	-0.132
-694.441	-91.812	0.123	-0.035
-693.426	-1.281	0.326	0.234
-692.412	76.394	-0.223	0.240
-691.397	-101.473	0.068	-0.017
-690.383	86.083	0.088	0.098
-689.368	42.083	0.164	-0.151
-688.354	304.117	0.285	-0.538
-687.339	81.769	0.309	0.340
-686.324	-22.783	0.221	-0.135
-685.310	-155.392	0.273	0.018
-684.295	24.337	-0.286	-0.240
-683.281	-140.473	0.132	0.014
-682.266	-73.380	-0.181	-0.067
-681.251	11.582	-0.082	-0.064
-680.237	-127.228	0.168	-0.025
-679.222	-33.151	0.150	-0.084
-678.208	-34.384	-0.128	-0.071
-677.193	-122.423	-0.311	0.051
-676.178	217.704	-0.091	-0.147
-675.164	-30.686	0.148	0.085
-674.149	-84.270	0.329	0.106
-673.135	104.093	-0.022	-0.027
-672.120	205.925	-0.131	-0.206
-671.105	471.952	0.039	0.090
-670.091	800.000	-0.060	-0.172
-669.076	800.000	0.107	0.316
-668.062	352.444	0.090	-0.182
-667.047	800.000	0.038	-0.155
-666.032	-13.792	0.150	0.099
-665.018	92.477	-0.209	0.239
-664.003	407.358	0.085	-0.183
-662.989	-74.067	-0.323	-0.119
-661.974	61.797	-0.136	0.137
-660.959	800.000	0.043	0.135
-659.945	-69.496	-0.036	-0.014
-658.930	-200.000	0.001	-0.217
-657.916	682.821	0.109	0.289
-656.901	800.000	-0.064	0.206
-655.886	261.342	-0.049	-0.086
-654.872	-65.791	0.152	-0.062
-653.857	-197.320	-0.182	0.001
-652.843	260.454	0.074	0.129
-651.828	152.291	-0.152	0.210
-650.814	25.842	-0.203	0.172
-649.799	-19.351	0.140	-0.088
-648.784	-3.149	-0.043	0.030
-647.770	-200.000	-0.028	-0.144
-646.755	-200.000	0.050	-0.345
-645.741	-43.586	-0.109	-0.056
-644.726	14.431	0.093	0.074
-643.711	-200.000	0.014	0.177
-642.697	137.589	-0.098	-0.131
-641.682	15.692	-0.208	-0.166
-640.668	-110.383	-0.083	0.017
-639.653	640.935	-0.150	-0.387
-638.638	358.176	-0.135	-0.274
-637.624	-31.929	-0.031	0.018
-636.609	182.942	0.108	-0.161
-635.595	-168.106	-0.124	0.005
-634.580	-80.239	0.287	0.097
-633.565	-43.321	0.248	-0.127
-632.551	800.000	0.042	-0.151
-631.536	800.000	-0.129	0.440
-630.522	140.311	0.083	0.110
-629.507	-22.982	-0.379	0.231
-628.492	11.423	-0.319	-0.248
-627.478	-141.334	-0.307	0.032
-626.463	-16.311	0.379	-0.244
-625.449	-53.891	0.169	0.078
-624.434	-200.000	-0.067	0.408
-623.419	-200.000	-0.004	0.164
-622.405	499.608	-0.118	0.275
-621.390	-104.677	0.254	-0.059
-620.376	219.965	-0.011	-0.018
-619.361	434.422	0.046	0.102
-618.346	254.266	-0.109	-0.189
-617.332	393.943	0.153	-0.323
-616.317	281.208	0.013	-0.023
-615.303	-113.269	0.046	-0.009
-614.288	-200.000	-0.018	0.137
-613.273	-43.651	-0.254	0.130
-612.259	85.419	0.160	-0.178
-611.244	20.374	0.313	-0.256
-610.230	8.689	-0.089	-0.068
-609.215	8.766	0.331	0.253
-608.201	27.834	-0.093	0.079
-607.186	-7.735	0.166	-0.114
-606.171	-9.387	0.063	-0.042
-605.157	-200.000	-0.031	-0.375
-604.142	-200.000	-0.024	-0.116
-603.128	-23.708	-0.128	-0.078
-602.113	800.000	0.082	-0.236
-601.098	422.825	0.084	-0.182
-600.084	-200.000	-0.036	0.346
-599.069	-42.103	0.070	0.036
-598.055	-82.725	0.305	-0.100
-597.040	-141.166	0.093	0.010
-596.025	342.300	-0.022	-0.043
-595.011	609.871	0.040	0.101
-593.996	800.000	0.117	0.457
-592.982	15.805	-0.220	0.175
-591.967	-129.150	0.221	-0.031
-590.952	-200.000	-0.053	-0.260
-589.938	-200.000	-0.010	0.340
-588.923	68.327	-0.120	0.125
-587.909	-148.628	-0.250	0.021
-586.894	-16.730	0.209	0.134
-585.879	-200.000	-0.002	0.011
-584.865	-19.411	-0.183	0.115
-583.850	-200.000	-0.004	0.125
-582.836	-200.000	-0.018	-0.295
-581.821	-79.777	-0.246	0.084
-580.806	-54.302	0.373	-0.171
-579.792	-26.488	0.186	-0.110
-578.777	-29.056	0.263	-0.153
-577.763	-18.720	-0.125	0.079
-576.748	800.000	0.036	-0.135
-575.733	9.479	0.026	-0.020
-574.719	-29.483	0.113	-0.065
-573.704	-200.000	0.092	-0.663
-572.690	-154.539	-0.191	-0.013
-571.675	-38.165	-0.246	-0.132
-570.661	-165.444	-0.268	0.012
-569.646	272.559	-0.151	0.270
-568.631	-200.000	0.007	-0.148
-567.617	-140.816	0.323	0.034
-566.602	-158.978	0.245	0.014
-565.588	101.955	0.123	-0.145
-564.573	72.875	-0.034	0.036
-563.558	-9.615	0.322	-0.217
-562.544	377.235	0.028	-0.058
-561.529	-58.270	-0.192	-0.085
-560.515	-200.000	0.030	-0.331
-559.500	108.041	-0.050	0.060
-558.485	679.873	-0.117	0.307
-557.471	800.000	0.074	0.250
-556.456	69.614	-0.249	-0.259
-555.442	221.780	-0.145	-0.235
-554.427	-87.296	0.064	-0.020
-553.412	316.605	0.065	-0.124
-552.398	-200.000	0.038	-0.347
-551.383	-200.000	-0.020	-0.469
-550.369	502.330	-0.068	-0.158
-549.354	45.925	0.202	-0.189
-548.339	-66.771	-0.142	0.057
-547.325	-142.303	0.193	-0.019
-546.310	-50.098	-0.251	-0.120
-545.296	184.503	0.139	0.208
-544.281	800.000	-0.100	-0.369
-543.266	412.573	-0.056	0.120
-542.252	-200.000	0.009	0.419
-541.237	576.552	0.086	0.213
-540.223	800.000	0.071	0.209
-539.208	-94.411	0.252	-0.070
-538.193	565.079	0.120	0.293
-537.179	-79.415	0.089	0.030
-536.164	-86.531	0.106	0.033
-535.150	-48.944	0.188	-0.091
-534.135	800.000	0.106	-0.385
-533.121	-101.465	0.195	0.048
-532.106	261.678	-0.057	-0.100
-531.091	33.257	0.347	-0.304
-530.077	789.118	0.027	-0.075
-529.062	51.069	-0.170	0.163
-528.048	-200.000	-0.107	0.621
-527.033	-29.652	-0.135	-0.078
-526.018	13.341	0.397	0.311
-525.004	-109.996	0.505	0.107
-523.989	-124.714	0.158	0.025
-522.975	73.096	0.305	0.321
-521.960	800.000	0.075	-0.298
-520.945	-200.000	0.022	-0.264
-519.931	-40.219	-0.203	-0.106
-518.916	122.722	-0.036	0.046
-517.902	-200.000	-0.011	-0.116
-516.887	-200.000	-0.001	0.035
-515.872	459.708	0.107	0.241
-514.858	85.684	0.159	-0.176
-513.843	541.683	0.145	-0.349
-512.829	-143.626	-0.187	0.018
-511.814	800.000	0.070	0.258
-510.799	-200.000	-0.001	-0.176
-509.785	800.000	0.088	0.282
-508.770	398.978	0.090	0.189
-507.756	748.067	-0.078	-0.211
-506.741	-200.000	-0.026	0.151
-505.726	365.354	-0.004	-0.009
-504.712	522.149	-0.116	0.275
-503.697	-18.289	-0.278	-0.175
-502.683	13.511	-0.143	-0.112
-501.668	-129.381	-0.297	-0.042
-500.653	96.663	-0.056	-0.064
-499.639	-200.000	0.013	0.457
-498.624	388.169	-0.121	-0.252
-497.610	-200.000	0.006	-0.173
-496.595	-92.542	-0.317	-0.090
-495.581	-121.305	-0.315	0.053
-494.566	82.166	0.070	0.077
-493.551	-169.432	-0.192	0.007
-492.537	-23.143	-0.146	0.088
-491.522	151.720	0.029	0.040
-490.508	529.035	0.049	-0.117
-489.493	800.000	0.062	-0.243
-488.478	554.401	0.160	-0.387
-487.464	-200.000	0.022	-0.410
-486.449	18.929	-0.047	0.038
-485.435	425.675	0.150	0.326
-484.420	75.804	-0.150	0.160
-483.405	-200.000	0.009	0.107
-482.391	1.786	0.127	-0.092
-481.376	-200.000	0.022	-0.167
-480.362	203.831	-0.151	0.235
-479.347	-8.140	0.019	-0.013
-478.332	-38.033	-0.195	-0.105
-477.318	47.009	0.174	0.163
-476.303	-200.000	-0.053	0.383
-475.289	-75.706	-0.258	-0.092
-474.274	163.037	-0.074	-0.105
-473.259	93.109	0.134	-0.152
-472.245	64.541	-0.329	-0.334
-471.230	-200.000	0.021	0.208
-470.216	51.047	0.274	-0.261
-469.201	351.549	0.024	0.048
-468.186	800.000	-0.053	0.185
-467.172	54.962	0.103	0.100
-466.157	-200.000	-0.022	-0.496
-465.143	37.877	-0.045	-0.040
-464.128	75.663	-0.077	-0.082
-463.113	268.607	0.094	0.166
-462.099	-84.694	-0.157	-0.050
-461.084	-138.213	0.214	0.024
-460.070	361.910	-0.039	0.078
-459.055	-200.000	-0.091	-0.465
-458.040	318.584	-0.148	-0.283
-457.026	-200.000	-0.015	0.079
-456.011	-157.683	-0.086	0.005
-454.997	-162.378	-0.264	0.013
-453.982	1.199	-0.053	0.038
-452.968	-5.621	-0.135	-0.093
-451.953	150.592	0.319	-0.436
-450.938	-143.849	0.051	0.005
-449.924	-200.000	0.018	0.131
-448.909	800.000	-0.073	-0.207
-447.895	-35.351	0.451	0.247
-446.880	-200.000	-0.010	0.066
-445.865	454.480	-0.042	-0.094
-444.851	129.927	0.175	0.225
-443.836	-200.000	-0.006	-0.187
-442.822	-159.729	-0.077	0.004
-441.807	-84.011	0.227	0.073
-440.792	70.162	0.177	-0.184
-439.778	533.985	0.187	0.447
-438.763	-32.721	-0.072	-0.041
-437.749	534.200	-0.048	-0.115
-436.734	427.073	0.199	-0.431
-435.719	-200.000	0.030	0.155
-434.705	-69.020	0.505	0.196
-433.690	-200.000	-0.011	-0.179
-432.676	148.399	0.215	0.291
-431.661	-158.762	0.051	0.003
-430.646	-108.195	-0.343	0.075
-429.632	-70.934	-0.160	-0.061
-428.617	-200.000	-0.018	0.152
-427.603	-200.000	-0.021	0.121
-426.588	-75.611	-0.145	-0.052
-425.573	-157.837	0.085	-0.005
-424.559	504.111	0.051	-0.118
-423.544	-34.885	-0.326	0.179
-422.530	485.359	-0.118	-0.269
-421.515	39.549	0.183	-0.165
-420.500	342.701	0.055	0.108
-419.486	-200.000	0.005	0.229
-418.471	173.958	-0.090	0.130
-417.457	286.118	-0.062	0.112
-416.442	800.000	-0.080	0.267
-415.428	12.753	0.127	-0.098
-414.413	143.864	0.031	0.041
-413.398	-200.000	0.038	0.215
-412.384	14.997	0.156	0.123
-411.369	-200.000	0.041	0.183
-410.355	-59.324	0.184	0.080
-409.340	451.873	0.094	0.209
-408.325	800.000	0.052	0.155
-407.311	448.561	0.076	0.167
-406.296	-200.000	0.043	0.243
-405.282	800.000	-0.013	0.055
-404.267	-106.761	0.057	0.013
-403.252	72.373	-0.114	-0.119
-402.238	21.829	0.099	0.081
-401.223	-10.848	-0.182	-0.121
-400.209	-200.000	-0.029	-0.168
-399.194	425.670	0.191	-0.414
-398.179	-200.000	0.018	-0.144
-397.165	356.998	-0.073	-0.146
-396.150	653.793	-0.036	-0.092
-395.136	800.000	0.054	0.174
-394.121	-115.188	-0.199	0.038
-393.106	461.295	0.166	-0.373
-392.092	785.055	0.099	0.274
-391.077	47.812	-0.192	-0.180
-390.063	326.231	-0.154	0.295
-389.048	-12.476	-0.156	-0.102
-388.033	-44.474	-0.168	-0.084
-387.019	-102.852	0.095	-0.023
-386.004	43.284	-0.118	0.108
-384.990	46.758	-0.206	-0.192
-383.975	-181.143	-0.029	0.001
-382.960	234.632	0.153	0.253
-381.946	-67.090	0.233	0.092
-380.931	-200.000	0.001	-0.175
-379.917	39.839	-0.141	-0.127
-378.902	47.781	0.221	0.207
-377.888	545.108	0.115	0.276
-376.873	-200.000	-0.012	-0.237
-375.858	-179.721	-0.040	0.001
-374.844	646.319	-0.073	-0.188
-373.829	-200.000	0.016	0.147
-372.815	800.000	0.042	0.180
-371.800	359.588	0.140	-0.280
-370.785	97.759	-0.167	-0.193
-369.771	43.634	0.134	0.123
-368.756	-27.333	0.153	-0.089
-367.742	-200.000	0.029	-0.236
-366.727	-46.028	-0.335	0.166
-365.712	-75.648	0.223	-0.079
-364.698	-118.070	0.132	-0.024
-363.683	91.872	-0.148	0.168
-362.669	-39.981	-0.284	0.149
-361.654	-70.600	0.110	-0.042
-360.639	-200.000	0.007	-0.143
-359.625	24.151	-0.198	0.164
-358.610	-183.187	-0.092	0.002
-357.596	-200.000	0.015	0.161
-356.581	-54.798	-0.402	-0.182
-355.566	119.793	-0.127	0.158
-354.552	-200.000	-0.019	0.484
-353.537	239.310	-0.131	-0.218
-352.523	800.000	-0.193	0.556
-351.508	-94.673	-0.224	0.061
-350.493	277.113	-0.085	0.152
-349.479	-19.844	0.149	-0.092
-348.464	-56.061	0.257	0.115
-347.450	9.213	0.111	0.084
-346.435	-157.429	0.184	-0.011
-345.420	192.120	0.051	0.077
-344.406	541.719	0.071	-0.170
-343.391	-200.000	-0.031	-0.287
-342.377	64.757	0.185	0.187
-341.362	-46.803	0.238	0.117
-340.348	-121.740	-0.291	-0.048
-339.333	-200.000	-0.015	-0.110
-338.318	-59.381	-0.153	0.066
-337.304	392.679	0.099	0.207
-336.289	254.469	-0.129	-0.220
-335.275	-200.000	-0.007	0.211
-334.260	-155.610	-0.357	0.023
-333.245	123.957	0.068	0.085
-332.231	-110.711	-0.181	0.037
-331.216	-87.136	-0.099	0.030
-330.202	-79.730	-0.168	0.057
-329.187	-200.000	0.008	-0.206
-328.172	-91.524	-0.273	0.078
-327.158	-41.539	0.147	0.076
-326.143	1.868	0.179	0.130
-325.129	-42.098	0.146	-0.075
-324.114	800.000	0.066	-0.263
-323.099	340.557	0.117	-0.229
-322.085	-3.492	-0.383	0.267
-321.070	519.454	0.087	0.204
-320.056	-200.000	-0.020	-0.179
-319.041	-200.000	-0.010	-0.147
-318.026	279.097	0.100	0.179
-317.012	-66.613	-0.111	-0.044
-315.997	-133.268	-0.198	-0.025
-314.983	-78.864	0.257	-0.088
-313.968	237.587	-0.166	0.275
-312.953	800.000	0.044	-0.124
-311.939	139.901	0.124	0.163
-310.924	-81.539	-0.322	0.106
-309.910	75.017	0.193	0.203
-308.895	45.711	0.229	-0.212
-307.880	152.985	-0.166	-0.227
-306.866	-30.808	-0.165	0.093
-305.851	-120.300	0.149	0.025
-304.837	-33.881	-0.396	-0.218
-303.822	-200.000	0.045	0.259
-302.807	212.475	0.222	0.351
-301.793	48.953	0.144	0.136
-300.778	83.931	0.073	-0.079
-299.764	-13.642	0.173	-0.112
-298.749	-123.629	-0.229	0.036
-297.735	-156.359	0.121	-0.008
-296.720	-100.694	0.073	0.018
-295.705	169.224	-0.034	-0.048
-294.691	171.121	0.064	0.093
-293.676	-41.053	0.262	-0.135
-292.662	110.307	0.162	-0.195
-291.647	-12.223	-0.063	-0.042
-290.632	-200.000	0.008	-0.344
-289.618	-200.000	-0.032	0.231
-288.603	37.252	0.238	-0.210
-287.589	-93.654	0.163	0.045
-286.574	-107.684	-0.139	0.030
-285.559	3.751	-0.275	0.200
-284.545	800.000	-0.041	-0.140
-283.530	800.000	-0.044	-0.163
-282.516	-131.067	-0.064	0.009
-281.501	-42.442	0.172	0.088
-280.486	194.067	-0.163	-0.248
-279.472	-137.438	0.198	-0.022
-278.457	-76.547	-0.269	0.095
-277.443	-137.645	-0.207	-0.023
-276.428	800.000	-0.114	-0.442
-275.413	433.602	-0.085	0.183
-274.399	-37.027	-0.191	-0.102
-273.384	33.296	0.171	-0.148
-272.370	-146.825	0.175	0.015
-271.355	-10.614	-0.162	0.107
-270.340	29.845	-0.123	-0.104
-269.326	-176.190	0.170	0.004
-268.311	100.691	-0.088	-0.102
-267.297	-87.661	0.133	0.040
-266.282	-44.704	0.073	0.037
-265.267	8.110	0.091	-0.068
-264.253	-158.637	-0.149	0.009
-263.238	-138.559	0.407	-0.045
-262.224	-157.516	0.022	0.001
-261.209	-200.000	-0.031	0.264
-260.195	282.793	-0.096	-0.172
-259.180	472.317	-0.186	0.417
-258.165	98.774	-0.042	0.048
-257.151	38.674	-0.045	-0.040
-256.136	204.042	-0.050	-0.078
-255.122	351.944	-0.096	0.190
-254.107	-200.000	-0.060	0.285
-253.092	-131.674	0.040	-0.005
-252.078	-40.298	-0.361	0.187
-251.063	234.630	-0.007	0.012
-250.049	-110.883	0.355	0.073
-249.034	-37.546	0.345	-0.184
-248.019	-4.783	-0.344	0.237
-247.005	332.935	-0.195	-0.376
-245.990	-58.147	0.208	0.091
-244.976	-38.296	-0.208	0.110
-243.961	-200.000	0.010	0.063
-242.946	-72.643	-0.223	-0.082
-241.932	-93.924	-0.183	-0.050
-240.917	800.000	0.066	0.198
-239.903	63.679	-0.315	-0.315
-238.888	-145.263	-0.271	0.024
-237.873	800.000	0.025	-0.089
-236.859	-78.531	-0.396	0.135
-235.844	-200.000	-0.045	0.254
-234.830	-200.000	-0.012	0.259
-233.815	-26.059	-0.518	0.304
-232.800	52.084	0.061	0.058
-231.786	-5.387	-0.128	-0.088
-230.771	664.763	0.098	0.251
-229.757	800.000	-0.121	0.364
-228.742	41.045	0.132	0.119
-227.727	800.000	0.071	-0.213
-226.713	-189.489	-0.307	-0.004
-225.698	-131.425	-0.067	0.009
-224.684	2.592	0.138	0.100
-223.669	-59.726	0.191	-0.081
-222.655	-20.693	-0.088	-0.054
-221.640	800.000	0.054	-0.218
-220.625	-101.991	-0.139	0.034
-219.611	-124.222	0.176	-0.027
-218.596	323.839	0.074	0.140
-217.582	19.602	0.048	0.039
-216.567	-200.000	0.009	0.098
-215.552	-22.555	0.285	0.172
-214.538	800.000	-0.014	0.047
-213.523	-137.770	-0.142	-0.016
-212.509	-24.769	0.159	-0.094
-211.494	-87.666	-0.064	-0.019
-210.479	-119.509	-0.063	0.011
-209.465	52.799	-0.077	0.073
-208.450	14.231	-0.113	-0.088
-207.436	-130.483	0.255	-0.034
-206.421	-103.570	-0.137	-0.032
-205.406	63.786	0.222	-0.222
-204.392	-200.000	0.013	-0.112
-203.377	98.561	-0.112	0.129
-202.363	-38.035	-0.158	-0.083
-201.348	-200.000	0.057	-0.300
-200.333	-76.127	0.069	0.024
-199.319	-200.000	0.009	0.221
-198.304	-68.279	0.057	-0.022
-197.290	-75.261	0.233	-0.083
-196.275	-27.962	0.111	-0.064
-195.260	40.944	0.267	0.240
-194.246	242.362	0.066	-0.109
-193.231	-19.728	0.093	0.057
-192.217	-200.000	0.020	0.200
-191.202	-200.000	-0.009	0.078
-190.187	-73.161	0.223	-0.081
-189.173	292.560	-0.129	-0.234
-188.158	349.294	-0.062	-0.122
-187.144	432.743	-0.121	0.262
-186.129	-79.414	-0.426	-0.144
-185.114	-12.171	0.334	0.218
-184.100	800.000	0.026	-0.083
-183.085	398.686	0.103	0.215
-182.071	-81.773	0.207	-0.068
-181.056	-200.000	-0.009	-0.440
-180.042	-149.501	0.118	-0.009
-179.027	17.556	-0.143	-0.113
-178.012	-38.380	0.227	0.120
-176.998	366.274	-0.201	0.403
-175.983	115.235	-0.151	-0.183
-174.969	-15.115	0.164	-0.105
-173.954	179.480	0.199	0.290
-172.939	-55.829	-0.231	0.103
-171.925	-25.526	-0.046	-0.027
-170.910	166.680	-0.108	-0.153
-169.896	-200.000	0.014	-0.069
-168.881	635.455	0.038	0.095
-167.866	33.276	0.137	-0.118
-166.852	-101.496	0.177	0.043
-165.837	154.155	-0.161	0.219
-164.823	800.000	0.063	0.251
-163.808	0.227	0.056	0.040
-162.793	-200.000	0.027	0.132
-161.779	-75.502	-0.174	-0.062
-160.764	-117.806	0.019	0.003
-159.750	-200.000	-0.047	-0.353
-158.735	538.445	-0.101	0.240
-157.720	-77.109	-0.168	0.058
-156.706	210.464	-0.125	0.196
-155.691	-160.150	-0.060	-0.003
-154.677	-113.761	-0.228	0.044
-153.662	26.991	0.118	-0.099
-152.647	-79.505	0.188	-0.063
-151.633	-36.423	0.143	0.077
-150.618	-144.916	0.255	-0.023
-149.604	795.655	-0.234	-0.642
-148.589	-134.230	-0.505	0.062
-147.574	325.680	0.176	0.334
-146.560	54.047	-0.200	-0.191
-145.545	49.260	-0.249	-0.232
-144.531	420.045	-0.107	-0.229
-143.516	-96.140	0.242	0.064
-142.502	-166.186	0.218	0.009
-141.487	-42.486	-0.326	-0.165
-140.472	-89.466	-0.312	-0.091
-139.458	-44.015	0.197	0.098
-138.443	129.650	0.217	0.276
-137.429	139.702	0.149	-0.196
-136.414	-56.498	-0.207	-0.091
-135.399	-77.784	-0.247	0.085
-134.385	-64.499	0.108	-0.043
-133.370	-200.000	0.010	-0.113
-132.356	40.142	0.154	-0.138
-131.341	-68.031	0.237	0.092
-130.326	-29.579	-0.370	0.210
-129.312	-68.405	0.253	-0.098
-128.297	-200.000	-0.034	-0.227
-127.283	-83.694	-0.326	-0.103
-126.268	-46.710	-0.243	-0.118
-125.253	-16.511	-0.064	-0.040
-124.239	-19.112	0.223	0.138
-123.224	391.557	-0.047	0.096
-122.210	-200.000	0.026	0.191
-121.195	800.000	-0.091	-0.267
-120.180	56.431	0.216	-0.209
-119.166	-133.153	-0.124	0.016
-118.151	218.532	0.084	0.133
-117.137	-68.425	-0.441	-0.170
-116.122	167.400	-0.158	-0.222
-115.107	-69.545	0.318	-0.121
-114.093	107.656	-0.245	-0.289
-113.078	12.646	0.184	0.141
-112.064	-108.884	0.247	0.052
-111.049	25.077	-0.040	-0.033
-110.034	-41.934	0.146	-0.074
-109.020	178.521	-0.167	0.243
-108.005	-88.739	0.192	-0.057
-106.991	51.274	-0.335	-0.316
-105.976	-200.000	0.003	-0.191
-104.962	-76.754	0.195	0.068
-103.947	-94.809	0.229	-0.062
-102.932	-200.000	0.040	-0.223
-101.918	55.392	-0.159	0.153
-100.903	250.181	-0.077	0.130
-99.889	-36.924	0.247	0.132
-98.874	-16.205	0.166	0.105
-97.859	-17.513	0.149	-0.093
-96.845	-200.000	0.068	0.000
-95.830	-35.086	-0.134	-0.073
-94.816	290.812	0.055	0.100
-93.801	800.000	-0.057	0.204
-92.786	-91.937	-0.151	-0.042
-91.772	132.327	0.035	0.044
-90.757	134.426	-0.167	-0.215
-89.743	-200.000	-0.031	-0.167
-88.728	797.784	-0.043	0.116
-87.713	464.741	0.054	-0.119
-86.699	17.452	-0.055	0.044
-85.684	463.364	-0.143	0.317
-84.670	281.930	0.080	-0.143
-83.655	529.787	0.112	-0.263
-82.640	52.962	0.184	-0.174
-81.626	-73.841	0.189	0.068
-80.611	22.677	-0.252	-0.205
-79.597	-200.000	-0.003	0.192
-78.582	-27.670	-0.036	-0.021
-77.567	-84.533	-0.293	0.092
-76.553	93.366	-0.026	0.029
-75.538	-200.000	-0.040	0.265
-74.524	-39.651	-0.098	0.051
-73.509	-109.402	0.413	0.087
-72.494	-200.000	-0.019	-0.222
-71.480	-200.000	0.013	-0.377
-70.465	-117.559	-0.342	0.061
-69.451	-200.000	0.033	-0.184
-68.436	-200.000	-0.041	-0.253
-67.422	-120.763	-0.233	-0.039
-66.407	697.540	0.080	-0.209
-65.392	184.640	0.152	0.224
-64.378	-200.000	-0.010	0.140
-63.363	-142.156	0.306	-0.030
-62.349	800.000	0.054	0.220
-61.334	60.747	-0.775	-0.762
-60.319	-89.956	0.297	0.086
-59.305	183.024	0.420	-0.614
-58.290	275.852	0.383	0.674
-57.276	800.000	0.499	1.417
-56.261	-200.000	83.248	500.829
-55.246	558.446	1370.346	3276.283
-54.232	184.569	2598.964	3816.418
-53.217	114.934	2351.486	2842.493
-52.203	47.621	1962.349	1813.788
-51.188	41.883	1748.864	1571.494
-50.173	39.071	1703.809	1509.386
-49.159	53.249	1743.191	1654.585
-48.144	57.548	1761.745	1705.500
-47.130	41.750	1722.556	1546.580
-46.115	38.757	1708.345	1510.739
-45.100	38.631	1703.764	1505.659
-44.086	38.614	1701.082	1503.103
-43.071	38.611	1698.849	1501.043
-42.057	38.488	1696.078	1497.599
-41.042	38.573	1693.719	1496.107
-40.027	38.594	1692.131	1494.805
-39.013	38.579	1689.871	1492.635
-37.998	38.508	1688.584	1490.898
-36.984	38.675	1686.854	1490.581
-35.969	38.634	1685.790	1489.268
-34.954	38.739	1683.521	1488.006
-33.940	38.670	1682.250	1486.300
-32.925	38.715	1680.046	1484.628
-31.911	38.698	1678.517	1483.094
-30.896	38.768	1675.974	1481.319
-29.881	38.742	1674.730	1479.957
-28.867	38.767	1673.092	1478.643
-27.852	38.701	1671.928	1477.058
-26.838	38.672	1670.522	1475.539
-25.823	38.683	1669.145	1474.347
-24.809	38.711	1668.232	1473.692
-23.794	38.754	1666.509	1472.436
-22.779	38.773	1664.517	1470.760
-21.765	38.776	1663.090	1469.460
-20.750	38.649	1661.568	1467.112
-19.736	38.771	1659.926	1466.513
-18.721	38.791	1658.276	1465.145
-17.706	38.705	1657.258	1463.543
-16.692	38.672	1655.806	1461.961
-15.677	38.741	1653.986	1460.807
-14.663	38.741	1653.009	1459.886
-13.648	38.739	1651.093	1458.121
-12.633	38.715	1649.852	1456.789
-11.619	38.641	1648.511	1454.996
-10.604	38.723	1646.895	1454.126
-9.590	38.632	1645.533	1452.188
-8.575	38.708	1643.988	1451.328
-7.560	38.713	1643.235	1450.648
-6.546	38.816	1641.316	1449.658
-5.531	38.836	1640.276	1448.824
-4.517	38.712	1639.141	1446.849
-3.502	38.676	1638.252	1445.746
-2.487	38.781	1636.627	1445.030
-1.473	38.472	1624.554	1432.050
-0.458	35.507	1604.195	1392.582
0.556	32.552	1602.630	1352.912
1.571	29.624	1625.990	1351.139
2.586	28.586	1638.245	1353.545
3.600	24.736	1583.234	1280.473
4.615	14.950	1468.469	1122.216
5.629	6.698	1399.038	1016.121
6.644	5.284	1389.779	1000.259
7.659	5.128	1388.570	998.302
8.673	5.059	1387.442	996.966
9.688	5.050	1386.267	995.975
10.702	5.131	1383.137	994.155
11.717	8.538	1390.523	1021.164
12.731	17.282	1406.754	1089.252
13.746	22.191	1413.025	1125.531
14.761	21.075	1410.374	1116.182
15.775	19.863	1407.229	1105.853
16.790	18.879	1404.420	1097.264
17.804	17.934	1401.900	1089.176
18.819	17.604	1400.536	1085.919
19.834	17.310	1399.780	1083.362
20.848	17.056	1398.039	1080.303
21.863	16.846	1396.996	1078.062
22.877	16.755	1395.563	1076.284
23.892	16.670	1394.806	1075.064
24.907	16.698	1394.067	1074.581
25.921	16.705	1393.114	1073.792
26.936	16.685	1392.320	1072.958
27.950	16.781	1390.843	1072.338
28.965	16.855	1390.354	1072.329
29.980	17.009	1388.794	1072.009
30.994	16.978	1388.232	1071.279
32.009	16.984	1387.011	1070.284
33.023	17.026	1385.351	1069.172
34.038	16.872	1384.350	1067.334
35.053	16.861	1382.878	1066.035
36.067	16.834	1382.082	1065.160
37.082	16.953	1380.552	1064.633
38.096	16.996	1379.939	1064.333
39.111	16.898	1379.627	1063.387
40.126	16.862	1378.142	1061.923
41.140	16.621	1377.221	1059.611
42.155	16.497	1376.971	1058.547
43.169	16.600	1376.353	1058.623
44.184	16.661	1376.082	1058.704
45.199	16.575	1375.653	1057.740
46.213	16.656	1374.931	1057.601
47.228	16.781	1374.172	1057.699
48.242	16.860	1372.873	1057.103
49.257	16.811	1371.391	1055.561
50.271	16.773	1369.967	1054.133
51.286	16.794	1368.967	1053.405
52.301	16.848	1367.114	1052.217
53.315	16.638	1366.312	1050.204
54.330	16.691	1365.198	1049.585
55.344	16.671	1363.691	1048.208
56.359	16.616	1363.096	1047.321
57.374	16.665	1362.017	1046.700
58.388	16.648	1361.070	1045.774
59.403	16.512	1360.730	1044.583
60.417	16.504	1359.556	1043.539
61.432	16.455	1359.277	1042.928
62.447	16.392	1357.978	1041.449
63.461	16.418	1356.844	1040.649
64.476	16.334	1355.835	1039.265
65.490	16.378	1354.338	1038.300
66.505	16.370	1352.865	1037.025
67.520	16.375	1351.833	1036.174
68.534	16.398	1350.692	1035.350
69.549	16.474	1349.624	1034.907
70.563	16.375	1348.446	1033.306
71.578	16.369	1347.587	1032.518
72.593	16.321	1346.251	1031.113
73.607	16.236	1345.647	1030.038
74.622	16.389	1344.260	1029.820
75.636	16.299	1343.899	1028.900
76.651	16.358	1343.228	1028.657
77.666	16.352	1342.734	1028.149
78.680	16.293	1342.367	1027.421
79.695	16.321	1341.886	1027.132
80.709	16.528	1340.790	1027.458
81.724	16.654	1340.008	1027.531
82.739	16.703	1339.364	1027.245
83.753	16.660	1338.684	1026.373
84.768	16.897	1337.036	1026.455
85.782	16.838	1336.497	1025.592
86.797	16.859	1334.860	1024.370
87.812	16.653	1333.782	1022.210
88.826	16.722	1332.422	1021.492
89.841	16.689	1331.995	1020.876
90.855	16.822	1330.692	1020.590
91.870	16.865	1329.749	1020.034
92.884	16.833	1328.938	1019.131
93.899	16.883	1328.116	1018.709
94.914	16.907	1327.431	1018.237
95.928	16.979	1325.523	1017.119
96.943	16.987	1324.885	1016.586
97.957	16.995	1323.620	1015.572
98.972	16.833	1323.150	1014.149
99.987	16.796	1322.364	1013.237
101.001	16.904	1321.195	1012.901
102.016	16.881	1320.279	1011.972
103.030	16.802	1319.693	1010.959
104.045	16.801	1318.541	1009.983
105.060	16.780	1317.320	1008.831
106.074	16.628	1315.722	1006.615
107.089	16.461	1314.225	1004.388
108.103	16.405	1312.956	1002.999
109.118	16.452	1311.521	1002.092
110.133	16.464	1310.250	1001.100
111.147	16.422	1309.141	999.915
112.162	16.463	1307.841	999.079
113.176	16.648	1306.348	998.942
114.191	16.625	1305.670	998.198
115.206	16.665	1304.418	997.390
116.220	16.493	1303.192	995.354
117.235	16.662	1301.919	995.285
118.249	16.585	1301.286	994.260
119.264	16.512	1300.123	992.853
120.279	16.403	1299.290	991.489
121.293	16.488	1297.884	990.831
122.308	16.488	1296.633	989.785
123.322	16.426	1295.692	988.615
124.337	16.429	1294.899	987.941
125.352	16.391	1293.512	986.575
126.366	16.400	1292.963	986.123
127.381	16.384	1291.792	985.048
128.395	16.472	1290.333	984.360
129.410	16.499	1289.549	983.834
130.424	16.593	1288.582	983.557
131.439	16.590	1287.650	982.736
132.454	16.606	1286.908	982.179
133.468	16.603	1286.488	981.753
134.483	16.587	1285.414	980.753
135.497	16.691	1284.436	980.522
136.512	16.735	1283.307	979.832
137.527	16.739	1281.607	978.469
138.541	16.630	1280.273	976.733
139.556	16.687	1279.411	976.321
140.570	16.687	1278.958	975.888
141.585	16.934	1276.619	975.438
142.600	16.966	1275.862	974.957
143.614	16.980	1274.609	973.991
144.629	16.820	1274.390	972.822
145.643	16.880	1273.140	972.123
146.658	16.900	1271.652	971.018
147.673	16.839	1269.879	969.227
148.687	16.701	1269.035	967.710
149.702	16.668	1267.703	966.419
150.716	16.613	1266.701	965.259
151.731	16.673	1265.323	964.465
152.746	16.720	1264.063	963.683
153.760	16.762	1262.926	962.973
154.775	16.836	1261.631	962.318
155.789	16.874	1260.681	961.726
156.804	16.806	1259.828	960.604
157.819	16.870	1258.959	960.218
158.833	17.043	1257.889	960.295
159.848	17.047	1257.055	959.598
160.862	17.029	1255.952	958.571
161.877	16.871	1254.567	956.532
162.892	16.791	1253.223	954.978
163.906	16.799	1252.001	954.003
164.921	16.751	1251.716	953.433
165.935	16.825	1250.435	952.786
166.950	16.770	1250.386	952.359
167.964	16.831	1249.707	952.098
168.979	16.797	1248.759	951.104
169.994	16.884	1247.896	950.849
171.008	16.831	1247.226	949.954
172.023	16.963	1246.220	949.843
173.037	17.136	1245.433	950.128
174.052	17.078	1244.603	949.087
175.067	16.919	1243.726	947.450
176.081	16.809	1242.452	945.779
177.096	16.776	1241.293	944.629
178.110	16.756	1240.673	943.960
179.125	16.864	1239.437	943.539
180.140	16.887	1237.726	942.280
181.154	16.909	1236.734	941.566
182.169	17.052	1235.386	941.248
183.183	17.051	1234.663	940.608
184.198	17.078	1233.297	939.636
185.213	17.173	1231.990	939.081
186.227	17.103	1230.760	937.674
187.242	17.190	1230.012	937.498
188.256	17.288	1229.006	937.193
189.271	17.279	1227.987	936.283
190.286	17.188	1227.072	935.003
191.300	17.011	1225.978	933.113
192.315	16.840	1225.012	931.351
193.329	16.758	1224.970	930.788
194.344	16.847	1223.884	930.367
195.359	16.847	1224.047	930.412
196.373	17.052	1223.109	930.739
197.388	17.027	1222.812	930.297
198.402	17.219	1222.226	930.821
199.417	17.334	1221.446	930.773
200.432	17.361	1220.818	930.358
201.446	17.494	1220.178	930.514
202.461	17.566	1218.760	929.743
203.475	17.545	1217.522	928.604
204.490	17.365	1216.147	926.494
205.504	17.304	1214.933	925.154
206.519	17.331	1213.800	924.358
207.534	17.125	1212.636	922.271
208.548	17.320	1211.979	922.744
209.563	17.379	1210.910	922.172
210.577	17.232	1210.196	920.749
211.592	17.376	1209.602	920.996
212.607	17.476	1208.725	920.789
213.621	17.520	1207.590	920.079
214.636	17.579	1206.257	919.300
215.650	17.504	1205.698	918.388
216.665	17.509	1205.046	917.835
217.680	17.504	1204.136	917.036
218.694	17.643	1203.661	917.340
219.709	17.634	1202.345	916.210
220.723	17.542	1201.766	915.194
221.738	17.627	1200.850	914.869
222.753	17.669	1200.002	914.369
223.767	17.639	1199.318	913.605
224.782	17.677	1198.688	913.247
225.796	17.848	1197.665	913.300
226.811	17.784	1197.171	912.504
227.826	17.743	1196.304	911.544
228.840	17.658	1195.680	910.534
229.855	17.625	1195.034	909.783
230.869	17.598	1194.154	908.890
231.884	17.640	1193.153	908.269
232.899	17.730	1192.219	907.961
233.913	17.562	1191.712	906.598
234.928	17.556	1190.854	905.833
235.942	17.610	1190.051	905.429
236.957	17.643	1189.225	904.894
237.972	17.540	1188.517	903.731
238.986	17.520	1188.200	903.302
240.001	17.537	1187.566	902.829
241.015	17.674	1186.034	902.312
242.030	17.612	1185.647	901.609
243.045	17.802	1184.785	901.876
244.059	17.769	1183.993	901.023
245.074	17.733	1182.945	899.957
246.088	17.831	1182.400	899.975
247.103	17.888	1181.634	899.614
248.117	17.985	1181.089	899.633
249.132	17.975	1180.381	898.959
250.147	18.193	1179.732	899.531
251.161	18.188	1179.032	898.895
252.176	18.176	1178.608	898.427
253.190	18.209	1177.919	897.995
254.205	18.365	1177.012	898.044
255.220	18.410	1176.181	897.567
256.234	18.335	1176.194	897.104
257.249	18.505	1174.896	896.923
258.263	18.306	1174.429	895.447
259.278	18.430	1173.814	895.548
260.293	18.358	1173.495	894.850
261.307	18.461	1172.737	894.730
262.322	18.559	1171.858	894.490
263.336	18.420	1171.501	893.412
264.351	18.448	1170.999	893.096
265.366	18.429	1170.249	892.345
266.380	18.461	1169.195	891.631
267.395	18.517	1168.360	891.204
268.409	18.377	1167.736	889.924
269.424	18.391	1167.075	889.416
270.439	18.277	1166.895	888.606
271.453	18.341	1165.655	887.913
272.468	18.296	1164.601	886.799
273.482	18.290	1164.015	886.247
274.497	18.394	1163.410	886.241
275.512	18.396	1162.886	885.778
276.526	18.403	1161.755	884.872
277.541	18.497	1161.071	884.760
278.555	18.465	1160.603	884.158
279.570	18.584	1159.738	884.035
280.585	18.635	1158.986	883.647
281.599	18.623	1158.180	882.893
282.614	18.526	1157.019	881.430
283.628	18.476	1155.844	880.201
284.643	18.505	1155.383	879.918
285.657	18.525	1154.100	878.969
286.672	18.570	1153.103	878.362
287.687	18.684	1152.103	878.106
288.701	18.550	1151.686	877.025
289.716	18.630	1150.950	876.793
290.730	18.584	1149.885	875.673
291.745	18.677	1149.235	875.571
292.760	18.730	1148.246	875.015
293.774	18.803	1148.144	875.229
294.789	18.906	1147.549	875.225
295.803	18.866	1147.046	874.559
296.818	18.732	1146.059	873.045
297.833	18.588	1145.563	871.862
298.847	18.787	1144.457	871.954
299.862	18.771	1143.662	871.186
300.876	18.749	1143.209	870.656
301.891	18.903	1142.476	870.796
302.906	18.864	1142.006	870.167
303.920	18.942	1141.104	869.794
304.935	19.001	1140.697	869.708
305.949	19.049	1139.961	869.310
306.964	19.174	1138.890	869.047
307.979	18.931	1138.116	867.154
308.993	18.895	1137.494	866.425
310.008	19.040	1136.775	866.531
311.022	19.043	1135.801	865.725
312.037	19.050	1135.472	865.432
313.052	19.011	1134.315	864.280
314.066	18.839	1133.124	862.431
315.081	18.794	1132.249	861.467
316.095	18.820	1131.775	861.157
317.110	18.844	1130.764	860.433
318.125	18.799	1130.328	859.801
319.139	18.719	1129.893	858.991
320.154	18.948	1128.492	858.993
321.168	18.889	1127.922	858.188
322.183	18.845	1127.693	857.723
323.197	18.826	1127.077	857.080
324.212	18.979	1125.993	856.943
325.227	19.053	1125.728	857.034
326.241	18.985	1124.973	856.047
327.256	18.904	1124.391	855.126
328.270	18.914	1123.025	854.059
329.285	19.026	1121.776	853.589
330.300	18.949	1121.160	852.662
331.314	18.955	1120.208	851.892
332.329	18.924	1119.690	851.269
333.343	19.094	1118.573	851.188
334.358	19.069	1118.019	850.566
335.373	19.136	1117.254	850.238
336.387	19.158	1116.327	849.566
337.402	19.287	1115.754	849.691
338.416	19.160	1115.236	848.599
339.431	19.400	1114.383	849.057
340.446	19.283	1113.964	848.084
341.460	19.437	1113.399	848.338
342.475	19.467	1112.380	847.633
343.489	19.499	1111.731	847.223
344.504	19.651	1110.564	847.000
345.519	19.542	1109.942	845.916
346.533	19.555	1108.935	845.140
347.548	19.629	1107.924	844.658
348.562	19.614	1107.130	843.902
349.577	19.524	1106.470	842.884
350.592	19.381	1105.716	841.541
351.606	19.404	1104.943	840.987
352.621	19.337	1104.204	840.024
353.635	19.343	1103.551	839.481
354.650	19.490	1102.571	839.380
355.665	19.427	1101.986	838.553
356.679	19.482	1101.323	838.242
357.694	19.562	1100.863	838.204
358.708	19.582	1100.394	837.873
359.723	19.601	1099.577	837.265
360.738	19.509	1098.956	836.274
361.752	19.671	1098.168	836.385
362.767	19.568	1097.847	835.570
363.781	19.582	1097.148	835.031
364.796	19.746	1096.705	835.413
365.810	19.748	1096.329	835.061
366.825	19.825	1095.871	835.008
367.840	20.007	1094.911	835.081
368.854	19.939	1094.666	834.494
369.869	19.949	1093.972	833.939
370.883	19.907	1092.772	832.749
371.898	19.821	1091.986	831.663
372.913	19.869	1091.339	831.327
373.927	19.788	1091.234	830.784
374.942	19.998	1090.531	831.184
375.956	19.938	1089.888	830.333
376.971	19.895	1089.250	829.565
377.986	19.919	1088.660	829.159
379.000	20.063	1088.224	829.443
380.015	20.143	1087.572	829.254
381.029	20.138	1086.851	828.608
382.044	20.115	1086.226	827.949
383.059	20.172	1085.274	827.422
384.073	20.115	1084.386	826.398
385.088	20.071	1083.961	825.794
386.102	20.218	1082.634	825.406
387.117	20.053	1081.843	823.945
388.132	19.962	1080.781	822.634
389.146	19.976	1080.129	822.132
390.161	19.976	1079.677	821.713
391.175	20.005	1078.332	820.754
392.190	20.080	1077.728	820.575
393.205	20.209	1077.135	820.665
394.219	20.184	1076.265	819.812
395.234	20.098	1075.288	818.587
396.248	20.058	1074.680	817.861
397.263	20.080	1073.541	817.027
398.278	19.986	1072.660	815.843
399.292	19.921	1072.135	815.065
400.307	20.064	1071.223	814.973
401.321	20.090	1070.694	814.619
402.336	19.945	1069.812	813.193
403.350	20.071	1069.122	813.191
404.365	20.054	1068.505	812.568
405.380	20.089	1068.029	812.298
406.394	20.246	1067.328	812.429
407.409	20.211	1066.389	811.480
408.423	20.322	1065.721	811.417
409.438	20.470	1065.192	811.635
410.453	20.469	1064.497	811.027
411.467	20.487	1063.614	810.368
412.482	20.616	1062.911	810.361
413.496	20.638	1062.462	810.050
414.511	20.618	1061.934	809.485
415.526	20.736	1061.510	809.636
416.540	20.659	1061.247	809.006
417.555	20.793	1060.159	808.726
418.569	20.697	1059.828	807.958
419.584	20.659	1059.340	807.338
420.599	20.630	1058.993	806.867
421.613	146.922	1397.310	1768.903
422.628	134.996	1446.619	1769.035
