DTS Sentinel unit serial number:	SN413079Multiplexer serial number:	ORYXHardware model number:	OX4-SRSoftware version number:	ORYX F/W v4.00 Oryx Data Collector v3.7.2.0data status	okinstallation	princeton_trtdifferential loss correction	single-endedforward channel	channel 2reverse channel	N/Adate	2019/09/12time	07:53:11forward acquisition time	60.00reverse acquisition time	0.00gamma	496.2192k internal	0.2320k external	0.2320temperature offset calibration	1.0063default loss term (dB/km)	0.3790temperature slope calibration	1.0000multiplexer offset coefficient	1.0000multiplexer slope coefficient	1.0000fibre end	0.00T internal ref (°C)	32.94T ext. ref 1 (°C)	1.65T ext. ref 2 (°C)	29.06length (m)	temperature (°C)	Stokes	anti-Stokes-747.200	-153.033	0.231	0.016
-746.185	-80.527	-0.262	-0.088
-745.171	800.000	-0.053	0.184
-744.156	800.000	-0.100	0.280
-743.142	-133.902	0.071	0.009
-742.127	-153.505	-0.265	0.019
-741.112	-93.187	0.245	0.069
-740.098	-200.000	-0.079	0.500
-739.083	36.925	0.293	0.262
-738.069	800.000	-0.047	0.153
-737.054	3.286	0.152	-0.112
-736.039	800.000	-0.017	-0.060
-735.025	765.083	0.093	0.256
-734.010	-200.000	-0.015	-0.123
-732.996	-0.515	-0.131	0.094
-731.981	-83.513	-0.217	-0.070
-730.966	638.735	0.107	0.276
-729.952	80.254	-0.191	-0.207
-728.937	199.976	-0.127	-0.197
-727.923	50.998	-0.083	-0.080
-726.908	-200.000	-0.007	-0.125
-725.894	363.919	0.106	-0.215
-724.879	-171.932	0.212	0.007
-723.864	-200.000	0.016	0.106
-722.850	192.220	-0.043	0.065
-721.835	-30.913	-0.114	0.065
-720.821	800.000	-0.050	-0.195
-719.806	-68.987	0.091	-0.035
-718.791	-123.553	0.319	-0.051
-717.777	35.731	0.200	-0.177
-716.762	-200.000	0.016	-0.335
-715.748	288.477	0.050	-0.091
-714.733	47.720	-0.151	-0.142
-713.718	-48.254	0.030	-0.015
-712.704	-14.683	-0.212	0.137
-711.689	-88.262	-0.139	0.042
-710.675	-35.308	-0.306	-0.168
-709.660	208.063	-0.142	-0.223
-708.645	-106.377	-0.449	-0.101
-707.631	800.000	-0.007	-0.023
-706.616	22.859	-0.096	0.079
-705.602	-200.000	-0.062	-0.280
-704.587	626.049	0.003	-0.009
-703.572	-200.000	0.019	0.292
-702.558	-200.000	-0.036	-0.164
-701.543	713.712	0.150	-0.402
-700.529	24.032	-0.194	0.161
-699.514	800.000	0.057	0.175
-698.499	800.000	0.079	-0.339
-697.485	-200.000	0.007	-0.550
-696.470	160.520	-0.252	-0.355
-695.456	49.804	-0.133	0.126
-694.441	-200.000	0.049	0.249
-693.426	286.790	0.090	0.164
-692.412	-63.234	-0.108	0.045
-691.397	98.951	0.142	0.165
-690.383	143.369	0.095	-0.128
-689.368	437.447	0.174	-0.383
-688.354	-32.350	-0.382	-0.215
-687.339	-166.645	0.376	-0.016
-686.324	-200.000	-0.013	0.380
-685.310	-127.959	-0.113	0.016
-684.295	-77.763	0.141	0.049
-683.281	-172.859	0.166	-0.005
-682.266	-200.000	0.001	-0.121
-681.251	81.266	0.102	-0.111
-680.237	17.020	0.085	-0.068
-679.222	219.726	-0.210	0.339
-678.208	312.477	-0.015	-0.029
-677.193	104.063	-0.023	-0.027
-676.178	35.947	0.432	-0.383
-675.164	-102.715	0.387	-0.093
-674.149	6.213	-0.180	-0.135
-673.135	61.315	-0.168	0.168
-672.120	25.756	-0.107	0.090
-671.105	-39.778	0.084	0.044
-670.091	21.999	0.225	0.185
-669.076	-44.206	-0.121	0.061
-668.062	-109.565	0.103	0.022
-667.047	438.016	-0.119	-0.261
-666.032	-110.169	-0.321	-0.067
-665.018	193.774	0.072	0.110
-664.003	97.961	-0.119	0.139
-662.989	51.159	-0.246	0.235
-661.974	-180.805	0.037	0.001
-660.959	72.466	-0.062	0.065
-659.945	264.150	0.132	-0.232
-658.930	-103.121	-0.006	0.001
-657.916	-200.000	-0.036	-0.194
-656.901	-200.000	0.014	-0.164
-655.886	-105.474	0.186	-0.043
-654.872	145.621	0.162	-0.219
-653.857	-24.268	-0.269	-0.162
-652.843	-111.252	-0.200	0.041
-651.828	520.716	-0.051	0.120
-650.814	117.491	0.107	-0.133
-649.799	-200.000	0.030	-0.222
-648.784	-200.000	0.057	0.393
-647.770	800.000	0.115	-0.473
-646.755	-116.121	0.197	-0.037
-645.741	348.222	-0.114	-0.226
-644.726	-200.000	0.028	0.218
-643.711	-67.579	-0.178	-0.070
-642.697	760.008	0.041	0.111
-641.682	-31.144	-0.278	-0.158
-640.668	-4.955	-0.331	0.230
-639.653	-200.000	-0.014	0.067
-638.638	-130.141	0.247	-0.034
-637.624	800.000	0.078	-0.269
-636.609	800.000	0.029	0.106
-635.595	-148.837	0.104	0.008
-634.580	197.638	0.106	-0.162
-633.565	-150.735	0.279	0.021
-632.551	-135.278	-0.111	0.013
-631.536	178.260	-0.179	-0.264
-630.522	399.723	0.032	0.067
-629.507	126.659	0.136	0.173
-628.492	-200.000	-0.074	0.420
-627.478	-53.107	-0.419	-0.194
-626.463	-80.034	-0.028	-0.009
-625.449	7.393	0.153	-0.115
-624.434	172.939	-0.093	0.135
-623.419	800.000	-0.097	0.270
-622.405	-6.178	0.256	-0.176
-621.390	224.114	0.118	0.191
-620.376	-200.000	-0.019	-0.272
-619.361	-46.554	-0.097	-0.048
-618.346	-200.000	0.043	-0.344
-617.332	-105.456	-0.209	-0.048
-616.317	-72.717	0.260	-0.097
-615.303	442.717	0.052	0.114
-614.288	37.279	0.152	-0.135
-613.273	-94.883	-0.365	0.099
-612.259	-81.504	-0.111	-0.037
-611.244	-200.000	0.069	0.330
-610.230	168.833	-0.100	-0.143
-609.215	-200.000	-0.010	-0.178
-608.201	-182.710	-0.212	-0.004
-607.186	-2.040	-0.118	0.083
-606.171	800.000	-0.092	0.259
-605.157	236.756	-0.129	-0.215
-604.142	104.727	-0.155	0.184
-603.128	83.164	-0.172	-0.188
-602.113	-125.509	0.354	0.054
-601.098	148.748	0.334	0.453
-600.084	-195.650	0.103	-0.001
-599.069	-173.428	0.195	-0.006
-598.055	472.375	-0.122	0.276
-597.040	-101.182	0.380	0.093
-596.025	-200.000	-0.001	0.116
-595.011	-200.000	0.044	-0.223
-593.996	-200.000	0.061	-0.329
-592.982	74.178	-0.074	0.078
-591.967	-189.512	0.279	0.003
-590.952	-57.796	-0.159	-0.070
-589.938	-30.564	0.361	-0.206
-588.923	-143.512	-0.554	0.053
-587.909	-24.765	-0.157	-0.094
-586.894	184.251	-0.142	0.212
-585.879	-51.884	-0.430	0.201
-584.865	-128.556	-0.235	-0.034
-583.850	800.000	-0.036	0.133
-582.836	-69.029	-0.282	-0.109
-581.821	191.628	0.061	0.092
-580.806	3.001	0.079	-0.058
-579.792	-72.133	-0.272	-0.101
-578.777	-95.061	-0.510	-0.138
-577.763	800.000	0.167	-0.464
-576.748	304.458	-0.183	-0.342
-575.733	-4.140	0.137	0.095
-574.719	455.325	0.078	-0.175
-573.704	101.326	-0.205	0.240
-572.690	-200.000	-0.039	-0.256
-571.675	-200.000	-0.051	0.258
-570.661	800.000	-0.079	0.327
-569.646	309.755	-0.102	0.191
-568.631	103.929	0.092	0.108
-567.617	9.104	-0.280	-0.212
-566.602	-58.225	0.292	0.128
-565.588	-200.000	-0.025	-0.136
-564.573	-200.000	-0.005	0.414
-563.558	-137.439	-0.065	0.007
-562.544	200.872	-0.127	-0.196
-561.529	-28.380	-0.230	-0.133
-560.515	-124.771	-0.465	0.072
-559.500	-48.081	0.199	-0.096
-558.485	-17.235	-0.095	0.060
-557.471	99.366	0.109	0.126
-556.456	-200.000	-0.074	-0.383
-555.442	427.089	0.047	-0.102
-554.427	130.266	0.051	0.066
-553.412	-46.402	0.106	-0.052
-552.398	418.997	-0.101	-0.217
-551.383	-64.693	-0.092	-0.037
-550.369	52.648	0.012	0.012
-549.354	800.000	-0.098	0.292
-548.339	-133.668	0.175	0.022
-547.325	-200.000	0.016	0.276
-546.310	148.583	-0.097	-0.131
-545.296	214.542	-0.168	-0.267
-544.281	-200.000	0.008	0.224
-543.266	42.558	-0.227	0.208
-542.252	-128.905	0.316	-0.044
-541.237	800.000	0.027	-0.077
-540.223	-78.749	0.206	-0.071
-539.208	-63.061	-0.218	-0.090
-538.193	800.000	0.126	-0.357
-537.179	-200.000	-0.016	-0.179
-536.164	71.973	0.149	0.155
-535.150	-200.000	0.038	-0.186
-534.135	800.000	-0.021	-0.073
-533.121	-50.046	-0.253	-0.120
-532.106	215.627	-0.303	-0.483
-531.091	-63.439	0.203	-0.084
-530.077	-200.000	0.050	0.272
-529.062	-71.224	-0.433	0.163
-528.048	195.447	-0.068	-0.103
-527.033	313.577	-0.130	-0.245
-526.018	-27.521	0.211	-0.123
-525.004	-200.000	0.011	0.184
-523.989	-55.808	0.110	0.049
-522.975	-96.255	0.175	-0.046
-521.960	-200.000	-0.013	0.237
-520.945	253.588	-0.182	0.311
-519.931	800.000	0.059	0.198
-518.916	-200.000	-0.012	-0.113
-517.902	800.000	0.053	-0.183
-516.887	-130.136	-0.175	0.024
-515.872	-118.935	-0.400	-0.070
-514.858	41.523	-0.078	0.071
-513.843	134.350	-0.045	-0.058
-512.829	2.167	-0.252	-0.182
-511.814	8.854	0.119	0.090
-510.799	50.286	0.231	0.219
-509.785	-45.836	0.118	0.058
-508.770	-169.817	0.354	-0.013
-507.756	-67.089	0.155	-0.061
-506.741	-200.000	0.000	0.138
-505.726	7.270	-0.204	-0.153
-504.712	283.612	-0.040	-0.073
-503.697	-110.709	-0.352	-0.073
-502.683	281.554	0.057	0.103
-501.668	0.693	0.178	0.128
-500.653	141.764	-0.246	-0.326
-499.639	-109.982	-0.354	-0.074
-498.624	800.000	0.018	-0.073
-497.610	266.814	0.099	0.172
-496.595	-114.953	-0.236	-0.045
-495.581	86.648	0.301	-0.333
-494.566	240.200	-0.196	-0.327
-493.551	-19.632	0.163	0.101
-492.537	-162.594	0.214	-0.011
-491.522	3.831	-0.155	-0.114
-490.508	-11.333	0.173	-0.114
-489.493	261.038	0.068	0.118
-488.478	800.000	-0.076	-0.211
-487.464	-123.269	-0.342	-0.055
-486.449	404.977	0.059	-0.124
-485.435	285.514	-0.082	0.147
-484.420	-147.608	0.338	0.028
-483.405	-125.881	-0.254	0.038
-482.391	427.424	-0.125	-0.270
-481.376	-129.272	-0.181	0.025
-480.362	-142.176	0.404	0.040
-479.347	71.668	-0.051	0.053
-478.332	4.416	-0.231	0.170
-477.318	-126.731	0.188	-0.028
-476.303	122.836	0.269	-0.336
-475.289	334.069	0.104	0.202
-474.274	-200.000	0.080	0.000
-473.259	-24.062	-0.053	-0.031
-472.245	20.509	0.117	-0.094
-471.230	698.182	0.095	0.249
-470.216	-127.361	-0.243	0.035
-469.201	-186.790	0.202	0.003
-468.186	-25.549	0.409	0.242
-467.172	329.963	0.055	-0.107
-466.157	-44.410	0.069	0.035
-465.143	-200.000	-0.044	0.207
-464.128	-59.759	0.018	0.008
-463.113	623.878	0.021	0.052
-462.099	22.137	0.202	-0.165
-461.084	800.000	0.088	-0.328
-460.070	-145.702	0.121	0.011
-459.055	2.542	0.154	-0.111
-458.040	-110.456	0.308	0.064
-457.026	17.202	-0.214	-0.170
-456.011	-200.000	-0.021	0.150
-454.997	-200.000	0.006	0.193
-453.982	-72.785	0.083	0.031
-452.968	-78.020	0.182	0.063
-451.953	252.210	-0.130	0.221
-450.938	73.766	-0.108	0.113
-449.924	-200.000	0.003	0.069
-448.909	-10.582	0.120	-0.080
-447.895	-82.325	0.373	-0.121
-446.880	-200.000	0.018	0.095
-445.865	-200.000	-0.036	0.300
-444.851	800.000	-0.079	0.249
-443.836	246.996	-0.061	0.102
-442.822	-106.479	0.288	-0.064
-441.807	428.129	0.158	-0.340
-440.792	-200.000	0.019	-0.148
-439.778	800.000	-0.146	-0.456
-438.763	-2.583	0.118	0.083
-437.749	49.185	-0.089	-0.083
-436.734	42.016	0.122	-0.110
-435.719	252.491	-0.172	-0.293
-434.705	-200.000	0.021	-0.202
-433.690	-102.652	0.054	-0.013
-432.676	198.603	-0.184	0.281
-431.661	-26.323	0.332	-0.195
-430.646	147.712	-0.027	-0.037
-429.632	110.196	-0.195	0.233
-428.617	183.536	-0.128	0.190
-427.603	800.000	-0.050	-0.158
-426.588	-68.780	0.325	-0.126
-425.573	151.962	-0.138	0.188
-424.559	158.051	-0.106	-0.147
-423.544	-200.000	0.110	0.539
-422.530	47.126	-0.227	0.211
-421.515	210.677	0.269	-0.421
-420.500	-200.000	-0.053	0.327
-419.486	-56.809	0.129	0.057
-418.471	417.563	-0.216	-0.461
-417.457	-22.111	-0.170	0.103
-416.442	43.462	0.136	-0.124
-415.428	-200.000	0.002	-0.035
-414.413	-152.918	-0.088	0.006
-413.398	-50.119	-0.245	-0.116
-412.384	-3.093	0.155	-0.108
-411.369	496.763	-0.059	0.134
-410.355	-200.000	0.002	0.201
-409.340	-41.318	-0.304	0.156
-408.325	800.000	-0.103	0.323
-407.311	166.711	0.011	0.016
-406.296	70.290	-0.070	0.073
-405.282	-117.606	0.166	-0.030
-404.267	-43.211	-0.165	-0.083
-403.252	94.682	-0.222	0.252
-402.238	-12.244	-0.104	0.068
-401.223	128.401	0.078	-0.100
-400.209	82.561	0.170	0.184
-399.194	-7.050	-0.229	0.155
-398.179	-120.502	-0.352	0.060
-397.165	33.201	-0.055	0.047
-396.150	800.000	0.029	-0.125
-395.136	-40.687	0.403	-0.208
-394.121	-136.974	-0.241	0.028
-393.106	130.766	-0.245	-0.313
-392.092	13.136	0.315	-0.243
-391.077	800.000	-0.101	-0.309
-390.063	192.065	0.196	0.295
-389.048	-133.219	0.139	0.017
-388.033	222.701	-0.070	-0.112
-387.019	-200.000	0.015	0.241
-386.004	-20.901	-0.351	0.214
-384.990	311.274	-0.094	0.176
-383.975	127.695	0.178	0.225
-382.960	27.289	0.372	-0.312
-381.946	29.150	0.231	0.195
-380.931	561.035	0.017	0.040
-379.917	-183.437	-0.197	-0.003
-378.902	800.000	-0.064	-0.254
-377.888	-72.911	0.333	0.122
-376.873	170.972	-0.219	-0.313
-375.858	800.000	0.034	0.111
-374.844	-200.000	0.037	0.525
-373.829	510.536	0.047	0.108
-372.815	-200.000	0.002	0.067
-371.800	330.843	-0.066	0.127
-370.785	-200.000	-0.051	0.314
-369.771	20.170	-0.078	-0.062
-368.756	164.107	-0.209	-0.293
-367.742	-164.304	-0.104	0.005
-366.727	101.930	-0.064	-0.075
-365.712	181.672	-0.051	-0.075
-364.698	66.431	-0.197	-0.199
-363.683	-151.654	0.230	-0.017
-362.669	-131.836	0.176	0.023
-361.654	141.428	0.141	-0.186
-360.639	420.959	0.142	0.303
-359.625	-200.000	0.069	0.362
-358.610	581.109	0.062	-0.151
-357.596	800.000	0.087	-0.333
-356.581	299.220	0.055	0.101
-355.566	32.483	0.141	0.121
-354.552	358.679	-0.115	-0.229
-353.537	6.057	0.095	0.070
-352.523	-7.787	0.166	0.112
-351.508	-60.878	0.221	0.093
-350.493	-79.358	0.333	-0.112
-349.479	800.000	-0.036	-0.147
-348.464	-178.966	0.258	-0.006
-347.450	253.546	0.034	-0.058
-346.435	20.320	0.361	0.290
-345.420	585.030	-0.113	0.277
-344.406	648.333	-0.025	0.064
-343.391	67.406	-0.157	0.159
-342.377	-10.490	0.151	-0.099
-341.362	-120.892	0.136	0.023
-340.348	-48.728	0.282	0.135
-339.333	-200.000	-0.002	0.125
-338.318	146.905	0.244	-0.326
-337.304	-200.000	0.008	-0.486
-336.289	779.173	0.110	0.300
-335.275	-24.033	0.098	0.058
-334.260	-75.093	-0.147	0.052
-333.245	-93.135	0.281	0.078
-332.231	-109.776	0.119	0.025
-331.216	514.074	-0.079	0.183
-330.202	329.090	-0.087	0.166
-329.187	-200.000	-0.029	0.143
-328.172	37.946	-0.119	-0.105
-327.158	44.000	0.167	-0.152
-326.143	39.255	-0.260	-0.231
-325.129	-66.449	0.137	0.054
-324.114	-70.625	0.412	0.155
-323.099	444.350	-0.151	0.329
-322.085	-70.437	0.059	0.022
-321.070	-168.841	-0.345	0.013
-320.056	202.872	-0.149	0.229
-319.041	-200.000	0.011	-0.423
-318.026	35.929	-0.203	0.178
-317.012	209.209	-0.153	-0.239
-315.997	-200.000	-0.089	-0.426
-314.983	131.248	-0.221	0.282
-313.968	-200.000	0.034	-0.419
-312.953	-86.474	0.284	0.087
-311.939	413.162	-0.122	0.258
-310.924	-92.846	-0.052	-0.015
-309.910	-20.504	-0.329	0.201
-308.895	800.000	-0.030	-0.089
-307.880	-59.214	0.141	-0.060
-306.866	42.784	0.095	-0.086
-305.851	-157.527	-0.236	0.014
-304.837	-31.596	-0.215	-0.120
-303.822	-189.760	-0.145	-0.002
-302.807	-110.935	0.081	0.016
-301.793	800.000	0.011	0.038
-300.778	-54.278	0.180	-0.081
-299.764	309.224	0.041	-0.076
-298.749	-10.140	-0.095	-0.063
-297.735	-200.000	0.029	-0.256
-296.720	800.000	0.058	0.160
-295.705	-28.844	-0.183	-0.105
-294.691	-200.000	-0.016	-0.125
-293.676	-61.231	-0.191	-0.080
-292.662	-176.542	-0.284	-0.007
-291.647	452.496	-0.121	-0.265
-290.632	323.646	-0.097	-0.184
-289.618	-75.120	0.398	-0.141
-288.603	119.841	0.186	-0.229
-287.589	254.014	-0.218	0.370
-286.574	-5.256	0.064	-0.044
-285.559	46.347	0.094	0.087
-284.545	-13.355	-0.202	0.130
-283.530	-200.000	0.013	0.139
-282.516	-95.920	0.172	0.046
-281.501	785.860	-0.125	-0.341
-280.486	-154.464	-0.192	0.013
-279.472	11.009	0.322	0.244
-278.457	-159.878	0.479	-0.026
-277.443	237.319	-0.288	0.475
-276.428	49.339	0.050	0.047
-275.413	-108.737	0.367	0.078
-274.399	41.447	0.138	-0.124
-273.384	-117.420	-0.178	0.032
-272.370	-132.870	-0.295	0.037
-271.355	147.628	0.060	0.080
-270.340	566.741	0.042	0.101
-269.326	227.096	0.075	-0.121
-268.311	58.902	-0.088	0.086
-267.297	-200.000	0.016	-0.098
-266.282	-200.000	0.019	0.139
-265.267	704.996	0.073	0.192
-264.253	155.102	0.140	-0.191
-263.238	-164.204	0.097	-0.004
-262.224	-200.000	0.024	0.310
-261.209	800.000	0.063	0.216
-260.195	-200.000	0.038	0.231
-259.180	15.450	-0.155	0.121
-258.165	16.224	-0.357	-0.279
-257.151	795.091	0.046	-0.125
-256.136	800.000	-0.092	0.365
-255.122	-200.000	-0.024	-0.228
-254.107	800.000	0.097	0.370
-253.092	10.368	-0.236	0.178
-252.078	-40.830	0.242	0.124
-251.063	146.006	-0.121	0.160
-250.049	-76.916	0.152	0.053
-249.034	553.248	-0.139	0.331
-248.019	52.021	0.124	0.117
-247.005	10.128	0.054	-0.040
-245.990	-200.000	0.003	-0.061
-244.976	-112.182	0.086	0.017
-243.961	233.373	-0.120	0.197
-242.946	298.927	0.195	-0.356
-241.932	-108.380	0.134	-0.029
-240.917	14.159	0.124	-0.096
-239.903	-78.182	0.274	-0.093
-238.888	-200.000	0.034	0.352
-237.873	272.927	0.089	-0.155
-236.859	-164.673	-0.106	-0.005
-235.844	27.628	-0.118	0.099
-234.830	-184.645	-0.261	-0.004
-233.815	121.982	-0.209	0.258
-232.800	-200.000	0.015	0.150
-231.786	-94.091	0.113	-0.031
-230.771	551.616	-0.148	-0.352
-229.757	70.418	0.236	0.242
-228.742	-200.000	0.048	0.303
-227.727	-151.030	-0.207	0.015
-226.713	-150.172	0.228	0.017
-225.698	175.692	0.107	-0.153
-224.684	184.322	-0.120	-0.176
-223.669	280.872	0.168	0.298
-222.655	19.259	-0.152	0.121
-221.640	-200.000	0.081	0.370
-220.625	-38.377	0.176	0.092
-219.611	-49.963	0.141	0.066
-218.596	-200.000	-0.031	0.174
-217.582	-130.667	-0.129	-0.017
-216.567	-96.523	0.042	-0.011
-215.552	-40.584	0.229	0.118
-214.538	800.000	-0.073	-0.304
-213.523	-186.078	0.337	0.005
-212.509	800.000	0.094	-0.400
-211.494	-26.697	0.141	0.082
-210.479	-200.000	0.008	0.206
-209.465	-20.567	-0.319	0.194
-208.450	800.000	-0.035	0.123
-207.436	-200.000	0.028	-0.220
-206.421	800.000	0.051	-0.162
-205.406	800.000	0.055	-0.184
-204.392	-62.069	-0.144	0.059
-203.377	-200.000	0.017	-0.308
-202.363	800.000	-0.032	0.108
-201.348	383.922	-0.161	0.328
-200.333	-50.385	0.204	0.095
-199.319	250.487	-0.026	-0.043
-198.304	-102.707	-0.147	0.035
-197.290	57.186	0.196	-0.189
-196.275	-78.127	-0.392	-0.133
-195.260	-58.781	-0.156	-0.067
-194.246	-52.679	-0.045	-0.021
-193.231	-80.822	0.156	0.051
-192.217	35.509	-0.016	0.013
-191.202	-74.950	0.133	-0.047
-190.187	391.964	0.108	-0.221
-189.173	335.270	-0.027	0.051
-188.158	-12.837	0.191	0.123
-187.144	-200.000	-0.024	-0.245
-186.129	-169.061	-0.161	-0.006
-185.114	-55.931	-0.300	-0.133
-184.100	-1.096	-0.162	0.113
-183.085	800.000	-0.046	-0.156
-182.071	202.909	-0.015	0.023
-181.056	-200.000	0.070	-0.338
-180.042	290.500	-0.223	-0.400
-179.027	75.317	0.081	0.084
-178.012	-200.000	0.001	0.112
-176.998	103.692	0.299	-0.348
-175.983	-200.000	-0.017	0.170
-174.969	192.418	-0.100	-0.150
-173.954	800.000	0.105	-0.315
-172.939	800.000	0.157	-0.646
-171.925	-141.546	0.207	-0.021
-170.910	16.653	-0.199	-0.156
-169.896	-12.136	0.128	0.083
-168.881	-116.179	0.025	-0.005
-167.866	-113.745	-0.465	0.090
-166.852	198.962	0.178	0.270
-165.837	-93.024	-0.180	0.050
-164.823	349.616	-0.043	-0.085
-163.808	-53.159	0.057	-0.026
-162.793	-52.903	0.170	0.078
-161.779	217.669	0.188	-0.296
-160.764	-200.000	0.008	-0.205
-159.750	-200.000	-0.018	0.122
-158.735	-81.977	-0.030	0.010
-157.720	800.000	0.142	0.466
-156.706	800.000	0.103	0.287
-155.691	-16.876	0.091	0.057
-154.677	27.639	-0.084	0.070
-153.662	-200.000	0.049	-0.310
-152.647	185.288	-0.052	-0.076
-151.633	-200.000	0.013	0.158
-150.618	-75.108	0.076	0.027
-149.604	-126.222	0.373	0.055
-148.589	800.000	0.095	-0.360
-147.574	800.000	-0.071	0.300
-146.560	64.870	-0.124	-0.124
-145.545	-114.957	0.053	0.010
-144.531	-200.000	-0.024	0.127
-143.516	800.000	0.088	-0.257
-142.502	-39.094	-0.290	-0.150
-141.487	64.372	0.120	0.119
-140.472	-116.650	0.109	-0.020
-139.458	-63.008	0.045	0.019
-138.443	-23.761	0.063	-0.037
-137.429	212.454	0.129	-0.201
-136.414	-22.604	-0.084	-0.050
-135.399	434.403	0.202	0.432
-134.385	-52.489	0.263	0.120
-133.370	-200.000	-0.026	0.216
-132.356	346.718	0.054	-0.106
-131.341	175.965	0.182	0.260
-130.326	146.249	-0.233	0.308
-129.312	-194.092	-0.238	-0.002
-128.297	89.935	0.186	-0.205
-127.283	38.731	0.319	-0.281
-126.268	65.421	-0.262	-0.262
-125.253	446.456	0.103	-0.223
-124.239	-24.742	0.162	0.095
-123.224	295.324	-0.097	-0.175
-122.210	-200.000	0.011	-0.241
-121.195	97.421	0.043	-0.049
-120.180	800.000	-0.012	0.048
-119.166	15.213	0.143	-0.110
-118.151	-38.341	-0.221	0.116
-117.137	-200.000	-0.010	0.109
-116.122	180.274	-0.157	-0.227
-115.107	-1.676	-0.238	-0.166
-114.093	-16.743	-0.074	-0.046
-113.078	241.645	-0.209	0.345
-112.064	-200.000	0.045	-0.247
-111.049	-200.000	0.000	-0.192
-110.034	-52.910	-0.169	-0.077
-109.020	539.756	0.014	0.032
-108.005	-77.668	0.060	0.020
-106.991	-161.924	-0.119	0.006
-105.976	800.000	0.006	0.019
-104.962	-59.528	0.104	-0.044
-103.947	-19.640	0.190	0.116
-102.932	133.997	-0.160	-0.205
-101.918	-61.338	0.080	0.033
-100.903	-200.000	-0.031	-0.238
-99.889	800.000	0.018	0.072
-98.874	-200.000	-0.049	-0.273
-97.859	-78.550	0.360	0.121
-96.845	-200.000	0.078	-0.343
-95.830	800.000	0.127	-0.397
-94.816	-8.365	0.125	-0.083
-93.801	-200.000	0.000	-0.229
-92.786	800.000	0.120	0.452
-91.772	91.774	0.289	-0.320
-90.757	-8.686	0.300	-0.198
-89.743	44.035	0.226	-0.204
-88.728	-100.833	0.256	-0.062
-87.713	-95.624	0.388	0.102
-86.699	-56.669	-0.278	0.121
-85.684	744.698	0.087	0.232
-84.670	436.036	-0.134	-0.288
-83.655	-200.000	0.014	0.305
-82.640	-32.533	0.104	-0.057
-81.626	-153.361	-0.534	-0.037
-80.611	-200.000	0.012	-0.357
-79.597	78.880	-0.182	-0.192
-78.582	-200.000	0.014	-0.090
-77.567	800.000	0.049	0.139
-76.553	800.000	-0.171	-0.485
-75.538	-14.015	-0.135	0.086
-74.524	-81.658	-0.108	0.035
-73.509	52.148	-0.231	-0.217
-72.494	745.299	0.042	0.111
-71.480	-131.906	0.196	-0.025
-70.465	-38.835	0.177	0.092
-69.451	-55.225	0.133	-0.059
-68.436	-200.000	-0.044	0.282
-67.422	-200.000	-0.012	-0.121
-66.407	-1.712	-0.263	-0.182
-65.392	374.579	-0.144	-0.288
-64.378	-200.000	0.029	0.200
-63.363	-200.000	0.010	-0.341
-62.349	-121.167	0.311	-0.051
-61.334	52.149	-0.985	-0.924
-60.319	800.000	0.166	0.565
-59.305	800.000	-0.334	-1.073
-58.290	268.781	0.612	1.057
-57.276	202.604	0.946	1.437
-56.261	-200.000	97.401	596.887
-55.246	541.644	1410.114	3307.089
-54.232	152.150	2608.233	3501.850
-53.217	105.725	2292.194	2667.448
-52.203	42.227	1908.847	1706.381
-51.188	36.272	1698.683	1473.156
-50.173	33.392	1654.639	1413.448
-49.159	51.586	1701.393	1591.298
-48.144	53.223	1717.608	1618.757
-47.130	35.783	1677.394	1450.778
-46.115	32.946	1662.751	1416.804
-45.100	32.847	1657.490	1411.526
-44.086	32.808	1655.293	1409.307
-43.071	32.865	1652.169	1407.017
-42.057	32.771	1650.070	1404.473
-41.042	32.873	1647.812	1403.253
-40.027	32.755	1645.932	1400.719
-39.013	32.787	1643.717	1399.015
-37.998	32.754	1642.544	1397.718
-36.984	32.897	1640.743	1397.186
-35.969	32.942	1639.177	1396.130
-34.954	32.997	1637.526	1395.078
-33.940	32.904	1636.252	1393.252
-32.925	32.971	1634.307	1392.033
-31.911	32.973	1632.625	1390.559
-30.896	32.904	1630.773	1388.422
-29.881	32.934	1629.016	1387.085
-28.867	32.907	1627.485	1385.529
-27.852	32.893	1626.071	1384.169
-26.838	32.953	1624.487	1383.209
-25.823	32.958	1623.112	1382.015
-24.809	32.927	1621.820	1380.635
-23.794	32.947	1620.084	1379.248
-22.779	33.006	1618.375	1378.171
-21.765	32.922	1617.057	1376.378
-20.750	32.999	1615.147	1375.260
-19.736	32.971	1613.894	1373.935
-18.721	33.008	1612.420	1372.897
-17.706	32.890	1611.000	1370.777
-16.692	33.002	1609.365	1370.142
-15.677	32.965	1608.077	1368.723
-14.663	33.014	1606.798	1367.937
-13.648	33.018	1605.303	1366.635
-12.633	32.987	1603.660	1364.962
-11.619	32.939	1602.395	1363.482
-10.604	33.006	1600.489	1362.291
-9.590	32.970	1599.765	1361.361
-8.575	32.925	1598.754	1360.124
-7.560	32.882	1597.391	1358.595
-6.546	32.990	1595.799	1357.966
-5.531	32.969	1594.705	1356.831
-4.517	32.953	1593.483	1355.622
-3.502	32.945	1592.738	1354.874
-2.487	32.969	1590.892	1353.425
-1.473	32.841	1578.817	1342.190
-0.458	30.328	1560.238	1308.648
0.556	26.884	1560.752	1278.645
1.571	24.719	1584.852	1282.757
2.586	24.192	1598.011	1289.480
3.600	21.054	1543.004	1223.021
4.615	11.293	1430.280	1069.825
5.629	3.103	1364.301	968.952
6.644	1.819	1356.243	955.099
7.659	1.699	1354.755	953.215
8.673	1.581	1353.943	951.818
9.688	1.501	1352.242	950.041
10.702	1.308	1348.685	946.256
11.717	4.862	1355.708	973.337
12.731	15.111	1375.340	1052.030
13.746	23.755	1390.065	1117.842
14.761	26.036	1392.909	1134.394
15.775	26.392	1392.995	1136.603
16.790	26.515	1392.365	1136.763
17.804	26.468	1391.807	1135.908
18.819	26.691	1391.698	1137.120
19.834	26.794	1390.979	1137.077
20.848	26.862	1390.421	1136.943
21.863	26.770	1389.742	1135.713
22.877	26.741	1388.774	1134.639
23.892	26.966	1387.469	1134.883
24.907	26.837	1386.962	1133.561
25.921	26.796	1385.832	1132.281
26.936	26.841	1385.263	1131.995
27.950	26.856	1383.909	1130.884
28.965	26.872	1382.606	1129.819
29.980	26.899	1381.281	1128.806
30.994	26.859	1380.037	1127.438
32.009	26.754	1379.594	1126.323
33.023	26.741	1378.316	1125.097
34.038	26.865	1377.148	1124.813
35.053	26.851	1376.015	1123.704
36.067	26.989	1374.830	1123.489
37.082	26.883	1373.918	1121.989
38.096	26.845	1373.494	1121.312
39.111	26.876	1372.379	1120.491
40.126	26.874	1371.877	1119.972
41.140	26.779	1371.641	1119.095
42.155	26.874	1370.986	1119.044
43.169	26.799	1371.122	1118.598
44.184	26.745	1370.800	1117.900
45.199	26.745	1370.769	1117.775
46.213	26.893	1369.509	1117.563
47.228	26.892	1368.652	1116.757
48.242	26.921	1367.372	1115.794
49.257	26.836	1366.261	1114.263
50.271	26.804	1364.913	1112.868
51.286	26.831	1363.512	1111.796
52.301	26.849	1362.211	1110.749
53.315	26.817	1361.452	1109.832
54.330	26.837	1360.335	1108.948
55.344	26.806	1359.362	1107.867
56.359	26.846	1358.442	1107.260
57.374	26.828	1357.403	1106.207
58.388	26.865	1356.757	1105.811
59.403	26.800	1356.656	1105.234
60.417	26.757	1356.153	1104.461
61.432	26.866	1355.421	1104.434
62.447	26.861	1354.392	1103.464
63.461	26.932	1353.071	1102.722
64.476	26.923	1352.218	1101.874
65.490	26.892	1350.929	1100.540
66.505	26.978	1349.232	1099.582
67.520	26.828	1348.653	1098.102
68.534	26.840	1347.750	1097.343
69.549	26.834	1346.541	1096.226
70.563	26.864	1345.506	1095.468
71.578	26.824	1345.210	1094.891
72.593	26.823	1343.935	1093.750
73.607	26.785	1343.200	1092.823
74.622	26.871	1342.725	1092.857
75.636	26.988	1341.357	1092.353
76.651	26.967	1340.903	1091.760
77.666	26.823	1340.775	1090.691
78.680	26.952	1339.850	1090.619
79.695	26.882	1339.306	1089.661
80.709	26.811	1338.774	1088.705
81.724	26.754	1337.631	1087.339
82.739	26.827	1336.978	1087.145
83.753	26.863	1335.517	1086.082
84.768	26.813	1334.821	1085.119
85.782	26.927	1333.454	1084.593
86.797	26.924	1332.300	1083.536
87.812	26.904	1331.436	1082.621
88.826	26.898	1330.395	1081.645
89.841	26.940	1329.078	1080.724
90.855	26.921	1328.435	1079.994
91.870	26.909	1327.751	1079.272
92.884	26.962	1326.460	1078.442
93.899	26.834	1326.217	1077.391
94.914	26.963	1325.276	1077.296
95.928	26.954	1324.476	1076.495
96.943	27.030	1323.501	1076.059
97.957	26.968	1323.207	1075.356
98.972	27.035	1322.043	1074.713
99.987	26.943	1321.312	1073.478
101.001	26.909	1320.425	1072.464
102.016	26.856	1319.344	1071.176
103.030	26.879	1318.786	1070.763
104.045	26.886	1318.012	1070.081
105.060	26.810	1317.167	1068.854
106.074	26.842	1315.922	1067.938
107.089	26.976	1314.721	1067.657
108.103	26.928	1313.670	1066.425
109.118	26.961	1313.000	1065.983
110.133	26.967	1311.356	1064.586
111.147	27.069	1310.279	1064.215
112.162	27.109	1308.911	1063.245
113.176	26.956	1308.665	1062.056
114.191	27.041	1307.570	1061.572
115.206	27.039	1306.312	1060.444
116.220	26.976	1305.196	1059.074
117.235	26.898	1304.729	1058.150
118.249	27.013	1303.503	1057.732
119.264	27.012	1302.514	1056.830
120.279	26.945	1302.339	1056.207
121.293	27.061	1301.198	1055.860
122.308	27.039	1300.804	1055.319
123.322	26.989	1299.615	1053.970
124.337	27.111	1298.951	1054.048
125.352	27.105	1298.170	1053.286
126.366	27.149	1297.153	1052.622
127.381	27.074	1296.436	1051.513
128.395	27.100	1295.649	1050.933
129.410	27.067	1294.629	1049.818
130.424	27.008	1294.366	1049.172
131.439	27.051	1293.039	1048.253
132.454	27.006	1292.431	1047.409
133.468	26.999	1291.760	1046.731
134.483	27.089	1291.265	1046.755
135.497	27.020	1290.801	1045.888
136.512	27.004	1289.436	1044.597
137.527	27.069	1288.013	1043.727
138.541	27.047	1287.260	1042.900
139.556	27.032	1285.945	1041.656
140.570	27.056	1284.668	1040.668
141.585	27.043	1283.477	1039.532
142.600	26.996	1282.749	1038.585
143.614	27.089	1281.939	1038.369
144.629	27.039	1280.922	1037.169
145.643	26.967	1279.983	1035.904
146.658	26.933	1279.137	1034.933
147.673	26.941	1278.408	1034.299
148.687	26.985	1276.871	1033.215
149.702	26.995	1275.938	1032.424
150.716	26.910	1275.132	1031.199
151.731	27.062	1273.592	1030.723
152.746	27.021	1272.773	1029.735
153.760	27.068	1271.617	1028.974
154.775	27.073	1270.785	1028.243
155.789	27.141	1269.805	1027.743
156.804	26.943	1269.166	1026.015
157.819	27.013	1268.325	1025.638
158.833	27.151	1267.657	1025.786
159.848	27.071	1267.257	1024.919
160.862	27.027	1266.408	1023.893
161.877	27.097	1265.455	1023.426
162.892	26.996	1265.163	1022.532
163.906	27.195	1263.996	1022.620
164.921	27.178	1262.931	1021.572
165.935	27.124	1262.624	1020.927
166.950	26.994	1262.340	1019.878
167.964	27.179	1261.558	1020.193
168.979	27.101	1260.774	1019.032
169.994	27.090	1260.257	1018.461
171.008	27.252	1259.063	1018.318
172.023	27.251	1258.381	1017.667
173.037	27.140	1257.769	1016.464
174.052	27.243	1256.755	1016.127
175.067	27.150	1256.062	1014.960
176.081	27.139	1255.755	1014.560
177.096	27.100	1254.834	1013.511
178.110	27.256	1253.416	1013.145
179.125	27.308	1252.811	1012.853
180.140	27.209	1251.923	1011.497
181.154	27.225	1250.388	1010.255
182.169	27.216	1249.444	1009.350
183.183	27.203	1248.797	1008.666
184.198	27.095	1247.628	1007.034
185.213	27.292	1246.725	1007.308
186.227	27.136	1246.338	1006.044
187.242	27.329	1244.802	1005.780
188.256	27.227	1244.103	1004.562
189.271	27.275	1243.393	1004.166
190.286	27.236	1242.623	1003.240
191.300	27.227	1242.453	1002.968
192.315	27.276	1241.737	1002.569
193.329	27.200	1241.420	1001.805
194.344	27.273	1241.003	1001.784
195.359	27.278	1240.627	1001.418
196.373	27.293	1239.628	1000.606
197.388	27.185	1239.151	999.537
198.402	27.164	1239.416	999.551
199.417	27.320	1238.725	999.760
200.432	27.384	1237.598	999.114
201.446	27.250	1237.618	998.306
202.461	27.228	1236.969	997.572
203.475	27.314	1235.843	997.047
204.490	27.293	1234.983	996.151
205.504	27.301	1233.999	995.315
206.519	27.318	1233.437	994.863
207.534	27.368	1232.324	994.152
208.548	27.334	1231.402	993.136
209.563	27.384	1230.271	992.408
210.577	27.310	1229.651	991.415
211.592	27.309	1228.808	990.645
212.607	27.429	1227.859	990.444
213.621	27.387	1227.469	989.812
214.636	27.370	1226.508	988.857
215.650	27.436	1225.336	988.185
216.665	27.418	1224.539	987.356
217.680	27.367	1223.837	986.423
218.694	27.392	1223.169	985.937
219.709	27.453	1222.254	985.440
220.723	27.404	1221.528	984.506
221.738	27.344	1220.960	983.636
222.753	27.405	1220.415	983.439
223.767	27.327	1219.952	982.556
224.782	27.408	1219.515	982.554
225.796	27.427	1219.039	982.186
226.811	27.474	1217.927	981.455
227.826	27.536	1217.383	981.263
228.840	27.512	1216.556	980.383
229.855	27.545	1216.284	980.255
230.869	27.484	1215.316	979.058
231.884	27.509	1215.047	978.893
232.899	27.509	1213.856	977.846
233.913	27.429	1213.800	977.285
234.928	27.621	1213.163	977.715
235.942	27.555	1212.391	976.651
236.957	27.501	1211.560	975.609
237.972	27.602	1210.839	975.478
238.986	27.563	1210.362	974.802
240.001	27.501	1209.799	973.927
241.015	27.690	1208.867	974.105
242.030	27.651	1208.299	973.351
243.045	27.705	1206.885	972.411
244.059	27.623	1206.660	971.709
245.074	27.580	1205.855	970.747
246.088	27.707	1204.768	970.460
247.103	27.687	1203.964	969.624
248.117	27.722	1203.412	969.274
249.132	27.759	1202.413	968.580
250.147	27.740	1202.086	968.133
251.161	27.792	1201.258	967.653
252.176	27.733	1200.720	966.821
253.190	27.681	1200.156	966.008
254.205	27.720	1199.542	965.634
255.220	27.734	1198.808	965.035
256.234	27.754	1198.371	964.699
257.249	27.843	1197.421	964.322
258.263	27.770	1196.975	963.494
259.278	27.826	1196.323	963.179
260.293	27.735	1196.573	962.814
261.307	27.754	1195.590	962.038
262.322	27.837	1195.002	961.917
263.336	27.793	1194.273	961.012
264.351	27.892	1193.800	961.066
265.366	27.853	1193.011	960.145
266.380	27.841	1192.212	959.353
267.395	27.819	1191.635	958.686
268.409	27.693	1191.297	957.668
269.424	27.835	1190.638	957.800
270.439	27.887	1190.079	957.536
271.453	27.790	1189.661	956.610
272.468	27.782	1188.800	955.790
273.482	27.842	1187.620	955.070
274.497	27.964	1187.310	955.374
275.512	27.881	1187.313	954.858
276.526	27.778	1186.585	953.651
277.541	27.841	1185.645	953.138
278.555	27.892	1185.065	952.855
279.570	27.844	1184.471	952.040
280.585	27.909	1183.123	951.214
281.599	27.990	1182.367	950.944
282.614	27.809	1181.883	949.529
283.628	27.854	1180.818	948.824
284.643	27.970	1179.757	948.486
285.657	27.920	1178.979	947.520
286.672	28.022	1177.766	946.989
287.687	27.973	1177.236	946.225
288.701	28.016	1176.861	946.061
289.716	28.060	1175.957	945.478
290.730	28.126	1174.821	944.824
291.745	27.993	1175.188	944.347
292.760	28.020	1174.587	943.919
293.774	28.093	1173.830	943.606
294.789	28.126	1173.176	943.164
295.803	28.062	1172.890	942.522
296.818	28.071	1171.709	941.539
297.833	28.053	1171.132	940.895
298.847	28.121	1170.547	940.692
299.862	28.112	1170.173	940.264
300.876	28.059	1169.301	939.205
301.891	28.121	1168.275	938.616
302.906	28.067	1168.330	938.303
303.920	28.177	1167.634	938.226
304.935	28.146	1166.625	937.173
305.949	28.259	1165.857	937.048
306.964	28.265	1165.291	936.541
307.979	28.269	1164.783	936.073
308.993	28.349	1164.059	935.817
310.008	28.352	1163.293	935.135
311.022	28.223	1162.781	933.983
312.037	28.294	1161.650	933.350
313.052	28.209	1161.167	932.449
314.066	28.288	1160.036	931.861
315.081	28.215	1159.585	931.045
316.095	28.162	1159.450	930.584
317.110	28.201	1158.658	930.061
318.125	28.316	1157.820	929.891
319.139	28.335	1156.953	929.208
320.154	28.305	1156.571	928.667
321.168	28.379	1156.033	928.529
322.183	28.287	1155.330	927.415
323.197	28.235	1155.297	927.046
324.212	28.331	1153.996	926.403
325.227	28.405	1153.807	926.543
326.241	28.270	1153.629	925.638
327.256	28.382	1152.621	925.313
328.270	28.451	1151.396	924.597
329.285	28.519	1150.549	924.175
330.300	28.343	1150.278	922.988
331.314	28.267	1149.625	922.000
332.329	28.440	1148.584	921.953
333.343	28.475	1147.920	921.516
334.358	28.452	1146.962	920.550
335.373	28.582	1146.151	920.468
336.387	28.517	1145.792	919.775
337.402	28.688	1144.823	919.773
338.416	28.640	1144.073	918.848
339.431	28.546	1144.014	918.249
340.446	28.565	1143.691	918.004
341.460	28.515	1142.773	916.935
342.475	28.593	1141.701	916.384
343.489	28.543	1141.009	915.495
344.504	28.615	1139.980	914.952
345.519	28.578	1139.097	913.977
346.533	28.596	1138.683	913.654
347.548	28.631	1137.894	913.114
348.562	28.632	1137.271	912.534
349.577	28.692	1136.385	912.044
350.592	28.613	1135.937	911.208
351.606	28.474	1135.245	909.887
352.621	28.697	1134.331	910.177
353.635	28.553	1134.148	909.235
354.650	28.764	1133.258	909.487
355.665	28.593	1132.817	908.208
356.679	28.686	1132.095	908.009
357.694	28.899	1131.228	908.286
358.708	28.780	1131.187	907.581
359.723	28.749	1130.028	906.422
360.738	28.749	1129.521	905.933
361.752	28.770	1128.765	905.349
362.767	28.804	1128.245	905.022
363.781	28.819	1127.657	904.543
364.796	28.845	1127.450	904.423
365.810	28.789	1126.692	903.458
366.825	28.773	1126.159	902.876
367.840	28.902	1125.520	902.913
368.854	28.814	1125.270	902.203
369.869	28.808	1124.669	901.613
370.883	28.865	1123.722	901.053
371.898	28.945	1122.851	900.667
372.913	28.882	1122.165	899.728
373.927	28.911	1121.731	899.442
374.942	29.078	1121.312	899.842
375.956	28.995	1120.634	898.815
376.971	28.947	1120.132	898.099
377.986	28.862	1119.916	897.427
379.000	28.915	1119.286	897.104
380.015	29.077	1118.524	897.201
381.029	29.068	1117.562	896.307
382.044	29.099	1117.087	896.000
383.059	28.970	1116.440	894.776
384.073	29.016	1116.061	894.613
385.088	29.018	1115.087	893.766
386.102	29.230	1113.958	893.809
387.117	28.976	1113.692	892.286
388.132	29.035	1112.566	891.588
389.146	29.059	1111.823	891.032
390.161	29.114	1111.018	890.571
391.175	29.092	1110.378	889.877
392.190	29.193	1110.119	890.075
393.205	29.208	1109.116	889.268
394.219	29.139	1108.744	888.558
395.234	29.155	1108.081	888.023
396.248	29.172	1107.063	887.212
397.263	29.186	1106.106	886.434
398.278	29.229	1105.686	886.225
399.292	29.152	1105.311	885.475
400.307	29.221	1104.797	885.318
401.321	29.274	1104.340	885.125
402.336	29.201	1103.485	884.014
403.350	29.234	1102.599	883.383
404.365	29.361	1101.918	883.365
405.380	29.426	1101.102	882.946
406.394	29.393	1100.446	882.185
407.409	29.283	1099.846	881.099
408.423	29.338	1099.011	880.615
409.438	29.358	1098.558	880.269
410.453	29.436	1097.804	879.959
411.467	29.497	1096.690	879.280
412.482	29.381	1096.271	878.316
413.496	29.517	1095.745	878.460
414.511	29.492	1094.825	877.527
415.526	29.561	1094.402	877.440
416.540	29.431	1094.186	876.568
417.555	29.471	1093.815	876.384
418.569	29.541	1093.007	875.992
419.584	29.454	1092.754	875.301
420.599	29.529	1092.589	875.445
421.613	102.120	1321.504	1453.880
422.628	95.226	1354.835	1453.988
