DTS Sentinel unit serial number:	SN413079Multiplexer serial number:	ORYXHardware model number:	OX4-SRSoftware version number:	ORYX F/W v4.00 Oryx Data Collector v3.7.2.0data status	okinstallation	princeton_trtdifferential loss correction	single-endedforward channel	channel 2reverse channel	N/Adate	2019/09/16time	02:31:34forward acquisition time	60.00reverse acquisition time	0.00gamma	496.2192k internal	0.2335k external	0.2335temperature offset calibration	0.9970default loss term (dB/km)	0.3790temperature slope calibration	1.0000multiplexer offset coefficient	1.0000multiplexer slope coefficient	1.0000fibre end	0.00T internal ref (°C)	27.67T ext. ref 1 (°C)	10.28T ext. ref 2 (°C)	22.62length (m)	temperature (°C)	Stokes	anti-Stokes-747.200	-200.000	-0.044	-0.258
-746.185	273.933	-0.135	0.240
-745.171	-39.863	-0.197	-0.103
-744.156	102.839	-0.173	0.204
-743.142	2.819	-0.279	0.203
-742.127	-51.400	0.218	0.103
-741.112	-55.037	0.043	0.020
-740.098	-142.471	-0.250	-0.025
-739.083	-26.692	0.173	-0.102
-738.069	-119.275	-0.212	0.037
-737.054	26.720	0.020	0.017
-736.039	-88.033	-0.259	-0.078
-735.025	46.534	0.070	0.066
-734.010	316.889	-0.039	-0.075
-732.996	32.346	-0.213	-0.185
-731.981	-183.815	-0.308	0.005
-730.966	-129.460	0.232	0.032
-729.952	631.732	-0.103	-0.261
-728.937	116.643	-0.136	-0.167
-727.923	319.044	0.104	-0.198
-726.908	-48.380	0.228	0.110
-725.894	-200.000	0.048	0.218
-724.879	202.683	-0.073	0.113
-723.864	-128.608	0.483	-0.069
-722.850	-104.047	0.203	-0.048
-721.835	-59.731	0.275	-0.118
-720.821	87.899	-0.277	0.308
-719.806	92.887	-0.129	-0.146
-718.791	800.000	-0.085	-0.347
-717.777	74.635	-0.101	0.106
-716.762	567.288	0.068	0.165
-715.748	308.290	-0.091	-0.171
-714.733	-31.677	0.201	0.114
-713.718	785.812	-0.030	-0.081
-712.704	-77.788	0.046	0.016
-711.689	-200.000	-0.001	0.065
-710.675	-28.995	0.190	-0.110
-709.660	-200.000	0.000	0.069
-708.645	482.497	-0.072	-0.165
-707.631	800.000	-0.031	0.115
-706.616	-200.000	-0.033	-0.331
-705.602	-25.752	-0.197	-0.116
-704.587	-99.134	0.158	-0.040
-703.572	-200.000	-0.045	-0.293
-702.558	-50.456	-0.216	-0.102
-701.543	406.022	-0.099	-0.209
-700.529	-62.818	-0.189	-0.079
-699.514	-82.817	-0.152	0.049
-698.499	-126.892	-0.306	-0.045
-697.485	188.482	-0.150	-0.224
-696.470	521.713	0.200	-0.472
-695.456	800.000	0.047	-0.203
-694.441	-200.000	0.049	-0.270
-693.426	-52.197	0.155	0.072
-692.412	800.000	0.030	-0.097
-691.397	800.000	0.032	0.135
-690.383	64.024	0.153	0.154
-689.368	-200.000	0.003	-0.125
-688.354	-34.639	0.260	0.142
-687.339	511.323	0.026	0.060
-686.324	-200.000	-0.005	0.268
-685.310	-34.467	-0.110	0.061
-684.295	-200.000	0.016	-0.407
-683.281	-71.363	0.055	0.021
-682.266	-104.719	-0.139	-0.032
-681.251	101.025	-0.141	0.165
-680.237	29.283	-0.100	-0.085
-679.222	-7.867	-0.231	-0.157
-678.208	-200.000	0.036	0.211
-677.193	-200.000	-0.001	0.278
-676.178	800.000	0.051	0.200
-675.164	162.718	-0.198	-0.279
-674.149	81.097	0.334	0.362
-673.135	-104.467	-0.099	-0.023
-672.120	-95.720	0.170	0.046
-671.105	69.240	0.077	-0.080
-670.091	-67.254	0.117	-0.046
-669.076	4.115	-0.268	0.197
-668.062	462.086	0.110	-0.247
-667.047	-89.524	0.379	-0.111
-666.032	-200.000	0.038	-0.234
-665.018	-86.289	0.152	-0.047
-664.003	246.622	-0.079	0.133
-662.989	800.000	-0.070	-0.225
-661.974	-41.576	0.269	0.139
-660.959	61.199	0.236	-0.235
-659.945	269.529	0.168	-0.295
-658.930	9.270	0.232	-0.176
-657.916	-81.063	0.242	0.080
-656.901	800.000	-0.051	0.205
-655.886	-1.644	0.032	0.022
-654.872	-200.000	0.021	0.103
-653.857	48.853	-0.049	0.046
-652.843	259.891	-0.151	0.262
-651.828	-158.400	0.216	-0.013
-650.814	-62.895	0.156	0.064
-649.799	-200.000	0.039	-0.221
-648.784	800.000	0.021	-0.066
-647.770	1.816	-0.185	0.134
-646.755	-1.454	-0.066	0.046
-645.741	800.000	-0.049	0.166
-644.726	-82.840	0.082	0.027
-643.711	-89.621	-0.196	0.057
-642.697	-95.454	-0.137	0.037
-641.682	-56.142	-0.094	-0.042
-640.668	-86.075	-0.235	-0.073
-639.653	18.431	0.030	0.024
-638.638	-146.652	-0.268	-0.023
-637.624	-200.000	-0.031	-0.228
-636.609	93.272	-0.135	-0.153
-635.595	14.368	0.304	0.237
-634.580	-40.965	-0.248	-0.129
-633.565	-52.302	0.274	0.127
-632.551	-189.532	-0.174	-0.002
-631.536	40.336	0.314	-0.283
-630.522	-200.000	-0.023	-0.327
-629.507	342.992	-0.044	-0.086
-628.492	-200.000	0.072	-0.354
-627.478	-129.512	0.081	0.011
-626.463	800.000	-0.023	0.080
-625.449	-6.651	-0.194	-0.132
-624.434	-85.843	0.040	-0.012
-623.419	-26.056	0.060	0.035
-622.405	278.490	-0.046	0.082
-621.390	-71.939	-0.346	-0.129
-620.376	-38.754	-0.292	0.154
-619.361	-47.916	-0.072	0.035
-618.346	-132.244	-0.628	-0.081
-617.332	-200.000	0.002	-0.145
-616.317	-200.000	-0.018	0.281
-615.303	800.000	-0.106	-0.298
-614.288	156.106	0.161	0.222
-613.273	800.000	0.098	0.281
-612.259	35.708	0.257	-0.225
-611.244	29.279	-0.089	0.076
-610.230	331.290	-0.021	0.040
-609.215	-200.000	-0.016	-0.219
-608.201	800.000	-0.047	0.186
-607.186	-126.010	-0.309	-0.046
-606.171	52.554	0.108	-0.103
-605.157	-132.365	-0.324	-0.042
-604.142	675.776	-0.124	0.322
-603.128	-200.000	-0.013	0.067
-602.113	516.981	0.046	-0.107
-601.098	26.554	0.303	-0.254
-600.084	44.116	0.147	-0.135
-599.069	0.016	-0.276	-0.196
-598.055	-132.876	0.564	0.072
-597.040	452.677	0.018	-0.040
-596.025	-23.656	0.155	-0.093
-595.011	19.012	-0.238	0.191
-593.996	235.068	0.114	0.189
-592.982	-88.854	-0.298	0.088
-591.967	121.474	-0.127	-0.158
-590.952	174.088	-0.108	-0.156
-589.938	-14.376	0.205	-0.132
-588.923	-1.310	0.287	-0.203
-587.909	-21.056	-0.047	0.029
-586.894	-172.240	0.414	0.013
-585.879	131.911	0.117	-0.151
-584.865	-200.000	-0.044	-0.285
-583.850	-200.000	-0.001	0.063
-582.836	36.589	-0.014	0.012
-581.821	-180.690	0.322	0.007
-580.806	-200.000	0.038	0.240
-579.792	-119.683	0.006	0.001
-578.777	162.738	-0.159	-0.222
-577.763	-137.959	-0.083	-0.009
-576.748	-170.813	0.106	0.004
-575.733	12.495	-0.189	0.145
-574.719	800.000	0.012	-0.049
-573.704	-41.733	0.299	0.153
-572.690	-200.000	0.047	0.242
-571.675	-124.770	0.221	0.034
-570.661	-200.000	-0.001	0.190
-569.646	590.859	-0.050	-0.123
-568.631	-146.555	0.356	0.031
-567.617	-31.823	0.213	-0.119
-566.602	78.343	0.117	-0.125
-565.588	628.453	0.017	-0.042
-564.573	-116.831	-0.184	0.034
-563.558	-142.718	0.284	-0.028
-562.544	800.000	-0.064	-0.271
-561.529	235.625	-0.118	0.195
-560.515	-130.632	-0.114	0.015
-559.500	-91.318	0.123	-0.035
-558.485	367.543	0.191	0.385
-557.471	130.339	-0.198	-0.253
-556.456	96.771	-0.042	0.048
-555.442	-125.462	-0.204	0.031
-554.427	262.353	0.038	-0.065
-553.412	-47.520	0.154	0.075
-552.398	-112.543	-0.428	-0.085
-551.383	-195.843	-0.242	-0.002
-550.369	417.897	0.168	0.357
-549.354	26.394	0.095	-0.080
-548.339	312.437	0.192	-0.359
-547.325	800.000	0.048	0.137
-546.310	233.442	-0.213	-0.349
-545.296	68.353	0.148	0.151
-544.281	600.462	-0.040	0.098
-543.266	-145.121	-0.186	0.017
-542.252	-92.454	-0.114	-0.032
-541.237	-167.471	0.302	0.012
-540.223	-113.994	-0.485	-0.094
-539.208	131.923	-0.182	-0.234
-538.193	-98.865	0.469	-0.119
-537.179	-109.707	0.231	0.049
-536.164	800.000	-0.046	-0.149
-535.150	-200.000	-0.047	-0.297
-534.135	-196.533	-0.186	0.001
-533.121	-160.870	0.388	-0.020
-532.106	-200.000	-0.079	-0.361
-531.091	-2.570	-0.265	0.185
-530.077	-38.672	-0.047	0.025
-529.062	126.040	-0.173	-0.217
-528.048	-161.230	0.027	-0.001
-527.033	503.108	0.050	0.115
-526.018	-111.608	-0.357	0.072
-525.004	524.186	0.043	0.100
-523.989	15.019	0.177	0.138
-522.975	250.023	0.147	-0.248
-521.960	271.219	0.157	0.276
-520.945	-71.013	-0.333	0.125
-519.931	-99.473	-0.379	-0.095
-518.916	148.214	0.160	0.215
-517.902	619.159	-0.119	-0.297
-516.887	-9.970	0.252	0.167
-515.872	-34.523	0.260	-0.142
-514.858	760.765	-0.144	0.390
-513.843	800.000	0.030	-0.083
-512.829	-105.491	-0.342	-0.077
-511.814	-139.817	0.231	0.024
-510.799	-27.245	-0.033	0.019
-509.785	-5.494	0.108	-0.074
-508.770	-91.809	0.048	0.014
-507.756	-153.429	-0.329	-0.023
-506.741	-135.956	0.353	0.041
-505.726	800.000	-0.067	0.248
-504.712	-130.627	-0.131	-0.018
-503.697	-200.000	-0.029	-0.136
-502.683	108.407	-0.279	-0.331
-501.668	-77.583	-0.207	-0.071
-500.653	220.950	-0.096	0.153
-499.639	410.843	-0.226	0.478
-498.624	25.235	0.069	-0.057
-497.610	-200.000	-0.021	-0.394
-496.595	10.565	0.197	0.150
-495.581	38.429	0.160	0.142
-494.566	249.390	-0.125	-0.211
-493.551	-17.878	0.296	-0.185
-492.537	-10.806	0.145	0.095
-491.522	554.896	-0.098	0.236
-490.508	-91.111	0.390	-0.111
-489.493	800.000	-0.022	-0.091
-488.478	-200.000	0.014	0.403
-487.464	100.518	-0.122	-0.140
-486.449	-78.044	-0.078	0.027
-485.435	-42.987	-0.232	-0.117
-484.420	-200.000	-0.042	-0.259
-483.405	98.822	0.182	-0.209
-482.391	-20.631	-0.283	0.173
-481.376	93.794	0.158	0.178
-480.362	467.665	-0.101	0.225
-479.347	64.251	0.095	0.095
-478.332	-31.918	0.158	-0.088
-477.318	-200.000	-0.041	0.462
-476.303	-200.000	0.069	-0.422
-475.289	-163.057	-0.239	0.011
-474.274	-112.874	-0.213	-0.042
-473.259	426.279	0.130	-0.278
-472.245	-200.000	0.061	-0.292
-471.230	91.852	-0.260	-0.291
-470.216	7.509	0.252	-0.187
-469.201	-59.829	0.053	0.023
-468.186	489.622	0.082	0.187
-467.172	-56.459	-0.110	-0.048
-466.157	-187.313	-0.423	0.006
-465.143	175.320	0.230	0.332
-464.128	-64.459	0.123	0.050
-463.113	-200.000	0.032	-0.201
-462.099	-8.829	-0.217	-0.144
-461.084	110.852	-0.113	0.135
-460.070	366.084	0.083	0.166
-459.055	101.785	-0.073	-0.084
-458.040	-66.092	0.054	0.021
-457.026	-44.423	-0.431	-0.214
-456.011	519.842	-0.096	0.225
-454.997	-79.422	0.084	0.028
-453.982	168.273	-0.225	0.318
-452.968	5.382	-0.247	0.181
-451.953	32.636	0.363	0.312
-450.938	-200.000	-0.002	-0.091
-449.924	-130.619	0.123	0.017
-448.909	-37.862	-0.241	-0.127
-447.895	215.944	-0.209	-0.330
-446.880	-200.000	-0.006	-0.233
-445.865	176.846	-0.091	-0.131
-444.851	283.296	0.224	-0.399
-443.836	800.000	-0.074	-0.213
-442.822	-69.473	-0.080	-0.030
-441.807	-28.152	0.195	0.112
-440.792	-200.000	-0.010	0.099
-439.778	-95.825	0.493	-0.131
-438.763	474.255	-0.087	0.195
-437.749	-130.708	-0.234	-0.031
-436.734	-120.261	0.222	-0.038
-435.719	-105.188	0.490	-0.111
-434.705	15.971	0.055	0.043
-433.690	39.790	0.286	-0.254
-432.676	120.861	0.229	0.283
-431.661	-96.276	-0.279	0.073
-430.646	-14.358	0.091	-0.058
-429.632	-33.244	-0.267	-0.147
-428.617	65.485	-0.102	-0.103
-427.603	-200.000	-0.036	0.311
-426.588	-38.101	-0.292	-0.154
-425.573	11.140	-0.226	-0.172
-424.559	800.000	0.046	-0.143
-423.544	-85.245	0.290	0.090
-422.530	-200.000	0.047	0.518
-421.515	33.233	-0.073	0.063
-420.500	-52.660	-0.276	0.127
-419.486	128.513	0.123	-0.156
-418.471	800.000	-0.018	0.051
-417.457	286.239	0.175	0.313
-416.442	39.622	0.020	0.018
-415.428	55.017	0.199	-0.191
-414.413	-17.281	0.165	-0.103
-413.398	152.517	0.130	-0.176
-412.384	-86.891	0.160	-0.048
-411.369	800.000	-0.079	-0.323
-410.355	-4.182	0.239	-0.164
-409.340	9.006	-0.262	-0.196
-408.325	646.138	-0.122	-0.309
-407.311	-56.145	0.346	0.153
-406.296	800.000	0.099	0.314
-405.282	136.386	-0.231	0.299
-404.267	800.000	-0.100	-0.391
-403.252	-93.176	0.213	-0.059
-402.238	-78.019	0.371	-0.127
-401.223	135.458	-0.164	-0.211
-400.209	-139.230	-0.209	-0.022
-399.194	-193.232	0.215	-0.002
-398.179	-71.782	0.206	0.076
-397.165	-200.000	-0.024	-0.267
-396.150	-75.241	-0.460	0.163
-395.136	-7.997	0.236	-0.158
-394.121	-139.641	0.130	-0.014
-393.106	112.873	0.065	-0.078
-392.092	240.130	-0.140	0.232
-391.077	38.224	-0.175	0.155
-390.063	221.794	0.162	0.258
-389.048	-200.000	0.020	0.132
-388.033	-42.455	-0.011	-0.005
-387.019	800.000	-0.070	0.284
-386.004	296.025	0.120	0.217
-384.990	1.858	0.175	0.125
-383.975	2.085	-0.183	-0.131
-382.960	490.961	0.132	0.300
-381.946	-200.000	0.044	0.358
-380.931	-104.595	0.307	-0.070
-379.917	-0.210	0.493	-0.348
-378.902	228.561	0.102	0.164
-377.888	800.000	-0.048	0.155
-376.873	-94.788	-0.248	0.067
-375.858	-200.000	0.000	-0.093
-374.844	702.998	-0.105	-0.275
-373.829	163.671	0.189	0.264
-372.815	26.184	-0.165	0.137
-371.800	36.382	-0.139	0.122
-370.785	800.000	0.004	-0.013
-369.771	800.000	-0.099	0.311
-368.756	-200.000	-0.057	0.473
-367.742	243.745	-0.106	0.176
-366.727	661.449	0.062	-0.158
-365.712	-142.024	0.368	-0.036
-364.698	-200.000	-0.031	-0.419
-363.683	-76.687	-0.155	0.054
-362.669	-200.000	-0.072	-0.331
-361.654	20.323	-0.169	-0.135
-360.639	-200.000	-0.051	-0.222
-359.625	-200.000	-0.017	-0.244
-358.610	50.210	0.146	0.137
-357.596	-27.928	-0.108	-0.062
-356.581	-28.761	-0.482	-0.275
-355.566	-118.950	0.205	-0.036
-354.552	-89.443	-0.094	0.027
-353.537	83.788	0.089	0.096
-352.523	-168.378	-0.079	0.003
-351.508	-176.714	0.074	-0.002
-350.493	-54.206	0.279	0.126
-349.479	620.217	-0.090	-0.224
-348.464	-82.901	0.144	-0.046
-347.450	554.410	-0.105	0.250
-346.435	-104.697	0.222	0.050
-345.420	291.694	0.213	0.384
-344.406	-114.876	0.353	-0.067
-343.391	504.292	0.153	-0.351
-342.377	-11.775	-0.235	0.152
-341.362	43.137	0.163	-0.147
-340.348	-200.000	-0.080	0.474
-339.333	301.067	0.142	0.260
-338.318	-178.068	-0.187	-0.004
-337.304	1.146	-0.110	-0.078
-336.289	183.937	0.110	0.161
-335.275	126.898	-0.069	-0.086
-334.260	-151.072	-0.232	0.017
-333.245	11.153	-0.090	0.068
-332.231	-148.440	0.146	-0.012
-331.216	80.072	-0.235	-0.250
-330.202	376.213	-0.084	-0.169
-329.187	-29.338	-0.150	0.085
-328.172	34.799	-0.024	0.021
-327.158	-118.671	0.178	0.031
-326.143	-84.694	0.391	-0.122
-325.129	-15.858	-0.193	0.121
-324.114	278.350	0.041	-0.073
-323.099	-69.612	-0.330	0.125
-322.085	107.018	-0.253	-0.297
-321.070	-38.492	0.119	0.062
-320.056	-200.000	-0.034	0.182
-319.041	-41.224	0.215	0.110
-318.026	-31.097	0.147	0.082
-317.012	56.355	0.061	0.058
-315.997	127.934	-0.260	-0.327
-314.983	744.868	-0.045	0.120
-313.968	-30.007	-0.158	0.089
-312.953	800.000	-0.010	-0.031
-311.939	1.119	-0.235	-0.166
-310.924	-200.000	0.005	-0.025
-309.910	57.439	-0.092	-0.088
-308.895	-167.444	0.174	0.007
-307.880	11.954	-0.176	0.133
-306.866	-200.000	-0.025	-0.236
-305.851	-102.699	-0.449	-0.106
-304.837	-90.336	-0.089	0.026
-303.822	130.605	0.110	-0.139
-302.807	-112.094	-0.398	-0.079
-301.793	-87.810	0.022	-0.006
-300.778	609.580	0.182	0.450
-299.764	-74.120	0.320	0.115
-298.749	107.226	-0.126	0.148
-297.735	301.070	-0.054	-0.098
-296.720	-200.000	-0.011	-0.144
-295.705	-45.712	0.251	0.123
-294.691	-28.591	0.154	0.088
-293.676	-200.000	0.018	-0.374
-292.662	61.438	-0.121	0.119
-291.647	-108.194	0.079	0.017
-290.632	-145.282	-0.095	0.009
-289.618	335.905	-0.130	0.249
-288.603	-129.609	0.318	0.043
-287.589	-200.000	-0.026	-0.175
-286.574	-200.000	-0.040	-0.486
-285.559	-200.000	-0.011	-0.101
-284.545	800.000	0.021	0.062
-283.530	800.000	-0.102	0.310
-282.516	-132.814	0.168	0.021
-281.501	-29.138	-0.060	0.034
-280.486	-200.000	-0.050	0.451
-279.472	-184.257	-0.067	0.001
-278.457	11.952	-0.162	-0.123
-277.443	800.000	0.030	0.097
-276.428	-96.808	-0.200	-0.052
-275.413	-154.173	-0.141	-0.009
-274.399	12.697	0.117	-0.089
-273.384	-55.751	-0.186	-0.082
-272.370	57.726	-0.269	0.260
-271.355	81.398	-0.137	-0.146
-270.340	-76.376	0.258	-0.090
-269.326	-106.948	-0.169	0.037
-268.311	-38.528	-0.204	-0.106
-267.297	176.288	-0.094	0.135
-266.282	0.423	-0.264	0.186
-265.267	-7.392	0.142	-0.095
-264.253	195.829	0.142	0.213
-263.238	-200.000	0.023	0.118
-262.224	-200.000	-0.446	-0.002
-261.209	-200.000	0.006	0.080
-260.195	76.538	-0.184	-0.192
-259.180	800.000	0.047	-0.150
-258.165	-187.612	0.154	-0.002
-257.151	-200.000	-0.004	-0.263
-256.136	800.000	0.044	-0.131
-255.122	480.820	-0.082	0.185
-254.107	-86.215	0.543	0.165
-253.092	-56.119	-0.131	-0.058
-252.078	-2.550	-0.114	0.079
-251.063	800.000	0.044	0.178
-250.049	-200.000	0.004	-0.028
-249.034	800.000	0.044	-0.130
-248.019	-200.000	0.063	0.324
-247.005	-200.000	-0.016	0.078
-245.990	83.514	-0.114	0.123
-244.976	38.787	-0.223	0.197
-243.961	-200.000	-0.013	-0.073
-242.946	-200.000	0.004	-0.212
-241.932	-124.941	-0.116	0.018
-240.917	-133.712	0.178	0.022
-239.903	320.366	0.033	0.062
-238.888	22.375	-0.093	0.075
-237.873	-142.030	0.270	-0.026
-236.859	-200.000	0.043	-0.361
-235.844	-51.944	0.319	0.146
-234.830	366.135	-0.195	0.387
-233.815	12.982	0.333	-0.254
-232.800	-181.420	-0.241	0.005
-231.786	219.142	0.036	0.056
-230.771	336.548	0.105	0.201
-229.757	-200.000	-0.076	0.330
-228.742	-200.000	-0.023	0.297
-227.727	-60.091	-0.166	-0.070
-226.713	-200.000	-0.005	-0.334
-225.698	-200.000	-0.041	-0.194
-224.684	-200.000	0.012	-0.284
-223.669	-200.000	-0.021	-0.156
-222.655	42.167	-0.140	-0.125
-221.640	67.150	0.032	0.032
-220.625	800.000	0.038	0.152
-219.611	746.458	-0.116	0.308
-218.596	-146.416	0.270	0.023
-217.582	5.059	0.289	-0.209
-216.567	-200.000	0.043	0.334
-215.552	-200.000	0.034	0.255
-214.538	800.000	-0.122	0.357
-213.523	-89.718	-0.245	0.071
-212.509	27.971	-0.268	-0.223
-211.494	493.224	-0.099	0.224
-210.479	117.521	-0.119	-0.144
-209.465	-200.000	0.026	0.289
-208.450	69.453	0.181	-0.184
-207.436	-101.760	-0.267	0.064
-206.421	-87.661	0.062	0.018
-205.406	42.791	-0.167	-0.150
-204.392	-60.625	0.347	0.145
-203.377	-200.000	0.019	-0.131
-202.363	-60.165	0.207	-0.087
-201.348	-200.000	0.047	-0.286
-200.333	50.715	0.277	0.258
-199.319	236.162	0.299	-0.487
-198.304	-119.585	0.031	0.005
-197.290	-100.761	-0.116	-0.028
-196.275	-130.118	-0.203	0.027
-195.260	-61.618	0.067	-0.028
-194.246	181.152	0.133	0.192
-193.231	-117.467	0.341	0.061
-192.217	-0.510	-0.214	-0.149
-191.202	68.009	0.094	-0.095
-190.187	32.909	-0.241	0.205
-189.173	127.421	0.199	-0.248
-188.158	-40.837	-0.120	0.061
-187.144	-26.483	0.028	0.016
-186.129	414.150	0.103	-0.215
-185.114	-200.000	-0.091	0.000
-184.100	800.000	0.101	-0.307
-183.085	-200.000	-0.059	-0.281
-182.071	-200.000	0.009	-0.071
-181.056	800.000	0.052	0.208
-180.042	800.000	-0.193	0.530
-179.027	-25.041	0.270	0.157
-178.012	-87.282	0.192	-0.057
-176.998	-200.000	0.027	-0.119
-175.983	800.000	0.063	-0.205
-174.969	-200.000	-0.002	-0.058
-173.954	149.095	0.151	0.200
-172.939	774.528	0.115	0.309
-171.925	-200.000	-0.000	-0.268
-170.910	34.522	-0.037	0.031
-169.896	-200.000	0.024	0.500
-168.881	55.218	0.152	0.144
-167.866	49.565	0.145	0.134
-166.852	-132.978	0.174	-0.022
-165.837	211.462	-0.096	0.149
-164.823	-17.153	0.145	-0.090
-163.808	-113.522	-0.272	-0.052
-162.793	-110.278	-0.274	0.056
-161.779	11.094	0.085	-0.064
-160.764	-130.255	0.430	-0.057
-159.750	77.205	0.269	-0.281
-158.735	-33.983	0.376	0.203
-157.720	-57.636	-0.243	0.105
-156.706	800.000	0.083	0.261
-155.691	87.675	0.143	0.156
-154.677	19.112	0.132	-0.104
-153.662	800.000	0.012	0.045
-152.647	246.428	-0.038	0.063
-151.633	-25.946	-0.217	0.126
-150.618	800.000	-0.045	-0.131
-149.604	352.330	0.096	0.187
-148.589	800.000	0.041	0.142
-147.574	538.203	0.036	-0.084
-146.560	2.842	0.165	0.118
-145.545	299.495	-0.057	0.104
-144.531	800.000	-0.037	0.133
-143.516	289.934	0.124	0.220
-142.502	-137.918	0.351	-0.038
-141.487	-51.052	0.277	-0.127
-140.472	14.450	0.247	0.189
-139.458	-200.000	0.015	0.342
-138.443	121.326	-0.033	-0.040
-137.429	679.603	0.104	0.267
-136.414	130.996	-0.117	0.147
-135.399	-20.800	0.080	0.048
-134.385	16.646	0.153	-0.119
-133.370	641.398	0.045	0.111
-132.356	58.875	0.172	-0.165
-131.341	201.483	0.255	-0.385
-130.326	-160.019	0.126	-0.007
-129.312	-169.390	0.356	0.013
-128.297	800.000	0.070	0.267
-127.283	181.004	0.169	-0.244
-126.268	3.384	0.131	-0.094
-125.253	-121.468	-0.101	-0.016
-124.239	800.000	0.041	-0.154
-123.224	-23.511	-0.356	-0.209
-122.210	114.470	0.119	0.142
-121.195	732.495	0.089	-0.233
-120.180	109.622	-0.427	-0.501
-119.166	18.631	-0.219	-0.172
-118.151	-45.652	0.187	-0.091
-117.137	-61.604	0.069	-0.028
-116.122	-50.974	-0.165	-0.076
-115.107	144.446	-0.183	0.239
-114.093	171.048	0.236	-0.331
-113.078	78.722	-0.080	-0.084
-112.064	-90.486	0.075	-0.021
-111.049	-85.472	-0.138	-0.042
-110.034	-16.439	-0.045	-0.028
-109.020	485.411	-0.051	0.113
-108.005	-200.000	-0.026	0.144
-106.991	-71.032	0.322	-0.119
-105.976	-200.000	-0.030	-0.200
-104.962	800.000	0.016	0.049
-103.947	-55.800	0.223	0.098
-102.932	-68.907	-0.226	0.085
-101.918	-200.000	-0.167	0.000
-100.903	131.240	-0.162	0.204
-99.889	13.487	0.218	-0.166
-98.874	-94.408	-0.229	-0.061
-97.859	-145.189	0.361	-0.032
-96.845	-160.397	0.131	-0.007
-95.830	-99.461	0.097	0.024
-94.816	-39.227	-0.139	0.072
-93.801	72.398	0.049	-0.050
-92.786	-103.282	0.458	-0.106
-91.772	-109.511	0.393	-0.081
-90.757	800.000	0.040	0.141
-89.743	143.790	0.053	-0.069
-88.728	-147.968	-0.093	0.008
-87.713	-33.402	-0.078	-0.042
-86.699	-96.320	-0.136	-0.035
-85.684	324.917	-0.067	-0.126
-84.670	471.545	-0.113	0.248
-83.655	13.947	-0.162	-0.124
-82.640	-0.978	-0.177	-0.123
-81.626	61.848	-0.216	-0.211
-80.611	-11.224	0.227	-0.146
-79.597	-88.806	-0.235	0.068
-78.582	-200.000	-0.019	-0.238
-77.567	800.000	-0.009	0.034
-76.553	-104.316	0.192	-0.044
-75.538	-200.000	-0.029	-0.224
-74.524	-135.890	0.294	-0.034
-73.509	-68.311	-0.056	-0.021
-72.494	-7.593	-0.121	0.080
-71.480	-18.433	-0.316	-0.193
-70.465	-96.979	0.274	0.070
-69.451	620.009	0.111	-0.272
-68.436	-200.000	0.030	-0.151
-67.422	684.522	0.103	-0.263
-66.407	-138.208	0.210	-0.023
-65.392	-21.647	0.098	0.058
-64.378	-62.402	0.234	0.095
-63.363	123.602	0.204	-0.250
-62.349	-41.125	0.263	0.133
-61.334	148.192	-0.904	-1.194
-60.319	121.717	0.454	0.554
-59.305	800.000	-0.309	-1.073
-58.290	181.451	0.814	1.172
-57.276	157.792	0.989	1.340
-56.261	-200.000	111.583	636.237
-55.246	475.741	1498.207	3310.239
-54.232	147.742	2673.252	3524.167
-53.217	97.614	2286.106	2569.625
-52.203	36.627	1900.098	1640.966
-51.188	30.811	1691.592	1416.741
-50.173	28.358	1650.040	1363.655
-49.159	49.790	1704.409	1571.090
-48.144	48.802	1719.403	1577.390
-47.130	30.533	1677.277	1402.435
-46.115	27.788	1663.239	1370.063
-45.100	27.599	1658.594	1364.765
-44.086	27.599	1655.927	1362.522
-43.071	27.498	1653.084	1359.371
-42.057	27.510	1650.946	1357.653
-41.042	27.507	1648.665	1355.702
-40.027	27.614	1646.449	1354.615
-39.013	27.554	1644.778	1352.746
-37.998	27.591	1643.247	1351.704
-36.984	27.490	1642.267	1350.097
-35.969	27.641	1640.597	1349.793
-34.954	27.689	1638.971	1348.750
-33.940	27.634	1637.024	1346.690
-32.925	27.656	1635.070	1345.194
-31.911	27.606	1633.680	1343.625
-30.896	27.700	1631.404	1342.395
-29.881	27.612	1630.468	1340.920
-28.867	27.625	1628.369	1339.237
-27.852	27.705	1627.050	1338.688
-26.838	27.675	1625.588	1337.212
-25.823	27.688	1624.357	1336.242
-24.809	27.713	1622.637	1334.958
-23.794	27.755	1621.460	1334.243
-22.779	27.721	1619.934	1332.683
-21.765	27.704	1618.501	1331.327
-20.750	27.656	1616.744	1329.480
-19.736	27.687	1615.779	1328.864
-18.721	27.660	1614.487	1327.546
-17.706	27.681	1612.729	1326.201
-16.692	27.714	1611.207	1325.141
-15.677	27.710	1609.892	1323.977
-14.663	27.744	1608.502	1323.024
-13.648	27.747	1607.081	1321.830
-12.633	27.728	1605.582	1320.402
-11.619	27.730	1604.150	1319.189
-10.604	27.613	1602.929	1317.289
-9.590	27.654	1601.648	1316.481
-8.575	27.657	1600.347	1315.377
-7.560	27.832	1599.048	1315.519
-6.546	27.784	1597.914	1314.187
-5.531	27.725	1596.815	1312.808
-4.517	27.645	1596.284	1311.747
-3.502	27.717	1594.556	1310.786
-2.487	27.741	1592.986	1309.617
-1.473	27.463	1581.587	1298.214
-0.458	24.941	1562.178	1264.446
0.556	19.826	1563.841	1235.147
1.571	17.635	1588.113	1238.298
2.586	17.302	1601.104	1245.883
3.600	16.643	1550.955	1202.070
4.615	13.746	1452.042	1106.017
5.629	10.909	1396.657	1045.520
6.644	10.387	1389.782	1036.944
7.659	10.291	1388.407	1035.213
8.673	10.191	1387.688	1033.943
9.688	10.241	1385.747	1032.724
10.702	10.273	1382.003	1030.045
11.717	11.607	1384.259	1040.133
12.731	14.823	1390.500	1065.264
13.746	17.372	1393.196	1083.488
14.761	17.485	1392.802	1083.808
15.775	16.555	1390.536	1076.037
16.790	15.404	1388.020	1066.680
17.804	14.800	1384.535	1060.074
18.819	14.335	1383.238	1056.039
19.834	13.941	1382.245	1052.693
20.848	13.674	1381.197	1050.111
21.863	13.378	1380.205	1047.393
22.877	13.360	1378.378	1045.801
23.892	13.293	1377.553	1044.658
24.907	13.263	1376.922	1043.899
25.921	13.273	1376.143	1043.275
26.936	13.326	1374.806	1042.505
27.950	13.317	1374.185	1041.886
28.965	13.344	1373.212	1041.225
29.980	13.529	1371.642	1041.105
30.994	13.601	1370.437	1040.553
32.009	13.627	1369.401	1039.836
33.023	13.619	1368.111	1038.712
34.038	13.574	1367.022	1037.511
35.053	13.407	1365.947	1035.558
36.067	13.505	1364.346	1034.867
37.082	13.434	1363.879	1033.980
38.096	13.473	1362.857	1033.354
39.111	13.465	1362.115	1032.652
40.126	13.465	1360.827	1031.582
41.140	13.317	1359.655	1029.684
42.155	13.261	1359.360	1029.017
43.169	13.299	1359.060	1028.937
44.184	13.323	1358.544	1028.608
45.199	13.172	1358.879	1027.827
46.213	13.312	1357.818	1027.804
47.228	13.382	1356.791	1027.373
48.242	13.391	1355.515	1026.371
49.257	13.232	1354.833	1024.775
50.271	13.373	1353.175	1024.307
51.286	13.329	1352.152	1023.168
52.301	13.425	1350.189	1022.184
53.315	13.380	1349.176	1021.050
54.330	13.253	1348.214	1019.451
55.344	13.235	1347.198	1018.482
56.359	13.285	1346.160	1017.913
57.374	13.319	1344.820	1017.020
58.388	13.268	1344.287	1016.212
59.403	13.198	1344.008	1015.483
60.417	13.190	1343.337	1014.835
61.432	13.157	1342.167	1013.657
62.447	13.084	1341.193	1012.383
63.461	13.151	1339.627	1011.524
64.476	13.093	1339.040	1010.635
65.490	13.102	1337.819	1009.680
66.505	13.138	1335.974	1008.422
67.520	13.189	1334.918	1007.841
68.534	13.228	1333.695	1007.067
69.549	13.300	1332.551	1006.554
70.563	13.080	1332.432	1005.039
71.578	13.061	1331.130	1003.849
72.593	12.975	1329.893	1002.305
73.607	13.083	1329.058	1002.240
74.622	12.959	1328.035	1000.633
75.636	13.094	1327.562	1001.004
76.651	12.965	1327.156	999.827
77.666	12.994	1326.474	999.403
78.680	13.127	1325.456	999.348
79.695	13.078	1325.055	998.665
80.709	13.122	1324.362	998.317
81.724	13.230	1323.268	998.055
82.739	13.246	1322.546	997.523
83.753	13.361	1321.734	997.516
84.768	13.479	1320.439	997.156
85.782	13.497	1319.183	996.233
86.797	13.389	1317.568	994.276
87.812	13.465	1316.375	993.741
88.826	13.381	1315.307	992.343
89.841	13.370	1314.469	991.557
90.855	13.487	1313.454	991.405
91.870	13.414	1312.756	990.355
92.884	13.469	1311.650	989.763
93.899	13.399	1311.510	989.152
94.914	13.462	1310.532	988.699
95.928	13.563	1309.137	988.163
96.943	13.480	1308.264	986.919
97.957	13.456	1307.223	985.909
98.972	13.490	1306.169	985.227
99.987	13.427	1305.352	984.151
101.001	13.387	1304.440	983.135
102.016	13.438	1303.020	982.280
103.030	13.450	1302.101	981.575
104.045	13.466	1301.475	981.107
105.060	13.412	1300.136	979.692
106.074	13.347	1298.887	978.283
107.089	13.225	1297.600	976.506
108.103	13.127	1296.160	974.755
109.118	13.225	1294.817	974.237
110.133	13.209	1293.422	973.006
111.147	13.201	1292.461	972.150
112.162	13.322	1290.879	971.586
113.176	13.401	1289.779	971.135
114.191	13.278	1289.101	969.819
115.206	13.354	1288.054	969.388
116.220	13.269	1286.893	967.931
117.235	13.301	1285.687	967.126
118.249	13.319	1284.638	966.361
119.264	13.192	1283.509	964.684
120.279	13.206	1282.408	963.850
121.293	13.143	1281.758	962.908
122.308	13.145	1280.552	961.931
123.322	13.221	1279.127	961.217
124.337	13.148	1278.025	959.877
125.352	13.256	1276.813	959.508
126.366	13.161	1275.967	958.236
127.381	13.146	1274.768	957.170
128.395	13.204	1273.678	956.597
129.410	13.189	1273.105	955.999
130.424	13.228	1272.263	955.505
131.439	13.262	1271.306	954.899
132.454	13.274	1270.221	954.071
133.468	13.391	1268.865	953.639
134.483	13.303	1268.390	952.694
135.497	13.328	1267.389	952.001
136.512	13.249	1266.414	950.728
137.527	13.285	1264.788	949.629
138.541	13.291	1263.279	948.450
139.556	13.329	1262.104	947.701
140.570	13.513	1260.969	947.819
141.585	13.528	1259.696	946.865
142.600	13.474	1258.907	945.880
143.614	13.540	1257.533	945.136
144.629	13.581	1256.918	944.824
145.643	13.553	1255.580	943.580
146.658	13.541	1254.436	942.564
147.673	13.455	1252.873	940.818
148.687	13.428	1251.706	939.707
149.702	13.434	1250.259	938.572
150.716	13.459	1249.039	937.713
151.731	13.470	1247.901	936.841
152.746	13.318	1247.241	935.403
153.760	13.452	1246.005	935.147
154.775	13.472	1244.625	934.139
155.789	13.597	1243.255	933.738
156.804	13.517	1242.826	932.879
157.819	13.510	1241.302	931.614
158.833	13.636	1240.528	931.663
159.848	13.680	1239.329	930.921
160.862	13.587	1237.994	929.318
161.877	13.656	1236.978	928.859
162.892	13.493	1236.314	927.362
163.906	13.485	1235.654	926.744
164.921	13.536	1234.423	926.021
165.935	13.581	1233.752	925.690
166.950	13.590	1232.861	924.987
167.964	13.663	1231.980	924.651
168.979	13.603	1231.779	924.088
169.994	13.514	1231.095	922.995
171.008	13.593	1229.996	922.530
172.023	13.679	1229.168	922.305
173.037	13.723	1228.095	921.664
174.052	13.746	1227.077	920.948
175.067	13.594	1226.232	919.387
176.081	13.583	1225.482	918.680
177.096	13.702	1223.658	917.893
178.110	13.598	1223.136	916.843
179.125	13.637	1221.627	915.844
180.140	13.779	1220.192	915.474
181.154	13.763	1219.358	914.680
182.169	13.780	1218.217	913.834
183.183	13.819	1216.941	913.013
184.198	13.818	1215.770	912.048
185.213	13.903	1214.425	911.425
186.227	13.890	1214.023	910.969
187.242	13.980	1212.787	910.458
188.256	13.906	1211.988	909.373
189.271	13.960	1210.468	908.447
190.286	13.825	1209.639	907.004
191.300	13.525	1209.502	905.181
192.315	13.606	1208.146	904.526
193.329	13.640	1207.464	904.124
194.344	13.622	1206.921	903.541
195.359	13.690	1206.484	903.503
196.373	13.870	1206.046	904.072
197.388	13.885	1205.434	903.617
198.402	13.978	1205.116	903.805
199.417	14.151	1204.430	904.149
200.432	14.071	1203.454	902.902
201.446	14.158	1202.363	902.477
202.461	14.183	1201.753	902.074
203.475	14.155	1200.523	900.921
204.490	14.130	1198.734	899.364
205.504	14.165	1198.063	898.969
206.519	14.041	1196.814	897.282
207.534	14.190	1195.548	897.060
208.548	14.097	1194.795	895.912
209.563	14.137	1194.119	895.541
210.577	14.124	1193.398	894.852
211.592	14.125	1192.233	893.904
212.607	14.363	1191.166	894.303
213.621	14.260	1190.731	893.347
214.636	14.247	1189.431	892.221
215.650	14.171	1188.657	891.153
216.665	14.302	1187.762	891.106
217.680	14.339	1186.959	890.620
218.694	14.256	1186.262	889.576
219.709	14.354	1185.316	889.314
220.723	14.344	1184.305	888.423
221.738	14.390	1183.365	887.885
222.753	14.358	1182.684	887.122
223.767	14.256	1182.452	886.329
224.782	14.451	1181.909	886.881
225.796	14.488	1181.197	886.466
226.811	14.425	1180.862	885.798
227.826	14.382	1179.754	884.660
228.840	14.372	1179.131	884.061
229.855	14.391	1178.237	883.415
230.869	14.461	1177.038	882.809
231.884	14.351	1176.336	881.621
232.899	14.364	1175.642	881.094
233.913	14.460	1174.885	880.957
234.928	14.385	1174.281	880.026
235.942	14.384	1173.631	879.459
236.957	14.302	1172.753	878.288
237.972	14.317	1172.043	877.756
238.986	14.453	1171.051	877.655
240.001	14.292	1170.943	876.650
241.015	14.399	1169.858	876.318
242.030	14.536	1168.677	876.080
243.045	14.446	1168.271	875.224
244.059	14.503	1167.507	874.871
245.074	14.573	1166.433	874.358
246.088	14.543	1165.688	873.566
247.103	14.534	1165.097	872.999
248.117	14.719	1163.961	873.035
249.132	14.667	1163.994	872.710
250.147	14.799	1163.063	872.626
251.161	14.770	1162.327	871.846
252.176	14.940	1161.577	872.090
253.190	14.965	1160.866	871.610
254.205	14.956	1160.649	871.323
255.220	14.964	1159.699	870.576
256.234	15.042	1159.123	870.470
257.249	14.910	1158.585	869.303
258.263	14.963	1157.573	868.743
259.278	15.024	1156.628	868.275
260.293	15.016	1156.413	867.997
261.307	15.045	1155.845	867.642
262.322	14.995	1155.208	866.829
263.336	15.147	1154.464	866.982
264.351	15.197	1153.931	866.763
265.366	15.093	1153.256	865.639
266.380	15.191	1152.074	865.183
267.395	15.233	1151.524	864.911
268.409	14.975	1151.224	863.276
269.424	15.072	1150.448	863.119
270.439	15.092	1149.696	862.582
271.453	15.086	1149.121	862.044
272.468	15.194	1147.947	861.641
273.482	15.096	1147.349	860.612
274.497	14.998	1147.046	859.806
275.512	15.020	1146.444	859.388
276.526	15.271	1145.037	859.545
277.541	15.187	1144.512	858.645
278.555	15.249	1143.751	858.316
279.570	15.117	1143.597	857.451
280.585	15.347	1142.545	857.763
281.599	15.362	1141.421	856.917
282.614	15.407	1140.143	856.112
283.628	15.292	1139.309	854.824
284.643	15.339	1138.361	854.277
285.657	15.306	1137.811	853.620
286.672	15.350	1136.491	852.776
287.687	15.356	1135.450	851.954
288.701	15.442	1134.898	851.900
289.716	15.392	1134.257	851.088
290.730	15.258	1134.132	850.241
291.745	15.456	1132.885	850.232
292.760	15.387	1132.588	849.586
293.774	15.462	1131.501	849.076
294.789	15.516	1131.196	849.043
295.803	15.448	1130.371	848.007
296.818	15.472	1129.722	847.563
297.833	15.471	1128.580	846.629
298.847	15.477	1128.458	846.491
299.862	15.465	1127.787	845.852
300.876	15.469	1126.665	844.956
301.891	15.597	1125.914	844.964
302.906	15.504	1125.582	844.169
303.920	15.668	1124.847	844.368
304.935	15.705	1124.059	843.889
305.949	15.649	1123.596	843.184
306.964	15.702	1122.755	842.747
307.979	15.755	1122.134	842.471
308.993	15.814	1121.346	842.098
310.008	15.701	1120.393	840.745
311.022	15.829	1119.483	840.627
312.037	15.727	1118.861	839.576
313.052	15.733	1117.821	838.749
314.066	15.620	1117.126	837.593
315.081	15.658	1116.198	837.013
316.095	15.614	1115.403	836.124
317.110	15.650	1114.732	835.722
318.125	15.717	1113.705	835.213
319.139	15.757	1113.220	834.973
320.154	15.606	1112.740	833.790
321.168	15.676	1112.344	833.768
322.183	15.738	1111.484	833.355
323.197	15.654	1110.864	832.404
324.212	15.775	1110.270	832.480
325.227	15.761	1109.920	832.076
326.241	15.833	1108.863	831.566
327.256	15.762	1108.148	830.607
328.270	15.698	1107.314	829.592
329.285	15.655	1106.390	828.615
330.300	15.874	1105.269	828.781
331.314	15.817	1104.429	827.797
332.329	15.743	1103.459	826.630
333.343	15.816	1102.548	826.233
334.358	16.061	1101.350	826.465
335.373	15.869	1100.762	825.011
336.387	15.957	1100.053	824.839
337.402	15.915	1099.528	824.166
338.416	16.074	1098.633	824.195
339.431	16.137	1098.050	823.997
340.446	16.103	1097.656	823.462
341.460	16.178	1096.660	823.005
342.475	16.235	1095.832	822.588
343.489	16.248	1094.849	821.842
344.504	16.253	1094.035	821.183
345.519	16.291	1093.773	821.101
346.533	16.278	1092.862	820.277
347.548	16.256	1092.260	819.647
348.562	16.254	1091.381	818.908
349.577	16.369	1090.085	818.418
350.592	16.072	1090.001	816.846
351.606	16.231	1089.068	816.844
352.621	16.104	1088.663	815.851
353.635	16.159	1087.817	815.411
354.650	16.095	1087.047	814.455
355.665	16.268	1086.158	814.551
356.679	16.217	1085.805	813.966
357.694	16.260	1085.468	813.850
358.708	16.290	1084.406	813.126
359.723	16.373	1083.421	812.716
360.738	16.400	1083.114	812.541
361.752	16.500	1082.165	812.240
362.767	16.335	1081.997	811.246
363.781	16.315	1081.518	810.723
364.796	16.469	1080.545	810.658
365.810	16.419	1080.403	810.240
366.825	16.522	1079.845	810.245
367.840	16.551	1079.470	810.030
368.854	16.653	1078.292	809.562
369.869	16.592	1077.705	808.761
370.883	16.648	1076.881	808.335
371.898	16.659	1075.954	807.620
372.913	16.699	1075.310	807.255
373.927	16.642	1074.753	806.495
374.942	16.616	1074.423	806.055
375.956	16.636	1074.085	805.826
376.971	16.722	1073.065	805.396
377.986	16.866	1072.374	805.489
379.000	16.775	1072.417	805.020
380.015	16.825	1071.773	804.701
381.029	16.846	1071.244	804.334
382.044	16.928	1070.254	803.908
383.059	16.829	1069.683	802.940
384.073	16.829	1069.244	802.540
385.088	16.930	1067.761	801.833
386.102	16.838	1066.808	800.608
387.117	16.870	1065.968	800.058
388.132	16.840	1065.297	799.342
389.146	16.915	1064.353	798.920
390.161	16.764	1063.768	797.696
391.175	16.906	1062.687	797.486
392.190	16.953	1062.148	797.229
393.205	17.018	1061.633	797.079
394.219	17.015	1060.426	796.088
395.234	16.843	1059.892	794.808
396.248	16.984	1058.841	794.613
397.263	16.858	1057.798	793.167
398.278	16.984	1057.243	793.271
399.292	16.935	1056.301	792.264
400.307	16.893	1055.534	791.424
401.321	16.945	1055.270	791.401
402.336	16.870	1054.637	790.503
403.350	16.904	1053.997	790.113
404.365	16.865	1053.070	789.169
405.380	16.886	1052.676	788.900
406.394	16.892	1052.092	788.421
407.409	17.012	1050.956	788.056
408.423	17.153	1050.445	788.258
409.438	17.297	1049.611	788.231
410.453	17.183	1049.084	787.235
411.467	17.248	1048.507	787.033
412.482	17.285	1047.722	786.548
413.496	17.324	1046.767	785.940
414.511	17.339	1046.444	785.697
415.526	17.305	1046.117	785.226
416.540	17.418	1045.435	785.167
417.555	17.441	1044.939	784.830
418.569	17.428	1044.315	784.231
419.584	17.432	1044.169	784.073
420.599	17.403	1043.312	783.227
421.613	104.853	1324.893	1476.407
422.628	96.324	1365.865	1476.506
