DTS Sentinel unit serial number:	SN413079Multiplexer serial number:	ORYXHardware model number:	OX4-SRSoftware version number:	ORYX F/W v4.00 Oryx Data Collector v3.7.2.0data status	okinstallation	princeton_trtdifferential loss correction	single-endedforward channel	channel 2reverse channel	N/Adate	2019/09/17time	16:43:35forward acquisition time	60.00reverse acquisition time	0.00gamma	496.2192k internal	0.2291k external	0.2291temperature offset calibration	0.9984default loss term (dB/km)	0.3790temperature slope calibration	1.0000multiplexer offset coefficient	1.0000multiplexer slope coefficient	1.0000fibre end	0.00T internal ref (°C)	42.06T ext. ref 1 (°C)	0.35T ext. ref 2 (°C)	38.62length (m)	temperature (°C)	Stokes	anti-Stokes-747.200	-49.248	0.114	0.056
-746.185	-165.602	-0.467	0.021
-745.171	-79.362	0.273	0.095
-744.156	-106.146	0.246	0.057
-743.142	49.764	0.180	0.174
-742.127	50.362	-0.144	0.139
-741.112	-115.565	-0.259	-0.050
-740.098	-200.000	-0.065	0.399
-739.083	212.972	-0.186	0.301
-738.069	800.000	0.109	0.354
-737.054	800.000	0.105	0.361
-736.039	-100.883	-0.150	-0.038
-735.025	-200.000	0.001	-0.061
-734.010	284.051	0.083	0.153
-732.996	435.269	-0.124	0.277
-731.981	800.000	-0.125	-0.478
-730.966	-22.811	-0.027	0.017
-729.952	-134.212	-0.014	0.002
-728.937	800.000	-0.052	-0.179
-727.923	580.742	-0.052	-0.130
-726.908	-78.032	0.081	0.028
-725.894	-90.474	-0.169	-0.050
-724.879	800.000	0.073	-0.266
-723.864	-200.000	-0.082	-0.433
-722.850	300.144	-0.044	0.084
-721.835	-93.415	0.163	-0.046
-720.821	48.360	-0.142	0.136
-719.806	607.741	-0.009	0.023
-718.791	17.579	0.257	-0.209
-717.777	52.491	0.061	-0.059
-716.762	-200.000	-0.010	0.163
-715.748	-118.899	0.064	-0.011
-714.733	-145.159	-0.130	-0.012
-713.718	76.770	-0.045	0.049
-712.704	-11.980	-0.225	0.151
-711.689	361.959	-0.062	-0.126
-710.675	582.161	0.149	-0.375
-709.660	-200.000	-0.033	0.175
-708.645	601.193	-0.111	0.283
-707.631	-109.286	0.156	0.034
-706.616	-200.000	-0.027	0.352
-705.602	25.868	-0.099	-0.084
-704.587	-2.183	-0.213	-0.153
-703.572	178.674	0.114	-0.171
-702.558	-116.792	0.109	-0.020
-701.543	82.291	-0.133	-0.148
-700.529	800.000	-0.071	-0.276
-699.514	192.060	0.016	-0.025
-698.499	800.000	-0.031	0.104
-697.485	-99.376	0.119	-0.031
-696.470	91.284	-0.093	0.107
-695.456	45.641	-0.131	0.124
-694.441	-24.433	-0.407	0.248
-693.426	117.813	0.120	0.151
-692.412	-70.205	0.271	0.105
-691.397	-200.000	-0.056	0.265
-690.383	-54.410	0.059	-0.027
-689.368	-99.439	-0.377	-0.097
-688.354	110.673	0.196	-0.241
-687.339	396.190	0.123	0.262
-686.324	-105.245	0.062	-0.014
-685.310	-91.430	-0.383	0.112
-684.295	182.789	-0.179	0.270
-683.281	-84.587	-0.265	0.085
-682.266	-131.646	-0.155	0.021
-681.251	169.127	-0.375	-0.547
-680.237	127.644	-0.194	0.252
-679.222	588.010	-0.096	0.241
-678.208	-200.000	0.026	0.312
-677.193	-200.000	0.090	-0.480
-676.178	106.907	0.141	0.170
-675.164	-200.000	0.007	-0.042
-674.149	-123.230	-0.023	-0.004
-673.135	-52.096	-0.283	0.134
-672.120	26.544	-0.131	0.112
-671.105	743.084	-0.015	0.040
-670.091	17.004	0.178	0.144
-669.076	65.422	-0.237	0.245
-668.062	-124.010	-0.343	0.055
-667.047	800.000	-0.061	0.185
-666.032	-111.391	0.168	-0.035
-665.018	154.984	-0.074	-0.104
-664.003	-107.569	0.152	-0.034
-662.989	149.076	0.105	0.145
-661.974	-95.332	-0.110	-0.030
-660.959	-103.535	-0.268	-0.064
-659.945	-24.145	-0.203	-0.124
-658.930	-29.410	0.350	-0.204
-657.916	-87.787	0.158	0.049
-656.901	587.100	-0.055	0.137
-655.886	-57.122	-0.402	-0.181
-654.872	244.718	-0.032	0.055
-653.857	316.165	0.152	-0.294
-652.843	-130.485	0.188	0.026
-651.828	-90.212	-0.169	0.050
-650.814	800.000	-0.038	-0.107
-649.799	40.503	0.141	-0.130
-648.784	-57.309	0.154	-0.069
-647.770	-80.024	0.328	0.112
-646.755	-177.354	-0.301	0.008
-645.741	380.804	-0.157	0.329
-644.726	-94.402	0.336	0.093
-643.711	-77.633	0.361	-0.128
-642.697	-169.492	-0.155	-0.006
-641.682	171.235	0.241	0.352
-640.668	-3.375	-0.204	-0.145
-639.653	800.000	-0.087	-0.363
-638.638	-127.833	-0.067	0.010
-637.624	-122.707	-0.302	0.050
-636.609	-200.000	-0.017	0.238
-635.595	-200.000	-0.062	-0.278
-634.580	250.021	-0.113	0.196
-633.565	-200.000	-0.034	-0.171
-632.551	16.077	-0.168	0.135
-631.536	27.350	-0.263	0.226
-630.522	124.336	0.040	0.051
-629.507	-36.186	0.251	-0.138
-628.492	-200.000	-0.044	-0.237
-627.478	335.106	0.108	-0.213
-626.463	534.174	-0.164	-0.396
-625.449	660.817	-0.122	-0.321
-624.434	-200.000	-0.043	-0.235
-623.419	274.363	-0.135	0.243
-622.405	-153.433	0.191	0.014
-621.390	-0.110	0.144	0.104
-620.376	355.307	0.108	0.220
-619.361	-75.117	0.028	-0.010
-618.346	508.406	0.090	-0.214
-617.332	2.882	0.098	-0.072
-616.317	-172.962	-0.183	-0.006
-615.303	-200.000	-0.027	-0.214
-614.288	-200.000	-0.016	-0.312
-613.273	356.768	-0.153	0.310
-612.259	-73.124	-0.144	0.054
-611.244	-8.105	-0.148	0.102
-610.230	-110.212	0.191	0.041
-609.215	266.427	0.162	0.288
-608.201	-114.668	0.136	0.027
-607.186	-200.000	0.001	0.014
-606.171	1.693	0.200	0.147
-605.157	255.498	-0.034	0.059
-604.142	67.457	-0.198	0.206
-603.128	-66.670	-0.396	0.160
-602.113	70.774	0.111	-0.117
-601.098	-99.816	-0.069	-0.018
-600.084	-75.017	0.257	-0.094
-599.069	-37.003	0.068	-0.037
-598.055	-200.000	0.008	-0.060
-597.040	57.812	-0.200	0.199
-596.025	-200.000	-0.009	-0.259
-595.011	-28.303	-0.140	-0.082
-593.996	184.127	0.078	0.118
-592.982	-200.000	-0.030	0.234
-591.967	255.124	-0.122	0.213
-590.952	-58.544	-0.201	-0.089
-589.938	-28.296	0.173	-0.102
-588.923	-154.292	-0.164	0.011
-587.909	27.542	-0.162	0.139
-586.894	-89.510	0.477	-0.143
-585.879	-200.000	0.006	0.098
-584.865	241.258	-0.105	0.178
-583.850	-28.771	0.108	-0.063
-582.836	-200.000	-0.063	-0.319
-581.821	40.644	-0.102	0.094
-580.806	-94.448	-0.116	-0.032
-579.792	-104.071	-0.438	0.104
-578.777	-191.717	0.178	-0.002
-577.763	-53.904	-0.265	0.123
-576.748	-99.041	0.289	-0.074
-575.733	800.000	0.080	0.255
-574.719	-200.000	0.017	0.276
-573.704	-87.356	-0.337	0.104
-572.690	99.050	0.279	-0.328
-571.675	2.479	0.144	-0.106
-570.661	-161.362	0.130	-0.007
-569.646	-87.132	0.104	0.032
-568.631	160.662	-0.206	-0.293
-567.617	800.000	0.117	-0.415
-566.602	-19.118	-0.065	-0.041
-565.588	110.455	0.222	0.271
-564.573	203.269	-0.182	-0.286
-563.558	71.695	0.159	0.167
-562.544	-200.000	0.009	-0.041
-561.529	97.286	0.245	0.286
-560.515	14.411	-0.022	0.017
-559.500	492.864	-0.106	-0.246
-558.485	-100.244	0.235	0.059
-557.471	-200.000	-0.028	-0.174
-556.456	589.241	0.061	0.153
-555.442	420.625	-0.093	-0.202
-554.427	262.529	-0.078	-0.138
-553.412	800.000	-0.063	0.262
-552.398	799.418	-0.022	0.062
-551.383	-200.000	-0.029	0.279
-550.369	-200.000	0.000	-0.123
-549.354	713.714	-0.103	0.277
-548.339	240.787	-0.183	0.310
-547.325	-168.058	0.142	-0.006
-546.310	-200.000	-0.017	0.168
-545.296	3.869	0.392	-0.291
-544.281	409.704	-0.111	0.239
-543.266	198.685	0.161	0.250
-542.252	333.933	-0.046	-0.091
-541.237	-131.300	-0.264	-0.036
-540.223	-14.619	-0.137	0.089
-539.208	-84.923	-0.357	0.114
-538.193	274.680	0.096	-0.173
-537.179	-98.486	0.325	-0.084
-536.164	800.000	0.080	0.279
-535.150	119.163	-0.056	-0.070
-534.135	-27.899	0.252	-0.148
-533.121	-11.128	0.416	-0.278
-532.106	-55.699	-0.264	-0.120
-531.091	30.985	0.042	-0.036
-530.077	128.797	-0.222	0.288
-529.062	-108.621	0.331	-0.072
-528.048	-102.312	0.238	0.058
-527.033	282.421	0.219	-0.399
-526.018	85.235	0.178	-0.198
-525.004	-200.000	0.061	0.351
-523.989	286.704	0.091	0.167
-522.975	800.000	0.012	-0.044
-521.960	-97.997	-0.149	-0.039
-520.945	-119.971	-0.207	-0.036
-519.931	-200.000	0.098	-0.447
-518.916	-14.158	-0.248	-0.163
-517.902	-5.104	0.072	-0.050
-516.887	509.060	-0.013	-0.031
-515.872	109.090	0.174	-0.212
-514.858	117.960	-0.025	-0.031
-513.843	85.244	0.180	-0.200
-512.829	800.000	-0.101	-0.446
-511.814	800.000	-0.056	0.235
-510.799	-116.099	0.161	0.030
-509.785	-78.124	0.174	0.061
-508.770	-98.293	0.268	-0.070
-507.756	-200.000	-0.052	0.271
-506.741	-148.224	0.184	0.015
-505.726	-48.584	-0.185	0.090
-504.712	128.234	0.217	0.281
-503.697	-95.176	0.183	-0.050
-502.683	140.562	-0.104	-0.140
-501.668	-200.000	-0.013	0.210
-500.653	-52.920	0.093	0.043
-499.639	10.812	0.034	0.026
-498.624	155.144	-0.200	-0.279
-497.610	-78.036	-0.159	0.056
-496.595	-130.982	0.265	0.036
-495.581	-115.744	0.395	-0.075
-494.566	-116.105	-0.047	0.009
-493.551	-69.621	-0.129	-0.050
-492.537	110.074	0.132	0.161
-491.522	-12.658	0.400	-0.265
-490.508	51.306	0.148	0.143
-489.493	-73.681	0.180	0.066
-488.478	-51.184	0.112	-0.053
-487.464	-200.000	-0.010	-0.201
-486.449	-68.940	0.133	-0.052
-485.435	554.884	0.170	0.415
-484.420	-109.772	-0.314	0.067
-483.405	426.637	-0.183	-0.400
-482.391	228.527	0.166	-0.274
-481.376	-8.586	0.145	0.099
-480.362	21.847	-0.166	-0.137
-479.347	49.595	0.151	0.144
-478.332	298.462	-0.189	-0.352
-477.318	421.560	0.145	-0.314
-476.303	291.587	-0.090	0.166
-475.289	-75.968	-0.241	0.086
-474.274	-200.000	-0.020	0.229
-473.259	492.194	-0.094	0.218
-472.245	-36.219	-0.170	-0.093
-471.230	-17.992	-0.124	-0.078
-470.216	-145.806	-0.265	0.024
-469.201	-72.449	-0.173	-0.065
-468.186	130.050	0.189	-0.245
-467.172	424.574	0.097	-0.211
-466.157	37.822	0.183	0.165
-465.143	800.000	-0.076	0.275
-464.128	-128.048	-0.050	-0.007
-463.113	317.526	-0.084	0.161
-462.099	-44.558	-0.522	0.264
-461.084	497.713	0.091	-0.213
-460.070	224.570	-0.113	0.185
-459.055	346.799	-0.076	-0.151
-458.040	-200.000	-0.059	-0.308
-457.026	-121.530	-0.104	0.017
-456.011	-200.000	0.006	0.087
-454.997	-43.506	0.271	-0.138
-453.982	-162.893	0.012	0.001
-452.968	-200.000	-0.013	-0.188
-451.953	5.924	-0.116	0.087
-450.938	800.000	-0.091	0.266
-449.924	-131.890	-0.429	0.057
-448.909	207.951	-0.146	-0.232
-447.895	-200.000	0.065	0.474
-446.880	421.658	0.145	0.314
-445.865	-200.000	-0.025	0.335
-444.851	-200.000	-0.005	0.127
-443.836	-200.000	0.027	0.390
-442.822	5.509	0.102	0.077
-441.807	268.228	-0.230	-0.407
-440.792	79.639	0.084	-0.091
-439.778	800.000	0.025	-0.088
-438.763	74.442	0.214	0.227
-437.749	-185.297	0.342	-0.005
-436.734	280.734	0.033	0.059
-435.719	-200.000	-0.023	0.301
-434.705	255.445	-0.114	-0.198
-433.690	791.635	0.062	0.173
-432.676	-176.027	0.255	0.007
-431.661	800.000	-0.050	-0.195
-430.646	-200.000	-0.068	0.377
-429.632	-119.486	0.359	-0.063
-428.617	75.138	0.163	0.173
-427.603	-79.527	0.146	-0.050
-426.588	-50.305	-0.218	0.104
-425.573	-22.065	-0.050	-0.031
-424.559	-13.394	-0.359	-0.236
-423.544	214.082	0.022	0.036
-422.530	56.320	-0.121	-0.119
-421.515	-200.000	0.028	0.311
-420.500	-200.000	-0.148	-0.000
-419.486	-2.730	0.268	0.190
-418.471	800.000	-0.083	-0.358
-417.457	-83.116	-0.076	0.025
-416.442	138.646	-0.070	-0.093
-415.428	176.413	-0.133	-0.195
-414.413	-183.185	0.291	0.005
-413.398	501.213	-0.172	0.400
-412.384	217.844	0.131	0.211
-411.369	-80.264	-0.185	-0.063
-410.355	221.140	0.076	0.124
-409.340	800.000	0.060	0.190
-408.325	34.998	-0.214	0.190
-407.311	-200.000	0.002	-0.138
-406.296	28.345	-0.051	-0.044
-405.282	-200.000	0.074	-0.440
-404.267	-200.000	0.033	-0.286
-403.252	-200.000	0.002	0.161
-402.238	-54.906	-0.144	-0.066
-401.223	-200.000	-0.078	-0.501
-400.209	57.819	0.171	-0.169
-399.194	301.345	0.150	0.279
-398.179	800.000	-0.065	0.238
-397.165	-97.538	-0.288	0.076
-396.150	577.121	-0.075	0.184
-395.136	145.582	-0.133	0.180
-394.121	-85.306	-0.386	-0.122
-393.106	63.803	-0.077	-0.078
-392.092	144.901	-0.079	0.107
-391.077	-146.229	0.060	-0.005
-390.063	-4.413	0.137	-0.096
-389.048	800.000	-0.099	0.346
-388.033	-200.000	0.117	0.729
-387.019	-147.137	-0.177	-0.015
-386.004	171.191	-0.100	-0.145
-384.990	199.822	-0.293	0.455
-383.975	108.041	0.017	-0.021
-382.960	-3.255	0.167	-0.118
-381.946	-200.000	-0.007	-0.145
-380.931	86.146	0.216	0.240
-379.917	-200.000	-0.023	0.218
-378.902	148.636	-0.108	0.148
-377.888	-22.598	-0.030	0.018
-376.873	800.000	0.081	-0.254
-375.858	1.772	-0.262	-0.190
-374.844	297.601	0.037	0.068
-373.829	-143.223	0.064	-0.006
-372.815	-200.000	0.008	-0.050
-371.800	176.222	0.094	-0.137
-370.785	57.791	0.053	-0.053
-369.771	312.845	-0.032	-0.061
-368.756	48.784	0.215	0.203
-367.742	61.513	-0.063	0.063
-366.727	-200.000	-0.011	-0.105
-365.712	321.987	-0.085	-0.163
-364.698	-139.519	0.220	-0.024
-363.683	-31.708	-0.248	0.140
-362.669	-121.208	0.289	0.049
-361.654	33.646	-0.134	-0.118
-360.639	-200.000	0.118	0.000
-359.625	-78.369	0.194	0.067
-358.610	-200.000	-0.005	-0.155
-357.596	367.687	-0.065	-0.132
-356.581	164.580	-0.332	-0.472
-355.566	-200.000	-0.007	0.045
-354.552	-200.000	-0.050	-0.255
-353.537	-200.000	0.080	-0.363
-352.523	-28.847	0.123	-0.072
-351.508	59.601	-0.066	0.066
-350.493	-5.317	-0.168	0.116
-349.479	60.021	0.019	-0.019
-348.464	111.084	0.137	0.166
-347.450	573.125	0.167	-0.410
-346.435	800.000	0.038	-0.134
-345.420	-51.895	-0.190	0.089
-344.406	-8.369	-0.410	-0.278
-343.391	118.622	-0.120	-0.149
-342.377	91.373	0.189	0.214
-341.362	-200.000	-0.035	-0.189
-340.348	-11.766	-0.122	-0.081
-339.333	-151.023	0.557	-0.042
-338.318	-101.760	0.067	-0.016
-337.304	-200.000	0.055	-0.257
-336.289	-50.551	-0.246	-0.117
-335.275	242.964	0.073	-0.123
-334.260	800.000	-0.073	-0.213
-333.245	-18.025	-0.108	-0.068
-332.231	215.080	0.102	-0.163
-331.216	291.889	-0.049	0.090
-330.202	80.852	-0.118	-0.128
-329.187	-57.321	0.289	0.128
-328.172	-99.546	0.224	-0.057
-327.158	800.000	0.033	-0.129
-326.143	-200.000	0.040	-0.218
-325.129	18.456	-0.339	-0.273
-324.114	31.893	-0.104	0.091
-323.099	-11.217	0.265	-0.176
-322.085	-200.000	-0.011	-0.147
-321.070	31.257	0.024	-0.020
-320.056	615.245	0.024	0.061
-319.041	-163.847	0.070	-0.003
-318.026	66.173	-0.118	-0.120
-317.012	61.101	-0.255	0.255
-315.997	-92.722	-0.173	0.049
-314.983	-91.266	0.037	0.011
-313.968	-57.127	0.089	-0.039
-312.953	-67.544	-0.133	0.053
-311.939	-200.000	-0.071	-0.341
-310.924	-49.033	-0.267	-0.129
-309.910	-200.000	-0.003	0.122
-308.895	-79.955	-0.029	-0.010
-307.880	-82.110	0.286	0.094
-306.866	-59.518	-0.071	-0.031
-305.851	-27.688	-0.121	-0.071
-304.837	-18.560	-0.097	-0.061
-303.822	41.883	0.191	0.175
-302.807	-200.000	0.058	0.273
-301.793	-200.000	-0.024	-0.109
-300.778	246.379	0.150	0.254
-299.764	-4.906	-0.028	-0.020
-298.749	-200.000	0.000	-0.280
-297.735	548.096	-0.086	-0.206
-296.720	-200.000	0.035	0.312
-295.705	-164.526	0.211	-0.010
-294.691	148.190	0.136	0.184
-293.676	199.301	-0.129	-0.199
-292.662	800.000	0.045	0.162
-291.647	-200.000	0.011	0.256
-290.632	-200.000	0.025	-0.212
-289.618	800.000	-0.029	0.091
-288.603	373.060	-0.067	-0.137
-287.589	269.288	0.188	0.332
-286.574	-2.951	-0.183	0.129
-285.559	248.195	-0.200	0.341
-284.545	344.576	-0.121	-0.239
-283.530	-116.271	0.471	-0.088
-282.516	148.590	-0.113	-0.154
-281.501	316.474	0.075	-0.143
-280.486	-198.743	0.453	-0.003
-279.472	-3.184	-0.080	-0.056
-278.457	-82.039	0.087	0.028
-277.443	-89.059	-0.315	0.094
-276.428	125.575	-0.248	0.315
-275.413	236.414	-0.086	0.143
-274.399	36.995	-0.092	-0.081
-273.384	18.210	0.076	-0.061
-272.370	45.776	0.104	-0.096
-271.355	800.000	0.049	-0.166
-270.340	136.953	-0.053	-0.069
-269.326	800.000	-0.028	0.097
-268.311	800.000	-0.072	0.210
-267.297	-47.588	-0.211	-0.103
-266.282	-10.087	0.415	-0.277
-265.267	203.733	0.176	-0.273
-264.253	-81.915	0.019	0.006
-263.238	-75.129	-0.150	-0.054
-262.224	-200.000	0.017	0.277
-261.209	61.187	-0.239	-0.239
-260.195	6.216	-0.065	0.049
-259.180	-31.403	-0.168	-0.095
-258.165	61.531	-0.079	-0.078
-257.151	33.397	0.127	-0.111
-256.136	-69.998	-0.190	-0.073
-255.122	-12.099	-0.213	0.140
-254.107	-72.942	0.183	0.067
-253.092	-122.696	0.070	0.011
-252.078	800.000	-0.006	0.021
-251.063	800.000	-0.059	0.196
-250.049	59.664	-0.118	-0.117
-249.034	372.908	-0.206	-0.421
-248.019	-164.752	0.292	0.013
-247.005	54.163	-0.120	-0.116
-245.990	-56.422	0.214	-0.095
-244.976	89.537	-0.287	0.321
-243.961	52.884	-0.144	0.138
-242.946	18.998	0.071	0.057
-241.932	-200.000	0.023	-0.147
-240.917	800.000	-0.099	-0.307
-239.903	-200.000	-0.056	0.329
-238.888	-81.712	0.337	0.111
-237.873	-149.451	-0.309	-0.025
-236.859	-200.000	0.030	-0.341
-235.844	56.490	-0.256	-0.250
-234.830	800.000	-0.071	0.309
-233.815	225.503	0.177	0.288
-232.800	-200.000	-0.004	0.124
-231.786	89.838	-0.014	-0.016
-230.771	193.211	0.134	-0.203
-229.757	476.742	0.051	0.116
-228.742	-200.000	-0.007	0.188
-227.727	-200.000	0.029	-0.293
-226.713	-107.634	0.159	0.035
-225.698	800.000	0.055	0.200
-224.684	-76.032	0.315	0.112
-223.669	-130.987	-0.134	0.018
-222.655	-0.765	-0.162	0.115
-221.640	-200.000	0.028	0.177
-220.625	-200.000	-0.032	0.241
-219.611	-95.257	-0.237	0.064
-218.596	-200.000	-0.058	0.265
-217.582	99.055	0.218	0.253
-216.567	169.248	-0.134	-0.192
-215.552	-61.122	-0.085	-0.036
-214.538	-168.960	-0.526	-0.020
-213.523	242.493	-0.163	-0.274
-212.509	-200.000	-0.048	0.277
-211.494	800.000	0.105	-0.369
-210.479	172.014	-0.077	0.111
-209.465	-71.708	0.208	0.078
-208.450	5.511	-0.096	0.071
-207.436	-200.000	-0.016	-0.413
-206.421	226.526	0.156	-0.253
-205.406	-200.000	-0.044	-0.205
-204.392	-120.165	0.309	-0.053
-203.377	-13.566	0.011	-0.007
-202.363	-10.229	0.258	0.171
-201.348	250.395	-0.042	-0.071
-200.333	-64.648	0.187	0.076
-199.319	-15.664	-0.117	-0.074
-198.304	-21.201	-0.102	-0.063
-197.290	-43.213	-0.105	0.053
-196.275	-164.125	-0.147	-0.007
-195.260	-7.015	0.126	-0.086
-194.246	141.742	-0.154	-0.204
-193.231	94.191	-0.075	0.085
-192.217	243.832	-0.136	0.229
-191.202	22.724	0.254	-0.209
-190.187	173.443	0.159	-0.230
-189.173	169.874	0.169	0.243
-188.158	23.784	-0.012	-0.010
-187.144	-47.783	-0.171	0.083
-186.129	220.418	0.186	0.299
-185.114	-23.731	0.073	-0.044
-184.100	443.365	-0.134	-0.293
-183.085	30.574	-0.294	-0.252
-182.071	-200.000	-0.010	-0.141
-181.056	250.482	0.151	0.256
-180.042	800.000	-0.107	-0.320
-179.027	-200.000	-0.019	0.089
-178.012	177.365	0.144	0.211
-176.998	-200.000	0.038	-0.232
-175.983	-200.000	0.022	0.212
-174.969	-116.754	-0.058	0.011
-173.954	67.764	0.154	-0.158
-172.939	498.619	0.059	0.136
-171.925	-151.242	-0.040	0.003
-170.910	79.935	-0.150	-0.161
-169.896	-19.496	0.147	-0.091
-168.881	504.731	-0.023	0.053
-167.866	65.958	0.257	0.261
-166.852	-145.083	-0.166	0.015
-165.837	-77.417	0.133	-0.046
-164.823	800.000	0.191	0.692
-163.808	-8.896	-0.042	0.028
-162.793	-200.000	0.037	0.435
-161.779	131.668	0.036	0.046
-160.764	-200.000	0.038	0.223
-159.750	316.521	0.076	0.143
-158.735	800.000	0.034	0.143
-157.720	-121.105	0.324	0.054
-156.706	265.470	-0.061	0.107
-155.691	-86.984	0.102	0.031
-154.677	-200.000	-0.039	0.178
-153.662	-200.000	0.020	0.281
-152.647	134.091	0.132	-0.170
-151.633	42.945	-0.417	-0.381
-150.618	-18.817	0.337	0.210
-149.604	-200.000	-0.014	-0.079
-148.589	754.041	0.034	-0.093
-147.574	800.000	-0.174	-0.560
-146.560	-147.895	0.046	-0.004
-145.545	-53.665	0.154	0.070
-144.531	-123.632	0.212	-0.034
-143.516	800.000	0.029	-0.081
-142.502	69.863	-0.150	-0.155
-141.487	-200.000	0.046	-0.323
-140.472	-117.206	-0.308	0.056
-139.458	-170.297	-0.198	-0.007
-138.443	336.853	-0.185	0.359
-137.429	14.246	0.242	-0.188
-136.414	-200.000	0.023	0.205
-135.399	194.844	0.044	0.066
-134.385	-200.000	0.045	0.258
-133.370	-191.635	0.134	-0.001
-132.356	800.000	0.085	-0.311
-131.341	-200.000	-0.022	0.214
-130.326	800.000	0.042	-0.124
-129.312	-94.449	0.219	0.060
-128.297	-22.697	0.214	0.130
-127.283	118.416	0.115	0.142
-126.268	447.157	0.137	0.302
-125.253	94.472	0.303	0.344
-124.239	443.473	0.086	0.189
-123.224	-23.681	-0.062	0.037
-122.210	34.529	0.086	0.075
-121.195	-173.022	0.188	0.006
-120.180	113.964	-0.176	-0.213
-119.166	-34.588	-0.213	-0.116
-118.151	-13.421	0.206	0.134
-117.137	31.009	-0.382	0.327
-116.122	-152.990	0.217	-0.015
-115.107	-157.226	-0.096	0.006
-114.093	-162.742	-0.294	0.014
-113.078	800.000	-0.053	0.195
-112.064	-66.626	-0.187	-0.074
-111.049	-200.000	0.039	0.316
-110.034	89.672	0.046	0.051
-109.020	-119.426	0.322	0.056
-108.005	14.521	0.444	0.346
-106.991	-49.471	-0.372	0.177
-105.976	-181.853	0.187	-0.004
-104.962	-106.745	0.118	0.026
-103.947	83.523	0.133	-0.145
-102.932	-200.000	0.021	0.256
-101.918	216.258	0.049	-0.078
-100.903	32.116	-0.039	0.033
-99.889	-42.265	-0.191	-0.098
-98.874	190.816	0.199	-0.299
-97.859	198.289	-0.141	-0.215
-96.845	57.220	-0.093	0.091
-95.830	-32.925	-0.077	0.043
-94.816	515.839	0.083	-0.193
-93.801	-200.000	0.031	-0.190
-92.786	-200.000	-0.042	0.192
-91.772	112.401	-0.112	-0.135
-90.757	508.301	0.122	0.282
-89.743	-165.945	-0.209	-0.009
-88.728	413.612	-0.119	-0.252
-87.713	-25.521	0.004	-0.002
-86.699	107.447	0.222	0.263
-85.684	-92.494	-0.233	-0.065
-84.670	172.466	-0.262	0.376
-83.655	-54.824	0.234	0.105
-82.640	-148.020	-0.082	0.007
-81.626	-200.000	0.018	0.099
-80.611	-200.000	0.002	-0.270
-79.597	-7.541	-0.144	0.097
-78.582	-2.959	0.231	-0.161
-77.567	353.657	-0.066	-0.131
-76.553	-200.000	0.001	0.014
-75.538	142.292	-0.081	0.108
-74.524	17.148	-0.334	0.265
-73.509	-200.000	-0.016	0.179
-72.494	-56.203	0.062	-0.027
-71.480	-150.008	0.153	-0.012
-70.465	-92.640	0.182	-0.051
-69.451	566.732	-0.061	0.149
-68.436	-200.000	-0.002	0.079
-67.422	-147.211	0.376	-0.032
-66.407	800.000	-0.058	0.192
-65.392	707.786	-0.051	0.135
-64.378	-200.000	-0.022	0.185
-63.363	-200.000	-0.040	0.232
-62.349	-75.036	-0.245	0.088
-61.334	308.989	-0.387	-0.720
-60.319	102.906	0.181	0.212
-59.305	-200.000	-0.209	-0.986
-58.290	127.199	0.388	0.491
-57.276	555.805	0.716	1.717
-56.261	-200.000	76.337	549.074
-55.246	510.819	1360.438	3154.655
-54.232	134.435	2621.083	3387.583
-53.217	110.283	2390.258	2861.092
-52.203	51.455	1995.312	1888.961
-51.188	45.288	1781.767	1637.526
-50.173	42.563	1734.915	1573.103
-49.159	56.802	1769.413	1716.908
-48.144	63.017	1787.389	1783.184
-47.130	45.465	1750.793	1610.192
-46.115	42.130	1736.758	1571.124
-45.100	41.929	1732.273	1565.436
-44.086	41.927	1729.814	1563.131
-43.071	41.933	1727.032	1560.608
-42.057	41.918	1724.406	1558.057
-41.042	41.949	1722.055	1556.105
-40.027	42.007	1719.810	1554.466
-39.013	41.915	1717.928	1551.993
-37.998	42.004	1716.618	1551.435
-36.984	41.985	1715.298	1550.033
-35.969	42.069	1713.962	1549.414
-34.954	42.215	1711.594	1548.340
-33.940	42.081	1710.253	1546.032
-32.925	42.064	1708.426	1544.187
-31.911	42.189	1705.911	1542.816
-30.896	42.074	1704.213	1540.338
-29.881	42.074	1702.875	1539.067
-28.867	42.011	1701.027	1536.852
-27.852	42.003	1699.649	1535.483
-26.838	42.027	1698.193	1534.291
-25.823	42.120	1696.314	1533.244
-24.809	42.139	1695.005	1532.148
-23.794	42.104	1693.707	1530.645
-22.779	42.145	1691.948	1529.310
-21.765	41.937	1691.239	1527.021
-20.750	42.053	1688.821	1525.660
-19.736	42.125	1687.000	1524.503
-18.721	42.219	1685.082	1523.421
-17.706	41.985	1684.295	1520.873
-16.692	42.036	1682.157	1519.267
-15.677	42.039	1680.731	1517.941
-14.663	42.073	1679.552	1517.076
-13.648	42.090	1678.017	1515.759
-12.633	42.133	1676.142	1514.325
-11.619	42.034	1674.819	1512.321
-10.604	42.079	1673.430	1511.346
-9.590	42.106	1671.882	1510.099
-8.575	42.110	1670.842	1509.123
-7.560	42.080	1669.554	1507.679
-6.546	42.007	1668.885	1506.462
-5.531	42.048	1667.360	1505.333
-4.517	42.009	1666.061	1503.812
-3.502	42.004	1665.107	1502.851
-2.487	42.118	1663.264	1501.987
-1.473	42.235	1652.764	1493.312
-0.458	40.071	1632.365	1458.882
0.556	33.976	1628.446	1414.726
1.571	29.541	1648.885	1398.850
2.586	27.473	1661.349	1393.493
3.600	24.198	1607.381	1323.822
4.615	13.617	1486.282	1150.883
5.629	3.011	1409.765	1021.356
6.644	0.541	1399.042	997.197
7.659	0.385	1397.400	994.906
8.673	0.285	1396.119	993.248
9.688	0.209	1394.693	991.645
10.702	0.029	1392.218	988.615
11.717	4.053	1399.099	1019.954
12.731	13.478	1414.753	1093.804
13.746	18.445	1420.108	1130.704
14.761	17.543	1417.053	1122.228
15.775	16.476	1414.582	1113.147
16.790	15.414	1412.120	1104.131
17.804	14.678	1409.230	1096.937
18.819	14.259	1408.162	1093.258
19.834	13.843	1406.642	1089.250
20.848	13.728	1404.972	1087.107
21.863	13.447	1403.398	1083.956
22.877	13.155	1403.111	1081.726
23.892	13.202	1401.510	1080.704
24.907	13.253	1400.645	1080.271
25.921	13.167	1399.951	1079.082
26.936	13.247	1399.066	1078.828
27.950	13.228	1398.334	1078.042
28.965	13.356	1396.923	1077.694
29.980	13.332	1395.968	1076.707
30.994	13.407	1395.163	1076.476
32.009	13.475	1393.967	1075.897
33.023	13.428	1393.101	1074.829
34.038	13.409	1391.875	1073.664
35.053	13.347	1390.784	1072.329
36.067	13.285	1389.674	1070.978
37.082	13.455	1388.262	1070.895
38.096	13.307	1387.856	1069.530
39.111	13.375	1386.835	1069.086
40.126	13.355	1385.156	1067.570
41.140	13.284	1384.651	1066.624
42.155	13.133	1384.198	1065.209
43.169	13.169	1384.391	1065.497
44.184	13.219	1383.570	1065.091
45.199	13.246	1383.388	1065.029
46.213	13.305	1382.568	1064.685
47.228	13.306	1382.164	1064.284
48.242	13.352	1380.412	1063.141
49.257	13.265	1379.077	1061.457
50.271	13.362	1377.998	1061.157
51.286	13.347	1376.464	1059.783
52.301	13.298	1375.338	1058.508
53.315	13.245	1374.185	1057.191
54.330	13.336	1372.943	1056.721
55.344	13.278	1371.785	1055.369
56.359	13.262	1370.690	1054.331
57.374	13.168	1370.043	1053.139
58.388	13.177	1369.226	1052.477
59.403	13.131	1368.628	1051.631
60.417	13.071	1368.218	1050.842
61.432	13.123	1367.299	1050.373
62.447	13.066	1365.910	1048.851
63.461	13.049	1364.793	1047.794
64.476	13.091	1363.735	1047.151
65.490	13.138	1362.015	1046.038
66.505	13.089	1360.683	1044.609
67.520	13.063	1359.348	1043.329
68.534	13.225	1357.915	1043.159
69.549	13.195	1356.969	1042.152
70.563	13.204	1355.661	1041.112
71.578	13.095	1354.975	1039.809
72.593	13.097	1354.025	1039.000
73.607	13.070	1352.934	1037.898
74.622	13.079	1352.013	1037.156
75.636	13.028	1351.191	1036.113
76.651	13.089	1350.235	1035.676
77.666	13.091	1350.041	1035.444
78.680	12.924	1349.641	1034.001
79.695	13.092	1348.764	1034.292
80.709	13.112	1347.829	1033.607
81.724	13.088	1347.007	1032.731
82.739	13.167	1345.649	1032.097
83.753	13.277	1344.565	1031.856
84.768	13.348	1343.494	1031.388
85.782	13.346	1342.415	1030.457
86.797	13.373	1340.743	1029.251
87.812	13.164	1339.604	1026.988
88.826	13.370	1338.347	1027.212
89.841	13.281	1337.670	1026.046
90.855	13.312	1336.073	1024.924
91.870	13.333	1335.596	1024.595
92.884	13.339	1334.985	1024.073
93.899	13.398	1333.868	1023.493
94.914	13.496	1332.368	1022.854
95.928	13.487	1332.091	1022.495
96.943	13.374	1331.492	1021.250
97.957	13.328	1330.294	1019.958
98.972	13.414	1328.884	1019.317
99.987	13.353	1328.184	1018.315
101.001	13.346	1326.561	1016.934
102.016	13.412	1325.770	1016.644
103.030	13.396	1325.329	1016.116
104.045	13.381	1324.339	1015.178
105.060	13.355	1322.938	1013.857
106.074	13.322	1321.451	1012.421
107.089	13.283	1320.506	1011.370
108.103	13.125	1319.296	1009.389
109.118	13.202	1317.894	1008.695
110.133	13.147	1316.671	1007.336
111.147	13.129	1315.263	1006.062
112.162	13.244	1314.118	1005.795
113.176	13.188	1313.305	1004.744
114.191	13.313	1312.112	1004.501
115.206	13.244	1310.668	1002.890
116.220	13.213	1309.481	1001.702
117.235	13.280	1307.920	1000.825
118.249	13.296	1306.995	1000.128
119.264	13.291	1305.691	999.012
120.279	13.259	1304.948	998.158
121.293	13.140	1304.305	996.864
122.308	13.199	1302.686	995.893
123.322	13.193	1301.596	994.936
124.337	13.227	1300.845	994.477
125.352	13.155	1299.709	993.087
126.366	13.179	1298.305	992.072
127.381	13.160	1297.057	990.918
128.395	13.163	1296.223	990.206
129.410	13.270	1294.970	989.807
130.424	13.254	1294.294	989.102
131.439	13.298	1293.141	988.399
132.454	13.229	1292.855	987.678
133.468	13.309	1291.704	987.192
134.483	13.283	1290.738	986.213
135.497	13.316	1289.709	985.532
136.512	13.287	1288.363	984.244
137.527	13.305	1287.259	983.422
138.541	13.303	1285.672	982.114
139.556	13.384	1284.207	981.384
140.570	13.381	1283.316	980.602
141.585	13.373	1282.001	979.463
142.600	13.453	1280.858	978.976
143.614	13.363	1280.008	977.708
144.629	13.525	1278.581	977.488
145.643	13.490	1277.606	976.449
146.658	13.566	1275.901	975.505
147.673	13.473	1274.716	973.967
148.687	13.282	1273.821	972.074
149.702	13.313	1272.337	971.036
150.716	13.391	1270.792	970.227
151.731	13.403	1269.753	969.418
152.746	13.366	1268.255	967.974
153.760	13.347	1267.456	967.168
154.775	13.467	1266.154	966.788
155.789	13.580	1264.768	966.306
156.804	13.528	1263.719	965.116
157.819	13.513	1262.837	964.269
158.833	13.520	1261.888	963.501
159.848	13.483	1261.233	962.700
160.862	13.563	1259.828	962.004
161.877	13.545	1258.565	960.850
162.892	13.510	1257.238	959.549
163.906	13.478	1257.033	959.124
164.921	13.421	1256.021	957.935
165.935	13.528	1255.558	958.120
166.950	13.549	1254.632	957.448
167.964	13.560	1253.756	956.760
168.979	13.466	1253.647	956.049
169.994	13.555	1252.167	955.349
171.008	13.533	1251.449	954.591
172.023	13.652	1250.487	954.455
173.037	13.670	1249.957	954.069
174.052	13.716	1248.601	953.217
175.067	13.639	1247.658	951.971
176.081	13.642	1246.372	950.923
177.096	13.635	1245.785	950.351
178.110	13.678	1244.624	949.625
179.125	13.657	1243.361	948.457
180.140	13.589	1242.278	947.159
181.154	13.659	1241.208	946.661
182.169	13.771	1239.571	945.967
183.183	13.776	1238.219	944.881
184.198	13.747	1237.192	943.845
185.213	13.785	1235.673	942.822
186.227	13.766	1234.803	941.962
187.242	13.829	1233.956	941.594
188.256	13.822	1233.018	940.757
189.271	13.931	1231.798	940.358
190.286	13.673	1230.961	938.175
191.300	13.615	1229.823	936.895
192.315	13.734	1229.318	937.101
193.329	13.679	1228.794	936.310
194.344	13.656	1228.395	935.791
195.359	13.783	1227.665	935.870
196.373	13.698	1227.239	934.983
197.388	13.932	1226.098	935.347
198.402	14.058	1225.838	935.777
199.417	13.992	1225.592	935.135
200.432	14.033	1224.387	934.364
201.446	14.059	1223.829	934.001
202.461	14.082	1222.902	933.342
203.475	14.073	1221.729	932.312
204.490	14.050	1220.290	931.003
205.504	13.992	1219.226	929.786
206.519	13.970	1217.790	928.483
207.534	14.077	1216.918	928.332
208.548	14.114	1215.593	927.446
209.563	14.103	1215.099	926.927
210.577	14.070	1214.414	926.139
211.592	14.117	1213.101	925.314
212.607	14.037	1212.724	924.504
213.621	14.171	1211.203	924.008
214.636	14.166	1210.629	923.459
215.650	14.115	1209.694	922.378
216.665	14.146	1208.826	921.810
217.680	14.304	1207.552	921.628
218.694	14.228	1207.003	920.710
219.709	14.282	1206.150	920.273
220.723	14.236	1205.381	919.355
221.738	14.304	1204.370	918.878
222.753	14.226	1203.905	918.011
223.767	14.352	1202.878	917.842
224.782	14.280	1202.568	917.127
225.796	14.394	1201.821	917.103
226.811	14.469	1201.082	916.871
227.826	14.390	1200.297	915.753
228.840	14.337	1199.547	914.809
229.855	14.490	1198.597	914.847
230.869	14.410	1197.997	913.865
231.884	14.394	1196.802	912.786
232.899	14.364	1195.983	911.916
233.913	14.345	1195.679	911.502
234.928	14.276	1194.898	910.447
235.942	14.270	1193.882	909.558
236.957	14.388	1193.103	909.533
237.972	14.385	1192.312	908.831
238.986	14.255	1192.026	907.825
240.001	14.357	1191.082	907.581
241.015	14.394	1189.805	906.729
242.030	14.447	1189.017	906.334
243.045	14.552	1187.979	906.034
244.059	14.492	1187.416	905.197
245.074	14.581	1186.576	904.963
246.088	14.606	1186.019	904.594
247.103	14.546	1185.307	903.642
248.117	14.536	1184.815	903.137
249.132	14.610	1183.783	902.667
250.147	14.637	1183.313	902.378
251.161	14.673	1182.526	901.889
252.176	14.698	1181.610	901.247
253.190	14.825	1180.708	901.164
254.205	14.698	1180.192	900.006
255.220	14.893	1179.489	900.442
256.234	14.869	1178.926	899.802
257.249	14.822	1178.558	899.187
258.263	14.824	1178.078	898.752
259.278	14.760	1177.398	897.811
260.293	14.894	1176.430	897.715
261.307	14.996	1175.733	897.651
262.322	15.013	1175.013	897.111
263.336	15.010	1174.259	896.442
264.351	14.991	1174.057	896.105
265.366	15.039	1173.259	895.673
266.380	14.932	1172.523	894.460
267.395	15.003	1171.613	894.063
268.409	15.097	1170.576	893.699
269.424	14.970	1170.333	892.753
270.439	14.983	1169.489	892.101
271.453	15.001	1168.817	891.608
272.468	15.100	1167.796	891.273
273.482	14.924	1167.333	889.903
274.497	15.009	1166.827	889.895
275.512	15.116	1165.891	889.669
276.526	15.105	1164.995	888.847
277.541	15.133	1164.090	888.227
278.555	15.089	1163.829	887.719
279.570	15.131	1163.030	887.252
280.585	15.125	1162.281	886.570
281.599	15.105	1161.362	885.685
282.614	15.263	1159.945	885.357
283.628	15.284	1158.784	884.507
284.643	15.192	1158.438	883.679
285.657	15.252	1157.072	882.872
286.672	15.221	1156.514	882.208
287.687	15.276	1155.481	881.630
288.701	15.299	1154.968	881.282
289.716	15.351	1153.728	880.531
290.730	15.431	1152.723	880.103
291.745	15.411	1152.486	879.739
292.760	15.410	1151.776	879.118
293.774	15.429	1150.896	878.467
294.789	15.360	1150.792	877.951
295.803	15.460	1149.620	877.498
296.818	15.485	1148.848	876.964
297.833	15.414	1148.648	876.361
298.847	15.387	1147.867	875.551
299.862	15.446	1146.794	874.960
300.876	15.480	1146.327	874.703
301.891	15.537	1145.608	874.374
302.906	15.526	1144.566	873.444
303.920	15.546	1144.042	873.071
304.935	15.575	1143.282	872.562
305.949	15.587	1142.737	872.134
306.964	15.624	1141.955	871.651
307.979	15.659	1141.002	871.029
308.993	15.619	1140.408	870.292
310.008	15.655	1139.313	869.565
311.022	15.689	1138.491	869.035
312.037	15.767	1137.870	868.888
313.052	15.636	1137.290	867.692
314.066	15.770	1135.976	867.301
315.081	15.621	1135.384	866.007
316.095	15.678	1134.459	865.520
317.110	15.659	1133.559	864.657
318.125	15.621	1132.986	863.949
319.139	15.693	1132.124	863.584
320.154	15.690	1131.729	863.189
321.168	15.627	1131.277	862.444
322.183	15.687	1130.704	862.242
323.197	15.725	1129.942	861.778
324.212	15.752	1129.165	861.248
325.227	15.769	1128.758	860.949
326.241	15.804	1127.956	860.438
327.256	15.819	1127.083	859.772
328.270	15.738	1125.903	858.382
329.285	15.729	1125.192	857.720
330.300	15.709	1124.234	856.815
331.314	15.676	1123.621	856.103
332.329	15.831	1122.032	855.605
333.343	15.746	1121.709	854.850
334.358	15.947	1120.245	854.680
335.373	15.919	1119.685	854.034
336.387	16.039	1118.669	853.790
337.402	15.971	1117.895	852.779
338.416	15.958	1117.550	852.376
339.431	15.993	1116.992	852.049
340.446	15.975	1116.396	851.428
341.460	16.039	1115.937	851.328
342.475	16.028	1115.204	850.639
343.489	16.169	1113.936	850.308
344.504	16.105	1112.823	849.057
345.519	16.129	1112.111	848.560
346.533	16.216	1111.345	848.340
347.548	16.158	1110.797	847.553
348.562	16.177	1109.901	846.889
349.577	16.251	1108.932	846.447
350.592	16.199	1108.052	845.440
351.606	16.179	1107.209	844.625
352.621	16.195	1106.547	844.125
353.635	16.111	1106.038	843.240
354.650	16.123	1105.502	842.815
355.665	16.162	1104.846	842.437
356.679	16.241	1103.659	841.853
357.694	16.175	1103.717	841.494
358.708	16.234	1103.088	841.234
359.723	16.274	1102.312	840.765
360.738	16.415	1101.255	840.584
361.752	16.366	1100.509	839.701
362.767	16.296	1100.466	839.242
363.781	16.345	1099.587	838.743
364.796	16.395	1099.100	838.545
365.810	16.325	1098.972	838.026
366.825	16.392	1097.913	837.474
367.840	16.439	1097.587	837.386
368.854	16.573	1096.687	837.287
369.869	16.462	1096.023	836.158
370.883	16.665	1094.960	836.277
371.898	16.515	1094.133	834.834
372.913	16.471	1093.944	834.394
373.927	16.671	1092.889	834.506
374.942	16.733	1092.432	834.384
375.956	16.632	1092.141	833.591
376.971	16.556	1091.467	832.630
377.986	16.400	1091.393	831.731
379.000	16.616	1090.763	832.242
380.015	16.735	1089.827	832.036
381.029	16.756	1088.811	831.293
382.044	16.747	1088.378	830.843
383.059	16.790	1087.665	830.437
384.073	16.678	1086.881	829.217
385.088	16.697	1086.107	828.643
386.102	16.865	1084.755	828.361
387.117	16.819	1083.968	827.460
388.132	16.734	1082.990	826.228
389.146	16.694	1082.291	825.425
390.161	16.756	1081.509	825.056
391.175	16.788	1080.771	824.581
392.190	16.821	1080.286	824.298
393.205	16.944	1079.281	824.055
394.219	16.847	1078.789	823.135
395.234	16.871	1078.009	822.584
396.248	16.865	1076.534	821.355
397.263	16.885	1075.456	820.559
398.278	16.833	1075.116	819.975
399.292	16.783	1074.259	819.006
400.307	16.798	1073.517	818.440
401.321	16.714	1073.156	817.685
402.336	16.974	1072.006	817.992
403.350	16.962	1071.131	817.193
404.365	16.912	1070.627	816.494
405.380	16.967	1069.992	816.207
406.394	16.928	1069.500	815.569
407.409	16.989	1068.552	815.066
408.423	17.133	1067.943	815.224
409.438	17.140	1067.025	814.484
410.453	17.055	1066.595	813.675
411.467	17.198	1065.756	813.649
412.482	17.091	1065.085	812.554
413.496	17.136	1064.348	812.131
414.511	17.215	1063.781	812.005
415.526	17.277	1063.590	812.084
416.540	17.342	1063.081	811.933
417.555	17.226	1062.460	810.834
418.569	17.257	1062.023	810.576
419.584	17.110	1061.703	809.560
420.599	17.217	1060.806	809.312
421.613	81.375	1288.785	1339.475
422.628	75.090	1322.026	1339.629
