DTS Sentinel unit serial number:	SN413079Multiplexer serial number:	ORYXHardware model number:	OX4-SRSoftware version number:	ORYX F/W v4.00 Oryx Data Collector v3.7.2.0data status	okinstallation	princeton_trtdifferential loss correction	single-endedforward channel	channel 2reverse channel	N/Adate	2019/09/16time	06:19:35forward acquisition time	60.00reverse acquisition time	0.00gamma	496.2192k internal	0.2334k external	0.2334temperature offset calibration	0.9973default loss term (dB/km)	0.3790temperature slope calibration	1.0000multiplexer offset coefficient	1.0000multiplexer slope coefficient	1.0000fibre end	0.00T internal ref (°C)	27.44T ext. ref 1 (°C)	11.33T ext. ref 2 (°C)	21.65length (m)	temperature (°C)	Stokes	anti-Stokes-747.200	800.000	0.186	0.566
-746.185	74.610	0.088	0.093
-745.171	-91.261	0.159	0.046
-744.156	-120.145	-0.341	-0.059
-743.142	-127.746	0.102	-0.015
-742.127	-55.497	0.107	-0.048
-741.112	119.540	0.153	0.191
-740.098	-200.000	-0.038	0.510
-739.083	469.706	-0.059	-0.132
-738.069	-122.528	0.042	-0.007
-737.054	-145.796	-0.064	-0.006
-736.039	25.390	-0.103	-0.086
-735.025	-100.356	0.096	0.024
-734.010	308.252	-0.049	-0.092
-732.996	272.537	0.193	-0.342
-731.981	800.000	0.094	-0.397
-730.966	20.994	-0.050	0.041
-729.952	800.000	-0.026	-0.082
-728.937	570.513	-0.066	-0.161
-727.923	83.340	-0.115	0.126
-726.908	800.000	0.118	-0.413
-725.894	-91.830	-0.571	-0.163
-724.879	704.243	0.105	0.278
-723.864	-43.318	0.089	0.045
-722.850	-135.535	-0.151	-0.018
-721.835	-8.398	-0.154	-0.104
-720.821	-200.000	0.024	0.147
-719.806	-93.792	-0.135	0.037
-718.791	-200.000	0.061	-0.271
-717.777	-200.000	-0.024	-0.292
-716.762	-174.631	0.138	-0.004
-715.748	528.031	0.132	-0.312
-714.733	-200.000	-0.015	-0.221
-713.718	-200.000	-0.026	0.361
-712.704	-123.419	-0.240	0.038
-711.689	53.836	-0.269	-0.259
-710.675	373.873	0.040	-0.082
-709.660	14.288	0.155	0.121
-708.645	-1.846	-0.203	0.143
-707.631	295.942	-0.083	0.153
-706.616	-200.000	0.002	0.093
-705.602	-56.231	-0.039	-0.018
-704.587	-115.800	-0.062	0.012
-703.572	-18.024	0.309	0.194
-702.558	800.000	-0.051	-0.163
-701.543	-75.055	-0.129	0.046
-700.529	800.000	0.089	0.379
-699.514	-54.046	-0.378	-0.172
-698.499	107.773	-0.131	0.157
-697.485	-198.749	0.331	-0.002
-696.470	-200.000	-0.038	0.194
-695.456	-200.000	-0.045	-0.268
-694.441	45.932	0.279	0.259
-693.426	-200.000	-0.017	-0.152
-692.412	-95.379	-0.131	-0.035
-691.397	26.021	0.148	-0.124
-690.383	6.212	-0.042	0.031
-689.368	489.793	-0.168	0.385
-688.354	-200.000	-0.018	-0.103
-687.339	620.787	-0.107	-0.271
-686.324	-92.076	-0.263	0.075
-685.310	107.146	-0.192	0.229
-684.295	800.000	0.088	0.267
-683.281	171.504	0.048	0.069
-682.266	7.424	-0.139	-0.104
-681.251	-127.745	-0.205	0.030
-680.237	-129.395	-0.194	0.027
-679.222	-137.057	-0.377	-0.043
-678.208	-42.487	0.128	0.065
-677.193	800.000	-0.072	-0.221
-676.178	7.813	0.120	-0.090
-675.164	-200.000	0.002	0.170
-674.149	-200.000	-0.030	-0.198
-673.135	-95.360	0.085	0.023
-672.120	23.645	-0.110	0.091
-671.105	-161.955	0.060	0.003
-670.091	-71.315	0.128	0.048
-669.076	-200.000	0.056	0.301
-668.062	800.000	0.016	0.045
-667.047	134.906	-0.159	0.206
-666.032	800.000	0.122	0.406
-665.018	72.626	-0.036	-0.038
-664.003	52.281	-0.171	-0.164
-662.989	-156.572	0.130	-0.008
-661.974	800.000	-0.049	-0.149
-660.959	-200.000	-0.003	0.147
-659.945	-13.555	-0.222	0.144
-658.930	-149.490	-0.199	0.016
-657.916	-200.000	0.022	-0.126
-656.901	-8.669	-0.275	-0.185
-655.886	4.579	0.072	-0.053
-654.872	418.465	-0.061	0.130
-653.857	-70.157	-0.278	0.106
-652.843	133.458	0.099	0.128
-651.828	323.098	-0.132	-0.253
-650.814	-107.610	-0.130	-0.028
-649.799	-102.613	0.180	0.043
-648.784	-31.399	-0.196	-0.111
-647.770	-52.898	-0.182	-0.084
-646.755	107.460	0.043	-0.052
-645.741	-200.000	0.003	0.426
-644.726	175.892	0.379	0.550
-643.711	800.000	-0.069	-0.238
-642.697	-184.700	-0.309	-0.005
-641.682	-92.780	-0.502	-0.141
-640.668	3.062	-0.126	-0.091
-639.653	696.345	-0.038	-0.099
-638.638	800.000	0.036	0.155
-637.624	-55.054	-0.343	0.154
-636.609	-126.337	-0.085	-0.013
-635.595	-66.575	0.139	-0.055
-634.580	-200.000	-0.020	0.123
-633.565	246.441	-0.099	-0.167
-632.551	23.693	0.065	0.053
-631.536	-57.048	-0.064	0.028
-630.522	-46.694	0.317	-0.155
-629.507	30.523	0.274	-0.235
-628.492	-44.545	-0.218	-0.109
-627.478	-200.000	-0.003	0.338
-626.463	20.651	-0.128	-0.104
-625.449	-48.964	-0.142	-0.068
-624.434	482.275	-0.123	0.281
-623.419	198.222	0.136	-0.208
-622.405	27.864	-0.301	-0.254
-621.390	-200.000	-0.048	-0.224
-620.376	90.636	-0.198	0.221
-619.361	-200.000	0.003	-0.093
-618.346	604.799	0.205	-0.511
-617.332	-83.519	0.042	-0.014
-616.317	-200.000	0.010	-0.116
-615.303	-200.000	-0.019	-0.262
-614.288	-92.458	0.286	-0.080
-613.273	-51.172	-0.301	0.141
-612.259	-200.000	-0.022	0.149
-611.244	-92.040	-0.285	-0.081
-610.230	92.346	-0.132	0.149
-609.215	-30.129	0.150	0.085
-608.201	-87.147	-0.209	0.063
-607.186	-24.351	0.228	-0.136
-606.171	-200.000	-0.012	0.185
-605.157	-16.011	-0.336	0.213
-604.142	800.000	-0.071	-0.257
-603.128	-14.684	0.333	0.214
-602.113	627.354	-0.183	-0.463
-601.098	-146.355	0.191	-0.017
-600.084	12.286	-0.184	-0.141
-599.069	-85.292	-0.154	0.048
-598.055	-98.108	-0.191	0.049
-597.040	172.822	0.041	-0.060
-596.025	50.628	-0.065	0.061
-595.011	382.981	0.053	-0.108
-593.996	-91.731	0.305	0.087
-592.982	800.000	0.127	0.438
-591.967	-13.407	0.223	-0.145
-590.952	97.872	0.351	-0.403
-589.938	96.188	-0.179	-0.204
-588.923	91.333	0.094	0.106
-587.909	121.390	0.121	0.150
-586.894	-21.655	0.419	0.255
-585.879	49.966	0.226	0.213
-584.865	-10.482	0.320	-0.212
-583.850	-14.942	-0.570	0.365
-582.836	800.000	-0.040	0.126
-581.821	-200.000	0.036	0.338
-580.806	-108.522	-0.082	-0.018
-579.792	149.775	0.067	-0.090
-578.777	-43.877	-0.129	-0.065
-577.763	-48.157	0.164	0.079
-576.748	-25.695	0.069	0.041
-575.733	-24.442	-0.173	-0.103
-574.719	-58.147	0.134	0.058
-573.704	-21.419	0.038	0.023
-572.690	-200.000	-0.030	-0.238
-571.675	-200.000	-0.001	0.045
-570.661	-12.725	-0.473	0.307
-569.646	-24.520	-0.308	0.183
-568.631	-200.000	0.017	-0.097
-567.617	-51.982	0.130	0.060
-566.602	-34.726	-0.259	-0.141
-565.588	-129.402	-0.185	0.026
-564.573	-200.000	0.028	-0.122
-563.558	107.161	0.067	0.079
-562.544	800.000	-0.065	-0.261
-561.529	-158.701	-0.260	0.015
-560.515	140.444	-0.131	-0.173
-559.500	-52.412	0.117	-0.054
-558.485	520.717	-0.083	0.194
-557.471	77.972	0.216	-0.230
-556.456	-10.437	0.122	0.081
-555.442	-87.514	-0.548	-0.165
-554.427	59.352	-0.262	0.257
-553.412	417.490	0.089	-0.189
-552.398	800.000	0.017	0.052
-551.383	-1.531	-0.190	0.134
-550.369	-72.377	0.071	-0.026
-549.354	-200.000	-0.028	-0.268
-548.339	-55.146	-0.318	0.143
-547.325	142.903	-0.203	0.269
-546.310	-61.820	0.210	0.088
-545.296	-124.423	0.081	-0.013
-544.281	-122.801	0.163	-0.026
-543.266	128.903	-0.158	0.201
-542.252	-200.000	-0.005	0.157
-541.237	-20.513	0.187	-0.115
-540.223	439.884	0.113	0.245
-539.208	-63.352	-0.219	0.090
-538.193	-86.202	-0.160	0.049
-537.179	623.508	0.149	-0.375
-536.164	157.493	0.161	-0.222
-535.150	-4.474	-0.128	-0.088
-534.135	125.459	-0.031	-0.039
-533.121	348.071	-0.010	-0.020
-532.106	444.162	0.110	0.241
-531.091	-65.836	0.156	-0.062
-530.077	541.935	0.140	-0.333
-529.062	800.000	0.033	-0.104
-528.048	-200.000	0.021	0.142
-527.033	800.000	-0.068	-0.238
-526.018	-172.835	0.227	-0.007
-525.004	57.720	-0.150	0.146
-523.989	-200.000	-0.017	-0.227
-522.975	-132.268	0.211	0.027
-521.960	-170.451	0.117	0.004
-520.945	-200.000	-0.037	0.356
-519.931	-18.171	0.140	-0.087
-518.916	3.165	0.094	-0.068
-517.902	228.792	0.100	-0.163
-516.887	-200.000	-0.036	0.364
-515.872	-200.000	0.034	0.256
-514.858	-164.840	-0.380	-0.017
-513.843	-148.184	0.208	0.017
-512.829	147.754	0.155	-0.208
-511.814	689.709	0.024	-0.063
-510.799	800.000	-0.046	0.171
-509.785	-200.000	-0.052	-0.308
-508.770	171.639	0.008	-0.012
-507.756	81.256	-0.328	-0.353
-506.741	-124.017	0.310	-0.049
-505.726	395.877	-0.077	-0.161
-504.712	-136.636	0.117	0.013
-503.697	-55.621	0.313	0.139
-502.683	86.619	-0.156	0.171
-501.668	22.913	0.199	0.162
-500.653	-200.000	0.035	0.325
-499.639	-26.389	-0.143	-0.084
-498.624	74.317	0.159	-0.166
-497.610	37.654	0.114	0.101
-496.595	-75.349	0.044	0.016
-495.581	-16.000	0.148	-0.094
-494.566	7.564	0.151	0.112
-493.551	-73.528	-0.130	0.047
-492.537	-96.617	-0.087	0.023
-491.522	800.000	0.080	-0.294
-490.508	324.263	-0.166	0.316
-489.493	229.875	0.139	0.225
-488.478	-108.556	0.328	0.070
-487.464	-139.959	0.013	0.001
-486.449	-114.817	-0.194	0.037
-485.435	55.451	-0.201	-0.194
-484.420	-137.207	0.460	0.052
-483.405	-117.644	-0.191	-0.034
-482.391	202.234	0.112	-0.171
-481.376	105.032	0.083	-0.098
-480.362	160.453	-0.095	0.131
-479.347	82.249	0.123	0.133
-478.332	9.851	0.281	0.212
-477.318	-106.692	-0.114	0.025
-476.303	800.000	-0.010	-0.040
-475.289	70.565	-0.076	-0.078
-474.274	-200.000	-0.021	-0.200
-473.259	-114.456	-0.330	-0.063
-472.245	-98.011	-0.228	-0.058
-471.230	-200.000	0.019	-0.082
-470.216	480.047	0.049	-0.111
-469.201	800.000	-0.083	0.270
-468.186	479.190	-0.109	-0.246
-467.172	16.737	0.087	0.069
-466.157	-52.609	0.230	-0.105
-465.143	94.279	0.282	-0.318
-464.128	511.731	-0.135	-0.313
-463.113	-2.194	-0.141	0.098
-462.099	-161.242	-0.392	0.020
-461.084	-136.320	0.336	0.039
-460.070	-200.000	0.033	0.205
-459.055	-63.699	-0.119	-0.049
-458.040	16.086	0.381	0.298
-457.026	-58.322	-0.392	0.169
-456.011	-141.116	-0.145	-0.015
-454.997	66.619	-0.160	0.162
-453.982	-200.000	0.014	-0.119
-452.968	-200.000	-0.016	-0.084
-451.953	312.502	-0.100	0.186
-450.938	-36.340	-0.088	0.047
-449.924	-200.000	0.009	-0.250
-448.909	513.094	0.159	0.368
-447.895	-76.852	-0.141	0.049
-446.880	800.000	0.078	0.228
-445.865	216.965	-0.171	-0.271
-444.851	-156.337	-0.144	0.009
-443.836	64.743	-0.153	0.154
-442.822	296.532	-0.048	-0.087
-441.807	-11.714	0.039	0.026
-440.792	-200.000	0.053	0.247
-439.778	-143.990	0.114	-0.011
-438.763	-22.628	-0.282	-0.170
-437.749	-160.664	0.226	-0.012
-436.734	-134.727	-0.277	0.033
-435.719	-40.301	0.142	0.073
-434.705	-9.847	0.090	0.059
-433.690	39.023	-0.310	-0.275
-432.676	-12.948	-0.176	-0.114
-431.661	-156.117	0.261	-0.016
-430.646	-200.000	0.009	-0.270
-429.632	-200.000	0.007	0.114
-428.617	-73.535	0.097	0.035
-427.603	240.604	-0.144	0.238
-426.588	-180.505	-0.278	-0.006
-425.573	800.000	-0.063	-0.188
-424.559	154.188	-0.129	-0.176
-423.544	-143.909	-0.370	0.035
-422.530	-54.479	0.096	-0.043
-421.515	800.000	0.063	-0.222
-420.500	-110.708	-0.347	-0.071
-419.486	455.922	0.069	-0.151
-418.471	-11.748	0.128	0.084
-417.457	-43.730	0.369	0.184
-416.442	-200.000	0.019	0.249
-415.428	73.089	-0.169	-0.175
-414.413	-9.043	0.047	-0.031
-413.398	13.521	0.333	0.256
-412.384	-109.329	-0.310	-0.065
-411.369	42.582	0.380	-0.343
-410.355	800.000	-0.043	-0.133
-409.340	800.000	-0.035	0.135
-408.325	74.393	0.195	-0.203
-407.311	800.000	0.058	0.186
-406.296	28.162	-0.112	-0.094
-405.282	-79.907	-0.034	-0.011
-404.267	-68.905	0.194	0.074
-403.252	13.092	-0.308	0.236
-402.238	-200.000	0.000	0.028
-401.223	-126.223	-0.309	-0.046
-400.209	481.947	0.076	-0.172
-399.194	317.190	0.043	0.081
-398.179	94.475	-0.156	-0.175
-397.165	-97.512	0.256	-0.066
-396.150	800.000	-0.106	0.318
-395.136	172.718	-0.173	0.246
-394.121	-143.318	-0.208	-0.020
-393.106	-200.000	0.018	-0.192
-392.092	-54.850	0.414	-0.185
-391.077	406.666	0.061	0.128
-390.063	-200.000	0.069	0.365
-389.048	-145.732	0.056	-0.005
-388.033	-121.220	0.070	-0.012
-387.019	-42.324	-0.058	0.029
-386.004	45.507	-0.072	0.066
-384.990	790.046	0.047	-0.127
-383.975	-123.461	0.047	-0.007
-382.960	-119.456	0.226	0.039
-381.946	301.531	-0.107	-0.196
-380.931	-169.417	0.206	0.007
-379.917	166.550	0.061	0.086
-378.902	26.407	-0.243	0.201
-377.888	194.673	-0.112	-0.168
-376.873	800.000	0.178	0.515
-375.858	-56.595	0.179	0.078
-374.844	429.386	-0.188	0.403
-373.829	110.918	-0.101	0.121
-372.815	259.939	-0.073	-0.125
-371.800	-100.318	-0.309	0.076
-370.785	-118.386	-0.103	0.018
-369.771	204.427	0.105	-0.161
-368.756	-91.540	-0.273	-0.077
-367.742	458.169	0.192	-0.422
-366.727	800.000	-0.060	-0.165
-365.712	-200.000	-0.013	0.281
-364.698	27.117	0.162	-0.135
-363.683	198.278	-0.026	0.040
-362.669	209.747	0.156	0.242
-361.654	453.801	-0.181	0.397
-360.639	-42.778	-0.378	0.190
-359.625	-130.076	0.449	-0.061
-358.610	-170.485	0.123	0.004
-357.596	11.368	0.132	-0.100
-356.581	-78.182	0.050	0.017
-355.566	800.000	-0.027	-0.111
-354.552	-16.940	0.288	0.180
-353.537	-200.000	-0.027	0.198
-352.523	-63.388	-0.087	0.035
-351.508	-63.707	0.192	-0.078
-350.493	-85.610	-0.303	0.093
-349.479	166.084	-0.180	-0.253
-348.464	-57.649	-0.264	-0.114
-347.450	-200.000	0.019	0.110
-346.435	-95.609	0.211	-0.056
-345.420	-18.885	0.455	-0.280
-344.406	-46.762	-0.261	-0.126
-343.391	323.443	0.237	-0.447
-342.377	130.483	-0.144	0.183
-341.362	267.498	-0.125	0.217
-340.348	800.000	0.087	-0.247
-339.333	-200.000	0.017	0.341
-338.318	800.000	-0.019	0.063
-337.304	-68.136	0.092	0.035
-336.289	279.909	-0.131	0.231
-335.275	-104.584	0.126	0.029
-334.260	797.486	-0.167	-0.454
-333.245	-51.500	-0.183	-0.084
-332.231	-1.077	0.032	-0.022
-331.216	32.764	0.143	0.123
-330.202	431.070	-0.146	-0.313
-329.187	-152.308	-0.307	-0.022
-328.172	486.971	-0.113	-0.255
-327.158	172.963	-0.047	0.067
-326.143	471.405	-0.077	-0.171
-325.129	-200.000	0.053	-0.313
-324.114	800.000	-0.050	0.167
-323.099	-93.944	-0.129	-0.035
-322.085	-200.000	0.002	-0.338
-321.070	-200.000	0.008	-0.311
-320.056	-72.355	0.271	0.099
-319.041	144.814	0.286	-0.378
-318.026	800.000	-0.069	0.195
-317.012	-14.600	0.058	-0.037
-315.997	-200.000	-0.009	-0.137
-314.983	-154.413	0.408	0.027
-313.968	800.000	-0.044	0.164
-312.953	-137.038	-0.036	0.004
-311.939	581.106	0.117	-0.283
-310.924	-17.177	-0.080	-0.050
-309.910	9.454	0.399	-0.299
-308.895	-129.853	-0.174	-0.024
-307.880	1.221	-0.139	-0.099
-306.866	-200.000	-0.029	0.184
-305.851	55.425	0.061	-0.058
-304.837	-132.896	-0.232	-0.029
-303.822	-64.401	0.232	0.093
-302.807	-114.294	-0.143	-0.027
-301.793	28.445	0.273	-0.228
-300.778	30.910	0.233	0.197
-299.764	179.637	-0.049	-0.071
-298.749	482.109	-0.048	0.107
-297.735	800.000	0.028	-0.120
-296.720	67.225	0.114	0.115
-295.705	-44.578	-0.132	-0.065
-294.691	763.975	-0.104	-0.280
-293.676	770.090	-0.077	0.206
-292.662	-129.545	0.052	-0.007
-291.647	-43.252	-0.116	-0.058
-290.632	-167.917	-0.266	-0.010
-289.618	-118.009	0.178	0.032
-288.603	157.249	0.132	0.180
-287.589	119.321	0.400	0.489
-286.574	-200.000	-0.017	0.087
-285.559	-180.027	0.025	0.001
-284.545	-102.161	-0.325	-0.077
-283.530	-200.000	-0.011	-0.337
-282.516	-80.308	-0.110	0.036
-281.501	-148.802	-0.183	0.015
-280.486	135.188	0.037	0.047
-279.472	-200.000	-0.006	0.414
-278.457	-96.850	0.216	-0.056
-277.443	-200.000	0.001	0.076
-276.428	134.088	0.092	0.118
-275.413	267.723	0.031	-0.054
-274.399	171.676	-0.081	-0.115
-273.384	-115.812	-0.175	-0.032
-272.370	358.219	0.067	0.132
-271.355	800.000	0.064	-0.180
-270.340	-200.000	-0.062	0.393
-269.326	-200.000	0.014	-0.304
-268.311	-79.972	-0.171	-0.057
-267.297	41.836	-0.244	-0.218
-266.282	-42.392	0.319	0.161
-265.267	-178.689	-0.272	0.006
-264.253	-10.142	0.304	0.199
-263.238	-159.821	-0.171	-0.009
-262.224	-12.276	-0.371	-0.239
-261.209	62.316	0.201	-0.197
-260.195	-78.266	-0.090	-0.030
-259.180	-65.416	0.201	0.080
-258.165	377.412	-0.066	-0.133
-257.151	800.000	-0.053	-0.208
-256.136	-9.842	0.229	-0.150
-255.122	94.405	-0.113	0.126
-254.107	-200.000	-0.011	0.067
-253.092	279.504	0.112	-0.196
-252.078	187.808	-0.288	0.424
-251.063	54.533	0.205	0.195
-250.049	-200.000	-0.030	0.246
-249.034	298.095	0.175	0.316
-248.019	-43.127	0.396	0.198
-247.005	-28.626	0.290	-0.165
-245.990	141.456	-0.121	-0.158
-244.976	62.289	-0.163	-0.160
-243.961	-123.529	0.528	-0.083
-242.946	170.963	-0.117	0.166
-241.932	369.529	-0.071	0.142
-240.917	-83.985	0.291	0.091
-239.903	46.052	-0.041	-0.038
-238.888	-101.713	0.332	-0.079
-237.873	250.049	-0.149	0.250
-236.859	-16.688	0.008	0.005
-235.844	-2.947	0.296	-0.204
-234.830	-200.000	-0.019	-0.092
-233.815	112.060	-0.219	0.260
-232.800	124.622	0.157	0.195
-231.786	-200.000	-0.028	0.188
-230.771	-100.253	-0.123	-0.030
-229.757	183.077	-0.093	0.135
-228.742	323.942	-0.055	0.103
-227.727	351.891	-0.203	-0.396
-226.713	-115.830	0.138	0.025
-225.698	-102.344	0.151	0.036
-224.684	-200.000	-0.012	-0.496
-223.669	-91.533	-0.262	-0.073
-222.655	-200.000	0.034	0.314
-221.640	464.262	0.031	-0.067
-220.625	-200.000	0.013	0.091
-219.611	620.848	-0.087	-0.215
-218.596	-200.000	-0.047	-0.000
-217.582	-200.000	0.019	0.091
-216.567	-41.653	-0.124	-0.063
-215.552	-53.817	-0.063	0.028
-214.538	-179.634	0.274	-0.006
-213.523	54.925	-0.085	0.081
-212.509	-37.298	-0.150	-0.079
-211.494	97.492	-0.151	0.170
-210.479	-200.000	-0.025	0.177
-209.465	436.408	0.112	0.239
-208.450	672.582	-0.082	0.209
-207.436	-81.069	-0.036	0.012
-206.421	-200.000	-0.013	0.357
-205.406	-174.145	-0.194	-0.006
-204.392	254.269	0.224	-0.376
-203.377	-200.000	-0.008	-0.175
-202.363	800.000	0.065	-0.183
-201.348	-200.000	0.028	0.121
-200.333	-132.400	0.355	-0.045
-199.319	187.529	-0.074	0.109
-198.304	-200.000	-0.025	-0.142
-197.290	800.000	-0.043	0.151
-196.275	178.290	-0.116	0.166
-195.260	-97.849	0.286	-0.073
-194.246	57.240	0.199	-0.191
-193.231	-200.000	-0.002	-0.376
-192.217	-38.521	0.155	0.080
-191.202	-200.000	0.049	-0.244
-190.187	25.913	0.046	-0.038
-189.173	-200.000	0.009	0.278
-188.158	409.467	-0.100	0.208
-187.144	800.000	-0.047	-0.169
-186.129	9.728	-0.217	0.162
-185.114	-56.900	-0.224	-0.097
-184.100	-28.193	0.082	0.047
-183.085	11.152	0.178	0.134
-182.071	199.706	0.047	-0.070
-181.056	-51.821	-0.075	0.034
-180.042	-136.329	0.310	0.036
-179.027	-176.812	-0.229	0.006
-178.012	147.832	-0.080	-0.106
-176.998	800.000	-0.120	0.474
-175.983	-200.000	-0.016	0.291
-174.969	-200.000	0.000	-0.122
-173.954	162.584	0.060	-0.083
-172.939	800.000	-0.049	-0.169
-171.925	321.802	-0.052	0.097
-170.910	-103.225	0.227	0.053
-169.896	-69.435	0.111	-0.042
-168.881	190.927	-0.063	-0.093
-167.866	-62.218	0.303	0.124
-166.852	272.641	0.039	0.067
-165.837	-147.298	-0.097	-0.008
-164.823	32.482	0.258	0.219
-163.808	-67.853	-0.310	-0.119
-162.793	79.046	0.272	-0.287
-161.779	-200.000	0.010	-0.147
-160.764	800.000	-0.107	-0.391
-159.750	800.000	0.041	-0.136
-158.735	129.517	0.176	0.221
-157.720	-45.605	-0.029	0.014
-156.706	-195.112	0.148	0.001
-155.691	543.425	0.065	-0.152
-154.677	-200.000	-0.055	0.299
-153.662	-137.027	-0.222	-0.025
-152.647	-161.109	0.207	-0.011
-151.633	-71.322	0.272	0.100
-150.618	800.000	0.029	0.121
-149.604	-200.000	0.000	-0.145
-148.589	330.289	0.153	-0.290
-147.574	-200.000	0.006	-0.041
-146.560	179.716	0.050	-0.072
-145.545	-26.487	0.046	0.026
-144.531	249.138	-0.050	0.083
-143.516	613.517	0.054	-0.133
-142.502	307.661	0.090	-0.166
-141.487	-5.199	0.127	-0.086
-140.472	196.840	0.079	-0.118
-139.458	800.000	0.056	0.165
-138.443	8.510	0.308	0.227
-137.429	-150.094	-0.443	0.034
-136.414	-129.752	0.254	-0.034
-135.399	-200.000	0.300	0.001
-134.385	800.000	0.068	-0.191
-133.370	-200.000	-0.121	0.000
-132.356	2.522	0.093	0.066
-131.341	-100.228	0.287	-0.070
-130.326	800.000	0.108	0.321
-129.312	800.000	-0.037	-0.114
-128.297	-200.000	-0.062	0.307
-127.283	707.727	0.057	0.147
-126.268	800.000	0.157	-0.478
-125.253	-200.000	0.030	0.141
-124.239	-137.727	0.133	0.015
-123.224	-36.701	-0.381	0.201
-122.210	-25.992	-0.100	-0.058
-121.195	-8.011	0.402	-0.266
-120.180	91.268	-0.227	0.250
-119.166	-200.000	0.053	0.270
-118.151	155.728	-0.122	0.165
-117.137	712.722	-0.103	-0.267
-116.122	4.532	-0.100	0.072
-115.107	272.090	0.155	0.268
-114.093	800.000	0.107	-0.376
-113.078	142.769	-0.174	-0.227
-112.064	-83.420	-0.102	0.032
-111.049	-6.347	0.244	0.163
-110.034	-200.000	0.023	-0.108
-109.020	-200.000	0.003	-0.438
-108.005	39.266	-0.179	-0.157
-106.991	-200.000	0.011	0.126
-105.976	800.000	0.083	0.243
-104.962	-197.149	0.320	0.002
-103.947	-134.084	-0.156	-0.019
-102.932	109.559	0.035	-0.041
-101.918	-200.000	-0.013	-0.192
-100.903	-110.275	-0.330	-0.067
-99.889	37.535	0.064	0.056
-98.874	800.000	0.069	-0.249
-97.859	-8.172	-0.246	0.162
-96.845	86.961	-0.141	0.152
-95.830	-87.143	-0.098	-0.029
-94.816	-200.000	-0.027	0.395
-93.801	60.845	0.196	-0.190
-92.786	-200.000	-0.052	0.247
-91.772	-134.297	0.253	-0.030
-90.757	39.749	0.372	0.327
-89.743	-200.000	0.032	0.295
-88.728	268.573	-0.128	0.219
-87.713	29.849	-0.182	0.152
-86.699	-200.000	-0.009	0.127
-85.684	503.824	-0.062	-0.141
-84.670	125.667	0.209	0.258
-83.655	-90.517	-0.400	0.114
-82.640	-63.014	0.146	0.059
-81.626	-150.998	-0.218	-0.016
-80.611	658.705	0.094	0.237
-79.597	-15.949	-0.334	0.208
-78.582	800.000	0.027	0.092
-77.567	-70.642	-0.227	-0.084
-76.553	0.304	-0.335	-0.234
-75.538	37.796	0.035	-0.030
-74.524	30.830	0.084	0.071
-73.509	-75.610	0.114	-0.040
-72.494	-200.000	-0.012	0.168
-71.480	11.736	0.096	0.072
-70.465	-99.984	0.372	-0.091
-69.451	-81.626	-0.102	0.033
-68.436	800.000	0.011	-0.030
-67.422	-98.211	0.099	0.025
-66.407	266.297	-0.181	0.310
-65.392	551.992	0.042	0.098
-64.378	-42.275	-0.132	0.066
-63.363	-139.568	0.148	0.015
-62.349	-20.689	-0.225	0.135
-61.334	41.904	-1.059	-0.940
-60.319	12.870	0.714	0.540
-59.305	638.206	-0.471	-1.172
-58.290	603.239	0.608	1.480
-57.276	800.000	0.421	1.537
-56.261	-200.000	113.712	640.620
-55.246	464.587	1511.125	3305.637
-54.232	145.436	2689.315	3522.531
-53.217	96.961	2296.050	2574.821
-52.203	36.474	1906.699	1645.428
-51.188	30.595	1697.722	1420.283
-50.173	28.108	1655.733	1366.547
-49.159	50.131	1710.348	1579.184
-48.144	48.886	1724.601	1582.859
-47.130	30.219	1683.852	1405.607
-46.115	27.508	1669.338	1373.039
-45.100	27.388	1664.191	1367.845
-44.086	27.341	1661.853	1365.517
-43.071	27.414	1658.418	1363.191
-42.057	27.365	1656.734	1361.381
-41.042	27.358	1654.612	1359.531
-40.027	27.340	1652.834	1357.884
-39.013	27.333	1650.171	1355.588
-37.998	27.292	1649.174	1354.410
-36.984	27.398	1647.491	1353.768
-35.969	27.422	1646.246	1352.866
-34.954	27.528	1643.998	1351.753
-33.940	27.364	1642.936	1349.612
-32.925	27.422	1640.581	1348.050
-31.911	27.395	1639.248	1346.700
-30.896	27.392	1637.504	1345.191
-29.881	27.425	1636.079	1344.212
-28.867	27.317	1634.221	1341.837
-27.852	27.441	1632.668	1341.422
-26.838	27.436	1630.957	1339.925
-25.823	27.465	1629.776	1339.119
-24.809	27.499	1628.761	1338.478
-23.794	27.416	1627.461	1336.751
-22.779	27.379	1626.066	1335.276
-21.765	27.452	1623.721	1333.836
-20.750	27.385	1622.478	1332.270
-19.736	27.429	1620.827	1331.185
-18.721	27.523	1619.773	1330.947
-17.706	27.469	1618.680	1329.605
-16.692	27.481	1616.654	1327.973
-15.677	27.557	1615.039	1327.149
-14.663	27.476	1614.395	1325.977
-13.648	27.459	1612.597	1324.323
-12.633	27.470	1611.059	1323.088
-11.619	27.511	1609.499	1322.050
-10.604	27.476	1608.315	1320.774
-9.590	27.457	1607.027	1319.529
-8.575	27.577	1605.471	1319.064
-7.560	27.495	1604.757	1317.831
-6.546	27.507	1603.117	1316.519
-5.531	27.459	1602.221	1315.388
-4.517	27.467	1601.011	1314.402
-3.502	27.424	1600.219	1313.386
-2.487	27.583	1598.394	1312.980
-1.473	27.232	1586.156	1300.366
-0.458	24.373	1566.937	1264.327
0.556	19.171	1568.197	1233.458
1.571	17.020	1592.081	1236.474
2.586	16.577	1604.824	1243.008
3.600	16.132	1555.087	1201.207
4.615	14.105	1456.939	1111.758
5.629	11.876	1402.850	1056.024
6.644	11.315	1396.227	1047.347
7.659	11.312	1395.372	1046.590
8.673	11.368	1394.104	1045.904
9.688	11.315	1391.798	1043.748
10.702	11.186	1388.757	1040.546
11.717	12.131	1390.072	1047.479
12.731	14.732	1394.347	1067.252
13.746	17.118	1397.859	1085.110
14.761	17.538	1397.259	1087.229
15.775	16.752	1394.651	1080.092
16.790	15.546	1392.438	1070.600
17.804	14.705	1389.871	1063.179
18.819	14.316	1387.824	1059.045
19.834	14.039	1386.706	1056.343
20.848	13.803	1385.328	1053.697
21.863	13.545	1384.243	1051.143
22.877	13.365	1383.329	1049.217
23.892	13.413	1382.387	1048.711
24.907	13.415	1381.296	1047.804
25.921	13.377	1380.573	1046.920
26.936	13.424	1379.468	1046.292
27.950	13.416	1378.692	1045.561
28.965	13.500	1377.341	1044.974
29.980	13.565	1376.391	1044.564
30.994	13.605	1375.561	1044.099
32.009	13.723	1373.582	1043.244
33.023	13.630	1372.934	1042.072
34.038	13.539	1371.803	1040.555
35.053	13.596	1370.036	1039.481
36.067	13.405	1369.618	1037.869
37.082	13.443	1368.412	1037.103
38.096	13.534	1367.181	1036.650
39.111	13.629	1366.271	1036.460
40.126	13.424	1365.505	1034.504
41.140	13.367	1364.276	1033.131
42.155	13.278	1364.016	1032.285
43.169	13.310	1363.868	1032.279
44.184	13.285	1363.498	1031.752
45.199	13.327	1363.093	1031.619
46.213	13.370	1362.395	1031.266
47.228	13.420	1361.175	1030.561
48.242	13.531	1359.950	1030.235
49.257	13.319	1358.912	1028.041
50.271	13.469	1356.796	1027.282
51.286	13.465	1356.028	1026.580
52.301	13.559	1354.215	1025.700
53.315	13.550	1353.408	1024.942
54.330	13.324	1352.770	1022.970
55.344	13.347	1351.232	1021.860
56.359	13.387	1350.465	1021.434
57.374	13.335	1349.645	1020.407
58.388	13.311	1348.614	1019.390
59.403	13.328	1347.808	1018.792
60.417	13.277	1347.485	1018.146
61.432	13.344	1346.230	1017.515
62.447	13.106	1345.917	1015.725
63.461	13.143	1344.324	1014.665
64.476	13.206	1343.579	1014.395
65.490	13.227	1342.256	1013.435
66.505	13.222	1340.534	1012.018
67.520	13.225	1339.569	1011.215
68.534	13.303	1338.472	1010.774
69.549	13.317	1337.578	1010.096
70.563	13.258	1336.450	1008.794
71.578	13.111	1335.962	1007.439
72.593	13.171	1334.500	1006.615
73.607	13.174	1333.629	1005.887
74.622	13.098	1333.083	1004.926
75.636	13.068	1332.395	1004.137
76.651	13.126	1331.494	1003.717
77.666	13.049	1331.475	1003.151
78.680	13.230	1330.442	1003.377
79.695	13.171	1329.730	1002.397
80.709	13.237	1329.046	1002.190
81.724	13.290	1327.808	1001.492
82.739	13.354	1327.121	1001.274
83.753	13.357	1326.536	1000.762
84.768	13.432	1325.487	1000.333
85.782	13.573	1324.011	999.980
86.797	13.531	1322.887	998.788
87.812	13.340	1321.860	996.776
88.826	13.455	1320.415	996.292
89.841	13.481	1319.299	995.518
90.855	13.491	1318.139	994.614
91.870	13.524	1317.944	994.575
92.884	13.494	1316.820	993.458
93.899	13.569	1315.712	992.987
94.914	13.637	1315.381	993.055
95.928	13.503	1314.595	991.571
96.943	13.524	1313.467	990.761
97.957	13.451	1312.645	989.616
98.972	13.508	1311.501	989.005
99.987	13.523	1310.144	987.982
101.001	13.491	1309.343	987.105
102.016	13.470	1308.310	986.112
103.030	13.475	1307.346	985.326
104.045	13.498	1305.919	984.300
105.060	13.501	1305.015	983.553
106.074	13.428	1303.566	981.941
107.089	13.327	1302.215	980.233
108.103	13.320	1301.196	979.339
109.118	13.305	1299.779	978.098
110.133	13.215	1298.524	976.534
111.147	13.256	1297.042	975.579
112.162	13.376	1295.630	975.134
113.176	13.377	1294.922	974.522
114.191	13.408	1293.777	973.756
115.206	13.326	1292.716	972.390
116.220	13.397	1291.365	971.706
117.235	13.388	1290.060	970.586
118.249	13.454	1288.880	969.996
119.264	13.296	1287.860	968.220
120.279	13.343	1286.993	967.753
121.293	13.247	1286.400	966.663
122.308	13.272	1284.848	965.556
123.322	13.211	1284.218	964.640
124.337	13.178	1283.364	963.725
125.352	13.273	1281.977	963.148
126.366	13.263	1280.524	961.912
127.381	13.308	1279.560	961.366
128.395	13.323	1278.541	960.604
129.410	13.305	1277.505	959.634
130.424	13.292	1276.867	958.996
131.439	13.366	1275.776	958.523
132.454	13.424	1274.646	957.924
133.468	13.377	1273.994	957.079
134.483	13.349	1273.153	956.201
135.497	13.411	1271.915	955.539
136.512	13.392	1270.924	954.602
137.527	13.368	1269.534	953.334
138.541	13.471	1267.809	952.551
139.556	13.451	1266.462	951.338
140.570	13.483	1265.590	950.781
141.585	13.412	1264.882	949.761
142.600	13.495	1263.576	949.169
143.614	13.547	1262.806	948.803
144.629	13.609	1261.602	948.171
145.643	13.631	1260.257	947.202
146.658	13.523	1259.154	945.676
147.673	13.513	1257.695	944.436
148.687	13.444	1256.457	943.033
149.702	13.477	1255.031	942.065
150.716	13.449	1253.573	940.728
151.731	13.448	1252.447	939.793
152.746	13.547	1251.417	939.500
153.760	13.559	1249.876	938.330
154.775	13.529	1249.176	937.551
155.789	13.656	1247.430	936.871
156.804	13.616	1246.906	936.170
157.819	13.591	1246.185	935.407
158.833	13.715	1245.445	935.466
159.848	13.676	1244.127	934.174
160.862	13.728	1242.880	933.448
161.877	13.601	1241.826	931.858
162.892	13.531	1241.066	930.812
163.906	13.619	1239.893	930.344
164.921	13.598	1239.164	929.598
165.935	13.751	1238.005	929.503
166.950	13.744	1237.227	928.796
167.964	13.670	1236.608	927.840
168.979	13.641	1236.215	927.300
169.994	13.779	1235.292	927.295
171.008	13.775	1234.030	926.243
172.023	13.781	1233.487	925.787
173.037	13.779	1232.782	925.168
174.052	13.770	1232.090	924.512
175.067	13.673	1230.777	922.910
176.081	13.598	1229.661	921.571
177.096	13.701	1229.190	921.713
178.110	13.633	1227.662	920.104
179.125	13.579	1226.952	919.190
180.140	13.757	1225.074	918.687
181.154	13.793	1224.130	918.099
182.169	13.789	1223.173	917.278
183.183	13.854	1221.839	916.554
184.198	13.881	1220.403	915.545
185.213	14.007	1219.355	915.376
186.227	13.956	1218.585	914.431
187.242	13.962	1217.674	913.702
188.256	14.016	1216.614	913.124
189.271	14.002	1215.892	912.423
190.286	13.975	1214.261	910.972
191.300	13.770	1213.870	909.471
192.315	13.621	1213.257	908.117
193.329	13.871	1212.264	908.663
194.344	13.776	1211.813	907.725
195.359	13.856	1210.978	907.454
196.373	13.869	1210.656	907.205
197.388	13.950	1210.396	907.372
198.402	14.105	1209.272	907.295
199.417	14.248	1208.828	907.663
200.432	14.286	1207.687	906.931
201.446	14.213	1207.107	906.016
202.461	14.208	1206.215	905.241
203.475	14.199	1205.434	904.525
204.490	14.210	1203.749	903.244
205.504	14.193	1202.688	902.272
206.519	14.200	1201.619	901.427
207.534	14.238	1200.466	900.692
208.548	14.228	1199.840	900.089
209.563	14.172	1198.516	898.713
210.577	14.169	1197.894	898.146
211.592	14.172	1196.902	897.343
212.607	14.333	1195.972	897.432
213.621	14.413	1195.384	897.343
214.636	14.208	1194.544	895.529
215.650	14.362	1193.271	895.324
216.665	14.311	1192.210	894.175
217.680	14.361	1191.592	893.898
218.694	14.464	1190.498	893.551
219.709	14.397	1189.970	892.718
220.723	14.397	1189.187	892.053
221.738	14.497	1188.350	891.879
222.753	14.407	1187.912	890.993
223.767	14.448	1187.434	890.773
224.782	14.519	1186.810	890.607
225.796	14.625	1185.791	890.326
226.811	14.491	1185.472	889.295
227.826	14.513	1184.615	888.692
228.840	14.461	1184.145	887.980
229.855	14.499	1183.195	887.394
230.869	14.403	1182.456	886.251
231.884	14.406	1181.893	885.767
232.899	14.518	1180.621	885.326
233.913	14.385	1179.966	884.053
234.928	14.481	1179.211	883.918
235.942	14.561	1178.120	883.448
236.957	14.530	1177.724	882.907
237.972	14.462	1177.042	881.959
238.986	14.431	1176.381	881.220
240.001	14.484	1175.672	880.891
241.015	14.590	1174.588	880.563
242.030	14.508	1174.173	879.740
243.045	14.613	1173.135	879.438
244.059	14.602	1172.410	878.755
245.074	14.500	1171.843	877.719
246.088	14.613	1171.078	877.663
247.103	14.724	1170.122	877.452
248.117	14.755	1169.163	876.816
249.132	14.780	1168.775	876.578
250.147	14.931	1167.635	876.441
251.161	15.007	1167.333	876.533
252.176	14.945	1166.604	875.582
253.190	14.997	1166.116	875.413
254.205	15.032	1165.305	874.906
255.220	14.891	1165.053	873.905
256.234	15.057	1164.189	874.045
257.249	15.096	1163.240	873.457
258.263	15.067	1162.782	872.885
259.278	15.073	1162.116	872.341
260.293	15.005	1161.631	871.543
261.307	15.083	1161.132	871.498
262.322	15.155	1160.504	871.325
263.336	15.278	1159.298	870.980
264.351	15.110	1159.445	870.144
265.366	15.136	1158.706	869.648
266.380	15.214	1157.578	869.128
267.395	15.238	1156.329	868.235
268.409	15.164	1155.684	867.294
269.424	15.172	1155.203	866.897
270.439	15.192	1154.677	866.531
271.453	15.220	1153.790	865.931
272.468	15.122	1153.011	864.762
273.482	15.245	1152.139	864.666
274.497	14.997	1152.481	863.568
275.512	15.154	1151.414	863.504
276.526	15.269	1149.985	862.944
277.541	15.221	1149.414	862.191
278.555	15.314	1148.646	862.021
279.570	15.338	1148.210	861.741
280.585	15.346	1147.395	861.094
281.599	15.305	1146.705	860.287
282.614	15.303	1145.252	859.110
283.628	15.367	1144.017	858.438
284.643	15.285	1143.741	857.732
285.657	15.373	1142.789	857.394
286.672	15.306	1141.811	856.243
287.687	15.381	1140.899	855.863
288.701	15.306	1140.017	854.744
289.716	15.449	1138.940	854.590
290.730	15.515	1138.380	854.432
291.745	15.384	1138.163	853.524
292.760	15.482	1137.342	853.334
293.774	15.463	1136.803	852.757
294.789	15.461	1136.632	852.542
295.803	15.518	1135.768	852.107
296.818	15.464	1134.585	850.872
297.833	15.551	1133.617	850.513
298.847	15.567	1133.146	850.162
299.862	15.598	1132.201	849.538
300.876	15.620	1131.308	848.902
301.891	15.626	1130.798	848.473
302.906	15.669	1130.229	848.188
303.920	15.775	1129.557	848.142
304.935	15.714	1129.045	847.378
305.949	15.865	1128.409	847.587
306.964	15.910	1127.831	847.304
307.979	15.784	1127.130	846.067
308.993	15.845	1125.840	845.330
310.008	15.839	1125.441	844.928
311.022	15.844	1124.687	844.309
312.037	15.837	1123.999	843.682
313.052	15.839	1123.042	842.901
314.066	15.765	1121.508	841.303
315.081	15.761	1121.066	840.882
316.095	15.788	1120.214	840.298
317.110	15.764	1119.609	839.651
318.125	15.816	1118.697	839.156
319.139	15.666	1118.291	838.029
320.154	15.755	1117.319	837.669
321.168	15.647	1117.168	836.940
322.183	15.848	1115.879	836.901
323.197	15.764	1115.727	836.296
324.212	15.852	1114.475	835.720
325.227	15.863	1114.395	835.642
326.241	15.849	1113.800	835.051
327.256	15.905	1112.850	834.541
328.270	15.803	1112.158	833.445
329.285	15.916	1110.755	832.880
330.300	15.811	1109.911	831.655
331.314	15.802	1109.259	831.048
332.329	15.878	1107.878	830.314
333.343	15.972	1107.046	830.079
334.358	16.047	1106.688	830.109
335.373	15.942	1105.657	828.742
336.387	16.009	1104.838	828.387
337.402	16.164	1104.018	828.461
338.416	16.069	1103.629	827.628
339.431	16.181	1102.768	827.460
340.446	16.109	1102.342	826.713
341.460	16.215	1101.810	826.761
342.475	16.331	1100.379	826.180
343.489	16.359	1099.728	825.758
344.504	16.300	1099.147	824.959
345.519	16.259	1098.225	823.993
346.533	16.424	1097.250	823.992
347.548	16.361	1096.674	823.180
348.562	16.373	1095.799	822.510
349.577	16.281	1095.119	821.476
350.592	16.284	1094.391	820.875
351.606	16.216	1093.906	820.105
352.621	16.221	1093.298	819.605
353.635	16.240	1092.564	819.071
354.650	16.229	1091.750	818.335
355.665	16.285	1090.583	817.663
356.679	16.339	1090.307	817.643
357.694	16.334	1089.488	816.931
358.708	16.474	1088.771	816.997
359.723	16.455	1087.722	816.049
360.738	16.451	1087.564	815.837
361.752	16.349	1087.472	815.207
362.767	16.467	1086.446	814.934
363.781	16.470	1085.837	814.420
364.796	16.545	1085.171	814.209
365.810	16.548	1084.851	813.909
366.825	16.602	1084.613	813.921
367.840	16.668	1083.835	813.581
368.854	16.781	1082.846	813.310
369.869	16.814	1082.325	813.005
370.883	16.751	1081.204	811.787
371.898	16.752	1080.625	811.285
372.913	16.653	1080.304	810.500
373.927	16.752	1079.255	810.113
374.942	16.822	1078.832	810.059
375.956	16.766	1078.479	809.455
376.971	16.708	1078.082	808.810
377.986	16.862	1077.188	808.800
379.000	16.887	1077.049	808.743
380.015	16.883	1076.448	808.200
381.029	16.914	1075.723	807.735
382.044	16.888	1075.246	807.180
383.059	16.816	1074.525	806.227
384.073	16.844	1073.642	805.626
385.088	16.905	1072.554	805.026
386.102	16.874	1071.860	804.286
387.117	16.860	1070.860	803.398
388.132	16.913	1069.746	802.741
389.146	16.957	1069.105	802.398
390.161	16.848	1068.202	801.134
391.175	16.937	1067.334	800.835
392.190	16.960	1066.761	800.442
393.205	16.987	1066.106	800.008
394.219	17.123	1065.435	800.072
395.234	16.972	1064.232	798.391
396.248	17.022	1063.513	798.012
397.263	17.079	1062.198	797.225
398.278	17.110	1061.399	796.699
399.292	16.867	1061.270	795.393
400.307	17.003	1060.109	795.090
401.321	16.985	1059.806	794.705
402.336	16.965	1059.143	794.044
403.350	17.056	1058.263	793.742
404.365	17.090	1057.410	793.191
405.380	17.075	1057.265	792.943
406.394	16.959	1056.790	791.973
407.409	17.238	1055.571	792.288
408.423	17.203	1055.093	791.700
409.438	17.336	1054.347	791.689
410.453	17.370	1053.719	791.304
411.467	17.342	1053.002	790.567
412.482	17.390	1051.926	789.911
413.496	17.400	1051.945	789.902
414.511	17.380	1051.290	789.249
415.526	17.342	1050.835	788.660
416.540	17.404	1049.754	788.067
417.555	17.476	1049.347	788.024
418.569	17.621	1048.792	788.210
419.584	17.587	1048.058	787.430
420.599	17.539	1048.237	787.273
421.613	104.376	1326.064	1474.741
422.628	95.986	1366.493	1474.843
