DTS Sentinel unit serial number:	SN413079Multiplexer serial number:	ORYXHardware model number:	OX4-SRSoftware version number:	ORYX F/W v4.00 Oryx Data Collector v3.7.2.0data status	okinstallation	princeton_trtdifferential loss correction	single-endedforward channel	channel 2reverse channel	N/Adate	2019/09/17time	07:55:34forward acquisition time	60.00reverse acquisition time	0.00gamma	496.2192k internal	0.2333k external	0.2333temperature offset calibration	0.9974default loss term (dB/km)	0.3790temperature slope calibration	1.0000multiplexer offset coefficient	1.0000multiplexer slope coefficient	1.0000fibre end	0.00T internal ref (°C)	27.20T ext. ref 1 (°C)	0.12T ext. ref 2 (°C)	22.29length (m)	temperature (°C)	Stokes	anti-Stokes-747.200	-47.908	-0.210	-0.102
-746.185	-200.000	-0.035	0.200
-745.171	-200.000	-0.020	-0.201
-744.156	-200.000	0.011	-0.063
-743.142	43.834	-0.123	-0.113
-742.127	-136.144	0.346	0.041
-741.112	213.347	0.077	-0.122
-740.098	144.900	-0.075	0.101
-739.083	800.000	0.070	0.292
-738.069	-62.919	-0.260	-0.108
-737.054	565.974	0.013	0.031
-736.039	-200.000	0.004	0.041
-735.025	30.902	0.372	0.320
-734.010	-200.000	-0.069	-0.345
-732.996	-45.570	0.350	0.174
-731.981	-38.201	-0.104	0.056
-730.966	-173.706	-0.164	-0.005
-729.952	-200.000	-0.008	0.238
-728.937	-154.902	-0.313	0.021
-727.923	-113.887	-0.182	-0.036
-726.908	480.771	-0.187	-0.425
-725.894	-183.254	-0.373	-0.007
-724.879	56.125	-0.156	0.152
-723.864	-188.372	-0.263	-0.003
-722.850	-200.000	0.004	-0.228
-721.835	-200.000	-0.006	0.052
-720.821	-161.012	0.251	-0.013
-719.806	413.775	0.062	-0.133
-718.791	-14.414	0.095	-0.061
-717.777	243.459	-0.142	0.239
-716.762	-200.000	0.002	-0.046
-715.748	-200.000	-0.002	0.131
-714.733	-200.000	0.077	0.342
-713.718	-82.484	0.388	-0.127
-712.704	439.769	-0.157	-0.345
-711.689	-107.547	-0.254	-0.056
-710.675	-200.000	0.007	-0.408
-709.660	800.000	0.046	0.177
-708.645	-200.000	0.019	0.311
-707.631	-200.000	-0.013	0.223
-706.616	-84.518	-0.216	0.069
-705.602	-10.340	0.109	0.073
-704.587	-200.000	-0.006	-0.059
-703.572	-108.588	-0.367	-0.079
-702.558	83.348	0.273	-0.298
-701.543	-200.000	0.056	0.274
-700.529	-73.190	0.413	0.152
-699.514	206.675	-0.180	0.281
-698.499	83.322	0.216	-0.236
-697.485	-33.908	-0.084	-0.046
-696.470	-200.000	0.045	-0.455
-695.456	-200.000	-0.013	-0.080
-694.441	-200.000	-0.025	0.265
-693.426	800.000	0.037	-0.110
-692.412	-120.528	0.187	-0.032
-691.397	-115.396	0.275	-0.052
-690.383	518.678	0.071	0.167
-689.368	-55.273	-0.222	-0.100
-688.354	-200.000	0.030	0.382
-687.339	-78.064	-0.503	-0.174
-686.324	19.216	-0.261	0.210
-685.310	-70.765	-0.190	-0.072
-684.295	-200.000	-0.004	-0.179
-683.281	83.124	-0.243	-0.266
-682.266	-102.587	-0.356	0.085
-681.251	-137.652	0.064	-0.007
-680.237	264.959	-0.065	0.113
-679.222	-200.000	0.008	0.072
-678.208	-200.000	0.029	-0.168
-677.193	-93.941	-0.381	-0.105
-676.178	58.961	0.141	-0.139
-675.164	-43.419	-0.007	-0.004
-674.149	428.139	-0.102	-0.221
-673.135	800.000	-0.039	0.138
-672.120	-41.436	-0.217	0.112
-671.105	42.983	0.137	-0.126
-670.091	91.831	0.045	-0.051
-669.076	-97.765	0.330	0.086
-668.062	-130.445	-0.095	-0.013
-667.047	77.174	-0.175	-0.187
-666.032	64.028	0.157	0.159
-665.018	-200.000	0.007	-0.036
-664.003	-29.686	-0.148	-0.084
-662.989	83.392	0.146	-0.159
-661.974	-22.488	-0.029	0.018
-660.959	-68.777	-0.348	-0.135
-659.945	330.699	0.127	-0.245
-658.930	741.050	-0.117	0.316
-657.916	-104.874	0.144	0.033
-656.901	-135.002	0.122	-0.015
-655.886	800.000	0.104	0.336
-654.872	59.724	0.177	-0.175
-653.857	337.566	0.064	-0.125
-652.843	21.738	0.157	-0.128
-651.828	133.442	-0.110	0.142
-650.814	400.211	0.094	-0.197
-649.799	173.753	0.085	-0.123
-648.784	-66.598	0.232	-0.092
-647.770	99.822	-0.264	-0.306
-646.755	-200.000	-0.030	0.389
-645.741	45.712	0.160	-0.148
-644.726	800.000	-0.044	0.164
-643.711	113.746	-0.268	0.326
-642.697	-200.000	-0.008	0.445
-641.682	-160.527	-0.160	0.009
-640.668	-58.426	0.143	-0.062
-639.653	-128.703	-0.242	0.034
-638.638	18.621	-0.114	0.092
-637.624	259.757	-0.176	-0.304
-636.609	203.346	0.120	0.186
-635.595	171.162	-0.059	-0.085
-634.580	-129.662	0.172	0.024
-633.565	-74.871	-0.373	-0.134
-632.551	632.367	0.051	0.130
-631.536	-127.889	0.165	-0.024
-630.522	-50.703	-0.112	-0.053
-629.507	-126.455	-0.275	0.041
-628.492	-200.000	0.012	0.239
-627.478	800.000	-0.029	0.097
-626.463	624.737	0.055	-0.139
-625.449	391.791	-0.117	0.243
-624.434	-133.350	0.242	-0.030
-623.419	-84.622	0.298	-0.094
-622.405	390.458	0.098	0.203
-621.390	-184.953	0.412	0.007
-620.376	317.085	-0.170	0.322
-619.361	51.991	-0.166	-0.158
-618.346	-74.094	-0.325	-0.118
-617.332	-92.535	-0.201	-0.056
-616.317	3.933	0.079	-0.058
-615.303	345.000	0.102	0.200
-614.288	-45.866	-0.108	0.053
-613.273	162.873	-0.194	-0.273
-612.259	800.000	-0.066	-0.205
-611.244	-143.643	0.350	0.033
-610.230	55.520	0.226	0.219
-609.215	-200.000	0.047	0.384
-608.201	-36.749	-0.136	0.073
-607.186	72.297	-0.107	-0.112
-606.171	68.548	-0.199	-0.204
-605.157	-200.000	0.030	-0.231
-604.142	-124.553	0.151	0.024
-603.128	-139.782	0.214	0.023
-602.113	246.779	-0.185	-0.311
-601.098	-143.176	-0.129	0.012
-600.084	-14.956	-0.218	-0.140
-599.069	147.193	-0.117	-0.157
-598.055	430.587	0.086	0.185
-597.040	800.000	-0.058	-0.222
-596.025	-146.914	-0.008	-0.001
-595.011	-119.240	-0.103	-0.018
-593.996	281.557	0.111	-0.198
-592.982	-200.000	0.017	-0.156
-591.967	621.169	0.020	0.049
-590.952	-200.000	0.028	0.150
-589.938	-200.000	0.066	-0.327
-588.923	-127.835	0.061	-0.009
-587.909	-171.501	-0.235	0.008
-586.894	800.000	-0.060	0.190
-585.879	-123.516	-0.174	-0.028
-584.865	121.384	-0.181	0.225
-583.850	92.588	-0.219	-0.247
-582.836	411.425	-0.040	-0.085
-581.821	66.451	-0.137	-0.139
-580.806	191.986	0.122	-0.184
-579.792	-200.000	-0.048	0.248
-578.777	-23.803	-0.199	0.119
-577.763	-85.793	-0.362	0.112
-576.748	93.843	0.085	-0.096
-575.733	-151.181	0.221	0.017
-574.719	397.921	-0.097	0.203
-573.704	159.381	-0.112	-0.156
-572.690	12.776	0.070	-0.054
-571.675	84.277	-0.162	0.177
-570.661	-136.508	0.150	0.017
-569.646	-104.432	0.089	0.021
-568.631	-15.896	0.295	-0.187
-567.617	9.622	0.117	-0.089
-566.602	-131.962	-0.310	-0.040
-565.588	424.397	-0.031	0.068
-564.573	-200.000	-0.049	0.319
-563.558	217.149	-0.147	0.234
-562.544	-10.599	0.159	0.105
-561.529	-200.000	-0.028	-0.198
-560.515	-164.927	-0.222	0.010
-559.500	281.941	-0.100	-0.180
-558.485	-200.000	-0.001	-0.214
-557.471	194.247	-0.245	0.370
-556.456	118.536	-0.033	0.040
-555.442	-200.000	-0.027	0.189
-554.427	335.942	-0.178	0.344
-553.412	-133.967	-0.071	-0.009
-552.398	-60.942	0.236	0.099
-551.383	-200.000	-0.167	0.001
-550.369	339.918	-0.125	-0.243
-549.354	-173.818	-0.209	0.006
-548.339	168.879	-0.046	0.066
-547.325	110.389	-0.146	0.175
-546.310	367.055	-0.071	-0.144
-545.296	215.410	0.137	0.217
-544.281	-130.351	-0.401	-0.054
-543.266	281.490	-0.149	-0.266
-542.252	-200.000	0.000	0.113
-541.237	289.147	0.075	-0.135
-540.223	-15.396	0.275	-0.175
-539.208	-35.858	0.257	0.139
-538.193	-200.000	-0.014	-0.161
-537.179	800.000	-0.031	0.125
-536.164	-200.000	-0.007	-0.116
-535.150	177.691	-0.117	-0.171
-534.135	800.000	-0.051	-0.145
-533.121	195.753	-0.174	-0.264
-532.106	800.000	-0.041	-0.136
-531.091	263.301	0.170	-0.294
-530.077	-200.000	-0.001	-0.084
-529.062	192.219	-0.090	0.135
-528.048	-29.780	-0.160	-0.091
-527.033	-77.828	0.330	-0.114
-526.018	133.500	-0.072	-0.093
-525.004	149.010	-0.128	-0.172
-523.989	-55.810	-0.210	0.094
-522.975	61.555	0.258	-0.256
-521.960	37.716	-0.183	0.162
-520.945	63.589	-0.141	0.141
-519.931	217.430	0.114	0.182
-518.916	-32.838	-0.059	0.033
-517.902	-64.412	-0.261	0.106
-516.887	-18.834	0.359	-0.223
-515.872	-133.565	-0.285	-0.036
-514.858	234.953	-0.131	-0.215
-513.843	169.277	-0.181	0.257
-512.829	246.863	-0.158	-0.265
-511.814	-200.000	0.004	-0.025
-510.799	-200.000	0.011	-0.165
-509.785	-7.768	-0.086	-0.058
-508.770	51.370	-0.045	0.043
-507.756	121.625	-0.234	-0.291
-506.741	-90.956	-0.486	0.139
-505.726	-62.815	-0.060	0.025
-504.712	-103.582	0.151	0.035
-503.697	2.665	0.145	0.105
-502.683	-80.018	-0.390	-0.130
-501.668	-37.755	0.152	0.080
-500.653	-105.550	0.082	0.019
-499.639	-142.627	0.163	0.016
-498.624	-0.549	-0.139	0.098
-497.610	-2.303	-0.189	0.132
-496.595	543.871	-0.169	0.402
-495.581	334.336	-0.028	0.053
-494.566	-60.441	-0.501	-0.212
-493.551	-189.021	0.274	-0.003
-492.537	343.846	0.047	-0.092
-491.522	-112.758	-0.293	-0.058
-490.508	800.000	0.065	0.216
-489.493	231.663	-0.176	0.287
-488.478	-200.000	-0.002	0.272
-487.464	-200.000	0.066	-0.321
-486.449	368.539	-0.060	-0.122
-485.435	-128.134	-0.245	0.035
-484.420	510.590	0.102	0.237
-483.405	107.990	0.200	-0.237
-482.391	-162.522	0.297	-0.015
-481.376	-7.255	-0.092	-0.062
-480.362	-200.000	0.038	-0.227
-479.347	71.244	-0.144	0.149
-478.332	-46.522	0.120	-0.058
-477.318	-93.899	-0.160	0.044
-476.303	233.933	-0.064	-0.105
-475.289	-28.230	-0.148	0.085
-474.274	800.000	0.048	-0.196
-473.259	-200.000	0.019	-0.154
-472.245	-142.621	-0.287	-0.028
-471.230	800.000	0.087	0.280
-470.216	-65.163	-0.449	0.180
-469.201	-105.614	-0.120	-0.027
-468.186	-106.870	0.277	-0.061
-467.172	17.201	-0.114	-0.090
-466.157	-56.916	0.172	-0.076
-465.143	59.607	0.119	0.117
-464.128	-200.000	0.058	0.358
-463.113	-72.474	0.040	-0.015
-462.099	334.314	-0.140	0.269
-461.084	800.000	0.090	0.391
-460.070	82.164	-0.172	0.185
-459.055	-146.910	-0.189	0.016
-458.040	43.324	-0.161	-0.146
-457.026	111.779	0.241	-0.290
-456.011	118.120	-0.142	-0.174
-454.997	135.728	0.112	0.145
-453.982	-200.000	-0.032	-0.280
-452.968	208.586	-0.057	-0.088
-451.953	-100.849	-0.119	0.029
-450.938	-136.529	0.034	-0.004
-449.924	-29.702	0.024	-0.014
-448.909	579.231	0.151	-0.367
-447.895	-109.573	0.108	-0.023
-446.880	-42.129	0.151	-0.077
-445.865	173.105	-0.275	0.393
-444.851	-200.000	-0.013	-0.205
-443.836	-200.000	0.009	0.054
-442.822	9.414	0.111	0.083
-441.807	370.476	0.138	0.277
-440.792	412.507	-0.099	0.210
-439.778	-136.591	0.282	0.032
-438.763	-83.580	-0.104	0.033
-437.749	-124.732	0.270	-0.042
-436.734	-98.922	-0.032	0.008
-435.719	-200.000	0.010	0.197
-434.705	800.000	0.104	0.416
-433.690	416.824	-0.046	-0.097
-432.676	25.505	0.248	-0.205
-431.661	-200.000	0.007	0.286
-430.646	-49.469	0.524	-0.248
-429.632	47.896	-0.081	-0.076
-428.617	-70.469	-0.052	0.020
-427.603	800.000	0.076	0.232
-426.588	268.678	-0.188	0.327
-425.573	-200.000	-0.004	-0.254
-424.559	-125.995	-0.318	-0.047
-423.544	-65.679	-0.076	-0.030
-422.530	22.941	0.208	-0.170
-421.515	-200.000	0.005	-0.068
-420.500	104.611	-0.228	0.267
-419.486	-125.892	-0.090	-0.013
-418.471	-38.990	-0.225	-0.118
-417.457	-125.276	0.442	0.067
-416.442	-154.738	-0.106	0.007
-415.428	-200.000	0.047	0.235
-414.413	464.287	0.052	0.116
-413.398	155.868	0.108	-0.148
-412.384	800.000	-0.080	-0.287
-411.369	-46.770	-0.178	-0.087
-410.355	239.972	0.065	0.107
-409.340	-48.127	0.190	-0.091
-408.325	-86.674	-0.270	-0.082
-407.311	-148.890	0.371	-0.030
-406.296	800.000	-0.085	0.248
-405.282	79.666	-0.065	0.069
-404.267	-128.473	0.382	0.054
-403.252	296.730	0.149	-0.272
-402.238	-124.634	-0.442	-0.068
-401.223	-200.000	-0.082	0.000
-400.209	-200.000	0.089	-0.413
-399.194	-200.000	-0.038	-0.421
-398.179	-200.000	0.013	0.102
-397.165	-156.181	0.063	0.004
-396.150	-200.000	-0.035	0.438
-395.136	-84.775	0.177	-0.055
-394.121	25.387	-0.067	-0.055
-393.106	800.000	-0.052	0.223
-392.092	-30.571	0.132	-0.074
-391.077	-132.588	0.121	0.015
-390.063	-111.605	0.249	0.050
-389.048	-8.248	-0.244	-0.163
-388.033	-165.463	-0.206	-0.009
-387.019	800.000	-0.046	0.172
-386.004	-39.626	0.094	-0.049
-384.990	28.167	-0.256	0.214
-383.975	-55.973	0.063	0.028
-382.960	123.701	-0.161	0.201
-381.946	74.706	0.102	0.106
-380.931	-200.000	-0.056	0.275
-379.917	231.716	0.146	0.237
-378.902	235.519	-0.137	-0.224
-377.888	33.162	0.109	-0.094
-376.873	-120.004	0.496	0.084
-375.858	-72.689	-0.143	-0.052
-374.844	-63.267	-0.391	0.160
-373.829	-200.000	-0.000	-0.272
-372.815	-200.000	-0.041	0.237
-371.800	-140.736	0.194	0.020
-370.785	407.386	-0.100	0.209
-369.771	81.070	0.095	-0.102
-368.756	-200.000	0.031	0.250
-367.742	-200.000	-0.030	0.253
-366.727	78.468	-0.174	0.184
-365.712	800.000	0.006	0.024
-364.698	-43.120	-0.265	0.133
-363.683	800.000	0.049	0.158
-362.669	209.886	0.104	-0.161
-361.654	800.000	-0.077	-0.261
-360.639	-200.000	0.014	0.078
-359.625	-47.012	-0.210	-0.102
-358.610	362.104	0.047	0.094
-357.596	208.692	-0.204	0.315
-356.581	-200.000	0.003	-0.047
-355.566	-2.709	0.144	-0.100
-354.552	-78.539	0.504	-0.171
-353.537	29.425	-0.259	-0.218
-352.523	-200.000	-0.001	0.114
-351.508	64.787	-0.107	-0.106
-350.493	78.780	0.097	0.103
-349.479	9.649	-0.137	-0.103
-348.464	-200.000	-0.057	-0.467
-347.450	-41.762	0.147	-0.074
-346.435	-54.771	-0.306	-0.137
-345.420	233.022	0.120	0.195
-344.406	401.698	0.212	0.440
-343.391	-200.000	-0.042	0.333
-342.377	-182.887	0.089	0.002
-341.362	52.711	-0.133	-0.126
-340.348	800.000	-0.018	0.060
-339.333	-49.812	0.422	-0.198
-338.318	-200.000	-0.031	-0.339
-337.304	-200.000	0.002	-0.098
-336.289	800.000	-0.051	0.142
-335.275	353.440	-0.079	-0.156
-334.260	800.000	0.087	-0.343
-333.245	-80.672	0.230	0.076
-332.231	29.927	-0.287	-0.242
-331.216	246.750	-0.192	0.321
-330.202	-91.006	0.591	-0.168
-329.187	-98.580	0.100	-0.025
-328.172	220.148	-0.115	-0.183
-327.158	282.378	0.238	0.422
-326.143	-100.275	0.250	0.061
-325.129	-200.000	-0.017	0.198
-324.114	-200.000	0.002	0.071
-323.099	-200.000	0.008	-0.110
-322.085	-33.684	0.033	0.018
-321.070	-200.000	-0.011	-0.284
-320.056	-144.973	0.259	-0.023
-319.041	800.000	-0.043	0.120
-318.026	800.000	0.060	-0.186
-317.012	-77.483	-0.323	-0.111
-315.997	800.000	0.079	0.325
-314.983	63.996	0.112	0.112
-313.968	-80.923	-0.038	0.013
-312.953	-95.213	0.085	0.023
-311.939	6.650	0.337	0.248
-310.924	242.037	0.247	-0.408
-309.910	-43.814	0.224	-0.111
-308.895	-67.500	-0.075	0.029
-307.880	-64.106	-0.264	-0.107
-306.866	47.224	0.069	0.064
-305.851	-109.947	0.278	0.058
-304.837	108.050	0.148	0.174
-303.822	-115.410	0.011	-0.002
-302.807	-200.000	-0.027	-0.122
-301.793	-200.000	-0.007	0.095
-300.778	-106.344	0.423	-0.093
-299.764	-200.000	-0.204	-0.001
-298.749	15.078	0.164	0.127
-297.735	530.361	-0.097	-0.226
-296.720	-3.827	-0.170	-0.116
-295.705	-200.000	-0.005	-0.089
-294.691	102.142	-0.124	0.143
-293.676	64.366	0.104	-0.103
-292.662	-200.000	-0.024	0.105
-291.647	-55.143	0.398	-0.177
-290.632	-73.834	-0.239	0.086
-289.618	395.985	0.096	0.198
-288.603	-21.208	0.203	0.122
-287.589	50.372	-0.202	-0.189
-286.574	490.116	-0.042	-0.094
-285.559	101.985	0.102	-0.118
-284.545	-90.733	-0.141	0.040
-283.530	-200.000	-0.026	0.443
-282.516	-200.000	-0.028	0.146
-281.501	-130.016	-0.263	0.036
-280.486	-113.193	-0.146	-0.028
-279.472	161.347	0.182	0.251
-278.457	129.244	-0.194	-0.245
-277.443	-92.621	0.190	-0.053
-276.428	354.710	0.125	0.245
-275.413	-200.000	-0.074	-0.389
-274.399	-200.000	-0.007	-0.382
-273.384	-200.000	-0.023	-0.164
-272.370	74.359	0.186	0.193
-271.355	18.040	-0.089	-0.070
-270.340	117.609	0.176	-0.214
-269.326	-62.120	0.073	-0.030
-268.311	35.008	0.337	0.291
-267.297	-200.000	0.041	0.210
-266.282	67.954	0.122	-0.124
-265.267	800.000	-0.018	-0.070
-264.253	-190.769	0.242	-0.003
-263.238	800.000	0.082	-0.301
-262.224	52.006	-0.118	0.111
-261.209	180.206	-0.074	0.107
-260.195	38.078	0.220	-0.193
-259.180	-200.000	0.016	0.192
-258.165	-136.585	-0.195	0.022
-257.151	237.069	0.063	-0.103
-256.136	29.563	-0.138	-0.116
-255.122	-146.987	-0.106	0.009
-254.107	-39.215	-0.176	0.091
-253.092	800.000	0.059	-0.233
-252.078	-173.292	0.079	0.002
-251.063	-134.984	0.191	0.023
-250.049	-44.972	-0.411	-0.202
-249.034	25.377	0.118	0.097
-248.019	650.897	0.046	-0.116
-247.005	-200.000	0.331	-0.002
-245.990	495.559	0.179	0.405
-244.976	-119.157	-0.301	0.052
-243.961	800.000	-0.133	0.428
-242.946	-106.024	0.094	0.021
-241.932	-162.855	0.392	0.019
-240.917	-77.145	-0.198	0.068
-239.903	-71.500	0.137	-0.050
-238.888	-133.188	0.158	0.020
-237.873	160.211	0.251	0.346
-236.859	440.092	0.136	-0.292
-235.844	-92.535	0.178	-0.049
-234.830	479.069	0.122	0.271
-233.815	192.317	0.319	-0.475
-232.800	325.262	-0.053	0.101
-231.786	582.210	0.051	-0.124
-230.771	-163.149	0.046	0.002
-229.757	-200.000	-0.050	-0.532
-228.742	33.704	-0.164	-0.141
-227.727	-63.804	0.189	0.076
-226.713	154.309	-0.100	0.136
-225.698	-200.000	-0.008	-0.057
-224.684	-200.000	-0.028	0.198
-223.669	227.569	0.170	0.272
-222.655	-144.687	-0.276	0.025
-221.640	212.940	0.141	0.220
-220.625	-200.000	-0.065	-0.425
-219.611	-142.250	-0.032	0.003
-218.596	7.528	0.033	-0.025
-217.582	-123.406	-0.093	-0.015
-216.567	-200.000	-0.027	-0.187
-215.552	-200.000	0.011	0.064
-214.538	73.770	-0.125	-0.129
-213.523	-64.098	0.233	-0.094
-212.509	-200.000	-0.005	0.048
-211.494	-78.036	-0.258	-0.088
-210.479	-174.144	0.204	0.006
-209.465	535.567	-0.208	-0.487
-208.450	114.671	-0.115	-0.138
-207.436	126.747	0.065	0.081
-206.421	-115.386	0.349	0.065
-205.406	369.948	-0.087	0.174
-204.392	-92.652	0.203	0.056
-203.377	-70.998	-0.231	-0.086
-202.363	-60.845	-0.051	0.021
-201.348	111.057	-0.109	0.129
-200.333	69.547	-0.166	-0.168
-199.319	65.472	0.358	0.357
-198.304	-200.000	-0.022	-0.183
-197.290	330.720	-0.082	0.155
-196.275	447.155	-0.065	0.141
-195.260	746.238	-0.153	-0.407
-194.246	-156.085	0.187	0.012
-193.231	-175.090	0.082	-0.002
-192.217	-109.526	-0.413	-0.086
-191.202	-89.862	0.377	-0.109
-190.187	37.706	-0.194	-0.170
-189.173	-122.896	0.431	-0.068
-188.158	-113.494	0.217	0.042
-187.144	-45.056	-0.131	-0.064
-186.129	-4.568	-0.068	0.046
-185.114	-200.000	-0.011	-0.172
-184.100	-79.465	0.163	-0.054
-183.085	-94.650	-0.127	-0.034
-182.071	-200.000	-0.018	-0.241
-181.056	-58.565	0.300	-0.128
-180.042	-26.955	0.227	0.130
-179.027	-23.162	0.209	-0.124
-178.012	800.000	0.029	-0.084
-176.998	-93.177	-0.197	0.054
-175.983	-200.000	-0.004	-0.071
-174.969	800.000	0.048	0.171
-173.954	-117.719	0.240	0.043
-172.939	12.890	0.267	0.203
-171.925	276.879	0.139	0.244
-170.910	-177.595	0.174	-0.004
-169.896	800.000	-0.070	-0.300
-168.881	-93.154	-0.154	-0.042
-167.866	-200.000	0.016	-0.160
-166.852	800.000	-0.036	0.107
-165.837	321.462	0.170	-0.317
-164.823	-200.000	0.066	0.395
-163.808	800.000	0.090	0.253
-162.793	124.867	-0.091	0.113
-161.779	58.158	-0.323	0.311
-160.764	-39.304	0.163	-0.084
-159.750	-123.411	-0.085	0.013
-158.735	154.496	0.107	0.145
-157.720	482.489	0.134	-0.298
-156.706	-127.040	0.327	0.047
-155.691	-200.000	0.075	0.341
-154.677	100.751	-0.108	-0.123
-153.662	86.979	0.166	-0.180
-152.647	-94.759	-0.205	0.055
-151.633	800.000	0.039	0.159
-150.618	-188.385	-0.347	0.004
-149.604	94.973	-0.152	-0.170
-148.589	15.419	-0.203	-0.157
-147.574	134.778	-0.171	-0.218
-146.560	-200.000	0.037	-0.202
-145.545	-200.000	0.001	-0.235
-144.531	52.906	0.248	-0.233
-143.516	-111.447	0.186	-0.037
-142.502	25.666	-0.194	-0.159
-141.487	-16.054	0.128	0.080
-140.472	-200.000	-0.018	0.261
-139.458	-200.000	0.082	0.532
-138.443	11.549	0.241	0.181
-137.429	-101.575	-0.284	-0.068
-136.414	456.012	0.074	0.162
-135.399	800.000	-0.033	0.101
-134.385	-200.000	0.050	0.438
-133.370	-23.113	-0.146	0.086
-132.356	558.175	0.031	0.074
-131.341	-40.404	0.348	0.177
-130.326	124.173	0.189	0.233
-129.312	-200.000	0.115	-0.594
-128.297	-57.166	0.314	-0.136
-127.283	30.874	-0.117	0.098
-126.268	97.095	0.074	0.083
-125.253	-200.000	-0.013	0.120
-124.239	-61.320	-0.122	-0.050
-123.224	8.141	0.202	0.149
-122.210	171.623	-0.117	-0.165
-121.195	-200.000	0.003	0.316
-120.180	800.000	-0.024	0.087
-119.166	6.204	0.184	-0.134
-118.151	800.000	0.013	-0.039
-117.137	-99.440	-0.268	-0.066
-116.122	607.068	-0.094	-0.231
-115.107	-82.211	-0.044	0.014
-114.093	-200.000	-0.015	0.089
-113.078	-22.107	-0.236	0.140
-112.064	-200.000	-0.006	0.180
-111.049	-9.559	-0.067	-0.044
-110.034	-141.421	0.340	-0.034
-109.020	385.899	0.171	-0.346
-108.005	-56.817	0.217	0.094
-106.991	14.496	0.126	0.096
-105.976	2.525	0.162	-0.115
-104.962	-56.711	0.107	-0.046
-103.947	-200.000	-0.007	-0.077
-102.932	-113.964	-0.052	0.010
-101.918	-200.000	0.012	-0.054
-100.903	-200.000	0.036	-0.212
-99.889	-25.371	-0.264	-0.153
-98.874	334.161	-0.089	-0.170
-97.859	279.710	-0.124	-0.217
-96.845	4.450	-0.289	-0.208
-95.830	37.807	0.042	-0.036
-94.816	32.045	0.300	-0.253
-93.801	-74.696	0.194	-0.069
-92.786	-64.333	0.297	0.118
-91.772	23.764	0.190	-0.153
-90.757	401.347	0.043	0.089
-89.743	-200.000	-0.032	0.147
-88.728	743.653	0.159	0.419
-87.713	-41.116	-0.294	-0.149
-86.699	-112.068	0.255	0.050
-85.684	-27.517	0.081	-0.046
-84.670	59.104	0.304	0.293
-83.655	-191.356	-0.165	-0.002
-82.640	198.725	-0.073	0.109
-81.626	-119.394	-0.328	0.056
-80.611	277.192	0.153	-0.266
-79.597	-200.000	0.021	-0.476
-78.582	-200.000	0.023	-0.223
-77.567	267.925	-0.017	-0.029
-76.553	189.236	0.117	0.172
-75.538	-18.680	0.170	-0.104
-74.524	-200.000	-0.031	-0.158
-73.509	-200.000	-0.040	-0.184
-72.494	52.236	-0.344	0.321
-71.480	71.158	0.208	0.211
-70.465	-149.707	-0.070	0.005
-69.451	166.968	-0.197	0.274
-68.436	137.570	0.084	0.108
-67.422	800.000	-0.128	-0.460
-66.407	278.957	0.098	-0.172
-65.392	-56.526	0.075	0.032
-64.378	-140.617	-0.379	0.038
-63.363	-200.000	0.037	0.268
-62.349	261.382	0.072	-0.122
-61.334	12.302	-1.260	-0.950
-60.319	95.409	0.785	0.876
-59.305	270.257	-0.495	-0.852
-58.290	176.750	0.740	1.053
-57.276	800.000	0.398	1.447
-56.261	-200.000	113.850	645.904
-55.246	473.154	1505.728	3320.982
-54.232	146.850	2679.965	3526.045
-53.217	96.929	2287.964	2566.707
-52.203	36.274	1898.399	1637.366
-51.188	30.280	1689.192	1411.440
-50.173	27.830	1646.962	1357.905
-49.159	49.880	1701.454	1569.870
-48.144	48.353	1715.942	1571.659
-47.130	30.046	1674.807	1397.430
-46.115	27.316	1660.255	1364.792
-45.100	27.097	1655.267	1358.998
-44.086	27.168	1652.290	1357.028
-43.071	27.175	1650.203	1355.311
-42.057	27.182	1647.624	1353.192
-41.042	27.087	1645.588	1350.764
-40.027	26.994	1644.181	1348.863
-39.013	27.055	1642.098	1347.555
-37.998	27.088	1640.596	1346.508
-36.984	27.192	1638.925	1345.856
-35.969	27.193	1637.974	1345.031
-34.954	27.248	1635.949	1343.719
-33.940	27.139	1634.121	1341.361
-32.925	27.252	1632.533	1340.837
-31.911	27.199	1630.567	1338.781
-30.896	27.220	1628.787	1337.418
-29.881	27.143	1627.656	1335.873
-28.867	27.181	1626.131	1334.844
-27.852	27.147	1624.316	1333.057
-26.838	27.177	1622.715	1331.904
-25.823	27.199	1621.675	1331.164
-24.809	27.216	1620.560	1330.321
-23.794	27.245	1619.017	1329.212
-22.779	27.243	1617.461	1327.864
-21.765	27.190	1615.966	1326.197
-20.750	27.180	1614.451	1324.827
-19.736	27.095	1613.371	1323.274
-18.721	27.290	1611.675	1323.249
-17.706	27.156	1610.258	1321.058
-16.692	27.278	1608.487	1320.435
-15.677	27.159	1607.116	1318.397
-14.663	27.284	1605.599	1318.005
-13.648	27.286	1604.536	1317.096
-12.633	27.209	1602.942	1315.176
-11.619	27.267	1601.166	1314.086
-10.604	27.314	1599.867	1313.309
-9.590	27.339	1598.258	1312.116
-8.575	27.246	1597.542	1310.806
-7.560	27.267	1596.510	1310.055
-6.546	27.259	1595.268	1308.928
-5.531	27.184	1594.308	1307.552
-4.517	27.231	1592.795	1306.597
-3.502	27.309	1591.495	1306.034
-2.487	27.341	1589.858	1304.868
-1.473	27.068	1577.939	1293.094
-0.458	24.240	1559.550	1258.040
0.556	18.942	1560.908	1226.609
1.571	16.674	1584.365	1228.494
2.586	16.256	1596.730	1234.912
3.600	14.892	1543.998	1184.366
4.615	8.281	1435.323	1057.243
5.629	1.584	1373.360	968.959
6.644	0.256	1365.582	954.974
7.659	0.093	1364.374	953.014
8.673	0.028	1363.452	951.869
9.688	0.093	1361.448	950.800
10.702	-0.145	1358.371	947.064
11.717	3.113	1363.545	971.187
12.731	10.954	1375.402	1029.330
13.746	16.474	1382.804	1069.802
14.761	17.100	1382.803	1073.667
15.775	16.156	1380.530	1065.846
16.790	15.237	1377.541	1057.644
17.804	14.408	1375.341	1050.635
18.819	14.108	1373.564	1047.299
19.834	13.738	1372.959	1044.413
20.848	13.608	1371.318	1042.256
21.863	13.389	1369.742	1039.591
22.877	13.078	1369.220	1037.148
23.892	13.151	1367.488	1036.200
24.907	13.238	1367.031	1036.310
25.921	13.150	1366.321	1035.130
26.936	13.138	1365.154	1034.079
27.950	13.288	1364.192	1034.194
28.965	13.228	1363.572	1033.263
29.980	13.265	1362.437	1032.542
30.994	13.394	1361.846	1032.805
32.009	13.463	1361.006	1032.510
33.023	13.399	1359.648	1030.986
34.038	13.310	1358.343	1029.354
35.053	13.287	1357.571	1028.534
36.067	13.343	1356.347	1027.862
37.082	13.247	1355.717	1026.699
38.096	13.367	1354.375	1026.335
39.111	13.327	1353.723	1025.503
40.126	13.278	1353.170	1024.687
41.140	13.218	1351.983	1023.328
42.155	13.028	1351.899	1021.997
43.169	13.102	1351.558	1022.107
44.184	13.223	1351.025	1022.363
45.199	13.090	1350.761	1021.252
46.213	13.157	1350.442	1021.331
47.228	13.244	1349.128	1020.786
48.242	13.175	1347.697	1019.189
49.257	13.179	1346.646	1018.324
50.271	13.195	1345.293	1017.309
51.286	13.189	1343.836	1016.085
52.301	13.218	1342.966	1015.513
53.315	13.238	1341.277	1014.267
54.330	13.186	1340.636	1013.377
55.344	13.229	1339.169	1012.443
56.359	13.166	1338.277	1011.291
57.374	13.251	1337.079	1010.819
58.388	13.040	1336.767	1009.202
59.403	13.116	1336.108	1009.081
60.417	13.123	1335.145	1008.306
61.432	13.053	1334.834	1007.556
62.447	12.969	1333.494	1005.940
63.461	13.060	1331.811	1005.135
64.476	13.119	1330.811	1004.653
65.490	13.023	1329.974	1003.348
66.505	13.102	1328.192	1002.393
67.520	13.078	1327.207	1001.414
68.534	13.022	1326.024	1000.093
69.549	13.165	1324.723	999.889
70.563	13.040	1323.855	998.393
71.578	12.980	1322.885	997.210
72.593	13.020	1321.691	996.464
73.607	13.023	1320.945	995.832
74.622	12.971	1320.218	994.882
75.636	12.998	1319.368	994.313
76.651	13.009	1318.605	993.718
77.666	13.079	1318.017	993.610
78.680	12.980	1317.817	992.771
79.695	12.959	1317.527	992.339
80.709	13.004	1316.574	991.803
81.724	13.051	1315.348	991.073
82.739	13.085	1314.255	990.370
83.753	13.288	1313.032	990.577
84.768	13.171	1312.258	989.206
85.782	13.284	1310.786	988.684
86.797	13.302	1309.350	987.621
87.812	13.258	1308.232	986.428
88.826	13.261	1307.589	985.871
89.841	13.220	1306.487	984.708
90.855	13.235	1305.311	983.827
91.870	13.279	1304.370	983.293
92.884	13.301	1303.749	982.869
93.899	13.404	1303.067	982.880
94.914	13.362	1302.313	981.972
95.928	13.373	1301.506	981.341
96.943	13.219	1301.025	979.981
97.957	13.229	1299.926	979.122
98.972	13.295	1298.500	978.353
99.987	13.339	1297.085	977.462
101.001	13.340	1296.372	976.842
102.016	13.364	1295.221	976.032
103.030	13.373	1294.401	975.379
104.045	13.313	1293.168	974.009
105.060	13.281	1292.092	972.928
106.074	13.156	1291.027	971.304
107.089	13.060	1289.667	969.632
108.103	13.199	1288.310	969.341
109.118	13.116	1287.429	968.105
110.133	13.094	1285.980	966.799
111.147	13.143	1284.652	966.005
112.162	13.331	1283.427	966.095
113.176	13.127	1282.957	964.465
114.191	13.189	1281.705	963.801
115.206	13.232	1280.723	963.227
116.220	13.210	1279.112	961.801
117.235	13.138	1278.433	960.786
118.249	13.176	1277.213	960.005
119.264	13.176	1275.989	959.000
120.279	13.055	1275.278	957.679
121.293	13.217	1274.179	957.709
122.308	13.126	1273.547	956.621
123.322	13.139	1272.246	955.635
124.337	13.134	1270.881	954.500
125.352	13.126	1270.055	953.747
126.366	13.078	1268.875	952.500
127.381	13.168	1267.825	952.142
128.395	13.161	1267.402	951.703
129.410	13.140	1266.155	950.562
130.424	13.233	1264.967	950.119
131.439	13.154	1264.503	949.235
132.454	13.177	1263.335	948.402
133.468	13.312	1262.194	948.240
134.483	13.148	1261.943	947.029
135.497	13.234	1260.552	946.392
136.512	13.232	1259.134	945.229
137.527	13.211	1258.289	944.395
138.541	13.135	1256.629	942.631
139.556	13.312	1254.995	942.328
140.570	13.276	1254.270	941.494
141.585	13.323	1252.963	940.699
142.600	13.311	1252.154	939.941
143.614	13.296	1251.887	939.572
144.629	13.349	1250.420	938.691
145.643	13.459	1248.927	938.109
146.658	13.416	1247.445	936.671
147.673	13.341	1246.408	935.382
148.687	13.284	1245.310	934.154
149.702	13.246	1244.021	932.889
150.716	13.312	1242.615	932.127
151.731	13.378	1241.219	931.365
152.746	13.405	1239.967	930.495
153.760	13.400	1239.139	929.768
154.775	13.479	1237.750	929.085
155.789	13.440	1236.973	928.200
156.804	13.349	1235.519	926.517
157.819	13.393	1234.967	926.270
158.833	13.533	1233.693	926.012
159.848	13.568	1232.785	925.446
160.862	13.515	1231.910	924.413
161.877	13.428	1231.043	923.191
162.892	13.434	1229.980	922.345
163.906	13.372	1228.911	921.116
164.921	13.527	1227.721	921.006
165.935	13.493	1227.190	920.341
166.950	13.504	1226.529	919.823
167.964	13.482	1225.702	918.998
168.979	13.574	1224.945	918.859
169.994	13.493	1224.144	917.727
171.008	13.525	1223.243	917.151
172.023	13.588	1222.511	916.867
173.037	13.620	1221.774	916.410
174.052	13.641	1220.618	915.580
175.067	13.550	1219.739	914.339
176.081	13.500	1218.822	913.291
177.096	13.600	1217.645	912.881
178.110	13.533	1216.960	911.920
179.125	13.670	1215.430	911.444
180.140	13.532	1214.459	909.877
181.154	13.632	1213.269	909.456
182.169	13.638	1211.618	908.167
183.183	13.686	1210.781	907.726
184.198	13.788	1209.313	907.098
185.213	13.797	1208.407	906.388
186.227	13.818	1207.394	905.664
187.242	13.870	1206.185	904.959
188.256	13.773	1205.666	903.965
189.271	13.799	1204.497	903.148
190.286	13.796	1203.118	902.020
191.300	13.602	1202.775	900.627
192.315	13.552	1202.016	899.705
193.329	13.665	1201.846	900.116
194.344	13.629	1200.780	899.038
195.359	13.770	1200.005	899.145
196.373	13.765	1199.481	898.643
197.388	13.899	1199.009	898.940
198.402	13.961	1198.964	899.160
199.417	13.991	1197.794	898.363
200.432	13.980	1197.180	897.767
201.446	13.938	1196.460	896.922
202.461	14.066	1195.422	896.751
203.475	14.053	1194.304	895.764
204.490	14.011	1193.068	894.532
205.504	14.049	1191.921	893.797
206.519	14.057	1190.518	892.709
207.534	14.019	1189.736	891.839
208.548	13.873	1189.016	890.438
209.563	14.138	1188.074	891.072
210.577	13.983	1187.447	889.697
211.592	14.064	1186.435	889.293
212.607	14.009	1185.570	888.270
213.621	14.184	1184.143	888.056
214.636	14.167	1183.020	887.044
215.650	14.162	1182.489	886.542
216.665	14.086	1181.952	885.655
217.680	14.231	1180.986	885.627
218.694	14.264	1179.969	884.961
219.709	14.264	1179.503	884.535
220.723	14.218	1178.676	883.589
221.738	14.206	1178.098	883.014
222.753	14.269	1176.835	882.323
223.767	14.194	1176.879	881.882
224.782	14.340	1176.019	881.933
225.796	14.376	1175.071	881.335
226.811	14.337	1174.078	880.302
227.826	14.436	1173.471	880.296
228.840	14.462	1172.479	879.610
229.855	14.425	1171.557	878.645
230.869	14.346	1170.928	877.680
231.884	14.457	1170.349	877.751
232.899	14.351	1169.545	876.512
233.913	14.284	1169.298	875.897
234.928	14.358	1167.758	875.055
235.942	14.318	1167.379	874.483
236.957	14.276	1166.635	873.631
237.972	14.373	1165.949	873.549
238.986	14.272	1165.523	872.622
240.001	14.379	1164.572	872.391
241.015	14.477	1163.693	872.171
242.030	14.529	1162.784	871.684
243.045	14.399	1162.220	870.504
244.059	14.530	1161.057	870.241
245.074	14.470	1160.454	869.400
246.088	14.552	1159.462	869.003
247.103	14.588	1158.878	868.678
248.117	14.485	1158.357	867.673
249.132	14.626	1157.684	867.824
250.147	14.675	1156.776	867.325
251.161	14.715	1156.276	867.077
252.176	14.739	1155.404	866.472
253.190	14.788	1154.704	866.127
254.205	14.853	1154.427	866.176
255.220	14.798	1153.655	865.237
256.234	14.796	1152.820	864.526
257.249	14.910	1151.954	864.386
258.263	14.752	1152.000	863.530
259.278	14.833	1151.015	863.135
260.293	14.862	1150.489	862.811
261.307	14.989	1149.779	862.855
262.322	15.060	1149.343	862.819
263.336	14.998	1148.436	861.744
264.351	15.033	1147.948	861.479
265.366	14.928	1147.426	860.473
266.380	14.959	1146.670	859.988
267.395	14.992	1145.874	859.486
268.409	15.009	1144.640	858.573
269.424	14.968	1144.676	858.311
270.439	14.861	1144.067	857.229
271.453	15.104	1143.135	857.702
272.468	15.043	1142.294	856.682
273.482	14.988	1141.627	855.824
274.497	15.067	1140.841	855.562
275.512	14.993	1140.523	854.869
276.526	15.071	1139.883	854.716
277.541	14.988	1138.731	853.353
278.555	15.146	1137.719	853.325
279.570	15.078	1137.283	852.573
280.585	15.193	1136.436	852.448
281.599	15.154	1135.430	851.420
282.614	15.276	1134.778	851.475
283.628	15.184	1133.618	850.066
284.643	15.249	1132.802	849.704
285.657	15.187	1132.249	848.900
286.672	15.323	1131.070	848.634
287.687	15.236	1130.095	847.385
288.701	15.386	1129.039	847.278
289.716	15.300	1128.548	846.397
290.730	15.350	1127.620	845.877
291.745	15.264	1127.391	845.201
292.760	15.302	1127.014	845.032
293.774	15.335	1126.106	844.445
294.789	15.522	1125.358	844.750
295.803	15.394	1124.941	843.718
296.818	15.491	1123.290	842.889
297.833	15.373	1122.925	841.951
298.847	15.410	1122.200	841.518
299.862	15.392	1121.376	840.738
300.876	15.581	1120.729	841.123
301.891	15.425	1120.430	840.043
302.906	15.490	1119.676	839.726
303.920	15.572	1118.763	839.381
304.935	15.574	1118.358	839.011
305.949	15.771	1116.715	838.686
306.964	15.704	1116.864	838.388
307.979	15.623	1115.988	837.252
308.993	15.582	1115.200	836.383
310.008	15.590	1114.829	836.073
311.022	15.745	1113.854	836.037
312.037	15.756	1112.766	835.201
313.052	15.800	1111.750	834.582
314.066	15.594	1111.418	833.237
315.081	15.538	1110.488	832.192
316.095	15.639	1109.660	831.997
317.110	15.599	1108.780	831.067
318.125	15.696	1108.073	830.941
319.139	15.572	1107.490	829.820
320.154	15.682	1106.612	829.631
321.168	15.723	1105.614	829.011
322.183	15.617	1105.655	828.445
323.197	15.672	1105.005	828.156
324.212	15.630	1104.350	827.383
325.227	15.748	1103.706	827.411
326.241	15.800	1103.060	827.109
327.256	15.815	1101.986	826.302
328.270	15.793	1101.366	825.656
329.285	15.737	1100.214	824.446
330.300	15.800	1099.488	824.139
331.314	15.953	1098.172	823.826
332.329	15.774	1097.526	822.397
333.343	15.778	1096.641	821.677
334.358	15.748	1096.071	821.032
335.373	15.822	1095.351	820.782
336.387	15.909	1094.019	820.132
337.402	15.896	1093.598	819.684
338.416	16.009	1092.833	819.587
339.431	16.000	1092.340	819.098
340.446	16.029	1091.917	818.851
341.460	16.102	1091.104	818.523
342.475	16.026	1090.256	817.447
343.489	16.125	1088.803	816.765
344.504	16.188	1088.019	816.408
345.519	16.271	1087.050	816.011
346.533	16.074	1086.828	814.818
347.548	16.248	1086.209	815.125
348.562	16.263	1085.445	814.549
349.577	16.281	1084.461	813.829
350.592	16.192	1084.101	813.057
351.606	16.226	1083.268	812.521
352.621	16.132	1082.540	811.453
353.635	16.171	1081.598	810.862
354.650	16.277	1080.963	810.825
355.665	16.184	1080.478	809.942
356.679	16.136	1079.677	809.037
357.694	16.167	1078.997	808.606
358.708	16.310	1078.540	808.879
359.723	16.304	1077.879	808.283
360.738	16.160	1077.489	807.230
361.752	16.286	1076.648	807.129
362.767	16.457	1075.654	807.130
363.781	16.332	1075.545	806.380
364.796	16.390	1074.926	806.119
365.810	16.510	1074.379	806.214
366.825	16.345	1073.753	804.886
367.840	16.553	1072.750	805.051
368.854	16.644	1072.413	805.160
369.869	16.585	1071.927	804.443
370.883	16.533	1070.563	803.100
371.898	16.447	1070.516	802.585
372.913	16.554	1069.469	802.238
373.927	16.612	1068.934	802.042
374.942	16.620	1068.818	801.920
375.956	16.716	1068.217	801.854
376.971	16.661	1067.725	801.151
377.986	16.629	1067.187	800.529
379.000	16.680	1066.472	800.163
380.015	16.746	1065.487	799.662
381.029	16.878	1064.998	799.847
382.044	16.770	1064.424	798.837
383.059	16.870	1063.538	798.570
384.073	16.817	1063.123	797.941
385.088	16.941	1061.633	797.333
386.102	16.830	1061.308	796.499
387.117	16.757	1060.075	795.158
388.132	16.772	1059.171	794.482
389.146	16.863	1058.327	794.204
390.161	16.817	1057.542	793.328
391.175	16.729	1057.121	792.532
392.190	16.747	1056.430	792.027
393.205	16.996	1055.439	792.376
394.219	16.717	1055.117	790.765
395.234	16.899	1053.952	790.671
396.248	16.894	1052.699	789.636
397.263	16.969	1051.698	789.163
398.278	16.862	1051.146	788.182
399.292	16.861	1050.904	787.926
400.307	16.787	1049.926	786.779
401.321	16.865	1049.277	786.586
402.336	16.851	1048.551	785.906
403.350	16.915	1048.182	785.858
404.365	16.952	1047.286	785.289
405.380	16.953	1046.658	784.752
406.394	16.963	1045.993	784.229
407.409	17.000	1045.437	783.914
408.423	17.240	1044.372	784.154
409.438	17.034	1044.185	782.996
410.453	17.195	1043.161	782.901
411.467	17.090	1042.632	781.950
412.482	17.271	1041.524	781.882
413.496	17.249	1041.002	781.322
414.511	17.319	1040.272	781.023
415.526	17.293	1040.138	780.737
416.540	17.294	1039.797	780.413
417.555	17.275	1039.256	779.854
418.569	17.298	1038.471	779.300
419.584	17.288	1037.969	778.807
420.599	17.328	1037.701	778.721
421.613	105.221	1324.791	1478.282
422.628	96.517	1366.560	1478.390
