DTS Sentinel unit serial number:	SN413079Multiplexer serial number:	ORYXHardware model number:	OX4-SRSoftware version number:	ORYX F/W v4.00 Oryx Data Collector v3.7.2.0data status	okinstallation	princeton_trtdifferential loss correction	single-endedforward channel	channel 2reverse channel	N/Adate	2019/09/17time	14:23:35forward acquisition time	60.00reverse acquisition time	0.00gamma	496.2192k internal	0.2314k external	0.2314temperature offset calibration	0.9984default loss term (dB/km)	0.3790temperature slope calibration	1.0000multiplexer offset coefficient	1.0000multiplexer slope coefficient	1.0000fibre end	0.00T internal ref (°C)	36.27T ext. ref 1 (°C)	0.41T ext. ref 2 (°C)	33.29length (m)	temperature (°C)	Stokes	anti-Stokes-747.200	-200.000	0.008	0.180
-746.185	-176.971	0.330	-0.008
-745.171	158.292	0.059	0.083
-744.156	-200.000	0.038	0.352
-743.142	800.000	0.042	-0.166
-742.127	165.944	-0.109	-0.156
-741.112	15.074	0.106	-0.084
-740.098	-77.785	0.289	-0.101
-739.083	-109.663	0.293	-0.063
-738.069	-57.119	0.086	-0.038
-737.054	-200.000	0.043	-0.198
-736.039	-200.000	0.008	-0.253
-735.025	-1.154	-0.213	-0.153
-734.010	58.938	0.139	0.138
-732.996	14.826	-0.155	-0.123
-731.981	-157.129	0.127	-0.008
-730.966	800.000	0.108	-0.313
-729.952	-143.447	0.124	-0.012
-728.937	-110.758	-0.367	-0.077
-727.923	-200.000	0.053	-0.275
-726.908	163.553	0.186	0.266
-725.894	-107.702	-0.522	-0.115
-724.879	263.297	-0.159	0.281
-723.864	120.609	0.250	-0.314
-722.850	8.228	0.166	-0.126
-721.835	9.019	-0.152	0.116
-720.821	-132.721	0.080	-0.010
-719.806	135.781	-0.248	-0.327
-718.791	-181.989	-0.300	-0.006
-717.777	19.523	-0.132	0.107
-716.762	-89.752	-0.431	-0.128
-715.748	-82.634	-0.191	0.063
-714.733	-200.000	0.012	0.056
-713.718	-183.061	-0.007	-0.000
-712.704	191.143	-0.129	0.197
-711.689	290.748	0.131	0.240
-710.675	139.042	0.133	-0.178
-709.660	131.838	-0.282	-0.367
-708.645	-115.124	0.094	0.018
-707.631	-200.000	0.009	0.253
-706.616	-200.000	0.035	-0.272
-705.602	-44.674	0.367	-0.186
-704.587	100.330	-0.151	0.178
-703.572	-200.000	0.056	0.251
-702.558	-91.275	-0.459	-0.133
-701.543	-74.200	0.023	0.008
-700.529	175.133	0.055	0.080
-699.514	-116.491	-0.310	-0.058
-698.499	308.025	0.093	-0.176
-697.485	-22.354	-0.398	-0.244
-696.470	-162.943	-0.132	-0.007
-695.456	-200.000	0.011	-0.053
-694.441	-200.000	0.005	-0.207
-693.426	323.117	-0.199	0.384
-692.412	-4.411	0.050	0.035
-691.397	800.000	-0.056	0.231
-690.383	15.586	-0.249	-0.198
-689.368	669.412	0.100	0.262
-688.354	-74.373	-0.179	0.065
-687.339	200.651	-0.147	-0.229
-686.324	287.218	0.050	-0.091
-685.310	800.000	-0.111	-0.318
-684.295	800.000	0.058	-0.200
-683.281	60.852	0.118	-0.119
-682.266	-36.718	-0.136	0.074
-681.251	-150.676	-0.389	-0.030
-680.237	71.970	0.287	0.302
-679.222	800.000	-0.037	-0.130
-678.208	-9.371	-0.106	0.072
-677.193	-200.000	0.011	-0.161
-676.178	-48.871	-0.174	0.085
-675.164	-68.104	0.108	0.042
-674.149	328.133	-0.183	0.355
-673.135	-38.580	0.269	0.144
-672.120	196.729	0.030	-0.046
-671.105	176.142	0.015	0.023
-670.091	800.000	0.054	0.232
-669.076	774.769	0.034	0.095
-668.062	491.286	-0.023	-0.053
-667.047	800.000	-0.061	0.175
-666.032	27.173	0.122	0.103
-665.018	134.772	-0.087	0.114
-664.003	87.709	0.293	0.328
-662.989	33.011	-0.106	-0.093
-661.974	-115.350	0.053	0.010
-660.959	92.384	0.167	-0.190
-659.945	-133.780	0.146	-0.018
-658.930	-200.000	-0.015	-0.234
-657.916	87.386	-0.159	0.177
-656.901	68.468	0.198	0.205
-655.886	55.049	-0.137	-0.134
-654.872	800.000	-0.058	0.177
-653.857	-189.389	-0.437	-0.005
-652.843	-16.560	-0.301	0.192
-651.828	164.264	-0.022	0.031
-650.814	165.543	0.146	0.209
-649.799	-200.000	0.036	0.340
-648.784	258.826	0.146	0.254
-647.770	-89.648	-0.164	-0.049
-646.755	110.924	0.188	-0.229
-645.741	456.659	0.168	-0.377
-644.726	-127.642	-0.066	-0.010
-643.711	734.714	-0.112	0.304
-642.697	-75.455	0.140	-0.050
-641.682	-200.000	-0.013	-0.256
-640.668	-116.477	-0.306	-0.057
-639.653	-22.194	-0.014	0.009
-638.638	-200.000	-0.036	-0.351
-637.624	-60.857	0.133	-0.057
-636.609	50.670	0.198	0.189
-635.595	10.524	0.360	-0.277
-634.580	66.582	0.216	0.222
-633.565	-24.975	0.255	-0.152
-632.551	-200.000	0.026	-0.362
-631.536	106.988	-0.137	0.165
-630.522	-112.899	-0.211	-0.042
-629.507	-47.725	-0.103	0.050
-628.492	-200.000	0.008	0.057
-627.478	-6.010	0.175	0.121
-626.463	800.000	0.069	0.238
-625.449	-54.505	0.166	-0.076
-624.434	-96.383	-0.146	0.039
-623.419	800.000	-0.058	-0.198
-622.405	-200.000	-0.031	-0.261
-621.390	92.237	-0.206	-0.234
-620.376	-84.564	-0.243	-0.077
-619.361	224.060	-0.114	0.185
-618.346	315.085	0.100	0.191
-617.332	748.776	-0.121	0.330
-616.317	800.000	0.041	0.139
-615.303	25.576	0.303	-0.254
-614.288	19.806	0.105	-0.085
-613.273	-200.000	0.010	-0.181
-612.259	785.039	0.068	0.188
-611.244	-16.401	0.253	0.162
-610.230	10.828	-0.142	-0.109
-609.215	-95.172	0.203	-0.055
-608.201	2.457	0.227	-0.166
-607.186	-179.396	-0.527	-0.012
-606.171	-46.329	-0.273	-0.135
-605.157	156.977	-0.083	-0.116
-604.142	107.008	0.029	0.035
-603.128	-11.272	-0.207	-0.137
-602.113	71.035	0.045	-0.047
-601.098	25.971	0.104	-0.087
-600.084	48.736	0.197	0.186
-599.069	-89.453	-0.230	0.068
-598.055	11.656	-0.194	-0.150
-597.040	-186.963	-0.243	-0.003
-596.025	-64.604	-0.128	-0.052
-595.011	-74.466	0.138	0.050
-593.996	-14.353	0.419	0.272
-592.982	577.566	0.103	0.254
-591.967	800.000	-0.042	-0.151
-590.952	-44.889	0.072	0.036
-589.938	-32.513	-0.294	-0.165
-588.923	-33.896	-0.257	0.143
-587.909	800.000	0.085	0.287
-586.894	-200.000	-0.076	0.569
-585.879	-88.778	0.277	-0.083
-584.865	800.000	-0.130	0.422
-583.850	-48.637	-0.202	-0.098
-582.836	197.762	0.180	0.277
-581.821	-200.000	0.056	-0.372
-580.806	-19.980	-0.406	-0.252
-579.792	-200.000	-0.018	-0.278
-578.777	-200.000	0.010	-0.091
-577.763	-172.852	-0.137	-0.004
-576.748	109.170	0.128	0.154
-575.733	-200.000	-0.006	0.292
-574.719	18.554	-0.110	-0.088
-573.704	-62.936	-0.297	-0.124
-572.690	300.705	0.156	0.291
-571.675	262.688	-0.182	0.318
-570.661	-165.348	0.121	0.005
-569.646	-41.471	0.498	0.258
-568.631	-200.000	-0.011	-0.304
-567.617	328.380	0.055	-0.107
-566.602	-197.653	0.196	0.001
-565.588	126.405	-0.081	-0.104
-564.573	-155.607	-0.025	-0.002
-563.558	155.977	0.039	-0.054
-562.544	-31.306	-0.256	-0.145
-561.529	800.000	-0.060	0.231
-560.515	-200.000	0.034	-0.353
-559.500	-165.430	0.068	0.003
-558.485	10.901	-0.067	-0.051
-557.471	-109.811	-0.213	-0.045
-556.456	210.098	-0.194	0.306
-555.442	-177.347	0.144	0.004
-554.427	348.201	-0.121	-0.240
-553.412	-200.000	-0.001	-0.072
-552.398	26.816	0.132	-0.111
-551.383	180.323	-0.161	0.238
-550.369	-82.022	0.146	0.048
-549.354	-54.343	-0.119	-0.054
-548.339	-200.000	0.267	-0.000
-547.325	-200.000	0.001	-0.120
-546.310	-110.479	0.025	-0.005
-545.296	-200.000	0.008	-0.179
-544.281	764.220	-0.024	-0.065
-543.266	103.873	0.030	0.035
-542.252	-80.405	-0.109	0.037
-541.237	-155.983	-0.386	0.025
-540.223	-33.740	-0.043	0.024
-539.208	800.000	-0.105	0.347
-538.193	145.375	-0.030	-0.040
-537.179	-200.000	0.038	0.173
-536.164	18.786	-0.164	-0.132
-535.150	94.559	0.225	0.257
-534.135	4.183	0.223	0.164
-533.121	-72.857	-0.240	0.089
-532.106	102.651	0.120	-0.141
-531.091	-31.290	0.326	-0.185
-530.077	-58.975	-0.120	-0.052
-529.062	-7.875	0.136	0.092
-528.048	-46.410	0.236	0.116
-527.033	87.125	-0.145	0.161
-526.018	-73.621	-0.478	-0.175
-525.004	-37.910	0.193	-0.103
-523.989	-71.335	-0.288	-0.108
-522.975	53.047	-0.037	0.036
-521.960	192.292	0.117	0.177
-520.945	800.000	-0.095	0.301
-519.931	499.838	0.138	-0.320
-518.916	-12.762	-0.096	-0.063
-517.902	800.000	-0.077	0.296
-516.887	-200.000	-0.009	-0.236
-515.872	173.591	0.089	0.129
-514.858	7.238	0.165	0.123
-513.843	-72.356	-0.348	0.129
-512.829	93.009	0.229	0.260
-511.814	36.880	-0.210	0.186
-510.799	-200.000	-0.000	0.022
-509.785	54.218	0.143	0.138
-508.770	147.335	-0.160	-0.216
-507.756	31.126	0.053	0.045
-506.741	-128.153	0.071	-0.010
-505.726	-14.529	-0.261	0.168
-504.712	11.088	0.213	0.164
-503.697	361.437	-0.081	0.162
-502.683	10.767	0.037	-0.028
-501.668	-32.784	-0.213	0.119
-500.653	473.615	0.111	-0.252
-499.639	-75.458	0.113	-0.040
-498.624	-97.072	-0.290	-0.076
-497.610	-62.584	-0.124	-0.052
-496.595	339.463	0.175	0.343
-495.581	25.767	-0.233	-0.195
-494.566	120.768	-0.169	0.211
-493.551	-74.763	0.253	-0.091
-492.537	-36.675	0.216	0.116
-491.522	-122.044	0.067	-0.011
-490.508	-72.752	0.187	0.069
-489.493	800.000	-0.031	-0.103
-488.478	-19.478	-0.020	0.012
-487.464	-65.568	-0.322	-0.130
-486.449	35.884	-0.087	-0.077
-485.435	-22.095	0.090	0.055
-484.420	-16.694	-0.301	-0.191
-483.405	549.122	0.037	-0.088
-482.391	57.994	-0.218	0.215
-481.376	-89.041	0.351	0.104
-480.362	111.165	-0.070	-0.085
-479.347	613.257	0.104	0.261
-478.332	-77.839	0.117	-0.041
-477.318	-200.000	-0.017	0.143
-476.303	41.675	0.212	0.193
-475.289	313.787	-0.137	0.258
-474.274	-200.000	0.001	-0.187
-473.259	488.553	-0.039	0.089
-472.245	800.000	0.107	0.346
-471.230	-98.959	0.328	0.083
-470.216	-152.601	0.122	0.009
-469.201	189.465	-0.105	-0.158
-468.186	97.077	-0.091	0.105
-467.172	-138.877	-0.617	-0.067
-466.157	-2.390	-0.218	0.153
-465.143	6.142	-0.087	0.064
-464.128	336.643	0.129	-0.252
-463.113	-178.043	-0.194	0.005
-462.099	374.221	0.041	0.084
-461.084	-200.000	-0.006	0.103
-460.070	-200.000	0.014	-0.067
-459.055	567.318	0.064	0.155
-458.040	50.069	0.134	-0.127
-457.026	-102.716	0.271	-0.065
-456.011	-200.000	-0.001	-0.197
-454.997	-33.502	0.272	-0.151
-453.982	-141.791	-0.235	0.024
-452.968	-33.755	0.266	0.147
-451.953	-87.895	-0.193	0.058
-450.938	333.070	0.107	-0.207
-449.924	168.157	-0.298	-0.426
-448.909	580.578	0.087	-0.213
-447.895	800.000	0.060	-0.222
-446.880	-162.308	-0.131	0.007
-445.865	-119.585	0.187	0.033
-444.851	-117.087	-0.216	0.039
-443.836	217.093	-0.190	0.303
-442.822	-166.843	0.101	0.004
-441.807	129.198	0.161	0.206
-440.792	-80.555	-0.170	-0.057
-439.778	-36.886	0.293	0.158
-438.763	-60.871	0.146	-0.062
-437.749	260.618	-0.071	0.122
-436.734	800.000	-0.068	-0.222
-435.719	-135.563	0.086	0.010
-434.705	-200.000	0.015	0.143
-433.690	625.783	0.099	-0.250
-432.676	800.000	-0.120	-0.360
-431.661	-200.000	-0.025	-0.138
-430.646	783.893	-0.094	0.257
-429.632	-98.515	0.082	0.021
-428.617	74.456	0.062	0.065
-427.603	-56.798	-0.264	-0.117
-426.588	-77.868	-0.082	0.028
-425.573	-200.000	0.061	0.385
-424.559	-200.000	0.004	-0.150
-423.544	-63.236	0.278	0.115
-422.530	548.778	-0.102	-0.244
-421.515	-130.331	-0.349	-0.047
-420.500	-32.194	-0.311	-0.174
-419.486	335.993	0.058	0.112
-418.471	-31.282	0.281	0.158
-417.457	-51.281	0.275	-0.129
-416.442	213.953	0.129	0.204
-415.428	14.591	0.099	0.077
-414.413	232.126	0.180	-0.296
-413.398	138.572	-0.118	0.156
-412.384	800.000	-0.051	-0.155
-411.369	87.568	0.098	-0.109
-410.355	-13.055	0.096	0.062
-409.340	-149.446	0.150	0.012
-408.325	253.375	0.112	0.191
-407.311	-200.000	-0.054	-0.370
-406.296	209.984	0.015	0.023
-405.282	-65.324	-0.138	0.056
-404.267	800.000	-0.064	0.204
-403.252	199.990	-0.075	0.115
-402.238	343.574	0.069	-0.135
-401.223	-121.120	-0.083	0.014
-400.209	-92.688	-0.164	0.046
-399.194	-95.712	-0.116	-0.031
-398.179	-0.721	0.075	-0.053
-397.165	4.302	-0.148	0.108
-396.150	-200.000	-0.005	0.067
-395.136	18.446	0.182	-0.146
-394.121	-150.942	-0.077	0.006
-393.106	348.196	-0.034	-0.067
-392.092	150.309	0.103	-0.140
-391.077	-200.000	-0.024	-0.265
-390.063	710.323	0.061	-0.161
-389.048	-129.155	-0.215	0.030
-388.033	-27.207	-0.204	0.119
-387.019	-119.183	-0.083	-0.015
-386.004	-87.951	0.176	-0.053
-384.990	800.000	0.097	-0.272
-383.975	63.748	-0.174	-0.174
-382.960	-132.383	-0.136	-0.017
-381.946	-133.341	0.324	-0.041
-380.931	-61.220	0.055	-0.023
-379.917	114.527	0.132	0.161
-378.902	-127.612	-0.225	-0.033
-377.888	-54.290	0.216	0.098
-376.873	-200.000	-0.030	0.208
-375.858	-200.000	-0.023	0.169
-374.844	-143.776	-0.044	0.004
-373.829	-21.478	-0.315	0.192
-372.815	-200.000	0.019	0.183
-371.800	428.110	0.066	-0.143
-370.785	-171.295	-0.138	0.005
-369.771	-26.989	-0.318	0.185
-368.756	800.000	0.032	-0.136
-367.742	38.956	-0.152	0.136
-366.727	-81.328	0.568	0.187
-365.712	800.000	-0.003	-0.008
-364.698	-138.007	-0.250	-0.028
-363.683	-200.000	0.003	-0.148
-362.669	85.233	0.060	-0.065
-361.654	94.915	0.129	0.147
-360.639	-128.870	0.474	-0.067
-359.625	-83.353	-0.242	0.078
-358.610	-181.550	-0.329	0.006
-357.596	-9.264	-0.052	-0.035
-356.581	181.160	0.162	-0.238
-355.566	-200.000	-0.070	-0.330
-354.552	-80.715	-0.341	0.113
-353.537	800.000	-0.057	0.192
-352.523	291.064	0.115	-0.209
-351.508	28.958	-0.080	-0.068
-350.493	-146.312	-0.185	0.016
-349.479	-107.541	0.309	0.068
-348.464	-200.000	0.017	-0.186
-347.450	6.566	0.125	0.093
-346.435	-75.678	0.234	0.083
-345.420	-103.275	-0.443	0.104
-344.406	310.639	0.059	-0.110
-343.391	-99.166	-0.130	-0.033
-342.377	-200.000	0.011	0.158
-341.362	800.000	0.126	-0.437
-340.348	-200.000	0.045	0.238
-339.333	365.860	0.190	-0.383
-338.318	800.000	0.033	0.136
-337.304	-118.258	-0.300	-0.053
-336.289	-60.745	0.190	-0.080
-335.275	10.142	0.071	0.054
-334.260	116.649	0.180	-0.221
-333.245	-78.741	-0.122	-0.042
-332.231	-200.000	0.017	-0.107
-331.216	-126.770	-0.560	0.083
-330.202	-87.489	0.192	0.058
-329.187	-73.556	-0.162	-0.059
-328.172	-200.000	-0.002	-0.369
-327.158	-200.000	-0.081	0.447
-326.143	-200.000	-0.040	-0.227
-325.129	-15.074	0.140	-0.090
-324.114	800.000	0.093	0.305
-323.099	63.261	0.121	-0.121
-322.085	138.674	-0.032	-0.042
-321.070	51.504	0.137	-0.129
-320.056	-200.000	0.024	0.217
-319.041	124.419	-0.161	0.201
-318.026	800.000	-0.075	0.214
-317.012	24.393	0.320	0.264
-315.997	-200.000	0.017	-0.148
-314.983	165.094	0.037	0.052
-313.968	211.727	-0.048	-0.076
-312.953	17.876	0.153	-0.121
-311.939	-92.271	-0.323	0.091
-310.924	-200.000	0.014	0.372
-309.910	-170.757	-0.113	0.004
-308.895	-9.379	-0.254	0.169
-307.880	-73.217	0.273	0.100
-306.866	275.357	-0.120	-0.213
-305.851	-200.000	-0.011	-0.095
-304.837	55.590	-0.098	-0.095
-303.822	78.449	0.250	0.266
-302.807	-20.374	-0.070	0.043
-301.793	-50.270	-0.144	-0.068
-300.778	-66.538	0.141	-0.056
-299.764	-76.985	0.136	-0.047
-298.749	-48.249	-0.022	0.010
-297.735	-200.000	-0.037	-0.167
-296.720	262.971	-0.167	-0.289
-295.705	304.712	0.146	0.271
-294.691	-191.696	0.193	-0.002
-293.676	-167.584	-0.131	0.005
-292.662	-200.000	-0.044	-0.443
-291.647	-25.148	0.438	0.259
-290.632	-80.710	-0.127	0.042
-289.618	19.850	0.037	-0.030
-288.603	-180.924	-0.287	-0.006
-287.589	128.682	-0.127	-0.161
-286.574	365.201	-0.080	-0.161
-285.559	-119.570	-0.105	-0.018
-284.545	183.549	0.132	-0.194
-283.530	800.000	0.022	-0.080
-282.516	-111.767	-0.090	0.018
-281.501	-104.235	0.116	-0.027
-280.486	800.000	-0.041	-0.168
-279.472	611.073	-0.072	-0.179
-278.457	63.964	0.251	-0.252
-277.443	75.042	0.189	-0.199
-276.428	-200.000	0.138	-0.655
-275.413	800.000	-0.127	0.419
-274.399	-13.273	0.067	-0.043
-273.384	-158.688	-0.125	0.007
-272.370	-200.000	-0.003	0.141
-271.355	-175.620	-0.176	-0.005
-270.340	-108.931	-0.133	0.028
-269.326	409.547	0.098	0.207
-268.311	-35.075	-0.138	-0.075
-267.297	-97.182	0.154	0.040
-266.282	-68.660	0.087	0.034
-265.267	713.246	0.041	-0.108
-264.253	-200.000	-0.023	-0.122
-263.238	-87.007	0.031	-0.009
-262.224	77.721	-0.162	0.171
-261.209	-146.344	-0.477	-0.042
-260.195	71.679	-0.212	0.219
-259.180	-200.000	0.030	-0.198
-258.165	-34.182	0.335	-0.183
-257.151	-130.153	-0.163	-0.022
-256.136	725.310	0.064	0.168
-255.122	179.954	-0.102	0.148
-254.107	-200.000	0.029	-0.255
-253.092	-117.278	-0.483	0.087
-252.078	-26.765	0.218	0.127
-251.063	-200.000	-0.057	-0.386
-250.049	-200.000	-0.035	-0.179
-249.034	-200.000	-0.004	-0.109
-248.019	-200.000	-0.004	0.097
-247.005	800.000	0.047	0.140
-245.990	212.626	0.179	0.281
-244.976	-103.864	0.212	-0.049
-243.961	-133.453	0.156	0.019
-242.946	34.538	0.132	0.115
-241.932	49.864	0.140	0.131
-240.917	-34.838	0.035	-0.019
-239.903	-122.694	0.283	0.046
-238.888	14.564	0.121	0.094
-237.873	-127.831	-0.113	0.016
-236.859	-92.658	-0.291	-0.081
-235.844	187.239	-0.160	0.237
-234.830	-30.102	-0.169	-0.096
-233.815	84.226	0.052	0.056
-232.800	-50.732	-0.308	-0.144
-231.786	-9.011	0.172	-0.114
-230.771	69.569	0.220	0.225
-229.757	-12.115	0.288	-0.187
-228.742	-47.929	-0.225	-0.108
-227.727	10.895	-0.309	0.235
-226.713	-164.030	0.299	-0.014
-225.698	-78.741	0.108	-0.036
-224.684	800.000	-0.068	0.244
-223.669	25.241	-0.089	-0.074
-222.655	28.737	-0.108	0.091
-221.640	365.296	0.123	-0.245
-220.625	-200.000	0.009	0.288
-219.611	47.602	-0.240	0.222
-218.596	20.235	-0.159	-0.128
-217.582	-200.000	0.027	-0.203
-216.567	-65.988	-0.138	0.055
-215.552	-200.000	0.042	0.359
-214.538	473.914	0.073	-0.163
-213.523	27.720	0.226	-0.189
-212.509	183.050	0.254	0.373
-211.494	-6.252	-0.144	0.098
-210.479	-200.000	-0.002	0.045
-209.465	30.538	0.343	-0.291
-208.450	455.254	0.137	-0.302
-207.436	-23.190	0.403	0.241
-206.421	240.446	-0.140	0.232
-205.406	-160.594	0.210	-0.011
-204.392	490.717	-0.069	-0.157
-203.377	28.085	0.089	0.074
-202.363	-87.260	0.102	0.031
-201.348	130.622	0.076	0.096
-200.333	-200.000	-0.005	0.099
-199.319	-88.054	-0.202	0.060
-198.304	574.771	0.041	-0.099
-197.290	-200.000	0.021	-0.265
-196.275	302.295	-0.087	-0.160
-195.260	800.000	-0.085	-0.238
-194.246	-101.491	-0.005	-0.001
-193.231	183.157	-0.180	0.263
-192.217	193.273	0.058	0.087
-191.202	-22.626	0.154	-0.093
-190.187	199.254	-0.150	-0.228
-189.173	-76.485	0.179	-0.062
-188.158	342.138	-0.104	-0.201
-187.144	-17.710	-0.155	-0.097
-186.129	7.297	-0.143	0.106
-185.114	-75.768	0.359	0.126
-184.100	185.733	0.221	0.326
-183.085	259.511	0.173	0.296
-182.071	-107.294	-0.063	-0.014
-181.056	-200.000	0.010	0.237
-180.042	-85.658	0.213	-0.066
-179.027	88.655	0.230	0.254
-178.012	800.000	0.040	-0.122
-176.998	-101.133	0.341	0.083
-175.983	196.846	0.177	-0.267
-174.969	-41.803	0.185	-0.094
-173.954	-200.000	0.035	-0.157
-172.939	-110.119	-0.117	0.024
-171.925	-200.000	-0.005	-0.312
-170.910	800.000	-0.017	0.050
-169.896	228.522	-0.064	0.103
-168.881	40.159	-0.258	-0.230
-167.866	-200.000	-0.002	-0.128
-166.852	800.000	-0.087	0.268
-165.837	249.633	0.103	-0.173
-164.823	93.338	-0.032	-0.036
-163.808	485.520	-0.100	0.226
-162.793	800.000	-0.022	0.063
-161.779	-189.750	0.212	0.002
-160.764	-200.000	-0.031	-0.189
-159.750	-200.000	-0.029	0.206
-158.735	-200.000	-0.040	0.258
-157.720	-84.129	-0.417	0.131
-156.706	-89.866	-0.126	-0.036
-155.691	-175.130	0.285	-0.008
-154.677	-136.376	0.250	0.029
-153.662	95.677	0.160	-0.181
-152.647	-200.000	0.042	-0.234
-151.633	-69.062	-0.145	-0.055
-150.618	295.350	-0.090	-0.163
-149.604	5.257	0.132	0.096
-148.589	-136.934	0.106	0.012
-147.574	-7.062	0.252	-0.169
-146.560	87.395	-0.051	-0.056
-145.545	-200.000	0.013	0.164
-144.531	-41.911	-0.072	0.037
-143.516	40.319	-0.083	-0.074
-142.502	-57.869	0.122	-0.053
-141.487	-188.480	-0.086	0.001
-140.472	88.819	0.117	0.129
-139.458	-200.000	-0.070	0.305
-138.443	-85.649	-0.112	0.035
-137.429	-22.312	-0.470	0.282
-136.414	-102.657	0.227	0.054
-135.399	53.546	-0.227	-0.216
-134.385	-9.315	0.185	0.123
-133.370	-96.536	0.179	0.047
-132.356	-1.263	0.120	0.084
-131.341	70.225	0.236	-0.241
-130.326	-200.000	0.058	0.271
-129.312	800.000	-0.030	-0.124
-128.297	-118.797	-0.234	0.041
-127.283	-200.000	-0.009	-0.124
-126.268	-200.000	0.015	0.066
-125.253	-200.000	0.019	0.119
-124.239	248.168	-0.104	-0.174
-123.224	-52.128	0.267	-0.123
-122.210	-151.196	-0.182	-0.013
-121.195	160.728	0.101	-0.139
-120.180	253.818	0.035	-0.059
-119.166	-105.719	0.172	0.039
-118.151	129.128	0.197	0.248
-117.137	285.602	-0.059	-0.106
-116.122	122.795	-0.171	-0.212
-115.107	-27.351	0.218	0.125
-114.093	-82.253	-0.209	-0.067
-113.078	-200.000	0.001	-0.216
-112.064	-167.503	-0.427	-0.017
-111.049	-101.251	-0.295	-0.071
-110.034	-200.000	-0.072	0.339
-109.020	-122.481	-0.059	0.010
-108.005	162.701	0.072	0.099
-106.991	800.000	-0.078	0.291
-105.976	79.046	0.166	0.176
-104.962	111.630	0.174	0.208
-103.947	-146.854	0.136	0.012
-102.932	453.869	-0.133	0.291
-101.918	-200.000	-0.042	0.309
-100.903	-143.603	0.171	0.016
-99.889	-140.252	-0.060	0.006
-98.874	-200.000	0.022	0.361
-97.859	25.399	-0.140	0.115
-96.845	-71.034	0.212	0.079
-95.830	-200.000	0.011	0.077
-94.816	70.244	0.062	0.064
-93.801	-33.806	-0.184	-0.100
-92.786	181.060	0.133	-0.193
-91.772	289.248	-0.095	0.171
-90.757	-171.486	0.144	-0.005
-89.743	-200.000	-0.004	0.052
-88.728	-53.848	0.048	0.022
-87.713	100.546	-0.146	0.168
-86.699	-200.000	-0.001	0.649
-85.684	-15.110	-0.080	0.050
-84.670	-200.000	0.014	0.123
-83.655	-103.712	-0.105	-0.024
-82.640	-76.655	-0.335	0.116
-81.626	624.187	0.166	0.414
-80.611	263.939	-0.182	0.312
-79.597	87.753	-0.085	0.093
-78.582	556.679	0.039	0.093
-77.567	-53.506	0.308	-0.139
-76.553	-120.616	-0.167	0.028
-75.538	800.000	0.100	0.379
-74.524	-103.541	-0.189	0.044
-73.509	134.515	0.060	-0.076
-72.494	-200.000	-0.033	0.184
-71.480	240.870	-0.135	0.223
-70.465	-90.002	0.138	0.040
-69.451	-74.262	-0.382	0.136
-68.436	123.970	-0.195	0.242
-67.422	-142.333	0.176	-0.017
-66.407	-73.333	-0.133	-0.048
-65.392	-200.000	-0.019	0.348
-64.378	-200.000	0.010	-0.140
-63.363	-41.821	-0.080	-0.040
-62.349	-66.833	-0.096	-0.038
-61.334	123.565	-0.574	-0.711
-60.319	128.647	0.327	0.412
-59.305	-200.000	0.004	-0.507
-58.290	225.111	0.599	0.956
-57.276	800.000	0.379	1.364
-56.261	-200.000	90.249	516.767
-55.246	450.879	1431.052	3118.411
-54.232	143.800	2642.868	3476.346
-53.217	105.500	2362.195	2754.643
-52.203	45.345	1964.919	1788.881
-51.188	39.410	1750.015	1546.727
-50.173	36.711	1704.889	1486.093
-49.159	52.139	1749.785	1645.519
-48.144	55.246	1767.652	1686.418
-47.130	39.386	1725.911	1524.992
-46.115	36.287	1711.562	1488.399
-45.100	36.171	1706.188	1482.777
-44.086	36.098	1704.006	1480.259
-43.071	36.097	1701.586	1478.092
-42.057	36.125	1699.293	1476.257
-41.042	36.116	1696.832	1473.991
-40.027	36.136	1695.195	1472.659
-39.013	36.100	1693.161	1470.563
-37.998	36.122	1691.663	1469.367
-36.984	36.181	1689.943	1468.271
-35.969	36.235	1689.083	1467.877
-34.954	36.324	1686.724	1466.444
-33.940	36.329	1685.059	1464.970
-32.925	36.304	1683.073	1462.996
-31.911	36.287	1681.561	1461.496
-30.896	36.316	1679.447	1459.823
-29.881	36.239	1678.080	1457.993
-28.867	36.214	1676.599	1456.458
-27.852	36.308	1674.884	1455.618
-26.838	36.246	1673.854	1454.199
-25.823	36.222	1672.429	1452.724
-24.809	36.299	1670.611	1451.665
-23.794	36.322	1668.889	1450.287
-22.779	36.246	1667.720	1448.640
-21.765	36.291	1665.871	1447.317
-20.750	36.241	1663.865	1445.141
-19.736	36.282	1663.159	1444.779
-18.721	36.304	1661.342	1443.303
-17.706	36.197	1660.047	1441.325
-16.692	36.221	1658.252	1439.889
-15.677	36.311	1656.771	1439.214
-14.663	36.299	1655.139	1437.649
-13.648	36.281	1654.282	1436.716
-12.633	36.306	1652.466	1435.270
-11.619	36.300	1651.103	1433.983
-10.604	36.347	1649.145	1432.577
-9.590	36.327	1648.232	1431.577
-8.575	36.381	1646.565	1430.472
-7.560	36.242	1645.932	1428.837
-6.546	36.355	1644.367	1428.260
-5.531	36.310	1643.198	1426.851
-4.517	36.336	1642.260	1426.170
-3.502	36.193	1641.293	1424.220
-2.487	36.445	1639.401	1424.384
-1.473	36.295	1628.757	1413.976
-0.458	33.920	1609.155	1379.686
0.556	28.462	1608.043	1343.192
1.571	25.441	1631.731	1340.360
2.586	24.319	1644.752	1342.492
3.600	21.690	1590.980	1279.318
4.615	12.223	1473.452	1120.375
5.629	2.626	1401.936	1003.317
6.644	0.532	1391.942	982.455
7.659	0.409	1390.710	980.697
8.673	0.335	1389.273	979.115
9.688	0.355	1387.343	977.801
10.702	0.155	1385.077	974.823
11.717	4.227	1391.832	1005.950
12.731	13.521	1407.050	1077.581
13.746	18.250	1412.926	1112.806
14.761	17.512	1410.377	1105.910
15.775	16.505	1407.339	1096.897
16.790	15.447	1404.687	1087.885
17.804	14.623	1402.141	1080.482
18.819	14.233	1401.290	1077.207
19.834	13.926	1399.604	1073.832
20.848	13.727	1398.298	1071.449
21.863	13.414	1397.159	1068.459
22.877	13.395	1395.355	1066.864
23.892	13.253	1394.306	1065.049
24.907	13.193	1394.003	1064.338
25.921	13.232	1393.198	1063.880
26.936	13.271	1391.946	1063.082
27.950	13.424	1390.810	1063.101
28.965	13.330	1390.290	1062.006
29.980	13.414	1389.353	1061.737
30.994	13.526	1388.341	1061.592
32.009	13.574	1387.157	1060.894
33.023	13.530	1385.936	1059.585
34.038	13.434	1384.991	1058.157
35.053	13.379	1383.900	1056.882
36.067	13.498	1382.499	1056.473
37.082	13.545	1381.258	1055.732
38.096	13.483	1380.579	1054.725
39.111	13.503	1380.201	1054.472
40.126	13.336	1379.254	1052.592
41.140	13.325	1378.491	1051.846
42.155	13.280	1377.698	1050.863
43.169	13.211	1378.147	1050.669
44.184	13.281	1377.267	1050.352
45.199	13.365	1376.696	1050.356
46.213	13.344	1376.325	1049.848
47.228	13.403	1375.367	1049.397
48.242	13.376	1374.456	1048.439
49.257	13.424	1372.467	1047.132
50.271	13.334	1371.371	1045.638
51.286	13.380	1370.166	1044.915
52.301	13.352	1368.650	1043.488
53.315	13.348	1367.920	1042.814
54.330	13.313	1366.526	1041.442
55.344	13.252	1366.036	1040.589
56.359	13.308	1364.228	1039.476
57.374	13.328	1363.169	1038.701
58.388	13.318	1362.788	1038.254
59.403	13.202	1362.621	1037.310
60.417	13.183	1361.183	1036.002
61.432	13.255	1360.658	1035.965
62.447	13.146	1359.833	1034.561
63.461	13.180	1358.439	1033.619
64.476	13.136	1357.672	1032.673
65.490	13.127	1356.310	1031.488
66.505	13.202	1354.614	1030.572
67.520	13.211	1353.499	1029.693
68.534	13.108	1352.570	1028.254
69.549	13.173	1351.373	1027.652
70.563	13.192	1349.899	1026.562
71.578	13.254	1348.835	1026.049
72.593	13.202	1348.227	1025.169
73.607	13.052	1347.397	1023.521
74.622	13.123	1346.248	1022.995
75.636	13.068	1346.315	1022.615
76.651	13.105	1344.646	1021.484
77.666	13.152	1344.286	1021.411
78.680	13.098	1343.989	1020.765
79.695	13.176	1342.611	1020.106
80.709	13.196	1342.123	1019.769
81.724	13.252	1341.310	1019.405
82.739	13.307	1339.743	1018.464
83.753	13.318	1339.452	1018.221
84.768	13.349	1338.115	1017.306
85.782	13.409	1336.632	1016.458
86.797	13.452	1335.294	1015.612
87.812	13.268	1334.437	1013.741
88.826	13.338	1333.171	1013.118
89.841	13.342	1332.364	1012.442
90.855	13.307	1331.656	1011.599
91.870	13.468	1330.103	1011.316
92.884	13.451	1329.458	1010.634
93.899	13.360	1328.917	1009.573
94.914	13.467	1327.570	1009.117
95.928	13.506	1327.169	1008.955
96.943	13.448	1325.854	1007.514
97.957	13.510	1324.652	1006.887
98.972	13.443	1324.161	1006.020
99.987	13.469	1322.639	1004.930
101.001	13.378	1322.109	1003.890
102.016	13.267	1321.439	1002.616
103.030	13.472	1320.312	1002.919
104.045	13.397	1319.563	1001.806
105.060	13.375	1318.392	1000.694
106.074	13.351	1316.438	998.979
107.089	13.367	1315.212	998.054
108.103	13.293	1314.196	996.753
109.118	13.286	1313.249	995.899
110.133	13.237	1311.876	994.475
111.147	13.330	1310.116	993.613
112.162	13.259	1309.261	992.455
113.176	13.304	1308.261	991.877
114.191	13.388	1306.979	991.322
115.206	13.359	1306.004	990.317
116.220	13.361	1304.347	988.986
117.235	13.385	1303.340	988.277
118.249	13.314	1302.670	987.260
119.264	13.324	1301.586	986.409
120.279	13.321	1300.437	985.433
121.293	13.275	1299.365	984.263
122.308	13.362	1298.076	983.716
123.322	13.236	1297.002	982.065
124.337	13.342	1295.906	981.776
125.352	13.218	1295.129	980.365
126.366	13.340	1293.514	979.782
127.381	13.356	1292.233	978.815
128.395	13.309	1291.234	977.696
129.410	13.353	1290.190	977.078
130.424	13.340	1289.822	976.640
131.439	13.349	1288.807	975.834
132.454	13.329	1287.925	974.961
133.468	13.431	1286.834	974.654
134.483	13.485	1285.741	974.057
135.497	13.349	1284.959	972.580
136.512	13.355	1283.978	971.785
137.527	13.327	1282.429	970.363
138.541	13.462	1280.964	969.957
139.556	13.409	1279.571	968.506
140.570	13.524	1278.716	968.446
141.585	13.530	1277.564	967.527
142.600	13.540	1276.342	966.574
143.614	13.559	1275.546	965.994
144.629	13.563	1274.431	965.086
145.643	13.512	1273.381	963.913
146.658	13.440	1272.399	962.665
147.673	13.385	1270.773	961.026
148.687	13.405	1269.115	959.804
149.702	13.435	1268.082	959.112
150.716	13.368	1267.073	957.879
151.731	13.425	1265.509	956.942
152.746	13.489	1264.345	956.342
153.760	13.396	1263.454	955.048
154.775	13.520	1262.129	954.677
155.789	13.498	1261.279	953.822
156.804	13.551	1259.741	952.881
157.819	13.531	1258.851	952.008
158.833	13.579	1257.891	951.475
159.848	13.629	1256.671	950.754
160.862	13.615	1255.782	949.918
161.877	13.579	1254.490	948.650
162.892	13.606	1253.539	948.002
163.906	13.523	1252.629	946.757
164.921	13.481	1252.077	946.013
165.935	13.612	1250.775	945.695
166.950	13.598	1250.637	945.425
167.964	13.568	1249.801	944.542
168.979	13.660	1248.411	943.929
169.994	13.650	1247.775	943.308
171.008	13.684	1247.176	942.967
172.023	13.676	1246.010	941.952
173.037	13.733	1245.409	941.740
174.052	13.694	1244.451	940.711
175.067	13.641	1243.648	939.721
176.081	13.545	1242.898	938.530
177.096	13.582	1241.894	937.894
178.110	13.690	1240.224	937.162
179.125	13.837	1238.905	936.914
180.140	13.702	1238.208	935.538
181.154	13.848	1236.433	934.939
182.169	13.743	1235.368	933.457
183.183	13.852	1234.002	932.960
184.198	13.846	1233.123	932.176
185.213	13.832	1232.085	931.230
186.227	13.867	1231.136	930.625
187.242	13.828	1230.453	929.811
188.256	13.797	1229.313	928.691
189.271	13.959	1227.993	928.518
190.286	13.889	1227.022	927.314
191.300	13.718	1226.341	925.763
192.315	13.662	1225.691	924.875
193.329	13.742	1225.096	924.790
194.344	13.843	1224.187	924.587
195.359	13.861	1223.565	924.137
196.373	13.930	1223.072	924.067
197.388	13.830	1223.203	923.523
198.402	14.058	1222.687	924.321
199.417	14.057	1221.608	923.420
200.432	14.223	1220.189	923.186
201.446	14.174	1219.784	922.527
202.461	14.233	1218.936	922.127
203.475	14.098	1218.027	920.611
204.490	14.081	1216.857	919.554
205.504	14.172	1215.507	918.953
206.519	14.158	1214.388	917.949
207.534	14.136	1212.945	916.657
208.548	14.177	1212.274	916.297
209.563	14.163	1211.728	915.722
210.577	14.131	1210.900	914.840
211.592	14.118	1210.143	914.117
212.607	14.094	1208.989	913.031
213.621	14.271	1207.968	913.153
214.636	14.175	1207.457	912.159
215.650	14.280	1206.236	911.732
216.665	14.266	1205.399	910.938
217.680	14.326	1204.131	910.226
218.694	14.441	1202.807	909.778
219.709	14.344	1202.742	909.118
220.723	14.332	1201.748	908.220
221.738	14.334	1201.066	907.633
222.753	14.375	1200.267	907.174
223.767	14.397	1199.462	906.606
224.782	14.381	1199.019	906.100
225.796	14.454	1198.513	906.037
226.811	14.539	1197.298	905.499
227.826	14.510	1196.844	904.916
228.840	14.450	1196.369	904.151
229.855	14.455	1195.407	903.373
230.869	14.451	1194.612	902.672
231.884	14.375	1193.982	901.702
232.899	14.416	1193.160	901.224
233.913	14.399	1192.287	900.393
234.928	14.369	1191.522	899.573
235.942	14.502	1190.268	899.263
236.957	14.351	1189.652	897.907
237.972	14.414	1188.832	897.548
238.986	14.424	1188.582	897.333
240.001	14.329	1187.977	896.284
241.015	14.495	1186.949	896.326
242.030	14.491	1186.025	895.527
243.045	14.534	1185.395	895.203
244.059	14.641	1184.267	894.843
245.074	14.640	1183.291	894.023
246.088	14.631	1182.788	893.512
247.103	14.679	1181.840	892.974
248.117	14.751	1181.202	892.802
249.132	14.808	1180.130	892.214
250.147	14.792	1179.730	891.750
251.161	14.846	1178.988	891.398
252.176	14.861	1178.744	891.216
253.190	14.978	1177.514	890.825
254.205	14.979	1176.904	890.290
255.220	14.982	1176.586	889.991
256.234	14.980	1175.535	889.105
257.249	15.033	1174.938	888.853
258.263	14.939	1174.759	888.141
259.278	14.977	1174.020	887.709
260.293	14.890	1173.615	886.862
261.307	15.021	1172.616	886.724
262.322	15.091	1172.112	886.632
263.336	14.999	1171.812	885.841
264.351	15.157	1170.782	885.820
265.366	15.199	1170.021	885.384
266.380	15.121	1169.748	884.688
267.395	15.038	1168.737	883.407
268.409	15.019	1167.883	882.586
269.424	15.131	1167.285	882.647
270.439	15.123	1166.538	881.960
271.453	15.168	1165.634	881.438
272.468	15.011	1165.398	880.355
273.482	15.087	1163.970	879.594
274.497	15.161	1163.437	879.504
275.512	15.115	1162.961	878.825
276.526	15.162	1162.204	878.419
277.541	15.227	1161.140	877.881
278.555	15.252	1160.659	877.568
279.570	15.187	1160.044	876.687
280.585	15.306	1159.081	876.506
281.599	15.259	1158.271	875.565
282.614	15.188	1157.321	874.399
283.628	15.297	1156.066	873.941
284.643	15.256	1155.074	872.905
285.657	15.390	1154.182	872.849
286.672	15.349	1153.410	871.977
287.687	15.227	1152.689	870.721
288.701	15.291	1151.849	870.337
289.716	15.390	1150.785	869.974
290.730	15.367	1150.077	869.238
291.745	15.388	1149.721	869.005
292.760	15.385	1148.951	868.331
293.774	15.504	1148.220	868.317
294.789	15.467	1147.860	867.775
295.803	15.526	1146.868	867.252
296.818	15.495	1146.261	866.558
297.833	15.442	1145.648	865.742
298.847	15.467	1144.825	865.175
299.862	15.574	1143.616	864.735
300.876	15.575	1142.656	863.935
301.891	15.608	1142.375	863.818
302.906	15.662	1141.434	863.305
303.920	15.754	1140.741	863.180
304.935	15.710	1140.345	862.576
305.949	15.728	1139.428	861.899
306.964	15.710	1138.896	861.331
307.979	15.754	1138.239	860.980
308.993	15.781	1137.267	860.305
310.008	15.753	1136.583	859.570
311.022	15.725	1135.937	858.865
312.037	15.759	1134.861	858.147
313.052	15.817	1133.883	857.628
314.066	15.719	1133.288	856.602
315.081	15.561	1132.681	855.262
316.095	15.758	1131.464	855.270
317.110	15.703	1131.003	854.565
318.125	15.624	1130.543	853.739
319.139	15.784	1129.402	853.617
320.154	15.791	1128.844	853.155
321.168	15.725	1128.366	852.381
322.183	15.828	1127.399	852.100
323.197	15.786	1126.816	851.372
324.212	15.824	1126.265	851.069
325.227	15.811	1125.660	850.474
326.241	15.841	1124.752	849.866
327.256	15.815	1124.220	849.253
328.270	15.797	1123.808	848.778
329.285	15.829	1122.393	847.793
330.300	15.857	1121.679	847.323
331.314	15.907	1120.870	846.886
332.329	15.828	1119.742	845.565
333.343	15.927	1118.809	845.279
334.358	15.907	1117.771	844.321
335.373	15.894	1117.374	843.879
336.387	16.017	1116.378	843.672
337.402	16.014	1115.443	842.874
338.416	16.150	1114.549	842.803
339.431	16.162	1113.876	842.279
340.446	16.194	1113.243	841.886
341.460	16.134	1113.029	841.350
342.475	16.134	1111.994	840.494
343.489	16.224	1110.990	840.111
344.504	16.287	1110.313	839.835
345.519	16.286	1109.426	839.085
346.533	16.410	1108.256	838.741
347.548	16.380	1107.688	838.088
348.562	16.346	1107.012	837.336
349.577	16.272	1106.344	836.388
350.592	16.275	1105.661	835.812
351.606	16.321	1104.753	835.281
352.621	16.183	1104.256	834.148
353.635	16.205	1103.666	833.739
354.650	16.337	1102.626	833.531
355.665	16.244	1101.798	832.372
356.679	16.274	1101.800	832.446
357.694	16.252	1101.033	831.685
358.708	16.330	1100.036	831.244
359.723	16.271	1099.468	830.450
360.738	16.382	1098.672	830.323
361.752	16.317	1098.409	829.730
362.767	16.388	1097.731	829.493
363.781	16.388	1097.036	828.893
364.796	16.506	1096.584	829.055
365.810	16.577	1095.699	828.662
366.825	16.523	1095.259	827.992
367.840	16.626	1094.470	827.825
368.854	16.545	1093.981	826.989
369.869	16.639	1093.358	826.904
370.883	16.687	1092.222	826.204
371.898	16.594	1091.530	825.156
372.913	16.634	1090.907	824.807
373.927	16.767	1090.374	824.978
374.942	16.641	1089.826	823.878
375.956	16.691	1089.370	823.703
376.971	16.771	1088.886	823.655
377.986	16.630	1088.517	822.615
379.000	16.706	1088.168	822.646
380.015	16.784	1087.531	822.473
381.029	16.766	1086.861	821.807
382.044	16.921	1085.785	821.670
383.059	16.781	1084.937	820.278
384.073	16.862	1084.438	820.222
385.088	16.934	1083.152	819.521
386.102	16.949	1082.017	818.664
387.117	16.920	1081.300	817.909
388.132	16.849	1080.337	816.767
389.146	16.930	1079.646	816.564
390.161	16.866	1079.064	815.741
391.175	16.817	1078.096	814.701
392.190	16.816	1078.237	814.729
393.205	17.023	1077.161	814.840
394.219	16.988	1076.286	813.940
395.234	17.011	1074.767	812.826
396.248	17.017	1073.801	812.056
397.263	16.850	1073.337	810.831
398.278	16.865	1072.254	810.016
399.292	16.965	1071.710	810.011
400.307	16.821	1071.230	808.889
401.321	16.983	1070.420	808.979
402.336	17.082	1069.484	808.672
403.350	16.956	1068.960	807.600
404.365	16.925	1068.617	807.125
405.380	17.025	1067.697	806.835
406.394	17.062	1066.996	806.409
407.409	17.203	1066.127	806.348
408.423	17.161	1065.523	805.621
409.438	17.217	1064.736	805.222
410.453	17.208	1063.797	804.398
411.467	17.248	1063.222	804.082
412.482	17.363	1062.655	804.126
413.496	17.237	1062.386	803.251
414.511	17.209	1061.735	802.557
415.526	17.450	1060.894	802.988
416.540	17.485	1060.426	802.731
417.555	17.457	1059.815	802.062
418.569	17.466	1059.241	801.599
419.584	17.462	1058.776	801.157
420.599	17.461	1058.585	800.939
421.613	96.137	1312.183	1428.290
422.628	88.704	1349.144	1428.418
