DTS Sentinel unit serial number:	SN413079Multiplexer serial number:	ORYXHardware model number:	OX4-SRSoftware version number:	ORYX F/W v4.00 Oryx Data Collector v3.7.2.0data status	okinstallation	princeton_trtdifferential loss correction	single-endedforward channel	channel 2reverse channel	N/Adate	2019/09/10time	21:21:10forward acquisition time	60.00reverse acquisition time	0.00gamma	496.2192k internal	0.2330k external	0.2330temperature offset calibration	0.9942default loss term (dB/km)	0.3790temperature slope calibration	1.0000multiplexer offset coefficient	1.0000multiplexer slope coefficient	1.0000fibre end	0.00T internal ref (°C)	31.27T ext. ref 1 (°C)	-0.33T ext. ref 2 (°C)	24.40length (m)	temperature (°C)	Stokes	anti-Stokes-747.200	-43.247	0.128	0.065
-746.185	-37.714	-0.241	0.129
-745.171	255.498	0.112	-0.194
-744.156	-200.000	-0.021	0.474
-743.142	309.384	0.092	-0.173
-742.127	31.218	-0.044	-0.038
-741.112	234.814	0.026	-0.043
-740.098	-109.579	-0.320	0.068
-739.083	-46.849	-0.117	0.058
-738.069	601.911	-0.071	-0.177
-737.054	62.245	0.183	-0.184
-736.039	-19.344	-0.188	-0.117
-735.025	604.904	-0.108	-0.271
-734.010	-109.824	-0.093	-0.020
-732.996	-57.816	-0.210	0.092
-731.981	-200.000	-0.018	-0.341
-730.966	-200.000	-0.091	-0.517
-729.952	-133.818	0.309	-0.039
-728.937	-123.077	0.226	0.037
-727.923	281.398	-0.113	-0.204
-726.908	-98.446	-0.262	0.068
-725.894	477.046	-0.054	0.122
-724.879	32.007	-0.027	-0.023
-723.864	-106.761	-0.231	0.052
-722.850	220.545	-0.094	0.152
-721.835	-72.628	-0.388	-0.144
-720.821	-20.897	0.104	-0.064
-719.806	-90.024	-0.209	-0.061
-718.791	85.423	-0.072	-0.080
-717.777	800.000	-0.031	-0.099
-716.762	-93.470	0.163	0.045
-715.748	-104.791	0.082	0.019
-714.733	76.401	-0.057	0.061
-713.718	312.011	-0.191	0.361
-712.704	741.136	0.072	-0.194
-711.689	-200.000	0.018	-0.203
-710.675	-22.993	0.228	-0.138
-709.660	-66.895	0.381	-0.152
-708.645	-69.368	0.126	0.049
-707.631	-110.437	-0.188	-0.039
-706.616	-200.000	-0.077	-0.383
-705.602	800.000	0.051	-0.159
-704.587	-147.706	0.125	-0.011
-703.572	334.362	0.166	-0.322
-702.558	-93.616	0.307	-0.085
-701.543	-13.887	-0.066	-0.043
-700.529	-200.000	0.033	-0.166
-699.514	-61.155	-0.254	0.108
-698.499	256.721	0.149	-0.256
-697.485	37.823	-0.295	-0.264
-696.470	42.931	-0.051	0.047
-695.456	-15.253	0.199	0.128
-694.441	215.643	0.103	-0.164
-693.426	123.223	-0.105	-0.132
-692.412	800.000	0.049	-0.195
-691.397	55.077	-0.127	-0.124
-690.383	15.638	-0.329	0.260
-689.368	-120.576	0.286	0.049
-688.354	-200.000	-0.036	0.277
-687.339	-132.220	-0.168	-0.022
-686.324	33.156	-0.247	0.215
-685.310	-18.043	0.044	0.028
-684.295	-33.277	-0.427	0.238
-683.281	-51.204	0.288	0.136
-682.266	-88.713	-0.232	-0.069
-681.251	553.061	-0.061	-0.146
-680.237	-200.000	-0.036	-0.193
-679.222	753.680	0.153	-0.414
-678.208	64.381	0.102	0.103
-677.193	180.618	-0.185	-0.273
-676.178	137.614	-0.092	0.122
-675.164	-83.192	-0.431	0.139
-674.149	800.000	-0.041	0.121
-673.135	800.000	-0.009	0.025
-672.120	1.066	-0.124	0.090
-671.105	-200.000	0.011	-0.259
-670.091	800.000	-0.024	0.067
-669.076	-153.117	-0.084	0.006
-668.062	157.437	0.133	0.185
-667.047	99.436	0.154	0.179
-666.032	151.865	0.120	0.164
-665.018	-132.523	-0.223	0.029
-664.003	-200.000	0.025	-0.156
-662.989	616.410	0.087	0.220
-661.974	800.000	-0.068	0.230
-660.959	631.699	-0.112	0.284
-659.945	412.657	-0.045	-0.096
-658.930	-97.745	-0.218	0.057
-657.916	17.749	-0.273	-0.218
-656.901	-8.131	-0.134	0.090
-655.886	-200.000	0.019	-0.147
-654.872	800.000	-0.046	0.181
-653.857	-81.986	0.253	0.083
-652.843	411.015	0.077	-0.165
-651.828	203.084	-0.066	0.102
-650.814	-50.707	0.203	-0.096
-649.799	173.293	0.056	0.081
-648.784	-126.864	-0.238	0.035
-647.770	44.502	-0.119	0.110
-646.755	499.499	0.019	0.044
-645.741	800.000	0.036	0.121
-644.726	-76.611	-0.469	0.165
-643.711	134.399	0.198	-0.257
-642.697	298.678	-0.222	0.409
-641.682	-125.427	-0.147	-0.022
-640.668	-200.000	0.021	0.255
-639.653	88.894	0.221	0.247
-638.638	14.255	-0.270	-0.211
-637.624	96.896	-0.117	0.135
-636.609	69.622	-0.198	-0.204
-635.595	117.289	-0.062	-0.076
-634.580	-200.000	-0.075	-0.361
-633.565	-171.071	0.151	0.005
-632.551	-11.935	-0.257	-0.169
-631.536	-200.000	0.067	0.300
-630.522	-15.404	0.338	-0.216
-629.507	800.000	-0.072	0.283
-628.492	-200.000	-0.016	0.097
-627.478	0.065	-0.224	0.160
-626.463	-200.000	-0.062	0.321
-625.449	-200.000	0.020	0.246
-624.434	100.344	-0.075	-0.088
-623.419	-124.768	-0.267	-0.041
-622.405	-200.000	0.050	-0.273
-621.390	-113.941	0.211	-0.041
-620.376	-42.107	0.204	0.105
-619.361	537.425	-0.089	-0.212
-618.346	15.122	-0.307	-0.241
-617.332	-53.153	-0.199	0.092
-616.317	-200.000	-0.003	0.109
-615.303	164.801	-0.157	0.223
-614.288	61.247	-0.070	0.070
-613.273	-64.429	-0.148	0.060
-612.259	28.085	0.414	-0.350
-611.244	21.510	0.083	-0.067
-610.230	81.236	-0.056	-0.061
-609.215	100.755	-0.039	-0.045
-608.201	-99.756	-0.227	0.057
-607.186	-118.530	0.144	0.025
-606.171	495.884	-0.133	0.307
-605.157	682.421	-0.181	-0.473
-604.142	800.000	-0.030	-0.092
-603.128	-200.000	-0.016	-0.123
-602.113	28.226	0.041	0.035
-601.098	-142.125	-0.220	0.022
-600.084	-117.008	0.199	0.036
-599.069	-200.000	0.045	-0.282
-598.055	264.233	0.123	0.215
-597.040	2.876	-0.114	0.083
-596.025	37.958	0.232	-0.206
-595.011	-177.082	-0.233	-0.006
-593.996	97.584	-0.174	-0.200
-592.982	128.335	-0.191	-0.244
-591.967	-164.757	0.273	-0.012
-590.952	800.000	0.136	0.582
-589.938	-73.723	0.148	0.054
-588.923	80.908	0.197	0.213
-587.909	-200.000	-0.039	-0.597
-586.894	354.404	-0.086	-0.171
-585.879	-5.606	0.128	0.088
-584.865	-66.137	0.283	0.113
-583.850	800.000	-0.078	0.237
-582.836	-60.098	-0.509	-0.217
-581.821	-200.000	0.205	0.001
-580.806	800.000	-0.076	-0.221
-579.792	-28.268	-0.269	0.156
-578.777	-180.189	-0.068	0.001
-577.763	587.296	0.081	0.200
-576.748	142.110	-0.091	-0.120
-575.733	-200.000	0.006	-0.168
-574.719	-85.337	0.148	-0.046
-573.704	25.424	-0.077	0.064
-572.690	300.236	0.056	0.103
-571.675	-200.000	0.010	0.127
-570.661	800.000	0.021	-0.063
-569.646	-68.369	0.163	-0.063
-568.631	307.178	0.232	0.432
-567.617	800.000	0.065	-0.205
-566.602	-73.503	-0.164	0.060
-565.588	418.734	-0.191	-0.409
-564.573	8.788	-0.040	-0.030
-563.558	-12.110	-0.127	-0.083
-562.544	102.227	-0.087	-0.102
-561.529	800.000	-0.042	0.127
-560.515	290.726	-0.055	0.100
-559.500	-111.736	0.327	0.066
-558.485	-67.178	0.302	-0.119
-557.471	800.000	-0.037	-0.108
-556.456	-85.611	0.436	0.135
-555.442	18.342	-0.319	-0.255
-554.427	-200.000	0.032	-0.154
-553.412	45.565	0.235	-0.217
-552.398	82.811	0.053	-0.057
-551.383	105.920	0.117	-0.138
-550.369	800.000	-0.055	0.199
-549.354	-32.979	-0.276	0.153
-548.339	211.735	-0.119	0.187
-547.325	-24.728	0.141	-0.084
-546.310	75.067	-0.148	-0.156
-545.296	-59.789	0.195	-0.083
-544.281	117.019	0.054	0.067
-543.266	-13.044	-0.211	0.137
-542.252	-113.711	-0.411	0.080
-541.237	-200.000	-0.065	-0.462
-540.223	28.756	-0.267	0.226
-539.208	-57.855	0.113	0.049
-538.193	-200.000	0.012	-0.323
-537.179	644.028	0.047	-0.120
-536.164	147.021	-0.322	-0.433
-535.150	-110.118	0.227	-0.047
-534.135	-200.000	-0.033	-0.319
-533.121	772.716	-0.054	-0.146
-532.106	-137.386	0.564	-0.064
-531.091	-132.392	-0.207	-0.027
-530.077	-200.000	0.204	0.000
-529.062	-50.148	0.156	0.074
-528.048	-51.554	0.094	-0.044
-527.033	102.633	0.050	-0.059
-526.018	-23.480	-0.038	-0.023
-525.004	-11.319	-0.316	-0.208
-523.989	-44.185	0.152	0.076
-522.975	64.627	-0.240	0.241
-521.960	125.708	-0.067	-0.085
-520.945	-200.000	0.013	-0.198
-519.931	-86.273	-0.172	0.053
-518.916	-55.710	0.344	-0.154
-517.902	-96.417	0.408	0.108
-516.887	136.822	0.150	0.195
-515.872	-95.789	-0.358	0.095
-514.858	162.174	0.189	0.264
-513.843	-39.375	0.094	0.049
-512.829	-120.050	-0.362	0.062
-511.814	-49.954	0.449	0.212
-510.799	-62.530	0.335	0.139
-509.785	48.981	-0.324	0.303
-508.770	-52.744	-0.155	0.071
-507.756	-200.000	-0.045	-0.257
-506.741	38.385	-0.130	0.115
-505.726	208.071	0.065	0.101
-504.712	568.375	0.092	-0.223
-503.697	-200.000	-0.010	0.177
-502.683	-82.292	-0.340	-0.110
-501.668	-167.353	0.228	0.009
-500.653	84.266	-0.202	0.220
-499.639	64.126	0.251	0.252
-498.624	252.978	0.024	0.041
-497.610	20.462	-0.108	-0.087
-496.595	-96.367	0.087	0.023
-495.581	-26.856	0.146	-0.085
-494.566	800.000	0.100	-0.340
-493.551	214.745	-0.031	-0.049
-492.537	-200.000	0.024	0.226
-491.522	-42.565	-0.049	-0.025
-490.508	68.004	0.192	-0.196
-489.493	-53.344	-0.333	0.152
-488.478	360.937	0.044	-0.089
-487.464	61.915	0.336	0.334
-486.449	-82.163	-0.278	-0.090
-485.435	-2.180	0.094	0.066
-484.420	-200.000	0.058	0.368
-483.405	-163.863	0.198	-0.009
-482.391	-38.091	-0.417	0.220
-481.376	-88.386	0.190	0.056
-480.362	38.442	0.045	-0.040
-479.347	-126.435	-0.107	-0.016
-478.332	-200.000	-0.039	0.204
-477.318	20.303	-0.233	0.188
-476.303	-200.000	0.014	-0.273
-475.289	42.858	-0.187	-0.170
-474.274	-18.878	-0.144	0.089
-473.259	170.300	0.085	-0.122
-472.245	18.198	0.268	-0.213
-471.230	-81.842	0.067	0.022
-470.216	-102.206	0.054	0.013
-469.201	293.442	-0.156	-0.284
-468.186	87.085	-0.091	-0.100
-467.172	-54.209	0.184	-0.083
-466.157	212.750	-0.138	-0.217
-465.143	-200.000	-0.033	-0.197
-464.128	28.316	0.221	-0.186
-463.113	-102.897	-0.128	-0.030
-462.099	479.649	0.040	0.091
-461.084	16.541	0.111	0.088
-460.070	800.000	0.075	0.327
-459.055	-63.798	0.234	-0.095
-458.040	-200.000	0.015	-0.133
-457.026	-176.150	-0.279	-0.007
-456.011	9.566	0.505	0.381
-454.997	800.000	0.039	-0.134
-453.982	800.000	-0.008	-0.022
-452.968	-200.000	0.009	0.180
-451.953	-6.854	-0.287	0.194
-450.938	106.266	0.082	-0.097
-449.924	160.914	-0.122	0.170
-448.909	237.910	0.063	-0.105
-447.895	89.566	0.085	-0.094
-446.880	-200.000	0.029	-0.325
-445.865	800.000	-0.061	-0.200
-444.851	270.542	0.060	-0.105
-443.836	-200.000	0.013	0.174
-442.822	-125.061	-0.314	0.048
-441.807	-200.000	0.042	-0.209
-440.792	-43.191	-0.282	0.142
-439.778	-200.000	0.002	-0.246
-438.763	18.916	-0.178	0.142
-437.749	-137.520	0.281	-0.032
-436.734	-200.000	0.025	0.182
-435.719	-8.452	-0.178	0.119
-434.705	800.000	-0.043	0.174
-433.690	-200.000	-0.017	-0.102
-432.676	-142.943	0.056	-0.005
-431.661	38.977	0.048	0.043
-430.646	180.709	0.151	-0.220
-429.632	800.000	-0.059	-0.196
-428.617	-25.108	-0.216	-0.128
-427.603	86.950	-0.227	0.249
-426.588	-200.000	-0.024	-0.256
-425.573	-147.822	0.251	0.021
-424.559	91.753	0.232	-0.260
-423.544	-15.179	0.182	-0.116
-422.530	-200.000	-0.013	-0.230
-421.515	-27.209	-0.146	-0.085
-420.500	-193.815	0.225	0.002
-419.486	720.872	0.097	-0.256
-418.471	-10.708	0.192	0.126
-417.457	560.480	-0.147	0.354
-416.442	-61.787	0.142	-0.059
-415.428	465.604	0.078	0.173
-414.413	-147.186	0.261	-0.022
-413.398	441.287	0.110	0.240
-412.384	39.464	-0.155	0.138
-411.369	-200.000	-0.052	0.367
-410.355	-59.087	-0.230	0.099
-409.340	-88.041	-0.642	-0.191
-408.325	-200.000	0.043	0.280
-407.311	149.790	0.035	0.048
-406.296	800.000	0.067	0.215
-405.282	71.570	0.203	0.209
-404.267	10.548	0.152	0.115
-403.252	132.459	0.099	-0.127
-402.238	-65.932	0.231	0.092
-401.223	800.000	-0.083	-0.246
-400.209	-90.029	-0.021	0.006
-399.194	-40.171	-0.163	-0.084
-398.179	142.310	-0.182	-0.240
-397.165	-10.169	-0.083	-0.055
-396.150	-2.251	-0.137	-0.096
-395.136	22.342	-0.031	0.025
-394.121	26.259	0.139	-0.115
-393.106	80.649	-0.128	-0.137
-392.092	215.366	-0.144	-0.227
-391.077	29.993	-0.166	0.140
-390.063	183.403	-0.187	-0.275
-389.048	-64.821	-0.007	-0.003
-388.033	-53.299	-0.088	-0.040
-387.019	122.753	-0.169	0.210
-386.004	-124.169	0.075	0.012
-384.990	-200.000	0.001	-0.049
-383.975	-187.359	0.059	-0.001
-382.960	-200.000	-0.036	0.180
-381.946	-57.018	0.289	0.127
-380.931	-147.097	-0.161	-0.014
-379.917	-83.069	-0.118	-0.038
-378.902	-140.665	0.318	-0.033
-377.888	800.000	-0.048	0.176
-376.873	12.469	-0.169	-0.129
-375.858	64.060	0.218	-0.218
-374.844	800.000	0.070	-0.295
-373.829	-110.527	-0.085	-0.017
-372.815	-75.715	0.365	0.129
-371.800	800.000	-0.085	0.283
-370.785	94.107	0.083	-0.093
-369.771	-141.589	0.420	-0.042
-368.756	-85.060	0.173	-0.054
-367.742	-56.173	0.096	-0.043
-366.727	-200.000	0.001	-0.120
-365.712	708.130	-0.146	0.383
-364.698	-111.531	0.450	0.091
-363.683	-68.367	0.129	-0.050
-362.669	-12.918	-0.103	0.066
-361.654	-200.000	-0.007	0.203
-360.639	800.000	-0.087	0.300
-359.625	800.000	0.017	-0.064
-358.610	476.252	0.066	0.147
-357.596	-40.554	0.276	0.142
-356.581	-73.969	0.234	-0.084
-355.566	-120.974	0.364	-0.061
-354.552	-3.625	0.252	0.173
-353.537	-13.101	-0.029	0.018
-352.523	-3.546	-0.132	0.091
-351.508	800.000	-0.071	0.197
-350.493	-172.656	-0.219	-0.007
-349.479	-200.000	-0.010	0.217
-348.464	-92.689	-0.397	0.110
-347.450	-173.362	0.263	-0.008
-346.435	-113.700	-0.270	-0.052
-345.420	-23.219	0.121	-0.072
-344.406	289.972	0.083	0.149
-343.391	-81.719	0.263	0.086
-342.377	184.428	0.111	0.163
-341.362	-141.046	0.114	-0.012
-340.348	503.949	-0.012	0.028
-339.333	46.347	-0.189	-0.173
-338.318	-62.394	0.112	-0.046
-337.304	-59.237	0.340	0.145
-336.289	800.000	-0.018	-0.067
-335.275	180.271	-0.041	-0.059
-334.260	27.525	0.227	0.190
-333.245	302.910	-0.112	0.206
-332.231	800.000	0.041	0.132
-331.216	51.930	-0.168	-0.159
-330.202	800.000	0.043	-0.134
-329.187	108.364	0.119	-0.141
-328.172	179.915	-0.080	-0.116
-327.158	800.000	-0.030	-0.109
-326.143	-93.729	-0.415	-0.113
-325.129	293.431	0.123	0.223
-324.114	-94.408	0.193	-0.052
-323.099	4.525	0.314	-0.228
-322.085	-104.739	-0.129	-0.029
-321.070	89.088	-0.170	-0.187
-320.056	-119.347	0.069	-0.012
-319.041	800.000	0.127	-0.364
-318.026	108.957	0.204	0.241
-317.012	-85.186	-0.496	-0.154
-315.997	-200.000	0.065	-0.335
-314.983	26.243	0.187	-0.155
-313.968	190.069	-0.195	-0.291
-312.953	-107.178	0.293	0.064
-311.939	154.241	0.156	0.212
-310.924	-20.662	0.185	-0.112
-309.910	66.612	-0.023	-0.023
-308.895	497.548	0.039	-0.089
-307.880	-43.383	-0.311	0.156
-306.866	75.728	-0.258	-0.269
-305.851	-171.807	-0.042	-0.001
-304.837	800.000	0.114	-0.428
-303.822	-200.000	0.001	0.276
-302.807	612.371	-0.127	0.315
-301.793	-141.703	0.190	-0.019
-300.778	178.697	0.205	0.297
-299.764	800.000	0.048	0.151
-298.749	-98.717	0.081	-0.021
-297.735	-200.000	-0.019	-0.238
-296.720	221.691	0.171	-0.272
-295.705	800.000	0.029	-0.106
-294.691	-74.532	-0.241	-0.086
-293.676	37.977	-0.170	-0.150
-292.662	-200.000	0.007	0.178
-291.647	-188.795	-0.100	-0.001
-290.632	179.176	-0.341	0.493
-289.618	193.439	0.055	-0.083
-288.603	61.519	-0.275	0.271
-287.589	-20.144	0.133	-0.081
-286.574	-31.768	0.425	0.236
-285.559	3.698	0.348	0.251
-284.545	438.479	-0.209	-0.451
-283.530	-33.575	0.138	0.075
-282.516	40.845	-0.268	0.239
-281.501	-16.165	-0.445	0.279
-280.486	-37.807	-0.313	-0.165
-279.472	-200.000	-0.023	-0.172
-278.457	-132.781	0.098	-0.012
-277.443	-128.368	-0.276	-0.039
-276.428	-94.158	-0.026	-0.007
-275.413	-200.000	0.007	-0.190
-274.399	-18.020	0.055	-0.034
-273.384	800.000	-0.097	0.278
-272.370	-57.247	0.156	-0.068
-271.355	-180.656	-0.197	0.004
-270.340	62.037	0.133	0.131
-269.326	-200.000	0.003	0.156
-268.311	-127.079	-0.392	-0.057
-267.297	301.095	0.021	0.039
-266.282	800.000	-0.077	-0.290
-265.267	-154.765	0.324	0.021
-264.253	33.852	-0.289	0.249
-263.238	635.133	0.050	0.126
-262.224	-5.103	-0.320	0.218
-261.209	-200.000	0.010	0.099
-260.195	800.000	-0.055	0.184
-259.180	-52.834	0.264	0.120
-258.165	-0.817	-0.031	0.022
-257.151	-36.672	-0.146	-0.078
-256.136	357.430	-0.109	-0.214
-255.122	-200.000	0.034	0.177
-254.107	-200.000	0.021	0.093
-253.092	289.768	-0.144	-0.259
-252.078	-74.601	0.170	-0.060
-251.063	5.842	0.043	-0.032
-250.049	750.288	-0.069	-0.185
-249.034	-95.801	-0.098	-0.026
-248.019	27.643	-0.138	-0.115
-247.005	-200.000	0.028	-0.209
-245.990	783.423	-0.044	-0.120
-244.976	800.000	-0.051	0.163
-243.961	-106.822	0.124	0.027
-242.946	-59.199	-0.374	-0.159
-241.932	109.401	-0.225	-0.266
-240.917	50.916	0.231	0.216
-239.903	687.098	-0.096	0.248
-238.888	244.010	0.173	0.286
-237.873	-130.722	0.165	0.022
-236.859	-143.311	0.337	-0.032
-235.844	390.234	-0.055	-0.112
-234.830	104.129	-0.228	0.265
-233.815	-65.397	-0.289	-0.115
-232.800	292.839	0.150	0.269
-231.786	269.374	-0.125	0.216
-230.771	178.256	-0.050	-0.072
-229.757	9.152	-0.047	0.035
-228.742	-77.341	-0.064	0.022
-227.727	111.525	0.242	-0.288
-226.713	150.098	0.123	-0.165
-225.698	800.000	0.097	0.276
-224.684	119.829	0.127	-0.155
-223.669	800.000	-0.064	0.205
-222.655	-200.000	-0.002	-0.199
-221.640	-109.553	0.596	-0.124
-220.625	-20.922	-0.209	-0.126
-219.611	-200.000	-0.039	-0.203
-218.596	128.922	0.152	-0.192
-217.582	77.378	-0.283	0.297
-216.567	-80.171	0.126	-0.042
-215.552	-7.787	0.212	-0.141
-214.538	2.412	0.124	0.089
-213.523	-78.026	0.233	-0.079
-212.509	800.000	-0.042	0.133
-211.494	-101.490	-0.392	0.094
-210.479	800.000	0.153	-0.554
-209.465	-176.481	-0.118	-0.003
-208.450	800.000	0.027	0.078
-207.436	257.468	-0.041	0.069
-206.421	-61.914	-0.336	-0.139
-205.406	-126.334	-0.069	-0.010
-204.392	321.639	-0.076	-0.143
-203.377	39.688	0.096	0.085
-202.363	-59.250	0.109	0.046
-201.348	800.000	-0.054	-0.166
-200.333	-5.803	0.264	0.178
-199.319	460.234	0.150	0.330
-198.304	134.508	-0.026	-0.033
-197.290	-200.000	-0.021	-0.306
-196.275	7.238	0.296	0.218
-195.260	119.785	-0.189	0.231
-194.246	57.125	-0.080	-0.077
-193.231	78.587	0.122	0.129
-192.217	-200.000	0.063	0.335
-191.202	-39.104	-0.388	-0.201
-190.187	-89.971	0.128	0.037
-189.173	-177.821	0.242	0.006
-188.158	800.000	0.060	-0.163
-187.144	800.000	-0.031	-0.116
-186.129	-200.000	-0.068	0.299
-185.114	101.543	-0.291	0.335
-184.100	-185.774	-0.021	-0.000
-183.085	-107.788	-0.314	0.067
-182.071	-105.989	0.144	-0.032
-181.056	-200.000	-0.015	0.114
-180.042	345.313	-0.248	-0.479
-179.027	279.864	0.128	0.225
-178.012	-75.148	-0.046	-0.016
-176.998	-2.611	0.076	0.052
-175.983	-96.461	-0.194	0.051
-174.969	-34.903	-0.245	-0.132
-173.954	-200.000	-0.043	0.351
-172.939	-200.000	0.045	0.396
-171.925	112.294	-0.044	-0.053
-170.910	-166.635	0.452	0.018
-169.896	53.915	0.118	-0.112
-168.881	-200.000	-0.018	-0.319
-167.866	192.358	0.086	-0.128
-166.852	-200.000	0.020	0.085
-165.837	-200.000	0.032	0.197
-164.823	376.761	0.060	-0.121
-163.808	162.128	0.340	0.468
-162.793	-55.336	-0.165	-0.073
-161.779	17.170	0.218	-0.170
-160.764	-200.000	0.001	-0.382
-159.750	507.860	-0.068	0.155
-158.735	-50.115	0.181	-0.085
-157.720	-84.592	0.173	-0.054
-156.706	-200.000	-0.023	0.158
-155.691	800.000	-0.048	-0.163
-154.677	-27.410	-0.103	-0.059
-153.662	-200.000	-0.006	-0.062
-152.647	145.360	0.229	-0.302
-151.633	54.307	-0.200	0.190
-150.618	9.341	-0.289	-0.215
-149.604	-62.985	0.304	0.124
-148.589	288.503	0.076	-0.135
-147.574	-15.912	-0.067	-0.042
-146.560	7.025	0.052	-0.038
-145.545	-23.466	0.027	0.016
-144.531	-122.616	-0.268	0.043
-143.516	-200.000	0.256	0.000
-142.502	-200.000	0.021	0.401
-141.487	800.000	-0.047	0.164
-140.472	177.700	-0.141	-0.202
-139.458	-200.000	0.023	0.159
-138.443	-27.209	-0.332	0.190
-137.429	696.349	-0.143	-0.368
-136.414	-200.000	-0.051	-0.224
-135.399	-200.000	-0.018	0.134
-134.385	118.380	0.172	0.209
-133.370	95.851	0.086	-0.097
-132.356	237.139	-0.113	0.184
-131.341	-200.000	-0.051	0.301
-130.326	59.638	-0.185	0.179
-129.312	-82.054	-0.186	0.060
-128.297	89.903	-0.028	0.030
-127.283	-168.031	-0.286	-0.011
-126.268	126.275	0.166	0.206
-125.253	800.000	0.073	0.310
-124.239	-82.448	0.275	-0.088
-123.224	-200.000	0.019	0.100
-122.210	-143.994	0.091	0.008
-121.195	-156.493	0.279	-0.017
-120.180	29.516	0.127	0.106
-119.166	15.358	-0.082	0.063
-118.151	57.103	-0.238	-0.228
-117.137	-53.737	0.221	0.099
-116.122	112.306	0.098	-0.117
-115.107	-28.251	-0.268	0.152
-114.093	-9.676	-0.189	-0.124
-113.078	-36.778	0.090	-0.047
-112.064	-200.000	0.000	-0.322
-111.049	21.599	0.115	0.092
-110.034	-200.000	0.003	-0.132
-109.020	596.171	0.080	0.194
-108.005	-200.000	-0.015	-0.087
-106.991	-16.882	0.090	0.056
-105.976	-200.000	-0.002	-0.243
-104.962	71.593	0.089	-0.091
-103.947	46.334	-0.316	0.287
-102.932	-200.000	-0.027	-0.234
-101.918	200.114	-0.143	-0.216
-100.903	232.735	0.175	-0.282
-99.889	800.000	-0.047	0.139
-98.874	87.245	-0.199	0.216
-97.859	-1.233	-0.077	0.054
-96.845	-94.199	0.491	-0.132
-95.830	-94.137	0.154	0.041
-94.816	59.241	-0.041	0.039
-93.801	-13.538	0.125	-0.079
-92.786	-160.411	0.154	0.008
-91.772	-200.000	0.042	0.345
-90.757	-79.944	0.141	0.046
-89.743	-200.000	0.044	0.205
-88.728	-168.237	-0.348	-0.013
-87.713	0.277	0.023	0.016
-86.699	93.757	0.093	-0.103
-85.684	-99.952	-0.187	-0.046
-84.670	76.008	0.175	0.181
-83.655	-200.000	0.009	0.224
-82.640	107.949	-0.055	0.064
-81.626	523.741	0.082	-0.189
-80.611	13.200	-0.161	0.123
-79.597	-200.000	-0.028	0.268
-78.582	195.910	0.115	-0.172
-77.567	38.706	0.328	-0.287
-76.553	172.408	-0.222	-0.313
-75.538	-200.000	0.009	0.286
-74.524	800.000	-0.040	-0.127
-73.509	79.273	-0.135	-0.142
-72.494	-27.000	-0.204	0.117
-71.480	800.000	0.098	0.377
-70.465	-132.245	-0.129	-0.016
-69.451	89.063	-0.055	0.060
-68.436	800.000	-0.110	-0.408
-67.422	-65.193	-0.107	-0.042
-66.407	-200.000	-0.052	-0.258
-65.392	800.000	0.141	0.518
-64.378	167.097	-0.227	0.315
-63.363	19.972	0.102	-0.081
-62.349	2.999	0.141	-0.101
-61.334	161.763	-0.913	-1.253
-60.319	800.000	0.149	0.464
-59.305	258.013	-0.610	-1.029
-58.290	422.573	0.511	1.076
-57.276	800.000	0.571	1.563
-56.261	-200.000	98.710	614.484
-55.246	590.440	1411.010	3411.505
-54.232	190.126	2611.648	3843.108
-53.217	110.593	2273.674	2679.590
-52.203	40.778	1891.863	1672.318
-51.188	34.583	1680.311	1438.740
-50.173	31.890	1636.374	1381.262
-49.159	49.953	1684.735	1557.415
-48.144	51.314	1700.963	1582.510
-47.130	34.185	1660.638	1418.704
-46.115	31.447	1645.908	1385.809
-45.100	31.248	1641.120	1380.252
-44.086	31.155	1639.161	1377.858
-43.071	31.127	1636.736	1375.564
-42.057	31.085	1634.720	1373.506
-41.042	31.042	1632.492	1371.263
-40.027	31.219	1630.302	1370.669
-39.013	31.168	1628.508	1368.727
-37.998	31.025	1627.231	1366.556
-36.984	31.212	1625.009	1365.999
-35.969	31.260	1623.693	1365.190
-34.954	31.327	1622.594	1364.700
-33.940	31.330	1620.655	1363.043
-32.925	31.267	1618.566	1360.773
-31.911	31.278	1616.725	1359.250
-30.896	31.312	1615.094	1358.069
-29.881	31.253	1613.301	1356.080
-28.867	31.266	1611.722	1354.797
-27.852	31.236	1610.630	1353.603
-26.838	31.153	1609.371	1351.892
-25.823	31.277	1607.218	1350.929
-24.809	31.269	1606.145	1349.914
-23.794	31.290	1604.680	1348.777
-22.779	31.310	1603.203	1347.630
-21.765	31.319	1601.632	1346.323
-20.750	31.229	1599.972	1344.224
-19.736	31.321	1598.252	1343.383
-18.721	31.214	1597.083	1341.582
-17.706	31.293	1595.606	1340.854
-16.692	31.214	1594.222	1339.074
-15.677	31.258	1593.302	1338.559
-14.663	31.287	1591.585	1337.274
-13.648	31.335	1590.032	1336.259
-12.633	31.390	1588.173	1335.036
-11.619	31.322	1586.652	1333.219
-10.604	31.297	1585.377	1331.914
-9.590	31.329	1584.241	1331.135
-8.575	31.435	1582.297	1330.208
-7.560	31.313	1582.137	1329.147
-6.546	31.271	1581.076	1327.910
-5.531	31.220	1580.254	1326.803
-4.517	31.260	1578.460	1325.528
-3.502	31.230	1577.526	1324.475
-2.487	31.360	1575.771	1323.873
-1.473	30.912	1564.520	1311.219
-0.458	28.069	1544.211	1274.360
0.556	21.980	1544.665	1241.226
1.571	19.646	1567.874	1242.999
2.586	19.341	1581.528	1251.499
3.600	17.479	1529.667	1197.266
4.615	9.273	1420.712	1058.071
5.629	1.302	1355.823	959.426
6.644	-0.234	1347.640	943.901
7.659	-0.368	1346.068	941.873
8.673	-0.327	1344.923	941.244
9.688	-0.391	1343.192	939.552
10.702	-0.615	1339.571	935.532
11.717	2.514	1346.275	959.762
12.731	11.621	1363.350	1029.439
13.746	18.613	1375.057	1082.458
14.761	19.992	1376.548	1092.241
15.775	20.189	1376.071	1093.010
16.790	20.217	1375.456	1092.597
17.804	20.242	1374.943	1092.253
18.819	20.448	1375.248	1093.695
19.834	20.627	1373.853	1093.615
20.848	20.625	1373.296	1093.061
21.863	20.591	1372.442	1092.075
22.877	20.449	1372.005	1090.737
23.892	20.645	1370.931	1091.016
24.907	20.662	1369.596	1089.965
25.921	20.540	1369.010	1088.635
26.936	20.469	1368.199	1087.451
27.950	20.541	1366.956	1086.817
28.965	20.516	1365.985	1085.794
29.980	20.583	1364.677	1085.076
30.994	20.573	1363.377	1083.883
32.009	20.561	1362.290	1082.845
33.023	20.488	1361.389	1081.578
34.038	20.511	1360.059	1080.574
35.053	20.631	1358.695	1080.137
36.067	20.608	1357.922	1079.287
37.082	20.568	1357.040	1078.240
38.096	20.521	1356.304	1077.269
39.111	20.456	1355.370	1076.028
40.126	20.502	1354.826	1075.786
41.140	20.623	1353.842	1075.660
42.155	20.576	1353.594	1075.077
43.169	20.547	1353.794	1074.960
44.184	20.571	1353.360	1074.668
45.199	20.488	1352.920	1073.712
46.213	20.546	1352.627	1073.739
47.228	20.578	1351.333	1072.817
48.242	20.590	1350.518	1072.149
49.257	20.584	1348.710	1070.585
50.271	20.552	1346.917	1068.865
51.286	20.480	1346.000	1067.605
52.301	20.488	1345.101	1066.844
53.315	20.577	1343.986	1066.411
54.330	20.568	1343.336	1065.745
55.344	20.602	1341.601	1064.483
56.359	20.565	1340.492	1063.283
57.374	20.547	1340.311	1062.936
58.388	20.459	1339.697	1061.818
59.403	20.546	1338.929	1061.646
60.417	20.593	1338.331	1061.363
61.432	20.569	1337.264	1060.275
62.447	20.522	1336.860	1059.577
63.461	20.538	1335.823	1058.757
64.476	20.588	1334.626	1058.020
65.490	20.691	1333.145	1057.381
66.505	20.644	1331.909	1056.017
67.520	20.614	1330.655	1054.751
68.534	20.613	1329.605	1053.818
69.549	20.529	1328.712	1052.509
70.563	20.594	1327.629	1051.950
71.578	20.528	1326.979	1050.943
72.593	20.607	1326.040	1050.584
73.607	20.550	1325.203	1049.487
74.622	20.599	1324.275	1048.954
75.636	20.644	1323.732	1048.702
76.651	20.659	1322.759	1047.926
77.666	20.570	1323.002	1047.491
78.680	20.545	1321.973	1046.435
79.695	20.573	1320.824	1045.600
80.709	20.694	1319.966	1045.553
81.724	20.661	1318.906	1044.424
82.739	20.576	1318.188	1043.253
83.753	20.486	1317.689	1042.225
84.768	20.501	1316.570	1041.337
85.782	20.649	1315.283	1041.113
86.797	20.634	1313.836	1039.789
87.812	20.610	1312.827	1038.752
88.826	20.640	1311.751	1037.987
89.841	20.618	1310.801	1037.014
90.855	20.758	1309.751	1036.927
91.870	20.624	1309.253	1035.645
92.884	20.638	1308.465	1035.009
93.899	20.670	1307.391	1034.262
94.914	20.622	1306.813	1033.423
95.928	20.538	1306.121	1032.286
96.943	20.661	1305.014	1032.052
97.957	20.714	1304.254	1031.671
98.972	20.706	1303.094	1030.617
99.987	20.755	1301.933	1029.900
101.001	20.624	1301.086	1028.364
102.016	20.650	1300.142	1027.679
103.030	20.598	1299.274	1026.593
104.045	20.639	1298.576	1026.194
105.060	20.564	1298.068	1025.260
106.074	20.707	1296.309	1024.619
107.089	20.681	1295.396	1023.659
108.103	20.655	1294.373	1022.607
109.118	20.692	1293.439	1021.995
110.133	20.762	1291.542	1020.818
111.147	20.701	1290.526	1019.565
112.162	20.648	1289.665	1018.482
113.176	20.712	1288.738	1018.033
114.191	20.765	1287.755	1017.480
115.206	20.824	1286.393	1016.656
116.220	20.794	1284.997	1015.289
117.235	20.680	1284.691	1014.294
118.249	20.685	1283.373	1013.193
119.264	20.587	1283.129	1012.338
120.279	20.699	1282.088	1012.077
121.293	20.782	1281.023	1011.632
122.308	20.699	1280.171	1010.385
123.322	20.772	1278.772	1009.619
124.337	20.776	1278.226	1009.119
125.352	20.795	1277.430	1008.510
126.366	20.858	1276.066	1007.710
127.381	20.874	1274.926	1006.813
128.395	20.702	1274.782	1005.614
129.410	20.769	1273.449	1004.862
130.424	20.761	1272.890	1004.289
131.439	20.837	1271.583	1003.602
132.454	20.785	1270.804	1002.600
133.468	20.707	1270.510	1001.835
134.483	20.797	1269.527	1001.488
135.497	20.823	1268.592	1000.811
136.512	20.686	1267.835	999.338
137.527	20.774	1266.631	998.807
138.541	20.838	1264.746	997.597
139.556	20.740	1263.834	996.226
140.570	20.730	1262.786	995.258
141.585	20.743	1261.340	994.105
142.600	20.722	1260.496	993.231
143.614	20.766	1259.260	992.421
144.629	20.758	1258.104	991.373
145.643	20.679	1257.683	990.505
146.658	20.723	1256.278	989.562
147.673	20.715	1255.227	988.599
148.687	20.630	1254.848	987.733
149.702	20.610	1253.414	986.401
150.716	20.613	1252.613	985.702
151.731	20.746	1251.237	985.286
152.746	20.761	1249.993	984.300
153.760	20.825	1248.805	983.643
154.775	20.794	1248.456	983.103
155.789	20.776	1247.507	982.169
156.804	20.714	1246.283	980.771
157.819	20.771	1245.252	980.192
158.833	20.845	1244.436	979.881
159.848	20.838	1243.665	979.147
160.862	20.848	1243.293	978.820
161.877	20.846	1242.496	978.099
162.892	20.882	1241.364	977.319
163.906	20.864	1240.991	976.839
164.921	20.888	1239.865	976.003
165.935	20.910	1238.903	975.282
166.950	20.990	1238.376	975.228
167.964	20.849	1237.695	973.819
168.979	20.893	1237.526	973.846
169.994	20.908	1236.881	973.335
171.008	20.840	1236.269	972.387
172.023	20.921	1235.051	971.795
173.037	20.963	1234.393	971.422
174.052	20.878	1233.483	970.147
175.067	21.032	1232.363	970.040
176.081	20.883	1232.161	968.964
177.096	20.905	1230.928	968.033
178.110	20.888	1230.509	967.525
179.125	20.962	1229.252	966.857
180.140	21.044	1228.238	966.429
181.154	20.900	1227.551	965.008
182.169	20.946	1225.763	963.771
183.183	20.882	1225.169	962.861
184.198	21.053	1223.709	962.575
185.213	20.980	1223.188	961.679
186.227	21.048	1222.033	961.062
187.242	21.079	1221.456	960.691
188.256	20.960	1220.724	959.373
189.271	21.034	1219.409	958.663
190.286	20.970	1219.178	958.049
191.300	21.019	1218.265	957.511
192.315	20.976	1218.175	957.119
193.329	21.058	1217.796	957.187
194.344	20.992	1217.195	956.269
195.359	21.024	1216.602	955.895
196.373	20.910	1216.195	954.867
197.388	20.865	1215.854	954.268
198.402	20.906	1215.260	953.940
199.417	20.997	1215.000	954.150
200.432	20.996	1214.215	953.444
201.446	20.987	1213.683	952.892
202.461	20.946	1212.669	951.790
203.475	20.891	1212.043	950.912
204.490	20.924	1211.172	950.324
205.504	21.056	1209.766	949.858
206.519	21.159	1208.645	949.455
207.534	21.006	1208.403	948.346
208.548	20.984	1207.346	947.314
209.563	21.083	1206.468	947.081
210.577	20.947	1205.845	945.768
211.592	21.006	1204.859	945.228
212.607	21.078	1204.103	944.943
213.621	21.141	1203.308	944.579
214.636	21.161	1202.684	944.113
215.650	21.094	1202.109	943.215
216.665	21.076	1201.156	942.285
217.680	21.069	1199.869	941.156
218.694	21.210	1199.005	941.155
219.709	21.199	1198.480	940.599
220.723	21.116	1198.028	939.712
221.738	21.126	1196.876	938.781
222.753	21.041	1196.454	937.910
223.767	21.190	1195.847	938.152
224.782	21.155	1195.161	937.343
225.796	21.135	1194.862	936.918
226.811	21.215	1194.302	936.824
227.826	21.188	1193.722	936.143
228.840	21.240	1192.739	935.568
229.855	21.203	1192.491	935.092
230.869	21.200	1191.913	934.539
231.884	21.240	1190.946	933.911
232.899	21.243	1189.766	932.922
233.913	21.255	1189.456	932.658
234.928	21.259	1189.192	932.390
235.942	21.258	1188.281	931.589
236.957	21.261	1187.674	931.047
237.972	21.199	1187.186	930.253
238.986	21.128	1186.548	929.289
240.001	21.266	1186.251	929.712
241.015	21.407	1185.078	929.461
242.030	21.400	1184.162	928.621
243.045	21.386	1183.434	927.895
244.059	21.402	1182.485	927.153
245.074	21.338	1182.117	926.444
246.088	21.323	1181.368	925.695
247.103	21.442	1180.157	925.293
248.117	21.386	1179.505	924.403
249.132	21.352	1178.751	923.553
250.147	21.352	1178.288	923.109
251.161	21.443	1177.528	922.913
252.176	21.449	1176.557	922.099
253.190	21.459	1176.152	921.752
254.205	21.329	1175.807	920.715
255.220	21.400	1174.554	920.026
256.234	21.476	1174.318	920.159
257.249	21.398	1173.957	919.386
258.263	21.533	1172.957	919.233
259.278	21.453	1172.568	918.427
260.293	21.520	1172.285	918.472
261.307	21.554	1171.341	917.830
262.322	21.417	1171.295	916.997
263.336	21.471	1170.453	916.538
264.351	21.419	1170.173	915.964
265.366	21.514	1168.954	915.427
266.380	21.478	1168.541	914.834
267.395	21.631	1167.694	914.889
268.409	21.513	1167.211	913.812
269.424	21.580	1166.655	913.647
270.439	21.532	1166.150	912.923
271.453	21.591	1165.250	912.444
272.468	21.501	1164.812	911.551
273.482	21.485	1164.022	910.767
274.497	21.520	1163.927	910.795
275.512	21.609	1163.116	910.544
276.526	21.563	1162.470	909.719
277.541	21.679	1161.349	909.364
278.555	21.647	1160.868	908.740
279.570	21.508	1160.563	907.700
280.585	21.606	1159.260	907.105
281.599	21.574	1158.554	906.308
282.614	21.513	1157.953	905.444
283.628	21.661	1156.694	905.145
284.643	21.647	1156.158	904.571
285.657	21.622	1155.449	903.810
286.672	21.601	1154.698	903.031
287.687	21.721	1153.513	902.646
288.701	21.800	1152.567	902.228
289.716	21.781	1152.083	901.673
290.730	21.703	1151.590	900.806
291.745	21.683	1151.167	900.294
292.760	21.772	1150.224	899.931
293.774	21.789	1149.787	899.601
294.789	21.793	1149.630	899.416
295.803	21.730	1148.926	898.461
296.818	21.880	1147.611	898.125
297.833	21.816	1146.969	897.216
298.847	21.875	1146.397	896.991
299.862	21.762	1145.774	895.846
300.876	21.727	1145.474	895.353
301.891	21.842	1144.781	895.319
302.906	21.900	1143.849	894.804
303.920	21.963	1143.018	894.398
304.935	21.915	1142.586	893.739
305.949	21.959	1141.980	893.406
306.964	21.931	1141.376	892.715
307.979	21.957	1140.462	892.051
308.993	21.863	1140.175	891.269
310.008	21.858	1139.493	890.632
311.022	21.966	1138.549	890.365
312.037	21.928	1137.669	889.407
313.052	22.008	1137.141	889.318
314.066	21.969	1136.240	888.339
315.081	21.957	1135.159	887.356
316.095	21.952	1135.109	887.212
317.110	21.900	1134.318	886.252
318.125	21.930	1133.762	885.891
319.139	21.938	1133.476	885.629
320.154	22.082	1132.611	885.598
321.168	21.981	1132.078	884.596
322.183	21.986	1131.131	883.802
323.197	22.007	1130.748	883.532
324.212	22.036	1129.992	883.008
325.227	22.113	1129.399	882.852
326.241	22.149	1128.696	882.407
327.256	21.998	1128.606	881.498
328.270	22.087	1127.559	881.051
329.285	22.073	1126.694	880.229
330.300	21.988	1125.927	879.123
331.314	22.086	1124.856	878.700
332.329	22.177	1123.916	878.342
333.343	22.199	1123.366	877.948
334.358	22.211	1122.477	877.232
335.373	22.140	1122.345	876.698
336.387	22.141	1121.268	875.783
337.402	22.231	1120.344	875.431
338.416	22.213	1119.879	874.901
339.431	22.206	1119.068	874.159
340.446	22.264	1118.654	874.043
341.460	22.285	1118.132	873.664
342.475	22.298	1117.493	873.150
343.489	22.211	1116.696	872.018
344.504	22.268	1115.586	871.360
345.519	22.284	1115.226	871.078
346.533	22.403	1113.895	870.553
347.548	22.281	1113.000	869.174
348.562	22.381	1112.582	869.262
349.577	22.331	1112.072	868.539
350.592	22.294	1111.420	867.770
351.606	22.277	1110.998	867.283
352.621	22.266	1110.471	866.741
353.635	22.345	1109.671	866.425
354.650	22.428	1108.588	865.913
355.665	22.410	1108.259	865.491
356.679	22.509	1107.500	865.309
357.694	22.461	1107.039	864.633
358.708	22.381	1106.436	863.697
359.723	22.375	1105.571	862.914
360.738	22.417	1105.264	862.805
361.752	22.482	1104.645	862.564
362.767	22.418	1104.072	861.727
363.781	22.474	1103.351	861.359
364.796	22.401	1103.034	860.682
365.810	22.464	1102.424	860.435
366.825	22.586	1101.332	860.102
367.840	22.627	1101.191	860.116
368.854	22.505	1101.156	859.417
369.869	22.518	1100.260	858.704
370.883	22.552	1099.314	858.057
371.898	22.699	1098.326	857.925
372.913	22.615	1098.106	857.271
373.927	22.680	1097.573	857.092
374.942	22.647	1097.231	856.590
375.956	22.639	1096.476	855.885
376.971	22.578	1095.848	855.024
377.986	22.483	1095.705	854.376
379.000	22.606	1095.108	854.432
380.015	22.617	1094.679	854.072
381.029	22.660	1093.675	853.421
382.044	22.754	1092.626	852.985
383.059	22.685	1092.383	852.387
384.073	22.695	1091.804	851.905
385.088	22.671	1090.846	850.968
386.102	22.885	1089.569	850.928
387.117	22.758	1088.820	849.653
388.132	22.654	1088.385	848.739
389.146	22.754	1087.852	848.731
390.161	22.904	1086.775	848.534
391.175	22.875	1086.158	847.842
392.190	22.739	1085.845	846.867
393.205	22.869	1084.501	846.365
394.219	22.695	1084.356	845.348
395.234	22.912	1083.241	845.441
396.248	22.848	1082.585	844.546
397.263	22.962	1081.238	843.967
398.278	22.874	1081.197	843.438
399.292	22.932	1080.653	843.219
400.307	22.761	1080.091	841.888
401.321	23.027	1079.471	842.597
402.336	22.886	1078.751	841.292
403.350	22.893	1077.664	840.401
404.365	22.911	1077.516	840.296
405.380	23.104	1076.697	840.500
406.394	22.921	1075.995	839.009
407.409	23.128	1075.006	839.149
408.423	23.136	1074.447	838.676
409.438	23.098	1073.504	837.685
410.453	23.221	1072.556	837.452
411.467	23.124	1072.188	836.630
412.482	23.097	1071.581	835.956
413.496	23.028	1070.932	835.050
414.511	23.016	1070.454	834.549
415.526	23.051	1069.940	834.240
416.540	23.061	1069.578	833.930
417.555	23.140	1068.718	833.556
418.569	23.090	1068.513	833.086
419.584	23.096	1068.331	832.902
420.599	23.187	1067.731	832.788
421.613	148.811	1398.877	1796.057
422.628	137.036	1447.129	1796.173
