DTS Sentinel unit serial number:	SN413079Multiplexer serial number:	ORYXHardware model number:	OX4-SRSoftware version number:	ORYX F/W v4.00 Oryx Data Collector v3.7.2.0data status	okinstallation	princeton_trtdifferential loss correction	single-endedforward channel	channel 2reverse channel	N/Adate	2019/09/17time	02:31:35forward acquisition time	60.00reverse acquisition time	0.00gamma	496.2192k internal	0.2327k external	0.2327temperature offset calibration	0.9973default loss term (dB/km)	0.3790temperature slope calibration	1.0000multiplexer offset coefficient	1.0000multiplexer slope coefficient	1.0000fibre end	0.00T internal ref (°C)	29.81T ext. ref 1 (°C)	0.12T ext. ref 2 (°C)	24.77length (m)	temperature (°C)	Stokes	anti-Stokes-747.200	-63.250	-0.105	-0.044
-746.185	137.763	-0.320	0.423
-745.171	121.164	0.139	0.174
-744.156	-98.814	0.040	0.010
-743.142	-93.909	0.223	-0.062
-742.127	-18.419	-0.246	0.155
-741.112	800.000	-0.041	0.137
-740.098	518.111	-0.040	0.094
-739.083	-93.701	-0.075	0.021
-738.069	5.501	0.068	0.051
-737.054	28.868	0.309	0.264
-736.039	23.654	-0.097	-0.081
-735.025	142.987	-0.041	-0.055
-734.010	-38.620	-0.396	-0.211
-732.996	403.320	0.091	-0.194
-731.981	9.311	0.145	0.110
-730.966	691.271	-0.072	-0.190
-729.952	-36.312	-0.077	0.042
-728.937	800.000	0.076	-0.303
-727.923	177.944	-0.183	0.269
-726.908	-77.595	-0.190	-0.066
-725.894	800.000	0.038	0.166
-724.879	-128.769	0.089	-0.013
-723.864	550.184	0.141	-0.340
-722.850	-200.000	0.017	-0.207
-721.835	32.374	-0.050	0.043
-720.821	-16.870	0.230	-0.147
-719.806	-111.269	-0.250	0.052
-718.791	-200.000	0.001	-0.170
-717.777	800.000	0.011	-0.040
-716.762	9.250	-0.170	-0.129
-715.748	-200.000	0.014	-0.076
-714.733	-200.000	0.017	-0.329
-713.718	-13.981	0.111	0.072
-712.704	10.200	-0.302	-0.231
-711.689	-200.000	-0.035	0.335
-710.675	-71.326	0.072	-0.027
-709.660	736.867	0.039	0.105
-708.645	800.000	0.052	-0.149
-707.631	-82.109	0.335	-0.110
-706.616	800.000	0.094	0.305
-705.602	-56.059	0.146	-0.065
-704.587	133.810	0.110	0.144
-703.572	-97.612	0.092	-0.024
-702.558	-101.414	0.346	0.085
-701.543	-200.000	-0.038	-0.289
-700.529	-200.000	0.016	0.266
-699.514	-150.949	0.187	0.014
-698.499	103.688	0.219	-0.259
-697.485	-28.785	0.311	0.180
-696.470	-159.932	0.272	-0.015
-695.456	-200.000	0.014	-0.122
-694.441	800.000	-0.118	-0.334
-693.426	-101.633	0.159	-0.039
-692.412	-200.000	-0.055	-0.252
-691.397	-30.090	-0.314	-0.180
-690.383	800.000	0.019	0.059
-689.368	2.303	-0.042	-0.030
-688.354	-50.964	-0.208	0.098
-687.339	77.046	-0.089	-0.095
-686.324	43.634	-0.131	0.121
-685.310	-36.874	0.179	0.096
-684.295	-156.015	0.091	0.006
-683.281	108.193	-0.175	-0.210
-682.266	311.438	-0.139	0.262
-681.251	-103.350	-0.289	0.068
-680.237	56.989	-0.049	0.048
-679.222	146.866	0.147	0.199
-678.208	-70.018	0.349	0.134
-677.193	-200.000	-0.070	0.491
-676.178	-91.127	-0.144	-0.042
-675.164	353.659	0.012	-0.025
-674.149	-20.334	0.195	0.121
-673.135	160.885	0.157	0.220
-672.120	63.350	-0.171	-0.172
-671.105	-131.144	0.173	0.023
-670.091	-111.883	0.104	0.021
-669.076	-22.687	0.217	-0.132
-668.062	-23.299	-0.023	0.014
-667.047	-200.000	-0.033	-0.291
-666.032	-138.553	0.046	0.005
-665.018	196.297	0.103	0.157
-664.003	117.280	0.129	-0.159
-662.989	22.835	0.140	-0.115
-661.974	-200.000	0.003	-0.017
-660.959	106.803	-0.222	-0.264
-659.945	66.305	0.147	-0.150
-658.930	367.479	-0.037	0.075
-657.916	-83.192	-0.157	-0.051
-656.901	-9.895	-0.263	-0.175
-655.886	800.000	-0.052	-0.197
-654.872	-28.093	-0.206	0.120
-653.857	1.411	0.219	0.158
-652.843	-71.438	-0.245	-0.092
-651.828	-200.000	0.004	-0.044
-650.814	238.307	0.225	-0.375
-649.799	-110.449	0.050	-0.011
-648.784	-27.958	0.108	-0.063
-647.770	10.835	-0.142	0.109
-646.755	180.844	-0.084	0.124
-645.741	800.000	0.037	-0.124
-644.726	123.894	-0.114	0.144
-643.711	-200.000	0.059	0.417
-642.697	-28.032	0.050	-0.029
-641.682	-200.000	-0.037	0.191
-640.668	800.000	0.094	-0.319
-639.653	124.120	0.092	0.116
-638.638	800.000	0.072	-0.254
-637.624	181.047	-0.282	-0.416
-636.609	-123.165	-0.108	-0.017
-635.595	-146.814	-0.207	0.018
-634.580	-200.000	0.059	0.293
-633.565	58.708	0.229	-0.226
-632.551	116.956	-0.042	-0.052
-631.536	14.482	0.163	0.127
-630.522	319.685	0.080	0.153
-629.507	82.896	0.108	-0.118
-628.492	77.425	-0.204	-0.217
-627.478	-14.048	-0.161	-0.104
-626.463	-200.000	0.020	0.339
-625.449	171.644	0.142	-0.205
-624.434	-158.121	-0.076	-0.004
-623.419	111.950	0.089	-0.108
-622.405	-19.910	0.236	-0.146
-621.390	-34.442	0.305	-0.168
-620.376	-91.919	-0.173	0.049
-619.361	-23.703	-0.207	0.125
-618.346	800.000	0.028	0.083
-617.332	-187.482	-0.154	-0.002
-616.317	-110.554	0.197	-0.041
-615.303	208.811	-0.165	-0.259
-614.288	-33.916	-0.210	0.116
-613.273	60.948	-0.141	0.140
-612.259	-87.794	-0.178	0.054
-611.244	-50.582	-0.187	-0.088
-610.230	-96.366	0.297	-0.079
-609.215	181.940	-0.134	0.197
-608.201	-151.384	0.245	-0.018
-607.186	800.000	0.074	0.272
-606.171	264.376	0.107	0.186
-605.157	239.654	-0.179	-0.299
-604.142	-200.000	0.037	0.280
-603.128	79.362	-0.177	-0.190
-602.113	-200.000	-0.010	0.064
-601.098	-165.884	-0.258	-0.011
-600.084	800.000	-0.075	-0.303
-599.069	374.570	0.079	-0.160
-598.055	-65.767	-0.132	0.053
-597.040	800.000	-0.080	-0.243
-596.025	-106.998	0.134	-0.030
-595.011	-28.557	0.127	0.073
-593.996	102.330	0.027	-0.032
-592.982	-6.113	0.419	-0.287
-591.967	331.735	-0.058	-0.112
-590.952	479.913	0.081	0.185
-589.938	800.000	-0.055	0.197
-588.923	-80.648	0.253	0.084
-587.909	-24.271	-0.213	0.127
-586.894	70.219	-0.257	-0.266
-585.879	80.503	-0.237	0.255
-584.865	133.568	0.143	0.185
-583.850	-200.000	0.020	-0.169
-582.836	153.637	0.170	0.233
-581.821	-54.232	-0.251	-0.114
-580.806	40.442	-0.175	0.158
-579.792	-200.000	-0.010	-0.052
-578.777	800.000	0.069	0.226
-577.763	-136.951	-0.295	-0.034
-576.748	81.685	0.121	0.131
-575.733	103.548	0.107	0.126
-574.719	125.085	0.121	0.152
-573.704	-34.212	-0.284	0.156
-572.690	-200.000	-0.018	0.157
-571.675	31.690	0.134	-0.116
-570.661	800.000	0.007	-0.028
-569.646	-200.000	-0.014	0.091
-568.631	-139.192	0.059	0.006
-567.617	-200.000	-0.018	-0.136
-566.602	-11.856	0.110	-0.072
-565.588	-200.000	-0.018	0.200
-564.573	-107.397	0.290	-0.064
-563.558	79.611	0.129	0.139
-562.544	605.331	0.069	-0.172
-561.529	-200.000	0.057	-0.405
-560.515	-160.810	-0.182	0.010
-559.500	-200.000	0.009	0.108
-558.485	483.590	0.055	-0.125
-557.471	-50.248	-0.138	-0.065
-556.456	245.739	0.130	0.219
-555.442	23.878	0.171	0.141
-554.427	-150.747	0.300	-0.023
-553.412	173.213	0.192	-0.277
-552.398	88.276	-0.224	0.249
-551.383	-90.156	-0.155	0.045
-550.369	-200.000	-0.008	-0.043
-549.354	-8.024	-0.241	-0.163
-548.339	143.736	-0.118	0.157
-547.325	-200.000	0.003	0.149
-546.310	41.104	-0.261	0.236
-545.296	229.258	-0.052	-0.085
-544.281	-142.023	-0.237	0.024
-543.266	-23.506	0.183	-0.110
-542.252	-82.733	-0.342	0.111
-541.237	-118.335	-0.324	0.058
-540.223	-102.165	0.129	-0.031
-539.208	17.438	0.101	0.080
-538.193	-25.967	-0.466	-0.274
-537.179	-68.532	0.269	-0.104
-536.164	95.611	-0.159	-0.182
-535.150	-35.014	-0.290	0.158
-534.135	198.504	-0.151	-0.231
-533.121	61.816	-0.164	0.163
-532.106	-200.000	0.003	-0.164
-531.091	309.892	0.088	0.165
-530.077	-131.077	-0.210	0.028
-529.062	-100.088	-0.172	0.043
-528.048	46.466	-0.234	-0.217
-527.033	36.454	0.117	-0.104
-526.018	-200.000	-0.026	-0.238
-525.004	-42.519	-0.136	0.069
-523.989	800.000	0.026	0.077
-522.975	-79.760	0.050	0.017
-521.960	148.152	-0.067	0.091
-520.945	-30.283	-0.269	-0.153
-519.931	167.803	0.188	-0.266
-518.916	-120.559	-0.399	0.068
-517.902	335.663	-0.084	-0.163
-516.887	-84.480	0.133	0.042
-515.872	-143.915	-0.063	-0.006
-514.858	-200.000	0.035	-0.265
-513.843	-4.584	0.208	0.144
-512.829	-200.000	0.003	0.150
-511.814	272.647	0.147	-0.260
-510.799	144.404	-0.131	0.174
-509.785	521.008	-0.030	0.071
-508.770	-91.136	0.313	0.090
-507.756	800.000	0.048	-0.190
-506.741	-51.837	-0.188	0.087
-505.726	-200.000	-0.001	0.198
-504.712	1.317	-0.224	0.160
-503.697	-11.914	0.204	0.134
-502.683	-74.422	-0.388	-0.140
-501.668	-3.865	0.146	-0.101
-500.653	138.916	0.227	0.298
-499.639	102.273	0.229	0.267
-498.624	-115.692	0.149	-0.028
-497.610	-17.077	-0.167	-0.105
-496.595	234.892	-0.046	0.075
-495.581	-200.000	-0.017	-0.227
-494.566	-200.000	-0.062	-0.332
-493.551	-200.000	0.002	0.036
-492.537	-200.000	-0.048	0.252
-491.522	800.000	-0.124	0.459
-490.508	-126.933	0.252	0.037
-489.493	103.472	-0.098	0.115
-488.478	796.804	0.083	-0.229
-487.464	380.735	0.053	-0.109
-486.449	58.097	0.103	-0.101
-485.435	-125.922	0.258	0.039
-484.420	311.591	0.158	0.296
-483.405	322.790	0.050	-0.094
-482.391	10.817	-0.232	-0.177
-481.376	-200.000	-0.002	0.367
-480.362	27.386	0.283	0.238
-479.347	-200.000	0.005	0.249
-478.332	800.000	-0.161	-0.529
-477.318	116.979	0.104	0.127
-476.303	-57.197	-0.249	0.109
-475.289	-144.208	0.298	0.028
-474.274	-200.000	-0.032	0.261
-473.259	-52.191	0.112	-0.052
-472.245	-152.381	0.131	-0.009
-471.230	376.215	0.042	0.086
-470.216	-190.959	0.493	0.005
-469.201	-133.860	-0.205	0.025
-468.186	-111.222	0.190	0.039
-467.172	-135.215	-0.138	0.016
-466.157	-68.410	0.086	-0.033
-465.143	14.338	-0.216	0.168
-464.128	-115.241	0.116	0.022
-463.113	391.786	-0.058	0.120
-462.099	-17.717	0.131	0.082
-461.084	-0.462	-0.135	0.096
-460.070	-200.000	-0.010	-0.130
-459.055	-100.716	-0.355	0.087
-458.040	64.646	0.407	0.410
-457.026	0.414	-0.184	-0.131
-456.011	-65.469	-0.297	0.119
-454.997	-1.699	-0.208	-0.146
-453.982	-58.675	-0.216	-0.093
-452.968	-80.634	-0.084	-0.028
-451.953	31.796	0.160	0.137
-450.938	-94.609	0.031	-0.008
-449.924	-104.193	0.093	0.021
-448.909	18.992	0.374	-0.299
-447.895	41.232	-0.073	0.065
-446.880	-129.577	-0.273	-0.038
-445.865	22.969	0.112	-0.092
-444.851	-58.761	0.332	-0.143
-443.836	-140.855	-0.378	-0.039
-442.822	-200.000	-0.017	-0.269
-441.807	10.970	-0.127	-0.097
-440.792	-10.279	-0.177	-0.117
-439.778	-135.923	0.203	-0.024
-438.763	38.391	-0.120	-0.106
-437.749	-126.306	0.220	0.033
-436.734	60.270	0.086	-0.085
-435.719	-150.337	0.067	0.005
-434.705	316.510	-0.085	0.160
-433.690	68.150	-0.297	0.303
-432.676	134.042	0.090	-0.116
-431.661	92.165	-0.091	0.102
-430.646	7.269	-0.229	0.171
-429.632	-200.000	-0.007	-0.422
-428.617	800.000	0.099	-0.319
-427.603	-105.649	0.147	0.033
-426.588	-1.000	-0.115	0.081
-425.573	351.267	-0.102	-0.201
-424.559	164.479	0.146	-0.205
-423.544	244.496	0.138	-0.231
-422.530	65.828	-0.071	-0.072
-421.515	-88.635	-0.035	0.010
-420.500	-55.602	-0.185	-0.083
-419.486	-156.462	0.229	0.014
-418.471	182.320	0.159	-0.234
-417.457	-100.700	0.115	0.028
-416.442	350.924	-0.082	0.162
-415.428	-40.619	-0.312	0.161
-414.413	-25.119	0.251	0.148
-413.398	-43.422	-0.185	0.093
-412.384	-200.000	0.096	0.418
-411.369	109.464	0.106	0.126
-410.355	160.842	0.146	-0.202
-409.340	-200.000	0.004	-0.381
-408.325	800.000	0.007	0.024
-407.311	-200.000	-0.016	0.082
-406.296	800.000	0.149	0.558
-405.282	-9.817	0.064	-0.043
-404.267	-200.000	-0.017	-0.207
-403.252	-142.990	0.091	-0.009
-402.238	278.411	-0.085	0.151
-401.223	-72.064	-0.132	0.049
-400.209	100.428	0.188	0.217
-399.194	157.435	-0.274	0.378
-398.179	-130.881	0.108	0.014
-397.165	-23.191	0.084	0.050
-396.150	88.575	-0.143	-0.158
-395.136	229.327	0.143	0.232
-394.121	-41.391	-0.205	0.105
-393.106	-36.856	-0.076	0.040
-392.092	-200.000	-0.046	-0.225
-391.077	-121.609	-0.276	-0.046
-390.063	242.201	0.124	-0.207
-389.048	-168.873	0.394	-0.015
-388.033	21.861	0.142	-0.115
-387.019	140.439	0.137	-0.180
-386.004	610.827	0.104	-0.258
-384.990	-16.397	-0.518	-0.327
-383.975	800.000	-0.079	0.247
-382.960	324.451	0.076	-0.145
-381.946	7.449	0.267	0.198
-380.931	-59.835	0.201	0.086
-379.917	47.235	-0.260	-0.240
-378.902	347.371	-0.112	-0.218
-377.888	-180.004	0.400	0.008
-376.873	-200.000	0.006	0.186
-375.858	328.538	0.060	-0.114
-374.844	487.531	0.071	-0.160
-373.829	-12.854	-0.091	0.059
-372.815	341.021	0.134	-0.259
-371.800	168.459	-0.240	0.340
-370.785	174.578	-0.225	-0.324
-369.771	800.000	0.107	-0.320
-368.756	-64.543	0.391	0.158
-367.742	-74.173	-0.163	0.059
-366.727	8.734	0.098	0.073
-365.712	-33.052	0.162	-0.089
-364.698	-184.186	-0.228	-0.004
-363.683	-200.000	-0.005	0.167
-362.669	55.858	0.077	0.074
-361.654	-101.027	-0.181	0.044
-360.639	65.661	-0.111	0.112
-359.625	512.100	-0.091	-0.210
-358.610	-36.080	-0.202	-0.108
-357.596	800.000	0.053	-0.183
-356.581	800.000	-0.010	-0.030
-355.566	800.000	-0.022	-0.080
-354.552	164.493	-0.153	0.214
-353.537	-72.969	0.421	0.154
-352.523	63.088	0.336	-0.334
-351.508	17.017	-0.088	-0.069
-350.493	-48.775	0.064	-0.030
-349.479	170.640	-0.283	-0.402
-348.464	-171.819	-0.044	0.001
-347.450	-73.952	0.338	0.122
-346.435	-168.579	0.276	-0.010
-345.420	800.000	-0.042	-0.163
-344.406	-189.592	-0.345	0.004
-343.391	-4.921	0.159	-0.109
-342.377	800.000	0.036	0.152
-341.362	377.055	0.072	0.146
-340.348	-88.235	0.324	0.096
-339.333	66.911	0.106	-0.107
-338.318	58.633	-0.107	0.105
-337.304	-200.000	0.079	-0.486
-336.289	800.000	0.112	-0.458
-335.275	-200.000	-0.022	0.226
-334.260	-39.699	0.215	-0.112
-333.245	97.111	-0.140	-0.159
-332.231	-200.000	-0.003	0.035
-331.216	-127.183	0.245	-0.036
-330.202	169.611	-0.182	0.258
-329.187	800.000	0.073	0.255
-328.172	135.724	0.246	0.318
-327.158	-200.000	0.004	-0.220
-326.143	-72.886	0.310	-0.113
-325.129	-130.814	-0.159	-0.021
-324.114	-112.481	0.381	-0.076
-323.099	-200.000	0.032	0.217
-322.085	-200.000	0.036	-0.292
-321.070	-24.028	0.097	-0.058
-320.056	-10.895	0.184	0.121
-319.041	184.076	0.090	-0.132
-318.026	-45.004	-0.237	-0.117
-317.012	-107.629	-0.189	0.041
-315.997	110.046	-0.025	-0.030
-314.983	-200.000	0.097	-0.574
-313.968	186.907	-0.097	-0.144
-312.953	-113.426	-0.214	-0.042
-311.939	-124.362	-0.065	-0.010
-310.924	800.000	0.031	-0.109
-309.910	800.000	-0.098	-0.410
-308.895	-141.056	0.194	-0.020
-307.880	800.000	0.077	-0.215
-306.866	800.000	0.054	-0.176
-305.851	-68.571	0.146	-0.056
-304.837	-200.000	-0.015	0.219
-303.822	-114.925	0.244	-0.046
-302.807	-38.891	-0.159	-0.083
-301.793	-57.776	-0.151	-0.066
-300.778	102.644	0.029	0.034
-299.764	769.004	-0.073	0.198
-298.749	265.283	0.108	0.186
-297.735	13.060	-0.243	-0.187
-296.720	-142.310	-0.218	-0.021
-295.705	170.019	0.143	0.203
-294.691	-200.000	0.059	0.441
-293.676	211.428	0.140	0.218
-292.662	-200.000	0.009	0.275
-291.647	257.510	0.126	0.214
-290.632	-97.997	0.240	-0.061
-289.618	87.630	-0.120	-0.131
-288.603	362.440	-0.124	-0.246
-287.589	-131.247	-0.110	0.014
-286.574	-108.177	-0.172	-0.037
-285.559	-16.036	-0.298	0.188
-284.545	38.679	0.288	0.255
-283.530	21.309	0.096	-0.077
-282.516	77.725	-0.142	0.150
-281.501	-75.175	0.199	0.070
-280.486	32.202	0.141	-0.120
-279.472	-47.384	-0.266	0.128
-278.457	-200.000	0.001	-0.094
-277.443	-200.000	0.001	0.318
-276.428	748.614	0.084	0.225
-275.413	-66.851	-0.054	-0.021
-274.399	36.084	0.365	0.318
-273.384	-200.000	0.005	-0.034
-272.370	-153.558	-0.243	-0.017
-271.355	-84.502	-0.159	-0.050
-270.340	35.421	0.061	0.053
-269.326	-72.731	-0.163	0.059
-268.311	-88.779	0.373	0.110
-267.297	-8.625	0.416	0.276
-266.282	800.000	0.091	-0.267
-265.267	301.073	-0.114	-0.208
-264.253	72.622	-0.020	-0.021
-263.238	-32.712	0.183	0.101
-262.224	-97.092	-0.243	0.063
-261.209	135.352	-0.220	-0.282
-260.195	42.848	0.112	0.101
-259.180	0.852	-0.087	0.061
-258.165	-200.000	-0.002	-0.198
-257.151	800.000	-0.093	-0.348
-256.136	-156.825	0.168	0.010
-255.122	-5.162	0.099	0.068
-254.107	-19.989	-0.153	0.093
-253.092	-28.346	-0.237	-0.135
-252.078	-41.044	-0.247	-0.126
-251.063	53.517	-0.210	-0.200
-250.049	184.112	-0.049	-0.071
-249.034	54.593	-0.085	-0.081
-248.019	271.456	-0.176	-0.307
-247.005	104.830	0.242	0.283
-245.990	112.732	0.180	-0.215
-244.976	-33.359	0.173	0.095
-243.961	-33.615	-0.220	0.120
-242.946	-200.000	0.026	-0.114
-241.932	57.272	-0.225	0.218
-240.917	24.921	-0.374	-0.307
-239.903	26.586	-0.312	-0.258
-238.888	-26.170	0.147	-0.085
-237.873	800.000	-0.001	-0.003
-236.859	-31.069	0.141	-0.079
-235.844	-160.743	0.096	0.005
-234.830	-44.418	-0.404	0.200
-233.815	12.349	0.109	0.083
-232.800	800.000	-0.030	0.117
-231.786	-54.080	-0.253	0.114
-230.771	-20.998	-0.135	-0.082
-229.757	27.424	0.009	0.008
-228.742	-51.199	0.197	0.091
-227.727	-96.252	0.254	0.067
-226.713	-140.851	-0.291	-0.030
-225.698	194.982	0.105	-0.157
-224.684	-113.780	0.327	-0.063
-223.669	-91.874	-0.231	0.065
-222.655	-200.000	0.043	0.433
-221.640	158.570	-0.117	-0.160
-220.625	-200.000	0.004	0.208
-219.611	-182.769	-0.308	0.005
-218.596	-200.000	0.027	0.164
-217.582	-80.351	-0.432	0.143
-216.567	13.463	0.174	-0.133
-215.552	164.763	-0.170	0.237
-214.538	-24.665	0.244	0.143
-213.523	800.000	0.127	0.373
-212.509	100.449	-0.218	-0.250
-211.494	-200.000	0.042	-0.330
-210.479	17.838	0.133	0.104
-209.465	240.923	0.232	0.383
-208.450	158.908	-0.165	-0.226
-207.436	437.389	0.185	-0.398
-206.421	-120.326	0.287	-0.048
-205.406	321.005	-0.187	0.351
-204.392	183.876	-0.093	-0.136
-203.377	-114.669	0.028	-0.005
-202.363	800.000	0.058	0.224
-201.348	800.000	-0.008	-0.021
-200.333	-200.000	-0.026	0.294
-199.319	-33.969	0.321	0.174
-198.304	272.691	0.234	-0.408
-197.290	-200.000	0.073	-0.341
-196.275	800.000	-0.032	-0.120
-195.260	-64.954	0.017	0.007
-194.246	36.540	0.136	-0.119
-193.231	259.588	0.136	-0.231
-192.217	-27.927	-0.047	0.027
-191.202	-170.496	0.134	-0.005
-190.187	800.000	0.047	0.168
-189.173	754.276	0.191	0.508
-188.158	311.127	-0.059	-0.109
-187.144	-69.494	-0.037	-0.014
-186.129	800.000	-0.077	0.287
-185.114	-189.638	-0.431	-0.005
-184.100	140.652	0.136	-0.178
-183.085	-37.755	0.227	-0.119
-182.071	-51.088	-0.136	-0.063
-181.056	75.332	0.219	0.228
-180.042	-98.620	0.188	-0.047
-179.027	-13.783	-0.125	0.080
-178.012	800.000	-0.064	0.258
-176.998	-200.000	0.030	0.144
-175.983	-77.973	-0.314	0.107
-174.969	46.425	-0.105	0.096
-173.954	139.844	-0.098	-0.128
-172.939	74.498	0.108	0.112
-171.925	240.153	0.109	-0.178
-170.910	63.873	-0.155	-0.154
-169.896	135.262	0.150	-0.193
-168.881	-142.475	-0.467	0.045
-167.866	656.949	-0.059	-0.151
-166.852	800.000	-0.065	0.239
-165.837	-135.486	-0.080	0.009
-164.823	-130.854	0.090	-0.012
-163.808	508.922	0.082	-0.188
-162.793	-76.098	0.341	0.119
-161.779	696.715	0.063	-0.163
-160.764	351.864	0.021	-0.042
-159.750	45.519	0.127	0.115
-158.735	18.211	0.254	0.200
-157.720	-184.759	-0.172	-0.003
-156.706	3.073	0.188	-0.134
-155.691	223.240	-0.107	-0.170
-154.677	-200.000	-0.035	0.215
-153.662	81.739	-0.267	0.285
-152.647	-200.000	-0.037	0.188
-151.633	-70.007	0.389	0.146
-150.618	-200.000	0.032	-0.288
-149.604	90.038	0.227	-0.250
-148.589	-133.068	-0.192	-0.024
-147.574	-140.039	0.285	-0.030
-146.560	2.418	0.078	-0.056
-145.545	324.113	-0.176	0.332
-144.531	82.311	-0.107	-0.114
-143.516	800.000	-0.145	0.441
-142.502	-185.141	-0.299	-0.005
-141.487	88.586	0.341	0.373
-140.472	-54.836	-0.305	-0.136
-139.458	25.504	0.095	0.078
-138.443	124.395	0.145	0.179
-137.429	-92.727	-0.254	-0.070
-136.414	800.000	-0.036	0.137
-135.399	-159.759	-0.155	0.008
-134.385	94.563	0.063	-0.071
-133.370	-142.922	0.496	0.047
-132.356	40.714	-0.121	0.107
-131.341	73.397	-0.076	0.079
-130.326	35.030	0.061	0.052
-129.312	-113.574	0.197	0.038
-128.297	-75.274	-0.294	0.103
-127.283	46.520	-0.327	0.299
-126.268	75.103	0.166	0.172
-125.253	-76.473	-0.248	0.086
-124.239	-15.074	-0.055	-0.035
-123.224	-200.000	-0.005	0.145
-122.210	-142.462	-0.365	0.035
-121.195	188.588	0.132	0.194
-120.180	-116.879	-0.014	0.003
-119.166	196.985	-0.228	0.342
-118.151	13.585	-0.138	-0.105
-117.137	-8.950	0.329	0.217
-116.122	571.983	0.061	0.147
-115.107	410.420	-0.009	0.019
-114.093	-101.994	0.051	0.012
-113.078	-132.158	0.181	0.023
-112.064	-112.624	0.245	0.048
-111.049	800.000	-0.069	-0.235
-110.034	452.071	0.080	0.175
-109.020	59.168	-0.123	0.119
-108.005	-200.000	-0.008	0.072
-106.991	90.228	0.122	0.134
-105.976	41.218	0.179	-0.159
-104.962	49.932	0.228	-0.211
-103.947	800.000	-0.109	-0.319
-102.932	143.768	0.065	0.085
-101.918	-30.049	-0.054	-0.030
-100.903	-73.246	-0.407	0.146
-99.889	100.477	0.315	-0.360
-98.874	-168.299	0.210	0.008
-97.859	125.384	0.168	0.209
-96.845	362.307	-0.044	-0.086
-95.830	-70.787	0.184	0.068
-94.816	73.885	-0.253	0.261
-93.801	-116.217	0.140	0.026
-92.786	-200.000	0.048	0.247
-91.772	53.600	0.223	0.210
-90.757	321.119	0.021	0.040
-89.743	800.000	-0.044	0.134
-88.728	-3.215	-0.148	0.101
-87.713	709.809	-0.041	-0.105
-86.699	744.586	-0.160	0.423
-85.684	583.349	0.069	0.167
-84.670	-88.399	0.419	-0.123
-83.655	800.000	0.045	-0.138
-82.640	-4.401	-0.234	0.159
-81.626	29.352	0.328	-0.274
-80.611	-46.572	0.175	-0.084
-79.597	323.044	0.123	-0.231
-78.582	24.625	0.172	0.140
-77.567	16.944	-0.183	0.143
-76.553	-63.688	-0.343	-0.138
-75.538	138.125	0.140	0.181
-74.524	40.366	-0.208	-0.184
-73.509	-200.000	-0.019	0.095
-72.494	86.694	0.258	-0.280
-71.480	-200.000	-0.013	0.104
-70.465	-49.060	0.190	-0.089
-69.451	800.000	0.011	0.039
-68.436	285.159	0.194	0.344
-67.422	-107.001	-0.136	-0.030
-66.407	-121.194	0.220	0.036
-65.392	-200.000	0.000	0.122
-64.378	-200.000	-0.017	0.087
-63.363	221.342	-0.202	0.318
-62.349	-91.379	0.286	0.080
-61.334	44.638	-0.998	-0.901
-60.319	7.709	0.649	0.477
-59.305	-200.000	-0.104	-0.671
-58.290	699.289	0.463	1.195
-57.276	201.777	1.024	1.548
-56.261	-200.000	106.700	579.805
-55.246	454.332	1463.285	3181.022
-54.232	148.237	2654.832	3516.196
-53.217	100.253	2289.257	2606.117
-52.203	38.830	1902.726	1667.367
-51.188	33.094	1691.198	1438.443
-50.173	30.428	1647.768	1381.652
-49.159	49.046	1700.570	1567.112
-48.144	49.616	1715.564	1585.167
-47.130	32.603	1674.310	1420.151
-46.115	29.909	1660.004	1387.794
-45.100	29.668	1655.335	1382.037
-44.086	29.790	1652.145	1380.229
-43.071	29.735	1649.412	1377.480
-42.057	29.654	1647.171	1374.955
-41.042	29.702	1644.862	1373.329
-40.027	29.742	1643.122	1372.115
-39.013	29.601	1641.548	1369.704
-37.998	29.751	1639.522	1369.070
-36.984	29.711	1638.512	1367.874
-35.969	29.889	1636.801	1367.705
-34.954	29.830	1635.298	1365.961
-33.940	29.785	1633.672	1364.217
-32.925	29.910	1631.899	1363.602
-31.911	29.828	1630.336	1361.641
-30.896	29.902	1628.400	1360.510
-29.881	29.853	1626.753	1358.722
-28.867	29.795	1624.720	1356.543
-27.852	29.790	1623.567	1355.490
-26.838	29.775	1622.401	1354.352
-25.823	29.782	1621.182	1353.334
-24.809	29.864	1619.336	1352.341
-23.794	29.786	1618.664	1351.155
-22.779	29.914	1616.398	1350.145
-21.765	29.815	1614.435	1347.732
-20.750	29.754	1613.249	1346.243
-19.736	29.809	1612.304	1345.801
-18.721	29.834	1610.988	1344.833
-17.706	29.846	1608.683	1342.943
-16.692	29.936	1607.492	1342.546
-15.677	29.841	1606.358	1340.858
-14.663	29.885	1604.546	1339.606
-13.648	29.863	1603.688	1338.679
-12.633	29.812	1602.375	1337.163
-11.619	29.891	1600.584	1336.187
-10.604	29.812	1598.534	1333.854
-9.590	29.776	1598.037	1333.124
-8.575	29.808	1596.790	1332.263
-7.560	29.786	1595.995	1331.386
-6.546	29.831	1594.901	1330.743
-5.531	29.789	1593.329	1329.076
-4.517	29.851	1592.106	1328.454
-3.502	29.981	1590.163	1327.709
-2.487	29.883	1589.387	1326.303
-1.473	29.587	1577.735	1314.426
-0.458	26.982	1558.694	1280.169
0.556	21.864	1560.371	1250.546
1.571	19.730	1584.581	1254.366
2.586	19.377	1598.147	1262.409
3.600	17.805	1545.616	1209.673
4.615	9.947	1434.989	1071.066
5.629	1.921	1370.368	971.753
6.644	0.293	1361.742	955.234
7.659	0.080	1361.019	953.289
8.673	0.071	1359.598	952.154
9.688	0.057	1357.434	950.468
10.702	-0.079	1354.409	947.408
11.717	3.715	1360.744	975.751
12.731	12.323	1374.621	1040.346
13.746	17.489	1381.428	1078.214
14.761	17.347	1379.266	1075.533
15.775	16.293	1376.931	1066.956
16.790	15.165	1374.127	1057.571
17.804	14.425	1371.732	1050.970
18.819	14.079	1370.905	1048.062
19.834	13.843	1368.592	1044.721
20.848	13.488	1368.232	1042.114
21.863	13.319	1366.696	1039.790
22.877	13.199	1365.332	1037.905
23.892	13.221	1364.484	1037.313
24.907	13.069	1363.788	1035.733
25.921	13.136	1362.616	1035.173
26.936	13.283	1361.417	1035.092
27.950	13.276	1360.781	1034.470
28.965	13.222	1360.409	1033.760
29.980	13.300	1359.211	1033.249
30.994	13.448	1358.018	1033.173
32.009	13.481	1357.162	1032.634
33.023	13.418	1356.058	1031.309
34.038	13.318	1355.075	1029.850
35.053	13.259	1354.395	1028.873
36.067	13.243	1353.028	1027.646
37.082	13.286	1351.898	1026.966
38.096	13.379	1350.502	1026.391
39.111	13.330	1350.034	1025.641
40.126	13.291	1349.548	1024.935
41.140	13.174	1348.536	1023.353
42.155	13.158	1348.526	1023.153
43.169	13.086	1347.906	1022.148
44.184	13.095	1347.502	1021.807
45.199	13.124	1347.067	1021.564
46.213	13.162	1346.397	1021.201
47.228	13.270	1345.190	1020.866
48.242	13.243	1344.622	1020.178
49.257	13.264	1343.014	1018.995
50.271	13.284	1341.378	1017.785
51.286	13.254	1340.015	1016.479
52.301	13.238	1338.875	1015.426
53.315	13.267	1337.779	1014.685
54.330	13.238	1337.052	1013.864
55.344	13.209	1335.673	1012.553
56.359	13.134	1334.865	1011.390
57.374	13.073	1334.311	1010.504
58.388	13.106	1333.210	1009.785
59.403	13.090	1332.649	1009.171
60.417	13.043	1332.120	1008.396
61.432	13.004	1330.933	1007.173
62.447	13.109	1329.549	1006.676
63.461	13.003	1328.722	1005.314
64.476	12.965	1327.923	1004.389
65.490	12.910	1326.743	1003.075
66.505	13.099	1325.083	1002.879
67.520	13.178	1323.276	1001.899
68.534	13.132	1322.290	1000.787
69.549	13.228	1321.040	1000.329
70.563	13.204	1320.106	999.389
71.578	13.059	1319.590	998.033
72.593	13.045	1318.443	996.997
73.607	12.985	1317.595	995.904
74.622	13.040	1316.846	995.581
75.636	13.053	1316.015	994.945
76.651	13.019	1315.377	994.169
77.666	13.017	1315.005	993.788
78.680	12.992	1314.127	992.886
79.695	13.070	1313.503	992.796
80.709	13.110	1312.555	992.232
81.724	13.141	1311.625	991.627
82.739	13.183	1310.903	991.244
83.753	13.198	1309.887	990.476
84.768	13.286	1308.903	990.170
85.782	13.388	1307.641	989.738
86.797	13.341	1306.075	988.189
87.812	13.190	1305.374	986.669
88.826	13.200	1304.434	985.933
89.841	13.201	1303.891	985.440
90.855	13.245	1302.206	984.337
91.870	13.327	1301.410	984.141
92.884	13.324	1300.327	983.214
93.899	13.330	1299.850	982.805
94.914	13.451	1298.624	982.507
95.928	13.385	1298.134	981.658
96.943	13.364	1297.188	980.729
97.957	13.431	1296.066	980.192
98.972	13.406	1294.779	978.984
99.987	13.376	1293.938	978.086
101.001	13.322	1293.236	977.150
102.016	13.303	1292.045	976.049
103.030	13.283	1291.688	975.578
104.045	13.293	1290.523	974.667
105.060	13.349	1289.006	973.768
106.074	13.127	1288.439	971.947
107.089	13.115	1286.896	970.624
108.103	13.139	1285.642	969.736
109.118	13.134	1284.343	968.639
110.133	13.188	1283.250	968.043
111.147	13.163	1281.846	966.756
112.162	13.187	1280.873	966.074
113.176	13.208	1279.328	964.947
114.191	13.322	1278.781	965.116
115.206	13.304	1277.496	963.957
116.220	13.261	1276.438	962.823
117.235	13.301	1275.022	961.899
118.249	13.202	1274.508	960.849
119.264	13.214	1273.541	960.107
120.279	13.158	1272.352	958.801
121.293	13.156	1271.084	957.752
122.308	13.169	1270.441	957.257
123.322	13.076	1269.437	955.878
124.337	13.036	1268.225	954.647
125.352	13.085	1267.193	954.069
126.366	13.070	1266.004	953.003
127.381	13.184	1264.425	952.389
128.395	13.088	1263.725	951.222
129.410	13.268	1262.341	951.134
130.424	13.218	1261.729	950.300
131.439	13.223	1261.081	949.759
132.454	13.253	1260.123	949.123
133.468	13.313	1259.070	948.593
134.483	13.204	1258.412	947.387
135.497	13.228	1257.486	946.742
136.512	13.302	1256.014	945.976
137.527	13.312	1254.543	944.837
138.541	13.315	1252.693	943.382
139.556	13.336	1251.667	942.641
140.570	13.346	1250.929	942.058
141.585	13.378	1249.721	941.251
142.600	13.425	1248.299	940.360
143.614	13.415	1247.957	939.962
144.629	13.523	1246.237	939.198
145.643	13.419	1245.461	937.941
146.658	13.456	1244.299	937.193
147.673	13.363	1243.285	935.819
148.687	13.356	1241.806	934.587
149.702	13.335	1240.414	933.335
150.716	13.250	1239.538	932.117
151.731	13.315	1238.233	931.419
152.746	13.337	1237.245	930.714
153.760	13.365	1235.572	929.533
154.775	13.409	1234.401	928.817
155.789	13.437	1233.527	928.232
156.804	13.424	1232.579	927.363
157.819	13.525	1231.323	926.902
158.833	13.551	1230.698	926.496
159.848	13.497	1229.942	925.545
160.862	13.599	1228.321	924.810
161.877	13.481	1227.680	923.589
162.892	13.450	1226.185	922.210
163.906	13.442	1225.224	921.360
164.921	13.434	1224.647	920.803
165.935	13.535	1223.932	920.745
166.950	13.582	1223.192	920.365
167.964	13.550	1222.534	919.611
168.979	13.536	1221.391	918.592
169.994	13.470	1221.038	917.879
171.008	13.478	1220.334	917.316
172.023	13.496	1219.551	916.743
173.037	13.563	1218.874	916.527
174.052	13.603	1217.563	915.680
175.067	13.576	1216.978	915.009
176.081	13.581	1215.616	913.933
177.096	13.510	1214.813	912.853
178.110	13.556	1213.396	911.961
179.125	13.577	1212.438	911.278
180.140	13.605	1211.290	910.491
181.154	13.593	1210.325	909.615
182.169	13.578	1208.912	908.393
183.183	13.668	1207.779	907.951
184.198	13.688	1206.825	907.267
185.213	13.760	1205.389	906.499
186.227	13.833	1204.206	905.929
187.242	13.859	1203.021	905.096
188.256	13.886	1202.494	904.765
189.271	13.872	1201.462	903.834
190.286	13.632	1200.087	901.418
191.300	13.587	1199.617	900.737
192.315	13.552	1199.328	900.254
193.329	13.584	1198.383	899.635
194.344	13.675	1198.266	899.960
195.359	13.623	1197.747	899.210
196.373	13.845	1196.505	899.402
197.388	13.960	1195.621	899.278
198.402	13.871	1195.572	898.680
199.417	13.933	1195.144	898.618
200.432	14.019	1193.992	898.135
201.446	13.943	1193.027	896.920
202.461	14.063	1191.780	896.549
203.475	14.186	1190.965	896.522
204.490	14.083	1190.189	895.301
205.504	14.044	1188.558	893.789
206.519	14.047	1187.489	892.919
207.534	13.960	1186.179	891.391
208.548	14.076	1185.496	891.418
209.563	14.007	1184.897	890.521
210.577	13.992	1183.924	889.631
211.592	14.121	1182.908	889.477
212.607	14.110	1182.435	888.986
213.621	14.054	1181.613	887.989
214.636	14.102	1180.891	887.625
215.650	14.192	1179.541	887.010
216.665	14.211	1178.430	886.196
217.680	14.328	1177.929	886.365
218.694	14.268	1177.050	885.308
219.709	14.308	1176.282	884.862
220.723	14.205	1175.569	883.702
221.738	14.303	1174.720	883.505
222.753	14.255	1174.103	882.709
223.767	14.213	1173.897	882.253
224.782	14.342	1172.821	882.046
225.796	14.465	1172.102	882.079
226.811	14.525	1171.490	881.861
227.826	14.448	1170.736	880.806
228.840	14.358	1169.697	879.469
229.855	14.434	1169.322	879.514
230.869	14.361	1168.377	878.339
231.884	14.409	1167.320	877.720
232.899	14.398	1166.442	876.926
233.913	14.387	1165.919	876.398
234.928	14.416	1165.363	876.053
235.942	14.363	1164.157	874.791
236.957	14.329	1163.743	874.225
237.972	14.447	1163.114	874.294
238.986	14.339	1162.278	873.022
240.001	14.345	1161.920	872.704
241.015	14.344	1161.087	871.998
242.030	14.431	1159.717	871.345
243.045	14.379	1159.472	870.811
244.059	14.415	1158.627	870.289
245.074	14.625	1156.975	870.067
246.088	14.488	1156.789	869.136
247.103	14.503	1155.917	868.483
248.117	14.615	1154.984	868.288
249.132	14.636	1154.375	867.863
250.147	14.709	1153.952	867.845
251.161	14.706	1153.080	867.100
252.176	14.637	1152.931	866.550
253.190	14.785	1152.035	866.569
254.205	14.759	1151.486	865.946
255.220	14.919	1150.779	866.166
256.234	14.907	1150.103	865.516
257.249	14.940	1149.531	865.182
258.263	14.966	1148.776	864.670
259.278	14.904	1147.739	863.491
260.293	15.000	1147.448	863.695
261.307	14.969	1147.040	863.150
262.322	15.019	1146.512	862.934
263.336	14.905	1145.823	861.753
264.351	15.051	1145.073	861.863
265.366	15.024	1144.249	861.027
266.380	15.128	1143.142	860.654
267.395	15.070	1142.630	859.892
268.409	15.029	1142.054	859.174
269.424	15.093	1141.312	858.865
270.439	15.028	1140.980	858.209
271.453	14.957	1140.564	857.454
272.468	15.102	1139.368	857.221
273.482	14.995	1138.819	856.185
274.497	15.070	1138.491	856.249
275.512	15.061	1137.546	855.414
276.526	15.072	1136.636	854.713
277.541	15.061	1136.088	854.167
278.555	15.050	1135.486	853.582
279.570	15.112	1134.627	853.178
280.585	15.120	1133.715	852.456
281.599	15.262	1132.685	852.331
282.614	15.270	1131.829	851.653
283.628	15.218	1130.832	850.564
284.643	15.285	1129.502	849.827
285.657	15.228	1128.940	849.036
286.672	15.268	1128.180	848.593
287.687	15.327	1127.142	848.038
288.701	15.388	1126.365	847.683
289.716	15.262	1126.169	846.828
290.730	15.253	1124.967	845.802
291.745	15.452	1124.131	846.100
292.760	15.453	1123.731	845.730
293.774	15.410	1123.485	845.253
294.789	15.517	1122.624	845.072
295.803	15.392	1122.136	844.002
296.818	15.439	1121.259	843.503
297.833	15.356	1120.691	842.583
298.847	15.519	1119.777	842.641
299.862	15.501	1118.900	841.814
300.876	15.406	1118.206	840.741
301.891	15.430	1117.724	840.427
302.906	15.602	1116.650	840.405
303.920	15.599	1116.066	839.872
304.935	15.580	1115.929	839.605
305.949	15.653	1115.076	839.251
306.964	15.825	1114.127	839.318
307.979	15.732	1113.313	838.170
308.993	15.624	1112.832	837.195
310.008	15.749	1111.811	836.972
311.022	15.758	1111.193	836.479
312.037	15.726	1110.273	835.553
313.052	15.692	1109.330	834.602
314.066	15.638	1108.914	833.946
315.081	15.596	1107.816	832.841
316.095	15.589	1107.227	832.289
317.110	15.655	1106.184	831.755
318.125	15.540	1106.076	831.034
319.139	15.643	1105.238	830.839
320.154	15.659	1104.189	830.055
321.168	15.659	1103.661	829.586
322.183	15.646	1103.398	829.253
323.197	15.661	1102.822	828.819
324.212	15.710	1102.417	828.684
325.227	15.800	1101.349	828.247
326.241	15.690	1101.129	827.471
327.256	15.748	1099.974	826.815
328.270	15.770	1098.833	825.990
329.285	15.760	1098.381	825.530
330.300	15.753	1097.501	824.761
331.314	15.843	1096.716	824.540
332.329	15.860	1095.295	823.480
333.343	15.903	1094.332	822.894
334.358	15.969	1093.576	822.575
335.373	15.845	1093.362	821.736
336.387	15.968	1092.590	821.682
337.402	15.883	1091.953	820.717
338.416	15.998	1091.220	820.654
339.431	16.189	1090.321	820.834
340.446	16.022	1089.893	819.627
341.460	16.099	1089.148	819.366
342.475	15.942	1088.470	818.024
343.489	16.223	1087.462	818.554
344.504	16.312	1086.218	817.977
345.519	16.151	1085.570	816.638
346.533	16.197	1085.100	816.435
347.548	16.358	1083.818	816.175
348.562	16.262	1083.522	815.420
349.577	16.226	1082.770	814.607
350.592	16.087	1081.884	813.195
351.606	16.242	1081.147	813.316
352.621	16.128	1080.597	812.281
353.635	16.081	1080.006	811.539
354.650	16.213	1078.822	811.214
355.665	16.251	1078.358	810.978
356.679	16.271	1077.755	810.548
357.694	16.189	1077.320	809.752
358.708	16.309	1076.616	809.730
359.723	16.341	1076.150	809.460
360.738	16.432	1075.025	808.980
361.752	16.325	1074.777	808.208
362.767	16.374	1074.172	807.915
363.781	16.350	1073.619	807.311
364.796	16.342	1073.031	806.761
365.810	16.457	1072.816	807.078
366.825	16.477	1072.050	806.527
367.840	16.566	1071.447	806.425
368.854	16.527	1070.768	805.657
369.869	16.680	1069.808	805.590
370.883	16.648	1068.820	804.622
371.898	16.485	1068.450	803.502
372.913	16.629	1067.584	803.461
373.927	16.582	1067.484	803.090
374.942	16.565	1066.870	802.476
375.956	16.550	1066.715	802.217
376.971	16.562	1065.952	801.630
377.986	16.752	1064.812	801.604
379.000	16.770	1064.666	801.505
380.015	16.620	1064.067	800.276
381.029	16.799	1063.299	800.473
382.044	16.829	1062.644	800.050
383.059	16.859	1062.190	799.781
384.073	16.823	1061.223	798.811
385.088	16.826	1060.189	797.977
386.102	16.844	1058.942	797.052
387.117	16.872	1058.359	796.675
388.132	16.738	1057.501	795.329
389.146	16.735	1057.022	794.881
390.161	16.758	1056.313	794.390
391.175	16.891	1054.988	793.944
392.190	16.816	1054.781	793.366
393.205	16.811	1053.793	792.530
394.219	16.896	1053.250	792.448
395.234	16.907	1052.255	791.682
396.248	16.878	1051.346	790.794
397.263	16.924	1050.346	790.185
398.278	16.976	1049.754	789.911
399.292	17.028	1048.798	789.364
400.307	16.856	1048.040	787.924
401.321	16.967	1047.575	788.020
402.336	16.990	1046.413	787.182
403.350	16.849	1046.154	786.264
404.365	16.902	1045.732	786.124
405.380	17.000	1044.960	785.926
406.394	16.996	1044.193	785.261
407.409	17.085	1043.290	784.925
408.423	17.073	1042.869	784.482
409.438	17.142	1042.265	784.277
410.453	17.259	1041.044	783.832
411.467	17.279	1040.370	783.347
412.482	17.204	1039.853	782.540
413.496	17.280	1039.200	782.331
414.511	17.230	1038.358	781.396
415.526	17.249	1038.754	781.716
416.540	17.337	1037.875	781.390
417.555	17.298	1037.446	780.818
418.569	17.350	1036.854	780.541
419.584	17.298	1036.458	779.935
420.599	17.270	1036.206	779.550
421.613	102.975	1322.426	1468.299
422.628	94.377	1364.095	1468.405
