DTS Sentinel unit serial number:	SN413079Multiplexer serial number:	ORYXHardware model number:	OX4-SRSoftware version number:	ORYX F/W v4.00 Oryx Data Collector v3.7.2.0data status	okinstallation	princeton_trtdifferential loss correction	single-endedforward channel	channel 2reverse channel	N/Adate	2019/09/12time	03:53:11forward acquisition time	60.00reverse acquisition time	0.00gamma	496.2192k internal	0.2326k external	0.2326temperature offset calibration	1.0095default loss term (dB/km)	0.3790temperature slope calibration	1.0000multiplexer offset coefficient	1.0000multiplexer slope coefficient	1.0000fibre end	0.00T internal ref (°C)	32.16T ext. ref 1 (°C)	2.14T ext. ref 2 (°C)	26.52length (m)	temperature (°C)	Stokes	anti-Stokes-747.200	-200.000	-0.051	0.343
-746.185	800.000	-0.075	0.225
-745.171	154.632	0.036	0.050
-744.156	-75.816	-0.167	0.060
-743.142	-136.040	0.110	0.013
-742.127	-200.000	0.030	0.202
-741.112	240.895	-0.086	-0.145
-740.098	800.000	-0.027	0.115
-739.083	115.174	-0.106	0.131
-738.069	800.000	-0.020	-0.081
-737.054	800.000	-0.087	0.327
-736.039	166.743	-0.042	0.059
-735.025	-73.431	-0.227	-0.084
-734.010	-57.960	0.235	0.103
-732.996	-72.391	-0.199	-0.074
-731.981	-122.583	0.172	0.028
-730.966	503.280	-0.124	-0.289
-729.952	-119.756	-0.271	-0.047
-728.937	-81.369	-0.110	-0.036
-727.923	124.063	0.127	-0.161
-726.908	154.128	0.070	-0.096
-725.894	-200.000	-0.009	0.070
-724.879	4.027	-0.163	-0.120
-723.864	800.000	-0.056	0.220
-722.850	154.019	-0.235	-0.325
-721.835	-36.204	-0.068	0.037
-720.821	-185.361	0.157	0.002
-719.806	-51.417	-0.105	0.049
-718.791	-83.803	0.151	-0.049
-717.777	580.379	0.096	-0.237
-716.762	-166.256	0.361	-0.015
-715.748	786.712	-0.098	0.271
-714.733	-200.000	-0.053	0.328
-713.718	-200.000	-0.014	0.259
-712.704	120.909	-0.018	0.023
-711.689	-98.906	-0.216	-0.055
-710.675	-125.612	-0.223	0.034
-709.660	220.595	-0.145	-0.235
-708.645	15.168	-0.195	0.154
-707.631	19.396	0.114	0.092
-706.616	-200.000	0.012	-0.160
-705.602	14.728	-0.082	-0.064
-704.587	-35.577	-0.214	-0.117
-703.572	-10.095	-0.160	-0.107
-702.558	-83.630	-0.122	-0.039
-701.543	630.680	-0.080	-0.204
-700.529	430.270	-0.061	-0.132
-699.514	-101.144	0.045	0.011
-698.499	-88.244	-0.353	0.107
-697.485	753.803	-0.033	-0.089
-696.470	-53.662	-0.140	0.064
-695.456	-54.577	0.070	-0.032
-694.441	-26.452	-0.163	0.096
-693.426	-125.412	-0.147	-0.023
-692.412	753.252	-0.026	-0.071
-691.397	147.382	0.226	0.306
-690.383	-36.907	-0.450	0.243
-689.368	-87.337	0.380	-0.116
-688.354	-112.926	0.195	-0.039
-687.339	-100.451	0.108	0.027
-686.324	800.000	0.026	0.082
-685.310	512.103	0.121	-0.283
-684.295	-200.000	-0.032	-0.300
-683.281	144.962	-0.157	0.212
-682.266	80.256	0.123	-0.134
-681.251	-91.911	0.253	-0.072
-680.237	-49.361	-0.203	0.097
-679.222	365.777	0.176	0.358
-678.208	-84.959	-0.297	-0.094
-677.193	137.364	0.108	0.142
-676.178	72.158	0.102	0.107
-675.164	161.916	-0.228	-0.321
-674.149	-172.634	-0.391	0.012
-673.135	146.599	-0.094	0.127
-672.120	-94.659	-0.432	0.118
-671.105	-200.000	-0.004	-0.035
-670.091	-29.531	-0.387	-0.222
-669.076	373.083	-0.030	-0.061
-668.062	131.320	0.102	0.132
-667.047	-200.000	-0.037	0.178
-666.032	538.733	0.090	0.216
-665.018	-61.339	-0.048	-0.020
-664.003	-200.000	0.046	-0.247
-662.989	-5.283	-0.160	-0.111
-661.974	-200.000	-0.005	-0.078
-660.959	266.265	0.093	-0.163
-659.945	194.817	0.320	-0.489
-658.930	-37.650	-0.260	-0.139
-657.916	193.909	-0.124	-0.189
-656.901	-13.290	-0.208	-0.135
-655.886	666.468	-0.010	0.025
-654.872	-200.000	-0.010	-0.112
-653.857	-59.570	-0.238	-0.103
-652.843	43.911	-0.275	-0.253
-651.828	-83.806	0.323	0.104
-650.814	127.287	0.097	0.124
-649.799	6.474	0.228	0.170
-648.784	413.894	-0.077	-0.165
-647.770	-200.000	0.002	0.139
-646.755	116.067	-0.072	0.089
-645.741	307.189	0.162	-0.303
-644.726	334.175	0.111	-0.216
-643.711	-122.388	0.199	-0.033
-642.697	-30.803	-0.251	0.142
-641.682	542.782	0.140	-0.336
-640.668	68.579	-0.025	-0.026
-639.653	-16.677	0.053	-0.033
-638.638	51.817	-0.261	0.250
-637.624	-65.489	-0.073	0.030
-636.609	-200.000	0.030	0.252
-635.595	-95.093	-0.271	0.073
-634.580	72.414	-0.239	0.250
-633.565	2.904	0.202	-0.147
-632.551	-53.850	-0.207	-0.095
-631.536	211.289	0.206	-0.326
-630.522	7.397	-0.263	0.198
-629.507	632.757	0.016	-0.040
-628.492	162.708	0.249	-0.350
-627.478	346.715	0.075	0.148
-626.463	27.519	0.236	0.199
-625.449	157.752	0.156	-0.218
-624.434	800.000	-0.015	-0.041
-623.419	800.000	0.103	-0.363
-622.405	221.345	-0.188	0.304
-621.390	-123.913	-0.228	-0.036
-620.376	-61.564	0.261	0.110
-619.361	-129.503	-0.182	-0.025
-618.346	-63.457	0.327	-0.135
-617.332	800.000	-0.119	-0.422
-616.317	-149.084	-0.213	0.017
-615.303	396.346	-0.109	-0.228
-614.288	219.258	0.102	-0.163
-613.273	-67.004	0.209	-0.083
-612.259	304.883	0.071	-0.132
-611.244	-187.239	-0.061	-0.001
-610.230	26.525	-0.222	0.187
-609.215	-200.000	-0.002	-0.076
-608.201	-125.727	0.108	0.016
-607.186	274.218	0.104	-0.184
-606.171	225.540	0.158	0.257
-605.157	85.540	-0.325	-0.358
-604.142	-192.137	0.041	0.000
-603.128	-18.293	-0.156	-0.098
-602.113	27.761	-0.133	0.112
-601.098	107.097	0.123	0.146
-600.084	-200.000	0.064	0.593
-599.069	-123.361	-0.372	0.060
-598.055	-200.000	0.015	0.268
-597.040	289.277	-0.035	0.064
-596.025	-48.074	0.286	-0.138
-595.011	-41.529	0.157	-0.081
-593.996	728.324	-0.056	0.149
-592.982	-92.510	0.126	0.036
-591.967	-41.919	-0.116	-0.059
-590.952	69.115	-0.097	0.100
-589.938	-23.178	0.198	-0.119
-588.923	-18.160	0.244	-0.153
-587.909	-41.097	-0.154	-0.079
-586.894	-8.077	-0.183	-0.124
-585.879	89.700	0.270	-0.302
-584.865	221.841	-0.208	0.336
-583.850	-200.000	-0.063	0.344
-582.836	343.699	0.168	-0.330
-581.821	-129.809	0.098	0.013
-580.806	800.000	-0.021	-0.058
-579.792	-97.485	-0.224	-0.058
-578.777	800.000	-0.121	0.415
-577.763	-200.000	-0.010	-0.416
-576.748	-32.715	-0.183	0.102
-575.733	800.000	-0.047	-0.162
-574.719	160.682	-0.145	0.203
-573.704	800.000	0.057	0.215
-572.690	-91.286	-0.273	0.078
-571.675	-0.736	0.103	0.073
-570.661	314.589	-0.055	0.104
-569.646	-165.584	-0.100	-0.004
-568.631	780.397	0.060	0.165
-567.617	62.039	0.181	-0.181
-566.602	-81.985	-0.087	-0.028
-565.588	-200.000	-0.032	-0.303
-564.573	186.539	0.120	-0.179
-563.558	-200.000	0.016	-0.227
-562.544	800.000	0.024	0.084
-561.529	-78.830	0.184	0.063
-560.515	-68.479	-0.290	-0.112
-559.500	59.937	0.195	0.193
-558.485	57.315	-0.163	-0.159
-557.471	42.111	0.058	-0.053
-556.456	508.214	-0.114	0.264
-555.442	3.428	0.270	-0.197
-554.427	-200.000	0.037	-0.253
-553.412	82.413	-0.143	0.156
-552.398	133.584	0.061	-0.079
-551.383	-133.296	-0.404	0.051
-550.369	-87.578	-0.472	-0.143
-549.354	471.700	-0.111	-0.250
-548.339	-185.032	-0.240	0.004
-547.325	-84.618	-0.386	0.122
-546.310	-200.000	-0.017	-0.315
-545.296	47.684	0.201	-0.188
-544.281	-148.476	-0.021	0.002
-543.266	-200.000	0.036	-0.262
-542.252	71.805	-0.173	0.180
-541.237	-97.172	0.200	-0.052
-540.223	-200.000	-0.006	0.072
-539.208	-200.000	0.007	0.146
-538.193	340.349	-0.238	-0.465
-537.179	141.335	0.187	0.247
-536.164	-200.000	-0.027	0.540
-535.150	157.784	-0.046	0.064
-534.135	46.092	-0.181	-0.167
-533.121	237.435	0.235	-0.389
-532.106	-200.000	0.062	-0.354
-531.091	63.624	0.267	0.269
-530.077	-61.042	0.088	0.037
-529.062	-200.000	0.001	0.044
-528.048	9.789	0.209	-0.159
-527.033	-47.936	0.288	-0.139
-526.018	181.355	-0.162	0.238
-525.004	800.000	-0.112	0.353
-523.989	-46.174	-0.192	-0.095
-522.975	403.570	0.214	-0.450
-521.960	-200.000	-0.025	-0.332
-520.945	-33.760	-0.395	0.218
-519.931	10.425	0.367	-0.279
-518.916	-67.815	-0.225	0.088
-517.902	-200.000	-0.058	-0.336
-516.887	-20.616	0.126	-0.077
-515.872	23.751	0.062	0.051
-514.858	-127.524	-0.259	-0.038
-513.843	94.583	-0.101	-0.114
-512.829	-41.909	-0.299	-0.153
-511.814	-200.000	0.028	0.266
-510.799	-200.000	0.004	0.214
-509.785	144.271	-0.149	-0.199
-508.770	67.049	0.111	0.113
-507.756	-114.301	0.277	-0.053
-506.741	-200.000	-0.021	0.099
-505.726	-200.000	0.035	0.397
-504.712	-200.000	0.028	0.240
-503.697	2.381	-0.270	0.195
-502.683	58.925	0.191	-0.188
-501.668	460.681	-0.261	-0.581
-500.653	-33.788	-0.610	-0.336
-499.639	800.000	-0.031	-0.086
-498.624	-200.000	0.011	0.160
-497.610	-200.000	-0.020	0.108
-496.595	253.115	0.076	-0.130
-495.581	0.099	0.133	0.094
-494.566	-3.531	-0.205	0.142
-493.551	-113.293	0.234	0.046
-492.537	-65.346	-0.216	-0.087
-491.522	-98.779	0.306	0.078
-490.508	-106.747	-0.129	-0.029
-489.493	377.798	0.113	0.231
-488.478	-200.000	-0.033	0.275
-487.464	-72.663	-0.359	-0.132
-486.449	-200.000	-0.000	0.063
-485.435	82.851	0.131	0.142
-484.420	181.236	0.061	0.089
-483.405	-200.000	-0.018	0.138
-482.391	-77.898	-0.141	-0.049
-481.376	-64.993	0.220	0.089
-480.362	-148.017	-0.198	0.016
-479.347	67.724	-0.076	-0.078
-478.332	475.914	-0.087	0.196
-477.318	800.000	0.043	-0.156
-476.303	-200.000	-0.031	-0.234
-475.289	168.225	-0.123	-0.174
-474.274	205.973	0.149	-0.231
-473.259	799.231	0.127	0.349
-472.245	274.299	0.039	0.070
-471.230	-30.869	-0.114	0.064
-470.216	800.000	-0.070	-0.268
-469.201	66.428	-0.067	-0.068
-468.186	-200.000	-0.024	-0.572
-467.172	-31.359	0.317	0.178
-466.157	411.501	-0.162	0.342
-465.143	800.000	-0.076	0.312
-464.128	7.135	0.151	0.112
-463.113	175.444	-0.092	0.133
-462.099	-200.000	-0.055	-0.363
-461.084	-200.000	0.000	-0.073
-460.070	-85.532	0.147	0.046
-459.055	800.000	-0.097	0.276
-458.040	146.723	0.155	0.207
-457.026	174.723	-0.272	0.393
-456.011	-82.825	-0.144	0.046
-454.997	74.069	0.187	-0.196
-453.982	50.821	0.310	-0.293
-452.968	-88.721	-0.078	-0.023
-451.953	800.000	-0.031	-0.125
-450.938	44.423	0.127	-0.117
-449.924	-71.684	-0.126	0.047
-448.909	29.947	0.193	0.164
-447.895	-8.602	0.178	0.119
-446.880	-117.878	0.510	0.091
-445.865	420.837	0.106	-0.226
-444.851	3.915	-0.218	-0.158
-443.836	-97.477	0.084	0.022
-442.822	-107.321	0.197	0.043
-441.807	-200.000	-0.018	0.092
-440.792	-123.109	-0.370	-0.059
-439.778	-27.464	0.262	-0.152
-438.763	19.409	0.187	-0.149
-437.749	10.820	-0.219	0.167
-436.734	88.233	-0.135	-0.149
-435.719	-61.484	0.178	-0.075
-434.705	-18.220	0.198	0.124
-433.690	-94.622	0.132	-0.036
-432.676	-200.000	-0.008	0.156
-431.661	-200.000	-0.014	-0.090
-430.646	93.471	0.253	0.285
-429.632	-98.739	0.263	0.067
-428.617	-200.000	-0.042	-0.273
-427.603	629.526	0.031	0.078
-426.588	113.073	-0.307	-0.371
-425.573	-31.188	-0.088	-0.049
-424.559	-2.301	0.250	0.174
-423.544	-120.830	0.201	-0.034
-422.530	800.000	-0.038	-0.107
-421.515	-154.209	-0.178	0.012
-420.500	-200.000	-0.004	0.059
-419.486	174.788	-0.169	0.243
-418.471	-75.924	0.054	-0.019
-417.457	-81.163	-0.107	-0.035
-416.442	-120.615	0.084	-0.014
-415.428	458.455	-0.035	-0.078
-414.413	25.897	-0.301	0.250
-413.398	-33.132	-0.152	0.084
-412.384	28.378	0.172	-0.144
-411.369	-200.000	-0.007	0.195
-410.355	800.000	0.055	0.224
-409.340	-111.319	0.250	0.051
-408.325	332.441	0.069	0.133
-407.311	430.208	-0.133	0.287
-406.296	-200.000	0.070	-0.333
-405.282	-18.700	-0.084	0.052
-404.267	77.084	-0.251	-0.266
-403.252	-35.748	0.178	0.096
-402.238	67.679	-0.091	-0.092
-401.223	-1.234	-0.126	-0.089
-400.209	800.000	-0.070	0.277
-399.194	12.680	-0.093	-0.071
-398.179	-62.215	-0.155	0.064
-397.165	-42.427	0.383	-0.194
-396.150	-114.170	-0.163	-0.031
-395.136	-23.231	0.215	-0.129
-394.121	-112.389	-0.159	0.032
-393.106	800.000	-0.017	0.070
-392.092	-84.690	0.128	-0.040
-391.077	-26.976	-0.209	-0.121
-390.063	-101.232	0.040	-0.010
-389.048	800.000	-0.073	0.208
-388.033	-200.000	-0.029	-0.465
-387.019	-10.310	-0.132	-0.087
-386.004	-91.209	0.168	0.048
-384.990	800.000	0.100	0.321
-383.975	-38.714	-0.130	0.068
-382.960	800.000	-0.053	0.170
-381.946	-151.226	-0.228	0.017
-380.931	-87.534	0.176	0.053
-379.917	-108.317	-0.319	0.068
-378.902	494.323	-0.084	-0.191
-377.888	800.000	0.052	0.201
-376.873	110.885	0.158	-0.189
-375.858	800.000	0.033	-0.141
-374.844	-58.133	-0.044	0.019
-373.829	314.237	0.080	0.150
-372.815	-200.000	-0.000	-0.043
-371.800	-200.000	0.006	0.047
-370.785	-100.697	0.080	-0.020
-369.771	800.000	-0.069	-0.300
-368.756	282.268	0.157	-0.280
-367.742	-200.000	-0.004	-0.210
-366.727	-200.000	-0.009	0.506
-365.712	-200.000	-0.010	-0.361
-364.698	28.705	-0.252	-0.212
-363.683	17.884	-0.178	0.141
-362.669	41.780	0.071	0.064
-361.654	31.589	0.193	0.165
-360.639	-46.092	0.216	0.106
-359.625	-129.443	-0.161	0.022
-358.610	428.398	-0.084	-0.181
-357.596	125.238	0.216	-0.271
-356.581	43.902	0.151	0.137
-355.566	415.699	-0.090	0.192
-354.552	3.031	0.143	0.103
-353.537	-120.568	0.280	-0.047
-352.523	1.536	-0.305	0.218
-351.508	-19.731	-0.145	0.089
-350.493	-200.000	0.007	-0.139
-349.479	-16.978	-0.141	0.088
-348.464	139.770	0.200	-0.262
-347.450	-82.709	-0.120	0.039
-346.435	800.000	0.050	0.164
-345.420	353.159	0.026	0.051
-344.406	77.268	0.061	0.064
-343.391	800.000	-0.079	-0.230
-342.377	-38.666	-0.238	-0.125
-341.362	-200.000	0.012	-0.205
-340.348	193.827	0.182	-0.274
-339.333	-191.218	0.315	-0.003
-338.318	-200.000	-0.015	-0.244
-337.304	0.676	-0.167	-0.119
-336.289	80.773	-0.243	0.260
-335.275	-158.541	0.216	0.012
-334.260	69.637	-0.237	-0.242
-333.245	800.000	-0.036	0.109
-332.231	-98.102	-0.365	0.093
-331.216	82.223	-0.228	0.245
-330.202	13.687	-0.085	-0.065
-329.187	106.352	0.088	-0.104
-328.172	-136.690	-0.308	0.035
-327.158	-133.186	0.247	0.031
-326.143	-200.000	-0.029	0.175
-325.129	99.076	0.240	0.275
-324.114	800.000	-0.063	-0.199
-323.099	-51.241	0.314	-0.146
-322.085	-200.000	0.036	-0.214
-321.070	-86.209	-0.075	0.023
-320.056	4.031	0.064	-0.047
-319.041	-151.259	-0.231	0.017
-318.026	14.281	0.200	0.155
-317.012	48.522	-0.300	0.279
-315.997	-5.369	0.383	0.261
-314.983	223.757	0.182	-0.291
-313.968	36.715	0.262	0.229
-312.953	-200.000	-0.041	-0.297
-311.939	281.927	0.118	0.210
-310.924	800.000	-0.091	0.365
-309.910	-140.764	-0.127	0.013
-308.895	-127.488	-0.064	0.009
-307.880	-200.000	0.018	-0.212
-306.866	-173.185	0.169	-0.005
-305.851	-200.000	0.077	0.398
-304.837	-200.000	-0.004	-0.019
-303.822	270.472	-0.051	0.089
-302.807	243.679	-0.103	-0.171
-301.793	136.070	-0.055	-0.070
-300.778	-6.633	0.318	-0.215
-299.764	8.216	0.083	-0.062
-298.749	-200.000	-0.216	0.000
-297.735	-200.000	0.006	-0.279
-296.720	-67.649	0.141	-0.055
-295.705	-82.197	-0.106	0.034
-294.691	-77.444	0.238	0.082
-293.676	126.752	-0.025	0.032
-292.662	33.614	-0.227	-0.195
-291.647	188.613	-0.205	0.304
-290.632	575.592	0.068	-0.165
-289.618	183.015	-0.106	-0.155
-288.603	-35.377	-0.329	0.177
-287.589	-119.714	-0.349	0.060
-286.574	800.000	0.042	0.159
-285.559	800.000	0.059	0.221
-284.545	-72.977	0.310	0.113
-283.530	-128.107	0.214	-0.030
-282.516	414.933	0.095	0.201
-281.501	-134.707	-0.082	0.010
-280.486	93.795	0.041	-0.046
-279.472	-44.774	-0.183	-0.091
-278.457	-147.060	-0.271	-0.023
-277.443	-0.152	0.172	-0.121
-276.428	800.000	0.037	0.107
-275.413	-41.899	0.047	-0.024
-274.399	-200.000	0.023	0.204
-273.384	-200.000	0.005	0.283
-272.370	8.731	0.066	0.049
-271.355	-200.000	-0.022	0.236
-270.340	18.299	-0.044	-0.035
-269.326	-110.288	0.211	0.043
-268.311	297.785	0.115	0.209
-267.297	-132.599	-0.405	0.051
-266.282	-166.270	-0.276	-0.012
-265.267	-20.059	-0.324	0.198
-264.253	538.834	-0.065	-0.152
-263.238	-142.404	0.103	0.010
-262.224	-10.081	0.148	-0.097
-261.209	800.000	-0.042	0.129
-260.195	-200.000	-0.019	0.287
-259.180	61.697	-0.069	-0.068
-258.165	99.932	-0.251	-0.288
-257.151	-46.762	-0.283	-0.137
-256.136	800.000	0.071	0.216
-255.122	-108.078	0.166	0.036
-254.107	-200.000	0.061	0.504
-253.092	-79.258	0.097	0.032
-252.078	239.996	0.185	-0.305
-251.063	800.000	0.047	0.175
-250.049	-109.911	0.205	-0.043
-249.034	5.380	0.268	0.195
-248.019	-72.541	0.191	0.070
-247.005	-84.499	-0.109	-0.034
-245.990	-66.028	0.189	-0.075
-244.976	-145.461	0.034	-0.003
-243.961	72.593	-0.262	0.271
-242.946	-80.063	0.178	-0.059
-241.932	-200.000	-0.013	0.076
-240.917	-85.409	0.437	0.135
-239.903	-200.000	-0.002	0.196
-238.888	-200.000	0.009	-0.075
-237.873	92.386	0.111	-0.124
-236.859	-135.200	-0.351	-0.042
-235.844	65.027	0.025	-0.025
-234.830	76.796	-0.139	-0.146
-233.815	4.709	0.416	-0.302
-232.800	800.000	-0.096	-0.372
-231.786	378.786	-0.056	0.114
-230.771	-200.000	-0.075	-0.329
-229.757	-15.687	0.061	-0.039
-228.742	-185.898	0.388	-0.006
-227.727	95.458	0.045	0.051
-226.713	-29.275	0.193	-0.109
-225.698	246.330	0.210	0.350
-224.684	-200.000	0.047	-0.249
-223.669	72.714	-0.147	0.152
-222.655	76.689	0.124	-0.130
-221.640	-72.915	-0.215	0.078
-220.625	-200.000	0.004	-0.153
-219.611	-200.000	0.029	-0.337
-218.596	130.502	0.337	-0.427
-217.582	164.096	0.042	0.058
-216.567	-52.004	0.108	0.050
-215.552	446.751	-0.135	-0.293
-214.538	800.000	-0.100	-0.361
-213.523	446.497	0.063	-0.137
-212.509	0.966	-0.159	0.113
-211.494	233.000	-0.191	0.310
-210.479	66.475	0.136	0.136
-209.465	-141.878	-0.256	0.025
-208.450	333.271	-0.239	0.456
-207.436	-200.000	0.047	0.273
-206.421	800.000	-0.058	-0.186
-205.406	800.000	0.035	0.145
-204.392	135.577	-0.036	0.046
-203.377	97.057	-0.066	0.075
-202.363	368.757	-0.153	0.306
-201.348	217.141	0.212	0.333
-200.333	-108.252	-0.366	-0.078
-199.319	-200.000	0.025	0.141
-198.304	-134.507	-0.281	0.034
-197.290	-109.366	0.056	0.012
-196.275	518.886	-0.063	-0.145
-195.260	51.124	0.120	0.112
-194.246	800.000	-0.059	0.176
-193.231	800.000	0.053	0.179
-192.217	179.584	-0.051	-0.074
-191.202	152.693	-0.241	0.326
-190.187	150.330	0.147	-0.196
-189.173	112.387	0.151	0.181
-188.158	47.923	0.271	-0.250
-187.144	-117.613	-0.151	0.027
-186.129	-29.489	-0.092	-0.052
-185.114	-200.000	-0.000	-0.033
-184.100	196.664	0.113	0.170
-183.085	-132.336	0.063	0.008
-182.071	309.972	0.210	0.389
-181.056	-73.682	0.098	0.035
-180.042	-109.895	0.266	-0.055
-179.027	22.543	0.189	-0.152
-178.012	-200.000	-0.029	0.155
-176.998	-80.882	0.253	-0.083
-175.983	800.000	0.084	-0.361
-174.969	70.816	-0.154	0.157
-173.954	319.191	0.104	-0.195
-172.939	326.171	-0.140	-0.264
-171.925	-200.000	0.018	0.365
-170.910	175.908	0.166	0.238
-169.896	-200.000	0.014	-0.209
-168.881	-102.664	0.068	0.016
-167.866	113.175	-0.159	0.190
-166.852	-133.905	-0.159	0.020
-165.837	-25.271	-0.339	0.198
-164.823	-105.274	0.248	0.056
-163.808	-200.000	-0.015	-0.301
-162.793	250.966	-0.143	-0.239
-161.779	370.276	-0.067	-0.133
-160.764	90.228	-0.042	-0.047
-159.750	26.091	0.374	-0.308
-158.735	-15.618	0.415	0.261
-157.720	-80.268	0.218	0.072
-156.706	-58.193	0.224	-0.096
-155.691	-103.989	-0.208	-0.048
-154.677	8.541	0.177	0.132
-153.662	-110.600	0.119	-0.024
-152.647	-42.850	-0.165	0.083
-151.633	-92.902	-0.089	0.024
-150.618	-138.588	0.243	-0.026
-149.604	-31.776	-0.278	-0.154
-148.589	103.203	0.013	0.015
-147.574	-80.906	0.151	0.049
-146.560	165.083	0.194	0.270
-145.545	197.228	0.190	0.286
-144.531	338.563	0.054	-0.104
-143.516	96.523	0.147	-0.166
-142.502	-200.000	0.030	0.212
-141.487	-48.917	0.273	0.129
-140.472	-200.000	0.042	0.192
-139.458	43.218	-0.162	-0.146
-138.443	-54.951	0.154	0.068
-137.429	800.000	0.065	0.239
-136.414	-19.054	-0.296	0.181
-135.399	-35.625	0.399	0.213
-134.385	567.589	-0.200	0.478
-133.370	68.638	0.211	0.213
-132.356	60.550	-0.052	-0.051
-131.341	29.986	-0.016	0.014
-130.326	776.619	-0.152	0.409
-129.312	-93.241	0.196	0.054
-128.297	-4.158	-0.103	0.070
-127.283	19.037	-0.177	0.139
-126.268	167.128	-0.021	-0.029
-125.253	291.065	0.055	-0.098
-124.239	-145.010	0.156	0.014
-123.224	213.603	0.100	0.155
-122.210	-200.000	0.016	0.135
-121.195	-92.426	-0.272	0.075
-120.180	-54.682	0.429	0.191
-119.166	800.000	-0.022	0.085
-118.151	-100.551	-0.266	-0.065
-117.137	800.000	-0.068	-0.231
-116.122	361.581	0.111	-0.220
-115.107	-47.728	0.202	-0.097
-114.093	210.471	0.148	-0.229
-113.078	-5.321	-0.358	0.242
-112.064	-128.666	0.042	-0.006
-111.049	-36.288	-0.124	0.066
-110.034	197.908	-0.134	-0.202
-109.020	-200.000	0.008	-0.425
-108.005	123.621	0.305	-0.377
-106.991	-63.620	-0.285	-0.115
-105.976	-127.541	0.629	-0.090
-104.962	-11.429	-0.139	0.090
-103.947	-143.331	0.270	0.025
-102.932	327.120	0.142	0.267
-101.918	146.475	0.137	0.181
-100.903	-153.688	-0.267	0.018
-99.889	-58.584	-0.098	0.042
-98.874	-36.165	-0.155	-0.082
-97.859	7.365	0.239	0.175
-96.845	-200.000	-0.024	0.303
-95.830	26.360	-0.052	0.042
-94.816	469.108	0.125	-0.277
-93.801	-72.330	0.269	0.098
-92.786	-66.739	0.298	0.116
-91.772	-48.690	0.296	-0.140
-90.757	190.287	-0.130	-0.191
-89.743	-70.188	0.508	-0.190
-88.728	-127.497	0.400	-0.057
-87.713	37.836	-0.054	0.047
-86.699	225.297	0.107	0.170
-85.684	-77.843	0.476	-0.162
-84.670	751.527	0.130	-0.346
-83.655	800.000	-0.051	-0.149
-82.640	-73.754	-0.420	0.150
-81.626	-19.333	0.266	-0.162
-80.611	800.000	0.096	0.261
-79.597	800.000	-0.055	0.223
-78.582	143.101	-0.238	-0.312
-77.567	102.764	0.178	-0.204
-76.553	-172.266	0.036	0.001
-75.538	607.697	0.084	0.206
-74.524	-200.000	-0.000	0.081
-73.509	-166.131	0.059	-0.002
-72.494	145.872	0.143	-0.188
-71.480	80.619	0.186	0.197
-70.465	146.820	0.280	-0.370
-69.451	-200.000	-0.002	0.032
-68.436	-77.887	0.079	0.027
-67.422	-20.652	0.396	0.239
-66.407	77.347	-0.237	0.248
-65.392	454.347	-0.031	-0.068
-64.378	800.000	0.020	-0.087
-63.363	-200.000	-0.003	-0.154
-62.349	-35.245	-0.211	0.113
-61.334	208.514	-0.643	-0.988
-60.319	532.518	0.187	0.434
-59.305	545.961	-0.427	-1.003
-58.290	467.849	0.366	0.806
-57.276	260.413	0.831	1.411
-56.261	-200.000	95.736	597.066
-55.246	577.495	1362.151	3270.225
-54.232	162.445	2546.813	3507.013
-53.217	107.131	2264.525	2642.030
-52.203	41.536	1892.129	1681.777
-51.188	35.474	1682.060	1449.407
-50.173	32.813	1638.511	1392.224
-49.159	50.222	1684.982	1562.267
-48.144	52.005	1701.255	1590.623
-47.130	34.995	1662.674	1428.901
-46.115	32.336	1647.588	1396.175
-45.100	32.100	1643.071	1390.539
-44.086	32.132	1640.023	1388.141
-43.071	32.038	1637.405	1385.174
-42.057	32.107	1634.974	1383.576
-41.042	32.120	1633.371	1382.257
-40.027	32.088	1631.528	1380.406
-39.013	32.042	1629.572	1378.361
-37.998	32.012	1627.758	1376.554
-36.984	32.076	1626.843	1376.192
-35.969	32.192	1624.559	1375.059
-34.954	32.208	1623.346	1374.093
-33.940	32.124	1621.454	1371.821
-32.925	32.200	1619.596	1370.748
-31.911	32.159	1618.364	1369.351
-30.896	32.217	1616.105	1367.807
-29.881	32.148	1614.853	1366.196
-28.867	32.174	1613.249	1364.971
-27.852	32.101	1611.752	1363.125
-26.838	31.970	1610.774	1361.292
-25.823	32.169	1608.655	1360.886
-24.809	32.260	1607.513	1360.522
-23.794	32.158	1606.068	1358.511
-22.779	32.073	1605.129	1357.047
-21.765	32.120	1602.909	1355.456
-20.750	32.080	1601.582	1353.995
-19.736	32.275	1599.933	1353.950
-18.721	32.223	1598.761	1352.527
-17.706	32.227	1597.153	1351.145
-16.692	32.186	1595.739	1349.601
-15.677	32.201	1594.565	1348.658
-14.663	32.190	1593.138	1347.323
-13.648	32.260	1591.780	1346.621
-12.633	32.145	1590.230	1344.434
-11.619	32.152	1588.633	1343.082
-10.604	32.128	1587.404	1341.818
-9.590	32.244	1585.597	1341.065
-8.575	32.251	1584.575	1340.199
-7.560	32.267	1583.224	1339.111
-6.546	32.139	1582.360	1337.416
-5.531	32.187	1580.757	1336.356
-4.517	32.183	1579.471	1335.187
-3.502	32.209	1578.865	1334.800
-2.487	32.216	1577.467	1333.616
-1.473	32.022	1564.991	1321.654
-0.458	29.328	1546.212	1286.966
0.556	26.414	1547.639	1257.775
1.571	24.294	1571.555	1262.108
2.586	23.787	1585.016	1269.186
3.600	21.211	1531.283	1208.250
4.615	12.140	1421.526	1063.018
5.629	3.771	1356.341	962.243
6.644	2.274	1347.419	946.566
7.659	2.133	1346.125	944.703
8.673	2.147	1344.957	943.886
9.688	2.017	1343.033	941.648
10.702	1.813	1339.826	938.063
11.717	5.431	1346.780	965.207
12.731	15.552	1366.297	1042.196
13.746	23.952	1380.571	1105.429
14.761	26.287	1383.614	1122.286
15.775	26.677	1383.649	1124.635
16.790	26.731	1382.881	1124.252
17.804	26.828	1382.561	1124.492
18.819	27.068	1382.287	1125.656
19.834	27.151	1382.073	1125.900
20.848	27.102	1381.361	1124.915
21.863	27.226	1380.113	1124.561
22.877	27.263	1379.183	1123.935
23.892	27.191	1378.782	1123.067
24.907	27.161	1377.574	1121.795
25.921	27.151	1376.687	1120.911
26.936	27.205	1375.819	1120.441
27.950	27.129	1375.039	1119.237
28.965	27.244	1373.389	1118.500
29.980	27.210	1372.124	1117.164
30.994	27.213	1370.902	1116.091
32.009	27.159	1369.796	1114.757
33.023	27.130	1368.650	1113.553
34.038	27.165	1367.921	1113.071
35.053	27.258	1366.407	1112.313
36.067	27.160	1365.978	1111.263
37.082	27.038	1364.718	1109.396
38.096	27.187	1363.834	1109.487
39.111	27.218	1362.738	1108.689
40.126	27.162	1362.105	1107.735
41.140	27.178	1361.817	1107.499
42.155	27.145	1361.825	1107.206
43.169	27.192	1361.509	1107.135
44.184	27.100	1361.133	1106.174
45.199	27.057	1360.669	1105.434
46.213	27.167	1360.347	1105.745
47.228	27.224	1358.944	1104.856
48.242	27.142	1358.009	1103.502
49.257	27.226	1356.382	1102.588
50.271	27.261	1354.600	1101.255
51.286	27.170	1353.954	1100.078
52.301	27.117	1352.459	1098.448
53.315	27.171	1351.708	1098.066
54.330	27.107	1351.210	1097.179
55.344	27.096	1350.012	1096.046
56.359	27.256	1348.508	1095.688
57.374	27.187	1348.163	1094.898
58.388	27.138	1347.095	1093.637
59.403	27.026	1347.196	1092.949
60.417	27.165	1346.755	1093.328
61.432	27.197	1345.388	1092.314
62.447	27.236	1344.625	1091.831
63.461	27.263	1342.806	1090.421
64.476	27.257	1342.341	1089.911
65.490	27.327	1341.038	1089.180
66.505	27.141	1340.049	1087.163
67.520	27.159	1338.716	1086.097
68.534	27.181	1338.288	1085.783
69.549	27.167	1336.782	1084.380
70.563	27.212	1335.626	1083.617
71.578	27.266	1335.133	1083.441
72.593	27.199	1334.456	1082.396
73.607	27.173	1333.999	1081.776
74.622	27.198	1333.186	1081.173
75.636	27.245	1332.711	1080.969
76.651	27.194	1331.544	1079.625
77.666	27.199	1330.853	1078.996
78.680	27.215	1330.161	1078.438
79.695	27.181	1329.763	1077.816
80.709	27.221	1329.115	1077.431
81.724	27.129	1328.584	1076.362
82.739	27.151	1327.346	1075.394
83.753	27.237	1326.136	1074.827
84.768	27.264	1325.011	1073.977
85.782	27.150	1323.963	1072.361
86.797	27.085	1322.739	1070.895
87.812	27.199	1321.832	1070.733
88.826	27.265	1320.669	1070.089
89.841	27.194	1320.022	1069.052
90.855	27.291	1319.074	1068.760
91.870	27.072	1318.312	1066.758
92.884	27.326	1316.872	1066.989
93.899	27.295	1316.206	1066.175
94.914	27.235	1315.426	1065.096
95.928	27.333	1314.535	1064.857
96.943	27.263	1314.272	1064.140
97.957	27.212	1313.936	1063.470
98.972	27.403	1312.515	1063.347
99.987	27.372	1311.317	1062.100
101.001	27.172	1310.817	1060.433
102.016	27.215	1309.895	1059.844
103.030	27.263	1309.278	1059.528
104.045	27.146	1308.582	1058.191
105.060	27.269	1307.291	1057.770
106.074	27.185	1306.295	1056.382
107.089	27.317	1305.626	1056.514
108.103	27.328	1304.314	1055.426
109.118	27.265	1303.549	1054.345
110.133	27.279	1301.913	1053.009
111.147	27.399	1300.745	1052.666
112.162	27.239	1299.694	1050.798
113.176	27.280	1298.999	1050.379
114.191	27.336	1298.357	1050.094
115.206	27.350	1297.291	1049.216
116.220	27.409	1295.860	1048.308
117.235	27.281	1295.210	1046.953
118.249	27.308	1294.364	1046.332
119.264	27.318	1293.421	1045.531
120.279	27.301	1293.090	1045.075
121.293	27.303	1292.172	1044.250
122.308	27.343	1291.227	1043.628
123.322	27.489	1290.442	1043.738
124.337	27.390	1289.789	1042.549
125.352	27.401	1288.483	1041.461
126.366	27.385	1287.667	1040.618
127.381	27.381	1287.034	1039.996
128.395	27.385	1285.822	1038.947
129.410	27.369	1285.083	1038.166
130.424	27.336	1284.804	1037.661
131.439	27.345	1283.903	1036.894
132.454	27.369	1283.001	1036.205
133.468	27.383	1282.278	1035.613
134.483	27.339	1281.652	1034.766
135.497	27.365	1281.031	1034.321
136.512	27.350	1279.593	1032.983
137.527	27.411	1278.079	1032.014
138.541	27.357	1277.234	1030.931
139.556	27.309	1276.392	1029.890
140.570	27.327	1275.749	1029.386
141.585	27.393	1274.328	1028.520
142.600	27.396	1273.256	1027.577
143.614	27.459	1272.278	1027.057
144.629	27.269	1271.740	1025.461
145.643	27.252	1270.795	1024.510
146.658	27.304	1269.570	1023.723
147.673	27.243	1268.724	1022.606
148.687	27.184	1267.761	1021.409
149.702	27.266	1266.518	1020.777
150.716	27.258	1265.366	1019.713
151.731	27.270	1264.513	1019.004
152.746	27.381	1263.238	1018.505
153.760	27.332	1262.457	1017.513
154.775	27.501	1260.985	1017.184
155.789	27.444	1260.859	1016.670
156.804	27.365	1259.987	1015.437
157.819	27.347	1259.441	1014.805
158.833	27.427	1258.237	1014.193
159.848	27.468	1257.265	1013.549
160.862	27.477	1256.702	1013.052
161.877	27.375	1255.868	1011.724
162.892	27.460	1255.086	1011.479
163.906	27.395	1254.554	1010.601
164.921	27.466	1253.665	1010.190
165.935	27.472	1253.019	1009.612
166.950	27.579	1252.275	1009.514
167.964	27.446	1252.348	1008.747
168.979	27.440	1251.398	1007.858
169.994	27.447	1251.105	1007.576
171.008	27.532	1249.621	1006.759
172.023	27.491	1249.410	1006.275
173.037	27.569	1248.611	1005.972
174.052	27.572	1247.614	1005.098
175.067	27.452	1246.735	1003.637
176.081	27.505	1246.344	1003.523
177.096	27.460	1245.587	1002.580
178.110	27.492	1244.615	1001.882
179.125	27.515	1243.697	1001.186
180.140	27.533	1242.852	1000.513
181.154	27.496	1241.525	999.152
182.169	27.481	1240.731	998.346
183.183	27.422	1239.489	996.931
184.198	27.518	1238.270	996.391
185.213	27.568	1237.264	995.767
186.227	27.535	1236.858	995.172
187.242	27.606	1235.781	994.602
188.256	27.633	1234.809	993.882
189.271	27.594	1234.030	992.952
190.286	27.672	1233.198	992.621
191.300	27.493	1233.114	991.492
192.315	27.488	1232.720	991.060
193.329	27.524	1232.144	990.703
194.344	27.650	1231.585	990.850
195.359	27.628	1231.095	990.249
196.373	27.585	1230.509	989.458
197.388	27.633	1230.277	989.445
198.402	27.643	1229.786	989.016
199.417	27.585	1229.048	988.022
200.432	27.671	1228.723	988.138
201.446	27.714	1227.844	987.575
202.461	27.547	1227.728	986.492
203.475	27.694	1226.765	986.426
204.490	27.646	1225.641	985.176
205.504	27.662	1224.942	984.612
206.519	27.690	1224.020	983.933
207.534	27.699	1222.717	982.848
208.548	27.590	1222.244	981.793
209.563	27.652	1221.376	981.344
210.577	27.566	1221.047	980.531
211.592	27.584	1220.103	979.780
212.607	27.665	1218.985	979.232
213.621	27.765	1218.144	979.005
214.636	27.683	1217.741	978.154
215.650	27.784	1216.701	977.775
216.665	27.585	1216.201	976.223
217.680	27.669	1215.305	975.867
218.694	27.672	1214.335	975.019
219.709	27.687	1213.507	974.343
220.723	27.719	1212.420	973.559
221.738	27.694	1212.059	973.048
222.753	27.656	1211.656	972.433
223.767	27.728	1210.870	972.101
224.782	27.673	1210.618	971.522
225.796	27.734	1209.974	971.246
226.811	27.804	1209.102	970.830
227.826	27.744	1208.730	970.126
228.840	27.805	1208.578	970.241
229.855	27.661	1207.718	968.702
230.869	27.749	1207.101	968.586
231.884	27.872	1206.025	968.291
232.899	27.794	1205.324	967.228
233.913	27.846	1204.420	966.696
234.928	27.806	1204.336	966.331
235.942	27.905	1203.570	966.153
236.957	27.880	1203.034	965.505
237.972	27.774	1202.308	964.274
238.986	27.867	1201.817	964.286
240.001	27.936	1200.980	963.894
241.015	28.038	1200.126	963.660
242.030	28.033	1199.136	962.758
243.045	28.038	1198.368	962.083
244.059	27.869	1198.046	960.849
245.074	27.997	1197.256	960.800
246.088	27.887	1196.441	959.485
247.103	27.954	1195.713	959.169
248.117	28.018	1194.690	958.601
249.132	28.018	1194.349	958.241
250.147	28.076	1193.524	957.798
251.161	28.049	1193.071	957.208
252.176	28.064	1191.621	956.035
253.190	28.040	1191.701	955.893
254.205	27.997	1190.503	954.624
255.220	27.912	1190.589	954.161
256.234	28.071	1189.921	954.373
257.249	28.102	1189.284	953.938
258.263	28.136	1188.408	953.329
259.278	28.197	1187.486	952.822
260.293	28.047	1187.538	951.997
261.307	28.106	1186.847	951.670
262.322	28.143	1186.255	951.303
263.336	28.087	1185.691	950.473
264.351	28.136	1185.361	950.381
265.366	28.138	1184.534	949.643
266.380	28.202	1183.737	949.249
267.395	28.146	1182.622	947.983
268.409	28.091	1182.551	947.557
269.424	28.146	1182.044	947.351
270.439	28.120	1181.568	946.752
271.453	28.257	1180.719	946.697
272.468	28.162	1180.005	945.551
273.482	28.082	1179.489	944.637
274.497	28.190	1178.507	944.326
275.512	28.249	1178.267	944.354
276.526	28.272	1177.411	943.705
277.541	28.179	1176.679	942.555
278.555	28.137	1176.519	942.127
279.570	28.123	1175.589	941.229
280.585	28.326	1174.611	941.403
281.599	28.242	1173.825	940.257
282.614	28.247	1173.049	939.583
283.628	28.322	1172.186	939.192
284.643	28.338	1171.132	938.346
285.657	28.408	1170.378	938.015
286.672	28.336	1169.636	936.969
287.687	28.316	1168.950	936.235
288.701	28.371	1168.151	935.795
289.716	28.424	1167.668	935.594
290.730	28.437	1166.656	934.767
291.745	28.437	1166.300	934.397
292.760	28.430	1165.965	934.013
293.774	28.435	1165.336	933.450
294.789	28.341	1164.917	932.556
295.803	28.440	1164.228	932.424
296.818	28.478	1163.122	931.648
297.833	28.514	1162.974	931.631
298.847	28.402	1162.544	930.638
299.862	28.352	1161.173	929.200
300.876	28.466	1160.632	929.262
301.891	28.447	1160.440	928.932
302.906	28.601	1159.368	928.772
303.920	28.594	1159.056	928.404
304.935	28.410	1158.771	927.164
305.949	28.621	1157.540	927.161
306.964	28.538	1157.351	926.508
307.979	28.498	1156.692	925.698
308.993	28.492	1156.053	925.074
310.008	28.696	1155.177	925.320
311.022	28.455	1154.744	923.677
312.037	28.595	1153.499	923.303
313.052	28.583	1152.495	922.358
314.066	28.565	1151.532	921.417
315.081	28.592	1150.986	921.032
316.095	28.567	1150.534	920.465
317.110	28.699	1149.966	920.588
318.125	28.508	1149.604	919.259
319.139	28.596	1148.844	919.010
320.154	28.681	1148.068	918.734
321.168	28.667	1147.855	918.412
322.183	28.583	1147.013	917.241
323.197	28.624	1146.754	917.154
324.212	28.695	1146.367	917.120
325.227	28.723	1145.603	916.567
326.241	28.695	1145.091	915.936
327.256	28.766	1144.060	915.387
328.270	28.778	1143.050	914.557
329.285	28.791	1142.459	914.068
330.300	28.715	1141.947	913.196
331.314	28.754	1140.815	912.405
332.329	28.774	1140.559	912.217
333.343	28.732	1139.738	911.276
334.358	28.859	1138.782	911.056
335.373	28.943	1138.129	910.871
336.387	28.847	1137.532	909.835
337.402	28.881	1136.867	909.394
338.416	29.023	1135.882	909.228
339.431	28.848	1135.859	908.262
340.446	28.925	1135.348	908.155
341.460	29.046	1134.525	908.014
342.475	28.927	1133.115	906.220
343.489	28.946	1132.708	905.904
344.504	28.944	1131.371	904.746
345.519	28.977	1130.837	904.402
346.533	29.036	1130.200	904.100
347.548	28.994	1129.657	903.382
348.562	28.989	1128.853	902.632
349.577	28.970	1128.159	901.908
350.592	28.942	1127.401	901.085
351.606	28.959	1126.536	900.397
352.621	29.119	1125.761	900.481
353.635	29.064	1125.484	899.906
354.650	29.031	1125.130	899.383
355.665	29.116	1124.114	898.907
356.679	29.039	1124.198	898.519
357.694	29.098	1123.345	898.047
358.708	29.187	1122.522	897.741
359.723	29.046	1121.762	896.366
360.738	29.040	1121.381	895.955
361.752	28.938	1120.951	895.038
362.767	29.155	1120.245	895.446
363.781	29.158	1119.514	894.798
364.796	29.235	1118.887	894.594
365.810	29.192	1118.170	893.733
366.825	29.275	1118.032	893.943
367.840	29.248	1117.447	893.267
368.854	29.293	1117.162	893.179
369.869	29.273	1116.134	892.183
370.883	29.212	1115.734	891.487
371.898	29.254	1115.027	891.047
372.913	29.035	1114.461	889.457
373.927	29.271	1113.497	889.749
374.942	29.186	1113.595	889.336
375.956	29.293	1112.657	889.025
376.971	29.334	1112.333	888.885
377.986	29.334	1111.638	888.251
379.000	29.279	1111.375	887.700
380.015	29.449	1110.493	887.731
381.029	29.409	1109.731	886.854
382.044	29.369	1109.087	886.068
383.059	29.440	1108.550	885.899
384.073	29.439	1107.792	885.212
385.088	29.446	1106.938	884.485
386.102	29.566	1106.044	884.267
387.117	29.421	1105.343	882.936
388.132	29.395	1104.784	882.285
389.146	29.406	1104.282	881.861
390.161	29.417	1103.457	881.172
391.175	29.456	1102.801	880.760
392.190	29.409	1102.505	880.221
393.205	29.513	1101.368	879.731
394.219	29.467	1100.770	878.956
395.234	29.573	1099.863	878.659
396.248	29.571	1098.858	877.769
397.263	29.590	1098.483	877.479
398.278	29.601	1097.868	876.964
399.292	29.625	1097.290	876.538
400.307	29.590	1096.749	875.864
401.321	29.626	1096.430	875.703
402.336	29.493	1095.677	874.392
403.350	29.633	1094.584	874.108
404.365	29.813	1093.539	874.043
405.380	29.690	1093.355	873.241
406.394	29.660	1092.593	872.410
407.409	29.646	1092.023	871.811
408.423	29.744	1091.370	871.674
409.438	29.837	1090.401	871.262
410.453	29.785	1090.168	870.753
411.467	29.702	1089.473	869.733
412.482	29.731	1088.510	869.022
413.496	29.796	1088.288	869.073
414.511	29.687	1087.663	867.985
415.526	29.753	1087.296	867.929
416.540	29.794	1086.966	867.781
417.555	29.741	1086.263	866.895
418.569	29.771	1085.512	866.358
419.584	29.834	1085.283	866.392
420.599	29.821	1084.899	865.949
421.613	104.509	1322.277	1459.010
422.628	97.282	1356.824	1459.111
