DTS Sentinel unit serial number:	SN413079Multiplexer serial number:	ORYXHardware model number:	OX4-SRSoftware version number:	ORYX F/W v4.00 Oryx Data Collector v3.7.2.0data status	okinstallation	princeton_trtdifferential loss correction	single-endedforward channel	channel 2reverse channel	N/Adate	2019/09/12time	20:01:49forward acquisition time	15.00reverse acquisition time	0.00gamma	496.2192k internal	0.2327k external	0.2327temperature offset calibration	1.0156default loss term (dB/km)	0.3790temperature slope calibration	1.0000multiplexer offset coefficient	1.0000multiplexer slope coefficient	1.0000fibre end	0.00T internal ref (°C)	31.75T ext. ref 1 (°C)	3.42T ext. ref 2 (°C)	26.31length (m)	temperature (°C)	Stokes	anti-Stokes-747.200	-40.614	-0.463	-0.242
-746.185	-200.000	0.069	0.944
-745.171	-94.030	-0.310	-0.086
-744.156	33.890	-0.301	0.265
-743.142	316.430	0.223	-0.424
-742.127	33.363	0.493	0.432
-741.112	173.295	0.356	-0.517
-740.098	37.696	-0.623	0.557
-739.083	-172.495	-0.315	0.010
-738.069	10.058	-0.263	0.201
-737.054	118.583	0.148	-0.184
-736.039	152.738	-0.836	1.151
-735.025	-54.777	0.732	0.333
-734.010	-124.026	-0.791	0.125
-732.996	-200.000	-0.061	0.289
-731.981	287.445	-0.074	-0.136
-730.966	109.289	-0.153	0.184
-729.952	-90.773	0.833	0.242
-728.937	5.552	-1.213	0.903
-727.923	-9.309	0.623	0.419
-726.908	800.000	-0.040	-0.140
-725.894	735.088	0.078	0.210
-724.879	77.044	-0.236	0.253
-723.864	-111.686	0.553	-0.113
-722.850	519.155	0.179	0.422
-721.835	-200.000	-0.009	-0.623
-720.821	-73.323	-0.192	-0.071
-719.806	-82.804	0.509	0.166
-718.791	-6.044	-0.478	-0.329
-717.777	133.228	0.452	0.588
-716.762	-184.956	0.250	-0.004
-715.748	-136.900	-0.712	0.082
-714.733	49.705	0.390	0.370
-713.718	-177.071	0.319	0.008
-712.704	69.353	-0.234	-0.243
-711.689	-164.571	0.377	-0.017
-710.675	-200.000	0.003	0.373
-709.660	227.969	0.222	0.365
-708.645	-40.341	0.586	0.307
-707.631	-36.785	-0.528	0.286
-706.616	87.199	0.073	-0.081
-705.602	-156.443	-0.138	-0.009
-704.587	-200.000	-0.095	-0.593
-703.572	-200.000	-0.001	0.309
-702.558	287.728	-0.098	-0.179
-701.543	8.225	-0.460	-0.348
-700.529	800.000	0.096	-0.270
-699.514	-200.000	0.095	-0.576
-698.499	68.104	-0.215	-0.222
-697.485	-200.000	-0.043	0.259
-696.470	116.911	-0.233	0.288
-695.456	9.103	0.338	0.257
-694.441	-200.000	-0.079	-0.415
-693.426	21.701	0.912	-0.747
-692.412	114.120	-0.066	-0.081
-691.397	458.586	0.086	-0.192
-690.383	19.832	-0.380	0.308
-689.368	-200.000	-0.068	-0.757
-688.354	719.525	0.111	-0.296
-687.339	-55.897	-0.367	-0.165
-686.324	6.504	0.789	0.590
-685.310	-200.000	0.015	-0.583
-684.295	56.302	-0.682	0.666
-683.281	-42.724	-0.445	-0.228
-682.266	53.500	-0.183	0.177
-681.251	-165.942	0.736	-0.032
-680.237	373.791	-0.223	-0.456
-679.222	-80.750	0.517	0.173
-678.208	-24.758	-0.191	-0.114
-677.193	-200.000	-0.014	-0.780
-676.178	800.000	0.079	0.300
-675.164	-200.000	0.024	0.257
-674.149	-115.544	-0.506	0.096
-673.135	298.983	-0.165	-0.306
-672.120	159.728	0.305	-0.427
-671.105	800.000	-0.212	0.745
-670.091	243.083	-0.317	0.533
-669.076	112.223	0.402	-0.488
-668.062	124.675	0.192	0.244
-667.047	800.000	0.248	1.055
-666.032	-200.000	0.096	-0.447
-665.018	800.000	0.216	-0.880
-664.003	800.000	-0.322	-1.274
-662.989	30.597	-0.490	-0.421
-661.974	-160.552	-0.980	-0.053
-660.959	431.647	0.132	0.286
-659.945	19.060	0.076	-0.061
-658.930	617.757	-0.131	-0.330
-657.916	89.358	0.396	0.443
-656.901	-137.471	0.203	0.023
-655.886	1.746	-0.370	-0.268
-654.872	-165.475	-0.275	0.012
-653.857	425.299	0.227	0.490
-652.843	800.000	0.228	-0.742
-651.828	6.814	0.630	0.471
-650.814	125.365	0.185	-0.235
-649.799	512.375	-0.374	-0.875
-648.784	-200.000	-0.045	0.714
-647.770	8.677	-0.337	0.255
-646.755	-41.030	0.687	0.356
-645.741	578.353	-0.121	0.298
-644.726	239.613	0.031	0.051
-643.711	800.000	-0.238	-0.687
-642.697	-13.272	-0.324	0.211
-641.682	732.733	0.174	-0.468
-640.668	-200.000	-0.021	-0.241
-639.653	-200.000	0.040	-0.668
-638.638	-131.829	0.152	0.020
-637.624	112.150	-0.819	-0.994
-636.609	800.000	-0.121	-0.371
-635.595	47.086	0.292	-0.273
-634.580	-160.772	-0.493	-0.026
-633.565	83.119	-0.626	0.684
-632.551	235.896	0.109	-0.181
-631.536	-181.336	-0.148	0.003
-630.522	678.504	-0.214	-0.559
-629.507	-200.000	-0.021	0.246
-628.492	800.000	-0.295	0.928
-627.478	-49.924	0.519	-0.247
-626.463	-48.869	-0.436	-0.210
-625.449	-64.089	0.471	0.193
-624.434	-167.960	0.186	-0.007
-623.419	-166.379	0.231	0.010
-622.405	-200.000	-0.002	-0.974
-621.390	800.000	0.137	0.395
-620.376	-108.344	-0.896	0.194
-619.361	-16.317	0.318	-0.202
-618.346	60.991	-0.064	0.064
-617.332	-64.324	-0.567	0.232
-616.317	-105.418	0.343	-0.078
-615.303	295.651	-0.460	-0.844
-614.288	156.711	-0.339	0.470
-613.273	800.000	0.094	0.409
-612.259	-168.843	0.571	-0.022
-611.244	-200.000	0.016	0.152
-610.230	262.417	-0.303	-0.527
-609.215	-11.835	0.158	0.104
-608.201	-71.826	-0.754	0.282
-607.186	-96.184	1.036	-0.276
-606.171	-124.183	0.136	-0.021
-605.157	-170.651	1.505	0.052
-604.142	151.693	-0.445	0.608
-603.128	647.007	-0.285	0.730
-602.113	532.908	-0.249	-0.590
-601.098	-200.000	-0.078	-0.398
-600.084	-5.006	0.552	-0.381
-599.069	800.000	-0.117	-0.333
-598.055	752.874	-0.032	-0.088
-597.040	-171.157	-0.120	-0.004
-596.025	220.051	-0.177	0.284
-595.011	786.442	0.174	0.478
-593.996	800.000	0.109	0.476
-592.982	-25.640	-0.415	0.246
-591.967	-120.383	-0.262	-0.045
-590.952	632.903	0.225	0.570
-589.938	58.218	0.224	0.220
-588.923	-200.000	0.012	-0.609
-587.909	-5.416	-0.197	0.135
-586.894	240.803	0.195	0.325
-585.879	354.097	-0.104	-0.206
-584.865	-65.192	0.669	0.270
-583.850	-100.106	-0.425	0.106
-582.836	16.007	0.479	-0.378
-581.821	-134.983	0.071	-0.009
-580.806	-125.598	0.533	-0.081
-579.792	621.631	0.181	-0.456
-578.777	78.037	-0.277	0.296
-577.763	-93.023	-0.171	-0.048
-576.748	33.504	0.239	0.208
-575.733	-38.556	-0.817	0.432
-574.719	53.277	0.524	-0.502
-573.704	-22.042	0.520	0.316
-572.690	-128.866	0.521	-0.073
-571.675	-200.000	-0.064	0.617
-570.661	-159.270	0.541	0.030
-569.646	-158.394	-0.095	-0.006
-568.631	224.213	0.293	0.474
-567.617	800.000	-0.174	0.497
-566.602	196.075	-0.153	-0.233
-565.588	-21.790	-0.130	-0.079
-564.573	119.527	0.180	0.223
-563.558	-200.000	-0.019	0.948
-562.544	-155.018	-1.156	-0.076
-561.529	800.000	-0.033	0.094
-560.515	-161.617	0.761	0.039
-559.500	800.000	-0.162	-0.689
-558.485	-123.563	1.011	-0.161
-557.471	-200.000	-0.003	-0.259
-556.456	17.949	0.218	0.174
-555.442	800.000	-0.099	-0.335
-554.427	-200.000	0.013	-0.082
-553.412	161.354	-0.270	-0.377
-552.398	-17.380	0.083	0.052
-551.383	113.694	-0.722	-0.877
-550.369	-200.000	-0.093	0.595
-549.354	15.799	-0.653	0.514
-548.339	500.111	0.249	0.575
-547.325	-69.888	-0.160	-0.061
-546.310	-163.003	-0.978	-0.047
-545.296	-200.000	0.141	-0.668
-544.281	800.000	-0.192	0.625
-543.266	800.000	-0.078	-0.269
-542.252	-84.556	-0.591	-0.186
-541.237	-162.004	-0.826	0.042
-540.223	800.000	0.122	0.533
-539.208	644.935	0.136	-0.348
-538.193	-28.653	-0.266	-0.153
-537.179	90.348	0.113	0.127
-536.164	-9.968	-0.587	-0.390
-535.150	800.000	0.093	-0.382
-534.135	-145.443	0.274	-0.025
-533.121	-30.957	0.122	-0.069
-532.106	800.000	0.082	0.246
-531.091	156.625	-0.239	0.330
-530.077	-161.444	-0.786	0.041
-529.062	16.395	-0.434	-0.343
-528.048	-67.275	0.905	0.356
-527.033	-75.723	-0.480	-0.170
-526.018	720.335	0.267	0.710
-525.004	77.288	0.515	0.548
-523.989	-200.000	-0.088	0.898
-522.975	-104.783	-0.826	-0.190
-521.960	61.842	-0.534	0.532
-520.945	-2.272	-0.516	-0.362
-519.931	-179.878	0.362	-0.008
-518.916	-4.689	-0.390	0.269
-517.902	-200.000	-0.100	-0.502
-516.887	161.311	-0.112	-0.157
-515.872	13.097	0.500	0.387
-514.858	-74.548	0.586	0.211
-513.843	55.332	0.542	0.524
-512.829	-32.051	0.149	0.083
-511.814	271.074	0.408	-0.717
-510.799	-93.793	-0.545	-0.150
-509.785	528.999	0.258	-0.607
-508.770	291.594	-0.369	-0.671
-507.756	228.706	-0.205	0.334
-506.741	238.288	0.335	0.555
-505.726	-166.177	0.625	-0.026
-504.712	800.000	-0.017	0.063
-503.697	87.202	0.625	0.690
-502.683	800.000	-0.243	-0.785
-501.668	-172.756	-0.290	0.009
-500.653	-41.189	-0.569	-0.293
-499.639	27.558	0.201	-0.169
-498.624	59.038	0.110	-0.108
-497.610	-37.695	1.370	0.729
-496.595	-200.000	-0.005	-0.041
-495.581	-200.000	0.008	0.144
-494.566	-200.000	-0.032	0.296
-493.551	-200.000	-0.125	-0.609
-492.537	149.217	0.357	-0.483
-491.522	800.000	-0.141	-0.423
-490.508	218.613	-0.463	0.738
-489.493	-200.000	0.015	-0.164
-488.478	299.807	0.290	-0.533
-487.464	65.127	-0.568	-0.573
-486.449	-200.000	0.081	-0.681
-485.435	-170.587	0.205	-0.007
-484.420	-68.770	0.644	-0.249
-483.405	-39.113	0.394	0.207
-482.391	253.167	0.166	0.282
-481.376	493.444	-0.205	-0.470
-480.362	236.189	-0.085	-0.140
-479.347	-200.000	0.064	-0.538
-478.332	-161.240	-0.230	0.012
-477.318	-29.225	-0.109	0.062
-476.303	-118.925	-0.282	-0.049
-475.289	-69.856	-0.768	-0.293
-474.274	-99.027	-0.255	0.064
-473.259	567.312	0.034	-0.082
-472.245	-200.000	-0.017	0.318
-471.230	-68.703	0.648	0.250
-470.216	800.000	-0.113	0.340
-469.201	-127.489	0.321	0.047
-468.186	186.708	-0.156	0.232
-467.172	135.775	0.257	0.334
-466.157	-191.709	0.402	-0.004
-465.143	800.000	-0.116	-0.372
-464.128	-105.886	-0.605	-0.136
-463.113	800.000	-0.359	1.000
-462.099	-92.356	0.263	-0.074
-461.084	-187.738	0.515	-0.007
-460.070	-200.000	0.018	-1.360
-459.055	-28.586	-0.147	0.084
-458.040	800.000	-0.013	0.053
-457.026	-103.675	0.176	0.041
-456.011	235.949	0.135	0.223
-454.997	-29.688	-0.344	-0.196
-453.982	-181.807	0.293	0.006
-452.968	-15.420	0.402	0.256
-451.953	50.085	0.520	-0.489
-450.938	239.039	-0.186	-0.308
-449.924	39.397	-0.289	-0.258
-448.909	-200.000	-0.097	-0.688
-447.895	385.573	-0.244	0.502
-446.880	-200.000	-0.017	-0.631
-445.865	-39.934	0.569	-0.296
-444.851	800.000	-0.125	-0.434
-443.836	-95.866	0.290	0.077
-442.822	-29.260	-0.588	0.335
-441.807	120.086	-0.282	0.348
-440.792	77.077	-0.688	0.729
-439.778	754.440	0.227	0.611
-438.763	187.749	-0.031	-0.046
-437.749	2.848	-0.082	0.059
-436.734	108.491	0.389	0.462
-435.719	-200.000	0.057	-0.301
-434.705	800.000	-0.055	-0.187
-433.690	-68.383	0.730	-0.282
-432.676	800.000	0.103	-0.443
-431.661	609.230	0.038	0.094
-430.646	126.554	0.126	0.159
-429.632	99.740	-0.171	-0.197
-428.617	800.000	-0.168	-0.607
-427.603	470.884	0.151	0.338
-426.588	-120.852	-0.920	-0.154
-425.573	-200.000	-0.094	-0.768
-424.559	13.185	0.694	0.535
-423.544	35.012	0.135	0.118
-422.530	-200.000	-0.017	-0.556
-421.515	77.434	-0.817	-0.865
-420.500	-69.043	-0.507	-0.194
-419.486	221.521	0.504	0.806
-418.471	-156.609	0.351	-0.022
-417.457	18.420	-0.290	0.231
-416.442	-77.705	0.319	0.110
-415.428	-109.484	0.172	0.036
-414.413	19.273	0.402	-0.321
-413.398	-176.259	0.593	-0.015
-412.384	-200.000	-0.087	-0.538
-411.369	800.000	-0.202	-0.837
-410.355	-139.261	0.017	0.002
-409.340	-200.000	-0.048	0.760
-408.325	-60.963	-0.385	-0.162
-407.311	-117.271	-0.226	0.041
-406.296	92.831	-0.486	-0.546
-405.282	-76.494	1.258	0.440
-404.267	140.082	0.028	-0.037
-403.252	-85.654	-0.537	0.166
-402.238	5.701	0.064	0.047
-401.223	-200.000	-0.001	0.392
-400.209	800.000	0.122	0.514
-399.194	-138.014	0.748	-0.083
-398.179	24.522	0.386	0.318
-397.165	-200.000	0.025	0.781
-396.150	-57.969	-0.631	0.274
-395.136	-200.000	-0.018	0.380
-394.121	229.912	0.220	0.358
-393.106	-90.547	0.549	-0.158
-392.092	-61.231	-0.147	-0.061
-391.077	-15.690	0.218	-0.138
-390.063	18.736	0.490	-0.390
-389.048	-200.000	0.026	-0.428
-388.033	86.668	0.463	-0.507
-387.019	-192.163	-0.184	-0.002
-386.004	612.441	-0.227	0.565
-384.990	-83.733	-0.119	0.038
-383.975	74.370	-0.754	0.788
-382.960	-102.341	0.246	-0.059
-381.946	24.426	-0.273	-0.224
-380.931	76.568	0.079	0.083
-379.917	-10.929	-0.132	0.087
-378.902	327.075	0.101	0.192
-377.888	800.000	-0.166	-0.516
-376.873	22.655	-0.341	-0.277
-375.858	-122.471	0.684	0.111
-374.844	44.766	0.169	-0.155
-373.829	5.353	0.326	0.239
-372.815	18.611	0.038	0.030
-371.800	291.338	-0.624	-1.129
-370.785	-24.060	-0.325	-0.193
-369.771	-119.172	-0.577	-0.100
-368.756	-134.971	-0.616	0.074
-367.742	716.347	0.171	0.452
-366.727	-93.900	-0.938	0.256
-365.712	-63.261	0.424	-0.173
-364.698	800.000	0.104	0.344
-363.683	-17.441	-0.817	0.511
-362.669	-121.613	0.874	-0.144
-361.654	800.000	-0.300	0.968
-360.639	279.895	-0.190	-0.337
-359.625	-154.640	0.728	-0.048
-358.610	91.452	0.412	0.459
-357.596	51.983	0.226	0.214
-356.581	24.523	0.532	-0.437
-355.566	-124.500	0.505	0.078
-354.552	-39.796	-0.339	0.176
-353.537	-22.484	-0.404	0.243
-352.523	-200.000	-0.006	-0.119
-351.508	39.022	0.386	-0.342
-350.493	800.000	0.229	0.734
-349.479	680.295	0.239	-0.618
-348.464	-200.000	-0.073	0.617
-347.450	-18.549	-0.231	0.143
-346.435	-75.060	0.395	-0.140
-345.420	-200.000	-0.043	-0.263
-344.406	-200.000	0.031	0.449
-343.391	146.643	0.120	-0.160
-342.377	-200.000	-0.049	0.647
-341.362	-200.000	-0.012	-0.202
-340.348	125.889	0.187	-0.234
-339.333	800.000	-0.363	1.134
-338.318	-200.000	-0.132	1.704
-337.304	131.947	0.225	0.287
-336.289	-79.518	0.498	0.167
-335.275	459.679	0.431	0.953
-334.260	309.089	0.192	0.356
-333.245	-22.660	-0.884	-0.530
-332.231	-83.873	-0.648	-0.205
-331.216	20.538	-0.270	-0.216
-330.202	-66.950	0.413	-0.162
-329.187	800.000	-0.037	-0.155
-328.172	227.210	-0.308	-0.497
-327.158	-200.000	0.138	-0.867
-326.143	-82.263	-0.545	-0.176
-325.129	-16.235	-0.435	0.274
-324.114	-21.238	0.604	-0.366
-323.099	-7.943	0.108	-0.072
-322.085	-56.248	0.343	-0.151
-321.070	-91.479	-0.438	0.124
-320.056	34.572	-0.542	-0.469
-319.041	-180.716	-0.595	0.012
-318.026	76.689	0.516	0.543
-317.012	-138.602	0.377	-0.041
-315.997	269.038	-0.161	0.280
-314.983	-67.295	0.798	0.311
-313.968	-125.152	-0.479	0.073
-312.953	-200.000	-0.029	0.230
-311.939	-200.000	0.049	-0.358
-310.924	67.319	-0.693	0.701
-309.910	-121.576	0.627	0.103
-308.895	-176.512	1.034	-0.026
-307.880	-164.742	-0.788	0.035
-306.866	756.494	0.458	-1.229
-305.851	-37.830	0.323	0.170
-304.837	-62.471	0.546	-0.225
-303.822	-200.000	-0.058	0.467
-302.807	-1.363	0.741	-0.518
-301.793	40.237	0.593	0.529
-300.778	-86.995	0.443	0.134
-299.764	149.731	0.456	-0.613
-298.749	-200.000	-0.020	-0.104
-297.735	-46.709	0.246	0.119
-296.720	-200.000	0.014	-0.211
-295.705	-66.234	0.457	-0.180
-294.691	800.000	0.086	-0.240
-293.676	800.000	-0.068	-0.219
-292.662	93.248	-0.814	-0.912
-291.647	-7.803	-1.028	0.687
-290.632	57.442	0.648	-0.627
-289.618	-87.986	0.354	0.105
-288.603	360.507	0.181	-0.358
-287.589	26.364	0.590	-0.489
-286.574	262.548	-0.482	0.829
-285.559	256.129	-0.365	-0.620
-284.545	194.649	-0.244	-0.366
-283.530	171.101	-0.446	-0.633
-282.516	-120.355	0.204	0.034
-281.501	89.508	0.489	0.540
-280.486	-200.000	-0.082	-0.731
-279.472	-200.000	0.182	-0.893
-278.457	133.095	-0.145	0.185
-277.443	-15.856	0.267	-0.168
-276.428	148.631	0.669	0.895
-275.413	-200.000	-0.072	-0.407
-274.399	284.513	-0.195	0.347
-273.384	69.728	0.534	-0.544
-272.370	-71.817	0.568	0.209
-271.355	-177.388	0.807	-0.020
-270.340	115.792	-0.440	-0.532
-269.326	319.060	-0.291	0.546
-268.311	-58.029	-0.568	0.245
-267.297	418.158	0.186	0.393
-266.282	79.465	-0.669	-0.710
-265.267	134.309	-0.313	0.401
-264.253	-200.000	-0.021	-0.449
-263.238	800.000	0.094	-0.300
-262.224	241.277	0.351	0.580
-261.209	-136.104	-0.359	0.042
-260.195	-200.000	0.084	0.835
-259.180	-105.329	0.538	-0.121
-258.165	-89.012	0.616	-0.180
-257.151	-200.000	-0.007	0.348
-256.136	169.126	0.391	0.552
-255.122	-138.958	-0.577	0.062
-254.107	-46.414	-0.468	-0.227
-253.092	162.178	0.148	-0.205
-252.078	-200.000	0.005	-0.158
-251.063	800.000	-0.151	-0.467
-250.049	-200.000	-0.006	-0.038
-249.034	800.000	-0.335	1.060
-248.019	-25.951	0.634	-0.369
-247.005	-16.763	-0.293	-0.183
-245.990	-158.629	-0.813	-0.046
-244.976	218.793	-0.452	-0.714
-243.961	-200.000	0.017	0.523
-242.946	-200.000	-0.072	-0.440
-241.932	579.344	-0.358	-0.865
-240.917	78.395	0.461	-0.487
-239.903	-200.000	0.074	0.706
-238.888	-200.000	-0.046	-0.446
-237.873	766.932	-0.339	0.911
-236.859	155.006	0.213	0.289
-235.844	57.454	-0.068	0.065
-234.830	-91.642	-1.061	0.298
-233.815	-200.000	-0.124	-0.595
-232.800	-64.168	0.878	-0.354
-231.786	-200.000	0.011	1.282
-230.771	800.000	-0.188	0.634
-229.757	329.189	-0.219	-0.415
-228.742	-200.000	-0.138	0.961
-227.727	687.805	0.071	-0.184
-226.713	-200.000	0.062	-0.401
-225.698	-22.064	-0.919	0.551
-224.684	68.107	-0.322	0.326
-223.669	-21.985	-0.555	0.333
-222.655	-100.998	0.233	0.056
-221.640	-200.000	0.061	-0.509
-220.625	121.714	0.309	0.381
-219.611	273.915	0.278	-0.486
-218.596	-17.254	0.487	-0.303
-217.582	53.543	-0.144	-0.136
-216.567	-160.154	-0.259	-0.014
-215.552	281.541	-0.086	0.153
-214.538	-200.000	-0.119	-0.614
-213.523	-32.023	0.801	-0.443
-212.509	-33.984	-0.338	-0.184
-211.494	27.354	0.463	-0.384
-210.479	-145.981	0.079	0.007
-209.465	-200.000	0.025	-0.114
-208.450	16.716	-0.684	0.534
-207.436	78.049	-0.191	0.201
-206.421	800.000	0.177	-0.732
-205.406	367.636	0.179	0.357
-204.392	346.465	0.375	0.727
-203.377	22.702	0.145	-0.117
-202.363	-179.819	0.502	-0.011
-201.348	19.705	-0.237	0.188
-200.333	-139.542	0.581	-0.061
-199.319	-200.000	-0.084	-0.670
-198.304	15.623	0.263	0.204
-197.290	200.269	-0.221	-0.334
-196.275	800.000	0.167	0.698
-195.260	-158.015	-0.878	0.051
-194.246	-200.000	0.048	-0.384
-193.231	-200.000	0.041	-0.205
-192.217	22.238	0.196	0.158
-191.202	-9.062	-0.256	-0.169
-190.187	-90.946	0.350	-0.099
-189.173	-10.014	-0.436	0.286
-188.158	10.267	0.587	-0.440
-187.144	449.849	-0.226	-0.491
-186.129	-102.073	0.493	-0.117
-185.114	-174.000	0.282	0.008
-184.100	-200.000	0.024	-0.473
-183.085	703.126	-0.264	-0.686
-182.071	-54.326	-0.492	0.220
-181.056	-40.735	-0.702	-0.359
-180.042	11.677	-0.349	-0.264
-179.027	800.000	-0.321	0.906
-178.012	51.991	-0.382	0.358
-176.998	-51.014	-0.088	-0.041
-175.983	-139.139	0.173	0.018
-174.969	-123.904	-0.889	-0.138
-173.954	-176.784	0.474	-0.012
-172.939	800.000	0.177	0.508
-171.925	266.787	-0.326	-0.561
-170.910	-14.953	0.225	0.142
-169.896	-89.408	0.688	0.200
-168.881	-107.580	-0.604	0.130
-167.866	-15.124	0.712	0.449
-166.852	227.800	-0.277	0.445
-165.837	-200.000	0.011	-0.064
-164.823	800.000	-0.239	0.811
-163.808	139.500	0.244	0.317
-162.793	-104.992	0.362	0.082
-161.779	-130.623	1.136	0.151
-160.764	78.096	-0.610	-0.642
-159.750	-15.905	-0.025	0.016
-158.735	-178.862	0.594	0.013
-157.720	132.996	-0.397	-0.505
-156.706	800.000	-0.185	0.783
-155.691	800.000	0.294	1.102
-154.677	-42.512	-0.935	-0.469
-153.662	-200.000	-0.137	-0.672
-152.647	114.265	-0.270	0.324
-151.633	-198.337	-0.848	0.005
-150.618	428.940	0.187	-0.398
-149.604	79.484	-0.796	0.841
-148.589	-200.000	0.006	0.179
-147.574	274.575	0.255	0.445
-146.560	360.849	-0.260	-0.512
-145.545	59.274	-0.415	-0.402
-144.531	-200.000	-0.067	0.314
-143.516	691.043	-0.305	-0.786
-142.502	-30.647	0.256	0.143
-141.487	589.520	0.224	0.544
-140.472	92.243	-0.545	0.604
-139.458	106.771	-0.346	0.404
-138.443	7.092	-0.681	0.500
-137.429	93.292	-0.180	-0.200
-136.414	800.000	0.119	0.397
-135.399	48.670	-0.629	0.581
-134.385	-14.377	-0.763	0.483
-133.370	-142.378	-0.624	-0.061
-132.356	54.714	-0.612	-0.581
-131.341	-200.000	-0.051	1.242
-130.326	-200.000	0.053	-0.479
-129.312	309.233	0.265	0.488
-128.297	126.015	0.363	-0.451
-127.283	241.747	-0.086	-0.141
-126.268	2.337	0.088	-0.062
-125.253	27.027	-0.286	0.236
-124.239	-146.321	-0.126	0.011
-123.224	-37.752	0.235	-0.123
-122.210	-134.888	-0.104	-0.012
-121.195	-75.958	-1.050	-0.365
-120.180	800.000	-0.060	0.241
-119.166	52.670	-0.867	-0.815
-118.151	655.651	-0.080	-0.203
-117.137	800.000	-0.186	0.756
-116.122	258.633	0.210	-0.356
-115.107	-7.607	0.277	0.184
-114.093	62.965	-0.815	0.803
-113.078	511.651	-0.147	0.336
-112.064	411.354	-0.286	0.597
-111.049	-169.085	-0.072	-0.003
-110.034	-5.756	0.729	-0.491
-109.020	93.957	0.470	-0.524
-108.005	800.000	0.279	0.975
-106.991	-200.000	0.019	-0.509
-105.976	77.206	-0.354	0.370
-104.962	152.402	-0.747	-1.002
-103.947	381.764	-0.433	-0.875
-102.932	168.771	0.383	-0.537
-101.918	-200.000	-0.020	-0.346
-100.903	800.000	0.126	-0.357
-99.889	-200.000	0.026	-0.673
-98.874	40.070	-0.399	-0.353
-97.859	-138.835	0.452	0.048
-96.845	-92.030	0.063	0.018
-95.830	34.962	0.420	0.361
-94.816	800.000	-0.120	0.501
-93.801	-157.248	-0.614	0.037
-92.786	64.311	0.333	0.329
-91.772	-61.622	-0.272	-0.112
-90.757	182.143	0.306	-0.442
-89.743	800.000	-0.118	0.319
-88.728	-81.709	0.166	-0.053
-87.713	-200.000	0.124	0.719
-86.699	21.079	0.182	0.145
-85.684	-20.366	0.083	0.050
-84.670	-200.000	-0.042	0.455
-83.655	326.836	-0.307	-0.579
-82.640	-63.826	0.207	-0.083
-81.626	800.000	0.157	-0.560
-80.611	-200.000	0.052	0.558
-79.597	-67.747	-0.286	0.110
-78.582	-168.966	0.738	-0.027
-77.567	117.828	0.239	0.289
-76.553	800.000	-0.428	-1.218
-75.538	349.623	0.114	-0.221
-74.524	36.645	-0.194	-0.168
-73.509	-17.272	0.347	0.214
-72.494	5.607	-0.161	0.117
-71.480	15.644	0.102	0.078
-70.465	-164.685	0.882	0.039
-69.451	8.714	-0.550	0.407
-68.436	91.908	0.213	0.236
-67.422	-50.310	-1.005	0.466
-66.407	-200.000	0.054	-0.709
-65.392	-50.673	-0.471	0.218
-64.378	470.529	-0.180	0.397
-63.363	11.958	0.395	0.298
-62.349	-120.848	-0.686	0.113
-61.334	372.392	-0.677	-1.349
-60.319	-166.655	1.217	0.050
-59.305	46.452	0.821	-0.748
-58.290	800.000	-0.494	1.904
-57.276	800.000	0.345	1.162
-56.261	-200.000	98.510	602.041
-55.246	627.578	1372.974	3403.090
-54.232	200.315	2548.308	3841.811
-53.217	111.788	2248.774	2664.005
-52.203	41.209	1880.512	1667.834
-51.188	35.054	1672.670	1437.409
-50.173	32.573	1629.008	1381.664
-49.159	51.412	1680.498	1566.084
-48.144	51.811	1697.483	1584.818
-47.130	34.504	1657.490	1420.045
-46.115	31.935	1641.920	1387.672
-45.100	31.808	1637.360	1382.827
-44.086	31.754	1635.827	1381.076
-43.071	31.700	1632.232	1377.592
-42.057	31.515	1630.878	1375.034
-41.042	31.748	1628.432	1374.629
-40.027	31.930	1624.412	1372.511
-39.013	31.638	1624.539	1370.424
-37.998	31.603	1623.344	1369.112
-36.984	31.643	1620.262	1366.747
-35.969	31.801	1618.980	1366.761
-34.954	31.997	1616.944	1366.419
-33.940	31.726	1616.271	1363.825
-32.925	31.779	1615.238	1363.282
-31.911	31.741	1613.155	1361.195
-30.896	31.623	1611.401	1358.803
-29.881	31.478	1611.497	1357.779
-28.867	31.963	1606.653	1357.152
-27.852	31.796	1605.672	1355.060
-26.838	31.816	1604.554	1354.207
-25.823	31.909	1603.108	1353.609
-24.809	31.686	1602.626	1351.535
-23.794	31.642	1601.157	1349.931
-22.779	31.666	1599.654	1348.782
-21.765	31.776	1598.262	1348.341
-20.750	31.801	1597.003	1347.410
-19.736	31.738	1594.634	1344.904
-18.721	31.764	1593.085	1343.731
-17.706	31.660	1592.409	1342.363
-16.692	31.845	1590.242	1341.805
-15.677	31.809	1588.127	1339.713
-14.663	31.457	1589.688	1338.456
-13.648	31.880	1585.283	1337.710
-12.633	31.537	1585.907	1335.735
-11.619	31.853	1583.085	1335.556
-10.604	31.704	1580.882	1332.590
-9.590	31.878	1580.326	1333.300
-8.575	31.720	1579.326	1331.286
-7.560	31.960	1577.207	1331.144
-6.546	31.942	1576.905	1330.712
-5.531	31.923	1576.072	1329.819
-4.517	31.553	1574.915	1326.172
-3.502	31.710	1573.495	1326.031
-2.487	32.097	1571.830	1327.311
-1.473	31.466	1560.706	1313.435
-0.458	28.479	1541.502	1276.469
0.556	26.408	1541.129	1244.199
1.571	24.191	1564.625	1247.548
2.586	23.484	1576.830	1252.181
3.600	21.006	1524.461	1193.549
4.615	12.296	1417.148	1053.766
5.629	4.621	1353.571	959.209
6.644	3.473	1345.286	946.212
7.659	3.616	1343.569	945.794
8.673	3.295	1343.836	943.930
9.688	3.297	1340.551	941.550
10.702	3.324	1338.318	940.068
11.717	6.683	1344.703	965.034
12.731	15.616	1361.774	1032.302
13.746	23.064	1373.292	1086.905
14.761	24.685	1374.562	1097.781
15.775	24.488	1373.641	1095.734
16.790	24.074	1371.694	1091.547
17.804	24.139	1370.568	1090.956
18.819	23.792	1370.839	1088.948
19.834	23.516	1370.562	1086.938
20.848	23.577	1369.695	1086.532
21.863	23.948	1367.849	1087.236
22.877	23.916	1366.868	1086.168
23.892	23.637	1365.816	1083.533
24.907	23.645	1365.405	1083.157
25.921	23.770	1364.206	1082.872
26.936	23.678	1362.560	1080.911
27.950	24.014	1360.527	1081.242
28.965	23.928	1361.801	1081.639
29.980	23.929	1359.873	1080.019
30.994	23.960	1359.525	1079.836
32.009	23.681	1359.594	1078.098
33.023	23.770	1357.932	1077.225
34.038	23.788	1356.271	1075.920
35.053	24.211	1354.512	1076.986
36.067	23.903	1353.897	1074.541
37.082	23.759	1352.886	1072.778
38.096	23.843	1352.932	1073.226
39.111	23.777	1351.932	1071.939
40.126	23.725	1351.183	1070.936
41.140	23.508	1350.097	1068.673
42.155	23.073	1350.668	1066.406
43.169	23.302	1349.389	1066.684
44.184	23.510	1348.897	1067.454
45.199	23.333	1348.693	1066.128
46.213	23.667	1347.952	1067.460
47.228	23.693	1347.027	1066.787
48.242	23.989	1345.736	1067.449
49.257	23.737	1345.835	1065.919
50.271	23.653	1344.546	1064.298
51.286	23.821	1342.811	1063.836
52.301	23.656	1342.230	1062.298
53.315	23.692	1340.603	1061.131
54.330	23.546	1339.612	1059.383
55.344	23.523	1338.087	1057.946
56.359	23.482	1336.456	1056.314
57.374	23.647	1336.578	1057.303
58.388	23.438	1334.686	1054.468
59.403	23.345	1335.636	1054.575
60.417	23.155	1334.821	1052.706
61.432	23.101	1334.574	1052.098
62.447	23.211	1332.818	1051.274
63.461	23.153	1331.351	1049.675
64.476	23.322	1329.810	1049.372
65.490	23.362	1328.796	1048.714
66.505	23.086	1328.079	1046.426
67.520	23.133	1326.898	1045.677
68.534	23.098	1326.423	1045.005
69.549	23.315	1325.186	1045.219
70.563	22.904	1324.132	1041.872
71.578	23.084	1322.341	1041.428
72.593	23.192	1320.650	1040.640
73.607	22.768	1321.203	1038.490
74.622	22.771	1320.681	1038.003
75.636	22.914	1320.018	1038.230
76.651	22.878	1319.437	1037.471
77.666	23.063	1319.531	1038.542
78.680	23.113	1319.855	1038.999
79.695	23.080	1317.981	1037.239
80.709	23.147	1317.032	1036.791
81.724	23.472	1317.051	1038.620
82.739	23.446	1315.623	1037.247
83.753	23.672	1315.572	1038.438
84.768	24.287	1313.756	1040.501
85.782	23.906	1314.808	1039.016
86.797	23.963	1312.362	1037.327
87.812	23.867	1312.035	1036.419
88.826	23.988	1309.149	1034.747
89.841	24.040	1307.852	1033.931
90.855	23.871	1308.803	1033.614
91.870	24.097	1307.875	1034.100
92.884	24.129	1306.282	1032.933
93.899	24.159	1305.333	1032.267
94.914	23.912	1306.022	1031.290
95.928	24.189	1303.058	1030.456
96.943	24.246	1303.957	1031.406
97.957	24.008	1303.563	1029.629
98.972	24.042	1300.991	1027.700
99.987	23.845	1300.549	1026.126
101.001	23.865	1299.770	1025.536
102.016	23.831	1299.664	1025.166
103.030	23.944	1297.757	1024.222
104.045	23.640	1297.458	1022.142
105.060	23.704	1295.680	1021.018
106.074	23.680	1294.830	1020.125
107.089	23.351	1292.717	1016.481
108.103	23.471	1290.827	1015.593
109.118	22.925	1290.662	1012.246
110.133	23.066	1288.562	1011.315
111.147	22.881	1288.313	1009.970
112.162	23.223	1286.800	1010.650
113.176	23.130	1286.278	1009.618
114.191	23.393	1285.246	1010.218
115.206	23.293	1283.740	1008.375
116.220	23.359	1283.406	1008.399
117.235	23.362	1281.905	1007.149
118.249	23.190	1280.080	1004.651
119.264	22.984	1280.379	1003.625
120.279	22.956	1279.615	1002.781
121.293	22.936	1278.552	1001.746
122.308	22.706	1277.386	999.439
123.322	22.708	1276.789	998.897
124.337	22.916	1275.081	998.649
125.352	22.862	1274.202	997.567
126.366	22.793	1272.975	996.127
127.381	22.941	1272.166	996.239
128.395	22.763	1270.876	994.137
129.410	22.827	1269.827	993.590
130.424	22.858	1269.355	993.309
131.439	22.819	1269.509	993.122
132.454	23.004	1268.209	993.056
133.468	23.208	1267.990	993.943
134.483	23.117	1268.589	993.811
135.497	23.359	1266.982	993.824
136.512	23.184	1266.218	992.154
137.527	23.314	1263.689	990.812
138.541	23.189	1263.326	989.743
139.556	23.277	1261.774	988.927
140.570	23.355	1262.370	989.745
141.585	23.613	1260.208	989.398
142.600	23.790	1259.781	989.964
143.614	24.142	1258.827	991.083
144.629	23.846	1258.720	989.267
145.643	23.686	1256.710	986.709
146.658	23.814	1255.749	986.580
147.673	23.900	1254.262	985.799
148.687	23.603	1253.382	983.378
149.702	23.474	1251.192	980.859
150.716	23.019	1250.919	978.039
151.731	22.928	1249.031	975.976
152.746	22.945	1248.844	975.837
153.760	23.334	1247.612	976.934
154.775	23.513	1247.011	977.361
155.789	23.617	1245.973	977.036
156.804	23.632	1244.436	975.823
157.819	23.479	1243.959	974.525
158.833	23.716	1244.374	976.065
159.848	23.694	1243.349	975.053
160.862	23.693	1241.730	973.691
161.877	23.466	1240.100	971.086
162.892	23.298	1238.622	968.921
163.906	23.184	1238.157	967.853
164.921	22.863	1237.253	965.303
165.935	23.216	1236.475	966.538
166.950	23.487	1235.735	967.352
167.964	23.366	1235.179	966.175
168.979	23.339	1235.163	965.930
169.994	23.709	1233.356	966.441
171.008	23.091	1233.301	962.949
172.023	23.178	1233.818	963.745
173.037	23.349	1232.356	963.447
174.052	23.789	1230.906	964.618
175.067	23.557	1230.026	962.581
176.081	23.279	1228.405	959.722
177.096	23.025	1228.658	958.458
178.110	23.239	1227.404	958.554
179.125	23.290	1225.575	957.316
180.140	23.445	1225.450	957.973
181.154	23.697	1224.029	958.134
182.169	23.815	1222.527	957.514
183.183	23.475	1222.542	955.604
184.198	23.887	1220.350	956.023
185.213	23.816	1220.496	955.673
186.227	23.676	1219.569	954.109
187.242	23.889	1217.881	953.850
188.256	23.896	1217.680	953.642
189.271	23.770	1217.291	952.581
190.286	23.639	1217.140	951.673
191.300	23.356	1215.817	949.038
192.315	23.532	1213.889	948.393
193.329	23.257	1213.986	946.913
194.344	23.230	1214.443	947.042
195.359	23.250	1211.905	945.084
196.373	22.956	1211.912	943.435
197.388	23.189	1212.270	944.875
198.402	23.547	1212.175	946.629
199.417	23.992	1212.442	949.130
200.432	23.828	1211.116	947.135
201.446	23.976	1209.702	946.732
202.461	24.111	1209.831	947.467
203.475	24.090	1208.447	946.186
204.490	23.818	1206.922	943.465
205.504	23.493	1205.285	940.382
206.519	23.191	1206.008	939.259
207.534	23.403	1203.048	937.989
208.548	23.308	1202.137	936.694
209.563	23.394	1202.074	937.017
210.577	23.241	1200.992	935.285
211.592	23.405	1200.143	935.405
212.607	23.839	1199.116	936.810
213.621	23.970	1199.664	937.845
214.636	23.671	1198.319	935.139
215.650	23.772	1197.346	934.827
216.665	23.805	1196.561	934.303
217.680	24.057	1196.481	935.486
218.694	24.142	1195.431	935.028
219.709	23.740	1194.823	932.359
220.723	23.837	1193.536	931.783
221.738	23.902	1192.854	931.507
222.753	23.663	1191.782	929.337
223.767	23.629	1191.797	929.087
224.782	23.881	1190.936	929.652
225.796	24.279	1189.645	930.639
226.811	24.170	1189.043	929.520
227.826	23.676	1188.845	926.702
228.840	23.561	1188.767	925.958
229.855	23.575	1187.822	925.214
230.869	23.711	1186.201	924.579
231.884	23.560	1185.768	923.376
232.899	23.406	1184.557	921.551
233.913	23.200	1184.266	920.171
234.928	23.242	1183.662	919.840
235.942	23.291	1182.429	919.050
236.957	23.097	1181.597	917.320
237.972	23.173	1180.760	916.980
238.986	23.237	1180.017	916.656
240.001	23.136	1179.902	915.959
241.015	23.344	1178.752	916.061
242.030	23.424	1178.058	915.857
243.045	23.798	1177.270	917.093
244.059	23.815	1176.203	916.268
245.074	23.610	1177.010	915.759
246.088	23.677	1176.457	915.591
247.103	23.972	1175.144	916.008
248.117	24.062	1174.768	916.097
249.132	24.394	1173.752	916.928
250.147	24.433	1174.299	917.475
251.161	24.593	1173.587	917.659
252.176	24.540	1173.231	917.028
253.190	24.557	1172.303	916.313
254.205	24.929	1172.466	918.262
255.220	24.861	1171.303	916.924
256.234	24.911	1170.638	916.579
257.249	24.828	1169.926	915.514
258.263	24.648	1169.981	914.554
259.278	24.790	1168.255	913.854
260.293	24.655	1168.860	913.553
261.307	24.865	1167.465	913.453
262.322	24.621	1167.716	912.323
263.336	24.753	1166.576	912.027
264.351	24.762	1164.917	910.696
265.366	24.578	1165.312	909.986
266.380	24.796	1163.971	909.966
267.395	24.724	1162.989	908.751
268.409	24.359	1163.062	906.874
269.424	24.576	1162.419	907.395
270.439	24.716	1160.807	906.765
271.453	24.352	1160.941	904.945
272.468	24.471	1159.101	904.034
273.482	24.368	1158.823	903.216
274.497	24.330	1158.198	902.454
275.512	24.217	1157.565	901.309
276.526	23.935	1157.263	899.568
277.541	24.120	1156.537	899.861
278.555	24.263	1155.959	900.051
279.570	24.509	1154.779	900.297
280.585	25.045	1154.180	902.448
281.599	24.622	1153.706	899.870
282.614	24.418	1151.687	897.187
283.628	24.421	1151.314	896.836
284.643	24.652	1149.434	896.449
285.657	24.220	1149.935	894.592
286.672	24.590	1148.105	894.944
287.687	24.458	1147.592	893.801
288.701	24.567	1148.226	894.763
289.716	24.478	1145.856	892.392
290.730	24.326	1145.345	891.154
291.745	24.549	1144.981	891.910
292.760	24.134	1144.951	889.733
293.774	24.433	1144.608	890.880
294.789	24.774	1143.792	891.869
295.803	24.763	1143.611	891.593
296.818	24.622	1141.885	889.468
297.833	24.291	1141.833	887.698
298.847	24.484	1139.959	887.123
299.862	24.479	1140.170	887.182
300.876	24.564	1138.685	886.373
301.891	24.582	1138.405	886.164
302.906	24.815	1137.526	886.555
303.920	24.720	1138.870	887.055
304.935	25.355	1137.246	888.853
305.949	24.910	1137.464	886.744
306.964	25.005	1135.840	885.869
307.979	25.021	1134.523	884.841
308.993	24.883	1134.781	884.284
310.008	25.096	1133.998	884.648
311.022	24.899	1133.119	882.912
312.037	24.821	1131.617	881.277
313.052	24.781	1130.863	880.414
314.066	24.899	1129.243	879.659
315.081	24.227	1129.010	876.094
316.095	24.054	1128.833	875.031
317.110	24.044	1128.441	874.599
318.125	24.623	1126.033	875.495
319.139	24.534	1125.397	874.486
320.154	24.186	1125.756	872.986
321.168	24.461	1124.052	872.929
322.183	24.159	1123.479	870.932
323.197	24.226	1124.429	871.920
324.212	24.397	1123.931	872.292
325.227	24.124	1123.065	870.209
326.241	24.498	1123.816	872.541
327.256	24.443	1121.670	870.528
328.270	24.417	1120.528	869.438
329.285	24.287	1119.670	868.063
330.300	24.552	1118.477	868.350
331.314	24.261	1118.469	866.853
332.329	24.431	1116.871	866.361
333.343	24.237	1116.309	864.909
334.358	24.442	1115.599	865.277
335.373	24.625	1116.241	866.587
336.387	24.810	1114.934	866.389
337.402	25.031	1114.391	866.959
338.416	24.814	1113.968	865.505
339.431	25.037	1113.396	866.064
340.446	25.074	1113.464	866.215
341.460	25.364	1112.958	867.148
342.475	25.493	1110.992	866.162
343.489	25.553	1110.281	865.816
344.504	25.519	1109.696	865.121
345.519	25.473	1109.157	864.405
346.533	25.327	1108.989	863.492
347.548	25.735	1107.835	864.479
348.562	25.485	1106.620	862.255
349.577	25.427	1105.447	860.988
350.592	25.129	1103.477	857.952
351.606	24.981	1103.702	857.340
352.621	25.002	1101.385	855.568
353.635	24.635	1101.328	853.695
354.650	24.614	1101.331	853.520
355.665	24.671	1101.750	854.041
356.679	24.537	1101.648	853.249
357.694	24.858	1100.638	853.923
358.708	25.044	1099.537	853.876
359.723	25.486	1098.681	855.240
360.738	25.144	1097.779	852.835
361.752	25.085	1098.355	852.929
362.767	24.887	1097.378	851.155
363.781	24.924	1097.140	851.069
364.796	25.378	1096.743	852.842
365.810	25.375	1096.618	852.654
366.825	25.538	1095.774	852.695
367.840	25.581	1095.671	852.746
368.854	25.674	1094.624	852.296
369.869	26.163	1093.957	854.012
370.883	25.630	1093.504	851.063
371.898	25.182	1093.595	848.938
372.913	25.347	1091.664	848.142
373.927	25.321	1091.316	847.677
374.942	25.188	1091.614	847.203
375.956	25.478	1090.134	847.350
376.971	25.500	1089.421	846.822
377.986	25.523	1089.037	846.560
379.000	25.723	1088.355	846.893
380.015	25.784	1088.374	847.123
381.029	26.040	1087.235	847.362
382.044	25.793	1086.874	845.848
383.059	25.505	1086.476	844.107
384.073	25.849	1084.273	843.935
385.088	25.651	1084.885	843.409
386.102	25.551	1084.099	842.257
387.117	25.611	1082.269	841.039
388.132	25.357	1080.908	838.722
389.146	25.485	1079.788	838.372
390.161	25.480	1078.520	837.294
391.175	25.207	1079.008	836.324
392.190	25.471	1078.430	837.032
393.205	25.404	1078.986	837.076
394.219	25.652	1077.786	837.229
395.234	25.233	1076.187	833.965
396.248	25.253	1074.853	832.947
397.263	25.165	1074.652	832.311
398.278	25.345	1073.241	831.980
399.292	25.150	1073.025	830.835
400.307	25.406	1072.823	831.789
401.321	25.121	1071.530	829.398
402.336	25.157	1069.882	828.215
403.350	24.949	1069.648	826.997
404.365	24.789	1070.844	827.111
405.380	25.209	1068.604	827.242
406.394	25.174	1068.985	827.303
407.409	25.447	1067.730	827.519
408.423	25.691	1067.720	828.559
409.438	25.887	1066.829	828.696
410.453	25.784	1066.514	827.903
411.467	25.963	1065.087	827.545
412.482	25.728	1064.445	825.893
413.496	25.676	1064.922	825.951
414.511	25.904	1064.749	826.793
415.526	26.041	1064.276	826.978
416.540	26.345	1062.057	826.574
417.555	26.581	1061.933	827.481
418.569	26.071	1061.562	824.789
419.584	25.927	1061.127	823.719
420.599	25.736	1061.147	822.788
421.613	154.455	1404.563	1794.992
422.628	141.983	1454.586	1795.066
