DTS Sentinel unit serial number:	SN413079Multiplexer serial number:	ORYXHardware model number:	OX4-SRSoftware version number:	ORYX F/W v4.00 Oryx Data Collector v3.7.2.0data status	okinstallation	princeton_trtdifferential loss correction	single-endedforward channel	channel 2reverse channel	N/Adate	2019/09/19time	05:15:35forward acquisition time	60.00reverse acquisition time	0.00gamma	496.2192k internal	0.2351k external	0.2351temperature offset calibration	1.0016default loss term (dB/km)	0.3790temperature slope calibration	1.0000multiplexer offset coefficient	1.0000multiplexer slope coefficient	1.0000fibre end	0.00T internal ref (°C)	19.50T ext. ref 1 (°C)	0.60T ext. ref 2 (°C)	12.74length (m)	temperature (°C)	Stokes	anti-Stokes-747.200	96.701	0.278	0.318
-746.185	-108.939	0.252	-0.054
-745.171	800.000	-0.071	0.209
-744.156	332.135	0.108	0.209
-743.142	109.025	0.068	0.081
-742.127	-61.500	-0.406	0.170
-741.112	-154.444	0.195	0.013
-740.098	-22.124	-0.085	0.052
-739.083	398.780	0.042	-0.088
-738.069	-200.000	-0.003	-0.139
-737.054	770.409	0.032	0.086
-736.039	-57.451	-0.254	0.111
-735.025	28.917	0.273	0.231
-734.010	-143.949	0.093	0.009
-732.996	636.219	0.141	0.357
-731.981	-19.161	-0.324	-0.201
-730.966	800.000	-0.022	0.068
-729.952	-200.000	0.002	-0.170
-728.937	-200.000	0.028	-0.402
-727.923	56.488	-0.247	-0.240
-726.908	-200.000	0.040	-0.191
-725.894	-200.000	0.003	-0.191
-724.879	-124.764	0.149	-0.023
-723.864	43.898	-0.180	-0.165
-722.850	-200.000	0.032	-0.448
-721.835	5.590	-0.274	-0.202
-720.821	128.887	0.226	-0.287
-719.806	112.712	0.062	0.075
-718.791	-141.616	-0.518	-0.052
-717.777	420.928	0.096	-0.205
-716.762	60.294	-0.140	0.139
-715.748	-200.000	0.017	0.140
-714.733	-200.000	-0.045	0.260
-713.718	-200.000	0.022	-0.230
-712.704	799.876	-0.067	-0.184
-711.689	747.328	-0.099	0.266
-710.675	800.000	0.025	-0.096
-709.660	-24.362	0.178	-0.106
-708.645	-30.055	-0.228	0.129
-707.631	-200.000	-0.023	0.151
-706.616	-97.752	-0.050	-0.013
-705.602	55.932	0.171	0.166
-704.587	196.620	-0.170	-0.258
-703.572	216.656	-0.096	-0.153
-702.558	71.008	0.138	0.143
-701.543	38.990	0.347	0.309
-700.529	-200.000	0.013	0.065
-699.514	167.761	0.137	-0.194
-698.499	-132.574	-0.358	-0.046
-697.485	-98.361	0.276	0.070
-696.470	-103.953	-0.347	0.081
-695.456	-200.000	0.008	0.075
-694.441	-200.000	0.016	0.201
-693.426	59.336	0.217	0.213
-692.412	118.113	0.132	0.163
-691.397	308.859	-0.038	0.071
-690.383	130.632	-0.195	0.249
-689.368	-64.585	0.255	0.103
-688.354	-107.066	0.044	0.010
-687.339	355.628	0.113	0.224
-686.324	-200.000	-0.035	0.339
-685.310	-200.000	0.029	-0.233
-684.295	357.503	0.018	0.035
-683.281	-78.393	-0.112	0.038
-682.266	-200.000	0.014	-0.381
-681.251	800.000	0.103	-0.361
-680.237	73.331	0.108	0.112
-679.222	-200.000	-0.002	0.149
-678.208	800.000	-0.050	0.207
-677.193	-200.000	-0.274	0.001
-676.178	-56.633	0.230	0.101
-675.164	-43.950	-0.104	0.052
-674.149	800.000	0.127	-0.352
-673.135	-40.209	0.080	-0.041
-672.120	800.000	-0.074	0.266
-671.105	-200.000	-0.017	0.117
-670.091	457.004	-0.068	-0.151
-669.076	-141.950	-0.202	-0.020
-668.062	-112.238	0.042	0.008
-667.047	-173.766	-0.067	-0.002
-666.032	800.000	0.114	0.326
-665.018	232.456	-0.106	0.172
-664.003	325.466	-0.139	-0.265
-662.989	-200.000	-0.030	-0.138
-661.974	228.914	0.206	0.333
-660.959	-200.000	-0.008	-0.161
-659.945	-43.926	0.097	0.049
-658.930	-70.136	-0.334	-0.126
-657.916	4.970	0.172	0.126
-656.901	77.688	0.336	-0.356
-655.886	124.095	-0.204	-0.255
-654.872	-140.858	-0.259	0.026
-653.857	138.232	-0.209	0.273
-652.843	98.365	-0.129	0.148
-651.828	45.737	-0.216	0.199
-650.814	37.500	-0.087	-0.077
-649.799	-200.000	0.007	-0.062
-648.784	800.000	0.050	-0.148
-647.770	800.000	0.143	-0.430
-646.755	-200.000	-0.014	0.116
-645.741	800.000	-0.004	0.013
-644.726	-137.620	-0.056	0.006
-643.711	-95.645	0.317	-0.084
-642.697	-96.960	0.187	-0.049
-641.682	32.941	-0.146	0.126
-640.668	91.645	0.058	0.065
-639.653	-68.017	0.223	0.087
-638.638	-53.209	0.048	-0.022
-637.624	-155.048	0.107	0.007
-636.609	-17.014	-0.137	0.086
-635.595	224.509	-0.159	0.256
-634.580	190.958	-0.080	0.119
-633.565	404.438	-0.208	0.436
-632.551	-6.256	0.229	-0.155
-631.536	-200.000	0.039	-0.272
-630.522	176.412	0.191	0.276
-629.507	-158.114	0.371	-0.022
-628.492	-139.013	-0.294	0.032
-627.478	166.074	0.062	0.087
-626.463	18.580	0.311	0.247
-625.449	-200.000	0.014	-0.263
-624.434	-31.617	0.171	-0.096
-623.419	-68.780	-0.230	0.088
-622.405	360.647	0.205	-0.408
-621.390	-200.000	0.001	0.195
-620.376	-24.667	0.283	-0.167
-619.361	-54.487	-0.272	-0.122
-618.346	800.000	0.083	0.237
-617.332	-145.756	0.126	-0.011
-616.317	-132.008	-0.169	-0.022
-615.303	358.068	0.106	-0.210
-614.288	800.000	0.035	0.153
-613.273	131.727	0.057	0.073
-612.259	800.000	0.062	-0.240
-611.244	-90.889	-0.275	0.078
-610.230	400.335	0.179	0.373
-609.215	-6.929	-0.190	0.128
-608.201	-200.000	0.027	0.141
-607.186	-180.545	-0.137	-0.003
-606.171	-200.000	0.003	-0.055
-605.157	145.560	0.131	0.174
-604.142	-14.197	0.290	0.185
-603.128	-130.743	0.163	-0.022
-602.113	195.601	-0.032	-0.049
-601.098	800.000	-0.105	-0.409
-600.084	-80.671	-0.426	0.141
-599.069	-158.239	0.502	0.029
-598.055	43.976	-0.208	-0.189
-597.040	143.249	-0.128	-0.169
-596.025	510.617	-0.115	-0.264
-595.011	-84.811	-0.225	0.070
-593.996	-23.238	0.346	-0.206
-592.982	800.000	0.039	0.164
-591.967	20.780	0.144	-0.116
-590.952	-200.000	-0.020	-0.195
-589.938	95.504	-0.237	-0.268
-588.923	190.394	0.107	0.159
-587.909	-101.005	0.083	0.020
-586.894	-146.202	-0.452	-0.039
-585.879	-93.910	-0.282	0.077
-584.865	109.823	-0.231	-0.275
-583.850	-200.000	0.030	-0.273
-582.836	-80.812	0.109	-0.036
-581.821	800.000	0.079	-0.231
-580.806	117.141	-0.142	-0.173
-579.792	336.323	0.115	-0.220
-578.777	143.399	0.090	0.118
-577.763	357.624	-0.073	0.144
-576.748	122.989	-0.165	-0.205
-575.733	80.420	0.328	0.350
-574.719	206.779	0.187	-0.289
-573.704	800.000	-0.090	0.363
-572.690	-200.000	0.000	0.228
-571.675	-153.485	-0.178	0.012
-570.661	-158.219	-0.389	-0.023
-569.646	-9.884	0.174	-0.115
-568.631	800.000	0.010	-0.035
-567.617	800.000	0.033	-0.093
-566.602	133.036	0.130	0.167
-565.588	800.000	0.079	-0.264
-564.573	41.971	-0.138	0.124
-563.558	-137.752	-0.215	-0.024
-562.544	-44.587	0.092	-0.046
-561.529	-168.839	-0.209	0.008
-560.515	-114.714	-0.071	-0.013
-559.500	144.892	-0.246	-0.325
-558.485	179.413	0.051	0.074
-557.471	609.728	-0.067	0.166
-556.456	-200.000	-0.104	-0.603
-555.442	-200.000	-0.026	-0.393
-554.427	-200.000	0.032	-0.217
-553.412	0.779	-0.217	0.154
-552.398	-156.682	0.392	-0.024
-551.383	-28.790	0.141	-0.080
-550.369	50.749	0.154	0.145
-549.354	68.329	-0.202	0.205
-548.339	-5.333	0.211	0.144
-547.325	40.510	0.071	-0.064
-546.310	-47.405	-0.267	0.128
-545.296	210.819	0.083	-0.129
-544.281	-135.717	0.138	-0.016
-543.266	-200.000	-0.058	0.362
-542.252	-75.625	0.180	0.063
-541.237	-126.687	-0.209	-0.031
-540.223	800.000	-0.117	0.385
-539.208	678.499	0.070	-0.181
-538.193	671.360	-0.141	-0.361
-537.179	-110.149	0.314	0.065
-536.164	800.000	0.061	0.208
-535.150	41.179	-0.036	-0.032
-534.135	147.779	0.027	-0.036
-533.121	-142.200	0.229	0.022
-532.106	-200.000	0.017	-0.292
-531.091	-200.000	0.014	-0.159
-530.077	-129.450	0.077	0.011
-529.062	-102.011	-0.141	-0.034
-528.048	266.707	-0.174	-0.301
-527.033	-6.440	-0.310	0.209
-526.018	134.301	0.077	-0.098
-525.004	-103.718	0.181	0.042
-523.989	-175.206	-0.131	0.004
-522.975	78.429	0.144	-0.152
-521.960	21.075	-0.077	0.062
-520.945	123.091	-0.127	-0.157
-519.931	195.300	0.173	-0.260
-518.916	-200.000	0.002	-0.107
-517.902	800.000	0.140	-0.388
-516.887	-200.000	0.023	-0.308
-515.872	-94.565	0.288	0.078
-514.858	-200.000	0.039	0.186
-513.843	475.002	0.014	0.030
-512.829	-200.000	-0.008	0.040
-511.814	-200.000	0.070	-0.379
-510.799	-92.031	-0.238	0.067
-509.785	468.882	-0.084	-0.187
-508.770	-107.526	0.035	-0.008
-507.756	-135.158	-0.129	0.015
-506.741	-38.784	-0.244	0.127
-505.726	99.631	0.136	-0.155
-504.712	-99.820	-0.355	0.088
-503.697	-3.561	-0.144	-0.099
-502.683	487.872	0.140	-0.317
-501.668	-45.466	-0.367	0.180
-500.653	-200.000	0.046	-0.221
-499.639	800.000	0.012	0.032
-498.624	-200.000	0.093	0.417
-497.610	-19.193	-0.277	0.170
-496.595	800.000	0.025	-0.079
-495.581	56.262	-0.371	0.357
-494.566	-117.222	-0.211	-0.038
-493.551	-200.000	-0.028	0.185
-492.537	161.440	0.107	0.148
-491.522	84.124	0.200	0.216
-490.508	-179.468	-0.244	0.005
-489.493	-29.873	-0.509	0.287
-488.478	-47.656	-0.327	-0.157
-487.464	-44.736	-0.202	0.100
-486.449	-153.644	0.269	-0.018
-485.435	-41.882	0.465	-0.235
-484.420	-200.000	0.018	-0.180
-483.405	-43.797	0.301	0.150
-482.391	-162.839	0.427	0.021
-481.376	-200.000	0.009	-0.163
-480.362	-200.000	-0.021	0.454
-479.347	-200.000	0.040	0.194
-478.332	386.771	0.155	-0.315
-477.318	-75.583	-0.256	-0.090
-476.303	668.561	-0.074	0.190
-475.289	-52.186	0.471	0.216
-474.274	800.000	0.051	-0.218
-473.259	-102.524	-0.048	0.011
-472.245	-194.864	-0.163	-0.001
-471.230	212.836	0.100	-0.155
-470.216	-200.000	-0.042	0.261
-469.201	-140.373	-0.236	-0.024
-468.186	-200.000	0.021	-0.118
-467.172	62.971	0.262	0.259
-466.157	800.000	-0.033	-0.140
-465.143	-200.000	0.038	-0.170
-464.128	11.417	-0.157	0.119
-463.113	-81.634	0.209	-0.068
-462.099	-200.000	-0.019	-0.083
-461.084	177.700	-0.143	0.205
-460.070	-126.751	0.256	0.037
-459.055	269.980	0.045	-0.078
-458.040	27.892	-0.184	0.153
-457.026	-16.720	0.082	0.051
-456.011	-124.231	0.225	0.035
-454.997	13.076	0.181	0.138
-453.982	78.016	0.222	0.234
-452.968	-200.000	0.018	-0.152
-451.953	-200.000	0.024	-0.125
-450.938	247.801	-0.127	-0.212
-449.924	380.130	-0.147	-0.297
-448.909	800.000	-0.115	0.481
-447.895	85.245	0.089	0.096
-446.880	332.814	0.152	0.289
-445.865	-124.179	-0.075	0.012
-444.851	-185.427	-0.215	-0.003
-443.836	188.669	-0.079	0.116
-442.822	800.000	-0.067	0.196
-441.807	-200.000	-0.007	0.305
-440.792	280.447	-0.273	-0.482
-439.778	-159.812	-0.102	-0.006
-438.763	-124.905	-0.114	0.017
-437.749	-120.213	-0.108	-0.018
-436.734	-200.000	0.050	-0.418
-435.719	-200.000	0.020	-0.089
-434.705	45.506	0.081	0.073
-433.690	-109.197	0.223	0.047
-432.676	-81.891	0.530	-0.171
-431.661	19.314	0.236	0.187
-430.646	800.000	0.093	0.362
-429.632	-7.338	0.275	0.184
-428.617	687.521	0.083	0.214
-427.603	186.247	-0.100	-0.146
-426.588	397.132	-0.106	-0.218
-425.573	-17.351	0.439	-0.272
-424.559	-49.554	0.075	-0.035
-423.544	31.832	-0.171	0.145
-422.530	-158.356	-0.254	-0.015
-421.515	24.633	-0.131	-0.107
-420.500	32.550	0.064	-0.054
-419.486	-62.948	-0.228	0.093
-418.471	-200.000	-0.017	-0.175
-417.457	-200.000	0.015	0.175
-416.442	173.874	0.140	-0.200
-415.428	-200.000	0.005	-0.036
-414.413	239.480	0.064	0.105
-413.398	-200.000	0.046	-0.226
-412.384	40.207	0.223	-0.198
-411.369	331.232	0.104	0.198
-410.355	-57.048	-0.178	-0.077
-409.340	-108.678	0.216	0.046
-408.325	-80.745	-0.257	-0.084
-407.311	-69.174	-0.250	-0.095
-406.296	83.149	-0.125	-0.134
-405.282	450.574	-0.104	-0.227
-404.267	-79.955	-0.018	0.006
-403.252	-200.000	0.037	0.197
-402.238	-200.000	-0.016	0.351
-401.223	800.000	0.031	-0.125
-400.209	800.000	0.031	-0.113
-399.194	592.655	-0.114	-0.277
-398.179	-86.756	-0.267	0.080
-397.165	2.335	0.067	-0.048
-396.150	800.000	0.127	-0.388
-395.136	196.483	-0.099	0.148
-394.121	-165.999	0.247	0.010
-393.106	-69.088	0.208	-0.079
-392.092	29.757	-0.300	0.252
-391.077	-200.000	0.029	-0.143
-390.063	-64.372	-0.304	0.122
-389.048	-33.394	-0.225	0.123
-388.033	-200.000	0.039	0.203
-387.019	53.191	0.218	0.206
-386.004	-200.000	0.013	-0.075
-384.990	800.000	-0.079	-0.275
-383.975	-38.268	0.160	-0.083
-382.960	-70.154	0.158	-0.059
-381.946	-71.824	-0.208	0.076
-380.931	-63.565	-0.262	0.106
-379.917	-200.000	0.039	-0.233
-378.902	131.191	-0.213	0.270
-377.888	667.695	0.010	0.025
-376.873	463.400	-0.095	-0.208
-375.858	-200.000	0.053	0.318
-374.844	-7.871	-0.056	-0.037
-373.829	332.169	0.017	0.032
-372.815	32.736	-0.241	0.205
-371.800	-200.000	-0.054	0.451
-370.785	-200.000	-0.028	0.137
-369.771	800.000	0.080	0.272
-368.756	443.263	-0.087	-0.187
-367.742	83.158	-0.128	-0.137
-366.727	-177.505	-0.146	0.004
-365.712	413.792	0.128	0.267
-364.698	-200.000	0.002	0.364
-363.683	800.000	0.032	0.129
-362.669	296.957	-0.170	-0.307
-361.654	121.117	0.334	0.408
-360.639	-131.666	-0.164	-0.021
-359.625	246.550	0.095	0.157
-358.610	800.000	-0.054	-0.221
-357.596	-67.849	0.358	-0.138
-356.581	-117.674	0.105	-0.019
-355.566	800.000	-0.031	0.100
-354.552	747.691	-0.080	-0.211
-353.537	35.293	-0.121	0.105
-352.523	-200.000	0.044	-0.424
-351.508	161.162	0.168	0.231
-350.493	650.663	0.085	0.214
-349.479	143.662	0.212	-0.277
-348.464	82.401	0.025	0.027
-347.450	535.806	-0.004	-0.009
-346.435	800.000	-0.019	0.074
-345.420	112.291	0.252	-0.299
-344.406	3.102	-0.041	0.029
-343.391	41.791	-0.257	0.229
-342.377	-200.000	-0.016	-0.153
-341.362	-45.781	-0.016	-0.008
-340.348	-200.000	-0.038	-0.319
-339.333	-200.000	-0.047	0.235
-338.318	-61.836	0.022	-0.009
-337.304	220.726	0.152	-0.240
-336.289	13.004	0.123	0.094
-335.275	-3.568	0.128	-0.087
-334.260	-81.261	-0.305	0.099
-333.245	-63.177	0.316	0.128
-332.231	800.000	-0.043	-0.151
-331.216	54.899	0.219	0.207
-330.202	-106.401	0.207	0.045
-329.187	583.731	0.039	-0.095
-328.172	16.799	-0.248	-0.193
-327.158	295.845	-0.019	0.033
-326.143	-133.942	-0.068	0.008
-325.129	28.524	-0.164	-0.136
-324.114	101.342	-0.200	-0.228
-323.099	-200.000	0.078	-0.342
-322.085	-51.493	-0.189	-0.087
-321.070	131.551	-0.084	-0.106
-320.056	-200.000	-0.008	0.122
-319.041	54.610	0.137	0.130
-318.026	-125.727	0.420	-0.062
-317.012	778.557	-0.021	-0.056
-315.997	87.502	-0.134	-0.145
-314.983	-142.895	-0.230	0.022
-313.968	94.804	-0.045	0.050
-312.953	-8.487	0.187	0.123
-311.939	-133.804	0.391	0.048
-310.924	-23.821	0.032	0.019
-309.910	115.719	-0.065	-0.078
-308.895	-89.466	-0.218	-0.063
-307.880	-65.336	-0.030	0.012
-306.866	351.484	-0.057	0.111
-305.851	213.928	0.043	0.067
-304.837	226.145	-0.162	0.258
-303.822	800.000	-0.068	-0.193
-302.807	32.617	0.101	-0.086
-301.793	-200.000	-0.032	0.322
-300.778	-50.025	-0.077	-0.036
-299.764	-31.359	0.132	-0.073
-298.749	-68.823	0.203	-0.077
-297.735	-84.416	0.297	0.092
-296.720	81.475	-0.147	-0.156
-295.705	-44.070	0.256	0.126
-294.691	-27.948	-0.176	0.100
-293.676	-200.000	0.000	0.140
-292.662	333.265	-0.127	-0.240
-291.647	-142.435	0.232	0.022
-290.632	-4.020	0.143	0.097
-289.618	-200.000	0.070	0.309
-288.603	-101.835	-0.044	-0.011
-287.589	344.877	-0.125	-0.241
-286.574	217.639	-0.235	0.368
-285.559	-106.168	0.066	0.015
-284.545	24.518	0.028	-0.023
-283.530	193.343	-0.233	0.346
-282.516	-200.000	-0.028	-0.144
-281.501	-200.000	-0.050	0.245
-280.486	85.234	0.053	-0.057
-279.472	67.211	-0.055	-0.055
-278.457	-16.648	-0.105	0.065
-277.443	21.372	-0.206	0.164
-276.428	-38.639	-0.007	-0.004
-275.413	-19.400	0.196	-0.119
-274.399	-137.344	-0.196	0.022
-273.384	-62.149	0.344	0.140
-272.370	562.753	-0.190	0.451
-271.355	-71.761	-0.325	0.119
-270.340	-95.828	0.190	0.050
-269.326	-10.352	-0.175	0.114
-268.311	-200.000	0.040	-0.187
-267.297	-139.388	0.213	0.022
-266.282	296.985	-0.212	-0.380
-265.267	-129.402	-0.010	0.001
-264.253	-78.416	-0.213	0.071
-263.238	-128.217	0.176	0.025
-262.224	-8.619	0.268	-0.176
-261.209	-76.489	-0.259	-0.089
-260.195	-51.659	-0.229	-0.105
-259.180	800.000	0.050	0.177
-258.165	-200.000	0.619	-0.000
-257.151	800.000	-0.037	-0.106
-256.136	191.784	0.173	0.256
-255.122	-200.000	0.011	-0.341
-254.107	-13.272	-0.461	0.293
-253.092	223.573	0.167	0.264
-252.078	-24.207	0.298	0.174
-251.063	83.334	0.333	0.355
-250.049	-126.066	-0.132	-0.019
-249.034	217.218	-0.039	-0.060
-248.019	-200.000	0.009	-0.181
-247.005	167.843	-0.217	0.302
-245.990	355.981	0.054	-0.105
-244.976	-121.025	0.090	0.015
-243.961	800.000	-0.034	0.099
-242.946	291.059	-0.149	0.265
-241.932	174.313	-0.151	0.214
-240.917	-115.577	-0.317	0.058
-239.903	148.631	-0.097	0.128
-238.888	800.000	-0.051	-0.190
-237.873	800.000	0.070	-0.289
-236.859	800.000	0.072	0.266
-235.844	149.296	0.190	0.252
-234.830	32.364	0.399	-0.337
-233.815	-200.000	-0.018	-0.335
-232.800	-200.000	0.021	-0.216
-231.786	-200.000	-0.001	-0.092
-230.771	-158.336	-0.455	-0.026
-229.757	-20.052	-0.080	0.049
-228.742	-200.000	0.054	-0.232
-227.727	-200.000	0.037	0.300
-226.713	-200.000	0.023	-0.287
-225.698	-11.523	-0.213	0.137
-224.684	-47.750	-0.198	0.094
-223.669	-168.356	0.572	0.022
-222.655	-82.860	-0.148	-0.047
-221.640	-142.764	-0.307	0.029
-220.625	-120.789	0.217	-0.036
-219.611	-126.233	-0.212	-0.031
-218.596	-200.000	-0.042	0.214
-217.582	-48.292	0.280	-0.132
-216.567	314.122	0.147	0.271
-215.552	800.000	-0.112	-0.314
-214.538	-4.126	0.253	-0.172
-213.523	339.322	-0.117	-0.223
-212.509	135.277	-0.127	-0.162
-211.494	-112.565	0.158	0.031
-210.479	-200.000	0.022	0.314
-209.465	800.000	-0.047	0.162
-208.450	163.187	-0.258	0.355
-207.436	3.056	-0.299	-0.213
-206.421	-200.000	0.056	0.433
-205.406	180.663	0.100	0.144
-204.392	-10.829	-0.336	0.217
-203.377	458.283	-0.119	0.258
-202.363	-200.000	0.059	-0.268
-201.348	-141.996	0.221	-0.021
-200.333	12.074	0.062	0.047
-199.319	-79.413	-0.194	-0.064
-198.304	213.674	-0.144	0.222
-197.290	-200.000	-0.003	0.029
-196.275	-26.175	-0.232	-0.133
-195.260	-200.000	-0.011	-0.300
-194.246	-84.518	0.155	0.048
-193.231	-114.570	0.306	0.057
-192.217	201.406	0.005	0.008
-191.202	-5.954	-0.094	-0.063
-190.187	-149.607	-0.165	0.013
-189.173	-200.000	0.066	-0.293
-188.158	750.829	-0.052	-0.138
-187.144	-54.478	0.256	-0.113
-186.129	66.971	0.074	0.073
-185.114	800.000	0.043	0.148
-184.100	-88.758	0.277	0.080
-183.085	252.019	-0.121	0.201
-182.071	800.000	-0.129	-0.470
-181.056	-35.346	0.205	-0.109
-180.042	-150.028	-0.083	0.006
-179.027	-200.000	-0.038	-0.182
-178.012	255.194	0.081	-0.135
-176.998	436.839	0.097	0.206
-175.983	-36.412	0.204	0.107
-174.969	108.659	-0.157	0.183
-173.954	-70.375	0.195	0.072
-172.939	-200.000	0.017	-0.122
-171.925	-200.000	0.008	0.066
-170.910	-19.550	-0.154	0.093
-169.896	-64.758	-0.145	-0.057
-168.881	-159.321	-0.084	0.005
-167.866	141.183	0.097	0.125
-166.852	13.897	-0.234	0.178
-165.837	36.397	0.120	0.103
-164.823	-74.975	-0.242	0.085
-163.808	568.424	-0.069	-0.163
-162.793	-200.000	0.015	-0.120
-161.779	-46.994	0.472	-0.225
-160.764	800.000	-0.094	-0.265
-159.750	-42.361	0.168	0.084
-158.735	800.000	0.031	-0.113
-157.720	-52.144	-0.034	-0.015
-156.706	136.069	-0.047	0.060
-155.691	-200.000	0.015	0.357
-154.677	145.972	-0.080	0.105
-153.662	-200.000	-0.038	-0.330
-152.647	118.747	0.126	-0.151
-151.633	-59.849	-0.177	-0.074
-150.618	387.093	0.104	0.209
-149.604	-79.027	-0.157	0.052
-148.589	131.930	-0.176	-0.221
-147.574	-164.070	0.530	-0.024
-146.560	11.923	0.131	-0.098
-145.545	-200.000	0.030	-0.208
-144.531	800.000	-0.053	0.171
-143.516	-190.260	0.074	-0.001
-142.502	-200.000	-0.049	-0.345
-141.487	-73.725	0.203	-0.072
-140.472	-200.000	-0.046	0.251
-139.458	-136.495	-0.239	0.027
-138.443	111.565	-0.118	-0.139
-137.429	142.775	0.286	0.370
-136.414	-200.000	-0.032	-0.243
-135.399	800.000	-0.052	-0.170
-134.385	800.000	-0.024	-0.096
-133.370	58.439	0.097	-0.093
-132.356	-81.465	-0.172	0.055
-131.341	-70.310	0.098	-0.036
-130.326	192.706	0.151	-0.223
-129.312	-200.000	0.052	0.350
-128.297	268.923	0.166	0.284
-127.283	800.000	-0.070	-0.261
-126.268	34.888	-0.103	-0.087
-125.253	51.407	-0.260	-0.241
-124.239	-200.000	0.133	-0.623
-123.224	-200.000	0.073	0.348
-122.210	-200.000	0.004	0.246
-121.195	8.648	-0.098	-0.072
-120.180	-137.011	-0.250	-0.028
-119.166	800.000	0.032	0.098
-118.151	-90.927	-0.080	0.022
-117.137	327.210	0.119	-0.223
-116.122	153.004	-0.093	0.124
-115.107	-52.623	0.123	-0.055
-114.093	-41.954	0.176	-0.088
-113.078	627.967	0.144	-0.355
-112.064	800.000	0.083	0.336
-111.049	-144.658	0.107	0.010
-110.034	56.306	0.156	0.147
-109.020	-200.000	-0.011	0.295
-108.005	11.034	0.157	0.117
-106.991	-200.000	0.025	0.129
-105.976	-176.937	-0.151	-0.004
-104.962	-92.355	-0.312	-0.086
-103.947	-31.249	-0.495	0.271
-102.932	198.347	0.208	-0.310
-101.918	-138.819	0.219	-0.023
-100.903	800.000	0.049	0.160
-99.889	-61.380	0.264	0.108
-98.874	12.043	-0.081	0.061
-97.859	-44.166	0.402	-0.196
-96.845	190.959	0.096	-0.140
-95.830	-200.000	0.016	-0.266
-94.816	270.229	-0.134	0.229
-93.801	-200.000	-0.027	0.341
-92.786	-160.254	-0.287	0.015
-91.772	-114.871	-0.266	0.049
-90.757	42.998	-0.063	0.056
-89.743	-105.652	0.164	-0.036
-88.728	-42.169	0.123	-0.061
-87.713	229.588	0.023	-0.036
-86.699	-200.000	0.060	0.359
-85.684	800.000	-0.102	0.375
-84.670	76.922	0.343	0.354
-83.655	99.425	-0.067	-0.076
-82.640	108.830	0.083	-0.097
-81.626	800.000	0.133	-0.360
-80.611	305.293	0.165	0.298
-79.597	96.474	0.050	-0.056
-78.582	800.000	0.055	0.233
-77.567	-181.357	0.218	0.004
-76.553	-109.853	-0.305	-0.062
-75.538	4.778	-0.101	0.072
-74.524	-66.459	0.166	-0.064
-73.509	-41.189	0.261	0.131
-72.494	152.651	-0.199	-0.264
-71.480	126.105	-0.236	0.291
-70.465	767.728	-0.092	0.244
-69.451	-148.826	0.269	-0.021
-68.436	161.016	0.104	0.141
-67.422	-200.000	-0.022	0.211
-66.407	70.922	0.051	0.052
-65.392	86.218	0.251	-0.269
-64.378	-139.045	-0.250	0.026
-63.363	-200.000	-0.004	-0.128
-62.349	-200.000	-0.012	0.196
-61.334	-0.367	-1.425	-0.983
-60.319	153.313	0.557	0.741
-59.305	800.000	-0.433	-1.678
-58.290	221.650	0.908	1.418
-57.276	308.022	0.735	1.333
-56.261	-200.000	137.254	630.939
-55.246	345.402	1644.364	3137.676
-54.232	136.915	2785.288	3534.483
-53.217	77.450	2299.891	2376.897
-52.203	27.835	1904.393	1558.538
-51.188	22.308	1700.581	1349.423
-50.173	20.578	1663.843	1307.221
-49.159	41.436	1738.336	1527.560
-48.144	37.882	1746.381	1507.163
-47.130	21.833	1698.505	1343.923
-46.115	19.585	1683.389	1314.812
-45.100	19.410	1678.190	1309.370
-44.086	19.404	1675.603	1307.255
-43.071	19.351	1672.970	1304.744
-42.057	19.351	1670.741	1302.959
-41.042	19.377	1668.675	1301.493
-40.027	19.411	1666.424	1299.941
-39.013	19.387	1664.396	1298.125
-37.998	19.403	1663.268	1297.313
-36.984	19.377	1662.365	1296.361
-35.969	19.487	1660.568	1295.734
-34.954	19.564	1658.858	1294.926
-33.940	19.515	1657.156	1293.184
-32.925	19.405	1655.362	1290.908
-31.911	19.482	1653.629	1290.077
-30.896	19.495	1652.472	1289.221
-29.881	19.574	1650.343	1288.100
-28.867	19.471	1649.354	1286.508
-27.852	19.459	1647.769	1285.132
-26.838	19.410	1646.696	1283.879
-25.823	19.489	1645.249	1283.285
-24.809	19.532	1644.120	1282.678
-23.794	19.579	1641.981	1281.306
-22.779	19.522	1641.387	1280.368
-21.765	19.492	1639.625	1278.722
-20.750	19.554	1638.067	1277.913
-19.736	19.506	1636.996	1276.672
-18.721	19.556	1635.446	1275.785
-17.706	19.550	1633.540	1274.202
-16.692	19.470	1632.318	1272.610
-15.677	19.553	1631.058	1272.185
-14.663	19.560	1629.421	1270.911
-13.648	19.591	1628.356	1270.256
-12.633	19.550	1626.476	1268.441
-11.619	19.508	1625.081	1266.991
-10.604	19.567	1623.310	1265.996
-9.590	19.520	1622.449	1264.928
-8.575	19.506	1621.211	1263.810
-7.560	19.584	1619.781	1263.214
-6.546	19.511	1619.168	1262.156
-5.531	19.503	1618.137	1261.244
-4.517	19.500	1616.938	1260.234
-3.502	19.513	1616.168	1259.677
-2.487	19.503	1614.545	1258.288
-1.473	19.111	1601.311	1245.092
-0.458	16.009	1581.325	1207.313
0.556	11.256	1583.180	1174.436
1.571	9.032	1606.754	1175.537
2.586	8.815	1618.206	1182.211
3.600	8.477	1563.138	1139.473
4.615	4.956	1459.495	1040.357
5.629	1.390	1405.016	978.489
6.644	0.656	1398.836	969.395
7.659	0.575	1398.330	968.435
8.673	0.576	1397.449	967.747
9.688	0.583	1394.688	965.798
10.702	0.428	1391.236	962.333
11.717	2.280	1393.168	975.404
12.731	7.917	1400.886	1016.805
13.746	14.270	1411.284	1065.024
14.761	17.005	1414.873	1085.155
15.775	16.585	1413.789	1081.542
16.790	15.601	1411.004	1073.032
17.804	14.888	1408.462	1066.461
18.819	14.456	1407.138	1062.609
19.834	14.237	1405.928	1060.210
20.848	14.143	1404.510	1058.450
21.863	13.847	1403.372	1055.615
22.877	13.630	1402.017	1053.121
23.892	13.517	1401.071	1051.602
24.907	13.583	1400.368	1051.401
25.921	13.556	1399.668	1050.607
26.936	13.589	1398.545	1049.881
27.950	13.708	1397.331	1049.629
28.965	13.814	1396.386	1049.496
29.980	13.725	1395.788	1048.395
30.994	13.808	1394.608	1047.942
32.009	13.849	1393.414	1047.205
33.023	13.765	1392.915	1046.210
34.038	13.793	1391.426	1045.175
35.053	13.707	1390.182	1043.608
36.067	13.710	1389.203	1042.801
37.082	13.743	1388.552	1042.424
38.096	13.802	1387.216	1041.701
39.111	13.781	1386.407	1040.866
40.126	13.677	1385.728	1039.616
41.140	13.625	1385.379	1038.938
42.155	13.563	1384.844	1038.053
43.169	13.581	1384.239	1037.621
44.184	13.612	1383.966	1037.522
45.199	13.589	1383.610	1037.014
46.213	13.622	1383.297	1036.897
47.228	13.655	1382.139	1036.145
48.242	13.655	1380.743	1035.003
49.257	13.690	1379.557	1034.239
50.271	13.601	1378.300	1032.656
51.286	13.750	1375.705	1031.545
52.301	13.597	1374.793	1029.822
53.315	13.705	1374.172	1029.932
54.330	13.545	1373.127	1028.065
55.344	13.617	1371.983	1027.566
56.359	13.551	1370.960	1026.299
57.374	13.621	1369.830	1025.797
58.388	13.634	1368.679	1024.926
59.403	13.503	1368.515	1023.901
60.417	13.562	1367.509	1023.421
61.432	13.579	1366.725	1022.852
62.447	13.545	1365.620	1021.719
63.461	13.454	1365.077	1020.666
64.476	13.461	1363.728	1019.611
65.490	13.535	1362.178	1018.815
66.505	13.531	1360.991	1017.815
67.520	13.519	1359.748	1016.718
68.534	13.603	1358.377	1016.120
69.549	13.618	1357.461	1015.434
70.563	13.617	1356.437	1014.573
71.578	13.541	1354.894	1012.866
72.593	13.473	1354.620	1012.154
73.607	13.511	1353.387	1011.378
74.622	13.411	1352.506	1010.017
75.636	13.504	1351.810	1009.974
76.651	13.401	1351.224	1008.822
77.666	13.545	1350.101	1008.768
78.680	13.473	1349.735	1007.972
79.695	13.394	1349.367	1007.127
80.709	13.509	1348.423	1007.030
81.724	13.529	1347.375	1006.282
82.739	13.588	1346.277	1005.727
83.753	13.660	1345.411	1005.431
84.768	13.699	1344.287	1004.738
85.782	13.726	1342.980	1003.833
86.797	13.757	1341.456	1002.794
87.812	13.641	1340.400	1001.215
88.826	13.604	1339.580	1000.290
89.841	13.680	1338.105	999.558
90.855	13.731	1337.204	999.106
91.870	13.651	1336.310	997.868
92.884	13.661	1335.407	997.164
93.899	13.707	1335.001	997.052
94.914	13.780	1333.928	996.600
95.928	13.732	1333.230	995.702
96.943	13.855	1332.252	995.621
97.957	13.763	1331.274	994.252
98.972	13.831	1329.825	993.486
99.987	13.756	1328.924	992.279
101.001	13.771	1328.023	991.609
102.016	13.846	1326.198	990.606
103.030	13.747	1325.632	989.505
104.045	13.636	1324.892	988.200
105.060	13.717	1323.821	987.794
106.074	13.672	1321.955	986.052
107.089	13.706	1320.909	985.387
108.103	13.553	1319.650	983.452
109.118	13.622	1318.345	982.797
110.133	13.581	1317.092	981.535
111.147	13.695	1315.517	980.950
112.162	13.580	1314.623	979.518
113.176	13.764	1313.076	979.361
114.191	13.700	1312.077	978.152
115.206	13.667	1310.938	977.023
116.220	13.780	1309.161	976.280
117.235	13.711	1308.206	975.076
118.249	13.605	1307.787	974.054
119.264	13.644	1306.063	972.912
120.279	13.580	1305.306	971.884
121.293	13.578	1304.850	971.449
122.308	13.585	1303.143	970.130
123.322	13.608	1302.282	969.538
124.337	13.640	1301.064	968.737
125.352	13.647	1299.910	967.829
126.366	13.546	1298.862	966.376
127.381	13.739	1297.098	966.100
128.395	13.661	1296.043	964.776
129.410	13.637	1295.374	964.054
130.424	13.650	1294.245	963.203
131.439	13.645	1293.349	962.421
132.454	13.771	1292.060	962.108
133.468	13.740	1291.293	961.273
134.483	13.659	1290.790	960.343
135.497	13.684	1289.477	959.430
136.512	13.647	1288.383	958.314
137.527	13.640	1286.676	956.920
138.541	13.660	1285.118	955.790
139.556	13.720	1283.661	954.970
140.570	13.687	1283.544	954.606
141.585	13.797	1282.108	954.087
142.600	13.791	1280.713	952.928
143.614	13.876	1279.470	952.409
144.629	13.781	1278.656	951.175
145.643	13.856	1277.560	950.702
146.658	13.849	1276.260	949.614
147.673	13.770	1274.848	948.027
148.687	13.801	1273.529	947.140
149.702	13.850	1271.910	946.129
150.716	13.769	1270.471	944.517
151.731	13.794	1269.635	943.953
152.746	13.864	1268.228	943.218
153.760	13.797	1267.290	942.061
154.775	13.840	1266.277	941.466
155.789	13.899	1264.829	940.640
156.804	13.891	1264.149	940.007
157.819	13.987	1263.076	939.669
158.833	14.048	1261.846	939.014
159.848	14.035	1260.987	938.222
160.862	13.996	1259.921	937.123
161.877	14.018	1258.315	935.971
162.892	13.910	1257.678	934.805
163.906	13.949	1256.775	934.272
164.921	14.034	1255.532	933.740
165.935	13.968	1255.035	932.917
166.950	14.041	1254.315	932.711
167.964	13.841	1253.751	931.090
168.979	14.004	1252.704	931.141
169.994	14.056	1252.014	930.836
171.008	14.033	1251.342	930.128
172.023	14.018	1250.380	929.245
173.037	14.147	1249.544	929.261
174.052	14.114	1248.582	928.280
175.067	13.994	1247.405	926.656
176.081	14.106	1246.323	926.390
177.096	14.014	1245.749	925.370
178.110	14.012	1244.521	924.368
179.125	14.049	1243.633	923.831
180.140	14.139	1242.198	923.185
181.154	14.135	1240.902	922.117
182.169	14.130	1239.556	921.007
183.183	14.369	1237.758	920.909
184.198	14.313	1236.771	919.783
185.213	14.297	1235.440	918.622
186.227	14.241	1234.885	917.820
187.242	14.321	1233.754	917.341
188.256	14.256	1232.844	916.228
189.271	14.290	1232.189	915.847
190.286	14.222	1231.250	914.691
191.300	14.204	1230.116	913.671
192.315	14.190	1229.590	913.124
193.329	14.153	1229.147	912.510
194.344	14.252	1227.990	912.111
195.359	14.335	1227.437	912.075
196.373	14.313	1227.078	911.608
197.388	14.367	1226.784	911.603
198.402	14.428	1225.920	911.216
199.417	14.533	1225.274	911.229
200.432	14.479	1224.714	910.435
201.446	14.421	1223.420	909.076
202.461	14.538	1222.620	909.038
203.475	14.634	1221.183	908.410
204.490	14.525	1220.267	907.060
205.504	14.512	1218.908	905.898
206.519	14.470	1218.069	904.966
207.534	14.526	1216.755	904.211
208.548	14.643	1215.117	903.547
209.563	14.557	1214.875	902.821
210.577	14.454	1214.359	901.801
211.592	14.422	1213.003	900.541
212.607	14.631	1212.176	900.980
213.621	14.623	1211.338	900.230
214.636	14.569	1210.509	899.244
215.650	14.642	1209.321	898.678
216.665	14.701	1208.490	898.295
217.680	14.771	1207.246	897.670
218.694	14.821	1206.720	897.468
219.709	14.785	1205.827	896.528
220.723	14.817	1205.361	896.277
221.738	14.800	1204.379	895.373
222.753	14.809	1203.636	894.791
223.767	14.800	1203.213	894.351
224.782	14.856	1202.372	893.944
225.796	14.825	1201.702	893.202
226.811	14.893	1200.869	892.868
227.826	14.818	1200.405	892.043
228.840	14.890	1199.842	891.929
229.855	14.805	1199.009	890.779
230.869	14.861	1198.153	890.364
231.884	14.835	1197.505	889.663
232.899	14.906	1196.392	889.136
233.913	14.860	1195.880	888.431
234.928	14.897	1195.065	887.942
235.942	14.980	1194.078	887.570
236.957	14.920	1193.436	886.699
237.972	14.836	1192.564	885.528
238.986	14.959	1191.853	885.570
240.001	14.968	1191.023	884.925
241.015	15.005	1190.237	884.459
242.030	14.913	1189.358	883.242
243.045	14.943	1188.725	882.851
244.059	14.978	1187.844	882.305
245.074	15.145	1187.001	882.476
246.088	15.065	1186.167	881.359
247.103	15.016	1185.392	880.447
248.117	15.015	1185.029	880.095
249.132	15.167	1184.365	880.323
250.147	15.299	1183.281	880.134
251.161	15.262	1182.639	879.384
252.176	15.282	1181.864	878.835
253.190	15.230	1181.477	878.195
254.205	15.211	1180.833	877.539
255.220	15.319	1180.096	877.480
256.234	15.317	1179.405	876.877
257.249	15.359	1178.743	876.529
258.263	15.374	1177.966	875.952
259.278	15.444	1177.179	875.652
260.293	15.516	1176.787	875.660
261.307	15.460	1176.272	874.904
262.322	15.479	1175.473	874.334
263.336	15.438	1174.732	873.491
264.351	15.536	1174.044	873.411
265.366	15.553	1173.315	872.882
266.380	15.499	1172.841	872.171
267.395	15.461	1172.099	871.343
268.409	15.581	1170.939	871.028
269.424	15.547	1170.390	870.363
270.439	15.503	1170.286	869.982
271.453	15.610	1169.128	869.598
272.468	15.534	1167.974	868.270
273.482	15.597	1167.536	868.195
274.497	15.624	1166.978	867.844
275.512	15.540	1166.401	866.900
276.526	15.617	1165.518	866.565
277.541	15.567	1164.761	865.669
278.555	15.636	1163.859	865.277
279.570	15.659	1163.521	865.068
280.585	15.806	1162.217	864.776
281.599	15.748	1161.360	863.763
282.614	15.689	1160.335	862.622
283.628	15.654	1159.584	861.810
284.643	15.670	1159.165	861.506
285.657	15.801	1157.736	861.037
286.672	15.783	1156.899	860.244
287.687	15.813	1156.094	859.722
288.701	15.736	1155.079	858.502
289.716	15.854	1154.213	858.383
290.730	15.920	1153.652	858.225
291.745	16.028	1152.729	858.015
292.760	15.984	1152.004	857.174
293.774	15.985	1151.593	856.799
294.789	15.882	1151.070	855.811
295.803	15.975	1150.469	855.759
296.818	16.056	1149.115	855.089
297.833	15.869	1148.656	853.723
298.847	16.043	1147.935	853.993
299.862	15.941	1147.225	852.870
300.876	15.941	1146.692	852.402
301.891	16.078	1145.733	852.304
302.906	16.082	1144.837	851.580
303.920	16.099	1144.494	851.337
304.935	16.116	1143.789	850.822
305.949	16.217	1142.955	850.635
306.964	16.190	1142.148	849.827
307.979	16.301	1141.483	849.816
308.993	16.228	1140.963	848.982
310.008	16.275	1139.972	848.410
311.022	16.313	1139.058	847.844
312.037	16.297	1138.274	847.106
313.052	16.248	1137.707	846.363
314.066	16.238	1136.514	845.352
315.081	16.198	1135.700	844.468
316.095	16.195	1135.051	843.896
317.110	16.221	1134.612	843.627
318.125	16.262	1133.525	842.948
319.139	16.191	1132.836	842.006
320.154	16.282	1132.053	841.802
321.168	16.312	1131.392	841.387
322.183	16.226	1131.075	840.647
323.197	16.295	1129.999	840.117
324.212	16.292	1129.835	839.905
325.227	16.383	1128.948	839.623
326.241	16.432	1128.318	839.327
327.256	16.357	1127.233	838.075
328.270	16.391	1126.115	837.334
329.285	16.255	1126.012	836.511
330.300	16.329	1125.073	836.104
331.314	16.307	1124.342	835.379
332.329	16.371	1122.868	834.525
333.343	16.347	1121.913	833.625
334.358	16.422	1121.186	833.383
335.373	16.548	1120.150	833.156
336.387	16.451	1119.693	832.268
337.402	16.505	1118.931	831.893
338.416	16.493	1118.678	831.571
339.431	16.539	1118.115	831.307
340.446	16.495	1116.988	830.176
341.460	16.558	1116.353	829.941
342.475	16.532	1115.280	828.942
343.489	16.854	1114.137	829.597
344.504	16.702	1113.534	828.332
345.519	16.715	1112.621	827.641
346.533	16.694	1112.015	827.015
347.548	16.746	1111.352	826.704
348.562	16.741	1110.367	825.871
349.577	16.903	1109.611	826.024
350.592	16.845	1108.846	825.102
351.606	16.691	1108.270	823.848
352.621	16.644	1107.638	823.079
353.635	16.654	1106.875	822.487
354.650	16.714	1106.329	822.301
355.665	16.808	1105.574	822.123
356.679	16.775	1104.728	821.259
357.694	16.709	1104.219	820.491
358.708	16.833	1103.358	820.376
359.723	16.889	1102.688	820.078
360.738	16.807	1101.972	819.077
361.752	16.813	1101.294	818.531
362.767	16.806	1100.815	818.066
363.781	16.894	1100.617	818.271
364.796	16.924	1099.857	817.781
365.810	16.947	1099.350	817.442
366.825	17.062	1098.276	817.125
367.840	17.139	1097.805	817.070
368.854	17.146	1097.244	816.617
369.869	17.117	1096.380	815.762
370.883	17.152	1095.166	814.952
371.898	17.150	1094.693	814.520
372.913	17.100	1094.236	813.869
373.927	17.149	1093.466	813.457
374.942	17.210	1093.117	813.421
375.956	17.191	1092.767	812.993
376.971	17.158	1092.438	812.521
377.986	17.180	1091.542	811.889
379.000	17.332	1090.966	812.115
380.015	17.354	1090.500	811.798
381.029	17.355	1089.592	811.056
382.044	17.310	1089.273	810.534
383.059	17.340	1088.269	809.854
384.073	17.434	1087.497	809.657
385.088	17.245	1086.918	808.255
386.102	17.316	1085.796	807.686
387.117	17.402	1084.500	807.059
388.132	17.363	1084.051	806.471
389.146	17.422	1082.645	805.630
390.161	17.371	1081.986	804.827
391.175	17.355	1081.429	804.270
392.190	17.407	1081.046	804.159
393.205	17.473	1079.944	803.580
394.219	17.346	1079.275	802.409
395.234	17.348	1078.636	801.875
396.248	17.484	1077.342	801.480
397.263	17.318	1076.600	800.076
398.278	17.353	1075.699	799.502
399.292	17.392	1074.917	799.032
400.307	17.482	1074.287	798.916
401.321	17.433	1073.659	798.148
402.336	17.400	1073.158	797.549
403.350	17.500	1072.196	797.234
404.365	17.572	1071.344	796.868
405.380	17.601	1070.864	796.576
406.394	17.631	1069.901	795.930
407.409	17.652	1069.003	795.287
408.423	17.661	1068.801	795.110
409.438	17.685	1067.916	794.490
410.453	17.704	1066.922	793.771
411.467	17.794	1066.190	793.575
412.482	17.881	1065.544	793.428
413.496	17.734	1065.381	792.554
414.511	17.703	1064.984	792.044
415.526	17.911	1063.959	792.174
416.540	17.873	1063.518	791.600
417.555	17.839	1063.235	791.161
418.569	17.921	1062.704	791.076
419.584	17.902	1062.053	790.434
420.599	18.011	1061.253	790.273
421.613	109.402	1332.447	1490.710
422.628	101.026	1371.886	1490.778
