DTS Sentinel unit serial number:	SN413079Multiplexer serial number:	ORYXHardware model number:	OX4-SRSoftware version number:	ORYX F/W v4.00 Oryx Data Collector v3.7.2.0data status	okinstallation	princeton_trtdifferential loss correction	single-endedforward channel	channel 2reverse channel	N/Adate	2019/09/11time	23:01:11forward acquisition time	60.00reverse acquisition time	0.00gamma	496.2192k internal	0.2325k external	0.2325temperature offset calibration	1.0074default loss term (dB/km)	0.3790temperature slope calibration	1.0000multiplexer offset coefficient	1.0000multiplexer slope coefficient	1.0000fibre end	0.00T internal ref (°C)	34.61T ext. ref 1 (°C)	1.79T ext. ref 2 (°C)	29.10length (m)	temperature (°C)	Stokes	anti-Stokes-747.200	-200.000	-0.020	-0.190
-746.185	-200.000	0.001	-0.023
-745.171	72.815	-0.170	0.179
-744.156	-126.535	-0.044	-0.007
-743.142	649.719	0.053	-0.137
-742.127	-200.000	-0.049	0.420
-741.112	447.675	0.129	0.286
-740.098	134.493	-0.098	0.128
-739.083	-103.423	-0.235	-0.056
-738.069	800.000	0.171	0.487
-737.054	394.610	0.132	0.277
-736.039	-9.485	-0.242	-0.163
-735.025	111.792	0.129	0.158
-734.010	94.755	0.275	0.316
-732.996	83.163	-0.188	0.207
-731.981	458.547	0.135	-0.303
-730.966	-110.324	-0.027	-0.006
-729.952	800.000	-0.043	-0.144
-728.937	419.495	-0.057	-0.123
-727.923	-63.726	-0.281	-0.116
-726.908	-200.000	0.050	0.225
-725.894	-121.508	0.193	0.032
-724.879	324.680	0.096	-0.184
-723.864	398.406	-0.067	-0.142
-722.850	-4.655	0.011	0.008
-721.835	-33.162	-0.208	-0.116
-720.821	46.338	-0.025	-0.024
-719.806	-52.390	-0.163	0.076
-718.791	-200.000	0.006	-0.556
-717.777	800.000	0.035	-0.133
-716.762	451.452	-0.113	0.251
-715.748	-108.507	-0.369	0.080
-714.733	667.750	-0.102	-0.265
-713.718	10.069	0.225	-0.173
-712.704	16.685	-0.131	-0.104
-711.689	800.000	-0.051	-0.179
-710.675	-200.000	-0.003	-0.179
-709.660	-200.000	-0.109	0.660
-708.645	-200.000	0.049	-0.250
-707.631	-107.454	0.151	0.033
-706.616	800.000	0.080	-0.259
-705.602	-13.313	-0.106	0.070
-704.587	-82.684	0.254	-0.083
-703.572	28.326	0.170	-0.145
-702.558	800.000	0.054	0.158
-701.543	96.073	-0.105	-0.120
-700.529	-15.546	0.086	-0.055
-699.514	-101.946	0.508	0.124
-698.499	-137.572	-0.246	-0.028
-697.485	15.522	0.136	0.108
-696.470	-200.000	-0.036	0.271
-695.456	-119.461	-0.317	-0.055
-694.441	-200.000	-0.018	-0.308
-693.426	-97.637	-0.110	0.029
-692.412	-200.000	0.028	0.193
-691.397	519.159	-0.052	-0.124
-690.383	-200.000	0.017	-0.156
-689.368	758.002	-0.022	0.061
-688.354	-23.533	0.205	0.124
-687.339	46.307	-0.131	0.122
-686.324	800.000	-0.050	-0.142
-685.310	402.654	-0.110	-0.233
-684.295	-159.010	-0.203	0.012
-683.281	800.000	-0.080	0.241
-682.266	800.000	0.066	0.191
-681.251	330.526	0.136	-0.264
-680.237	437.432	0.102	-0.224
-679.222	558.658	-0.106	-0.258
-678.208	-18.381	-0.136	-0.085
-677.193	-130.232	-0.208	0.028
-676.178	475.124	-0.043	0.098
-675.164	-107.232	-0.324	-0.072
-674.149	363.668	0.069	-0.139
-673.135	180.602	-0.155	0.229
-672.120	317.791	0.137	-0.260
-671.105	-151.320	0.338	-0.025
-670.091	-64.502	-0.229	0.093
-669.076	-51.102	-0.205	-0.097
-668.062	-9.844	0.262	0.175
-667.047	237.511	-0.172	-0.287
-666.032	354.131	0.135	-0.270
-665.018	-200.000	-0.000	-0.161
-664.003	238.326	0.249	-0.416
-662.989	414.550	0.130	-0.279
-661.974	232.732	-0.204	0.337
-660.959	-61.840	-0.179	-0.076
-659.945	104.607	-0.113	-0.134
-658.930	109.501	0.126	0.152
-657.916	57.243	-0.097	-0.095
-656.901	11.878	-0.221	-0.171
-655.886	34.331	0.211	-0.185
-654.872	130.599	0.150	0.193
-653.857	-87.508	0.209	-0.063
-652.843	800.000	-0.073	-0.279
-651.828	62.743	-0.314	-0.316
-650.814	299.114	0.089	0.166
-649.799	800.000	0.042	0.155
-648.784	-200.000	-0.020	-0.312
-647.770	-176.418	0.260	-0.007
-646.755	-151.099	-0.146	-0.011
-645.741	-9.803	-0.211	0.141
-644.726	-149.326	-0.309	0.025
-643.711	-200.000	0.024	-0.121
-642.697	800.000	-0.046	-0.161
-641.682	-31.510	0.085	-0.048
-640.668	552.706	-0.022	0.053
-639.653	-80.517	0.269	-0.090
-638.638	800.000	-0.039	-0.139
-637.624	-140.537	0.153	-0.016
-636.609	-113.355	-0.464	0.091
-635.595	-200.000	-0.034	-0.286
-634.580	-193.302	-0.348	0.003
-633.565	-200.000	-0.014	0.219
-632.551	-93.735	0.519	0.144
-631.536	-85.035	0.058	-0.018
-630.522	-166.331	-0.097	0.004
-629.507	-200.000	-0.011	0.294
-628.492	-200.000	0.037	0.357
-627.478	384.382	0.124	0.257
-626.463	476.231	-0.081	0.184
-625.449	-114.894	-0.266	0.051
-624.434	-91.727	0.230	0.066
-623.419	540.061	-0.107	0.256
-622.405	-45.558	0.182	-0.091
-621.390	-153.345	-0.237	-0.017
-620.376	488.277	-0.049	0.113
-619.361	-200.000	0.021	0.126
-618.346	-200.000	-0.032	-0.332
-617.332	-52.338	-0.208	-0.097
-616.317	145.398	0.044	-0.059
-615.303	800.000	-0.190	-0.588
-614.288	56.035	-0.046	0.045
-613.273	85.707	-0.190	-0.210
-612.259	-72.711	-0.050	0.019
-611.244	-200.000	-0.024	0.216
-610.230	255.383	-0.072	-0.123
-609.215	-133.467	0.179	-0.023
-608.201	90.813	-0.211	-0.237
-607.186	-68.245	0.114	0.045
-606.171	-200.000	-0.039	0.276
-605.157	-200.000	-0.001	0.012
-604.142	-185.440	-0.428	-0.007
-603.128	800.000	-0.077	0.283
-602.113	-42.600	-0.175	-0.089
-601.098	-144.625	0.067	-0.006
-600.084	36.419	0.032	-0.029
-599.069	113.632	-0.284	0.346
-598.055	800.000	-0.104	-0.291
-597.040	-200.000	0.029	-0.305
-596.025	-152.023	-0.348	-0.025
-595.011	16.153	-0.323	-0.255
-593.996	85.576	-0.149	-0.164
-592.982	-200.000	-0.005	-0.095
-591.967	402.400	0.175	0.369
-590.952	-8.013	0.207	0.140
-589.938	24.247	0.378	0.314
-588.923	4.829	-0.216	-0.160
-587.909	265.375	0.133	0.233
-586.894	-200.000	-0.010	-0.176
-585.879	-77.700	0.104	-0.036
-584.865	194.593	-0.172	0.262
-583.850	800.000	0.020	-0.061
-582.836	-69.605	0.253	-0.097
-581.821	800.000	0.032	-0.134
-580.806	800.000	-0.063	-0.214
-579.792	4.868	-0.214	0.158
-578.777	-43.486	-0.054	-0.027
-577.763	-127.557	0.133	-0.019
-576.748	-115.370	-0.383	0.072
-575.733	-200.000	-0.054	-0.350
-574.719	-200.000	-0.012	0.264
-573.704	-200.000	0.000	-0.147
-572.690	-7.456	-0.129	0.088
-571.675	134.031	-0.216	0.280
-570.661	3.490	-0.268	-0.195
-569.646	-45.161	0.026	-0.013
-568.631	-200.000	-0.020	0.126
-567.617	-200.000	0.015	-0.257
-566.602	-183.705	0.124	0.002
-565.588	800.000	-0.055	-0.219
-564.573	-35.164	-0.176	-0.096
-563.558	-69.121	0.195	-0.075
-562.544	-13.812	-0.293	0.190
-561.529	-87.529	0.221	0.067
-560.515	-200.000	0.057	0.295
-559.500	-200.000	0.012	0.069
-558.485	-123.642	-0.172	0.027
-557.471	-103.481	0.132	-0.031
-556.456	-35.732	-0.229	-0.125
-555.442	188.040	-0.123	0.185
-554.427	800.000	-0.140	-0.395
-553.412	-200.000	0.074	-0.340
-552.398	22.785	-0.077	0.064
-551.383	57.120	-0.251	-0.245
-550.369	-54.529	0.168	0.076
-549.354	228.003	0.074	-0.120
-548.339	-200.000	-0.023	-0.407
-547.325	48.414	0.200	-0.187
-546.310	-188.590	0.105	-0.001
-545.296	137.266	-0.259	-0.339
-544.281	-95.137	0.389	-0.105
-543.266	23.320	-0.039	-0.032
-542.252	-8.939	0.275	-0.184
-541.237	-48.968	-0.085	0.041
-540.223	-82.041	-0.271	0.089
-539.208	36.198	0.286	-0.253
-538.193	33.852	0.105	0.091
-537.179	800.000	0.048	0.141
-536.164	-118.078	0.137	-0.025
-535.150	-89.008	0.267	0.079
-534.135	-161.090	0.161	-0.008
-533.121	13.018	0.077	-0.060
-532.106	545.769	-0.087	0.209
-531.091	11.960	-0.216	-0.166
-530.077	38.044	-0.152	0.135
-529.062	-200.000	-0.062	-0.279
-528.048	-200.000	0.003	0.218
-527.033	800.000	-0.049	0.139
-526.018	-200.000	0.057	-0.280
-525.004	-200.000	-0.013	0.158
-523.989	-145.650	-0.529	0.047
-522.975	800.000	0.123	0.393
-521.960	-200.000	0.048	-0.268
-520.945	-79.309	-0.092	-0.031
-519.931	87.225	0.181	-0.201
-518.916	-75.028	-0.120	-0.043
-517.902	435.520	0.133	-0.289
-516.887	-115.345	0.148	-0.028
-515.872	-111.002	0.215	0.044
-514.858	85.896	0.055	0.061
-513.843	-200.000	0.118	-0.000
-512.829	97.783	0.177	-0.204
-511.814	51.977	0.309	-0.294
-510.799	-116.907	-0.037	-0.007
-509.785	-200.000	0.027	0.143
-508.770	101.551	-0.160	0.186
-507.756	-50.945	0.311	-0.146
-506.741	-159.415	0.333	-0.019
-505.726	800.000	-0.063	0.199
-504.712	122.204	0.056	-0.070
-503.697	-122.835	-0.319	-0.051
-502.683	680.955	-0.104	0.271
-501.668	13.259	-0.164	-0.127
-500.653	-200.000	0.009	0.432
-499.639	-114.988	0.207	-0.039
-498.624	800.000	-0.055	-0.194
-497.610	94.937	0.304	-0.346
-496.595	-108.908	0.312	0.067
-495.581	125.598	0.163	0.205
-494.566	675.990	-0.070	0.182
-493.551	81.858	0.122	-0.132
-492.537	800.000	0.018	0.068
-491.522	79.949	0.174	-0.187
-490.508	-200.000	0.015	-0.120
-489.493	-112.964	0.295	-0.058
-488.478	-103.026	0.176	0.042
-487.464	-19.055	0.187	0.116
-486.449	800.000	0.101	-0.285
-485.435	-200.000	0.006	0.118
-484.420	-200.000	0.069	0.379
-483.405	42.001	0.272	0.247
-482.391	-52.680	0.340	0.157
-481.376	-200.000	0.039	-0.238
-480.362	459.410	-0.122	-0.271
-479.347	-83.485	-0.052	0.016
-478.332	-35.031	0.223	0.122
-477.318	-72.671	-0.307	0.113
-476.303	396.095	-0.158	0.330
-475.289	-94.690	-0.270	0.073
-474.274	-198.840	-0.197	-0.001
-473.259	147.084	-0.065	0.088
-472.245	-63.042	0.245	-0.101
-471.230	157.443	0.076	-0.106
-470.216	48.673	-0.066	-0.062
-469.201	184.419	-0.039	0.058
-468.186	124.401	0.274	0.344
-467.172	-93.566	-0.182	-0.050
-466.157	424.862	-0.033	-0.071
-465.143	188.885	0.073	0.109
-464.128	-129.513	0.234	0.032
-463.113	-49.996	-0.250	0.119
-462.099	-163.415	0.221	0.010
-461.084	-200.000	-0.006	0.318
-460.070	216.953	-0.090	0.142
-459.055	-112.438	0.225	-0.045
-458.040	-200.000	0.004	0.215
-457.026	171.896	-0.118	0.169
-456.011	-200.000	0.007	-0.249
-454.997	-200.000	-0.010	-0.290
-453.982	-7.599	-0.164	0.111
-452.968	18.791	0.201	0.161
-451.953	-200.000	0.015	-0.193
-450.938	-0.079	0.142	-0.101
-449.924	-126.018	0.243	-0.036
-448.909	205.541	0.107	-0.166
-447.895	-24.521	-0.156	0.093
-446.880	-2.861	-0.326	0.227
-445.865	-108.412	0.123	0.026
-444.851	371.862	-0.107	-0.217
-443.836	800.000	0.037	-0.130
-442.822	9.076	-0.264	-0.199
-441.807	566.973	-0.062	0.150
-440.792	16.001	-0.256	0.201
-439.778	28.350	-0.103	0.087
-438.763	-200.000	-0.009	-0.123
-437.749	-3.933	-0.209	-0.144
-436.734	31.118	-0.036	-0.031
-435.719	-89.382	-0.202	0.059
-434.705	-200.000	-0.061	0.379
-433.690	162.714	-0.195	0.272
-432.676	-200.000	0.002	-0.308
-431.661	-119.475	0.204	0.035
-430.646	204.114	-0.073	0.113
-429.632	800.000	0.045	0.127
-428.617	262.182	-0.087	0.150
-427.603	800.000	-0.077	-0.217
-426.588	48.414	0.112	-0.104
-425.573	253.156	-0.126	-0.214
-424.559	45.090	0.172	0.158
-423.544	723.961	0.116	0.307
-422.530	-184.585	0.136	-0.002
-421.515	-7.929	0.295	-0.198
-420.500	800.000	0.095	-0.338
-419.486	-200.000	0.029	0.306
-418.471	18.635	0.254	-0.202
-417.457	-200.000	-0.001	0.068
-416.442	800.000	-0.052	0.226
-415.428	566.107	0.118	-0.285
-414.413	800.000	-0.020	-0.069
-413.398	248.953	-0.092	-0.155
-412.384	800.000	0.082	0.262
-411.369	800.000	-0.056	0.159
-410.355	-200.000	-0.021	0.154
-409.340	261.046	0.098	-0.170
-408.325	78.182	-0.115	-0.122
-407.311	-200.000	0.025	0.276
-406.296	0.852	0.179	0.128
-405.282	74.388	0.169	-0.177
-404.267	316.076	0.121	-0.228
-403.252	482.251	-0.072	0.163
-402.238	-142.034	0.160	0.016
-401.223	800.000	0.046	-0.143
-400.209	143.744	0.148	0.196
-399.194	286.627	-0.131	0.236
-398.179	-200.000	0.001	-0.149
-397.165	-48.350	-0.161	-0.077
-396.150	800.000	0.050	-0.176
-395.136	800.000	-0.057	0.159
-394.121	408.221	0.111	0.234
-393.106	-200.000	-0.007	-0.039
-392.092	-162.512	-0.081	-0.004
-391.077	-145.655	-0.259	0.023
-390.063	264.603	-0.099	0.172
-389.048	-35.302	0.119	-0.064
-388.033	195.964	0.149	-0.226
-387.019	-88.467	0.156	-0.046
-386.004	-200.000	-0.006	-0.131
-384.990	198.802	-0.049	-0.074
-383.975	52.378	-0.017	0.016
-382.960	-25.605	0.192	-0.113
-381.946	126.870	0.169	-0.213
-380.931	10.828	-0.157	-0.119
-379.917	156.350	-0.148	0.203
-378.902	86.392	-0.137	0.150
-377.888	-139.507	-0.258	-0.027
-376.873	-200.000	-0.030	-0.162
-375.858	199.725	0.109	-0.166
-374.844	-177.509	-0.093	-0.002
-373.829	-200.000	-0.045	0.408
-372.815	222.243	0.201	0.322
-371.800	92.364	0.175	0.197
-370.785	241.747	0.105	-0.175
-369.771	1.099	-0.247	0.176
-368.756	-60.895	-0.224	0.094
-367.742	108.416	-0.169	0.201
-366.727	-200.000	-0.043	-0.217
-365.712	195.433	0.138	0.208
-364.698	108.322	-0.236	0.279
-363.683	-114.909	-0.229	-0.043
-362.669	-200.000	0.036	-0.158
-361.654	324.143	0.049	0.093
-360.639	-108.703	-0.280	0.060
-359.625	90.835	-0.205	-0.228
-358.610	800.000	0.036	0.102
-357.596	-26.308	-0.151	0.088
-356.581	133.551	-0.102	0.131
-355.566	91.156	-0.043	0.048
-354.552	-200.000	-0.035	-0.293
-353.537	251.737	-0.086	-0.145
-352.523	148.722	0.152	0.205
-351.508	80.392	0.115	0.123
-350.493	-32.330	0.117	-0.065
-349.479	-30.222	-0.140	0.079
-348.464	-77.699	0.131	-0.045
-347.450	300.777	-0.084	0.155
-346.435	-126.211	-0.170	-0.025
-345.420	-45.646	0.119	0.058
-344.406	-112.652	0.103	0.020
-343.391	-200.000	0.049	-0.635
-342.377	-108.367	0.104	0.022
-341.362	800.000	-0.078	0.287
-340.348	-200.000	-0.008	-0.262
-339.333	756.352	-0.045	-0.120
-338.318	4.943	-0.141	0.103
-337.304	-200.000	0.005	-0.225
-336.289	61.336	-0.230	0.227
-335.275	800.000	0.043	0.156
-334.260	-200.000	0.019	0.493
-333.245	111.576	0.090	0.108
-332.231	-200.000	0.068	0.421
-331.216	-200.000	0.045	-0.309
-330.202	-198.934	-0.227	-0.001
-329.187	-99.444	0.090	0.022
-328.172	180.033	0.065	-0.095
-327.158	-65.683	-0.615	-0.245
-326.143	142.540	0.189	0.249
-325.129	38.232	-0.153	0.135
-324.114	10.439	0.030	0.023
-323.099	-200.000	0.005	0.099
-322.085	-47.884	0.194	0.093
-321.070	-69.292	0.150	-0.057
-320.056	58.069	-0.101	0.098
-319.041	-51.633	0.367	0.170
-318.026	-79.609	0.087	-0.029
-317.012	-25.126	0.309	-0.182
-315.997	-81.691	-0.178	-0.058
-314.983	68.407	0.176	0.179
-313.968	11.211	0.227	0.172
-312.953	-49.851	-0.253	0.119
-311.939	561.854	-0.219	-0.526
-310.924	-98.826	0.062	-0.016
-309.910	-74.334	-0.183	0.065
-308.895	-200.000	-0.079	0.407
-307.880	-16.214	0.113	-0.071
-306.866	-200.000	0.013	-0.171
-305.851	115.235	-0.119	-0.144
-304.837	-25.400	-0.104	0.061
-303.822	-41.353	-0.228	0.117
-302.807	800.000	-0.117	0.368
-301.793	800.000	-0.116	0.459
-300.778	800.000	-0.070	-0.234
-299.764	-23.722	-0.175	-0.104
-298.749	67.145	0.165	0.167
-297.735	25.720	-0.058	0.048
-296.720	-68.027	-0.269	0.104
-295.705	-48.109	0.267	-0.128
-294.691	37.856	-0.243	-0.214
-293.676	48.786	0.190	0.177
-292.662	12.238	-0.244	0.186
-291.647	800.000	-0.048	0.178
-290.632	-121.774	-0.055	0.009
-289.618	636.231	0.045	-0.112
-288.603	-110.206	-0.320	-0.066
-287.589	800.000	0.038	0.114
-286.574	-4.921	-0.166	-0.113
-285.559	-136.878	-0.459	0.052
-284.545	741.462	-0.087	0.233
-283.530	422.597	-0.086	-0.182
-282.516	206.093	0.087	-0.134
-281.501	-66.570	-0.331	0.130
-280.486	-86.068	-0.174	0.053
-279.472	-47.033	0.368	-0.178
-278.457	19.147	0.248	-0.197
-277.443	-115.815	-0.243	0.045
-276.428	-150.330	-0.098	0.007
-275.413	-200.000	0.064	-0.405
-274.399	10.384	0.120	-0.090
-273.384	-200.000	0.047	0.232
-272.370	124.727	-0.021	0.026
-271.355	-75.062	0.488	0.173
-270.340	-58.136	-0.083	-0.036
-269.326	52.517	-0.381	-0.360
-268.311	211.578	0.184	-0.288
-267.297	800.000	-0.083	0.323
-266.282	317.925	-0.110	-0.206
-265.267	40.064	-0.081	0.072
-264.253	-47.714	-0.264	0.127
-263.238	195.185	-0.121	-0.181
-262.224	37.574	0.149	0.131
-261.209	174.593	0.131	-0.187
-260.195	-76.203	-0.247	-0.086
-259.180	20.503	0.277	0.222
-258.165	-200.000	-0.008	-0.157
-257.151	-200.000	-0.021	-0.134
-256.136	800.000	-0.022	-0.066
-255.122	4.368	0.204	0.148
-254.107	-168.584	-0.444	-0.017
-253.092	-26.322	0.278	0.161
-252.078	-113.204	0.536	0.104
-251.063	-200.000	-0.069	-0.302
-250.049	-81.979	0.299	0.097
-249.034	249.835	-0.140	-0.235
-248.019	372.672	-0.132	-0.265
-247.005	800.000	0.049	0.139
-245.990	128.349	0.229	0.289
-244.976	800.000	-0.108	-0.458
-243.961	-86.705	-0.103	-0.031
-242.946	-131.735	0.196	-0.025
-241.932	15.240	-0.061	0.047
-240.917	54.535	-0.393	0.375
-239.903	-64.200	0.270	0.109
-238.888	800.000	0.076	-0.289
-237.873	746.317	0.050	-0.132
-236.859	313.080	0.195	-0.363
-235.844	-200.000	0.005	0.048
-234.830	-200.000	-0.023	0.114
-233.815	-41.735	-0.254	-0.129
-232.800	-112.396	0.283	-0.056
-231.786	376.658	-0.118	0.238
-230.771	-200.000	0.025	-0.114
-229.757	800.000	-0.070	-0.280
-228.742	183.671	-0.048	-0.071
-227.727	-37.344	0.043	0.023
-226.713	-49.517	0.435	-0.205
-225.698	118.099	0.193	0.236
-224.684	-105.534	-0.230	-0.052
-223.669	12.212	0.039	-0.029
-222.655	33.241	0.150	0.128
-221.640	26.007	0.141	-0.116
-220.625	-33.820	0.327	-0.178
-219.611	-46.281	-0.109	-0.053
-218.596	201.257	-0.066	-0.101
-217.582	-108.241	0.069	-0.015
-216.567	110.472	0.105	0.125
-215.552	-19.649	0.110	0.067
-214.538	-73.629	0.068	0.024
-213.523	94.322	0.250	0.281
-212.509	-200.000	0.019	0.090
-211.494	425.556	-0.039	0.082
-210.479	-115.236	0.430	0.080
-209.465	-128.148	0.270	0.038
-208.450	-129.089	-0.134	-0.019
-207.436	4.165	0.130	0.094
-206.421	-200.000	0.001	-0.076
-205.406	-200.000	-0.040	-0.358
-204.392	339.692	0.095	-0.183
-203.377	-17.326	-0.277	-0.172
-202.363	106.814	0.135	0.158
-201.348	-118.360	-0.160	-0.028
-200.333	-25.120	0.084	0.049
-199.319	-135.146	0.375	-0.045
-198.304	800.000	-0.063	-0.187
-197.290	679.222	-0.076	0.195
-196.275	-175.616	0.352	-0.009
-195.260	-138.565	0.347	-0.038
-194.246	181.094	-0.204	-0.296
-193.231	-63.400	0.255	-0.104
-192.217	418.705	-0.064	0.135
-191.202	40.406	0.258	-0.230
-190.187	34.728	-0.157	-0.135
-189.173	-34.828	0.217	-0.117
-188.158	800.000	0.050	-0.138
-187.144	302.685	-0.062	-0.113
-186.129	800.000	0.029	-0.116
-185.114	76.141	0.111	-0.116
-184.100	-152.446	0.057	-0.004
-183.085	101.530	-0.049	0.056
-182.071	-57.881	0.246	-0.106
-181.056	-200.000	-0.005	-0.041
-180.042	800.000	0.018	0.073
-179.027	-200.000	0.017	-0.087
-178.012	-71.224	-0.140	-0.052
-176.998	-166.144	0.201	-0.008
-175.983	321.086	0.019	0.036
-174.969	-200.000	-0.055	0.290
-173.954	800.000	0.069	0.268
-172.939	-200.000	0.053	-0.266
-171.925	422.996	0.110	0.234
-170.910	584.985	-0.197	0.477
-169.896	1.858	-0.361	-0.257
-168.881	800.000	0.030	0.113
-167.866	88.139	0.118	0.129
-166.852	-26.562	-0.208	0.120
-165.837	-200.000	-0.125	0.649
-164.823	-76.644	0.447	-0.154
-163.808	-193.089	-0.315	0.003
-162.793	-84.770	0.170	0.053
-161.779	800.000	-0.044	-0.176
-160.764	-200.000	-0.000	0.067
-159.750	-135.916	0.234	-0.027
-158.735	-16.208	-0.260	0.163
-157.720	-176.050	-0.252	-0.007
-156.706	-199.730	0.347	-0.002
-155.691	-136.965	-0.463	0.052
-154.677	-21.708	-0.165	0.099
-153.662	28.710	-0.103	-0.086
-152.647	346.348	-0.125	-0.242
-151.633	312.346	0.072	-0.133
-150.618	179.829	0.179	0.258
-149.604	297.582	-0.075	-0.135
-148.589	-105.969	-0.295	0.066
-147.574	-34.260	-0.300	0.162
-146.560	800.000	0.055	0.213
-145.545	-122.986	0.114	-0.018
-144.531	170.465	0.112	-0.158
-143.516	-83.783	-0.163	-0.051
-142.502	800.000	-0.012	0.043
-141.487	-103.938	0.225	0.052
-140.472	-200.000	0.058	-0.384
-139.458	39.115	0.106	-0.094
-138.443	800.000	0.075	-0.276
-137.429	95.426	0.087	0.098
-136.414	-200.000	-0.019	0.145
-135.399	36.346	-0.142	-0.123
-134.385	-3.474	-0.212	-0.146
-133.370	-200.000	0.120	0.589
-132.356	-62.330	-0.109	0.045
-131.341	-26.076	0.140	-0.081
-130.326	325.477	0.136	0.256
-129.312	44.709	0.163	0.148
-128.297	556.036	0.041	-0.098
-127.283	22.719	-0.158	-0.128
-126.268	800.000	0.074	0.254
-125.253	-200.000	0.010	-0.056
-124.239	800.000	-0.063	0.235
-123.224	230.959	0.139	0.225
-122.210	-97.545	-0.227	0.058
-121.195	-109.280	0.161	-0.034
-120.180	-97.108	-0.045	-0.012
-119.166	145.928	0.131	-0.173
-118.151	317.668	0.194	-0.361
-117.137	-112.878	0.194	0.038
-116.122	62.292	-0.182	-0.179
-115.107	-49.580	0.291	-0.136
-114.093	-200.000	-0.043	-0.337
-113.078	-200.000	-0.010	0.050
-112.064	-36.445	0.144	-0.076
-111.049	-45.595	0.039	-0.019
-110.034	-90.842	0.249	-0.071
-109.020	-131.628	-0.347	0.045
-108.005	84.208	-0.176	-0.189
-106.991	800.000	-0.025	-0.093
-105.976	-200.000	-0.025	-0.160
-104.962	-103.647	0.201	-0.046
-103.947	-48.317	0.135	0.064
-102.932	145.055	-0.119	0.156
-101.918	-200.000	0.009	0.365
-100.903	-57.276	-0.134	-0.058
-99.889	-73.670	-0.159	-0.057
-98.874	31.010	-0.376	-0.317
-97.859	308.608	-0.041	-0.075
-96.845	10.271	0.253	0.189
-95.830	-93.153	0.069	-0.019
-94.816	-200.000	-0.014	-0.133
-93.801	31.794	0.166	0.141
-92.786	-80.015	-0.181	-0.060
-91.772	-200.000	0.054	-0.296
-90.757	134.896	-0.111	0.142
-89.743	-92.829	-0.258	-0.071
-88.728	-200.000	-0.002	-0.103
-87.713	136.215	-0.111	-0.142
-86.699	-50.895	0.179	-0.083
-85.684	-171.223	-0.218	-0.007
-84.670	-98.620	-0.099	-0.025
-83.655	-106.336	-0.232	-0.051
-82.640	-81.408	0.237	-0.077
-81.626	79.862	-0.181	-0.191
-80.611	-66.284	0.273	-0.107
-79.597	-103.394	-0.107	-0.025
-78.582	2.799	0.195	0.139
-77.567	-104.386	-0.103	-0.023
-76.553	-200.000	-0.016	0.287
-75.538	-24.893	0.059	-0.034
-74.524	-3.629	-0.130	0.089
-73.509	-140.850	-0.178	0.018
-72.494	-6.528	0.022	-0.015
-71.480	371.845	0.077	-0.154
-70.465	-169.852	-0.230	0.008
-69.451	116.926	0.171	-0.207
-68.436	-107.821	-0.193	0.041
-67.422	-200.000	0.035	0.194
-66.407	94.139	-0.282	0.315
-65.392	562.202	-0.057	0.135
-64.378	-200.000	0.004	0.283
-63.363	-200.000	0.000	-0.068
-62.349	-108.655	0.107	0.023
-61.334	108.748	-0.644	-0.756
-60.319	133.052	0.472	0.599
-59.305	800.000	-0.289	-1.115
-58.290	474.856	0.384	0.852
-57.276	125.889	1.037	1.287
-56.261	-200.000	97.707	587.957
-55.246	566.661	1384.805	3300.966
-54.232	153.983	2593.750	3493.298
-53.217	109.515	2281.978	2685.172
-52.203	44.186	1899.134	1711.039
-51.188	37.970	1687.403	1473.461
-50.173	35.260	1643.109	1414.757
-49.159	53.508	1693.129	1594.862
-48.144	56.883	1710.632	1636.510
-47.130	37.621	1665.976	1451.918
-46.115	34.628	1650.997	1416.637
-45.100	34.442	1646.495	1411.338
-44.086	34.438	1643.593	1408.765
-43.071	34.526	1640.567	1406.767
-42.057	34.433	1638.181	1403.982
-41.042	34.488	1636.316	1402.730
-40.027	34.458	1634.898	1401.240
-39.013	34.550	1632.419	1399.730
-37.998	34.404	1631.182	1397.544
-36.984	34.477	1629.484	1396.572
-35.969	34.634	1627.961	1396.357
-34.954	34.592	1626.276	1394.554
-33.940	34.562	1624.565	1392.811
-32.925	34.583	1622.572	1391.196
-31.911	34.565	1620.715	1389.422
-30.896	34.593	1618.598	1387.752
-29.881	34.519	1617.825	1386.500
-28.867	34.576	1616.041	1385.329
-27.852	34.543	1614.963	1384.106
-26.838	34.662	1612.516	1382.818
-25.823	34.663	1611.773	1382.137
-24.809	34.648	1610.314	1380.717
-23.794	34.607	1609.421	1379.600
-22.779	34.603	1607.780	1378.114
-21.765	34.695	1605.716	1376.953
-20.750	34.603	1604.273	1375.000
-19.736	34.641	1602.988	1374.117
-18.721	34.605	1601.567	1372.580
-17.706	34.648	1600.159	1371.629
-16.692	34.670	1598.224	1370.076
-15.677	34.567	1597.010	1368.242
-14.663	34.727	1594.982	1367.600
-13.648	34.663	1594.081	1366.313
-12.633	34.585	1592.742	1364.551
-11.619	34.691	1590.757	1363.556
-10.604	34.739	1589.175	1362.488
-9.590	34.661	1587.918	1360.796
-8.575	34.677	1586.867	1359.957
-7.560	34.596	1585.835	1358.445
-6.546	34.714	1584.503	1358.086
-5.531	34.714	1583.288	1356.994
-4.517	34.575	1582.529	1355.300
-3.502	34.651	1581.425	1354.840
-2.487	34.716	1579.932	1353.968
-1.473	34.385	1568.613	1341.888
-0.458	31.614	1549.555	1306.223
0.556	28.208	1549.478	1274.870
1.571	25.876	1573.632	1278.106
2.586	25.479	1587.263	1286.223
3.600	22.644	1534.940	1224.066
4.615	12.912	1423.468	1072.103
5.629	3.670	1355.547	963.410
6.644	1.951	1346.666	946.355
7.659	1.818	1345.014	944.285
8.673	1.696	1344.153	942.845
9.688	1.716	1342.214	941.523
10.702	1.442	1339.398	937.777
11.717	5.082	1346.434	965.167
12.731	15.460	1365.896	1043.874
13.746	23.826	1380.349	1107.178
14.761	25.809	1382.901	1121.484
15.775	26.117	1382.507	1122.983
16.790	26.130	1382.098	1122.630
17.804	26.292	1381.646	1123.175
18.819	26.375	1381.269	1123.286
19.834	26.598	1380.464	1123.914
20.848	26.587	1379.509	1122.966
21.863	26.589	1378.749	1122.260
22.877	26.652	1378.030	1121.971
23.892	26.623	1377.309	1121.103
24.907	26.578	1376.535	1120.095
25.921	26.610	1375.118	1119.040
26.936	26.593	1374.461	1118.304
27.950	26.568	1373.359	1117.149
28.965	26.565	1372.079	1115.993
29.980	26.577	1370.713	1114.856
30.994	26.636	1369.744	1114.336
32.009	26.565	1368.463	1112.760
33.023	26.498	1367.998	1111.869
34.038	26.548	1366.503	1110.861
35.053	26.511	1365.414	1109.649
36.067	26.541	1364.470	1108.970
37.082	26.587	1363.450	1108.323
38.096	26.541	1362.712	1107.344
39.111	26.552	1361.794	1106.571
40.126	26.581	1361.371	1106.305
41.140	26.494	1360.612	1105.056
42.155	26.481	1360.424	1104.725
43.169	26.564	1360.490	1105.193
44.184	26.600	1359.505	1104.512
45.199	26.622	1359.246	1104.340
46.213	26.530	1359.032	1103.504
47.228	26.570	1358.088	1102.888
48.242	26.583	1356.585	1101.645
49.257	26.534	1355.426	1100.311
50.271	26.540	1354.173	1099.231
51.286	26.455	1352.939	1097.615
52.301	26.520	1351.603	1096.828
53.315	26.566	1350.258	1095.922
54.330	26.532	1349.542	1095.035
55.344	26.513	1348.810	1094.230
56.359	26.529	1347.881	1093.480
57.374	26.548	1347.155	1092.905
58.388	26.491	1346.967	1092.312
59.403	26.365	1346.321	1090.932
60.417	26.470	1345.248	1090.598
61.432	26.526	1344.441	1090.187
62.447	26.476	1343.850	1089.307
63.461	26.610	1342.340	1088.791
64.476	26.567	1341.415	1087.691
65.490	26.463	1340.684	1086.377
66.505	26.589	1338.657	1085.394
67.520	26.632	1337.641	1084.729
68.534	26.483	1336.898	1083.142
69.549	26.597	1335.668	1082.732
70.563	26.659	1334.689	1082.209
71.578	26.602	1333.628	1080.914
72.593	26.479	1333.090	1079.649
73.607	26.524	1332.404	1079.267
74.622	26.605	1331.638	1079.033
75.636	26.568	1331.208	1078.368
76.651	26.563	1330.131	1077.373
77.666	26.640	1329.579	1077.284
78.680	26.568	1329.031	1076.320
79.695	26.583	1328.138	1075.586
80.709	26.507	1327.552	1074.566
81.724	26.578	1326.728	1074.227
82.739	26.493	1326.411	1073.370
83.753	26.483	1324.966	1072.051
84.768	26.524	1324.095	1071.494
85.782	26.625	1322.534	1070.732
86.797	26.567	1321.857	1069.745
87.812	26.594	1320.664	1068.846
88.826	26.670	1319.454	1068.220
89.841	26.584	1318.661	1066.975
90.855	26.632	1317.760	1066.435
91.870	26.571	1316.632	1065.066
92.884	26.601	1315.855	1064.522
93.899	26.534	1315.354	1063.628
94.914	26.580	1314.376	1063.012
95.928	26.628	1313.396	1062.407
96.943	26.670	1312.829	1062.102
97.957	26.585	1312.395	1061.160
98.972	26.581	1311.525	1060.336
99.987	26.691	1310.198	1059.817
101.001	26.527	1309.375	1058.097
102.016	26.618	1308.671	1057.968
103.030	26.574	1307.742	1056.867
104.045	26.600	1306.957	1056.288
105.060	26.603	1306.131	1055.544
106.074	26.698	1304.530	1054.713
107.089	26.650	1303.973	1053.885
108.103	26.699	1302.699	1053.052
109.118	26.702	1301.938	1052.357
110.133	26.614	1300.678	1050.737
111.147	26.680	1299.892	1050.391
112.162	26.701	1298.367	1049.189
113.176	26.757	1297.373	1048.616
114.191	26.667	1296.906	1047.624
115.206	26.663	1295.790	1046.606
116.220	26.674	1294.744	1045.734
117.235	26.728	1293.589	1045.021
118.249	26.602	1293.278	1043.947
119.264	26.552	1292.641	1043.055
120.279	26.811	1291.133	1043.237
121.293	26.706	1290.704	1042.191
122.308	26.766	1289.368	1041.365
123.322	26.761	1288.564	1040.596
124.337	26.705	1288.370	1040.028
125.352	26.784	1287.160	1039.409
126.366	26.737	1286.305	1038.360
127.381	26.722	1285.400	1037.450
128.395	26.715	1284.410	1036.518
129.410	26.794	1284.069	1036.605
130.424	26.803	1283.127	1035.804
131.439	26.646	1282.547	1034.347
132.454	26.745	1281.592	1034.048
133.468	26.743	1280.962	1033.441
134.483	26.750	1280.533	1033.042
135.497	26.695	1279.755	1032.008
136.512	26.671	1278.897	1031.089
137.527	26.772	1277.522	1030.466
138.541	26.710	1276.404	1029.117
139.556	26.768	1275.194	1028.381
140.570	26.763	1274.473	1027.681
141.585	26.774	1273.062	1026.517
142.600	26.715	1272.010	1025.242
143.614	26.671	1271.462	1024.459
144.629	26.730	1270.374	1023.824
145.643	26.661	1269.285	1022.471
146.658	26.605	1268.325	1021.290
147.673	26.663	1267.403	1020.781
148.687	26.605	1266.452	1019.599
149.702	26.679	1264.941	1018.710
150.716	26.626	1264.370	1017.860
151.731	26.594	1263.749	1017.094
152.746	26.649	1262.036	1015.931
153.760	26.715	1261.114	1015.467
154.775	26.707	1260.487	1014.828
155.789	26.725	1259.452	1014.010
156.804	26.740	1258.447	1013.192
157.819	26.759	1257.988	1012.841
158.833	26.775	1256.876	1011.941
159.848	26.774	1256.276	1011.367
160.862	26.754	1255.499	1010.539
161.877	26.805	1254.504	1009.931
162.892	26.860	1253.536	1009.370
163.906	26.813	1253.157	1008.714
164.921	26.633	1252.998	1007.499
165.935	26.873	1251.431	1007.482
166.950	26.765	1251.205	1006.609
167.964	26.739	1250.707	1005.974
168.979	26.790	1249.951	1005.559
169.994	26.771	1249.314	1004.856
171.008	26.870	1248.235	1004.446
172.023	26.860	1248.106	1004.198
173.037	26.891	1246.991	1003.381
174.052	26.792	1246.536	1002.382
175.067	26.878	1245.727	1002.116
176.081	26.810	1245.137	1001.179
177.096	26.866	1243.543	1000.119
178.110	26.912	1243.099	999.925
179.125	26.871	1241.917	998.658
180.140	26.986	1240.721	998.243
181.154	26.850	1240.162	996.958
182.169	26.871	1238.611	995.740
183.183	26.869	1237.738	994.937
184.198	26.936	1236.934	994.566
185.213	26.943	1236.053	993.809
186.227	27.002	1235.396	993.516
187.242	26.891	1234.835	992.372
188.256	26.981	1233.413	991.632
189.271	27.020	1232.985	991.415
190.286	26.858	1232.236	989.839
191.300	27.035	1231.272	989.944
192.315	26.966	1230.899	989.179
193.329	26.930	1230.605	988.659
194.344	27.100	1230.131	989.118
195.359	26.908	1229.842	987.754
196.373	26.923	1229.237	987.258
197.388	26.847	1228.923	986.505
198.402	26.939	1228.572	986.640
199.417	26.949	1228.133	986.254
200.432	27.027	1227.421	986.017
201.446	26.901	1227.013	984.916
202.461	26.914	1226.231	984.275
203.475	26.851	1225.266	983.071
204.490	26.882	1224.323	982.393
205.504	27.021	1223.434	982.346
206.519	27.084	1222.407	981.775
207.534	27.092	1221.251	980.804
208.548	27.040	1220.476	979.812
209.563	27.049	1219.482	978.978
210.577	26.966	1219.187	978.206
211.592	26.952	1218.500	977.492
212.607	27.027	1217.430	976.953
213.621	27.228	1216.393	977.112
214.636	27.013	1215.985	975.546
215.650	27.066	1215.142	975.065
216.665	26.953	1214.056	973.504
217.680	27.041	1213.128	973.143
218.694	27.123	1212.394	972.907
219.709	27.011	1212.122	972.003
220.723	27.198	1210.989	972.009
221.738	26.997	1210.593	970.529
222.753	27.017	1209.445	969.630
223.767	26.990	1209.327	969.308
224.782	27.087	1208.807	969.321
225.796	27.245	1208.266	969.645
226.811	27.184	1207.242	968.413
227.826	27.181	1207.290	968.350
228.840	27.196	1206.679	967.855
229.855	27.150	1205.801	966.819
230.869	27.137	1204.848	965.903
231.884	27.178	1204.672	965.894
232.899	27.123	1203.492	964.570
233.913	27.234	1202.888	964.588
234.928	27.379	1202.202	964.720
235.942	27.360	1201.692	964.126
236.957	27.229	1201.002	962.792
237.972	27.195	1200.409	962.052
238.986	27.307	1199.502	961.833
240.001	27.312	1199.425	961.712
241.015	27.389	1198.475	961.273
242.030	27.330	1197.257	959.898
243.045	27.302	1197.244	959.656
244.059	27.398	1195.724	958.856
245.074	27.341	1195.509	958.299
246.088	27.308	1195.067	957.688
247.103	27.312	1194.080	956.831
248.117	27.280	1193.499	956.113
249.132	27.386	1192.485	955.775
250.147	27.344	1191.981	955.064
251.161	27.358	1191.016	954.282
252.176	27.343	1190.643	953.821
253.190	27.398	1189.952	953.471
254.205	27.494	1189.181	953.270
255.220	27.443	1188.348	952.252
256.234	27.535	1187.754	952.170
257.249	27.378	1187.211	950.833
258.263	27.470	1187.048	951.100
259.278	27.458	1186.130	950.217
260.293	27.473	1185.527	949.726
261.307	27.500	1185.264	949.570
262.322	27.531	1184.478	949.021
263.336	27.482	1184.004	948.303
264.351	27.548	1183.154	947.881
265.366	27.368	1182.843	946.611
266.380	27.390	1182.248	946.164
267.395	27.430	1181.637	945.800
268.409	27.563	1180.602	945.577
269.424	27.527	1180.108	944.913
270.439	27.523	1179.750	944.520
271.453	27.551	1179.260	944.191
272.468	27.482	1178.316	942.995
273.482	27.379	1177.799	941.964
274.497	27.411	1177.542	941.839
275.512	27.615	1177.032	942.404
276.526	27.566	1176.326	941.500
277.541	27.535	1175.375	940.495
278.555	27.665	1174.481	940.371
279.570	27.615	1173.947	939.599
280.585	27.608	1173.139	938.834
281.599	27.555	1172.209	937.736
282.614	27.581	1171.174	936.957
283.628	27.713	1170.241	936.804
284.643	27.556	1169.856	935.607
285.657	27.651	1168.834	935.196
286.672	27.679	1168.088	934.659
287.687	27.677	1166.935	933.647
288.701	27.699	1166.682	933.474
289.716	27.796	1166.106	933.425
290.730	27.631	1165.629	932.116
291.745	27.763	1164.753	932.007
292.760	27.793	1164.236	931.663
293.774	27.787	1163.472	930.940
294.789	27.916	1162.668	930.872
295.803	27.832	1162.589	930.297
296.818	27.835	1161.478	929.345
297.833	27.707	1161.204	928.390
298.847	27.844	1160.218	928.218
299.862	27.841	1159.683	927.690
300.876	27.812	1159.008	926.921
301.891	27.829	1158.280	926.344
302.906	27.975	1157.744	926.571
303.920	27.987	1157.113	926.049
304.935	27.822	1156.776	924.857
305.949	27.860	1155.953	924.312
306.964	27.829	1155.817	923.967
307.979	27.973	1154.383	923.463
308.993	27.915	1154.068	922.835
310.008	27.905	1153.371	922.147
311.022	27.980	1152.276	921.570
312.037	27.959	1151.650	920.880
313.052	27.940	1150.790	920.018
314.066	27.806	1150.210	918.796
315.081	27.934	1149.400	918.714
316.095	27.911	1148.990	918.186
317.110	27.960	1148.263	917.774
318.125	27.979	1147.317	917.029
319.139	28.035	1147.005	916.978
320.154	27.931	1146.640	916.086
321.168	27.942	1145.985	915.538
322.183	27.967	1145.595	915.269
323.197	27.991	1145.127	914.933
324.212	28.006	1144.056	914.073
325.227	28.094	1143.878	914.291
326.241	28.129	1143.199	913.841
327.256	28.109	1142.495	913.097
328.270	28.098	1141.887	912.475
329.285	28.143	1140.641	911.623
330.300	28.111	1139.855	910.753
331.314	28.082	1139.214	910.019
332.329	28.087	1138.436	909.343
333.343	28.093	1137.863	908.830
334.358	28.135	1137.346	908.548
335.373	28.083	1136.859	907.820
336.387	28.212	1135.634	907.400
337.402	28.208	1135.070	906.849
338.416	28.281	1134.428	906.620
339.431	28.306	1133.436	905.869
340.446	28.238	1133.093	905.177
341.460	28.325	1132.622	905.152
342.475	28.420	1131.498	904.644
343.489	28.320	1130.905	903.597
344.504	28.284	1129.697	902.373
345.519	28.396	1129.091	902.361
346.533	28.353	1128.509	901.604
347.548	28.401	1127.726	901.135
348.562	28.273	1127.463	900.216
349.577	28.290	1126.706	899.614
350.592	28.338	1125.481	898.795
351.606	28.237	1125.270	898.052
352.621	28.266	1124.956	897.862
353.635	28.275	1124.119	897.160
354.650	28.356	1123.557	897.028
355.665	28.378	1122.768	896.423
356.679	28.475	1122.120	896.303
357.694	28.507	1121.453	895.849
358.708	28.499	1120.859	895.256
359.723	28.390	1120.230	894.139
360.738	28.423	1119.598	893.718
361.752	28.474	1118.974	893.388
362.767	28.475	1118.676	893.079
363.781	28.417	1118.041	892.210
364.796	28.585	1117.388	892.427
365.810	28.523	1116.953	891.701
366.825	28.481	1116.180	890.798
367.840	28.662	1115.708	891.220
368.854	28.643	1115.308	890.731
369.869	28.543	1114.588	889.591
370.883	28.648	1113.541	889.189
371.898	28.641	1113.060	888.691
372.913	28.610	1112.662	888.145
373.927	28.705	1112.242	888.190
374.942	28.684	1111.520	887.432
375.956	28.717	1110.980	887.083
376.971	28.716	1110.275	886.436
377.986	28.667	1110.179	886.044
379.000	28.723	1109.530	885.718
380.015	28.716	1109.093	885.258
381.029	28.758	1108.207	884.673
382.044	28.632	1107.816	883.675
383.059	28.775	1107.042	883.669
384.073	28.714	1106.378	882.767
385.088	28.739	1105.755	882.313
386.102	28.748	1105.049	881.714
387.117	28.782	1103.613	880.654
388.132	28.776	1102.979	880.042
389.146	28.719	1102.484	879.295
390.161	28.886	1101.464	879.202
391.175	28.796	1100.858	878.211
392.190	28.976	1100.125	878.410
393.205	28.749	1099.825	877.006
394.219	28.788	1098.818	876.312
395.234	28.829	1098.342	876.051
396.248	29.003	1097.184	875.876
397.263	28.891	1096.437	874.674
398.278	28.950	1096.032	874.550
399.292	28.912	1095.577	873.932
400.307	28.902	1094.948	873.305
401.321	28.905	1094.268	872.697
402.336	28.791	1093.784	871.695
403.350	28.897	1093.050	871.536
404.365	28.930	1092.339	871.049
405.380	29.068	1091.709	871.122
406.394	29.055	1090.980	870.401
407.409	29.166	1089.883	869.974
408.423	29.093	1089.553	869.290
409.438	29.141	1088.952	868.959
410.453	29.115	1088.245	868.194
411.467	29.048	1087.331	867.073
412.482	29.118	1086.631	866.768
413.496	29.171	1085.768	866.250
414.511	29.026	1085.595	865.357
415.526	29.142	1085.119	865.445
416.540	29.139	1084.904	865.184
417.555	29.147	1084.207	864.588
418.569	29.144	1083.884	864.239
419.584	29.167	1083.550	864.003
420.599	29.167	1082.870	863.383
421.613	102.132	1317.510	1445.243
422.628	95.050	1351.681	1445.364
