DTS Sentinel unit serial number:	SN413079Multiplexer serial number:	ORYXHardware model number:	OX4-SRSoftware version number:	ORYX F/W v4.00 Oryx Data Collector v3.7.2.0data status	okinstallation	princeton_trtdifferential loss correction	single-endedforward channel	channel 2reverse channel	N/Adate	2019/09/18time	13:59:35forward acquisition time	60.00reverse acquisition time	0.00gamma	496.2192k internal	0.2319k external	0.2319temperature offset calibration	0.9998default loss term (dB/km)	0.3790temperature slope calibration	1.0000multiplexer offset coefficient	1.0000multiplexer slope coefficient	1.0000fibre end	0.00T internal ref (°C)	34.50T ext. ref 1 (°C)	0.65T ext. ref 2 (°C)	29.18length (m)	temperature (°C)	Stokes	anti-Stokes-747.200	343.943	-0.054	0.107
-746.185	800.000	0.004	-0.011
-745.171	655.765	0.065	0.169
-744.156	-118.036	-0.100	0.018
-743.142	-19.688	-0.195	0.122
-742.127	-7.925	0.212	0.145
-741.112	-159.766	0.216	0.012
-740.098	74.250	0.273	0.290
-739.083	366.253	0.129	0.262
-738.069	371.167	-0.041	0.085
-737.054	10.542	-0.153	-0.118
-736.039	800.000	0.104	0.295
-735.025	56.112	-0.198	0.194
-734.010	-118.558	0.316	-0.057
-732.996	-16.668	-0.150	0.096
-731.981	711.872	0.087	0.234
-730.966	148.168	-0.198	0.270
-729.952	-117.505	-0.394	0.072
-728.937	-28.361	-0.147	-0.086
-727.923	-122.729	0.097	-0.016
-726.908	-106.222	-0.255	0.058
-725.894	800.000	0.031	-0.107
-724.879	-200.000	-0.009	0.159
-723.864	-141.773	0.361	-0.037
-722.850	800.000	-0.056	-0.186
-721.835	-116.710	-0.167	-0.031
-720.821	88.544	0.085	0.096
-719.806	535.662	0.130	0.312
-718.791	-23.430	0.083	-0.050
-717.777	-90.609	-0.367	0.107
-716.762	673.291	-0.068	-0.179
-715.748	800.000	0.154	0.449
-714.733	-96.969	-0.162	-0.043
-713.718	-200.000	0.011	0.072
-712.704	457.000	-0.043	0.096
-711.689	-124.872	-0.344	-0.054
-710.675	239.288	-0.097	0.162
-709.660	119.034	-0.105	-0.131
-708.645	800.000	0.092	-0.334
-707.631	-200.000	0.018	-0.325
-706.616	-65.435	-0.178	0.072
-705.602	91.742	0.150	-0.170
-704.587	800.000	0.082	-0.306
-703.572	-11.242	0.005	0.004
-702.558	800.000	0.030	0.084
-701.543	165.590	0.044	0.063
-700.529	268.433	-0.127	0.225
-699.514	-166.043	-0.357	0.015
-698.499	-35.721	0.060	-0.033
-697.485	-67.299	0.110	-0.044
-696.470	-28.502	-0.051	-0.029
-695.456	407.370	-0.145	0.308
-694.441	800.000	0.098	0.311
-693.426	-200.000	0.023	-0.248
-692.412	-17.544	-0.024	0.015
-691.397	-86.362	-0.323	0.100
-690.383	-96.272	-0.066	0.018
-689.368	33.909	0.093	0.082
-688.354	16.394	0.075	0.060
-687.339	95.007	-0.180	-0.206
-686.324	173.048	-0.129	-0.187
-685.310	-108.636	0.150	0.032
-684.295	64.596	-0.166	0.169
-683.281	-141.647	-0.210	0.021
-682.266	89.888	0.208	-0.235
-681.251	800.000	-0.041	0.118
-680.237	78.438	-0.123	0.133
-679.222	313.297	-0.083	0.158
-678.208	-200.000	-0.030	0.452
-677.193	15.420	-0.130	-0.103
-676.178	-10.693	-0.284	-0.190
-675.164	-18.372	0.137	0.086
-674.149	-200.000	-0.015	0.069
-673.135	28.944	-0.359	-0.307
-672.120	-40.599	-0.096	-0.050
-671.105	-200.000	0.022	0.138
-670.091	190.058	-0.314	0.476
-669.076	96.619	-0.157	0.182
-668.062	71.122	-0.095	-0.099
-667.047	-117.669	0.539	0.098
-666.032	-6.047	0.138	0.095
-665.018	78.771	-0.215	0.232
-664.003	175.018	-0.137	0.200
-662.989	366.154	-0.042	0.085
-661.974	-200.000	-0.021	-0.150
-660.959	800.000	0.045	0.129
-659.945	-104.963	-0.179	0.041
-658.930	-49.726	0.233	-0.112
-657.916	-200.000	-0.024	0.127
-656.901	800.000	0.067	0.198
-655.886	249.589	0.130	-0.223
-654.872	800.000	-0.126	-0.382
-653.857	82.691	0.090	0.099
-652.843	-200.000	0.040	0.246
-651.828	800.000	0.047	0.157
-650.814	133.498	0.176	-0.230
-649.799	-145.311	-0.120	-0.011
-648.784	316.642	-0.165	-0.314
-647.770	23.170	-0.411	0.340
-646.755	-200.000	0.023	0.233
-645.741	-79.356	-0.056	-0.019
-644.726	19.154	-0.162	-0.131
-643.711	-1.804	-0.287	0.203
-642.697	26.413	0.147	-0.124
-641.682	333.708	0.139	0.270
-640.668	379.403	-0.066	-0.136
-639.653	4.335	-0.087	-0.064
-638.638	179.361	-0.184	-0.271
-637.624	-200.000	0.049	-0.406
-636.609	192.171	0.092	-0.140
-635.595	521.064	-0.034	-0.081
-634.580	389.151	0.162	-0.339
-633.565	-48.143	0.245	-0.119
-632.551	328.199	0.046	-0.088
-631.536	-53.852	0.264	0.121
-630.522	-198.893	0.042	0.000
-629.507	-74.240	0.290	-0.106
-628.492	-200.000	0.003	0.181
-627.478	-157.109	0.145	-0.009
-626.463	-35.310	-0.304	-0.167
-625.449	800.000	0.037	0.115
-624.434	368.562	-0.092	0.187
-623.419	126.746	0.208	0.266
-622.405	-139.254	-0.105	0.011
-621.390	800.000	0.045	-0.188
-620.376	-200.000	0.062	-0.288
-619.361	34.071	0.073	0.064
-618.346	-170.537	-0.150	-0.005
-617.332	-90.428	0.055	-0.016
-616.317	533.599	0.019	0.045
-615.303	-200.000	0.048	-0.223
-614.288	800.000	-0.059	-0.243
-613.273	-200.000	0.046	-0.337
-612.259	-89.186	-0.487	0.145
-611.244	158.800	-0.186	0.259
-610.230	-200.000	0.024	-0.118
-609.215	-200.000	-0.084	-0.629
-608.201	5.031	-0.010	-0.007
-607.186	-26.951	0.108	0.063
-606.171	403.932	-0.047	0.099
-605.157	679.082	-0.033	-0.085
-604.142	800.000	-0.065	-0.238
-603.128	159.651	-0.188	-0.264
-602.113	-134.114	-0.260	0.032
-601.098	-61.299	0.230	-0.097
-600.084	26.065	0.231	0.194
-599.069	-7.494	-0.258	-0.175
-598.055	177.928	0.053	0.078
-597.040	-105.270	0.142	-0.033
-596.025	-200.000	-0.047	0.265
-595.011	-200.000	-0.033	0.170
-593.996	-135.320	0.134	-0.016
-592.982	24.013	-0.104	0.086
-591.967	800.000	0.059	-0.171
-590.952	206.239	-0.131	0.205
-589.938	800.000	-0.121	0.403
-588.923	-44.963	0.222	-0.111
-587.909	-200.000	-0.029	-0.287
-586.894	-200.000	-0.008	-0.050
-585.879	-112.171	-0.412	-0.083
-584.865	412.301	0.194	-0.415
-583.850	-35.139	0.448	-0.246
-582.836	188.605	-0.037	-0.056
-581.821	-200.000	0.002	0.094
-580.806	109.332	-0.099	-0.120
-579.792	800.000	0.102	-0.379
-578.777	123.062	-0.074	-0.093
-577.763	79.508	-0.093	-0.101
-576.748	33.895	-0.045	0.040
-575.733	-200.000	0.003	0.122
-574.719	800.000	-0.171	0.579
-573.704	-22.640	0.318	-0.193
-572.690	-79.244	-0.101	0.034
-571.675	800.000	-0.051	-0.162
-570.661	-200.000	0.040	-0.193
-569.646	-131.361	-0.138	0.018
-568.631	363.773	-0.057	-0.116
-567.617	477.253	-0.158	0.359
-566.602	303.280	-0.123	0.229
-565.588	109.712	0.150	-0.181
-564.573	-134.351	0.217	0.027
-563.558	-170.245	-0.124	0.004
-562.544	-20.088	0.175	-0.109
-561.529	78.645	-0.101	-0.109
-560.515	-106.497	-0.152	-0.034
-559.500	-108.923	-0.218	-0.047
-558.485	596.511	-0.094	0.235
-557.471	570.525	-0.097	-0.237
-556.456	-70.437	0.202	-0.077
-555.442	719.328	-0.175	-0.467
-554.427	-21.969	-0.068	-0.042
-553.412	98.859	-0.060	0.070
-552.398	-90.451	-0.256	0.074
-551.383	800.000	-0.057	-0.160
-550.369	566.600	-0.061	-0.148
-549.354	800.000	0.039	-0.157
-548.339	-200.000	-0.066	0.499
-547.325	77.237	0.160	-0.171
-546.310	96.913	-0.172	-0.197
-545.296	9.858	-0.289	-0.220
-544.281	3.291	0.168	0.122
-543.266	162.975	0.128	0.180
-542.252	-144.374	-0.226	0.021
-541.237	20.053	-0.068	-0.055
-540.223	117.118	0.095	0.118
-539.208	505.634	0.121	-0.281
-538.193	180.327	0.021	-0.030
-537.179	-83.086	-0.190	0.061
-536.164	-56.443	0.189	0.084
-535.150	-60.206	-0.124	0.053
-534.135	112.417	0.067	0.081
-533.121	121.286	-0.213	0.266
-532.106	800.000	0.043	0.180
-531.091	455.311	-0.054	-0.119
-530.077	197.725	0.161	0.246
-529.062	-57.577	0.157	-0.069
-528.048	800.000	-0.039	-0.109
-527.033	-140.328	-0.137	-0.014
-526.018	-200.000	0.021	0.183
-525.004	800.000	0.076	0.225
-523.989	-112.598	-0.261	0.052
-522.975	70.733	-0.103	0.107
-521.960	-123.053	0.108	0.017
-520.945	163.916	0.166	0.235
-519.931	-98.120	-0.024	0.006
-518.916	238.733	-0.105	-0.176
-517.902	-82.644	0.127	-0.041
-516.887	800.000	-0.065	-0.268
-515.872	597.506	0.062	0.154
-514.858	-200.000	0.009	0.087
-513.843	-128.085	-0.172	-0.025
-512.829	-120.398	0.113	-0.019
-511.814	-79.410	-0.179	0.061
-510.799	-200.000	-0.008	-0.201
-509.785	86.114	0.180	0.199
-508.770	-128.094	0.192	-0.028
-507.756	-186.358	-0.214	-0.003
-506.741	90.797	-0.188	-0.211
-505.726	280.015	0.029	0.052
-504.712	-66.299	0.124	0.049
-503.697	101.479	0.335	-0.391
-502.683	-73.561	-0.191	-0.070
-501.668	-200.000	0.036	-0.162
-500.653	-200.000	0.012	0.371
-499.639	145.172	-0.264	0.354
-498.624	-122.726	-0.198	-0.032
-497.610	-11.979	-0.235	-0.154
-496.595	-200.000	-0.051	0.235
-495.581	-200.000	-0.062	0.310
-494.566	13.983	-0.200	0.156
-493.551	-200.000	-0.020	-0.159
-492.537	800.000	0.076	0.233
-491.522	-200.000	0.002	0.099
-490.508	-200.000	-0.015	0.077
-489.493	246.096	0.127	-0.215
-488.478	800.000	-0.104	-0.368
-487.464	-200.000	-0.022	0.119
-486.449	-82.598	0.212	-0.069
-485.435	77.674	0.166	-0.177
-484.420	-115.220	0.119	0.023
-483.405	-200.000	0.001	0.012
-482.391	-200.000	0.001	0.079
-481.376	-68.702	-0.061	-0.024
-480.362	-92.989	0.333	-0.093
-479.347	172.635	-0.156	0.224
-478.332	-126.313	-0.285	0.043
-477.318	269.358	0.212	0.373
-476.303	-200.000	-0.025	0.155
-475.289	14.301	-0.352	-0.275
-474.274	-125.417	0.487	0.074
-473.259	-200.000	-0.008	0.061
-472.245	-119.971	-0.187	0.032
-471.230	87.281	0.318	-0.352
-470.216	81.555	0.066	-0.071
-469.201	95.696	-0.031	0.035
-468.186	-200.000	-0.004	0.187
-467.172	-16.226	-0.198	0.126
-466.157	-200.000	-0.017	-0.273
-465.143	-200.000	-0.006	-0.268
-464.128	-200.000	0.006	-0.202
-463.113	69.053	-0.190	-0.195
-462.099	39.151	-0.223	0.199
-461.084	46.066	0.286	0.265
-460.070	-200.000	-0.007	0.102
-459.055	-200.000	0.033	-0.163
-458.040	467.561	0.088	-0.197
-457.026	-154.749	0.186	0.012
-456.011	26.754	-0.227	0.191
-454.997	800.000	-0.113	-0.475
-453.982	-200.000	-0.002	0.067
-452.968	291.553	-0.107	-0.194
-451.953	-9.210	0.387	-0.259
-450.938	121.575	0.059	0.073
-449.924	223.142	0.147	0.237
-448.909	-200.000	-0.028	0.242
-447.895	-200.000	0.009	0.205
-446.880	-45.217	0.183	0.091
-445.865	-59.479	0.376	0.161
-444.851	-200.000	-0.012	-0.064
-443.836	-17.524	-0.137	0.086
-442.822	800.000	0.012	0.036
-441.807	44.288	0.123	0.113
-440.792	175.209	0.103	0.149
-439.778	-43.121	-0.317	0.161
-438.763	-79.273	-0.190	-0.064
-437.749	-112.134	0.171	-0.034
-436.734	-33.680	0.331	0.183
-435.719	-18.907	0.209	-0.130
-434.705	215.312	-0.202	0.320
-433.690	-28.426	-0.175	-0.101
-432.676	79.784	0.057	-0.062
-431.661	-200.000	-0.039	0.379
-430.646	26.412	-0.094	-0.078
-429.632	-41.133	-0.385	0.199
-428.617	-75.158	-0.291	0.104
-427.603	-101.218	0.117	-0.029
-426.588	-105.894	0.157	-0.035
-425.573	-79.605	-0.356	-0.120
-424.559	800.000	-0.196	0.605
-423.544	-160.626	0.344	0.018
-422.530	259.326	-0.242	-0.418
-421.515	-92.918	-0.098	0.027
-420.500	800.000	-0.043	0.185
-419.486	81.770	0.049	0.053
-418.471	800.000	-0.020	-0.069
-417.457	53.035	-0.140	-0.134
-416.442	-16.057	-0.051	0.032
-415.428	800.000	0.040	0.161
-414.413	-67.651	-0.209	0.082
-413.398	156.763	-0.142	-0.196
-412.384	-160.872	-0.358	0.019
-411.369	-200.000	0.040	-0.214
-410.355	54.566	0.329	0.317
-409.340	800.000	-0.064	-0.198
-408.325	247.920	-0.118	0.199
-407.311	800.000	0.106	0.335
-406.296	19.047	-0.320	-0.256
-405.282	-200.000	-0.018	-0.098
-404.267	-52.451	-0.423	0.195
-403.252	-98.934	0.360	0.091
-402.238	-89.272	0.318	0.094
-401.223	643.347	0.065	-0.165
-400.209	-200.000	-0.022	-0.214
-399.194	-200.000	-0.024	0.141
-398.179	707.027	0.101	-0.267
-397.165	-200.000	0.023	0.215
-396.150	-61.269	-0.210	-0.088
-395.136	-200.000	-0.001	-0.305
-394.121	518.877	0.220	-0.514
-393.106	87.106	-0.337	-0.371
-392.092	324.763	0.135	-0.258
-391.077	9.650	-0.234	0.177
-390.063	-26.949	-0.178	0.104
-389.048	-34.330	-0.153	-0.084
-388.033	-134.130	-0.091	-0.011
-387.019	800.000	-0.071	-0.238
-386.004	-200.000	-0.024	0.230
-384.990	561.155	-0.054	0.130
-383.975	-120.823	0.175	0.029
-382.960	-13.805	-0.177	0.114
-381.946	75.653	0.322	-0.340
-380.931	544.704	-0.050	-0.119
-379.917	548.073	0.048	-0.115
-378.902	41.182	0.146	0.132
-377.888	-200.000	0.024	-0.154
-376.873	586.504	-0.086	0.211
-375.858	800.000	0.036	0.115
-374.844	117.621	-0.154	-0.189
-373.829	-200.000	0.004	-0.286
-372.815	-200.000	-0.017	-0.326
-371.800	-42.611	0.272	0.138
-370.785	114.338	0.157	-0.190
-369.771	-200.000	-0.015	-0.198
-368.756	254.923	0.062	0.106
-367.742	-200.000	-0.001	0.139
-366.727	-120.276	-0.070	-0.012
-365.712	-200.000	-0.009	0.197
-364.698	-19.382	-0.161	-0.100
-363.683	-25.023	-0.192	-0.114
-362.669	800.000	-0.060	-0.225
-361.654	-115.570	-0.235	-0.044
-360.639	-84.575	-0.162	0.051
-359.625	800.000	-0.080	-0.236
-358.610	-200.000	0.028	0.233
-357.596	276.125	0.057	-0.100
-356.581	-170.674	0.235	0.008
-355.566	-200.000	-0.028	0.137
-354.552	557.887	0.069	-0.166
-353.537	-35.022	0.356	0.194
-352.523	314.213	-0.081	0.151
-351.508	-200.000	0.061	0.303
-350.493	-27.231	0.226	0.131
-349.479	278.751	-0.145	-0.258
-348.464	-200.000	0.026	0.126
-347.450	-200.000	0.014	0.200
-346.435	800.000	-0.072	-0.255
-345.420	800.000	0.060	0.178
-344.406	-200.000	-0.036	0.203
-343.391	800.000	-0.038	0.135
-342.377	217.062	0.077	0.123
-341.362	549.551	0.021	-0.051
-340.348	800.000	-0.074	-0.221
-339.333	-63.363	-0.228	0.093
-338.318	-200.000	0.001	0.115
-337.304	-162.910	-0.039	-0.002
-336.289	-200.000	-0.053	0.445
-335.275	-168.320	0.082	0.003
-334.260	15.293	0.123	-0.096
-333.245	800.000	0.106	-0.304
-332.231	-86.220	0.204	-0.063
-331.216	800.000	-0.013	0.049
-330.202	-200.000	0.039	-0.207
-329.187	-200.000	0.004	-0.123
-328.172	-31.220	-0.165	0.092
-327.158	384.733	-0.105	0.215
-326.143	142.299	0.028	-0.038
-325.129	-86.883	-0.119	0.036
-324.114	-115.512	0.107	0.020
-323.099	80.021	0.227	0.243
-322.085	-70.280	0.127	-0.048
-321.070	-195.012	-0.257	0.002
-320.056	-94.243	0.373	0.102
-319.041	-54.245	-0.077	0.035
-318.026	17.603	-0.024	-0.019
-317.012	-119.163	0.159	-0.028
-315.997	187.579	-0.025	0.037
-314.983	183.632	0.036	0.052
-313.968	-132.083	-0.041	-0.005
-312.953	-144.616	-0.224	-0.021
-311.939	-200.000	0.021	0.199
-310.924	542.258	0.036	0.085
-309.910	-22.046	-0.151	0.091
-308.895	-19.860	0.319	0.196
-307.880	-200.000	0.004	0.261
-306.866	27.777	-0.116	0.097
-305.851	-193.004	-0.159	0.001
-304.837	800.000	0.115	-0.319
-303.822	-2.013	0.244	0.171
-302.807	317.664	0.104	-0.195
-301.793	800.000	0.017	-0.074
-300.778	-157.858	0.226	-0.013
-299.764	169.796	0.125	0.178
-298.749	152.262	-0.167	0.227
-297.735	19.702	0.109	-0.088
-296.720	-124.669	-0.135	-0.021
-295.705	-200.000	0.006	0.124
-294.691	42.649	-0.075	0.068
-293.676	83.878	0.155	-0.168
-292.662	-5.305	0.159	-0.109
-291.647	800.000	0.031	-0.124
-290.632	194.259	0.144	0.217
-289.618	800.000	0.108	0.337
-288.603	800.000	0.113	0.327
-287.589	-106.303	-0.388	0.086
-286.574	95.214	-0.033	0.038
-285.559	219.395	0.047	0.075
-284.545	800.000	0.136	0.500
-283.530	54.581	0.075	-0.072
-282.516	-25.765	0.132	0.077
-281.501	-102.594	0.325	0.077
-280.486	-116.602	0.190	-0.035
-279.472	800.000	-0.098	0.316
-278.457	152.544	0.154	0.209
-277.443	-0.321	0.035	0.025
-276.428	9.926	-0.114	-0.086
-275.413	206.395	0.090	-0.139
-274.399	66.651	0.091	-0.092
-273.384	21.831	-0.290	0.234
-272.370	-57.635	0.283	-0.123
-271.355	25.719	-0.213	-0.176
-270.340	252.373	0.102	0.173
-269.326	-200.000	0.010	-0.113
-268.311	800.000	-0.041	-0.137
-267.297	202.011	-0.111	-0.170
-266.282	-95.560	0.257	0.068
-265.267	159.926	0.134	0.185
-264.253	-200.000	0.008	0.110
-263.238	800.000	-0.149	-0.517
-262.224	800.000	0.034	-0.135
-261.209	-29.682	0.087	0.049
-260.195	118.556	-0.096	-0.117
-259.180	429.176	-0.106	0.228
-258.165	-107.867	0.042	-0.009
-257.151	205.803	0.092	0.141
-256.136	-200.000	0.004	-0.264
-255.122	6.490	0.057	0.042
-254.107	292.583	-0.071	0.128
-253.092	126.880	0.131	-0.165
-252.078	173.629	0.137	-0.196
-251.063	76.255	0.130	-0.137
-250.049	305.284	-0.050	0.093
-249.034	-200.000	0.047	0.306
-248.019	800.000	-0.098	0.412
-247.005	-16.542	0.251	0.158
-245.990	-47.288	0.074	-0.036
-244.976	-88.354	0.119	-0.035
-243.961	89.734	-0.254	0.281
-242.946	800.000	-0.029	0.119
-241.932	-63.228	0.138	0.057
-240.917	-98.140	-0.078	-0.020
-239.903	800.000	0.063	0.264
-238.888	286.804	0.083	-0.148
-237.873	158.146	0.181	-0.249
-236.859	36.960	0.119	0.104
-235.844	358.028	0.012	0.025
-234.830	88.072	-0.236	-0.260
-233.815	-52.737	0.142	-0.065
-232.800	800.000	-0.047	0.135
-231.786	16.402	0.173	-0.135
-230.771	-200.000	0.001	0.202
-229.757	20.532	-0.186	-0.149
-228.742	59.479	0.061	0.060
-227.727	-200.000	-0.043	0.241
-226.713	-200.000	0.013	-0.114
-225.698	60.429	0.053	-0.052
-224.684	-200.000	-0.011	0.109
-223.669	787.312	-0.058	-0.158
-222.655	-24.706	-0.096	0.057
-221.640	2.843	0.027	-0.019
-220.625	363.859	-0.116	0.231
-219.611	611.401	-0.031	-0.077
-218.596	-200.000	-0.017	-0.203
-217.582	-72.462	-0.118	-0.043
-216.567	157.405	-0.091	0.125
-215.552	280.063	0.250	-0.443
-214.538	378.999	-0.137	0.277
-213.523	-186.659	-0.104	-0.001
-212.509	800.000	-0.083	0.348
-211.494	21.524	0.102	0.082
-210.479	-173.929	0.292	0.009
-209.465	-51.445	0.160	-0.074
-208.450	-200.000	-0.005	0.074
-207.436	260.195	0.068	-0.116
-206.421	-200.000	0.026	-0.235
-205.406	603.403	0.111	-0.273
-204.392	158.134	-0.137	0.188
-203.377	-106.700	-0.243	0.054
-202.363	-50.681	0.108	0.050
-201.348	86.846	0.045	-0.049
-200.333	-95.931	0.378	0.100
-199.319	-42.124	0.239	0.121
-198.304	-57.637	-0.010	0.004
-197.290	-25.403	-0.130	0.076
-196.275	-121.292	-0.150	-0.025
-195.260	-49.561	0.227	0.107
-194.246	72.191	-0.159	-0.164
-193.231	81.042	0.234	-0.250
-192.217	59.155	0.258	-0.252
-191.202	-119.334	-0.359	-0.062
-190.187	16.840	0.166	0.130
-189.173	24.590	-0.086	-0.070
-188.158	-13.815	0.171	0.110
-187.144	-200.000	-0.017	-0.098
-186.129	290.296	0.234	-0.421
-185.114	96.367	-0.180	0.204
-184.100	-135.036	-0.176	0.021
-183.085	587.227	0.097	-0.235
-182.071	23.341	0.268	0.218
-181.056	337.077	0.108	-0.207
-180.042	341.279	-0.062	-0.120
-179.027	162.375	-0.050	0.069
-178.012	289.088	-0.080	0.144
-176.998	-37.998	-0.122	0.064
-175.983	-169.047	0.477	0.018
-174.969	68.189	0.095	-0.096
-173.954	-78.689	0.256	-0.086
-172.939	-53.136	-0.059	0.027
-171.925	282.412	0.087	0.154
-170.910	307.450	-0.049	0.091
-169.896	81.437	0.138	0.148
-168.881	202.985	-0.026	-0.040
-167.866	24.637	-0.263	-0.216
-166.852	800.000	-0.096	-0.327
-165.837	-200.000	0.019	0.146
-164.823	109.710	-0.085	-0.101
-163.808	235.935	-0.060	0.099
-162.793	-200.000	0.043	-0.191
-161.779	-146.384	-0.082	0.007
-160.764	800.000	-0.046	-0.130
-159.750	800.000	0.071	0.234
-158.735	117.579	-0.299	0.364
-157.720	-160.179	0.201	0.011
-156.706	-80.760	-0.357	0.117
-155.691	302.957	0.037	-0.068
-154.677	66.707	0.161	-0.162
-153.662	-85.934	0.139	0.043
-152.647	-0.057	-0.147	0.103
-151.633	510.910	-0.087	-0.199
-150.618	341.904	-0.036	-0.070
-149.604	-164.779	0.285	-0.013
-148.589	-104.339	-0.260	0.060
-147.574	146.188	-0.074	0.099
-146.560	-200.000	0.018	-0.151
-145.545	-7.446	0.040	0.027
-144.531	-102.403	-0.201	0.048
-143.516	-84.936	-0.108	-0.033
-142.502	-200.000	-0.041	0.232
-141.487	161.592	-0.154	0.213
-140.472	186.681	-0.058	0.085
-139.458	379.586	0.116	0.234
-138.443	288.725	-0.114	-0.204
-137.429	-87.158	0.188	-0.057
-136.414	-113.114	-0.171	0.033
-135.399	-0.849	0.253	0.177
-134.385	800.000	0.012	0.039
-133.370	293.990	0.149	-0.268
-132.356	-155.063	-0.019	0.001
-131.341	-200.000	0.032	0.202
-130.326	-79.862	-0.208	-0.069
-129.312	-195.731	-0.176	-0.001
-128.297	76.207	0.126	0.132
-127.283	-160.899	-0.258	-0.013
-126.268	-151.022	-0.145	-0.011
-125.253	-49.124	0.411	0.194
-124.239	800.000	0.119	-0.348
-123.224	-200.000	0.010	-0.127
-122.210	86.532	0.158	0.172
-121.195	240.061	0.152	0.250
-120.180	239.826	-0.102	-0.167
-119.166	5.834	-0.168	-0.122
-118.151	-42.249	0.209	-0.106
-117.137	800.000	-0.055	-0.155
-116.122	800.000	-0.016	0.058
-115.107	-93.314	0.242	0.066
-114.093	-200.000	-0.024	0.262
-113.078	-115.721	0.191	0.035
-112.064	-73.988	0.337	0.121
-111.049	8.914	0.388	0.289
-110.034	67.185	0.066	0.067
-109.020	345.331	-0.045	-0.087
-108.005	-172.464	-0.331	-0.010
-106.991	-200.000	-0.015	-0.083
-105.976	113.398	0.105	-0.126
-104.962	-200.000	-0.001	-0.060
-103.947	-200.000	0.003	0.325
-102.932	800.000	0.040	-0.114
-101.918	-35.426	0.249	-0.134
-100.903	800.000	0.027	0.093
-99.889	-92.326	-0.105	0.029
-98.874	-71.534	0.288	-0.106
-97.859	280.571	0.152	-0.268
-96.845	185.571	-0.075	0.110
-95.830	-104.293	0.436	0.100
-94.816	-176.176	0.244	0.006
-93.801	155.522	0.179	0.242
-92.786	800.000	-0.039	0.131
-91.772	-95.069	-0.238	-0.063
-90.757	4.934	0.053	-0.038
-89.743	-142.595	-0.085	0.008
-88.728	460.258	-0.105	0.231
-87.713	-54.940	-0.007	-0.003
-86.699	231.836	0.136	-0.219
-85.684	60.142	0.130	0.127
-84.670	-200.000	0.007	0.149
-83.655	-107.790	0.143	-0.031
-82.640	-200.000	-0.014	0.255
-81.626	256.431	-0.106	0.179
-80.611	-126.095	0.177	0.026
-79.597	-98.529	0.358	0.090
-78.582	207.040	-0.105	-0.161
-77.567	225.701	0.077	-0.122
-76.553	169.377	0.121	-0.171
-75.538	800.000	-0.042	-0.140
-74.524	-200.000	-0.050	-0.242
-73.509	5.170	-0.111	0.081
-72.494	800.000	0.085	0.286
-71.480	68.100	-0.091	-0.092
-70.465	77.740	0.181	-0.190
-69.451	-13.323	-0.197	0.126
-68.436	249.744	0.075	-0.125
-67.422	-35.036	-0.232	-0.124
-66.407	-66.798	-0.090	-0.035
-65.392	-73.026	0.105	0.038
-64.378	-146.537	0.269	0.023
-63.363	174.495	-0.193	-0.274
-62.349	-200.000	0.018	0.309
-61.334	12.819	-1.079	-0.821
-60.319	129.361	0.348	0.438
-59.305	198.208	-0.471	-0.710
-58.290	267.089	0.600	1.033
-57.276	626.989	0.604	1.503
-56.261	-200.000	96.117	545.160
-55.246	502.304	1421.220	3233.714
-54.232	145.427	2650.906	3495.210
-53.217	104.090	2348.364	2719.019
-52.203	43.713	1955.442	1762.059
-51.188	37.823	1740.630	1522.591
-50.173	35.021	1695.797	1461.952
-49.159	50.369	1743.196	1622.047
-48.144	53.170	1760.770	1660.045
-47.130	37.342	1717.853	1498.715
-46.115	34.570	1702.846	1464.336
-45.100	34.390	1698.031	1458.754
-44.086	34.435	1694.971	1456.417
-43.071	34.431	1692.753	1454.420
-42.057	34.413	1689.619	1451.530
-41.042	34.467	1687.774	1450.298
-40.027	34.394	1686.354	1448.470
-39.013	34.423	1683.788	1446.429
-37.998	34.318	1682.707	1444.641
-36.984	34.336	1681.117	1443.356
-35.969	34.544	1679.264	1443.287
-34.954	34.426	1677.846	1441.117
-33.940	34.519	1675.447	1439.698
-32.925	34.566	1673.525	1438.348
-31.911	34.489	1672.055	1436.444
-30.896	34.420	1670.350	1434.402
-29.881	34.469	1669.022	1433.577
-28.867	34.417	1667.265	1431.621
-27.852	34.533	1665.652	1431.046
-26.838	34.489	1664.116	1429.343
-25.823	34.568	1662.666	1428.631
-24.809	34.578	1661.090	1427.296
-23.794	34.517	1660.059	1425.895
-22.779	34.478	1658.230	1423.974
-21.765	34.519	1656.564	1422.797
-20.750	34.482	1654.865	1421.001
-19.736	34.596	1653.498	1420.624
-18.721	34.555	1652.270	1419.208
-17.706	34.654	1649.946	1417.890
-16.692	34.571	1648.852	1416.276
-15.677	34.544	1647.512	1414.871
-14.663	34.541	1645.875	1413.382
-13.648	34.627	1644.316	1412.625
-12.633	34.493	1643.110	1410.546
-11.619	34.503	1641.722	1409.368
-10.604	34.477	1639.645	1407.342
-9.590	34.540	1638.354	1406.643
-8.575	34.558	1636.949	1405.510
-7.560	34.522	1635.940	1404.327
-6.546	34.525	1634.819	1403.331
-5.531	34.460	1634.082	1402.164
-4.517	34.575	1632.250	1401.377
-3.502	34.448	1631.964	1400.143
-2.487	34.535	1629.945	1398.993
-1.473	34.331	1618.063	1387.256
-0.458	31.210	1596.976	1346.651
0.556	25.590	1595.235	1306.816
1.571	22.567	1618.607	1303.524
2.586	21.426	1630.806	1304.720
3.600	19.208	1577.545	1245.973
4.615	10.957	1464.446	1100.917
5.629	2.627	1395.982	995.429
6.644	0.783	1386.635	976.774
7.659	0.640	1385.840	975.206
8.673	0.636	1384.372	974.063
9.688	0.531	1383.064	972.375
10.702	0.447	1379.771	969.435
11.717	4.051	1386.036	996.984
12.731	12.536	1399.428	1061.492
13.746	17.431	1405.611	1097.745
14.761	17.358	1404.199	1096.074
15.775	16.482	1402.148	1088.732
16.790	15.509	1399.237	1080.119
17.804	14.780	1396.888	1073.530
18.819	14.418	1395.685	1070.189
19.834	14.103	1394.049	1066.817
20.848	13.877	1392.583	1064.153
21.863	13.599	1391.649	1061.566
22.877	13.384	1390.510	1059.226
23.892	13.443	1388.848	1058.242
24.907	13.380	1388.025	1057.120
25.921	13.348	1387.679	1056.559
26.936	13.426	1386.968	1056.422
27.950	13.454	1385.764	1055.589
28.965	13.461	1385.078	1055.019
29.980	13.526	1383.872	1054.420
30.994	13.628	1382.940	1054.266
32.009	13.656	1381.733	1053.432
33.023	13.718	1380.323	1052.658
34.038	13.612	1379.219	1051.050
35.053	13.565	1378.104	1049.807
36.067	13.538	1377.453	1049.046
37.082	13.546	1375.995	1047.897
38.096	13.624	1375.421	1047.859
39.111	13.566	1374.356	1046.589
40.126	13.502	1373.409	1045.369
41.140	13.443	1372.856	1044.482
42.155	13.418	1372.522	1043.978
43.169	13.304	1372.120	1042.865
44.184	13.300	1372.039	1042.683
45.199	13.443	1371.469	1043.059
46.213	13.385	1370.689	1042.008
47.228	13.444	1369.710	1041.546
48.242	13.522	1368.149	1040.755
49.257	13.528	1366.694	1039.595
50.271	13.448	1365.916	1038.406
51.286	13.488	1364.291	1037.331
52.301	13.515	1362.784	1036.262
53.315	13.594	1361.429	1035.633
54.330	13.391	1361.159	1034.070
55.344	13.443	1359.474	1033.021
56.359	13.387	1358.753	1032.032
57.374	13.497	1357.716	1031.837
58.388	13.419	1356.919	1030.659
59.403	13.370	1356.374	1029.847
60.417	13.349	1355.792	1029.181
61.432	13.387	1354.421	1028.288
62.447	13.307	1353.582	1027.065
63.461	13.340	1352.278	1026.188
64.476	13.333	1351.213	1025.245
65.490	13.322	1350.068	1024.214
66.505	13.345	1348.829	1023.328
67.520	13.331	1347.570	1022.195
68.534	13.331	1346.463	1021.264
69.549	13.343	1345.353	1020.408
70.563	13.296	1344.607	1019.460
71.578	13.227	1343.249	1017.918
72.593	13.224	1342.589	1017.308
73.607	13.197	1341.701	1016.382
74.622	13.253	1340.643	1015.832
75.636	13.337	1339.387	1015.304
76.651	13.216	1338.991	1014.177
77.666	13.235	1338.571	1013.886
78.680	13.237	1338.287	1013.593
79.695	13.374	1337.053	1013.408
80.709	13.340	1336.271	1012.515
81.724	13.322	1335.424	1011.676
82.739	13.408	1334.222	1011.200
83.753	13.400	1333.501	1010.517
84.768	13.439	1332.180	1009.659
85.782	13.385	1330.944	1008.306
86.797	13.415	1330.013	1007.698
87.812	13.454	1328.224	1006.487
88.826	13.321	1327.456	1005.010
89.841	13.416	1326.501	1004.776
90.855	13.559	1325.008	1004.421
91.870	13.563	1324.436	1003.920
92.884	13.559	1323.157	1002.839
93.899	13.564	1322.712	1002.443
94.914	13.638	1321.685	1002.026
95.928	13.583	1321.095	1001.155
96.943	13.470	1320.302	999.787
97.957	13.540	1319.253	999.322
98.972	13.572	1318.125	998.575
99.987	13.475	1317.128	997.145
101.001	13.564	1316.280	996.948
102.016	13.485	1315.255	995.610
103.030	13.570	1313.974	995.063
104.045	13.535	1313.577	994.467
105.060	13.501	1311.839	992.856
106.074	13.413	1310.848	991.492
107.089	13.336	1309.652	990.043
108.103	13.422	1308.255	989.409
109.118	13.459	1306.565	988.263
110.133	13.399	1305.667	987.140
111.147	13.451	1304.250	986.291
112.162	13.518	1302.977	985.643
113.176	13.476	1301.823	984.429
114.191	13.523	1301.095	984.075
115.206	13.422	1300.392	982.853
116.220	13.455	1298.867	981.812
117.235	13.461	1297.404	980.654
118.249	13.489	1296.646	980.161
119.264	13.542	1295.428	979.464
120.279	13.503	1294.691	978.588
121.293	13.421	1293.403	977.049
122.308	13.439	1292.103	976.084
123.322	13.485	1290.781	975.268
124.337	13.422	1290.577	974.658
125.352	13.421	1289.194	973.523
126.366	13.445	1288.047	972.710
127.381	13.441	1287.041	971.840
128.395	13.370	1286.266	970.755
129.410	13.400	1285.111	969.973
130.424	13.498	1283.915	969.560
131.439	13.524	1283.476	969.293
132.454	13.574	1282.033	968.409
133.468	13.531	1281.271	967.498
134.483	13.543	1280.609	966.980
135.497	13.561	1279.609	966.244
136.512	13.563	1278.193	965.100
137.527	13.520	1277.132	963.966
138.541	13.475	1275.426	962.334
139.556	13.530	1274.047	961.528
140.570	13.569	1273.102	960.955
141.585	13.609	1271.340	959.768
142.600	13.570	1270.632	958.925
143.614	13.693	1269.685	958.837
144.629	13.645	1268.618	957.668
145.643	13.685	1267.408	956.902
146.658	13.604	1266.121	955.377
147.673	13.649	1264.312	954.186
148.687	13.515	1263.767	952.920
149.702	13.630	1262.071	952.220
150.716	13.562	1260.826	950.806
151.731	13.576	1259.666	949.927
152.746	13.556	1258.922	949.165
153.760	13.581	1257.529	948.176
154.775	13.579	1256.135	947.027
155.789	13.717	1254.914	946.813
156.804	13.587	1253.989	945.291
157.819	13.605	1253.102	944.639
158.833	13.636	1252.170	944.028
159.848	13.683	1250.896	943.253
160.862	13.707	1250.140	942.737
161.877	13.754	1248.212	941.463
162.892	13.760	1247.523	940.895
163.906	13.729	1246.666	939.993
164.921	13.673	1246.123	939.181
165.935	13.799	1245.093	939.033
166.950	13.779	1244.423	938.335
167.964	13.759	1243.856	937.709
168.979	13.729	1243.367	937.091
169.994	13.732	1242.447	936.329
171.008	13.694	1241.652	935.435
172.023	13.851	1240.544	935.399
173.037	13.834	1240.014	934.821
174.052	13.732	1238.926	933.346
175.067	13.854	1237.998	933.250
176.081	13.890	1236.917	932.554
177.096	13.806	1236.127	931.403
178.110	13.822	1234.461	930.154
179.125	13.786	1233.446	929.110
180.140	13.878	1232.314	928.690
181.154	13.923	1231.040	927.895
182.169	13.830	1230.196	926.659
183.183	13.875	1228.833	925.804
184.198	13.998	1227.308	925.255
185.213	14.115	1226.169	924.964
186.227	14.078	1225.300	924.025
187.242	14.004	1224.647	923.038
188.256	14.023	1224.204	922.731
189.271	14.096	1222.614	921.854
190.286	13.908	1221.618	919.981
191.300	13.877	1220.659	919.006
192.315	13.931	1220.270	918.926
193.329	13.901	1219.446	918.063
194.344	13.871	1218.967	917.454
195.359	14.050	1218.090	917.702
196.373	14.086	1217.106	917.074
197.388	14.082	1217.357	917.159
198.402	14.046	1216.720	916.401
199.417	14.148	1216.204	916.494
200.432	14.242	1215.042	916.055
201.446	14.230	1214.317	915.360
202.461	14.137	1213.326	914.020
203.475	14.378	1212.063	914.315
204.490	14.305	1210.842	912.909
205.504	14.280	1209.734	911.860
206.519	14.246	1208.995	911.035
207.534	14.351	1207.418	910.339
208.548	14.222	1206.502	908.864
209.563	14.339	1205.620	908.756
210.577	14.307	1204.941	907.989
211.592	14.480	1203.794	907.989
212.607	14.388	1203.113	906.893
213.621	14.352	1202.360	906.051
214.636	14.351	1201.570	905.370
215.650	14.434	1200.305	904.785
216.665	14.334	1199.949	903.892
217.680	14.409	1199.223	903.675
218.694	14.538	1198.233	903.546
219.709	14.560	1197.014	902.666
220.723	14.474	1196.096	901.430
221.738	14.409	1195.458	900.517
222.753	14.426	1195.037	900.216
223.767	14.642	1193.734	900.316
224.782	14.607	1193.466	899.847
225.796	14.678	1192.601	899.497
226.811	14.659	1191.886	898.775
227.826	14.674	1191.664	898.612
228.840	14.565	1191.092	897.511
229.855	14.507	1190.290	896.518
230.869	14.608	1189.199	896.157
231.884	14.630	1188.131	895.392
232.899	14.553	1187.573	894.479
233.913	14.506	1186.879	893.629
234.928	14.522	1186.305	893.200
235.942	14.521	1185.514	892.522
236.957	14.565	1184.702	892.064
237.972	14.577	1183.784	891.359
238.986	14.629	1182.938	890.922
240.001	14.664	1182.336	890.577
241.015	14.674	1181.488	889.915
242.030	14.713	1180.480	889.280
243.045	14.689	1180.010	888.723
244.059	14.722	1178.886	887.969
245.074	14.836	1177.894	887.752
246.088	14.803	1177.420	887.143
247.103	14.821	1176.298	886.314
248.117	14.876	1175.727	886.095
249.132	14.800	1175.121	885.158
250.147	14.922	1174.709	885.414
251.161	15.062	1173.487	885.153
252.176	14.977	1172.986	884.249
253.190	14.986	1172.615	883.940
254.205	15.078	1171.935	883.835
255.220	15.130	1171.012	883.334
256.234	15.054	1170.739	882.650
257.249	15.070	1169.865	881.999
258.263	15.102	1169.256	881.629
259.278	15.212	1168.333	881.430
260.293	15.213	1167.854	880.999
261.307	15.150	1167.433	880.272
262.322	15.211	1166.946	880.148
263.336	15.277	1166.017	879.715
264.351	15.149	1165.742	878.756
265.366	15.150	1165.404	878.430
266.380	15.259	1163.887	877.781
267.395	15.179	1163.303	876.845
268.409	15.210	1162.794	876.543
269.424	15.134	1162.102	875.548
270.439	15.243	1161.416	875.526
271.453	15.207	1160.458	874.538
272.468	15.181	1159.627	873.698
273.482	15.320	1158.720	873.658
274.497	15.296	1158.340	873.170
275.512	15.359	1157.280	872.621
276.526	15.350	1156.651	872.023
277.541	15.335	1155.995	871.372
278.555	15.338	1155.655	871.058
279.570	15.340	1154.784	870.336
280.585	15.421	1153.832	869.959
281.599	15.387	1153.047	869.114
282.614	15.508	1151.559	868.540
283.628	15.454	1150.912	867.698
284.643	15.390	1150.048	866.641
285.657	15.496	1148.729	866.115
286.672	15.530	1147.704	865.440
287.687	15.608	1147.095	865.305
288.701	15.537	1146.608	864.499
289.716	15.656	1145.659	864.318
290.730	15.589	1144.818	863.264
291.745	15.583	1144.417	862.854
292.760	15.553	1143.829	862.181
293.774	15.589	1143.044	861.693
294.789	15.563	1142.513	861.084
295.803	15.656	1142.019	861.116
296.818	15.670	1140.912	860.276
297.833	15.595	1140.375	859.408
298.847	15.743	1139.286	859.269
299.862	15.742	1138.637	858.700
300.876	15.717	1137.797	857.859
301.891	15.680	1137.445	857.331
302.906	15.657	1136.726	856.594
303.920	15.808	1135.633	856.466
304.935	15.878	1135.237	856.448
305.949	15.972	1134.185	856.058
306.964	15.914	1134.067	855.597
307.979	15.936	1133.294	855.047
308.993	15.984	1132.160	854.360
310.008	16.082	1131.233	854.085
311.022	15.996	1130.581	853.079
312.037	15.963	1129.751	852.213
313.052	15.852	1129.390	851.301
314.066	15.852	1128.152	850.291
315.081	15.928	1127.373	850.014
316.095	15.974	1126.530	849.537
317.110	15.979	1125.736	848.889
318.125	15.921	1125.040	847.996
319.139	15.850	1124.708	847.313
320.154	15.925	1123.628	846.799
321.168	15.928	1123.271	846.470
322.183	15.900	1122.579	845.733
323.197	15.934	1122.058	845.439
324.212	15.981	1121.280	845.013
325.227	15.972	1120.645	844.416
326.241	16.072	1119.993	844.347
327.256	15.994	1119.391	843.433
328.270	15.915	1118.492	842.284
329.285	16.119	1117.022	842.121
330.300	16.109	1116.212	841.387
331.314	16.060	1115.277	840.364
332.329	16.018	1114.374	839.396
333.343	16.088	1113.500	839.016
334.358	16.199	1111.903	838.290
335.373	16.180	1112.021	838.208
336.387	16.118	1111.360	837.327
337.402	16.206	1110.665	837.169
338.416	16.196	1110.190	836.683
339.431	16.205	1109.324	836.001
340.446	16.211	1108.521	835.355
341.460	16.426	1107.489	835.564
342.475	16.374	1107.003	834.869
343.489	16.350	1105.971	833.898
344.504	16.322	1105.088	833.021
345.519	16.384	1104.409	832.740
346.533	16.391	1103.697	832.163
347.548	16.301	1103.014	831.131
348.562	16.364	1102.209	830.760
349.577	16.349	1101.571	830.135
350.592	16.392	1100.206	829.240
351.606	16.363	1099.792	828.714
352.621	16.306	1099.268	827.969
353.635	16.506	1098.251	828.105
354.650	16.488	1097.366	827.277
355.665	16.415	1096.992	826.566
356.679	16.411	1096.495	826.099
357.694	16.518	1095.840	826.056
358.708	16.577	1094.838	825.514
359.723	16.634	1094.173	825.219
360.738	16.636	1093.606	824.729
361.752	16.520	1092.873	823.538
362.767	16.563	1092.496	823.388
363.781	16.611	1091.904	823.102
364.796	16.534	1091.620	822.441
365.810	16.646	1090.694	822.218
366.825	16.688	1090.314	822.060
367.840	16.699	1089.519	821.441
368.854	16.833	1088.844	821.513
369.869	16.759	1088.326	820.690
370.883	16.759	1087.392	819.913
371.898	16.865	1086.171	819.432
372.913	16.841	1085.808	818.970
373.927	16.744	1085.756	818.389
374.942	16.936	1084.847	818.558
375.956	16.843	1084.361	817.668
376.971	16.924	1083.763	817.538
377.986	16.891	1083.291	816.951
379.000	16.975	1082.550	816.721
380.015	17.006	1081.812	816.242
381.029	16.961	1081.401	815.641
382.044	17.105	1080.609	815.665
383.059	16.882	1080.215	814.224
384.073	16.943	1079.586	813.970
385.088	17.036	1078.273	813.354
386.102	17.016	1077.445	812.566
387.117	16.892	1076.663	811.307
388.132	16.982	1075.489	810.784
389.146	16.972	1074.626	810.011
390.161	16.985	1074.111	809.613
391.175	17.021	1072.926	808.821
392.190	17.164	1072.181	808.871
393.205	17.077	1071.599	807.946
394.219	17.152	1071.046	807.814
395.234	17.119	1069.802	806.644
396.248	17.176	1068.891	806.158
397.263	17.162	1067.995	805.343
398.278	17.107	1067.511	804.648
399.292	17.026	1066.724	803.599
400.307	17.076	1066.419	803.537
401.321	17.086	1065.503	802.823
402.336	16.987	1065.385	802.192
403.350	17.173	1064.442	802.290
404.365	17.045	1063.426	800.851
405.380	17.183	1062.709	800.891
406.394	17.190	1061.680	800.079
407.409	17.175	1061.098	799.498
408.423	17.373	1060.274	799.737
409.438	17.390	1059.568	799.212
410.453	17.340	1058.859	798.372
411.467	17.489	1058.245	798.538
412.482	17.391	1057.866	797.720
413.496	17.506	1056.842	797.420
414.511	17.537	1055.948	796.819
415.526	17.511	1055.905	796.594
416.540	17.477	1055.643	796.167
417.555	17.388	1055.103	795.272
418.569	17.558	1054.241	795.344
419.584	17.585	1053.587	794.910
420.599	17.617	1053.250	794.733
421.613	100.039	1315.756	1447.165
422.628	92.216	1353.990	1447.291
