DTS Sentinel unit serial number:	SN413079Multiplexer serial number:	ORYXHardware model number:	OX4-SRSoftware version number:	ORYX F/W v4.00 Oryx Data Collector v3.7.2.0data status	okinstallation	princeton_trtdifferential loss correction	single-endedforward channel	channel 2reverse channel	N/Adate	2019/09/13time	16:39:35forward acquisition time	60.00reverse acquisition time	0.00gamma	496.2192k internal	0.2316k external	0.2316temperature offset calibration	1.0216default loss term (dB/km)	0.3790temperature slope calibration	1.0000multiplexer offset coefficient	1.0000multiplexer slope coefficient	1.0000fibre end	0.00T internal ref (°C)	35.06T ext. ref 1 (°C)	4.92T ext. ref 2 (°C)	29.64length (m)	temperature (°C)	Stokes	anti-Stokes-747.200	111.425	0.050	0.061
-746.185	441.713	0.213	0.472
-745.171	563.271	0.185	-0.454
-744.156	114.641	-0.211	0.260
-743.142	455.443	-0.052	-0.117
-742.127	800.000	-0.080	0.347
-741.112	335.778	-0.113	0.223
-740.098	-200.000	-0.032	0.414
-739.083	-67.609	0.160	0.064
-738.069	640.306	0.114	0.293
-737.054	-141.279	-0.106	0.011
-736.039	-28.942	-0.111	-0.065
-735.025	-97.835	0.191	-0.050
-734.010	-200.000	-0.023	-0.200
-732.996	-110.714	-0.241	0.050
-731.981	69.849	-0.034	-0.035
-730.966	-200.000	-0.024	-0.339
-729.952	-200.000	-0.009	-0.200
-728.937	-200.000	0.017	-0.209
-727.923	-200.000	-0.009	-0.348
-726.908	-200.000	0.014	-0.095
-725.894	800.000	-0.083	0.319
-724.879	-200.000	-0.008	0.107
-723.864	52.288	0.077	-0.074
-722.850	54.905	-0.105	-0.103
-721.835	136.925	-0.011	0.014
-720.821	-70.348	0.061	0.023
-719.806	-91.125	-0.548	0.159
-718.791	-86.027	-0.246	-0.077
-717.777	800.000	0.052	0.162
-716.762	44.602	0.118	0.110
-715.748	1.072	0.205	-0.149
-714.733	154.087	-0.287	-0.399
-713.718	-15.205	-0.277	0.179
-712.704	279.471	0.038	0.068
-711.689	54.559	-0.054	-0.052
-710.675	-200.000	-0.022	-0.174
-709.660	-79.027	0.247	-0.085
-708.645	317.402	-0.126	-0.240
-707.631	239.551	0.189	-0.319
-706.616	-105.838	0.306	-0.070
-705.602	92.610	0.078	0.089
-704.587	15.676	0.113	0.090
-703.572	-200.000	-0.006	0.362
-702.558	800.000	-0.037	0.106
-701.543	-200.000	0.072	0.340
-700.529	325.935	0.100	-0.194
-699.514	-111.426	-0.211	-0.044
-698.499	-66.864	0.096	0.038
-697.485	28.888	0.337	-0.289
-696.470	800.000	0.036	-0.125
-695.456	17.965	-0.258	-0.208
-694.441	-40.566	-0.112	-0.059
-693.426	-32.909	-0.123	-0.069
-692.412	-137.674	-0.190	-0.022
-691.397	-165.762	-0.267	-0.012
-690.383	-200.000	-0.020	0.245
-689.368	-92.721	0.089	0.025
-688.354	-50.184	0.120	-0.057
-687.339	232.243	-0.165	0.274
-686.324	-37.629	0.179	0.097
-685.310	307.403	-0.146	0.275
-684.295	-40.465	0.248	-0.130
-683.281	175.463	0.064	-0.094
-682.266	-200.000	-0.019	-0.205
-681.251	460.499	-0.023	0.051
-680.237	37.804	-0.064	-0.058
-679.222	66.018	-0.071	-0.073
-678.208	-48.382	0.044	0.021
-677.193	17.746	-0.095	0.077
-676.178	-200.000	0.087	-0.408
-675.164	800.000	0.062	0.260
-674.149	-56.126	0.163	-0.073
-673.135	-200.000	0.020	0.200
-672.120	800.000	-0.066	-0.230
-671.105	-200.000	-0.012	-0.155
-670.091	55.799	0.009	-0.009
-669.076	-166.569	0.161	0.007
-668.062	-45.951	-0.319	0.159
-667.047	16.784	-0.088	-0.070
-666.032	99.309	0.189	-0.221
-665.018	-139.599	0.196	0.021
-664.003	71.426	-0.069	0.072
-662.989	68.126	-0.026	-0.027
-661.974	-138.354	0.235	0.026
-660.959	273.854	0.046	-0.082
-659.945	-200.000	0.002	0.028
-658.930	-200.000	-0.026	-0.164
-657.916	-29.767	-0.283	-0.163
-656.901	799.816	-0.094	-0.262
-655.886	231.886	0.126	-0.209
-654.872	800.000	0.051	-0.191
-653.857	-73.604	-0.380	0.140
-652.843	27.631	-0.261	0.222
-651.828	-92.221	-0.289	-0.082
-650.814	532.444	0.050	-0.120
-649.799	-96.514	0.308	-0.082
-648.784	205.992	-0.183	-0.287
-647.770	-102.333	-0.289	-0.070
-646.755	216.020	0.114	-0.183
-645.741	-8.789	-0.237	-0.160
-644.726	395.966	-0.128	0.270
-643.711	106.179	0.113	0.135
-642.697	-117.131	-0.084	0.015
-641.682	-36.221	-0.206	-0.112
-640.668	18.219	0.087	0.070
-639.653	-200.000	-0.014	0.453
-638.638	-131.983	-0.243	0.032
-637.624	157.175	-0.285	0.397
-636.609	45.438	0.226	-0.210
-635.595	141.603	-0.130	-0.174
-634.580	334.203	-0.079	-0.155
-633.565	-134.596	0.176	-0.022
-632.551	137.314	0.040	0.052
-631.536	73.957	-0.047	0.050
-630.522	133.891	-0.103	-0.134
-629.507	-29.723	0.367	-0.211
-628.492	-39.933	0.262	0.138
-627.478	800.000	0.085	0.341
-626.463	-7.220	0.089	-0.061
-625.449	452.747	-0.128	0.286
-624.434	-104.288	0.431	-0.101
-623.419	272.486	-0.115	-0.205
-622.405	110.836	-0.162	-0.196
-621.390	-43.794	-0.177	0.090
-620.376	0.825	-0.056	0.040
-619.361	-105.617	-0.170	-0.039
-618.346	27.668	-0.263	-0.223
-617.332	-100.405	-0.255	-0.064
-616.317	34.128	-0.146	0.129
-615.303	3.139	0.214	-0.156
-614.288	221.267	-0.134	-0.216
-613.273	19.622	0.342	-0.277
-612.259	-200.000	-0.029	-0.202
-611.244	-12.760	0.283	-0.186
-610.230	-200.000	0.035	-0.310
-609.215	-31.626	0.095	0.054
-608.201	800.000	-0.092	-0.258
-607.186	164.739	0.064	-0.091
-606.171	800.000	0.105	0.354
-605.157	-52.155	0.200	0.093
-604.142	505.361	0.040	0.094
-603.128	-63.308	-0.320	0.133
-602.113	-200.000	0.027	-0.251
-601.098	800.000	0.046	-0.146
-600.084	308.839	0.091	0.170
-599.069	774.749	0.007	0.021
-598.055	-123.285	0.244	0.039
-597.040	76.942	-0.187	0.200
-596.025	800.000	-0.103	0.293
-595.011	800.000	0.046	-0.144
-593.996	316.290	-0.178	0.339
-592.982	320.551	-0.078	-0.149
-591.967	-30.878	-0.275	-0.156
-590.952	-10.428	0.125	-0.083
-589.938	134.904	-0.168	0.219
-588.923	-3.826	0.112	-0.078
-587.909	-100.485	-0.284	-0.071
-586.894	-200.000	0.082	0.429
-585.879	-62.735	-0.075	-0.031
-584.865	-111.730	0.080	0.016
-583.850	800.000	0.023	-0.069
-582.836	-20.738	-0.214	-0.132
-581.821	-139.677	0.085	0.009
-580.806	-0.876	-0.286	-0.204
-579.792	121.126	-0.094	0.118
-578.777	-200.000	-0.002	0.420
-577.763	-84.189	0.118	-0.038
-576.748	-110.942	-0.251	-0.052
-575.733	81.564	-0.200	0.218
-574.719	-149.143	0.305	0.025
-573.704	-68.667	0.147	0.057
-572.690	-200.000	-0.042	-0.241
-571.675	-93.496	0.188	-0.052
-570.661	140.247	-0.101	-0.133
-569.646	-200.000	0.004	-0.159
-568.631	780.303	0.106	0.293
-567.617	-200.000	0.001	-0.310
-566.602	23.398	0.130	0.108
-565.588	61.406	-0.202	0.202
-564.573	-112.577	0.287	0.058
-563.558	800.000	-0.053	0.167
-562.544	-200.000	-0.000	0.023
-561.529	800.000	-0.052	-0.181
-560.515	17.124	0.146	0.117
-559.500	-101.559	-0.189	0.046
-558.485	-36.970	-0.130	0.070
-557.471	-88.005	-0.189	0.057
-556.456	-88.873	-0.189	-0.056
-555.442	-117.531	-0.265	-0.048
-554.427	-200.000	-0.001	-0.025
-553.412	-200.000	0.002	-0.108
-552.398	34.671	-0.246	0.216
-551.383	106.449	0.063	0.075
-550.369	-135.466	0.332	-0.040
-549.354	-200.000	0.033	0.187
-548.339	-58.312	0.146	-0.064
-547.325	-39.453	0.131	0.069
-546.310	566.662	0.044	-0.107
-545.296	-17.653	0.078	-0.049
-544.281	800.000	-0.137	-0.562
-543.266	527.689	0.042	0.100
-542.252	-103.400	0.125	-0.030
-541.237	27.050	-0.151	0.128
-540.223	-101.789	-0.159	-0.039
-539.208	167.580	0.050	0.071
-538.193	-1.251	0.196	0.139
-537.179	-200.000	0.001	0.091
-536.164	19.314	0.476	0.384
-535.150	697.590	0.057	0.150
-534.135	-200.000	0.019	0.340
-533.121	-200.000	0.015	-0.086
-532.106	474.950	-0.128	0.289
-531.091	-122.914	0.143	-0.023
-530.077	164.838	0.104	0.148
-529.062	110.818	-0.054	0.065
-528.048	-38.884	-0.183	0.097
-527.033	2.487	0.023	0.017
-526.018	186.715	-0.195	-0.291
-525.004	756.953	0.098	-0.268
-523.989	260.168	0.151	-0.262
-522.975	147.888	-0.003	-0.005
-521.960	-75.569	0.117	0.042
-520.945	6.231	-0.102	0.076
-519.931	-116.700	0.228	0.042
-518.916	-164.177	-0.143	0.007
-517.902	-85.971	-0.089	-0.027
-516.887	118.131	-0.136	-0.169
-515.872	-200.000	-0.006	-0.088
-514.858	1.270	-0.210	0.151
-513.843	-2.322	-0.159	-0.112
-512.829	-26.105	0.502	-0.296
-511.814	50.268	-0.207	-0.197
-510.799	800.000	0.078	0.287
-509.785	-73.424	-0.031	0.011
-508.770	65.499	-0.215	-0.218
-507.756	-112.828	0.141	0.028
-506.741	186.191	0.068	-0.101
-505.726	800.000	0.086	-0.309
-504.712	700.307	-0.086	-0.226
-503.697	-62.373	-0.142	-0.059
-502.683	-74.667	0.189	-0.068
-501.668	275.560	0.162	0.289
-500.653	-97.111	0.137	0.036
-499.639	-66.966	-0.199	-0.079
-498.624	-28.742	-0.094	-0.054
-497.610	42.631	0.089	-0.082
-496.595	-62.532	0.174	0.073
-495.581	-200.000	0.013	0.102
-494.566	-200.000	0.061	0.287
-493.551	-143.006	0.159	0.015
-492.537	50.472	-0.060	0.057
-491.522	-200.000	-0.031	-0.137
-490.508	502.231	-0.180	0.417
-489.493	155.156	-0.079	0.109
-488.478	75.404	-0.326	-0.345
-487.464	-63.773	-0.163	-0.067
-486.449	289.441	0.108	-0.196
-485.435	-200.000	-0.015	-0.221
-484.420	-98.398	0.532	-0.137
-483.405	-114.124	0.105	-0.020
-482.391	34.621	0.126	-0.110
-481.376	-75.853	-0.220	-0.078
-480.362	-104.048	-0.040	-0.009
-479.347	-0.263	0.089	-0.063
-478.332	41.937	0.277	-0.252
-477.318	-159.526	0.199	0.011
-476.303	-200.000	0.019	-0.100
-475.289	234.279	-0.138	-0.229
-474.274	80.804	0.268	0.290
-473.259	-98.678	-0.146	0.037
-472.245	-39.021	-0.229	0.121
-471.230	-200.000	-0.027	0.359
-470.216	73.861	0.012	0.012
-469.201	800.000	-0.090	-0.366
-468.186	-200.000	-0.060	-0.546
-467.172	-63.643	0.178	-0.073
-466.157	-200.000	-0.042	0.282
-465.143	-200.000	0.008	-0.043
-464.128	304.213	-0.026	-0.048
-463.113	-13.289	-0.268	0.174
-462.099	-81.436	-0.313	-0.103
-461.084	-26.459	0.352	-0.207
-460.070	223.614	-0.084	-0.135
-459.055	800.000	-0.069	0.224
-458.040	-56.927	0.143	0.063
-457.026	-104.416	0.264	0.061
-456.011	206.086	0.056	0.087
-454.997	143.985	-0.059	-0.078
-453.982	-9.699	0.242	0.161
-452.968	563.701	-0.062	-0.149
-451.953	-200.000	-0.037	-0.426
-450.938	220.890	-0.196	-0.315
-449.924	-157.262	0.114	-0.007
-448.909	-200.000	0.003	0.140
-447.895	60.424	0.151	-0.149
-446.880	800.000	-0.062	0.237
-445.865	-200.000	0.005	-0.139
-444.851	-29.136	0.102	0.059
-443.836	147.295	-0.117	-0.157
-442.822	57.678	0.193	0.189
-441.807	445.913	0.073	0.160
-440.792	143.153	-0.155	-0.207
-439.778	-43.200	-0.081	-0.041
-438.763	6.087	-0.192	-0.142
-437.749	96.936	0.111	-0.127
-436.734	11.789	-0.312	0.240
-435.719	-200.000	0.007	-0.059
-434.705	-167.564	0.301	0.012
-433.690	31.392	0.068	0.058
-432.676	-100.995	-0.288	-0.071
-431.661	112.340	0.144	-0.174
-430.646	-135.614	-0.166	0.020
-429.632	-200.000	0.017	-0.345
-428.617	21.158	0.185	0.150
-427.603	28.665	-0.217	-0.184
-426.588	-154.118	-0.073	-0.005
-425.573	-200.000	-0.022	0.198
-424.559	-200.000	0.020	-0.116
-423.544	-106.114	0.012	0.003
-422.530	-55.091	-0.170	-0.077
-421.515	-47.625	0.436	-0.212
-420.500	800.000	-0.100	0.430
-419.486	-2.778	0.092	-0.064
-418.471	63.430	0.060	0.061
-417.457	-30.233	0.139	0.079
-416.442	-39.442	-0.131	-0.069
-415.428	-7.628	-0.214	0.145
-414.413	-200.000	0.011	0.249
-413.398	-51.090	0.178	-0.083
-412.384	-165.574	0.296	0.013
-411.369	-125.488	0.325	0.049
-410.355	800.000	-0.069	0.290
-409.340	-200.000	0.003	0.204
-408.325	-101.880	0.057	-0.014
-407.311	-200.000	0.009	-0.311
-406.296	226.607	0.056	-0.091
-405.282	362.218	-0.065	-0.130
-404.267	-5.166	-0.139	0.096
-403.252	-148.008	0.126	-0.010
-402.238	97.331	-0.139	-0.159
-401.223	-200.000	-0.001	0.157
-400.209	-101.443	-0.357	-0.087
-399.194	346.245	0.113	-0.222
-398.179	183.272	-0.281	-0.415
-397.165	-53.155	0.082	0.038
-396.150	-132.101	0.261	-0.034
-395.136	-200.000	-0.014	0.395
-394.121	-200.000	-0.017	-0.171
-393.106	51.347	-0.231	0.219
-392.092	170.148	0.238	-0.340
-391.077	-16.757	0.160	0.101
-390.063	-168.527	-0.221	0.008
-389.048	-200.000	0.035	0.386
-388.033	800.000	0.064	0.191
-387.019	79.150	-0.261	0.279
-386.004	121.387	0.228	-0.284
-384.990	314.021	-0.109	-0.205
-383.975	-141.564	0.262	0.026
-382.960	-105.426	0.128	0.029
-381.946	387.705	-0.060	-0.123
-380.931	185.561	0.060	-0.089
-379.917	-200.000	0.011	0.096
-378.902	-117.678	-0.209	-0.038
-377.888	-97.947	-0.143	-0.037
-376.873	445.357	-0.033	0.072
-375.858	44.714	0.228	0.210
-374.844	-84.761	0.272	0.085
-373.829	632.669	-0.109	-0.275
-372.815	-45.445	-0.267	-0.132
-371.800	99.125	0.184	0.212
-370.785	-13.493	0.152	0.098
-369.771	54.185	-0.147	-0.142
-368.756	-57.487	-0.225	-0.098
-367.742	268.586	0.067	0.118
-366.727	114.816	-0.315	0.383
-365.712	-93.174	-0.261	0.072
-364.698	-150.526	-0.294	0.022
-363.683	-200.000	0.008	0.079
-362.669	78.358	0.170	0.181
-361.654	800.000	-0.101	0.413
-360.639	159.111	0.148	-0.206
-359.625	-30.074	0.143	0.081
-358.610	-18.796	-0.159	-0.099
-357.596	-188.164	0.282	-0.004
-356.581	143.333	-0.013	0.017
-355.566	-32.964	-0.194	-0.108
-354.552	-200.000	-0.028	0.137
-353.537	12.165	0.287	-0.220
-352.523	-36.410	0.176	-0.094
-351.508	-200.000	-0.010	0.053
-350.493	-165.062	-0.387	-0.017
-349.479	-1.990	0.194	-0.136
-348.464	-74.166	-0.056	0.020
-347.450	-2.133	-0.179	0.125
-346.435	-56.758	0.188	0.083
-345.420	148.886	0.025	-0.034
-344.406	549.356	-0.120	-0.288
-343.391	216.858	0.167	0.265
-342.377	-125.354	0.207	-0.032
-341.362	298.044	-0.185	0.338
-340.348	-58.925	0.145	-0.062
-339.333	-187.992	0.210	-0.003
-338.318	354.195	-0.019	0.037
-337.304	-96.014	0.387	-0.103
-336.289	578.351	-0.099	-0.241
-335.275	-200.000	-0.010	-0.120
-334.260	-200.000	0.025	0.153
-333.245	60.164	0.151	0.148
-332.231	-75.571	0.272	-0.097
-331.216	-65.462	0.136	0.054
-330.202	-12.527	-0.044	0.029
-329.187	74.670	-0.074	0.078
-328.172	49.067	-0.098	-0.091
-327.158	-200.000	0.006	-0.248
-326.143	131.270	0.135	-0.173
-325.129	800.000	0.037	0.148
-324.114	-33.456	-0.223	0.123
-323.099	-153.543	-0.117	-0.008
-322.085	66.193	-0.156	0.157
-321.070	550.986	-0.203	-0.485
-320.056	-200.000	0.002	-0.476
-319.041	-119.720	0.359	-0.062
-318.026	-165.275	-0.198	-0.009
-317.012	-156.694	0.225	-0.014
-315.997	454.594	0.052	0.115
-314.983	-6.224	-0.190	0.129
-313.968	334.670	0.074	-0.143
-312.953	279.641	-0.165	-0.294
-311.939	69.195	0.320	-0.327
-310.924	22.015	-0.292	-0.237
-309.910	643.709	0.093	0.236
-308.895	37.504	-0.018	-0.016
-307.880	-98.025	0.094	0.024
-306.866	272.641	0.109	-0.191
-305.851	4.545	-0.101	-0.074
-304.837	86.058	0.104	0.114
-303.822	173.800	0.271	-0.389
-302.807	-62.017	0.261	-0.109
-301.793	32.378	-0.023	0.020
-300.778	800.000	0.065	0.216
-299.764	800.000	-0.064	0.190
-298.749	-1.431	-0.134	0.094
-297.735	233.043	-0.050	0.082
-296.720	53.661	-0.262	0.250
-295.705	-51.679	0.442	0.205
-294.691	800.000	0.030	0.085
-293.676	-64.584	0.135	0.054
-292.662	263.975	-0.039	-0.067
-291.647	168.007	-0.132	0.187
-290.632	-5.210	-0.204	0.140
-289.618	737.101	-0.017	-0.045
-288.603	-89.121	-0.350	0.103
-287.589	800.000	0.096	-0.298
-286.574	-200.000	-0.012	-0.074
-285.559	127.969	0.291	0.368
-284.545	-53.233	-0.092	0.042
-283.530	800.000	-0.118	-0.402
-282.516	-104.387	0.271	0.062
-281.501	-78.790	-0.208	-0.070
-280.486	-200.000	-0.028	0.298
-279.472	685.858	-0.201	0.522
-278.457	185.890	-0.142	-0.209
-277.443	162.780	-0.172	0.241
-276.428	29.701	0.194	-0.164
-275.413	-200.000	-0.130	0.638
-274.399	298.209	-0.089	-0.162
-273.384	-200.000	-0.005	0.143
-272.370	492.217	-0.084	-0.192
-271.355	144.674	-0.180	0.240
-270.340	-66.165	0.135	-0.054
-269.326	-83.152	-0.135	0.043
-268.311	-16.499	-0.120	-0.075
-267.297	-200.000	-0.059	-0.326
-266.282	181.879	0.061	0.090
-265.267	-81.448	0.090	-0.030
-264.253	-89.759	0.214	0.062
-263.238	392.967	-0.040	-0.084
-262.224	-200.000	0.012	0.123
-261.209	452.027	-0.079	-0.173
-260.195	207.824	0.141	0.219
-259.180	-200.000	0.043	0.293
-258.165	-200.000	0.003	-0.187
-257.151	-37.406	0.105	-0.056
-256.136	-200.000	0.055	0.259
-255.122	-200.000	-0.027	-0.124
-254.107	106.688	0.127	0.150
-253.092	800.000	0.025	0.086
-252.078	-137.597	0.212	0.024
-251.063	-51.358	0.283	0.131
-250.049	800.000	0.095	0.282
-249.034	291.124	0.189	0.342
-248.019	800.000	0.058	-0.216
-247.005	686.935	-0.044	-0.115
-245.990	-200.000	-0.054	0.259
-244.976	-79.824	-0.341	-0.114
-243.961	-200.000	0.009	-0.182
-242.946	76.393	0.168	0.176
-241.932	10.070	-0.149	0.113
-240.917	178.163	0.180	0.261
-239.903	20.129	-0.133	-0.107
-238.888	-17.072	-0.439	0.275
-237.873	-58.035	-0.153	0.066
-236.859	-189.248	-0.132	-0.002
-235.844	-74.153	0.099	-0.036
-234.830	345.105	0.058	-0.112
-233.815	-200.000	-0.029	0.271
-232.800	470.148	0.082	0.184
-231.786	186.555	-0.121	0.180
-230.771	800.000	-0.149	-0.433
-229.757	-159.300	-0.155	-0.009
-228.742	464.645	0.021	-0.046
-227.727	-91.255	-0.160	0.046
-226.713	54.332	0.087	0.083
-225.698	362.134	0.118	-0.234
-224.684	800.000	-0.016	-0.047
-223.669	-200.000	-0.010	-0.154
-222.655	-166.672	0.665	-0.027
-221.640	67.919	-0.260	0.264
-220.625	394.116	-0.154	0.319
-219.611	-13.308	-0.205	0.132
-218.596	23.825	-0.210	-0.172
-217.582	800.000	0.061	-0.179
-216.567	171.107	-0.281	-0.400
-215.552	-10.684	-0.113	0.074
-214.538	-200.000	0.003	0.116
-213.523	90.644	0.034	0.038
-212.509	179.657	-0.177	-0.258
-211.494	187.371	0.102	0.151
-210.479	74.202	-0.242	-0.253
-209.465	-200.000	0.019	0.194
-208.450	-100.388	-0.093	0.023
-207.436	-109.463	0.155	-0.033
-206.421	60.190	0.147	-0.144
-205.406	60.419	0.157	-0.154
-204.392	211.637	0.077	0.120
-203.377	199.201	-0.170	0.258
-202.363	68.394	-0.119	0.121
-201.348	-200.000	-0.007	0.054
-200.333	560.199	0.096	0.230
-199.319	39.364	-0.101	-0.090
-198.304	-189.255	-0.361	0.004
-197.290	-177.157	0.017	0.000
-196.275	11.664	0.258	0.196
-195.260	-47.952	0.240	0.115
-194.246	-122.700	-0.017	0.003
-193.231	-200.000	0.009	-0.287
-192.217	-149.922	-0.340	-0.026
-191.202	75.896	-0.032	0.033
-190.187	59.606	-0.232	-0.227
-189.173	-161.823	0.372	-0.019
-188.158	-200.000	-0.001	0.109
-187.144	-93.209	-0.298	-0.082
-186.129	376.635	-0.054	-0.109
-185.114	-200.000	-0.001	-0.230
-184.100	134.037	0.032	-0.042
-183.085	-73.503	-0.257	-0.093
-182.071	-125.402	0.291	0.044
-181.056	-118.242	-0.208	-0.037
-180.042	-37.458	-0.260	0.137
-179.027	-57.171	0.142	-0.062
-178.012	800.000	-0.081	0.264
-176.998	800.000	0.092	-0.378
-175.983	-6.602	0.304	0.205
-174.969	-101.289	0.117	-0.028
-173.954	302.141	0.057	0.104
-172.939	11.621	0.274	0.208
-171.925	800.000	0.102	0.318
-170.910	-200.000	0.001	0.047
-169.896	-200.000	-0.002	-0.066
-168.881	-140.482	-0.290	-0.030
-167.866	-58.528	0.174	0.075
-166.852	75.631	0.193	-0.202
-165.837	447.005	-0.131	0.286
-164.823	800.000	0.095	-0.291
-163.808	-200.000	0.002	-0.034
-162.793	204.089	-0.112	-0.172
-161.779	745.180	0.098	-0.262
-160.764	-200.000	-0.017	0.113
-159.750	-26.413	0.249	-0.145
-158.735	92.763	-0.262	0.292
-157.720	640.963	-0.041	-0.105
-156.706	14.846	-0.116	0.089
-155.691	187.367	0.064	0.095
-154.677	123.725	0.117	-0.145
-153.662	-30.397	0.161	-0.090
-152.647	-172.545	0.080	0.002
-151.633	-200.000	0.011	0.124
-150.618	300.356	-0.131	-0.239
-149.604	18.822	-0.139	0.111
-148.589	800.000	-0.008	0.021
-147.574	91.975	0.013	-0.014
-146.560	-200.000	-0.046	-0.283
-145.545	-24.348	0.291	-0.172
-144.531	800.000	0.025	-0.101
-143.516	775.494	-0.079	0.214
-142.502	-200.000	0.011	0.067
-141.487	-200.000	0.024	0.233
-140.472	-160.014	0.098	0.005
-139.458	-200.000	-0.013	-0.317
-138.443	626.717	-0.021	0.054
-137.429	584.579	0.030	0.073
-136.414	-200.000	0.005	-0.162
-135.399	44.433	0.021	0.019
-134.385	-21.909	-0.199	0.120
-133.370	-200.000	-0.015	0.117
-132.356	800.000	-0.040	0.128
-131.341	-39.334	-0.104	0.054
-130.326	23.208	0.197	-0.160
-129.312	31.973	0.030	0.026
-128.297	-122.370	-0.293	-0.047
-127.283	-22.674	-0.168	-0.100
-126.268	800.000	0.071	-0.220
-125.253	367.562	-0.113	0.225
-124.239	13.936	0.053	-0.041
-123.224	-78.859	-0.307	-0.103
-122.210	-200.000	-0.010	0.087
-121.195	203.457	0.119	0.181
-120.180	-134.930	0.166	0.020
-119.166	-139.765	0.349	0.037
-118.151	-83.723	-0.386	-0.122
-117.137	140.266	-0.172	0.225
-116.122	-200.000	0.064	0.306
-115.107	-200.000	-0.083	0.480
-114.093	331.100	0.073	-0.139
-113.078	-88.734	0.237	-0.070
-112.064	-79.630	0.183	0.061
-111.049	-80.316	0.321	0.106
-110.034	-200.000	0.014	-0.278
-109.020	94.030	-0.143	0.160
-108.005	800.000	-0.053	0.169
-106.991	-200.000	-0.025	-0.142
-105.976	170.594	-0.314	-0.444
-104.962	-142.682	-0.233	-0.022
-103.947	800.000	0.043	0.131
-102.932	-144.102	-0.136	0.013
-101.918	91.089	0.098	-0.109
-100.903	-200.000	0.033	-0.298
-99.889	-200.000	-0.037	-0.200
-98.874	36.305	0.039	0.034
-97.859	78.117	-0.078	0.083
-96.845	-119.716	0.269	-0.046
-95.830	242.459	-0.028	-0.046
-94.816	128.380	-0.150	0.189
-93.801	-104.366	0.123	-0.028
-92.786	290.820	0.029	-0.053
-91.772	21.562	0.290	0.233
-90.757	-200.000	0.025	-0.201
-89.743	-147.142	-0.271	0.023
-88.728	-92.266	-0.159	-0.044
-87.713	-42.897	-0.122	0.061
-86.699	-108.487	0.324	-0.069
-85.684	-36.308	0.037	-0.019
-84.670	44.946	0.119	-0.108
-83.655	-200.000	-0.003	-0.143
-82.640	-41.925	0.122	-0.062
-81.626	-104.648	-0.182	0.041
-80.611	-77.025	-0.264	0.091
-79.597	445.585	-0.099	0.214
-78.582	800.000	-0.077	-0.292
-77.567	-101.992	0.322	0.077
-76.553	169.344	0.061	-0.085
-75.538	692.385	0.035	-0.091
-74.524	800.000	-0.029	-0.096
-73.509	177.264	0.098	-0.141
-72.494	-200.000	-0.039	0.242
-71.480	142.988	0.052	-0.068
-70.465	-5.456	0.261	-0.177
-69.451	473.354	0.078	0.172
-68.436	-95.549	-0.101	-0.027
-67.422	-23.189	-0.063	-0.038
-66.407	-62.139	-0.286	0.117
-65.392	167.567	-0.144	-0.201
-64.378	-9.392	0.203	0.134
-63.363	-172.348	0.230	0.007
-62.349	-86.945	-0.192	-0.058
-61.334	159.624	-0.730	-1.003
-60.319	800.000	0.112	0.477
-59.305	-200.000	-0.117	-0.896
-58.290	463.235	0.457	1.006
-57.276	800.000	0.390	1.575
-56.261	-200.000	95.554	571.990
-55.246	661.260	1380.951	3507.793
-54.232	187.592	2606.962	3835.922
-53.217	117.928	2308.413	2803.577
-52.203	44.976	1921.547	1744.478
-51.188	38.497	1707.591	1500.713
-50.173	35.595	1662.086	1438.967
-49.159	52.401	1710.774	1609.185
-48.144	56.028	1729.043	1653.849
-47.130	38.213	1684.456	1478.003
-46.115	35.171	1669.692	1442.135
-45.100	34.999	1664.972	1436.705
-44.086	34.956	1662.234	1433.968
-43.071	34.978	1659.535	1431.747
-42.057	34.895	1656.910	1428.802
-41.042	34.910	1654.759	1427.007
-40.027	34.993	1653.085	1426.120
-39.013	34.969	1651.341	1424.384
-37.998	34.853	1649.701	1422.045
-36.984	34.859	1648.753	1421.217
-35.969	35.014	1647.353	1421.107
-34.954	35.116	1645.274	1420.015
-33.940	35.137	1643.360	1418.460
-32.925	35.107	1641.665	1416.716
-31.911	35.045	1639.811	1414.609
-30.896	35.130	1638.039	1413.652
-29.881	35.137	1636.090	1411.964
-28.867	35.025	1634.797	1409.962
-27.852	35.113	1632.986	1408.995
-26.838	35.043	1631.725	1407.336
-25.823	35.074	1630.147	1406.147
-24.809	35.141	1628.991	1405.585
-23.794	35.091	1627.418	1403.805
-22.779	35.089	1625.942	1402.459
-21.765	35.050	1624.226	1400.639
-20.750	35.085	1622.290	1399.173
-19.736	35.171	1621.279	1398.874
-18.721	35.125	1619.554	1396.991
-17.706	34.980	1618.279	1394.781
-16.692	35.017	1616.220	1393.217
-15.677	35.019	1615.089	1392.202
-14.663	35.097	1613.554	1391.392
-13.648	35.144	1612.256	1390.557
-12.633	35.120	1610.429	1388.754
-11.619	35.054	1609.788	1387.669
-10.604	35.163	1607.351	1386.303
-9.590	35.119	1606.387	1385.100
-8.575	35.202	1604.771	1384.250
-7.560	35.056	1603.828	1382.325
-6.546	35.007	1603.053	1381.249
-5.531	35.015	1601.743	1380.126
-4.517	35.083	1599.887	1378.958
-3.502	35.107	1599.173	1378.463
-2.487	35.164	1597.645	1377.503
-1.473	34.757	1586.897	1365.270
-0.458	31.754	1566.003	1326.026
0.556	30.005	1564.940	1286.957
1.571	26.852	1588.282	1283.761
2.586	25.634	1600.860	1285.115
3.600	22.480	1547.441	1220.305
4.615	14.030	1437.748	1079.074
5.629	6.293	1372.712	982.046
6.644	4.890	1363.932	966.974
7.659	4.854	1363.004	966.007
8.673	4.913	1361.563	965.268
9.688	5.033	1360.216	964.968
10.702	5.048	1358.260	963.586
11.717	8.603	1364.111	989.680
12.731	16.944	1379.453	1052.700
13.746	22.373	1387.659	1092.673
14.761	22.715	1387.218	1094.346
15.775	21.834	1384.805	1086.894
16.790	20.864	1382.096	1078.669
17.804	19.927	1380.329	1071.397
18.819	19.577	1379.158	1068.226
19.834	19.498	1377.640	1066.468
20.848	19.305	1376.412	1064.234
21.863	19.158	1375.344	1062.404
22.877	19.028	1374.125	1060.566
23.892	18.910	1373.179	1059.018
24.907	18.850	1372.436	1057.979
25.921	18.901	1371.730	1057.659
26.936	19.034	1370.513	1057.444
27.950	19.061	1369.669	1056.863
28.965	19.188	1368.772	1056.860
29.980	19.155	1368.017	1055.977
30.994	19.375	1366.093	1055.748
32.009	19.352	1365.169	1054.795
33.023	19.374	1364.533	1054.346
34.038	19.234	1362.803	1052.065
35.053	19.112	1361.691	1050.368
36.067	19.155	1359.953	1049.197
37.082	19.161	1359.852	1049.060
38.096	19.171	1358.698	1048.141
39.111	19.338	1357.654	1048.259
40.126	19.161	1357.017	1046.596
41.140	18.899	1355.882	1044.037
42.155	18.774	1355.538	1042.922
43.169	18.660	1355.249	1041.916
44.184	18.773	1354.911	1042.247
45.199	18.712	1354.572	1041.528
46.213	18.826	1354.188	1041.831
47.228	19.104	1353.294	1042.733
48.242	19.199	1352.021	1042.236
49.257	19.049	1350.726	1040.236
50.271	19.008	1349.182	1038.707
51.286	19.107	1347.710	1038.084
52.301	19.037	1346.536	1036.662
53.315	18.944	1345.596	1035.286
54.330	18.791	1344.444	1033.390
55.344	18.752	1343.364	1032.234
56.359	18.731	1342.089	1031.035
57.374	18.733	1341.582	1030.566
58.388	18.716	1340.886	1029.838
59.403	18.752	1340.478	1029.650
60.417	18.629	1339.260	1027.890
61.432	18.545	1338.291	1026.549
62.447	18.488	1337.662	1025.639
63.461	18.539	1336.067	1024.627
64.476	18.391	1335.256	1023.030
65.490	18.526	1333.975	1022.766
66.505	18.517	1332.073	1021.162
67.520	18.513	1330.987	1020.217
68.534	18.518	1330.561	1019.826
69.549	18.524	1329.302	1018.808
70.563	18.517	1328.162	1017.803
71.578	18.458	1326.599	1016.165
72.593	18.354	1325.813	1014.858
73.607	18.319	1325.275	1014.151
74.622	18.299	1324.567	1013.400
75.636	18.316	1323.889	1012.893
76.651	18.433	1322.876	1012.716
77.666	18.486	1322.623	1012.747
78.680	18.488	1322.245	1012.378
79.695	18.660	1321.887	1013.030
80.709	18.637	1320.963	1012.096
81.724	18.648	1320.422	1011.657
82.739	18.839	1319.648	1012.102
83.753	18.946	1318.704	1011.920
84.768	19.069	1317.677	1011.763
85.782	19.219	1316.757	1011.847
86.797	19.271	1315.354	1010.985
87.812	19.092	1314.163	1008.933
88.826	19.106	1312.738	1007.834
89.841	19.070	1312.355	1007.239
90.855	19.233	1310.975	1007.040
91.870	19.227	1310.590	1006.619
92.884	19.209	1309.798	1005.817
93.899	19.314	1309.034	1005.756
94.914	19.369	1308.175	1005.328
95.928	19.296	1307.649	1004.409
96.943	19.175	1306.777	1002.947
97.957	19.119	1305.512	1001.562
98.972	19.249	1304.026	1001.086
99.987	19.268	1303.565	1000.753
101.001	19.181	1302.593	999.414
102.016	19.185	1301.693	998.662
103.030	19.192	1300.830	997.952
104.045	19.188	1299.326	996.683
105.060	19.101	1298.192	995.222
106.074	18.752	1297.216	992.370
107.089	18.652	1295.085	990.076
108.103	18.513	1294.304	988.591
109.118	18.573	1292.992	987.843
110.133	18.573	1291.398	986.540
111.147	18.638	1290.043	985.793
112.162	18.617	1289.348	985.052
113.176	18.670	1288.273	984.448
114.191	18.767	1287.181	984.082
115.206	18.781	1285.780	983.002
116.220	18.805	1284.443	982.030
117.235	18.718	1283.586	980.792
118.249	18.674	1282.716	979.790
119.264	18.604	1281.303	978.224
120.279	18.525	1280.697	977.227
121.293	18.527	1279.321	976.103
122.308	18.420	1278.497	974.778
123.322	18.349	1277.236	973.329
124.337	18.333	1276.007	972.214
125.352	18.472	1274.997	972.144
126.366	18.354	1273.859	970.521
127.381	18.470	1272.870	970.340
128.395	18.457	1271.811	969.376
129.410	18.472	1271.320	968.996
130.424	18.585	1269.988	968.533
131.439	18.587	1269.767	968.294
132.454	18.644	1268.943	967.899
133.468	18.744	1268.129	967.757
134.483	18.785	1267.246	967.229
135.497	18.657	1266.320	965.715
136.512	18.822	1265.095	965.625
137.527	18.721	1263.808	963.990
138.541	18.762	1262.751	963.330
139.556	18.915	1261.059	962.807
140.570	18.855	1260.616	962.050
141.585	19.125	1258.723	962.026
142.600	19.095	1258.415	961.538
143.614	19.126	1257.658	961.052
144.629	19.309	1256.387	961.014
145.643	19.180	1255.259	959.350
146.658	19.053	1254.191	957.740
147.673	19.023	1252.160	955.936
148.687	18.877	1251.323	954.406
149.702	18.823	1249.613	952.714
150.716	18.645	1248.278	950.627
151.731	18.796	1246.876	950.311
152.746	18.836	1246.318	950.023
153.760	18.874	1245.281	949.359
154.775	18.933	1244.191	948.767
155.789	19.074	1242.561	948.219
156.804	19.022	1242.186	947.562
157.819	19.008	1241.333	946.754
158.833	19.186	1240.222	946.799
159.848	19.284	1239.771	946.908
160.862	19.237	1238.996	945.978
161.877	18.998	1237.674	943.570
162.892	18.880	1235.988	941.557
163.906	18.813	1235.223	940.522
164.921	18.808	1234.480	939.845
165.935	18.936	1233.132	939.438
166.950	19.034	1232.382	939.317
167.964	19.040	1232.090	939.047
168.979	18.923	1231.414	937.806
169.994	18.879	1230.559	936.835
171.008	18.954	1229.762	936.554
172.023	19.153	1229.037	937.003
173.037	19.227	1228.601	936.987
174.052	19.169	1228.237	936.310
175.067	19.060	1226.091	934.001
176.081	18.874	1224.898	931.999
177.096	18.942	1224.157	931.724
178.110	18.861	1223.123	930.416
179.125	18.926	1221.754	929.644
180.140	19.011	1220.799	929.294
181.154	19.092	1219.995	929.035
182.169	19.278	1218.533	928.846
183.183	19.217	1217.824	927.896
184.198	19.257	1216.575	927.073
185.213	19.254	1215.608	926.240
186.227	19.354	1214.529	925.874
187.242	19.408	1213.617	925.385
188.256	19.452	1212.873	924.973
189.271	19.374	1212.005	923.807
190.286	19.179	1210.698	921.691
191.300	19.088	1208.957	919.797
192.315	18.794	1208.526	917.815
193.329	18.852	1208.271	917.851
194.344	18.904	1207.520	917.477
195.359	18.980	1207.146	917.517
196.373	19.141	1206.567	917.855
197.388	19.327	1206.575	918.769
198.402	19.466	1206.311	919.229
199.417	19.592	1205.104	918.900
200.432	19.651	1204.929	918.998
201.446	19.695	1204.191	918.585
202.461	19.755	1203.282	918.131
203.475	19.819	1202.242	917.592
204.490	19.599	1200.935	915.349
205.504	19.479	1199.305	913.392
206.519	19.532	1197.932	912.544
207.534	19.379	1196.910	910.876
208.548	19.413	1195.940	910.238
209.563	19.442	1195.762	910.175
210.577	19.426	1194.391	908.966
211.592	19.572	1193.631	909.077
212.607	19.735	1192.693	909.140
213.621	19.584	1192.588	908.185
214.636	19.586	1191.865	907.564
215.650	19.602	1190.173	906.278
216.665	19.763	1189.391	906.446
217.680	19.913	1188.612	906.563
218.694	19.832	1187.793	905.431
219.709	19.782	1186.986	904.474
220.723	19.863	1186.092	904.137
221.738	19.810	1185.576	903.386
222.753	19.772	1184.837	902.548
223.767	19.738	1184.159	901.769
224.782	19.979	1183.475	902.429
225.796	19.971	1183.016	901.954
226.811	19.922	1182.413	901.161
227.826	19.746	1181.496	899.467
228.840	19.803	1180.405	898.853
229.855	19.841	1179.549	898.317
230.869	19.732	1178.980	897.239
231.884	19.747	1177.990	896.487
232.899	19.635	1177.349	895.340
233.913	19.621	1176.337	894.415
234.928	19.551	1175.789	893.558
235.942	19.587	1174.768	892.891
236.957	19.473	1174.064	891.688
237.972	19.489	1173.731	891.436
238.986	19.602	1172.614	891.093
240.001	19.698	1171.853	890.932
241.015	19.648	1171.275	890.153
242.030	19.742	1170.432	889.917
243.045	19.783	1170.094	889.795
244.059	19.852	1168.776	889.069
245.074	19.878	1168.202	888.689
246.088	19.916	1167.293	888.113
247.103	19.975	1166.751	887.923
248.117	20.139	1166.642	888.599
249.132	20.115	1166.246	888.100
250.147	20.379	1165.485	888.790
251.161	20.479	1164.582	888.538
252.176	20.400	1164.109	887.691
253.190	20.617	1163.163	888.002
254.205	20.516	1162.844	887.164
255.220	20.696	1162.201	887.511
256.234	20.658	1161.557	886.746
257.249	20.668	1160.442	885.868
258.263	20.636	1160.091	885.363
259.278	20.774	1159.307	885.387
260.293	20.604	1159.100	884.286
261.307	20.645	1158.635	884.061
262.322	20.847	1157.528	884.164
263.336	20.779	1157.467	883.692
264.351	20.785	1156.576	882.964
265.366	20.718	1156.203	882.264
266.380	20.829	1155.099	881.903
267.395	20.731	1153.966	880.463
268.409	20.551	1153.500	879.119
269.424	20.486	1152.675	878.084
270.439	20.630	1152.314	878.459
271.453	20.556	1151.761	877.586
272.468	20.534	1150.353	876.329
273.482	20.514	1149.890	875.798
274.497	20.483	1149.111	874.968
275.512	20.493	1148.383	874.389
276.526	20.569	1147.464	873.992
277.541	20.548	1146.739	873.260
278.555	20.490	1146.593	872.778
279.570	20.674	1145.978	873.155
280.585	20.930	1145.338	873.876
281.599	20.808	1144.171	872.296
282.614	20.623	1143.079	870.461
283.628	20.639	1141.983	869.630
284.643	20.598	1141.124	868.690
285.657	20.693	1139.807	868.085
286.672	20.731	1139.248	867.776
287.687	20.798	1138.077	867.142
288.701	20.705	1137.765	866.360
289.716	20.638	1136.916	865.304
290.730	20.672	1136.500	865.081
291.745	20.804	1135.718	865.066
292.760	20.844	1134.709	864.419
293.774	20.918	1134.191	864.314
294.789	20.933	1134.040	864.197
295.803	20.965	1132.897	863.408
296.818	20.848	1132.194	862.215
297.833	20.795	1131.426	861.293
298.847	20.896	1130.441	860.966
299.862	20.748	1130.079	859.885
300.876	20.943	1129.192	860.094
301.891	21.080	1128.421	860.105
302.906	21.009	1128.211	859.520
303.920	21.192	1127.403	859.731
304.935	21.202	1127.149	859.509
305.949	21.343	1126.337	859.508
306.964	21.290	1125.874	858.819
307.979	21.067	1125.068	857.032
308.993	21.152	1123.915	856.495
310.008	21.204	1123.187	856.122
311.022	21.338	1122.369	856.077
312.037	21.376	1121.476	855.505
313.052	21.158	1120.713	853.780
314.066	20.869	1119.872	851.655
315.081	20.860	1118.755	850.684
316.095	20.878	1117.833	849.998
317.110	20.860	1117.417	849.515
318.125	20.874	1116.534	848.837
319.139	20.810	1115.927	847.990
320.154	20.879	1115.413	847.862
321.168	20.845	1114.886	847.217
322.183	20.993	1114.078	847.251
323.197	21.033	1113.327	846.798
324.212	20.938	1112.951	845.975
325.227	20.960	1112.288	845.503
326.241	21.097	1111.339	845.372
327.256	21.001	1110.590	844.262
328.270	20.943	1109.875	843.362
329.285	20.990	1108.667	842.600
330.300	21.008	1108.079	842.161
331.314	20.978	1106.884	841.038
332.329	21.032	1106.061	840.595
333.343	21.124	1105.474	840.520
334.358	21.189	1104.823	840.261
335.373	21.256	1104.026	839.907
336.387	21.278	1103.302	839.383
337.402	21.364	1102.199	838.883
338.416	21.318	1101.982	838.423
339.431	21.457	1101.592	838.719
340.446	21.612	1100.830	838.808
341.460	21.630	1100.491	838.560
342.475	21.744	1099.485	838.266
343.489	21.738	1098.707	837.568
344.504	21.733	1097.523	836.569
345.519	21.882	1096.782	836.640
346.533	21.857	1096.169	835.980
347.548	21.846	1095.487	835.334
348.562	21.918	1094.544	834.882
349.577	21.635	1093.657	832.787
350.592	21.466	1093.009	831.415
351.606	21.450	1092.035	830.528
352.621	21.382	1091.352	829.611
353.635	21.344	1090.355	828.598
354.650	21.369	1089.766	828.197
355.665	21.580	1089.502	828.921
356.679	21.605	1088.620	828.296
357.694	21.572	1088.179	827.731
358.708	21.679	1087.629	827.746
359.723	21.713	1086.958	827.324
360.738	21.649	1086.343	826.477
361.752	21.615	1085.918	825.922
362.767	21.647	1085.371	825.582
363.781	21.728	1084.638	825.333
364.796	21.723	1084.263	824.954
365.810	21.878	1083.688	825.172
366.825	21.975	1082.977	825.013
367.840	22.182	1082.898	825.854
368.854	22.258	1081.978	825.435
369.869	22.197	1081.195	824.476
370.883	22.166	1080.486	823.719
371.898	22.022	1079.218	822.004
372.913	22.096	1078.795	821.957
373.927	22.126	1078.349	821.684
374.942	22.109	1077.992	821.259
375.956	22.078	1077.398	820.589
376.971	22.015	1077.149	820.036
377.986	22.115	1076.465	819.908
379.000	22.251	1075.552	819.773
380.015	22.335	1075.274	819.878
381.029	22.479	1074.562	819.936
382.044	22.507	1073.692	819.331
383.059	22.298	1073.545	818.175
384.073	22.403	1072.317	817.653
385.088	22.352	1071.544	816.756
386.102	22.340	1070.867	816.109
387.117	22.177	1069.546	814.275
388.132	22.099	1068.317	812.907
389.146	22.081	1067.487	812.119
390.161	21.940	1067.054	811.069
391.175	22.028	1066.600	811.056
392.190	22.191	1065.936	811.235
393.205	22.263	1065.228	810.953
394.219	22.307	1064.118	810.242
395.234	22.237	1063.031	809.018
396.248	22.146	1062.088	807.813
397.263	22.128	1061.285	807.047
398.278	22.116	1060.250	806.134
399.292	21.954	1059.626	804.844
400.307	21.937	1059.041	804.251
401.321	21.970	1058.529	803.943
402.336	22.079	1057.307	803.442
403.350	21.933	1057.156	802.588
404.365	22.017	1056.437	802.355
405.380	22.226	1055.395	802.448
406.394	22.131	1055.096	801.715
407.409	22.272	1054.401	801.758
408.423	22.380	1053.872	801.777
409.438	22.487	1053.113	801.614
410.453	22.567	1052.475	801.422
411.467	22.603	1051.786	800.989
412.482	22.598	1051.261	800.500
413.496	22.718	1050.282	800.224
414.511	22.788	1049.881	800.167
415.526	22.893	1049.708	800.442
416.540	22.912	1049.391	800.213
417.555	22.939	1048.435	799.536
418.569	22.858	1047.731	798.564
419.584	22.821	1047.317	798.011
420.599	22.786	1047.107	797.621
421.613	154.591	1400.377	1788.155
422.628	141.740	1451.858	1788.301
