DTS Sentinel unit serial number:	SN413079Multiplexer serial number:	ORYXHardware model number:	OX4-SRSoftware version number:	ORYX F/W v4.00 Oryx Data Collector v3.7.2.0data status	okinstallation	princeton_trtdifferential loss correction	single-endedforward channel	channel 2reverse channel	N/Adate	2019/09/17time	21:51:35forward acquisition time	60.00reverse acquisition time	0.00gamma	496.2192k internal	0.2342k external	0.2342temperature offset calibration	0.9983default loss term (dB/km)	0.3790temperature slope calibration	1.0000multiplexer offset coefficient	1.0000multiplexer slope coefficient	1.0000fibre end	0.00T internal ref (°C)	26.36T ext. ref 1 (°C)	0.18T ext. ref 2 (°C)	19.08length (m)	temperature (°C)	Stokes	anti-Stokes-747.200	157.615	-0.107	-0.148
-746.185	-200.000	0.032	0.354
-745.171	41.420	0.290	0.263
-744.156	800.000	0.087	0.271
-743.142	93.896	-0.201	0.228
-742.127	-110.414	0.078	-0.016
-741.112	284.967	0.193	0.348
-740.098	-44.173	-0.224	0.113
-739.083	221.117	0.067	0.107
-738.069	-200.000	-0.021	0.262
-737.054	-22.943	0.089	-0.054
-736.039	-79.029	-0.391	-0.133
-735.025	299.306	-0.041	0.076
-734.010	-60.945	-0.300	-0.127
-732.996	-154.660	-0.375	0.025
-731.981	-60.822	0.238	0.101
-730.966	-47.185	-0.342	-0.167
-729.952	607.098	0.152	-0.379
-728.937	575.591	0.089	0.217
-727.923	800.000	-0.124	0.384
-726.908	-94.525	-0.431	-0.117
-725.894	669.217	-0.072	0.187
-724.879	800.000	0.190	-0.676
-723.864	209.429	-0.060	-0.095
-722.850	-200.000	-0.259	0.000
-721.835	59.499	0.072	0.071
-720.821	47.146	-0.189	0.176
-719.806	-79.173	0.102	-0.034
-718.791	-57.985	-0.065	-0.028
-717.777	456.287	0.103	-0.230
-716.762	-161.338	-0.178	0.009
-715.748	72.458	-0.125	-0.131
-714.733	15.534	0.065	-0.051
-713.718	-73.820	-0.210	0.076
-712.704	-111.751	-0.264	0.054
-711.689	14.761	-0.021	0.016
-710.675	-97.688	-0.270	0.070
-709.660	414.206	0.166	0.353
-708.645	198.400	-0.077	0.117
-707.631	-89.750	-0.293	0.086
-706.616	94.046	-0.091	0.104
-705.602	-12.031	0.043	-0.028
-704.587	69.302	0.203	0.209
-703.572	-200.000	0.030	-0.233
-702.558	800.000	-0.120	0.448
-701.543	466.913	0.009	0.020
-700.529	800.000	-0.054	0.175
-699.514	-8.141	0.170	-0.115
-698.499	800.000	0.087	-0.363
-697.485	88.362	-0.166	-0.184
-696.470	337.108	-0.091	-0.178
-695.456	286.838	-0.101	-0.183
-694.441	-80.129	-0.165	-0.055
-693.426	-82.614	0.336	0.109
-692.412	-200.000	-0.019	-0.098
-691.397	800.000	-0.033	-0.105
-690.383	-200.000	-0.003	-0.138
-689.368	213.621	0.202	-0.319
-688.354	-200.000	-0.035	0.180
-687.339	208.546	0.160	-0.250
-686.324	-88.619	0.215	0.064
-685.310	-3.661	0.093	0.065
-684.295	-34.670	0.113	0.062
-683.281	-118.732	-0.037	0.007
-682.266	72.580	0.147	-0.154
-681.251	-118.069	0.239	0.043
-680.237	-126.829	-0.162	0.024
-679.222	265.626	0.152	-0.266
-678.208	800.000	0.051	-0.197
-677.193	192.711	0.263	-0.396
-676.178	-90.166	-0.010	0.003
-675.164	10.142	0.137	0.104
-674.149	800.000	-0.034	-0.126
-673.135	-200.000	0.001	0.293
-672.120	423.002	-0.046	0.099
-671.105	-5.795	-0.059	0.041
-670.091	-65.653	-0.300	-0.120
-669.076	-168.699	-0.151	-0.006
-668.062	-127.604	0.088	0.013
-667.047	428.674	-0.096	-0.207
-666.032	800.000	0.128	-0.366
-665.018	668.655	-0.074	-0.191
-664.003	10.194	-0.243	-0.184
-662.989	129.170	0.025	0.031
-661.974	356.900	0.085	-0.169
-660.959	-200.000	0.000	0.123
-659.945	393.164	0.020	0.041
-658.930	281.771	0.134	-0.239
-657.916	-82.546	0.444	0.144
-656.901	-37.493	-0.015	0.008
-655.886	187.863	0.165	-0.246
-654.872	-141.637	0.237	0.024
-653.857	-160.081	-0.184	0.010
-652.843	800.000	0.065	-0.263
-651.828	-93.444	-0.395	0.109
-650.814	97.667	-0.049	-0.056
-649.799	-160.468	0.131	0.007
-648.784	-20.500	0.291	0.179
-647.770	-39.092	-0.182	-0.095
-646.755	84.576	-0.049	0.053
-645.741	-4.433	0.098	-0.068
-644.726	108.700	-0.117	0.139
-643.711	150.197	-0.110	0.149
-642.697	51.513	0.059	0.056
-641.682	800.000	-0.148	0.416
-640.668	-14.212	0.052	0.033
-639.653	-181.425	-0.313	0.006
-638.638	131.645	-0.219	-0.281
-637.624	-158.889	0.079	0.004
-636.609	63.850	0.161	-0.162
-635.595	-50.627	0.207	0.097
-634.580	355.880	0.223	0.443
-633.565	-165.472	-0.319	-0.014
-632.551	-112.564	-0.260	-0.052
-631.536	-200.000	0.040	-0.401
-630.522	800.000	0.130	-0.472
-629.507	-200.000	-0.012	-0.083
-628.492	-62.860	0.288	0.119
-627.478	-200.000	0.000	-0.088
-626.463	-132.920	0.238	-0.030
-625.449	437.298	0.074	-0.161
-624.434	-71.826	-0.332	0.123
-623.419	-180.788	0.024	0.000
-622.405	-200.000	-0.000	0.006
-621.390	-156.268	-0.149	-0.009
-620.376	-34.462	0.265	-0.145
-619.361	-200.000	-0.006	0.043
-618.346	-122.002	0.038	-0.006
-617.332	-118.603	0.181	0.032
-616.317	800.000	-0.048	-0.177
-615.303	604.881	0.149	-0.369
-614.288	-13.287	0.285	0.184
-613.273	-115.098	-0.174	0.033
-612.259	-130.212	-0.122	0.017
-611.244	38.098	-0.166	0.147
-610.230	622.212	-0.061	0.154
-609.215	-200.000	0.024	0.290
-608.201	-200.000	0.007	0.175
-607.186	-98.071	-0.313	-0.080
-606.171	82.371	0.199	-0.215
-605.157	800.000	-0.088	0.247
-604.142	-85.393	-0.154	0.048
-603.128	800.000	-0.037	0.146
-602.113	25.056	0.099	-0.082
-601.098	-46.226	-0.068	-0.033
-600.084	65.103	0.220	-0.222
-599.069	-154.428	-0.064	-0.004
-598.055	-131.592	-0.343	-0.045
-597.040	53.841	0.185	-0.177
-596.025	118.525	-0.197	0.243
-595.011	-29.267	-0.108	-0.062
-593.996	135.772	0.050	0.065
-592.982	380.765	-0.189	-0.386
-591.967	713.982	-0.047	0.124
-590.952	683.309	0.168	0.436
-589.938	-110.472	0.073	-0.015
-588.923	37.895	-0.232	-0.205
-587.909	-200.000	0.003	0.071
-586.894	800.000	0.082	0.274
-585.879	-200.000	-0.007	0.094
-584.865	-123.079	-0.208	0.033
-583.850	-178.534	0.222	0.005
-582.836	-34.975	0.050	-0.027
-581.821	-110.124	-0.067	-0.014
-580.806	-200.000	0.072	0.386
-579.792	624.514	0.056	-0.139
-578.777	253.672	0.015	-0.026
-577.763	-163.649	-0.109	-0.005
-576.748	-200.000	-0.014	0.141
-575.733	-166.715	-0.114	-0.005
-574.719	110.646	0.126	0.151
-573.704	-123.361	-0.278	0.044
-572.690	548.111	0.064	-0.153
-571.675	8.749	0.372	-0.279
-570.661	800.000	0.075	-0.312
-569.646	-80.131	0.406	0.135
-568.631	197.113	-0.119	0.181
-567.617	161.343	0.176	0.245
-566.602	357.801	-0.143	-0.284
-565.588	50.514	-0.327	-0.308
-564.573	-16.162	0.114	-0.072
-563.558	33.261	-0.142	-0.123
-562.544	2.798	0.200	-0.145
-561.529	800.000	0.029	-0.114
-560.515	-39.644	0.228	-0.119
-559.500	-200.000	0.018	-0.136
-558.485	-152.794	0.262	-0.018
-557.471	-154.757	-0.199	-0.013
-556.456	216.657	0.088	0.139
-555.442	125.108	0.101	-0.126
-554.427	302.946	0.157	-0.290
-553.412	800.000	-0.043	-0.174
-552.398	-185.635	0.368	0.006
-551.383	-200.000	0.035	-0.170
-550.369	800.000	0.044	-0.138
-549.354	-200.000	0.059	-0.265
-548.339	800.000	0.048	-0.183
-547.325	123.724	-0.166	0.206
-546.310	-200.000	-0.002	0.164
-545.296	-25.192	-0.180	-0.106
-544.281	104.105	0.149	-0.175
-543.266	-9.287	-0.118	0.079
-542.252	83.997	-0.226	-0.246
-541.237	-60.915	0.094	0.040
-540.223	-49.257	0.141	-0.067
-539.208	304.560	-0.108	-0.200
-538.193	-122.006	0.137	-0.022
-537.179	632.875	0.123	0.309
-536.164	-131.103	0.275	0.036
-535.150	12.835	0.164	0.126
-534.135	530.201	-0.064	-0.149
-533.121	115.981	0.099	-0.120
-532.106	-80.230	0.140	-0.047
-531.091	50.841	-0.030	0.028
-530.077	45.326	-0.122	-0.112
-529.062	-76.048	0.246	0.087
-528.048	97.720	0.110	-0.125
-527.033	-22.417	-0.255	-0.153
-526.018	-52.201	0.162	0.074
-525.004	800.000	-0.088	0.282
-523.989	497.490	0.087	-0.199
-522.975	-85.275	-0.391	-0.121
-521.960	-52.571	0.161	-0.074
-520.945	179.331	-0.260	-0.378
-519.931	-8.680	0.394	0.263
-518.916	-6.107	-0.331	-0.225
-517.902	-37.271	-0.067	-0.036
-516.887	14.029	0.264	0.204
-515.872	-16.808	-0.141	0.089
-514.858	289.345	-0.185	-0.333
-513.843	246.056	0.100	-0.168
-512.829	-92.608	-0.180	0.050
-511.814	-100.034	0.183	0.045
-510.799	800.000	-0.072	-0.270
-509.785	-58.425	0.128	0.055
-508.770	122.696	-0.262	-0.325
-507.756	800.000	-0.045	-0.131
-506.741	800.000	0.092	-0.260
-505.726	-85.944	-0.080	0.025
-504.712	-41.778	-0.230	0.117
-503.697	-29.700	0.034	0.019
-502.683	800.000	-0.046	0.170
-501.668	-200.000	0.020	0.250
-500.653	-178.366	-0.028	0.001
-499.639	-38.372	-0.229	-0.120
-498.624	-62.046	0.226	-0.094
-497.610	-200.000	0.020	0.231
-496.595	-200.000	0.019	-0.087
-495.581	22.108	0.075	0.061
-494.566	-105.001	0.284	0.065
-493.551	-200.000	0.043	0.200
-492.537	-91.741	0.326	0.092
-491.522	800.000	-0.108	-0.300
-490.508	222.217	-0.038	-0.061
-489.493	-195.408	-0.047	0.000
-488.478	-8.896	0.139	-0.092
-487.464	-16.909	0.064	-0.040
-486.449	-200.000	0.020	-0.365
-485.435	-59.497	-0.145	0.062
-484.420	-99.118	-0.195	-0.049
-483.405	-200.000	0.010	-0.094
-482.391	-16.907	-0.087	-0.054
-481.376	-20.136	-0.239	-0.146
-480.362	800.000	0.120	0.405
-479.347	800.000	0.076	0.324
-478.332	6.105	-0.173	0.127
-477.318	-127.394	0.169	0.024
-476.303	-51.625	0.193	-0.089
-475.289	-128.147	-0.190	-0.027
-474.274	323.257	0.042	0.080
-473.259	-133.198	0.305	-0.038
-472.245	-128.250	-0.476	0.067
-471.230	519.865	-0.014	-0.033
-470.216	291.939	0.053	-0.096
-469.201	-33.924	-0.252	-0.137
-468.186	-200.000	0.044	0.283
-467.172	800.000	0.119	0.373
-466.157	-193.997	-0.263	-0.002
-465.143	-124.747	0.406	0.062
-464.128	147.035	-0.031	0.041
-463.113	800.000	-0.081	0.236
-462.099	-200.000	0.042	0.235
-461.084	-4.023	-0.143	0.098
-460.070	35.108	-0.139	-0.120
-459.055	391.659	0.025	-0.051
-458.040	6.597	-0.412	-0.304
-457.026	-109.895	0.234	-0.049
-456.011	27.245	0.280	-0.233
-454.997	-200.000	0.019	0.085
-453.982	638.021	0.076	-0.192
-452.968	191.411	-0.170	-0.253
-451.953	-200.000	0.064	0.393
-450.938	166.172	0.031	-0.043
-449.924	-144.491	-0.124	0.011
-448.909	111.476	-0.114	-0.136
-447.895	89.082	0.043	0.047
-446.880	-90.102	0.232	-0.067
-445.865	8.985	0.112	-0.084
-444.851	800.000	0.032	0.125
-443.836	-200.000	0.020	-0.087
-442.822	-109.946	-0.224	-0.047
-441.807	-32.257	-0.218	0.121
-440.792	-19.582	0.219	-0.134
-439.778	-98.060	-0.138	-0.035
-438.763	587.690	-0.127	0.309
-437.749	318.242	-0.078	0.145
-436.734	-28.381	0.141	0.080
-435.719	242.271	-0.122	0.202
-434.705	-13.308	-0.343	0.221
-433.690	140.108	0.162	-0.212
-432.676	-52.319	0.062	0.029
-431.661	-135.108	-0.334	-0.040
-430.646	31.839	-0.064	0.055
-429.632	-32.898	-0.067	0.037
-428.617	800.000	0.012	-0.050
-427.603	-95.964	-0.064	-0.017
-426.588	147.887	0.059	-0.079
-425.573	95.924	0.046	0.052
-424.559	-46.281	-0.176	-0.086
-423.544	81.531	-0.179	-0.192
-422.530	-200.000	-0.040	-0.546
-421.515	-65.454	0.244	-0.097
-420.500	800.000	0.051	-0.175
-419.486	103.513	0.040	0.047
-418.471	92.062	0.192	-0.214
-417.457	282.405	0.108	0.191
-416.442	-151.710	-0.024	-0.002
-415.428	-86.654	-0.452	-0.137
-414.413	-200.000	0.021	-0.116
-413.398	267.664	-0.112	-0.194
-412.384	-112.083	-0.196	0.039
-411.369	-95.874	-0.288	-0.076
-410.355	-82.937	-0.280	-0.089
-409.340	-200.000	-0.039	0.208
-408.325	-200.000	0.034	-0.294
-407.311	800.000	-0.033	-0.092
-406.296	-79.453	-0.298	0.100
-405.282	-112.165	-0.193	0.038
-404.267	-14.057	0.189	0.120
-403.252	-43.355	-0.119	0.060
-402.238	51.297	-0.189	-0.178
-401.223	-51.043	0.231	0.107
-400.209	205.530	0.074	0.114
-399.194	800.000	0.058	0.192
-398.179	-200.000	0.009	0.481
-397.165	-67.838	-0.201	0.078
-396.150	-30.960	-0.031	0.017
-395.136	77.465	0.117	0.123
-394.121	148.916	-0.109	0.146
-393.106	800.000	0.142	-0.397
-392.092	-41.965	0.220	0.111
-391.077	-200.000	0.023	0.390
-390.063	190.863	-0.045	0.067
-389.048	-200.000	-0.004	-0.027
-388.033	-200.000	-0.028	-0.379
-387.019	-98.261	-0.190	-0.048
-386.004	-60.049	0.076	0.032
-384.990	-200.000	0.052	0.545
-383.975	-11.605	-0.115	-0.075
-382.960	-127.140	-0.107	-0.016
-381.946	-65.345	-0.206	0.082
-380.931	442.145	0.057	0.124
-379.917	-66.478	-0.190	0.075
-378.902	800.000	-0.049	-0.192
-377.888	-200.000	0.031	-0.288
-376.873	-200.000	-0.032	-0.205
-375.858	-35.552	-0.169	-0.091
-374.844	107.537	0.302	-0.355
-373.829	-144.711	-0.155	-0.014
-372.815	78.600	0.149	-0.157
-371.800	800.000	0.061	-0.172
-370.785	-60.386	0.188	0.079
-369.771	-200.000	0.038	-0.288
-368.756	-112.329	0.307	-0.061
-367.742	-84.697	-0.523	0.162
-366.727	262.079	-0.122	0.209
-365.712	-162.439	0.328	0.016
-364.698	7.729	-0.095	-0.070
-363.683	-200.000	0.061	-0.404
-362.669	-62.676	-0.245	0.100
-361.654	249.126	0.137	0.229
-360.639	-96.425	0.047	0.012
-359.625	-200.000	0.031	0.155
-358.610	-132.123	0.293	-0.038
-357.596	190.162	0.176	0.261
-356.581	-68.366	0.210	-0.080
-355.566	-114.998	-0.091	-0.017
-354.552	100.519	-0.233	0.267
-353.537	173.788	0.189	-0.269
-352.523	-200.000	0.021	-0.347
-351.508	800.000	-0.094	0.288
-350.493	-200.000	0.042	-0.392
-349.479	-118.006	0.122	0.022
-348.464	-166.323	-0.066	0.003
-347.450	-57.843	-0.272	-0.117
-346.435	661.764	0.093	0.237
-345.420	229.719	0.063	0.101
-344.406	-119.089	0.389	-0.067
-343.391	800.000	0.131	-0.358
-342.377	208.230	0.088	0.136
-341.362	-39.148	0.146	0.076
-340.348	271.980	0.100	-0.174
-339.333	-52.383	-0.212	0.097
-338.318	392.594	0.062	-0.126
-337.304	57.521	-0.340	0.327
-336.289	-96.741	0.158	0.041
-335.275	290.777	-0.063	0.113
-334.260	737.591	-0.039	-0.104
-333.245	97.590	-0.154	-0.175
-332.231	26.601	0.142	0.117
-331.216	-200.000	-0.002	0.241
-330.202	284.732	-0.048	0.085
-329.187	-200.000	0.021	0.434
-328.172	216.800	0.198	0.311
-327.158	-200.000	-0.016	0.163
-326.143	12.435	0.034	0.026
-325.129	-8.231	0.370	0.246
-324.114	-200.000	0.009	-0.045
-323.099	0.701	-0.157	-0.111
-322.085	124.692	-0.207	0.257
-321.070	-70.016	-0.089	-0.033
-320.056	24.304	0.280	0.228
-319.041	537.901	-0.111	0.259
-318.026	-159.357	0.306	-0.017
-317.012	9.204	-0.174	-0.130
-315.997	137.930	-0.222	-0.287
-314.983	35.022	0.216	-0.186
-313.968	304.027	-0.065	-0.118
-312.953	39.930	0.017	-0.015
-311.939	-39.823	0.037	-0.019
-310.924	-40.841	-0.250	-0.127
-309.910	248.092	-0.069	0.115
-308.895	619.913	-0.033	-0.082
-307.880	-200.000	-0.003	-0.109
-306.866	800.000	-0.081	-0.234
-305.851	-35.546	0.161	0.086
-304.837	-200.000	-0.005	-0.273
-303.822	-144.293	0.242	0.022
-302.807	-200.000	-0.027	-0.511
-301.793	-144.357	0.144	-0.013
-300.778	177.938	0.199	0.286
-299.764	-74.584	-0.084	-0.030
-298.749	-125.703	-0.319	0.048
-297.735	-122.309	0.076	-0.012
-296.720	241.696	0.089	0.147
-295.705	135.952	0.062	0.080
-294.691	255.657	-0.118	0.200
-293.676	-121.921	0.319	-0.052
-292.662	-148.818	-0.423	0.034
-291.647	394.405	0.120	-0.246
-290.632	-135.587	0.153	0.018
-289.618	-159.713	0.143	0.008
-288.603	-200.000	0.019	-0.121
-287.589	-39.580	0.136	0.070
-286.574	159.641	-0.171	0.234
-285.559	39.771	0.125	0.110
-284.545	-200.000	-0.018	0.093
-283.530	316.386	-0.115	0.213
-282.516	-200.000	-0.045	0.440
-281.501	290.905	-0.239	0.427
-280.486	401.021	-0.052	-0.108
-279.472	269.460	0.253	-0.437
-278.457	-141.774	0.224	0.022
-277.443	-200.000	-0.006	-0.090
-276.428	-200.000	-0.015	0.102
-275.413	8.139	0.137	0.101
-274.399	800.000	0.063	0.172
-273.384	323.426	-0.112	0.210
-272.370	-200.000	-0.028	-0.224
-271.355	579.110	-0.076	-0.184
-270.340	248.542	-0.090	-0.150
-269.326	-81.088	-0.184	0.060
-268.311	17.568	-0.046	0.036
-267.297	800.000	-0.061	0.199
-266.282	-3.090	0.238	0.163
-265.267	134.887	-0.129	0.164
-264.253	-125.668	0.217	-0.032
-263.238	800.000	-0.092	-0.308
-262.224	23.116	-0.250	0.201
-261.209	2.033	0.250	0.177
-260.195	-200.000	-0.021	0.185
-259.180	627.904	0.046	0.114
-258.165	773.980	-0.124	0.332
-257.151	19.327	-0.141	0.112
-256.136	-92.265	-0.248	-0.069
-255.122	765.292	-0.105	-0.280
-254.107	-140.550	-0.255	-0.026
-253.092	-52.479	0.099	0.045
-252.078	-93.977	0.165	0.045
-251.063	-200.000	-0.012	0.271
-250.049	800.000	0.044	-0.148
-249.034	-25.837	0.286	-0.166
-248.019	-28.195	-0.347	0.197
-247.005	800.000	-0.042	0.171
-245.990	-200.000	0.031	-0.288
-244.976	800.000	-0.085	0.301
-243.961	38.403	-0.072	-0.063
-242.946	7.067	-0.127	-0.093
-241.932	-57.274	0.346	0.150
-240.917	-200.000	-0.011	-0.051
-239.903	-181.461	-0.219	0.004
-238.888	49.937	-0.104	-0.096
-237.873	157.059	0.171	-0.232
-236.859	-200.000	0.058	-0.328
-235.844	-16.157	-0.182	0.113
-234.830	-119.495	-0.214	-0.036
-233.815	-137.389	0.368	0.041
-232.800	24.505	-0.088	-0.072
-231.786	-106.142	-0.093	0.021
-230.771	-200.000	-0.004	0.087
-229.757	-158.791	0.197	-0.011
-228.742	66.361	-0.274	0.273
-227.727	60.961	-0.144	0.140
-226.713	-4.185	0.224	0.153
-225.698	-200.000	0.100	-0.614
-224.684	-64.463	0.353	-0.141
-223.669	659.129	-0.114	0.287
-222.655	578.908	-0.058	-0.139
-221.640	7.089	0.211	0.154
-220.625	-130.815	-0.214	-0.028
-219.611	109.450	-0.028	-0.033
-218.596	-31.797	0.248	-0.137
-217.582	174.705	0.269	0.382
-216.567	772.212	-0.179	0.478
-215.552	800.000	0.020	0.078
-214.538	-200.000	-0.000	0.081
-213.523	800.000	-0.060	-0.242
-212.509	76.101	-0.161	-0.167
-211.494	-19.266	0.404	-0.246
-210.479	447.268	-0.106	-0.229
-209.465	800.000	0.038	-0.129
-208.450	-61.040	-0.268	0.111
-207.436	-200.000	0.008	0.168
-206.421	-152.196	-0.160	-0.011
-205.406	-200.000	0.007	0.061
-204.392	-149.601	-0.193	-0.015
-203.377	800.000	0.109	-0.319
-202.363	-80.636	0.297	0.097
-201.348	95.831	-0.329	0.369
-200.333	800.000	0.028	0.113
-199.319	-127.936	-0.437	0.062
-198.304	-82.584	0.413	-0.131
-197.290	108.520	0.012	0.014
-196.275	791.358	0.031	-0.083
-195.260	-9.555	-0.096	0.063
-194.246	559.611	-0.162	0.382
-193.231	-56.267	-0.215	-0.094
-192.217	800.000	0.095	-0.283
-191.202	-200.000	-0.038	-0.186
-190.187	-179.980	-0.173	0.004
-189.173	125.785	0.273	0.338
-188.158	18.586	-0.121	0.095
-187.144	-0.949	0.242	0.168
-186.129	117.446	-0.269	-0.324
-185.114	-200.000	0.063	-0.409
-184.100	800.000	-0.115	0.320
-183.085	113.790	-0.274	0.326
-182.071	258.387	0.120	0.202
-181.056	-59.562	0.124	-0.052
-180.042	-200.000	0.011	-0.137
-179.027	257.817	-0.169	-0.285
-178.012	-181.550	0.065	0.001
-176.998	-101.765	0.131	-0.031
-175.983	43.132	-0.231	0.206
-174.969	64.108	0.272	0.268
-173.954	162.437	0.039	0.053
-172.939	164.734	-0.117	0.161
-171.925	-200.000	-0.062	0.307
-170.910	-167.910	0.167	0.006
-169.896	-200.000	-0.009	0.265
-168.881	92.564	0.047	-0.052
-167.866	225.851	-0.050	0.080
-166.852	243.101	0.027	-0.044
-165.837	800.000	-0.084	-0.339
-164.823	-200.000	-0.003	0.220
-163.808	-124.471	0.120	-0.018
-162.793	-200.000	0.013	-0.208
-161.779	82.807	-0.026	-0.028
-160.764	800.000	-0.032	-0.096
-159.750	-105.198	0.276	0.062
-158.735	800.000	-0.032	-0.109
-157.720	-50.490	0.258	-0.119
-156.706	90.796	0.363	0.398
-155.691	-200.000	-0.015	0.257
-154.677	-101.185	0.108	-0.026
-153.662	257.079	0.039	-0.066
-152.647	800.000	0.100	-0.393
-151.633	-81.055	0.148	-0.048
-150.618	-105.771	-0.322	0.071
-149.604	800.000	-0.136	0.395
-148.589	800.000	0.072	0.285
-147.574	-200.000	-0.014	-0.082
-146.560	-200.000	-0.038	-0.193
-145.545	-61.015	0.060	-0.025
-144.531	-85.859	0.325	0.098
-143.516	-112.335	0.101	0.020
-142.502	7.573	-0.258	-0.189
-141.487	29.821	0.119	-0.099
-140.472	-59.595	-0.106	0.045
-139.458	122.943	-0.164	0.201
-138.443	62.424	0.176	0.172
-137.429	484.551	0.115	0.256
-136.414	89.961	0.183	0.200
-135.399	342.062	-0.143	0.274
-134.385	5.517	0.099	0.072
-133.370	355.924	0.063	0.122
-132.356	-61.795	0.184	0.075
-131.341	-200.000	0.012	-0.136
-130.326	-65.355	0.391	-0.154
-129.312	10.264	-0.222	-0.165
-128.297	22.851	0.167	-0.134
-127.283	42.552	-0.332	-0.295
-126.268	-197.065	-0.219	0.001
-125.253	800.000	-0.097	-0.352
-124.239	-200.000	-0.012	-0.175
-123.224	692.525	-0.184	0.471
-122.210	23.310	0.278	0.224
-121.195	205.111	0.093	0.141
-120.180	-83.634	0.049	0.015
-119.166	-110.472	-0.169	-0.034
-118.151	427.790	0.030	0.063
-117.137	5.776	-0.105	0.076
-116.122	-16.756	0.167	0.103
-115.107	800.000	0.168	0.505
-114.093	544.004	-0.079	0.185
-113.078	-200.000	0.105	0.457
-112.064	-200.000	-0.007	-0.088
-111.049	-200.000	0.000	-0.017
-110.034	256.043	-0.095	-0.160
-109.020	34.108	0.190	-0.162
-108.005	-200.000	0.029	0.353
-106.991	-106.901	0.268	-0.058
-105.976	459.982	0.084	0.182
-104.962	-97.544	0.268	0.068
-103.947	-167.754	-0.247	0.010
-102.932	-86.241	-0.164	-0.049
-101.918	800.000	0.059	-0.223
-100.903	-47.574	0.217	0.103
-99.889	-90.072	0.118	0.034
-98.874	-3.765	-0.350	-0.237
-97.859	327.557	0.151	-0.282
-96.845	-12.201	0.277	0.177
-95.830	-200.000	-0.075	0.379
-94.816	-175.753	0.179	-0.005
-93.801	-61.334	0.237	0.097
-92.786	-200.000	0.000	-0.118
-91.772	28.127	0.196	-0.161
-90.757	800.000	0.102	-0.310
-89.743	-3.074	0.108	0.073
-88.728	800.000	0.073	-0.229
-87.713	-200.000	-0.023	-0.274
-86.699	69.583	0.172	0.173
-85.684	-11.560	0.121	-0.078
-84.670	-99.809	0.309	-0.076
-83.655	-200.000	0.047	0.203
-82.640	38.842	0.100	-0.087
-81.626	800.000	0.058	-0.236
-80.611	410.840	-0.034	0.070
-79.597	-200.000	0.007	0.037
-78.582	27.236	-0.117	0.096
-77.567	379.517	0.092	-0.184
-76.553	55.518	-0.123	0.116
-75.538	165.700	0.124	-0.171
-74.524	83.651	0.059	-0.063
-73.509	-29.020	-0.142	-0.079
-72.494	-109.085	-0.384	0.080
-71.480	42.584	0.233	0.207
-70.465	131.632	0.175	0.220
-69.451	-3.477	0.242	0.164
-68.436	-7.640	-0.024	-0.016
-67.422	800.000	-0.087	0.311
-66.407	237.973	0.119	-0.192
-65.392	-135.332	0.045	0.005
-64.378	-69.666	-0.040	0.015
-63.363	-137.643	-0.187	-0.021
-62.349	800.000	-0.040	0.152
-61.334	45.174	-1.034	-0.930
-60.319	3.110	0.588	0.417
-59.305	437.547	-0.608	-1.292
-58.290	145.800	0.968	1.265
-57.276	800.000	0.536	1.476
-56.261	-200.000	115.730	615.103
-55.246	436.989	1504.815	3196.708
-54.232	149.870	2669.996	3529.702
-53.217	92.052	2260.505	2481.764
-52.203	34.634	1876.823	1599.109
-51.188	29.488	1673.564	1387.311
-50.173	27.113	1633.297	1336.429
-49.159	46.222	1693.364	1529.526
-48.144	45.161	1707.399	1534.175
-47.130	28.938	1662.761	1374.026
-46.115	26.428	1648.012	1343.174
-45.100	26.254	1642.588	1337.412
-44.086	26.219	1640.430	1335.339
-43.071	26.178	1638.110	1333.094
-42.057	26.244	1635.489	1331.400
-41.042	26.213	1633.691	1329.649
-40.027	26.201	1631.930	1328.081
-39.013	26.187	1629.962	1326.317
-37.998	26.148	1628.336	1324.659
-36.984	26.195	1627.180	1324.007
-35.969	26.306	1625.457	1323.369
-34.954	26.355	1623.856	1322.370
-33.940	26.315	1622.256	1320.721
-32.925	26.357	1620.781	1319.776
-31.911	26.367	1618.866	1318.240
-30.896	26.292	1617.410	1316.453
-29.881	26.342	1616.124	1315.722
-28.867	26.424	1614.014	1314.546
-27.852	26.362	1612.803	1313.055
-26.838	26.314	1611.686	1311.747
-25.823	26.353	1610.200	1310.764
-24.809	26.502	1608.674	1310.554
-23.794	26.417	1607.675	1309.073
-22.779	26.410	1605.922	1307.540
-21.765	26.378	1604.315	1305.952
-20.750	26.396	1602.768	1304.765
-19.736	26.429	1601.489	1303.913
-18.721	26.421	1600.439	1302.946
-17.706	26.424	1598.841	1301.618
-16.692	26.373	1597.243	1299.896
-15.677	26.360	1596.095	1298.818
-14.663	26.480	1594.587	1298.399
-13.648	26.505	1592.663	1296.963
-12.633	26.464	1591.723	1295.853
-11.619	26.357	1590.076	1293.692
-10.604	26.397	1588.495	1292.645
-9.590	26.354	1587.670	1291.613
-8.575	26.434	1586.005	1290.778
-7.560	26.353	1585.118	1289.429
-6.546	26.415	1583.608	1288.586
-5.531	26.278	1582.917	1287.003
-4.517	26.299	1581.382	1285.850
-3.502	26.275	1580.473	1284.891
-2.487	26.501	1578.447	1284.795
-1.473	25.858	1566.649	1270.607
-0.458	22.589	1546.382	1231.325
0.556	16.884	1547.621	1196.087
1.571	14.403	1569.817	1195.357
2.586	14.036	1581.593	1201.564
3.600	12.894	1528.960	1153.486
4.615	7.223	1424.696	1037.680
5.629	1.295	1365.572	957.222
6.644	0.265	1357.605	945.098
7.659	0.167	1356.407	943.562
8.673	0.155	1355.176	942.550
9.688	0.133	1353.094	940.878
10.702	0.038	1349.939	938.009
11.717	2.771	1354.080	957.886
12.731	10.021	1365.131	1011.114
13.746	15.620	1373.226	1052.169
14.761	16.956	1373.533	1060.675
15.775	16.213	1371.732	1054.547
16.790	15.250	1368.883	1046.256
17.804	14.446	1367.312	1039.947
18.819	14.115	1365.550	1036.452
19.834	13.784	1364.136	1033.225
20.848	13.659	1362.597	1031.195
21.863	13.368	1361.142	1028.193
22.877	13.157	1361.008	1026.687
23.892	13.117	1359.614	1025.301
24.907	13.056	1359.032	1024.389
25.921	13.207	1357.826	1024.328
26.936	13.217	1357.027	1023.696
27.950	13.195	1356.281	1022.903
28.965	13.297	1355.364	1022.755
29.980	13.346	1354.291	1022.157
30.994	13.367	1353.675	1021.732
32.009	13.426	1352.018	1020.753
33.023	13.440	1351.551	1020.398
34.038	13.387	1350.028	1018.831
35.053	13.288	1349.445	1017.691
36.067	13.193	1348.764	1016.507
37.082	13.317	1347.542	1016.256
38.096	13.369	1346.118	1015.413
39.111	13.315	1345.529	1014.544
40.126	13.272	1344.464	1013.386
41.140	13.200	1343.753	1012.322
42.155	13.159	1343.453	1011.754
43.169	13.229	1342.733	1011.550
44.184	13.184	1342.575	1011.066
45.199	13.122	1342.585	1010.605
46.213	13.163	1341.855	1010.217
47.228	13.196	1340.536	1009.337
48.242	13.229	1339.659	1008.788
49.257	13.252	1338.069	1007.640
50.271	13.252	1336.489	1006.364
51.286	13.325	1335.631	1006.075
52.301	13.276	1334.055	1004.500
53.315	13.246	1333.254	1003.628
54.330	13.214	1332.467	1002.750
55.344	13.209	1331.015	1001.540
56.359	13.154	1330.121	1000.441
57.374	13.060	1329.293	999.163
58.388	13.092	1328.365	998.568
59.403	13.131	1327.823	998.309
60.417	13.132	1327.059	997.656
61.432	13.050	1326.282	996.485
62.447	13.074	1325.196	995.729
63.461	13.109	1323.673	994.704
64.476	13.072	1323.435	994.216
65.490	12.997	1322.033	992.625
66.505	12.989	1320.221	991.127
67.520	13.058	1319.417	990.850
68.534	13.105	1317.780	989.818
69.549	13.193	1316.720	989.462
70.563	13.142	1315.546	988.187
71.578	13.049	1314.708	986.913
72.593	12.996	1313.942	985.931
73.607	12.908	1313.524	985.004
74.622	12.951	1312.672	984.538
75.636	12.967	1311.367	983.564
76.651	13.015	1310.832	983.362
77.666	13.060	1310.427	983.238
78.680	13.008	1310.139	982.626
79.695	13.078	1308.975	982.084
80.709	13.123	1307.462	981.130
81.724	13.108	1307.094	980.677
82.739	13.214	1305.969	980.377
83.753	13.161	1305.318	979.483
84.768	13.256	1303.759	978.792
85.782	13.311	1302.787	978.299
86.797	13.297	1301.673	977.296
87.812	13.197	1300.710	975.893
88.826	13.166	1299.741	974.900
89.841	13.385	1297.955	974.762
90.855	13.371	1297.454	974.217
91.870	13.163	1296.820	972.433
92.884	13.291	1295.784	972.322
93.899	13.258	1295.135	971.552
94.914	13.338	1294.166	971.209
95.928	13.444	1292.987	970.862
96.943	13.305	1292.320	969.459
97.957	13.361	1291.397	969.013
98.972	13.238	1290.891	967.828
99.987	13.365	1289.514	967.453
101.001	13.395	1288.637	966.882
102.016	13.317	1287.940	965.815
103.030	13.383	1286.705	965.194
104.045	13.265	1285.729	963.687
105.060	13.353	1284.767	963.391
106.074	13.150	1283.470	961.154
107.089	13.154	1281.632	959.714
108.103	13.219	1280.714	959.317
109.118	13.140	1279.549	957.905
110.133	13.072	1278.140	956.374
111.147	13.241	1276.667	956.163
112.162	13.111	1276.087	954.891
113.176	13.116	1274.488	953.638
114.191	13.192	1273.604	953.332
115.206	13.223	1272.586	952.667
116.220	13.268	1271.423	951.970
117.235	13.252	1269.694	950.499
118.249	13.276	1269.499	950.402
119.264	13.225	1268.026	948.928
120.279	13.065	1267.323	947.397
121.293	13.154	1265.909	946.769
122.308	13.119	1265.512	946.183
123.322	13.060	1264.321	944.877
124.337	13.176	1262.830	944.339
125.352	13.140	1261.788	943.272
126.366	13.145	1261.082	942.690
127.381	13.115	1259.623	941.341
128.395	13.181	1258.609	940.878
129.410	13.225	1257.812	940.447
130.424	13.133	1257.130	939.334
131.439	13.219	1255.813	938.756
132.454	13.165	1254.853	937.648
133.468	13.224	1253.862	937.158
134.483	13.245	1252.974	936.533
135.497	13.315	1252.185	936.257
136.512	13.238	1250.613	934.562
137.527	13.221	1249.520	933.567
138.541	13.227	1248.223	932.546
139.556	13.126	1246.999	930.983
140.570	13.240	1246.145	930.900
141.585	13.374	1244.461	930.317
142.600	13.298	1243.440	929.045
143.614	13.266	1242.979	928.440
144.629	13.393	1241.517	927.978
145.643	13.357	1240.723	927.100
146.658	13.333	1239.924	926.286
147.673	13.416	1238.129	925.327
148.687	13.340	1236.983	923.964
149.702	13.275	1235.572	922.467
150.716	13.366	1234.581	922.151
151.731	13.354	1233.537	921.220
152.746	13.357	1232.047	920.047
153.760	13.411	1230.834	919.358
154.775	13.455	1229.648	918.635
155.789	13.417	1228.762	917.679
156.804	13.455	1227.344	916.751
157.819	13.500	1226.835	916.539
158.833	13.418	1226.068	915.434
159.848	13.619	1224.489	915.279
160.862	13.597	1223.711	914.500
161.877	13.560	1222.811	913.541
162.892	13.463	1221.568	911.995
163.906	13.452	1220.971	911.407
164.921	13.426	1220.273	910.665
165.935	13.417	1219.331	909.829
166.950	13.410	1218.539	909.122
167.964	13.503	1217.640	908.881
168.979	13.463	1217.496	908.473
169.994	13.553	1215.855	907.662
171.008	13.401	1215.542	906.518
172.023	13.627	1214.411	906.827
173.037	13.660	1213.450	906.212
174.052	13.565	1212.577	904.961
175.067	13.551	1211.881	904.281
176.081	13.515	1210.916	903.286
177.096	13.386	1210.530	902.218
178.110	13.588	1208.925	902.042
179.125	13.661	1207.255	901.112
180.140	13.629	1206.497	900.293
181.154	13.709	1205.091	899.598
182.169	13.588	1204.091	898.117
183.183	13.766	1202.871	898.091
184.198	13.829	1201.354	897.219
185.213	13.803	1200.688	896.500
186.227	13.842	1199.692	895.891
187.242	13.805	1198.874	895.000
188.256	13.806	1197.692	894.045
189.271	13.825	1196.661	893.294
190.286	13.715	1195.996	892.131
191.300	13.651	1195.046	890.999
192.315	13.646	1194.544	890.519
193.329	13.665	1193.485	889.752
194.344	13.626	1193.251	889.291
195.359	13.765	1192.229	889.193
196.373	13.840	1191.785	889.184
197.388	13.893	1191.484	889.165
198.402	13.848	1191.047	888.522
199.417	13.885	1189.945	887.819
200.432	14.056	1189.038	887.974
201.446	14.013	1188.495	887.262
202.461	14.037	1187.254	886.385
203.475	13.963	1186.605	885.428
204.490	13.985	1185.264	884.466
205.504	14.007	1183.737	883.367
206.519	13.994	1182.884	882.579
207.534	14.044	1181.704	881.886
208.548	13.955	1181.075	880.869
209.563	14.050	1180.032	880.519
210.577	13.941	1179.387	879.381
211.592	14.039	1178.387	879.076
212.607	14.113	1177.464	878.697
213.621	14.248	1176.338	878.496
214.636	14.150	1175.511	877.279
215.650	14.031	1174.853	876.086
216.665	14.176	1173.933	876.087
217.680	14.193	1172.958	875.372
218.694	14.300	1172.619	875.602
219.709	14.240	1171.343	874.255
220.723	14.274	1170.418	873.667
221.738	14.294	1170.039	873.411
222.753	14.161	1169.576	872.295
223.767	14.225	1168.539	871.779
224.782	14.444	1168.000	872.444
225.796	14.285	1167.820	871.402
226.811	14.323	1167.105	870.986
227.826	14.269	1166.436	870.132
228.840	14.334	1165.150	869.434
229.855	14.350	1164.434	868.906
230.869	14.354	1164.086	868.590
231.884	14.377	1162.663	867.571
232.899	14.318	1162.192	866.836
233.913	14.365	1161.626	866.582
234.928	14.314	1160.776	865.605
235.942	14.240	1160.155	864.682
236.957	14.339	1159.172	864.384
237.972	14.330	1158.449	863.721
238.986	14.393	1158.043	863.670
240.001	14.370	1156.943	862.655
241.015	14.357	1156.198	861.957
242.030	14.428	1155.418	861.665
243.045	14.398	1154.938	861.073
244.059	14.476	1154.041	860.734
245.074	14.527	1152.916	860.080
246.088	14.401	1152.235	858.848
247.103	14.646	1151.106	859.192
248.117	14.693	1150.541	858.934
249.132	14.582	1150.104	857.962
250.147	14.602	1149.466	857.516
251.161	14.613	1148.563	856.822
252.176	14.766	1148.013	857.121
253.190	14.774	1147.259	856.520
254.205	14.882	1146.628	856.527
255.220	14.840	1146.174	855.899
256.234	14.798	1145.599	855.177
257.249	14.838	1144.955	854.824
258.263	14.888	1143.976	854.273
259.278	14.854	1143.485	853.659
260.293	14.960	1142.824	853.631
261.307	14.926	1142.701	853.289
262.322	14.884	1141.913	852.412
263.336	14.952	1140.979	851.984
264.351	15.028	1140.240	851.744
265.366	14.994	1139.510	850.952
266.380	14.902	1139.399	850.327
267.395	15.029	1138.301	850.076
268.409	14.985	1137.586	849.243
269.424	15.100	1137.062	849.359
270.439	14.921	1136.780	848.167
271.453	14.975	1135.541	847.442
272.468	14.986	1134.918	846.958
273.482	14.976	1134.242	846.327
274.497	15.053	1133.867	846.361
275.512	15.095	1132.782	845.689
276.526	15.064	1132.153	844.986
277.541	15.118	1131.650	844.811
278.555	15.010	1131.225	843.872
279.570	15.151	1130.153	843.708
280.585	15.241	1129.151	843.340
281.599	15.243	1128.010	842.424
282.614	15.219	1127.416	841.783
283.628	15.155	1126.797	840.927
284.643	15.155	1125.486	839.872
285.657	15.216	1124.731	839.542
286.672	15.152	1124.123	838.691
287.687	15.243	1123.036	838.262
288.701	15.309	1122.444	838.078
289.716	15.244	1121.891	837.263
290.730	15.276	1121.082	836.745
291.745	15.306	1120.388	836.307
292.760	15.342	1119.703	835.898
293.774	15.411	1118.847	835.529
294.789	15.443	1118.269	835.181
295.803	15.435	1117.895	834.790
296.818	15.317	1117.258	833.655
297.833	15.341	1116.459	833.101
298.847	15.528	1115.514	833.251
299.862	15.352	1114.490	831.543
300.876	15.441	1114.195	831.691
301.891	15.442	1113.766	831.299
302.906	15.532	1112.703	830.877
303.920	15.495	1112.104	830.174
304.935	15.616	1111.476	830.229
305.949	15.711	1110.729	830.067
306.964	15.684	1110.293	829.536
307.979	15.701	1109.144	828.687
308.993	15.677	1108.526	828.031
310.008	15.635	1108.056	827.404
311.022	15.623	1107.252	826.671
312.037	15.779	1105.951	826.392
313.052	15.629	1105.566	825.293
314.066	15.665	1104.457	824.571
315.081	15.642	1103.284	823.509
316.095	15.603	1102.952	822.997
317.110	15.544	1102.646	822.408
318.125	15.595	1101.814	821.965
319.139	15.640	1101.387	821.790
320.154	15.539	1100.405	820.492
321.168	15.723	1099.745	820.829
322.183	15.715	1099.210	820.317
323.197	15.718	1098.808	819.957
324.212	15.696	1098.098	819.247
325.227	15.744	1096.965	818.564
326.241	15.770	1096.541	818.303
327.256	15.738	1095.495	817.293
328.270	15.739	1095.071	816.908
329.285	15.703	1094.336	816.112
330.300	15.721	1093.385	815.418
331.314	15.860	1092.130	815.086
332.329	15.810	1091.515	814.311
333.343	15.761	1090.626	813.338
334.358	15.839	1089.647	812.914
335.373	15.844	1089.094	812.454
336.387	15.878	1088.335	811.978
337.402	15.950	1087.774	811.838
338.416	15.915	1086.982	811.003
339.431	15.912	1086.284	810.400
340.446	16.023	1085.535	810.304
341.460	15.935	1085.160	809.529
342.475	16.066	1084.377	809.502
343.489	16.108	1083.053	808.641
344.504	16.177	1082.088	808.180
345.519	16.210	1081.081	807.514
346.533	16.299	1080.373	807.341
347.548	16.124	1080.125	806.245
348.562	16.219	1079.034	805.815
349.577	16.071	1078.466	804.610
350.592	16.163	1077.672	804.389
351.606	16.172	1076.973	803.838
352.621	16.115	1075.959	802.740
353.635	16.204	1075.514	802.761
354.650	16.176	1074.757	801.988
355.665	16.210	1074.346	801.772
356.679	16.228	1073.626	801.251
357.694	16.266	1073.069	800.943
358.708	16.310	1072.499	800.655
359.723	16.275	1071.833	799.921
360.738	16.335	1071.050	799.550
361.752	16.352	1070.509	799.156
362.767	16.407	1070.225	799.135
363.781	16.380	1069.469	798.371
364.796	16.350	1068.984	797.796
365.810	16.366	1068.533	797.465
366.825	16.463	1067.882	797.370
367.840	16.512	1067.170	796.998
368.854	16.558	1066.484	796.629
369.869	16.484	1066.015	795.860
370.883	16.449	1065.235	795.042
371.898	16.493	1064.361	794.526
372.913	16.623	1063.721	794.592
373.927	16.598	1063.099	793.938
374.942	16.589	1062.786	793.591
375.956	16.589	1062.540	793.337
376.971	16.500	1061.816	792.311
377.986	16.543	1061.082	791.893
379.000	16.664	1060.641	792.058
380.015	16.626	1060.374	791.613
381.029	16.704	1059.315	791.116
382.044	16.741	1058.950	790.946
383.059	16.824	1057.788	790.396
384.073	16.757	1057.060	789.471
385.088	16.843	1055.832	788.885
386.102	16.827	1054.964	788.092
387.117	16.818	1054.230	787.433
388.132	16.755	1053.391	786.442
389.146	16.767	1052.714	785.923
390.161	16.744	1051.917	785.149
391.175	16.675	1051.517	784.464
392.190	16.784	1050.922	784.454
393.205	16.804	1050.145	783.898
394.219	16.912	1049.461	783.816
395.234	16.800	1048.658	782.632
396.248	16.898	1047.282	781.988
397.263	16.901	1046.430	781.294
398.278	16.873	1045.633	780.505
399.292	16.872	1044.859	779.853
400.307	16.872	1044.228	779.313
401.321	16.941	1043.449	778.975
402.336	16.976	1042.949	778.698
403.350	16.905	1042.312	777.826
404.365	16.999	1041.804	777.810
405.380	17.018	1041.194	777.370
406.394	16.997	1040.082	776.377
407.409	17.115	1039.372	776.319
408.423	17.080	1039.094	775.880
409.438	17.041	1038.127	774.914
410.453	17.132	1037.319	774.654
411.467	17.123	1036.958	774.277
412.482	17.184	1036.144	773.880
413.496	17.279	1035.531	773.783
414.511	17.342	1034.492	773.227
415.526	17.150	1034.963	772.636
416.540	17.264	1034.319	772.606
417.555	17.254	1033.682	772.018
418.569	17.306	1032.853	771.563
419.584	17.372	1032.373	771.436
420.599	17.346	1032.049	771.011
421.613	106.864	1327.308	1482.679
422.628	97.852	1370.266	1482.745
