DTS Sentinel unit serial number:	SN413079Multiplexer serial number:	ORYXHardware model number:	OX4-SRSoftware version number:	ORYX F/W v4.00 Oryx Data Collector v3.7.2.0data status	okinstallation	princeton_trtdifferential loss correction	single-endedforward channel	channel 2reverse channel	N/Adate	2019/09/18time	22:27:35forward acquisition time	60.00reverse acquisition time	0.00gamma	496.2192k internal	0.2349k external	0.2349temperature offset calibration	1.0022default loss term (dB/km)	0.3790temperature slope calibration	1.0000multiplexer offset coefficient	1.0000multiplexer slope coefficient	1.0000fibre end	0.00T internal ref (°C)	24.25T ext. ref 1 (°C)	0.80T ext. ref 2 (°C)	17.94length (m)	temperature (°C)	Stokes	anti-Stokes-747.200	189.859	-0.156	-0.234
-746.185	245.385	0.065	-0.109
-745.171	-117.894	-0.258	0.046
-744.156	194.606	0.190	0.289
-743.142	-109.699	0.218	-0.046
-742.127	-31.312	-0.202	-0.114
-741.112	800.000	-0.076	0.223
-740.098	40.203	-0.222	0.199
-739.083	-194.454	-0.268	0.002
-738.069	-56.005	-0.342	-0.152
-737.054	278.853	-0.102	-0.182
-736.039	-91.423	-0.272	-0.078
-735.025	-92.527	-0.092	-0.026
-734.010	800.000	-0.098	-0.274
-732.996	-46.662	-0.347	-0.170
-731.981	-200.000	0.025	0.161
-730.966	-0.995	-0.257	0.182
-729.952	244.289	0.066	0.110
-728.937	-99.397	-0.033	-0.008
-727.923	-200.000	0.011	-0.116
-726.908	-200.000	-0.034	-0.151
-725.894	-200.000	-0.050	-0.296
-724.879	23.007	-0.058	0.047
-723.864	-135.864	-0.245	0.029
-722.850	-72.686	0.492	-0.181
-721.835	44.722	0.189	-0.173
-720.821	-183.325	0.174	0.003
-719.806	15.814	0.293	0.230
-718.791	-53.069	-0.289	-0.132
-717.777	275.322	-0.049	-0.087
-716.762	39.754	0.169	-0.152
-715.748	706.854	0.113	0.297
-714.733	119.836	-0.165	-0.204
-713.718	61.380	0.043	0.042
-712.704	-44.778	-0.193	0.096
-711.689	105.524	-0.162	0.191
-710.675	109.492	-0.038	0.046
-709.660	-200.000	-0.003	-0.404
-708.645	-24.956	0.264	-0.156
-707.631	777.483	0.086	-0.233
-706.616	273.101	0.207	-0.365
-705.602	-140.833	-0.154	0.016
-704.587	800.000	-0.012	-0.041
-703.572	-93.581	-0.237	-0.065
-702.558	-112.502	0.338	0.067
-701.543	800.000	-0.068	0.282
-700.529	89.040	-0.186	-0.206
-699.514	100.377	0.113	0.131
-698.499	-125.627	-0.229	0.035
-697.485	-5.398	-0.221	-0.151
-696.470	113.123	-0.101	-0.122
-695.456	-200.000	0.069	-0.308
-694.441	21.250	0.152	0.123
-693.426	203.962	0.029	0.045
-692.412	11.912	-0.192	0.147
-691.397	-200.000	-0.012	-0.179
-690.383	21.646	0.242	0.196
-689.368	-200.000	-0.333	0.001
-688.354	-200.000	-0.060	0.316
-687.339	800.000	-0.034	-0.116
-686.324	-200.000	-0.040	0.287
-685.310	741.979	0.130	-0.348
-684.295	-200.000	0.019	-0.222
-683.281	438.161	-0.097	-0.211
-682.266	-76.850	0.064	-0.022
-681.251	208.574	0.040	0.062
-680.237	-93.140	-0.397	-0.110
-679.222	-67.093	0.130	-0.051
-678.208	4.800	0.190	-0.139
-677.193	800.000	-0.053	0.205
-676.178	258.943	-0.116	0.199
-675.164	207.158	0.045	0.070
-674.149	-50.503	-0.232	0.109
-673.135	-200.000	-0.037	-0.207
-672.120	106.190	-0.077	-0.091
-671.105	271.937	-0.123	0.216
-670.091	800.000	0.051	-0.175
-669.076	264.290	-0.034	0.058
-668.062	483.584	0.078	0.177
-667.047	188.424	-0.211	0.314
-666.032	130.557	-0.128	0.164
-665.018	800.000	0.022	0.071
-664.003	-200.000	0.036	-0.412
-662.989	-17.995	-0.339	-0.212
-661.974	4.823	0.266	-0.195
-660.959	-74.063	0.088	0.032
-659.945	35.141	-0.219	0.191
-658.930	127.384	-0.214	-0.270
-657.916	449.433	0.067	-0.148
-656.901	-200.000	-0.169	0.000
-655.886	-161.596	0.097	0.005
-654.872	10.566	-0.123	-0.094
-653.857	-104.254	0.166	-0.038
-652.843	-9.200	0.021	-0.014
-651.828	800.000	0.067	-0.265
-650.814	-72.864	-0.227	-0.083
-649.799	-170.944	-0.487	0.017
-648.784	-161.502	-0.216	-0.011
-647.770	328.619	0.048	-0.091
-646.755	295.827	0.149	-0.272
-645.741	-200.000	0.004	-0.032
-644.726	-56.137	-0.315	-0.140
-643.711	-200.000	0.023	-0.160
-642.697	800.000	-0.053	-0.179
-641.682	800.000	0.058	0.213
-640.668	18.133	-0.199	-0.158
-639.653	-81.173	0.408	-0.134
-638.638	27.905	-0.195	-0.163
-637.624	102.654	0.041	-0.048
-636.609	800.000	-0.056	0.199
-635.595	274.929	-0.084	-0.148
-634.580	-34.059	-0.212	-0.116
-633.565	-55.861	0.257	-0.114
-632.551	-58.093	-0.237	0.103
-631.536	-29.906	-0.264	0.150
-630.522	323.282	-0.007	-0.013
-629.507	157.609	0.083	-0.114
-628.492	-13.745	0.279	0.180
-627.478	-150.287	0.241	0.018
-626.463	209.130	0.059	0.092
-625.449	-200.000	-0.078	-0.437
-624.434	71.427	-0.034	-0.035
-623.419	-152.885	0.166	0.012
-622.405	-21.030	0.064	-0.039
-621.390	-17.302	0.095	0.060
-620.376	60.180	-0.152	0.149
-619.361	165.055	0.229	0.322
-618.346	800.000	-0.099	0.303
-617.332	-17.471	-0.105	0.066
-616.317	307.458	-0.124	0.231
-615.303	-90.395	-0.238	0.069
-614.288	800.000	-0.060	0.213
-613.273	12.794	0.101	0.078
-612.259	485.552	-0.117	-0.264
-611.244	88.318	-0.110	0.121
-610.230	45.914	0.128	-0.117
-609.215	-200.000	0.002	0.109
-608.201	141.399	0.150	-0.197
-607.186	-61.925	-0.231	0.096
-606.171	-20.876	-0.292	-0.178
-605.157	19.083	-0.126	-0.100
-604.142	238.142	0.088	-0.145
-603.128	-200.000	-0.003	-0.126
-602.113	-200.000	0.023	0.306
-601.098	-60.391	0.014	-0.006
-600.084	28.681	-0.061	-0.051
-599.069	-66.340	-0.231	0.091
-598.055	-108.134	0.250	-0.054
-597.040	-200.000	-0.028	-0.486
-596.025	-200.000	-0.018	0.132
-595.011	-105.868	-0.067	-0.015
-593.996	800.000	0.087	0.314
-592.982	-195.182	0.249	-0.002
-591.967	117.364	-0.096	0.117
-590.952	41.324	0.226	0.203
-589.938	-110.830	0.490	-0.100
-588.923	225.437	-0.108	0.174
-587.909	-69.979	-0.348	-0.131
-586.894	134.389	0.064	0.083
-585.879	488.808	-0.134	-0.305
-584.865	800.000	-0.092	0.292
-583.850	-93.591	0.209	-0.057
-582.836	-80.990	0.415	-0.136
-581.821	-103.841	0.120	-0.028
-580.806	-105.395	-0.358	-0.081
-579.792	800.000	-0.011	-0.040
-578.777	56.768	0.192	0.186
-577.763	800.000	0.134	-0.396
-576.748	178.369	0.194	0.282
-575.733	800.000	-0.094	0.323
-574.719	-200.000	-0.034	-0.207
-573.704	88.451	-0.150	-0.166
-572.690	-131.877	0.345	0.045
-571.675	-200.000	-0.014	-0.328
-570.661	82.789	0.174	-0.187
-569.646	800.000	-0.038	0.165
-568.631	-186.212	0.284	-0.004
-567.617	-200.000	-0.047	0.213
-566.602	-200.000	0.031	-0.243
-565.588	-4.539	0.396	0.271
-564.573	425.053	-0.131	-0.279
-563.558	80.028	-0.295	0.314
-562.544	638.551	-0.036	-0.091
-561.529	-87.227	-0.246	0.074
-560.515	-162.206	0.124	0.006
-559.500	709.846	0.065	0.171
-558.485	7.413	0.081	0.060
-557.471	-138.052	-0.088	0.010
-556.456	-113.282	0.182	0.035
-555.442	-25.585	0.099	0.058
-554.427	-200.000	0.025	0.166
-553.412	-152.477	0.250	0.018
-552.398	-189.267	0.145	0.002
-551.383	-200.000	-0.008	-0.079
-550.369	800.000	0.066	-0.268
-549.354	67.338	-0.164	0.166
-548.339	184.081	0.050	0.074
-547.325	-98.611	-0.265	0.067
-546.310	69.622	0.272	-0.278
-545.296	513.314	-0.017	0.039
-544.281	193.693	-0.039	0.059
-543.266	45.314	0.077	-0.070
-542.252	-200.000	-0.016	0.231
-541.237	-94.308	0.195	0.053
-540.223	800.000	-0.079	-0.332
-539.208	-13.253	0.041	-0.027
-538.193	-200.000	0.014	0.206
-537.179	-200.000	0.043	0.251
-536.164	335.502	-0.091	-0.174
-535.150	63.913	-0.126	0.125
-534.135	795.889	-0.163	0.446
-533.121	123.459	-0.068	-0.085
-532.106	-46.951	0.251	0.121
-531.091	800.000	-0.048	0.146
-530.077	129.664	0.078	-0.099
-529.062	-73.282	-0.349	-0.127
-528.048	49.868	0.266	-0.248
-527.033	-53.789	0.139	0.063
-526.018	800.000	0.044	0.136
-525.004	-200.000	0.016	-0.232
-523.989	31.292	-0.345	-0.293
-522.975	-18.966	0.395	-0.243
-521.960	-82.797	-0.135	-0.043
-520.945	182.898	-0.035	-0.051
-519.931	269.314	0.074	-0.129
-518.916	38.804	-0.354	0.313
-517.902	-200.000	0.015	-0.161
-516.887	-45.232	0.088	0.043
-515.872	332.428	0.127	-0.242
-514.858	-127.265	-0.076	-0.011
-513.843	-116.656	-0.119	0.022
-512.829	-20.981	0.113	-0.069
-511.814	-3.427	0.176	0.121
-510.799	-106.597	0.227	0.050
-509.785	-140.984	-0.305	0.031
-508.770	-37.208	-0.134	0.071
-507.756	111.713	0.214	-0.255
-506.741	-124.936	-0.180	-0.027
-505.726	195.022	0.088	0.132
-504.712	-28.973	0.082	-0.046
-503.697	800.000	0.029	0.109
-502.683	800.000	-0.022	-0.081
-501.668	-200.000	-0.008	-0.171
-500.653	-32.915	-0.152	0.083
-499.639	800.000	0.063	0.213
-498.624	-200.000	-0.015	0.088
-497.610	-28.803	0.252	-0.143
-496.595	169.560	-0.021	0.030
-495.581	59.824	0.029	0.029
-494.566	76.681	-0.261	0.274
-493.551	-11.468	-0.372	0.242
-492.537	-200.000	0.010	0.119
-491.522	93.747	-0.080	-0.089
-490.508	-63.320	0.157	0.064
-489.493	-35.468	0.094	-0.051
-488.478	-162.611	-0.289	0.014
-487.464	-200.000	0.022	0.244
-486.449	-200.000	-0.007	-0.054
-485.435	-130.133	0.151	0.020
-484.420	25.704	-0.016	-0.014
-483.405	101.009	-0.185	0.212
-482.391	159.781	0.133	0.183
-481.376	48.492	-0.132	0.122
-480.362	156.709	-0.030	0.041
-479.347	-145.452	-0.126	-0.011
-478.332	184.352	0.057	0.084
-477.318	-55.524	-0.043	0.019
-476.303	-157.281	0.222	-0.013
-475.289	251.543	-0.105	0.177
-474.274	46.182	0.138	-0.126
-473.259	97.815	0.085	0.097
-472.245	-127.053	-0.037	0.005
-471.230	237.775	-0.176	-0.288
-470.216	276.055	-0.133	0.233
-469.201	-200.000	-0.014	0.137
-468.186	43.279	0.045	-0.040
-467.172	800.000	0.043	-0.178
-466.157	-95.431	-0.210	-0.056
-465.143	126.746	0.218	0.273
-464.128	132.558	0.169	0.216
-463.113	-53.121	0.106	0.048
-462.099	313.124	0.135	-0.251
-461.084	800.000	-0.039	0.113
-460.070	-92.878	-0.191	-0.053
-459.055	7.674	0.380	-0.281
-458.040	-3.283	0.153	-0.105
-457.026	-26.965	-0.199	0.115
-456.011	79.687	-0.277	-0.293
-454.997	697.330	0.082	-0.213
-453.982	-93.385	0.422	-0.115
-452.968	-118.415	-0.200	-0.035
-451.953	-47.279	0.148	-0.071
-450.938	-103.457	-0.501	0.116
-449.924	-23.186	-0.320	-0.190
-448.909	-200.000	-0.026	-0.190
-447.895	45.825	0.131	-0.119
-446.880	-20.438	0.083	0.050
-445.865	800.000	-0.093	-0.255
-444.851	519.726	-0.088	-0.205
-443.836	161.383	-0.066	-0.091
-442.822	-200.000	-0.011	-0.124
-441.807	-95.110	-0.037	0.010
-440.792	-51.856	-0.366	-0.168
-439.778	20.222	-0.224	-0.179
-438.763	33.165	-0.138	-0.118
-437.749	-11.760	-0.139	-0.090
-436.734	800.000	-0.126	0.412
-435.719	54.318	-0.186	0.177
-434.705	800.000	-0.107	-0.308
-433.690	-46.891	0.265	-0.128
-432.676	-93.771	-0.316	0.086
-431.661	-200.000	-0.019	-0.219
-430.646	-37.122	0.140	-0.074
-429.632	487.076	0.118	0.266
-428.617	138.566	0.307	0.398
-427.603	-13.416	0.069	-0.044
-426.588	-25.909	-0.088	0.051
-425.573	-124.498	-0.114	0.017
-424.559	-71.145	-0.211	0.078
-423.544	-98.789	0.268	0.067
-422.530	581.769	-0.098	0.238
-421.515	151.811	-0.113	-0.152
-420.500	45.222	0.188	0.171
-419.486	-200.000	0.049	-0.308
-418.471	771.158	-0.107	-0.287
-417.457	23.905	0.038	-0.031
-416.442	-200.000	0.019	0.370
-415.428	-2.526	0.138	0.096
-414.413	145.079	-0.196	-0.259
-413.398	307.091	-0.208	-0.382
-412.384	-200.000	-0.006	-0.311
-411.369	41.185	0.115	-0.103
-410.355	94.723	-0.085	0.096
-409.340	-200.000	0.049	0.514
-408.325	57.596	0.112	0.108
-407.311	-33.540	-0.144	0.078
-406.296	800.000	0.038	0.158
-405.282	139.529	0.048	-0.062
-404.267	-200.000	0.009	0.061
-403.252	586.196	0.080	0.193
-402.238	55.235	0.330	0.314
-401.223	-69.308	0.608	0.230
-400.209	-113.950	0.163	0.031
-399.194	800.000	0.037	-0.114
-398.179	324.125	-0.132	-0.247
-397.165	40.060	-0.309	0.274
-396.150	209.473	0.042	0.064
-395.136	-200.000	-0.009	-0.137
-394.121	-200.000	-0.019	-0.175
-393.106	235.304	0.093	-0.152
-392.092	-200.000	-0.026	0.251
-391.077	800.000	0.055	-0.216
-390.063	414.507	-0.120	-0.251
-389.048	800.000	-0.047	0.131
-388.033	4.777	0.110	0.080
-387.019	99.164	-0.076	0.086
-386.004	-200.000	0.016	-0.285
-384.990	-142.631	0.136	-0.013
-383.975	800.000	-0.127	-0.516
-382.960	62.260	0.220	-0.216
-381.946	-200.000	0.005	-0.229
-380.931	-200.000	0.005	0.048
-379.917	800.000	0.080	0.314
-378.902	-156.236	-0.140	0.009
-377.888	-12.770	-0.224	0.144
-376.873	-96.655	0.135	-0.035
-375.858	-21.828	-0.136	-0.081
-374.844	26.883	-0.102	-0.085
-373.829	-82.101	0.189	-0.061
-372.815	345.661	-0.092	-0.178
-371.800	-28.476	-0.037	0.021
-370.785	426.930	-0.033	0.070
-369.771	800.000	-0.135	-0.389
-368.756	-121.927	0.355	-0.058
-367.742	-117.089	0.283	-0.051
-366.727	-104.994	0.304	0.069
-365.712	-126.374	-0.376	-0.055
-364.698	530.406	-0.207	0.482
-363.683	-200.000	-0.012	0.199
-362.669	-200.000	0.038	-0.259
-361.654	-51.669	0.218	-0.100
-360.639	800.000	-0.062	0.248
-359.625	116.407	0.102	0.123
-358.610	149.894	-0.110	0.147
-357.596	537.008	0.113	0.264
-356.581	296.738	0.120	0.216
-355.566	-143.123	-0.206	-0.020
-354.552	270.404	0.043	0.074
-353.537	522.012	0.046	-0.107
-352.523	800.000	0.085	0.263
-351.508	-118.477	0.168	0.029
-350.493	-165.258	-0.193	-0.008
-349.479	24.879	0.231	0.188
-348.464	20.502	-0.304	0.241
-347.450	-200.000	-0.020	0.170
-346.435	-37.067	0.290	0.153
-345.420	65.112	0.152	-0.151
-344.406	-87.295	-0.099	-0.029
-343.391	109.199	0.143	-0.169
-342.377	143.180	-0.173	-0.226
-341.362	800.000	-0.052	-0.162
-340.348	-40.128	-0.237	-0.121
-339.333	-150.091	-0.285	0.022
-338.318	544.237	0.079	0.184
-337.304	-200.000	-0.033	-0.182
-336.289	-192.330	-0.377	0.003
-335.275	-200.000	0.030	0.145
-334.260	285.427	0.068	-0.120
-333.245	800.000	0.088	0.321
-332.231	69.684	-0.202	-0.205
-331.216	-175.182	-0.598	0.016
-330.202	-200.000	-0.029	0.129
-329.187	405.999	0.261	0.540
-328.172	-134.934	0.259	0.031
-327.158	-200.000	0.005	-0.345
-326.143	-147.085	-0.183	0.015
-325.129	-111.053	-0.225	0.045
-324.114	615.544	-0.065	-0.161
-323.099	578.988	-0.157	0.378
-322.085	256.411	-0.121	0.203
-321.070	3.018	0.146	0.104
-320.056	69.580	0.171	0.173
-319.041	67.609	0.237	0.238
-318.026	53.246	0.162	-0.153
-317.012	800.000	0.038	0.111
-315.997	640.117	0.096	0.239
-314.983	-32.033	-0.144	0.079
-313.968	-2.134	-0.145	-0.100
-312.953	-200.000	0.004	-0.447
-311.939	1.142	-0.193	-0.136
-310.924	800.000	0.051	0.171
-309.910	106.228	-0.110	0.129
-308.895	800.000	-0.027	-0.078
-307.880	-17.308	-0.441	-0.273
-306.866	-85.805	0.166	-0.051
-305.851	176.645	0.170	0.243
-304.837	-65.260	0.032	0.013
-303.822	-67.472	0.181	0.070
-302.807	743.727	0.076	0.200
-301.793	-74.821	0.256	-0.090
-300.778	-104.820	-0.329	-0.074
-299.764	78.942	0.169	0.177
-298.749	-56.901	-0.264	0.114
-297.735	83.775	0.112	-0.120
-296.720	246.056	0.171	0.283
-295.705	45.652	0.048	0.044
-294.691	-200.000	0.044	0.268
-293.676	564.375	0.068	0.162
-292.662	-38.039	-0.061	-0.032
-291.647	88.581	-0.243	-0.265
-290.632	-200.000	0.004	-0.020
-289.618	-143.476	0.246	-0.023
-288.603	4.438	0.109	-0.079
-287.589	52.548	0.224	0.210
-286.574	506.711	-0.080	0.182
-285.559	-200.000	0.053	-0.306
-284.545	-200.000	0.016	-0.182
-283.530	-98.679	0.370	-0.092
-282.516	185.412	-0.191	0.278
-281.501	567.127	-0.061	0.146
-280.486	52.258	-0.079	0.074
-279.472	95.555	0.056	-0.062
-278.457	-85.840	-0.313	0.095
-277.443	-185.559	0.114	-0.002
-276.428	145.873	-0.210	0.276
-275.413	16.148	-0.040	0.031
-274.399	-21.570	0.106	0.063
-273.384	96.937	0.180	-0.202
-272.370	-143.336	-0.266	-0.025
-271.355	41.645	0.144	-0.128
-270.340	-30.945	-0.257	-0.142
-269.326	-89.488	0.164	0.047
-268.311	-123.145	-0.074	-0.012
-267.297	800.000	-0.091	0.251
-266.282	-5.562	-0.228	0.153
-265.267	800.000	-0.104	-0.387
-264.253	-82.163	-0.269	0.086
-263.238	-25.113	0.238	0.138
-262.224	-59.118	-0.068	-0.029
-261.209	-150.754	-0.204	-0.015
-260.195	-200.000	0.017	-0.077
-259.180	679.708	0.041	-0.105
-258.165	-200.000	-0.002	-0.133
-257.151	-200.000	0.010	0.135
-256.136	-109.244	0.276	0.057
-255.122	800.000	0.110	-0.298
-254.107	-200.000	-0.062	-0.303
-253.092	73.306	0.187	-0.192
-252.078	800.000	-0.031	0.089
-251.063	443.097	0.079	0.171
-250.049	509.251	0.071	-0.162
-249.034	405.668	0.151	-0.312
-248.019	-5.230	0.223	-0.150
-247.005	-53.721	-0.411	-0.184
-245.990	8.523	0.441	-0.325
-244.976	56.511	0.161	0.153
-243.961	547.188	-0.113	0.264
-242.946	800.000	0.023	-0.076
-241.932	519.914	-0.106	0.243
-240.917	-170.450	-0.415	0.014
-239.903	45.024	0.236	-0.213
-238.888	800.000	-0.059	0.194
-237.873	82.779	0.209	0.222
-236.859	-92.961	-0.302	-0.082
-235.844	-200.000	-0.028	-0.257
-234.830	135.455	-0.031	-0.039
-233.815	-182.589	0.154	-0.003
-232.800	-200.000	-0.013	0.088
-231.786	224.264	-0.024	0.037
-230.771	330.383	0.084	-0.159
-229.757	138.175	0.219	0.281
-228.742	3.527	-0.074	0.053
-227.727	800.000	0.081	-0.270
-226.713	11.201	-0.116	-0.087
-225.698	-158.272	0.204	-0.012
-224.684	621.949	0.083	-0.203
-223.669	-39.210	-0.280	-0.144
-222.655	-200.000	-0.033	0.514
-221.640	513.017	-0.107	-0.243
-220.625	800.000	-0.043	-0.135
-219.611	395.254	0.195	0.397
-218.596	-200.000	-0.004	-0.097
-217.582	72.768	-0.080	0.082
-216.567	-157.083	-0.093	-0.006
-215.552	138.129	0.253	-0.324
-214.538	129.038	0.112	0.139
-213.523	323.979	-0.071	0.133
-212.509	-124.436	0.256	0.039
-211.494	267.295	-0.037	0.064
-210.479	54.403	-0.276	-0.260
-209.465	-100.701	-0.340	-0.082
-208.450	308.150	-0.135	-0.246
-207.436	-200.000	0.069	0.352
-206.421	-200.000	-0.308	0.001
-205.406	-70.979	0.145	-0.053
-204.392	261.425	0.204	0.346
-203.377	-17.187	0.155	-0.096
-202.363	-200.000	0.062	0.352
-201.348	800.000	0.065	0.249
-200.333	-122.443	0.391	-0.062
-199.319	187.879	-0.097	0.142
-198.304	800.000	0.114	-0.351
-197.290	105.924	0.117	-0.135
-196.275	-18.460	0.442	-0.270
-195.260	13.015	-0.134	0.102
-194.246	-200.000	0.001	0.049
-193.231	236.193	0.128	-0.208
-192.217	68.423	-0.118	0.118
-191.202	147.319	0.106	-0.139
-190.187	80.092	-0.112	-0.117
-189.173	106.246	-0.200	-0.232
-188.158	-36.914	-0.138	-0.072
-187.144	136.742	0.303	-0.387
-186.129	125.051	0.083	0.102
-185.114	145.876	-0.162	-0.212
-184.100	-114.083	-0.083	0.016
-183.085	-29.381	-0.060	0.034
-182.071	-200.000	0.006	0.111
-181.056	446.963	0.118	0.253
-180.042	-17.496	0.162	-0.100
-179.027	331.226	-0.165	0.310
-178.012	-200.000	-0.067	-0.394
-176.998	-96.119	-0.134	-0.035
-175.983	83.831	0.211	0.224
-174.969	52.857	-0.105	0.098
-173.954	17.593	-0.077	0.060
-172.939	403.402	0.038	0.079
-171.925	39.799	0.035	0.031
-170.910	130.719	0.241	-0.302
-169.896	-94.696	-0.202	0.054
-168.881	232.745	-0.041	-0.066
-167.866	-24.141	0.203	-0.119
-166.852	97.046	-0.166	-0.185
-165.837	352.738	0.143	0.277
-164.823	-200.000	-0.045	-0.208
-163.808	354.252	0.048	0.092
-162.793	302.121	-0.050	-0.090
-161.779	-45.801	0.360	0.174
-160.764	-76.650	0.240	-0.082
-159.750	-200.000	0.021	0.099
-158.735	88.187	-0.099	0.107
-157.720	-200.000	0.001	-0.024
-156.706	329.883	-0.110	-0.207
-155.691	-58.821	-0.157	0.066
-154.677	165.793	-0.115	0.159
-153.662	-40.853	-0.074	0.037
-152.647	417.280	0.027	0.056
-151.633	42.562	-0.248	-0.220
-150.618	583.575	-0.141	0.338
-149.604	-200.000	-0.017	-0.260
-148.589	43.549	0.303	-0.270
-147.574	-200.000	-0.048	0.212
-146.560	63.446	0.116	-0.113
-145.545	-101.522	0.248	0.059
-144.531	247.516	-0.099	-0.164
-143.516	183.017	-0.243	0.350
-142.502	-133.623	-0.133	0.016
-141.487	49.060	0.088	0.080
-140.472	2.738	0.319	0.226
-139.458	-200.000	0.080	0.409
-138.443	50.063	0.324	-0.299
-137.429	4.883	-0.112	-0.080
-136.414	-105.419	0.206	0.046
-135.399	800.000	0.094	0.299
-134.385	800.000	0.055	0.221
-133.370	-200.000	-0.041	0.198
-132.356	-200.000	0.048	-0.270
-131.341	-200.000	-0.002	-0.080
-130.326	-40.372	0.207	-0.105
-129.312	9.344	-0.237	-0.175
-128.297	-200.000	0.008	-0.046
-127.283	195.153	-0.100	0.148
-126.268	-200.000	-0.017	-0.089
-125.253	-7.903	0.181	0.119
-124.239	58.085	0.048	-0.046
-123.224	142.365	0.046	-0.059
-122.210	-179.131	-0.201	-0.004
-121.195	-59.323	-0.175	0.073
-120.180	800.000	0.078	0.214
-119.166	225.608	-0.148	-0.234
-118.151	227.872	0.260	-0.413
-117.137	-106.563	0.147	0.032
-116.122	-106.149	0.231	0.051
-115.107	-200.000	0.039	0.189
-114.093	-76.953	-0.244	-0.083
-113.078	246.852	0.137	0.225
-112.064	-200.000	-0.034	-0.269
-111.049	254.387	0.021	0.034
-110.034	670.371	-0.143	-0.361
-109.020	-200.000	0.009	-0.181
-108.005	44.607	0.088	0.078
-106.991	-200.000	0.008	0.069
-105.976	-141.756	-0.094	-0.009
-104.962	-200.000	-0.064	-0.283
-103.947	-200.000	0.011	-0.224
-102.932	65.378	-0.332	-0.327
-101.918	90.801	0.116	0.126
-100.903	-200.000	0.016	-0.090
-99.889	7.457	0.090	0.066
-98.874	-0.932	0.310	-0.214
-97.859	-6.885	-0.027	0.018
-96.845	-92.623	0.113	0.031
-95.830	646.634	-0.060	0.148
-94.816	-138.504	-0.239	-0.026
-93.801	800.000	-0.112	-0.398
-92.786	-200.000	0.034	0.146
-91.772	162.499	-0.008	-0.010
-90.757	457.311	0.023	0.051
-89.743	800.000	0.101	0.283
-88.728	800.000	-0.042	0.148
-87.713	-54.563	0.379	-0.167
-86.699	800.000	-0.049	-0.202
-85.684	2.789	-0.417	-0.294
-84.670	66.317	-0.191	0.189
-83.655	-111.902	0.112	-0.022
-82.640	58.805	-0.179	0.171
-81.626	66.589	0.108	-0.107
-80.611	-200.000	0.086	0.412
-79.597	5.784	-0.078	-0.056
-78.582	-200.000	0.021	0.156
-77.567	212.569	-0.197	0.303
-76.553	-200.000	0.038	0.275
-75.538	-200.000	0.024	-0.128
-74.524	-200.000	-0.002	0.168
-73.509	-115.486	0.166	0.030
-72.494	-180.526	-0.115	0.002
-71.480	13.303	0.314	0.236
-70.465	240.269	0.179	0.290
-69.451	-200.000	0.037	0.487
-68.436	-146.523	-0.292	0.025
-67.422	19.162	0.102	-0.080
-66.407	301.234	0.005	0.010
-65.392	-200.000	0.059	-0.367
-64.378	-200.000	-0.011	-0.061
-63.363	-53.942	0.110	0.049
-62.349	33.193	0.163	0.138
-61.334	31.806	-1.080	-0.904
-60.319	-5.368	0.715	0.478
-59.305	800.000	-0.312	-0.980
-58.290	422.990	0.727	1.519
-57.276	351.192	0.895	1.723
-56.261	-200.000	121.167	647.429
-55.246	438.307	1537.987	3261.730
-54.232	148.048	2697.374	3537.352
-53.217	93.260	2276.823	2503.473
-52.203	33.311	1893.100	1597.050
-51.188	27.380	1690.210	1380.985
-50.173	25.083	1651.898	1332.579
-49.159	46.373	1719.216	1549.420
-48.144	44.445	1730.896	1545.249
-47.130	26.883	1683.016	1371.135
-46.115	24.319	1668.160	1339.746
-45.100	24.169	1662.561	1334.072
-44.086	24.057	1660.950	1331.889
-43.071	24.076	1658.179	1329.757
-42.057	24.072	1655.608	1327.611
-41.042	24.214	1653.142	1326.639
-40.027	24.036	1651.926	1324.282
-39.013	24.060	1650.253	1323.067
-37.998	24.069	1648.170	1321.413
-36.984	24.093	1646.807	1320.445
-35.969	24.207	1645.745	1320.389
-34.954	24.234	1644.403	1319.461
-33.940	24.203	1642.732	1317.832
-32.925	24.194	1641.026	1316.345
-31.911	24.188	1639.439	1314.975
-30.896	24.222	1637.493	1313.613
-29.881	24.270	1636.017	1312.732
-28.867	24.273	1634.237	1311.276
-27.852	24.241	1632.651	1309.719
-26.838	24.301	1631.596	1309.256
-25.823	24.262	1630.139	1307.747
-24.809	24.292	1629.300	1307.245
-23.794	24.253	1627.387	1305.370
-22.779	24.362	1625.741	1304.795
-21.765	24.240	1624.247	1302.658
-20.750	24.256	1622.567	1301.374
-19.736	24.317	1621.564	1300.958
-18.721	24.364	1619.991	1299.995
-17.706	24.202	1618.963	1297.932
-16.692	24.330	1617.018	1297.254
-15.677	24.211	1615.817	1295.378
-14.663	24.289	1614.526	1294.858
-13.648	24.335	1613.175	1294.053
-12.633	24.285	1611.442	1292.247
-11.619	24.316	1609.641	1290.983
-10.604	24.397	1607.872	1290.098
-9.590	24.359	1607.143	1289.183
-8.575	24.258	1606.231	1287.672
-7.560	24.344	1604.670	1286.987
-6.546	24.273	1603.930	1285.832
-5.531	24.247	1603.016	1284.864
-4.517	24.289	1601.113	1283.587
-3.502	24.332	1600.304	1283.195
-2.487	24.395	1598.753	1282.355
-1.473	23.893	1586.548	1268.934
-0.458	20.883	1566.856	1231.887
0.556	16.470	1567.981	1200.605
1.571	14.163	1591.507	1201.861
2.586	13.835	1603.523	1208.445
3.600	12.910	1550.006	1161.492
4.615	7.464	1443.596	1045.851
5.629	2.050	1383.889	968.234
6.644	0.916	1377.503	956.517
7.659	0.793	1376.547	954.988
8.673	0.762	1375.553	954.017
9.688	0.720	1373.671	952.364
10.702	0.704	1369.392	949.215
11.717	3.329	1373.965	968.825
12.731	10.242	1384.261	1019.680
13.746	15.934	1391.607	1060.956
14.761	17.461	1393.329	1071.796
15.775	16.824	1391.473	1066.270
16.790	15.798	1388.980	1057.817
17.804	15.052	1386.774	1051.360
18.819	14.681	1385.443	1047.931
19.834	14.441	1383.948	1045.200
20.848	14.221	1382.446	1042.596
21.863	13.896	1381.529	1039.778
22.877	13.802	1380.297	1038.167
23.892	13.664	1379.479	1036.598
24.907	13.700	1378.571	1036.051
25.921	13.695	1377.942	1035.454
26.936	13.843	1376.774	1035.405
27.950	13.763	1375.948	1034.199
28.965	13.801	1375.128	1033.723
29.980	13.935	1373.797	1033.465
30.994	13.917	1372.781	1032.501
32.009	13.941	1371.984	1031.956
33.023	13.918	1370.810	1030.840
34.038	13.933	1369.462	1029.828
35.053	13.878	1368.466	1028.648
36.067	13.978	1367.043	1028.105
37.082	13.926	1366.249	1027.095
38.096	13.919	1365.439	1026.352
39.111	13.931	1364.649	1025.740
40.126	13.831	1363.744	1024.352
41.140	13.775	1363.096	1023.434
42.155	13.865	1362.068	1023.122
43.169	13.667	1362.338	1022.014
44.184	13.691	1361.820	1021.687
45.199	13.674	1361.380	1021.157
46.213	13.793	1360.926	1021.460
47.228	13.757	1359.839	1020.333
48.242	13.864	1358.317	1019.760
49.257	13.756	1357.218	1018.179
50.271	13.712	1356.049	1016.946
51.286	13.740	1354.386	1015.780
52.301	13.752	1353.326	1014.967
53.315	13.692	1352.440	1013.848
54.330	13.835	1351.356	1013.817
55.344	13.772	1350.121	1012.414
56.359	13.705	1348.912	1011.009
57.374	13.695	1347.873	1010.080
58.388	13.698	1347.687	1009.871
59.403	13.706	1346.775	1009.148
60.417	13.680	1345.997	1008.317
61.432	13.694	1345.050	1007.603
62.447	13.556	1343.924	1005.830
63.461	13.666	1342.749	1005.534
64.476	13.615	1341.919	1004.510
65.490	13.582	1340.654	1003.274
66.505	13.781	1338.733	1002.952
67.520	13.780	1337.379	1001.842
68.534	13.715	1337.060	1001.122
69.549	13.637	1336.232	999.947
70.563	13.693	1334.496	998.894
71.578	13.712	1333.093	997.869
72.593	13.639	1332.371	996.803
73.607	13.634	1331.617	996.121
74.622	13.656	1330.934	995.655
75.636	13.551	1330.485	994.598
76.651	13.567	1329.375	993.779
77.666	13.645	1328.775	993.706
78.680	13.522	1328.581	992.737
79.695	13.616	1327.766	992.601
80.709	13.672	1326.864	992.180
81.724	13.721	1325.768	991.561
82.739	13.702	1324.717	990.577
83.753	13.730	1323.726	989.916
84.768	13.789	1322.851	989.522
85.782	13.814	1321.502	988.579
86.797	13.872	1320.140	987.815
87.812	13.643	1319.346	985.775
88.826	13.731	1318.122	985.294
89.841	13.761	1317.082	984.604
90.855	13.748	1316.516	984.018
91.870	13.799	1315.374	983.378
92.884	13.898	1313.983	982.840
93.899	13.870	1313.622	982.319
94.914	13.978	1312.752	982.216
95.928	13.940	1311.968	981.320
96.943	13.909	1311.101	980.401
97.957	13.851	1310.086	979.214
98.972	13.902	1308.926	978.562
99.987	13.941	1307.559	977.682
101.001	13.839	1307.032	976.604
102.016	13.899	1305.591	975.792
103.030	13.853	1305.150	975.106
104.045	13.923	1304.222	974.734
105.060	13.857	1302.923	973.290
106.074	13.836	1301.626	972.112
107.089	13.770	1300.170	970.555
108.103	13.752	1299.353	969.753
109.118	13.760	1297.811	968.565
110.133	13.762	1296.314	967.371
111.147	13.754	1295.229	966.432
112.162	13.737	1294.043	965.362
113.176	13.822	1293.211	965.152
114.191	13.776	1291.980	963.876
115.206	13.819	1290.962	963.282
116.220	13.819	1289.556	962.151
117.235	13.817	1288.376	961.170
118.249	13.786	1287.396	960.179
119.264	13.728	1286.533	959.111
120.279	13.798	1285.375	958.571
121.293	13.742	1284.440	957.465
122.308	13.703	1283.546	956.485
123.322	13.772	1282.076	955.706
124.337	13.920	1281.328	955.914
125.352	13.858	1279.942	954.437
126.366	13.768	1279.178	953.265
127.381	13.773	1277.884	952.246
128.395	13.798	1276.630	951.370
129.410	13.756	1275.834	950.455
130.424	13.756	1275.037	949.775
131.439	13.810	1273.645	948.964
132.454	13.802	1272.875	948.259
133.468	13.792	1272.056	947.510
134.483	13.751	1271.042	946.436
135.497	13.752	1270.226	945.749
136.512	13.790	1268.518	944.615
137.527	13.702	1267.866	943.542
138.541	13.799	1266.114	942.709
139.556	13.752	1265.027	941.546
140.570	13.799	1263.816	940.826
141.585	13.918	1262.722	940.606
142.600	13.979	1261.245	939.767
143.614	13.997	1260.455	939.195
144.629	13.947	1259.471	938.101
145.643	14.000	1258.304	937.446
146.658	13.923	1257.085	936.022
147.673	13.887	1255.634	934.656
148.687	13.942	1254.647	934.147
149.702	13.825	1253.545	932.586
150.716	13.834	1252.189	931.543
151.731	13.982	1251.116	931.495
152.746	13.893	1250.148	930.189
153.760	14.002	1248.866	929.765
154.775	14.052	1247.494	928.939
155.789	14.053	1246.663	928.249
156.804	14.051	1245.184	927.052
157.819	14.173	1244.301	926.990
158.833	14.172	1243.385	926.221
159.848	14.054	1242.586	924.888
160.862	14.071	1241.550	924.130
161.877	14.111	1240.273	923.323
162.892	14.047	1239.177	922.067
163.906	14.105	1237.964	921.402
164.921	14.050	1237.513	920.682
165.935	14.098	1236.119	919.832
166.950	14.040	1235.969	919.314
167.964	14.230	1234.304	919.044
168.979	14.052	1234.355	918.016
169.994	14.121	1233.663	917.804
171.008	14.217	1232.514	917.398
172.023	14.331	1231.590	917.258
173.037	14.146	1231.251	915.901
174.052	14.191	1230.370	915.417
175.067	14.255	1228.967	914.643
176.081	14.138	1228.390	913.488
177.096	14.020	1227.572	912.153
178.110	14.191	1226.098	911.915
179.125	14.197	1224.719	910.838
180.140	14.300	1223.225	910.209
181.154	14.224	1222.417	909.114
182.169	14.267	1221.406	908.514
183.183	14.324	1220.235	907.876
184.198	14.289	1218.888	906.603
185.213	14.336	1217.911	906.050
186.227	14.319	1217.320	905.440
187.242	14.410	1215.678	904.631
188.256	14.442	1214.634	903.951
189.271	14.418	1213.571	902.946
190.286	14.283	1212.901	901.639
191.300	14.306	1212.060	901.058
192.315	14.243	1211.152	899.962
193.329	14.197	1211.181	899.654
194.344	14.291	1210.015	899.219
195.359	14.421	1209.145	899.194
196.373	14.461	1208.701	899.001
197.388	14.474	1208.316	898.702
198.402	14.509	1207.643	898.315
199.417	14.522	1206.814	897.684
200.432	14.638	1206.011	897.635
201.446	14.656	1205.091	896.967
202.461	14.621	1204.515	896.268
203.475	14.609	1203.679	895.504
204.490	14.602	1202.107	894.220
205.504	14.629	1200.716	893.247
206.519	14.658	1199.722	892.586
207.534	14.628	1198.575	891.490
208.548	14.583	1197.964	890.717
209.563	14.598	1196.854	889.893
210.577	14.775	1195.815	889.987
211.592	14.687	1195.281	889.039
212.607	14.701	1194.557	888.498
213.621	14.794	1193.354	888.017
214.636	14.693	1192.701	886.917
215.650	14.757	1191.548	886.321
216.665	14.839	1190.712	886.060
217.680	14.824	1189.831	885.246
218.694	14.865	1188.975	884.745
219.709	14.876	1188.111	884.082
220.723	14.874	1187.103	883.241
221.738	14.884	1186.613	882.855
222.753	14.853	1186.016	882.167
223.767	14.906	1185.213	881.773
224.782	15.019	1184.404	881.685
225.796	14.954	1184.141	881.073
226.811	15.108	1183.247	881.137
227.826	14.935	1182.582	879.654
228.840	14.931	1182.060	879.168
229.855	14.929	1181.124	878.383
230.869	14.860	1180.479	877.466
231.884	14.929	1179.758	877.210
232.899	15.000	1178.753	876.759
233.913	14.899	1178.258	875.787
234.928	14.885	1177.386	874.988
235.942	14.986	1176.684	874.917
236.957	14.988	1175.700	874.116
237.972	14.985	1175.191	873.643
238.986	15.006	1174.387	873.079
240.001	14.998	1173.614	872.386
241.015	14.963	1173.088	871.733
242.030	14.969	1171.973	870.862
243.045	15.078	1171.251	870.815
244.059	15.086	1170.334	870.098
245.074	15.084	1169.554	869.430
246.088	15.173	1168.727	869.203
247.103	15.274	1167.779	868.941
248.117	15.200	1167.172	868.031
249.132	15.191	1166.576	867.461
250.147	15.313	1165.908	867.519
251.161	15.292	1165.157	866.779
252.176	15.386	1163.950	866.285
253.190	15.394	1163.650	866.030
254.205	15.353	1163.363	865.529
255.220	15.405	1162.494	865.072
256.234	15.397	1162.153	864.699
257.249	15.492	1161.159	864.376
258.263	15.516	1160.332	863.805
259.278	15.459	1159.992	863.180
260.293	15.514	1159.133	862.750
261.307	15.536	1158.788	862.531
262.322	15.585	1158.007	862.123
263.336	15.547	1157.647	861.582
264.351	15.559	1156.996	861.084
265.366	15.553	1156.328	860.480
266.380	15.565	1155.484	859.839
267.395	15.691	1154.606	859.753
268.409	15.647	1153.859	858.896
269.424	15.649	1153.293	858.409
270.439	15.657	1152.653	857.898
271.453	15.667	1152.024	857.406
272.468	15.589	1150.928	856.116
273.482	15.579	1150.236	855.476
274.497	15.716	1149.709	855.700
275.512	15.630	1149.113	854.744
276.526	15.659	1148.272	854.192
277.541	15.759	1147.649	854.161
278.555	15.816	1146.174	853.279
279.570	15.778	1145.824	852.747
280.585	15.806	1145.174	852.330
281.599	15.844	1144.419	851.886
282.614	15.838	1143.347	850.983
283.628	15.827	1142.289	850.064
284.643	16.002	1141.092	849.981
285.657	15.930	1140.372	849.005
286.672	15.928	1139.461	848.240
287.687	15.842	1138.419	846.958
288.701	15.886	1138.062	846.841
289.716	15.984	1137.021	846.481
290.730	15.949	1136.392	845.765
291.745	15.972	1135.696	845.284
292.760	15.895	1135.567	844.730
293.774	16.055	1134.567	844.712
294.789	16.038	1134.137	844.232
295.803	15.980	1133.419	843.335
296.818	16.042	1132.485	842.875
297.833	16.015	1131.994	842.299
298.847	15.982	1130.800	841.169
299.862	16.077	1130.384	841.262
300.876	16.140	1129.665	840.964
301.891	16.132	1128.889	840.275
302.906	16.153	1127.916	839.582
303.920	16.110	1127.531	839.004
304.935	16.204	1126.741	838.810
305.949	16.253	1126.037	838.457
306.964	16.280	1125.470	838.094
307.979	16.416	1124.356	837.864
308.993	16.277	1124.072	836.887
310.008	16.319	1123.304	836.449
311.022	16.384	1121.830	835.602
312.037	16.327	1121.400	834.924
313.052	16.161	1120.861	833.629
314.066	16.211	1119.860	833.055
315.081	16.214	1119.004	832.361
316.095	16.167	1118.401	831.610
317.110	16.386	1117.335	831.818
318.125	16.287	1116.801	830.862
319.139	16.314	1116.153	830.439
320.154	16.272	1115.413	829.609
321.168	16.314	1115.046	829.468
322.183	16.267	1114.444	828.718
323.197	16.277	1113.745	828.171
324.212	16.335	1112.981	827.815
325.227	16.449	1112.453	827.909
326.241	16.337	1111.738	826.752
327.256	16.438	1110.973	826.605
328.270	16.409	1109.782	825.507
329.285	16.237	1109.593	824.450
330.300	16.509	1108.208	824.676
331.314	16.503	1107.098	823.748
332.329	16.405	1106.012	822.392
333.343	16.367	1105.454	821.719
334.358	16.449	1104.745	821.519
335.373	16.465	1103.977	820.952
336.387	16.474	1103.320	820.431
337.402	16.522	1102.133	819.711
338.416	16.617	1101.744	819.808
339.431	16.571	1101.264	819.157
340.446	16.623	1100.429	818.716
341.460	16.724	1099.864	818.711
342.475	16.693	1098.710	817.627
343.489	16.566	1098.305	816.642
344.504	16.753	1096.879	816.409
345.519	16.753	1096.297	815.906
346.533	16.808	1095.659	815.624
347.548	16.732	1094.549	814.358
348.562	16.888	1093.661	814.378
349.577	16.782	1093.326	813.547
350.592	16.725	1092.900	812.884
351.606	16.758	1091.763	812.126
352.621	16.728	1091.180	811.475
353.635	16.718	1090.672	810.976
354.650	16.774	1089.678	810.435
355.665	16.735	1089.260	809.865
356.679	16.985	1088.010	810.058
357.694	16.897	1087.411	809.122
358.708	16.867	1087.120	808.689
359.723	16.981	1086.234	808.504
360.738	16.924	1085.876	807.892
361.752	16.908	1085.082	807.152
362.767	16.903	1084.510	806.634
363.781	16.901	1084.146	806.281
364.796	17.007	1083.203	806.012
365.810	17.076	1082.664	805.866
366.825	17.115	1082.555	805.901
367.840	17.128	1081.754	805.294
368.854	17.072	1081.157	804.514
369.869	17.269	1080.160	804.635
370.883	17.169	1079.325	803.468
371.898	17.154	1078.569	802.763
372.913	17.195	1077.880	802.371
373.927	17.050	1077.871	801.610
374.942	17.146	1077.356	801.609
375.956	17.222	1076.486	801.251
376.971	17.372	1075.730	801.320
377.986	17.305	1075.416	800.700
379.000	17.242	1074.973	800.002
380.015	17.320	1074.569	800.001
381.029	17.296	1073.713	799.177
382.044	17.413	1072.563	798.801
383.059	17.501	1071.741	798.531
384.073	17.546	1070.787	797.963
385.088	17.524	1070.166	797.323
386.102	17.365	1069.411	795.945
387.117	17.350	1068.274	794.962
388.132	17.469	1067.649	794.982
389.146	17.428	1066.887	794.150
390.161	17.461	1066.232	793.745
391.175	17.411	1065.592	792.967
392.190	17.477	1064.957	792.732
393.205	17.514	1063.844	792.007
394.219	17.428	1063.611	791.365
395.234	17.495	1062.367	790.681
396.248	17.537	1061.328	790.031
397.263	17.474	1060.425	788.994
398.278	17.598	1059.517	788.823
399.292	17.486	1059.089	787.920
400.307	17.407	1058.667	787.168
401.321	17.497	1057.486	786.636
402.336	17.436	1057.328	786.166
403.350	17.519	1056.525	785.885
404.365	17.603	1055.624	785.534
405.380	17.599	1054.801	784.831
406.394	17.679	1054.065	784.582
407.409	17.730	1053.473	784.307
408.423	17.678	1052.705	783.428
409.438	17.795	1051.809	783.229
410.453	17.682	1051.581	782.469
411.467	17.864	1050.328	782.302
412.482	17.887	1049.853	781.986
413.496	17.745	1049.369	780.904
414.511	17.938	1048.409	781.007
415.526	17.851	1048.316	780.470
416.540	17.985	1047.748	780.588
417.555	17.905	1047.238	779.776
418.569	17.799	1046.620	778.761
419.584	17.984	1046.455	779.414
420.599	18.005	1045.809	778.961
421.613	109.948	1328.923	1489.927
422.628	101.170	1370.113	1490.016
