DTS Sentinel unit serial number:	SN413079Multiplexer serial number:	ORYXHardware model number:	OX4-SRSoftware version number:	ORYX F/W v4.00 Oryx Data Collector v3.7.2.0data status	okinstallation	princeton_trtdifferential loss correction	single-endedforward channel	channel 2reverse channel	N/Adate	2019/09/14time	11:35:35forward acquisition time	60.00reverse acquisition time	0.00gamma	496.2192k internal	0.2311k external	0.2311temperature offset calibration	1.0154default loss term (dB/km)	0.3790temperature slope calibration	1.0000multiplexer offset coefficient	1.0000multiplexer slope coefficient	1.0000fibre end	0.00T internal ref (°C)	36.81T ext. ref 1 (°C)	4.56T ext. ref 2 (°C)	33.05length (m)	temperature (°C)	Stokes	anti-Stokes-747.200	111.342	-0.127	0.156
-746.185	-137.426	-0.336	0.039
-745.171	-103.297	0.206	0.049
-744.156	800.000	0.040	0.148
-743.142	135.554	-0.196	-0.260
-742.127	800.000	-0.170	0.493
-741.112	-47.649	-0.152	0.075
-740.098	-200.000	-0.017	0.231
-739.083	81.606	0.060	-0.066
-738.069	-51.835	-0.405	0.191
-737.054	800.000	0.077	-0.289
-736.039	-111.970	-0.326	-0.067
-735.025	-28.535	0.242	-0.142
-734.010	674.156	-0.116	0.305
-732.996	800.000	-0.051	0.219
-731.981	771.932	0.082	0.227
-730.966	262.510	-0.128	-0.225
-729.952	136.967	0.070	-0.092
-728.937	148.009	-0.042	0.057
-727.923	94.994	-0.155	-0.179
-726.908	287.861	-0.163	0.300
-725.894	-36.082	-0.299	-0.164
-724.879	-109.357	-0.202	0.043
-723.864	800.000	0.075	-0.238
-722.850	138.848	-0.187	-0.250
-721.835	29.988	-0.186	-0.161
-720.821	-107.809	0.089	-0.020
-719.806	361.954	-0.084	0.172
-718.791	270.986	-0.133	-0.237
-717.777	-115.975	-0.233	-0.044
-716.762	-11.640	0.173	-0.115
-715.748	-115.054	0.203	-0.039
-714.733	800.000	-0.033	-0.141
-713.718	325.087	-0.111	-0.216
-712.704	245.013	0.063	0.107
-711.689	-21.911	-0.143	-0.088
-710.675	155.874	-0.079	-0.111
-709.660	236.408	-0.150	-0.252
-708.645	-126.930	0.329	-0.049
-707.631	800.000	-0.061	-0.243
-706.616	800.000	-0.068	0.252
-705.602	231.316	0.070	-0.116
-704.587	96.463	0.063	-0.073
-703.572	-200.000	-0.012	-0.061
-702.558	109.388	-0.162	-0.197
-701.543	-67.074	-0.251	-0.100
-700.529	-132.687	0.098	0.013
-699.514	41.885	-0.240	0.221
-698.499	210.222	-0.173	-0.275
-697.485	-101.706	-0.446	0.110
-696.470	-48.649	-0.360	0.175
-695.456	-112.672	-0.171	-0.034
-694.441	-86.699	0.110	-0.034
-693.426	109.784	0.264	0.321
-692.412	20.407	0.228	-0.187
-691.397	425.055	-0.044	0.096
-690.383	-200.000	0.019	0.087
-689.368	-81.419	-0.285	-0.095
-688.354	-51.993	-0.300	-0.141
-687.339	6.382	-0.169	-0.127
-686.324	249.105	-0.191	0.329
-685.310	20.641	-0.452	-0.371
-684.295	85.913	0.120	0.133
-683.281	333.597	-0.177	-0.347
-682.266	-200.000	0.026	-0.207
-681.251	5.318	-0.235	0.176
-680.237	85.252	-0.275	0.305
-679.222	94.204	-0.252	-0.290
-678.208	-102.634	0.185	-0.045
-677.193	-66.938	0.156	-0.062
-676.178	30.634	0.031	0.027
-675.164	-118.391	-0.244	-0.044
-674.149	800.000	0.065	0.251
-673.135	-123.331	0.106	0.017
-672.120	56.546	-0.160	-0.157
-671.105	-59.705	-0.066	-0.029
-670.091	-37.981	-0.073	-0.039
-669.076	59.916	0.338	-0.338
-668.062	14.476	0.146	-0.115
-667.047	-200.000	0.030	0.161
-666.032	-200.000	-0.026	0.123
-665.018	-70.497	-0.261	0.100
-664.003	-158.723	-0.176	0.010
-662.989	122.737	-0.182	0.230
-661.974	-200.000	0.024	-0.175
-660.959	-127.731	-0.251	0.037
-659.945	-3.945	-0.240	0.169
-658.930	31.385	0.025	-0.022
-657.916	-73.347	0.117	0.043
-656.901	-116.769	0.297	0.055
-655.886	-200.000	0.008	0.169
-654.872	334.986	-0.199	-0.390
-653.857	41.601	0.342	0.313
-652.843	-200.000	0.074	-0.365
-651.828	102.233	-0.216	0.256
-650.814	800.000	0.058	-0.255
-649.799	-92.724	0.157	-0.044
-648.784	-86.062	-0.178	0.056
-647.770	-77.442	-0.202	0.071
-646.755	-200.000	0.002	0.286
-645.741	-200.000	-0.040	-0.231
-644.726	-94.751	-0.168	-0.046
-643.711	8.859	-0.322	0.245
-642.697	109.916	0.117	-0.142
-641.682	-171.850	0.141	-0.005
-640.668	-200.000	0.004	0.078
-639.653	800.000	0.099	0.336
-638.638	-82.242	-0.075	0.025
-637.624	-80.063	0.320	-0.109
-636.609	27.110	-0.215	0.182
-635.595	107.475	-0.104	-0.125
-634.580	-200.000	-0.058	-0.278
-633.565	-157.428	-0.339	0.021
-632.551	439.413	-0.047	-0.103
-631.536	-45.405	-0.289	-0.145
-630.522	-4.770	0.050	-0.035
-629.507	800.000	0.072	-0.266
-628.492	562.550	-0.170	-0.417
-627.478	-200.000	0.014	0.170
-626.463	-128.475	-0.134	-0.019
-625.449	-168.835	0.142	-0.005
-624.434	113.082	-0.040	0.049
-623.419	-199.953	-0.611	0.003
-622.405	-200.000	0.002	0.046
-621.390	-28.482	0.272	0.159
-620.376	-82.079	0.126	0.042
-619.361	-65.396	0.163	-0.066
-618.346	-200.000	0.012	0.055
-617.332	46.027	0.151	0.141
-616.317	-71.981	-0.245	0.092
-615.303	205.388	0.091	0.143
-614.288	232.221	0.161	-0.267
-613.273	-200.000	0.085	0.397
-612.259	-12.798	0.112	0.074
-611.244	75.888	-0.196	-0.209
-610.230	-200.000	0.050	0.321
-609.215	68.964	-0.076	0.079
-608.201	800.000	-0.049	-0.161
-607.186	800.000	-0.131	0.447
-606.171	2.744	-0.108	-0.079
-605.157	21.671	-0.131	0.108
-604.142	-200.000	0.001	-0.096
-603.128	40.175	-0.299	-0.271
-602.113	206.492	0.066	0.104
-601.098	-166.533	0.080	0.003
-600.084	-78.624	0.206	0.071
-599.069	259.059	0.090	0.157
-598.055	-200.000	-0.305	0.000
-597.040	-155.706	-0.153	0.010
-596.025	745.488	0.079	0.214
-595.011	-200.000	0.019	-0.597
-593.996	173.861	-0.149	-0.217
-592.982	322.912	-0.124	-0.239
-591.967	-61.069	-0.180	0.077
-590.952	-200.000	-0.023	-0.414
-589.938	56.069	0.104	-0.102
-588.923	322.789	-0.202	-0.389
-587.909	-35.985	-0.296	-0.161
-586.894	-160.653	0.286	-0.015
-585.879	-200.000	0.140	-0.000
-584.865	-10.577	-0.026	-0.017
-583.850	-3.797	-0.252	0.176
-582.836	-85.696	0.232	0.073
-581.821	-173.073	-0.214	0.007
-580.806	-31.252	0.258	-0.146
-579.792	-71.606	-0.069	0.026
-578.777	-65.886	0.264	0.106
-577.763	-200.000	-0.064	0.333
-576.748	147.073	-0.226	0.307
-575.733	264.429	0.150	0.264
-574.719	-200.000	0.006	-0.185
-573.704	800.000	0.053	-0.161
-572.690	-11.042	0.198	0.132
-571.675	285.743	0.164	-0.299
-570.661	-25.570	-0.085	0.051
-569.646	-200.000	0.023	0.122
-568.631	-9.485	-0.094	-0.063
-567.617	-5.247	-0.051	0.035
-566.602	800.000	-0.027	-0.103
-565.588	48.383	0.095	0.089
-564.573	83.126	-0.007	-0.008
-563.558	768.547	-0.032	0.089
-562.544	-81.874	0.142	-0.047
-561.529	-200.000	-0.009	-0.160
-560.515	-200.000	-0.014	0.079
-559.500	17.689	-0.226	-0.181
-558.485	-104.587	0.206	0.048
-557.471	-31.595	-0.252	-0.143
-556.456	-39.871	0.186	0.098
-555.442	-200.000	-0.026	0.484
-554.427	-58.757	-0.255	0.111
-553.412	-84.631	0.289	-0.092
-552.398	800.000	-0.073	-0.295
-551.383	-62.686	-0.033	0.014
-550.369	-131.659	-0.192	0.025
-549.354	-159.339	0.310	0.018
-548.339	285.895	-0.146	-0.266
-547.325	95.042	-0.092	0.106
-546.310	-68.425	-0.237	0.093
-545.296	-10.707	-0.097	-0.064
-544.281	800.000	0.014	0.057
-543.266	-92.520	0.180	0.051
-542.252	89.631	-0.074	-0.083
-541.237	-152.678	-0.215	0.015
-540.223	759.906	0.022	-0.060
-539.208	259.658	0.069	-0.120
-538.193	-129.289	0.251	-0.035
-537.179	-36.749	0.175	0.094
-536.164	-100.819	-0.181	-0.045
-535.150	300.809	0.158	-0.293
-534.135	247.296	0.111	0.188
-533.121	20.386	-0.302	0.246
-532.106	-51.842	-0.375	0.176
-531.091	-200.000	-0.010	-0.182
-530.077	800.000	0.072	-0.236
-529.062	-200.000	0.029	-0.192
-528.048	-22.353	0.200	-0.122
-527.033	-62.660	0.103	0.043
-526.018	-17.108	0.353	-0.224
-525.004	-200.000	-0.027	-0.350
-523.989	-141.137	-0.175	-0.018
-522.975	115.871	0.165	0.203
-521.960	500.219	-0.073	-0.170
-520.945	-147.440	-0.221	0.019
-519.931	-17.241	-0.113	0.072
-518.916	323.855	-0.067	-0.129
-517.902	40.699	-0.034	-0.031
-516.887	446.706	-0.041	0.091
-515.872	6.455	0.124	-0.092
-514.858	800.000	-0.065	0.188
-513.843	-73.103	0.148	0.055
-512.829	-102.700	-0.272	0.065
-511.814	363.977	-0.205	-0.415
-510.799	-200.000	-0.022	0.117
-509.785	-22.564	-0.276	0.168
-508.770	45.944	-0.168	-0.157
-507.756	-11.482	-0.049	0.032
-506.741	-13.262	-0.061	-0.040
-505.726	34.837	-0.280	-0.246
-504.712	-83.909	0.064	0.020
-503.697	800.000	0.061	-0.196
-502.683	-19.424	0.117	-0.073
-501.668	34.269	0.047	0.041
-500.653	197.318	-0.123	-0.189
-499.639	113.007	-0.081	-0.099
-498.624	-200.000	-0.022	-0.122
-497.610	-200.000	0.044	-0.230
-496.595	14.252	-0.136	-0.107
-495.581	-81.387	-0.236	-0.078
-494.566	-63.976	0.237	-0.097
-493.551	-119.790	0.157	0.027
-492.537	37.620	-0.212	0.189
-491.522	-8.579	0.234	0.158
-490.508	27.679	-0.368	0.312
-489.493	-150.942	-0.060	0.005
-488.478	-150.748	-0.099	-0.008
-487.464	326.932	-0.056	-0.108
-486.449	-103.521	0.082	0.019
-485.435	171.870	0.207	0.299
-484.420	-14.043	0.384	-0.249
-483.405	-103.500	0.097	0.023
-482.391	165.227	-0.121	-0.171
-481.376	-37.959	0.107	-0.057
-480.362	-58.818	0.102	-0.044
-479.347	594.310	0.162	-0.401
-478.332	-53.243	0.082	-0.038
-477.318	325.493	-0.033	0.064
-476.303	800.000	-0.045	0.136
-475.289	-49.457	-0.156	0.075
-474.274	-6.631	-0.320	0.219
-473.259	132.380	0.032	-0.042
-472.245	-2.338	0.305	-0.215
-471.230	800.000	-0.163	0.487
-470.216	-63.688	0.534	0.220
-469.201	-78.267	0.225	0.077
-468.186	800.000	-0.051	-0.179
-467.172	-94.363	0.076	0.021
-466.157	-146.830	-0.145	0.013
-465.143	85.372	-0.198	-0.218
-464.128	-200.000	0.013	-0.098
-463.113	-125.443	-0.244	0.037
-462.099	-200.000	0.019	0.242
-461.084	-53.323	0.069	-0.032
-460.070	-145.207	0.091	0.008
-459.055	-93.108	0.309	0.086
-458.040	-200.000	-0.023	-0.286
-457.026	780.321	-0.069	0.190
-456.011	-121.034	0.167	0.028
-454.997	-113.464	0.126	-0.025
-453.982	97.014	-0.135	-0.156
-452.968	249.242	-0.034	0.057
-451.953	170.072	0.167	0.240
-450.938	800.000	-0.009	0.031
-449.924	-0.708	0.175	-0.124
-448.909	-98.803	-0.211	-0.054
-447.895	4.559	0.133	0.098
-446.880	355.801	-0.026	0.052
-445.865	-58.601	-0.121	0.053
-444.851	112.308	-0.036	0.043
-443.836	-67.624	0.147	0.058
-442.822	40.420	0.096	-0.086
-441.807	489.020	0.163	0.374
-440.792	-48.873	0.447	0.215
-439.778	-200.000	0.210	-0.001
-438.763	-73.246	0.347	-0.128
-437.749	-119.988	0.123	0.021
-436.734	-63.101	0.331	-0.137
-435.719	800.000	-0.067	-0.270
-434.705	9.919	-0.301	0.229
-433.690	-5.007	-0.407	-0.281
-432.676	-138.425	-0.164	0.018
-431.661	-102.109	-0.206	-0.050
-430.646	700.346	0.089	-0.236
-429.632	-110.808	-0.377	0.078
-428.617	-200.000	-0.015	-0.169
-427.603	-200.000	-0.207	-0.000
-426.588	392.337	-0.124	0.258
-425.573	68.902	-0.096	0.099
-424.559	568.432	0.069	-0.167
-423.544	460.920	0.007	0.015
-422.530	800.000	0.029	-0.125
-421.515	19.270	0.143	-0.115
-420.500	800.000	0.076	0.245
-419.486	-200.000	-0.021	0.111
-418.471	-29.712	0.422	-0.242
-417.457	-9.837	-0.127	0.084
-416.442	118.768	-0.148	-0.183
-415.428	800.000	0.060	-0.226
-414.413	-121.854	0.248	-0.041
-413.398	-132.278	0.231	0.030
-412.384	522.105	-0.060	-0.142
-411.369	-6.679	0.162	0.110
-410.355	-48.490	0.327	-0.158
-409.340	119.205	-0.129	-0.160
-408.325	800.000	-0.055	-0.193
-407.311	-145.496	0.203	0.018
-406.296	-91.282	0.219	-0.063
-405.282	-135.022	0.152	0.018
-404.267	-41.373	0.093	0.048
-403.252	580.710	0.036	-0.089
-402.238	-105.714	-0.192	-0.043
-401.223	-114.443	0.170	-0.033
-400.209	-106.299	-0.099	0.022
-399.194	-69.423	-0.098	-0.038
-398.179	-200.000	-0.051	0.369
-397.165	-180.683	0.165	0.003
-396.150	25.001	-0.266	0.221
-395.136	213.349	0.255	-0.403
-394.121	-60.018	-0.220	-0.094
-393.106	326.195	-0.059	-0.114
-392.092	22.662	-0.446	-0.365
-391.077	443.561	-0.067	0.148
-390.063	39.440	0.024	0.022
-389.048	-55.139	0.091	0.041
-388.033	584.037	0.096	-0.236
-387.019	-12.815	0.231	0.151
-386.004	-24.201	0.091	-0.055
-384.990	5.004	-0.083	0.061
-383.975	528.299	0.106	0.251
-382.960	-32.306	-0.331	-0.185
-381.946	375.304	-0.026	-0.054
-380.931	-120.907	0.486	-0.082
-379.917	-36.476	0.275	-0.148
-378.902	106.390	0.146	-0.174
-377.888	800.000	0.028	0.087
-376.873	-200.000	-0.047	-0.360
-375.858	-141.965	-0.152	-0.015
-374.844	-200.000	0.002	0.020
-373.829	800.000	-0.122	0.481
-372.815	-22.508	0.121	-0.073
-371.800	-200.000	0.021	-0.188
-370.785	-117.623	-0.222	-0.040
-369.771	266.402	-0.114	0.200
-368.756	-29.155	-0.154	-0.088
-367.742	-81.670	-0.267	-0.088
-366.727	-12.822	0.348	-0.227
-365.712	249.784	0.110	0.187
-364.698	-38.597	-0.073	-0.038
-363.683	670.865	-0.104	-0.270
-362.669	10.684	-0.151	0.115
-361.654	-27.734	0.173	-0.100
-360.639	523.172	0.127	-0.298
-359.625	-91.938	0.214	0.061
-358.610	-29.424	0.181	0.104
-357.596	-200.000	-0.039	0.243
-356.581	-112.842	-0.452	-0.090
-355.566	-11.388	0.117	-0.077
-354.552	722.362	0.181	0.481
-353.537	-53.089	-0.209	-0.096
-352.523	462.708	0.106	0.237
-351.508	562.225	-0.110	-0.266
-350.493	448.416	-0.100	0.221
-349.479	-85.986	0.125	0.039
-348.464	-200.000	-0.024	0.389
-347.450	-98.016	0.377	0.097
-346.435	-1.534	0.127	0.089
-345.420	800.000	0.037	0.157
-344.406	409.124	0.081	-0.171
-343.391	-96.212	-0.266	-0.071
-342.377	-51.018	0.524	-0.246
-341.362	41.559	-0.185	-0.167
-340.348	-137.648	-0.111	-0.013
-339.333	-4.727	-0.199	-0.137
-338.318	-24.953	0.304	0.180
-337.304	151.323	0.149	0.203
-336.289	484.577	-0.124	0.283
-335.275	-200.000	0.003	-0.276
-334.260	-115.544	-0.004	-0.001
-333.245	800.000	0.005	-0.019
-332.231	26.530	-0.306	0.255
-331.216	-200.000	0.048	-0.231
-330.202	38.443	-0.175	-0.156
-329.187	-192.913	-0.202	-0.002
-328.172	247.835	0.188	0.317
-327.158	-200.000	-0.028	-0.155
-326.143	-200.000	-0.018	-0.475
-325.129	800.000	0.017	0.073
-324.114	-24.359	-0.050	0.030
-323.099	-84.159	-0.232	0.073
-322.085	75.875	0.139	0.147
-321.070	-35.278	-0.060	-0.033
-320.056	18.952	-0.175	0.140
-319.041	-11.874	0.176	0.116
-318.026	119.191	-0.179	0.221
-317.012	10.350	-0.093	0.071
-315.997	10.123	0.253	0.192
-314.983	550.692	-0.019	0.046
-313.968	-150.189	0.166	-0.013
-312.953	800.000	-0.060	0.175
-311.939	218.247	-0.298	0.475
-310.924	-65.205	-0.189	0.076
-309.910	800.000	0.079	-0.219
-308.895	-200.000	-0.049	-0.293
-307.880	431.109	-0.089	0.192
-306.866	-49.363	0.172	-0.082
-305.851	116.605	0.100	-0.123
-304.837	237.171	0.040	-0.066
-303.822	224.946	0.073	0.118
-302.807	-167.893	-0.048	0.002
-301.793	367.856	0.012	-0.023
-300.778	-156.020	0.079	0.005
-299.764	777.964	0.029	0.078
-298.749	-200.000	0.012	0.199
-297.735	800.000	0.150	0.494
-296.720	-200.000	0.037	0.257
-295.705	190.723	0.016	-0.024
-294.691	-115.511	-0.233	-0.044
-293.676	-176.173	-0.171	-0.004
-292.662	126.771	0.091	-0.114
-291.647	36.095	-0.135	-0.118
-290.632	245.400	-0.126	0.211
-289.618	-172.504	0.216	0.007
-288.603	800.000	-0.069	0.283
-287.589	-127.515	0.162	-0.023
-286.574	-37.964	0.366	-0.194
-285.559	2.281	0.202	0.146
-284.545	738.061	0.049	-0.131
-283.530	-200.000	0.017	0.115
-282.516	800.000	-0.103	0.345
-281.501	224.089	0.180	-0.290
-280.486	426.936	0.100	0.216
-279.472	647.273	-0.111	-0.282
-278.457	-200.000	-0.008	0.109
-277.443	-80.770	-0.142	0.047
-276.428	-5.086	-0.095	0.065
-275.413	-75.549	-0.259	-0.092
-274.399	-200.000	-0.061	0.292
-273.384	407.429	-0.096	-0.203
-272.370	-104.657	-0.102	0.023
-271.355	121.380	0.053	0.066
-270.340	-200.000	0.031	0.371
-269.326	163.911	-0.208	-0.292
-268.311	799.003	0.140	0.385
-267.297	-124.789	-0.442	0.068
-266.282	331.055	-0.116	-0.222
-265.267	-166.596	-0.200	0.008
-264.253	471.819	0.194	-0.435
-263.238	-102.929	-0.131	0.031
-262.224	159.935	0.027	-0.038
-261.209	-143.792	0.448	-0.042
-260.195	800.000	0.085	-0.314
-259.180	65.739	0.163	0.164
-258.165	151.781	-0.117	-0.158
-257.151	-173.768	-0.140	0.004
-256.136	-200.000	-0.030	0.232
-255.122	92.631	0.221	0.248
-254.107	-200.000	-0.052	0.409
-253.092	755.746	0.012	-0.033
-252.078	-185.547	0.238	-0.004
-251.063	800.000	0.056	-0.195
-250.049	-1.294	-0.189	-0.133
-249.034	79.427	-0.145	-0.155
-248.019	38.609	-0.111	0.099
-247.005	-90.150	0.396	-0.115
-245.990	-200.000	-0.042	-0.189
-244.976	-200.000	0.010	-0.216
-243.961	396.378	-0.071	0.147
-242.946	141.906	-0.116	-0.153
-241.932	-21.552	-0.162	0.098
-240.917	103.489	-0.131	0.153
-239.903	363.954	-0.050	0.101
-238.888	-173.066	-0.263	-0.008
-237.873	-105.397	0.084	-0.019
-236.859	45.055	0.100	0.091
-235.844	-200.000	-0.020	0.098
-234.830	461.173	-0.128	0.284
-233.815	285.425	0.059	0.106
-232.800	2.601	0.199	0.143
-231.786	-55.046	0.219	0.098
-230.771	-200.000	0.069	-0.539
-229.757	83.386	0.191	0.207
-228.742	-160.245	-0.166	-0.009
-227.727	-3.179	-0.104	0.072
-226.713	601.660	0.121	-0.299
-225.698	281.938	0.074	-0.131
-224.684	-67.250	0.302	-0.118
-223.669	499.562	-0.133	0.305
-222.655	-158.156	0.206	0.012
-221.640	-146.553	-0.269	0.023
-220.625	-39.671	-0.128	0.067
-219.611	800.000	0.066	0.282
-218.596	-200.000	-0.008	-0.208
-217.582	57.419	-0.030	0.029
-216.567	-39.032	-0.147	0.077
-215.552	67.563	-0.058	0.059
-214.538	115.419	0.128	0.155
-213.523	333.748	0.181	0.349
-212.509	-117.156	-0.087	-0.016
-211.494	-200.000	0.027	-0.297
-210.479	392.491	0.042	0.086
-209.465	543.846	-0.041	-0.096
-208.450	217.613	0.093	-0.147
-207.436	-130.451	-0.572	-0.077
-206.421	683.548	-0.026	0.068
-205.406	558.033	0.110	-0.264
-204.392	-200.000	0.023	-0.423
-203.377	-3.729	0.177	0.122
-202.363	-151.230	-0.094	0.007
-201.348	-63.306	0.184	0.075
-200.333	800.000	0.034	0.134
-199.319	-200.000	-0.058	-0.254
-198.304	-162.335	0.219	0.011
-197.290	-136.144	0.327	-0.038
-196.275	378.476	-0.132	0.269
-195.260	-98.809	-0.310	-0.078
-194.246	-48.862	-0.051	-0.024
-193.231	-200.000	0.006	-0.086
-192.217	-200.000	-0.017	-0.205
-191.202	-200.000	-0.051	-0.484
-190.187	-82.524	-0.221	0.071
-189.173	156.088	-0.064	-0.088
-188.158	741.792	0.013	0.034
-187.144	-194.870	0.091	0.001
-186.129	-76.832	-0.205	0.071
-185.114	-45.906	0.251	0.123
-184.100	-200.000	0.031	-0.180
-183.085	377.952	0.061	0.124
-182.071	-88.413	-0.363	0.108
-181.056	-200.000	0.012	0.057
-180.042	-200.000	0.072	-0.000
-179.027	-113.166	-0.160	-0.031
-178.012	-109.533	-0.204	-0.043
-176.998	-200.000	0.075	0.563
-175.983	362.729	-0.102	0.204
-174.969	523.774	-0.066	0.154
-173.954	-200.000	-0.002	0.037
-172.939	-119.882	-0.199	-0.034
-171.925	-200.000	-0.179	-0.000
-170.910	6.614	0.131	0.097
-169.896	314.801	0.154	0.288
-168.881	-185.856	0.108	0.002
-167.866	-34.891	-0.213	0.115
-166.852	-134.808	0.167	-0.020
-165.837	576.593	0.096	-0.232
-164.823	-76.001	0.383	0.135
-163.808	33.917	0.231	0.200
-162.793	-2.227	0.282	-0.196
-161.779	21.436	0.160	-0.129
-160.764	381.018	-0.086	-0.175
-159.750	-198.915	0.186	0.001
-158.735	-40.190	0.267	0.138
-157.720	-200.000	-0.021	-0.104
-156.706	-90.802	-0.189	0.054
-155.691	-200.000	-0.015	0.270
-154.677	87.745	0.111	0.122
-153.662	-62.628	0.206	-0.085
-152.647	-48.429	-0.087	-0.041
-151.633	1.321	0.280	0.200
-150.618	-200.000	0.010	0.194
-149.604	-122.814	0.205	0.033
-148.589	-1.810	-0.156	-0.109
-147.574	39.814	-0.267	-0.238
-146.560	81.651	0.149	0.159
-145.545	-59.013	-0.249	0.107
-144.531	-200.000	0.036	-0.219
-143.516	154.707	0.101	-0.138
-142.502	-200.000	0.018	0.233
-141.487	270.341	0.075	-0.130
-140.472	-200.000	-0.060	-0.372
-139.458	479.658	-0.093	-0.209
-138.443	-200.000	-0.009	-0.122
-137.429	-100.072	0.073	-0.018
-136.414	-97.681	0.160	-0.041
-135.399	-18.431	0.089	0.055
-134.385	-74.320	0.029	-0.010
-133.370	-125.821	0.242	-0.036
-132.356	-175.347	0.206	0.006
-131.341	-104.949	0.363	-0.082
-130.326	2.222	-0.297	-0.213
-129.312	-72.507	-0.235	-0.086
-128.297	-200.000	-0.010	0.236
-127.283	235.058	0.075	-0.123
-126.268	800.000	-0.027	-0.103
-125.253	-85.717	-0.402	-0.124
-124.239	168.362	0.177	-0.250
-123.224	-200.000	0.016	-0.129
-122.210	190.457	0.138	-0.205
-121.195	800.000	-0.031	-0.096
-120.180	-62.074	0.149	-0.062
-119.166	36.314	-0.090	-0.078
-118.151	424.910	0.018	0.038
-117.137	-129.119	-0.274	0.038
-116.122	157.656	-0.176	-0.242
-115.107	-143.440	-0.077	-0.007
-114.093	7.776	-0.250	0.186
-113.078	57.356	0.065	-0.062
-112.064	299.513	-0.087	-0.159
-111.049	365.593	-0.136	-0.272
-110.034	138.165	0.080	0.103
-109.020	800.000	0.090	-0.269
-108.005	17.496	-0.125	0.098
-106.991	-6.307	0.171	-0.116
-105.976	-34.921	0.198	0.107
-104.962	-78.454	0.218	0.074
-103.947	761.177	-0.078	0.210
-102.932	-101.225	-0.316	-0.077
-101.918	-39.666	0.009	-0.004
-100.903	-183.720	0.315	0.005
-99.889	336.900	0.129	-0.248
-98.874	-200.000	0.004	0.171
-97.859	765.014	0.068	0.184
-96.845	50.275	-0.047	-0.044
-95.830	800.000	0.068	0.263
-94.816	30.771	-0.135	0.114
-93.801	336.077	-0.211	0.404
-92.786	-187.106	0.162	0.002
-91.772	800.000	0.081	-0.271
-90.757	-200.000	-0.001	0.035
-89.743	136.625	-0.097	0.125
-88.728	-101.584	-0.298	-0.072
-87.713	800.000	0.112	-0.309
-86.699	178.382	-0.123	-0.177
-85.684	-200.000	0.006	0.151
-84.670	479.183	0.212	0.475
-83.655	123.175	0.136	-0.168
-82.640	-9.651	-0.181	0.120
-81.626	800.000	0.087	0.253
-80.611	-200.000	-0.009	0.063
-79.597	-54.028	0.414	0.186
-78.582	134.887	0.140	-0.179
-77.567	157.374	-0.069	-0.095
-76.553	-91.939	0.193	0.054
-75.538	800.000	0.073	-0.245
-74.524	-200.000	0.017	-0.235
-73.509	7.923	-0.183	0.136
-72.494	800.000	-0.060	-0.201
-71.480	-61.708	-0.107	0.044
-70.465	-123.128	0.290	0.046
-69.451	-200.000	-0.011	0.106
-68.436	-151.699	-0.106	0.008
-67.422	800.000	-0.011	-0.037
-66.407	-88.075	-0.150	0.045
-65.392	432.869	-0.096	0.205
-64.378	491.991	-0.061	0.138
-63.363	-78.202	-0.204	0.069
-62.349	-200.000	-0.046	-0.451
-61.334	35.169	-0.834	-0.722
-60.319	90.645	0.262	0.290
-59.305	-200.000	-0.029	-0.965
-58.290	800.000	0.405	1.326
-57.276	609.726	0.668	1.650
-56.261	-200.000	88.818	493.329
-55.246	501.793	1413.542	3226.719
-54.232	180.609	2640.233	3830.331
-53.217	111.280	2363.889	2815.482
-52.203	45.646	1970.044	1798.752
-51.188	39.935	1756.580	1558.887
-50.173	37.212	1711.424	1497.783
-49.159	52.276	1754.922	1653.761
-48.144	55.595	1773.339	1696.975
-47.130	39.793	1732.240	1535.940
-46.115	36.865	1717.283	1499.983
-45.100	36.739	1712.543	1494.812
-44.086	36.663	1709.818	1491.789
-43.071	36.723	1707.182	1489.885
-42.057	36.748	1704.457	1487.648
-41.042	36.736	1702.547	1485.826
-40.027	36.664	1701.056	1483.917
-39.013	36.604	1699.171	1481.751
-37.998	36.652	1697.281	1480.412
-36.984	36.697	1695.743	1479.353
-35.969	36.853	1694.415	1479.325
-34.954	36.839	1692.835	1477.786
-33.940	36.815	1690.938	1475.884
-32.925	36.799	1688.915	1473.940
-31.911	36.851	1686.656	1472.307
-30.896	36.860	1685.336	1471.162
-29.881	36.870	1683.464	1469.549
-28.867	36.771	1682.196	1467.631
-27.852	36.868	1680.563	1466.884
-26.838	36.815	1679.199	1465.230
-25.823	36.796	1677.605	1463.640
-24.809	36.893	1675.959	1462.879
-23.794	36.827	1674.611	1461.146
-22.779	36.857	1672.999	1459.911
-21.765	36.851	1671.254	1458.283
-20.750	36.821	1670.188	1457.066
-19.736	36.843	1668.494	1455.695
-18.721	36.962	1666.562	1454.845
-17.706	36.761	1665.707	1452.539
-16.692	36.862	1663.532	1451.337
-15.677	36.750	1663.219	1450.171
-14.663	36.890	1661.315	1449.498
-13.648	36.902	1660.062	1448.437
-12.633	36.918	1658.041	1446.733
-11.619	36.813	1656.865	1444.873
-10.604	36.872	1654.790	1443.444
-9.590	36.801	1653.871	1442.052
-8.575	36.847	1652.759	1441.374
-7.560	36.825	1651.146	1439.743
-6.546	36.767	1650.280	1438.497
-5.531	36.717	1649.178	1437.109
-4.517	36.768	1647.688	1436.132
-3.502	36.864	1646.173	1435.465
-2.487	36.850	1645.148	1434.416
-1.473	36.764	1633.654	1423.703
-0.458	34.033	1614.054	1386.684
0.556	31.858	1613.102	1351.182
1.571	29.198	1637.085	1351.664
2.586	28.064	1649.694	1353.569
3.600	24.214	1593.279	1279.573
4.615	14.239	1476.782	1119.177
5.629	6.044	1408.018	1014.244
6.644	4.688	1399.266	999.143
7.659	4.560	1397.642	997.073
8.673	4.507	1396.272	995.666
9.688	4.495	1395.264	994.787
10.702	4.534	1392.786	993.181
11.717	8.086	1399.190	1020.432
12.731	17.036	1416.379	1090.643
13.746	21.959	1423.541	1127.776
14.761	21.178	1420.853	1120.532
15.775	20.170	1418.061	1111.774
16.790	19.008	1415.628	1102.327
17.804	18.193	1413.215	1095.131
18.819	17.870	1411.554	1091.683
19.834	17.580	1410.389	1088.833
20.848	17.438	1409.086	1086.826
21.863	17.211	1407.925	1084.385
22.877	17.044	1407.037	1082.541
23.892	16.930	1406.331	1081.174
24.907	17.006	1404.925	1080.479
25.921	16.968	1404.271	1079.639
26.936	16.994	1403.542	1079.151
27.950	17.132	1402.116	1078.835
28.965	17.191	1400.708	1078.032
29.980	17.305	1399.656	1077.847
30.994	17.351	1398.563	1077.205
32.009	17.365	1397.394	1076.292
33.023	17.336	1396.907	1075.638
34.038	17.233	1395.395	1073.734
35.053	17.191	1393.675	1072.045
36.067	17.142	1392.732	1070.917
37.082	17.245	1391.553	1070.566
38.096	17.254	1390.947	1070.064
39.111	17.312	1389.903	1069.531
40.126	17.174	1388.744	1067.676
41.140	16.952	1387.723	1065.399
42.155	16.907	1387.359	1064.742
43.169	16.919	1387.072	1064.506
44.184	16.800	1387.171	1063.740
45.199	16.920	1386.469	1063.859
46.213	17.063	1385.728	1064.092
47.228	17.205	1384.912	1064.264
48.242	17.207	1383.634	1063.197
49.257	17.155	1382.010	1061.531
50.271	17.140	1381.086	1060.632
51.286	17.144	1379.790	1059.570
52.301	17.055	1378.778	1058.146
53.315	17.053	1377.225	1056.848
54.330	17.049	1376.135	1055.891
55.344	17.028	1374.323	1054.276
56.359	16.952	1374.250	1053.657
57.374	16.961	1372.760	1052.478
58.388	16.876	1372.391	1051.576
59.403	16.752	1371.777	1050.241
60.417	16.858	1370.963	1050.184
61.432	16.831	1370.061	1049.234
62.447	16.774	1369.127	1048.068
63.461	16.621	1368.013	1046.179
64.476	16.747	1366.578	1045.766
65.490	16.780	1364.942	1044.627
66.505	16.727	1363.751	1043.297
67.520	16.722	1362.699	1042.364
68.534	16.747	1361.386	1041.424
69.549	16.679	1360.367	1040.136
70.563	16.776	1359.140	1039.698
71.578	16.751	1358.013	1038.596
72.593	16.655	1357.523	1037.541
73.607	16.547	1356.961	1036.358
74.622	16.535	1356.130	1035.554
75.636	16.619	1355.057	1035.156
76.651	16.563	1354.799	1034.525
77.666	16.716	1353.641	1034.483
78.680	16.768	1353.345	1034.487
79.695	16.681	1352.963	1033.573
80.709	16.796	1351.872	1033.345
81.724	16.917	1350.915	1033.262
82.739	16.961	1350.111	1032.824
83.753	17.003	1349.428	1032.467
84.768	17.089	1348.451	1032.148
85.782	17.255	1347.006	1031.957
86.797	17.289	1345.816	1031.165
87.812	17.123	1344.596	1029.134
88.826	17.113	1343.084	1027.820
89.841	17.182	1342.563	1027.749
90.855	17.102	1341.930	1026.689
91.870	17.264	1340.649	1026.602
92.884	17.241	1339.752	1025.685
93.899	17.178	1339.334	1024.892
94.914	17.287	1337.987	1024.429
95.928	17.341	1337.188	1024.048
96.943	17.218	1336.498	1022.693
97.957	17.197	1335.345	1021.591
98.972	17.181	1334.830	1021.009
99.987	17.181	1333.274	1019.728
101.001	17.248	1332.506	1019.453
102.016	17.166	1331.660	1018.226
103.030	17.268	1330.557	1017.901
104.045	17.285	1329.552	1017.147
105.060	17.199	1328.095	1015.425
106.074	17.030	1326.673	1013.241
107.089	16.804	1325.347	1010.793
108.103	16.755	1324.189	1009.528
109.118	16.792	1322.624	1008.462
110.133	16.851	1321.123	1007.584
111.147	16.893	1319.725	1006.675
112.162	16.860	1318.809	1005.691
113.176	16.814	1317.924	1004.654
114.191	16.942	1316.851	1004.505
115.206	16.902	1315.959	1003.503
116.220	16.906	1314.240	1002.125
117.235	16.971	1312.707	1001.249
118.249	16.936	1312.130	1000.517
119.264	16.921	1310.804	999.328
120.279	16.835	1310.127	998.216
121.293	16.711	1308.836	996.412
122.308	16.777	1307.593	995.766
123.322	16.799	1306.492	994.972
124.337	16.713	1305.775	993.829
125.352	16.731	1304.462	992.852
126.366	16.662	1303.767	991.831
127.381	16.733	1301.931	990.761
128.395	16.769	1301.209	990.336
129.410	16.729	1300.751	989.662
130.424	16.872	1299.680	989.598
131.439	16.904	1298.877	989.083
132.454	16.919	1297.825	988.282
133.468	16.892	1297.323	987.657
134.483	16.928	1296.640	987.257
135.497	17.038	1295.509	986.948
136.512	17.080	1294.179	986.093
137.527	17.039	1292.935	984.817
138.541	17.049	1291.464	983.669
139.556	17.046	1289.947	982.412
140.570	17.152	1289.299	982.443
141.585	17.287	1287.696	981.914
142.600	17.234	1287.196	981.143
143.614	17.256	1286.065	980.319
144.629	17.257	1285.024	979.442
145.643	17.234	1283.903	978.371
146.658	17.102	1282.734	976.633
147.673	17.082	1281.027	975.136
148.687	16.988	1279.870	973.626
149.702	16.962	1278.350	972.236
150.716	16.970	1277.007	971.175
151.731	16.965	1276.061	970.340
152.746	17.026	1274.513	969.426
153.760	17.075	1273.433	968.798
154.775	17.146	1272.328	968.273
155.789	17.119	1271.699	967.559
156.804	17.118	1270.778	966.766
157.819	17.206	1269.864	966.485
158.833	17.307	1268.580	965.995
159.848	17.295	1267.892	965.320
160.862	17.303	1267.001	964.598
161.877	17.180	1265.706	962.833
162.892	17.108	1264.149	961.153
163.906	17.008	1263.347	959.893
164.921	17.114	1262.187	959.527
165.935	17.121	1261.838	959.218
166.950	17.126	1261.069	958.577
167.964	17.196	1260.236	958.254
168.979	17.164	1259.266	957.250
169.994	17.181	1258.759	956.875
171.008	17.274	1257.860	956.630
172.023	17.313	1256.670	955.858
173.037	17.294	1256.379	955.444
174.052	17.310	1255.602	954.864
175.067	17.168	1253.995	952.758
176.081	17.214	1252.850	952.062
177.096	17.188	1252.225	951.356
178.110	17.174	1251.036	950.293
179.125	17.211	1249.712	949.406
180.140	17.243	1248.468	948.558
181.154	17.243	1247.464	947.711
182.169	17.271	1246.514	947.063
183.183	17.370	1244.846	946.264
184.198	17.562	1243.568	946.274
185.213	17.504	1242.242	944.861
186.227	17.532	1241.422	944.309
187.242	17.495	1240.555	943.357
188.256	17.545	1239.866	943.027
189.271	17.598	1238.587	942.265
190.286	17.435	1237.642	940.560
191.300	17.181	1236.698	938.357
192.315	17.111	1235.818	937.221
193.329	17.112	1235.282	936.739
194.344	17.277	1234.548	937.010
195.359	17.307	1234.309	936.907
196.373	17.346	1233.502	936.429
197.388	17.539	1232.879	936.935
198.402	17.635	1232.497	937.087
199.417	17.712	1231.937	937.005
200.432	17.706	1231.129	936.271
201.446	17.795	1230.130	935.917
202.461	17.786	1229.389	935.225
203.475	17.889	1228.543	935.062
204.490	17.831	1226.756	933.302
205.504	17.694	1225.242	931.319
206.519	17.564	1224.801	930.192
207.534	17.593	1222.942	928.855
208.548	17.641	1222.077	928.375
209.563	17.571	1221.750	927.664
210.577	17.636	1220.546	927.021
211.592	17.698	1220.094	926.935
212.607	17.778	1219.266	926.657
213.621	17.827	1218.102	925.957
214.636	17.807	1217.292	925.151
215.650	17.866	1216.453	924.750
216.665	17.872	1215.554	924.017
217.680	17.944	1214.666	923.652
218.694	17.982	1213.675	923.021
219.709	17.905	1212.955	921.977
220.723	17.937	1212.105	921.420
221.738	17.861	1211.257	920.283
222.753	17.950	1210.455	920.074
223.767	17.903	1210.113	919.480
224.782	18.068	1209.318	919.682
225.796	17.971	1208.804	918.687
226.811	18.100	1207.826	918.556
227.826	17.989	1207.058	917.295
228.840	17.995	1206.372	916.726
229.855	17.950	1205.484	915.725
230.869	17.976	1204.676	915.170
231.884	17.953	1203.717	914.240
232.899	17.867	1202.950	913.117
233.913	17.795	1202.314	912.170
234.928	17.820	1201.823	911.847
235.942	17.865	1200.378	910.910
236.957	17.844	1200.073	910.487
237.972	17.936	1199.059	910.126
238.986	17.998	1198.209	909.729
240.001	17.928	1197.394	908.661
241.015	17.898	1196.850	908.009
242.030	18.024	1195.642	907.678
243.045	18.017	1195.429	907.402
244.059	18.183	1194.254	907.307
245.074	18.125	1193.761	906.546
246.088	18.095	1193.021	905.743
247.103	18.232	1192.192	905.760
248.117	18.288	1191.480	905.435
249.132	18.364	1191.398	905.698
250.147	18.482	1190.204	905.330
251.161	18.555	1189.821	905.347
252.176	18.619	1188.765	904.800
253.190	18.720	1188.410	904.982
254.205	18.690	1188.056	904.475
255.220	18.629	1187.462	903.622
256.234	18.644	1186.693	903.036
257.249	18.696	1185.775	902.531
258.263	18.705	1184.955	901.874
259.278	18.679	1184.369	901.211
260.293	18.656	1183.940	900.682
261.307	18.746	1183.407	900.670
262.322	18.840	1182.511	900.399
263.336	18.797	1182.331	899.961
264.351	18.803	1181.532	899.305
265.366	18.868	1180.281	898.613
266.380	18.919	1179.095	897.893
267.395	18.684	1178.964	896.486
268.409	18.754	1177.843	895.921
269.424	18.710	1177.650	895.465
270.439	18.724	1176.981	894.949
271.453	18.684	1176.214	894.082
272.468	18.644	1175.146	892.979
273.482	18.648	1174.181	892.192
274.497	18.746	1173.445	892.062
275.512	18.664	1173.075	891.272
276.526	18.688	1172.410	890.813
277.541	18.886	1171.136	890.795
278.555	18.788	1170.913	890.040
279.570	18.868	1170.206	889.834
280.585	19.044	1169.246	889.938
281.599	18.943	1168.759	888.966
282.614	18.932	1167.224	887.663
283.628	18.889	1166.221	886.599
284.643	18.806	1165.606	885.625
285.657	18.948	1164.555	885.480
286.672	18.891	1163.740	884.488
287.687	18.927	1162.721	883.824
288.701	18.862	1161.935	882.814
289.716	19.000	1161.234	882.912
290.730	18.988	1160.258	882.029
291.745	18.958	1159.768	881.425
292.760	18.998	1158.897	880.889
293.774	19.151	1158.195	881.061
294.789	19.158	1157.912	880.802
295.803	19.108	1157.317	880.015
296.818	19.127	1156.618	879.504
297.833	18.875	1156.149	877.781
298.847	19.043	1154.786	877.526
299.862	19.035	1154.084	876.874
300.876	19.036	1153.621	876.451
301.891	19.160	1152.647	876.264
302.906	19.181	1151.699	875.576
303.920	19.309	1151.281	875.831
304.935	19.288	1151.031	875.452
305.949	19.445	1149.834	875.263
306.964	19.346	1149.632	874.528
307.979	19.321	1148.391	873.383
308.993	19.373	1147.448	872.848
310.008	19.334	1146.913	872.167
311.022	19.394	1146.260	871.898
312.037	19.330	1145.673	871.050
313.052	19.394	1143.907	869.955
314.066	19.353	1143.069	869.033
315.081	19.235	1141.973	867.527
316.095	19.136	1141.588	866.661
317.110	19.196	1140.837	866.317
318.125	19.198	1140.035	865.643
319.139	19.148	1139.552	864.949
320.154	19.152	1138.916	864.406
321.168	19.184	1138.355	864.063
322.183	19.151	1137.628	863.271
323.197	19.301	1136.999	863.470
324.212	19.267	1136.406	862.774
325.227	19.413	1135.446	862.700
326.241	19.387	1134.699	861.925
327.256	19.287	1133.765	860.637
328.270	19.291	1133.286	860.217
329.285	19.322	1132.164	859.444
330.300	19.265	1131.277	858.413
331.314	19.340	1130.425	858.062
332.329	19.373	1128.978	857.051
333.343	19.365	1128.530	856.596
334.358	19.477	1127.700	856.449
335.373	19.613	1126.872	856.419
336.387	19.521	1126.416	855.538
337.402	19.583	1125.482	855.059
338.416	19.655	1124.515	854.607
339.431	19.632	1124.269	854.230
340.446	19.709	1123.813	854.188
341.460	19.715	1123.268	853.727
342.475	19.873	1122.213	853.630
343.489	19.806	1121.486	852.672
344.504	19.929	1120.258	852.266
345.519	19.957	1119.613	851.839
346.533	20.037	1118.382	851.223
347.548	20.058	1118.029	850.981
348.562	19.929	1117.232	849.667
349.577	19.854	1116.385	848.577
350.592	19.744	1115.629	847.388
351.606	19.753	1114.506	846.505
352.621	19.703	1113.440	845.375
353.635	19.747	1112.989	845.174
354.650	19.760	1112.738	844.971
355.665	19.725	1111.969	844.141
356.679	19.712	1111.169	843.397
357.694	19.822	1110.503	843.354
358.708	20.005	1110.006	843.794
359.723	19.803	1109.471	842.326
360.738	19.804	1108.959	841.871
361.752	19.984	1108.097	842.016
362.767	19.972	1107.430	841.376
363.781	19.811	1107.060	840.237
364.796	19.964	1106.061	840.147
365.810	20.088	1105.827	840.499
366.825	20.256	1105.355	840.880
367.840	20.239	1104.823	840.319
368.854	20.343	1104.405	840.431
369.869	20.339	1102.945	839.226
370.883	20.323	1102.028	838.374
371.898	20.206	1101.516	837.349
372.913	20.198	1100.954	836.808
373.927	20.168	1100.704	836.396
374.942	20.318	1100.091	836.582
375.956	20.273	1099.561	835.885
376.971	20.326	1098.616	835.348
377.986	20.300	1098.751	835.256
379.000	20.393	1097.952	835.019
380.015	20.507	1097.156	834.887
381.029	20.608	1096.661	834.922
382.044	20.522	1095.735	833.733
383.059	20.422	1094.993	832.611
384.073	20.415	1094.505	832.134
385.088	20.448	1093.856	831.727
386.102	20.509	1092.415	830.849
387.117	20.498	1091.327	829.894
388.132	20.326	1090.322	828.239
389.146	20.359	1089.597	827.770
390.161	20.240	1089.209	826.834
391.175	20.353	1088.024	826.403
392.190	20.395	1087.440	826.083
393.205	20.461	1086.760	825.808
394.219	20.564	1085.736	825.447
395.234	20.445	1084.868	824.150
396.248	20.339	1084.014	822.925
397.263	20.407	1082.939	822.356
398.278	20.360	1082.000	821.350
399.292	20.292	1081.368	820.475
400.307	20.249	1080.617	819.627
401.321	20.323	1080.112	819.521
402.336	20.365	1079.366	819.081
403.350	20.289	1078.496	817.989
404.365	20.451	1077.872	818.209
405.380	20.464	1077.025	817.553
406.394	20.479	1076.882	817.443
407.409	20.536	1076.275	817.180
408.423	20.560	1075.239	816.431
409.438	20.784	1074.550	816.890
410.453	20.681	1074.002	815.918
411.467	20.834	1073.104	815.882
412.482	20.794	1072.418	815.097
413.496	20.943	1071.682	815.166
414.511	20.897	1071.496	814.733
415.526	20.921	1071.161	814.520
416.540	20.914	1070.793	814.138
417.555	20.973	1069.899	813.660
418.569	20.921	1069.377	812.948
419.584	21.013	1068.715	812.802
420.599	21.009	1068.105	812.245
421.613	150.027	1402.118	1783.114
422.628	138.114	1450.777	1783.225
