DTS Sentinel unit serial number:	SN413079Multiplexer serial number:	ORYXHardware model number:	OX4-SRSoftware version number:	ORYX F/W v4.00 Oryx Data Collector v3.7.2.0data status	okinstallation	princeton_trtdifferential loss correction	single-endedforward channel	channel 2reverse channel	N/Adate	2019/09/11time	12:45:11forward acquisition time	60.00reverse acquisition time	0.00gamma	496.2192k internal	0.2294k external	0.2294temperature offset calibration	0.9965default loss term (dB/km)	0.3790temperature slope calibration	1.0000multiplexer offset coefficient	1.0000multiplexer slope coefficient	1.0000fibre end	0.00T internal ref (°C)	41.02T ext. ref 1 (°C)	0.21T ext. ref 2 (°C)	38.70length (m)	temperature (°C)	Stokes	anti-Stokes-747.200	-32.845	0.455	-0.259
-746.185	-146.657	-0.242	0.021
-745.171	-101.377	0.085	-0.021
-744.156	-125.541	-0.168	-0.026
-743.142	-2.965	0.352	0.252
-742.127	278.913	-0.214	0.391
-741.112	-200.000	-0.015	0.098
-740.098	177.104	0.064	0.096
-739.083	239.771	0.073	-0.125
-738.069	-52.148	0.101	0.048
-737.054	9.135	-0.338	-0.261
-736.039	6.476	0.121	-0.092
-735.025	68.010	0.146	0.152
-734.010	191.366	-0.164	0.253
-732.996	27.179	-0.458	-0.393
-731.981	446.595	-0.143	0.322
-730.966	-135.492	-0.044	0.005
-729.952	724.475	-0.049	0.134
-728.937	-116.444	-0.241	0.046
-727.923	281.404	-0.053	0.097
-726.908	-67.734	0.187	0.075
-725.894	38.263	-0.134	-0.122
-724.879	-10.222	0.096	-0.065
-723.864	-5.125	-0.209	0.147
-722.850	69.412	-0.363	-0.382
-721.835	21.017	-0.128	-0.106
-720.821	188.583	0.043	-0.065
-719.806	615.599	0.088	-0.226
-718.791	59.847	0.078	-0.079
-717.777	-7.163	-0.186	-0.129
-716.762	54.925	0.108	0.107
-715.748	78.513	0.111	0.121
-714.733	750.402	0.164	-0.452
-713.718	-30.850	-0.264	-0.152
-712.704	-69.322	0.178	-0.070
-711.689	800.000	0.037	0.117
-710.675	-104.094	0.165	0.039
-709.660	800.000	0.036	-0.111
-708.645	-24.910	0.243	-0.147
-707.631	-155.251	-0.253	-0.017
-706.616	-200.000	0.017	0.084
-705.602	-200.000	-0.039	-0.179
-704.587	88.460	-0.133	-0.151
-703.572	259.623	-0.087	0.154
-702.558	13.705	-0.134	0.107
-701.543	-25.255	-0.020	0.012
-700.529	800.000	0.124	-0.395
-699.514	-200.000	0.021	-0.101
-698.499	-27.489	0.176	-0.105
-697.485	1.820	-0.164	-0.121
-696.470	-200.000	-0.017	-0.090
-695.456	800.000	-0.052	-0.187
-694.441	-104.174	-0.227	0.054
-693.426	-68.471	0.105	-0.042
-692.412	-46.290	-0.059	-0.029
-691.397	-9.489	-0.221	0.151
-690.383	31.726	-0.120	-0.106
-689.368	-163.136	-0.430	-0.021
-688.354	-112.891	-0.171	-0.035
-687.339	82.716	-0.165	0.183
-686.324	-187.552	-0.139	0.002
-685.310	61.779	-0.145	-0.148
-684.295	800.000	0.111	-0.481
-683.281	-200.000	0.033	-0.286
-682.266	-200.000	0.065	-0.319
-681.251	-6.604	-0.095	-0.066
-680.237	-164.069	-0.169	0.008
-679.222	800.000	-0.088	-0.301
-678.208	149.111	-0.113	0.156
-677.193	371.350	0.103	0.214
-676.178	26.728	-0.072	0.061
-675.164	800.000	0.006	-0.019
-674.149	-104.098	-0.065	0.016
-673.135	800.000	0.023	0.099
-672.120	504.735	-0.160	-0.378
-671.105	-200.000	0.001	-0.237
-670.091	10.283	0.205	-0.159
-669.076	141.327	0.069	0.093
-668.062	474.529	0.076	-0.174
-667.047	800.000	-0.154	0.486
-666.032	391.203	-0.099	-0.210
-665.018	152.217	0.126	0.176
-664.003	32.986	0.146	0.129
-662.989	-72.190	-0.254	-0.096
-661.974	-200.000	-0.018	-0.356
-660.959	-56.779	-0.357	-0.161
-659.945	288.886	0.088	-0.163
-658.930	13.867	-0.118	0.094
-657.916	-52.505	-0.256	0.121
-656.901	-200.000	0.042	0.403
-655.886	-29.976	-0.044	0.025
-654.872	287.351	0.221	0.406
-653.857	-52.864	-0.210	0.099
-652.843	424.786	0.068	-0.148
-651.828	-157.503	-0.446	0.027
-650.814	170.396	0.062	-0.091
-649.799	-200.000	0.004	-0.146
-648.784	42.962	0.247	0.230
-647.770	-137.002	-0.480	-0.056
-646.755	800.000	0.077	0.237
-645.741	-200.000	0.040	0.484
-644.726	255.120	0.168	-0.294
-643.711	-200.000	-0.014	-0.209
-642.697	-78.283	0.190	-0.067
-641.682	568.954	0.019	-0.047
-640.668	-38.112	-0.043	0.023
-639.653	-200.000	-0.010	-0.072
-638.638	38.586	0.100	-0.091
-637.624	-200.000	-0.021	0.113
-636.609	-145.141	0.277	0.026
-635.595	-89.404	-0.482	0.144
-634.580	456.612	-0.109	-0.246
-633.565	-155.924	-0.274	-0.018
-632.551	444.966	0.141	0.315
-631.536	13.464	-0.311	-0.245
-630.522	-147.680	0.087	-0.007
-629.507	-83.035	-0.223	-0.073
-628.492	-121.578	0.221	0.037
-627.478	-56.044	-0.323	0.146
-626.463	-7.909	-0.139	0.095
-625.449	-200.000	0.012	0.210
-624.434	-47.067	-0.188	0.093
-623.419	64.103	0.024	0.025
-622.405	-27.278	-0.086	-0.051
-621.390	34.483	0.268	-0.238
-620.376	136.256	0.037	-0.049
-619.361	186.321	-0.105	-0.159
-618.346	-110.935	0.358	-0.075
-617.332	-200.000	0.043	-0.322
-616.317	800.000	-0.118	0.374
-615.303	-0.275	-0.246	-0.178
-614.288	-76.755	-0.083	-0.029
-613.273	-151.907	-0.127	0.009
-612.259	-200.000	-0.004	0.139
-611.244	-113.729	-0.440	-0.087
-610.230	125.710	-0.039	-0.051
-609.215	-156.178	0.252	0.016
-608.201	-91.173	0.261	0.076
-607.186	323.876	-0.164	-0.318
-606.171	-50.318	-0.136	0.065
-605.157	241.398	-0.063	0.108
-604.142	26.013	-0.132	0.112
-603.128	-59.454	0.052	0.023
-602.113	119.146	-0.125	-0.158
-601.098	-63.338	-0.341	-0.143
-600.084	-87.349	-0.161	-0.050
-599.069	-200.000	-0.054	0.338
-598.055	-5.296	-0.149	-0.104
-597.040	163.937	0.063	0.090
-596.025	-56.875	0.147	-0.066
-595.011	-85.107	-0.439	-0.140
-593.996	-66.396	0.179	-0.072
-592.982	-35.211	0.219	-0.121
-591.967	111.867	0.247	0.303
-590.952	144.351	0.078	-0.105
-589.938	234.675	0.088	-0.148
-588.923	31.943	-0.217	-0.190
-587.909	-49.696	0.080	0.039
-586.894	265.753	0.147	0.261
-585.879	11.978	-0.231	0.180
-584.865	-200.000	-0.050	0.281
-583.850	800.000	-0.052	0.183
-582.836	757.676	-0.026	-0.073
-581.821	199.969	-0.034	-0.053
-580.806	18.632	-0.436	-0.354
-579.792	-71.466	0.048	0.018
-578.777	100.594	0.101	-0.119
-577.763	22.945	0.362	-0.302
-576.748	-20.605	-0.333	-0.208
-575.733	233.504	0.186	0.310
-574.719	-18.844	0.193	0.122
-573.704	277.869	-0.085	-0.153
-572.690	361.948	-0.079	-0.161
-571.675	109.206	-0.118	0.144
-570.661	-54.003	-0.206	-0.095
-569.646	92.760	0.161	-0.185
-568.631	-53.296	-0.062	-0.029
-567.617	146.465	0.116	-0.158
-566.602	-86.807	-0.381	-0.118
-565.588	564.814	-0.098	0.240
-564.573	-38.020	0.147	0.079
-563.558	-100.021	0.211	-0.053
-562.544	-46.927	0.309	-0.154
-561.529	-105.077	-0.179	-0.041
-560.515	-80.501	-0.422	0.143
-559.500	-116.621	-0.340	-0.063
-558.485	-149.217	0.312	0.025
-557.471	-200.000	0.004	-0.145
-556.456	800.000	-0.041	0.160
-555.442	800.000	-0.034	-0.108
-554.427	-28.660	-0.208	0.122
-553.412	-14.787	-0.097	0.063
-552.398	-200.000	0.025	0.205
-551.383	95.889	0.054	0.062
-550.369	-200.000	-0.010	0.176
-549.354	-90.971	0.269	0.079
-548.339	96.319	0.131	0.152
-547.325	-27.132	-0.065	-0.038
-546.310	-119.370	0.396	-0.070
-545.296	-117.648	0.182	0.033
-544.281	-67.792	-0.090	-0.036
-543.266	57.009	0.248	0.246
-542.252	-200.000	-0.006	0.147
-541.237	209.832	-0.158	-0.251
-540.223	-52.445	0.220	-0.103
-539.208	-166.012	0.115	0.005
-538.193	126.927	0.023	0.029
-537.179	800.000	0.092	-0.293
-536.164	131.208	-0.058	-0.075
-535.150	-20.828	-0.294	0.183
-534.135	700.054	0.094	-0.250
-533.121	-47.505	-0.190	0.093
-532.106	30.495	0.205	0.178
-531.091	50.301	-0.171	-0.164
-530.077	339.526	-0.011	0.022
-529.062	-138.489	-0.525	-0.059
-528.048	42.232	-0.385	-0.355
-527.033	-18.525	0.179	-0.113
-526.018	-60.391	-0.132	-0.057
-525.004	-129.616	0.139	-0.019
-523.989	-38.246	-0.184	0.099
-522.975	87.127	-0.071	0.080
-521.960	-200.000	0.105	-0.494
-520.945	134.044	-0.044	0.058
-519.931	800.000	0.101	0.343
-518.916	86.659	-0.229	-0.256
-517.902	-200.000	-0.002	0.052
-516.887	-200.000	-0.003	-0.303
-515.872	540.459	-0.131	-0.316
-514.858	-68.741	0.265	-0.104
-513.843	-103.620	0.252	0.060
-512.829	-89.812	0.109	0.032
-511.814	800.000	0.075	0.311
-510.799	-28.026	-0.332	-0.194
-509.785	-200.000	-0.010	0.219
-508.770	800.000	0.061	-0.217
-507.756	-131.655	-0.181	-0.024
-506.741	-83.907	-0.431	-0.139
-505.726	148.355	0.229	-0.313
-504.712	-9.413	0.183	0.124
-503.697	-76.238	0.392	-0.140
-502.683	3.206	-0.107	-0.079
-501.668	-200.000	-0.028	-0.421
-500.653	-175.306	-0.359	-0.010
-499.639	800.000	-0.012	-0.049
-498.624	-200.000	-0.015	0.321
-497.610	13.258	0.179	-0.140
-496.595	27.802	0.084	-0.071
-495.581	69.846	-0.123	0.128
-494.566	33.329	-0.205	0.180
-493.551	-18.391	0.111	-0.070
-492.537	800.000	0.099	-0.363
-491.522	-149.554	0.363	0.029
-490.508	64.930	-0.119	0.122
-489.493	-47.857	0.230	-0.113
-488.478	-75.746	0.239	-0.086
-487.464	-1.274	0.135	-0.096
-486.449	86.098	-0.301	-0.335
-485.435	-200.000	-0.034	-0.162
-484.420	-28.898	0.301	0.175
-483.405	-200.000	0.305	-0.002
-482.391	-65.052	0.301	0.123
-481.376	507.888	0.062	0.145
-480.362	-104.226	-0.233	-0.055
-479.347	800.000	-0.038	0.112
-478.332	-151.081	-0.194	-0.015
-477.318	35.218	-0.248	-0.220
-476.303	800.000	-0.036	-0.120
-475.289	189.549	0.225	-0.341
-474.274	-51.528	-0.328	-0.155
-473.259	800.000	-0.031	0.094
-472.245	-127.104	0.205	-0.030
-471.230	-176.940	-0.601	-0.015
-470.216	-94.868	0.277	0.076
-469.201	-159.086	0.121	0.007
-468.186	-28.627	-0.124	0.072
-467.172	-91.628	0.117	-0.034
-466.157	-43.214	0.129	0.066
-465.143	-129.180	-0.090	0.013
-464.128	-200.000	0.005	-0.088
-463.113	357.721	0.014	-0.029
-462.099	-200.000	-0.055	-0.289
-461.084	-9.633	0.184	-0.124
-460.070	629.269	0.030	-0.076
-459.055	88.148	-0.197	0.221
-458.040	-42.937	-0.126	0.065
-457.026	-101.466	-0.167	0.041
-456.011	155.801	0.090	-0.126
-454.997	800.000	0.057	0.191
-453.982	-105.669	0.117	0.027
-452.968	-200.000	0.017	-0.092
-451.953	332.685	-0.109	0.213
-450.938	89.782	0.148	-0.167
-449.924	281.955	-0.099	-0.180
-448.909	-101.577	0.157	-0.038
-447.895	-200.000	0.045	0.206
-446.880	271.899	-0.061	0.109
-445.865	800.000	0.060	-0.240
-444.851	-200.000	0.020	0.133
-443.836	57.487	-0.048	0.047
-442.822	-87.550	-0.227	-0.069
-441.807	-15.493	-0.376	0.243
-440.792	545.059	0.114	0.276
-439.778	-122.620	0.309	-0.051
-438.763	44.152	-0.317	0.294
-437.749	-200.000	-0.018	0.127
-436.734	156.293	0.063	-0.088
-435.719	163.743	-0.147	0.209
-434.705	244.101	-0.042	0.072
-433.690	-63.114	0.147	-0.061
-432.676	-154.078	0.129	0.009
-431.661	-200.000	0.030	0.147
-430.646	329.436	0.180	0.349
-429.632	-200.000	0.009	0.160
-428.617	800.000	0.054	-0.199
-427.603	800.000	-0.010	0.038
-426.588	-149.320	-0.029	0.002
-425.573	-200.000	0.021	-0.157
-424.559	34.667	-0.106	0.093
-423.544	120.900	-0.194	-0.243
-422.530	-53.765	0.254	0.117
-421.515	800.000	-0.026	-0.093
-420.500	-35.539	-0.155	-0.085
-419.486	-200.000	0.039	-0.239
-418.471	205.834	0.110	0.172
-417.457	-200.000	-0.070	0.367
-416.442	26.846	0.294	0.249
-415.428	-200.000	-0.046	-0.288
-414.413	-43.429	0.236	-0.120
-413.398	800.000	-0.069	0.230
-412.384	215.446	0.178	-0.285
-411.369	800.000	0.099	-0.291
-410.355	-39.895	-0.211	-0.111
-409.340	-140.525	0.135	-0.014
-408.325	142.397	0.126	0.169
-407.311	800.000	-0.057	-0.173
-406.296	-0.808	0.071	0.051
-405.282	800.000	-0.100	0.326
-404.267	-140.329	0.181	-0.019
-403.252	-170.577	-0.193	0.007
-402.238	292.680	0.152	0.280
-401.223	-200.000	0.009	0.391
-400.209	13.994	0.189	0.148
-399.194	-24.849	-0.305	0.183
-398.179	672.886	-0.039	0.101
-397.165	2.759	0.049	-0.036
-396.150	800.000	0.144	-0.466
-395.136	-99.867	-0.236	0.059
-394.121	-39.668	0.153	-0.080
-393.106	-177.436	0.248	-0.006
-392.092	-29.140	0.195	0.113
-391.077	800.000	-0.049	-0.144
-390.063	33.043	-0.120	-0.105
-389.048	-200.000	0.024	-0.181
-388.033	67.775	-0.070	0.072
-387.019	-200.000	-0.020	-0.196
-386.004	-200.000	0.034	0.149
-384.990	-200.000	-0.010	0.137
-383.975	19.133	-0.298	-0.241
-382.960	-9.229	-0.126	0.085
-381.946	800.000	0.100	0.318
-380.931	-126.460	0.373	-0.056
-379.917	634.381	-0.137	-0.351
-378.902	-5.161	-0.131	0.091
-377.888	257.210	-0.100	0.174
-376.873	276.372	-0.161	0.288
-375.858	64.613	-0.196	0.200
-374.844	143.791	-0.190	0.255
-373.829	800.000	-0.042	-0.144
-372.815	-116.237	0.263	0.049
-371.800	-113.042	-0.272	0.054
-370.785	37.099	0.067	-0.060
-369.771	-200.000	-0.030	0.355
-368.756	-200.000	-0.017	0.267
-367.742	800.000	0.171	-0.551
-366.727	-200.000	0.017	-0.120
-365.712	226.119	0.080	-0.131
-364.698	-137.951	-0.227	0.025
-363.683	169.812	-0.255	-0.368
-362.669	386.285	0.090	0.187
-361.654	-105.033	-0.204	0.047
-360.639	-182.591	0.191	0.004
-359.625	101.719	-0.052	0.061
-358.610	800.000	0.123	0.344
-357.596	-102.680	0.346	-0.083
-356.581	172.913	-0.148	-0.215
-355.566	763.028	-0.025	-0.069
-354.552	365.842	0.065	-0.131
-353.537	800.000	-0.072	-0.230
-352.523	-200.000	0.003	-0.132
-351.508	-80.686	0.233	0.078
-350.493	214.168	0.151	0.241
-349.479	70.200	-0.386	0.402
-348.464	61.305	0.120	0.120
-347.450	381.757	-0.064	0.133
-346.435	-200.000	-0.003	0.158
-345.420	71.120	0.081	0.085
-344.406	5.116	-0.116	-0.086
-343.391	162.640	-0.088	0.125
-342.377	-47.118	-0.279	-0.137
-341.362	-11.947	0.120	-0.079
-340.348	531.718	0.092	-0.218
-339.333	45.782	0.095	-0.088
-338.318	156.146	0.186	-0.258
-337.304	-104.756	0.297	0.069
-336.289	279.815	-0.108	0.195
-335.275	785.039	-0.071	0.195
-334.260	-200.000	0.010	0.202
-333.245	18.311	0.109	-0.088
-332.231	800.000	-0.024	0.093
-331.216	800.000	-0.072	0.267
-330.202	-31.536	0.057	-0.032
-329.187	241.152	-0.098	-0.165
-328.172	-53.273	-0.302	-0.139
-327.158	-57.499	0.118	-0.052
-326.143	-27.389	-0.286	-0.167
-325.129	-9.124	-0.131	-0.088
-324.114	-11.406	-0.067	-0.045
-323.099	-200.000	-0.031	0.383
-322.085	43.403	0.113	-0.104
-321.070	-99.589	0.091	-0.023
-320.056	-143.738	0.264	-0.025
-319.041	-200.000	0.007	0.211
-318.026	800.000	-0.013	-0.045
-317.012	33.679	0.266	0.232
-315.997	-94.188	0.033	-0.009
-314.983	-51.760	0.181	-0.085
-313.968	59.865	-0.167	0.165
-312.953	-44.395	0.102	0.051
-311.939	-200.000	-0.010	0.113
-310.924	800.000	0.112	0.312
-309.910	53.782	0.097	0.094
-308.895	800.000	-0.091	0.273
-307.880	-9.711	0.161	-0.108
-306.866	556.593	0.073	0.176
-305.851	-200.000	0.041	-0.192
-304.837	54.905	-0.190	-0.184
-303.822	-164.234	-0.188	0.009
-302.807	47.508	-0.102	0.096
-301.793	-32.035	-0.460	0.259
-300.778	479.665	0.157	0.357
-299.764	-151.969	-0.272	0.020
-298.749	261.751	0.036	0.063
-297.735	-57.323	0.152	-0.067
-296.720	800.000	0.064	0.230
-295.705	-200.000	0.017	0.220
-294.691	-124.577	0.082	0.013
-293.676	342.026	-0.030	-0.059
-292.662	-200.000	-0.025	-0.335
-291.647	-137.057	0.327	-0.038
-290.632	58.542	0.160	0.157
-289.618	-91.303	-0.265	0.076
-288.603	68.626	-0.134	0.138
-287.589	138.433	-0.262	-0.345
-286.574	65.755	-0.235	-0.239
-285.559	-200.000	0.070	0.363
-284.545	98.369	-0.270	0.313
-283.530	-200.000	-0.073	0.331
-282.516	30.160	0.154	0.132
-281.501	113.497	-0.192	0.234
-280.486	-114.380	0.247	-0.048
-279.472	-159.734	-0.014	-0.001
-278.457	249.933	0.144	-0.246
-277.443	185.604	0.147	-0.219
-276.428	38.127	-0.047	0.042
-275.413	-200.000	-0.018	-0.100
-274.399	36.186	-0.042	0.037
-273.384	-200.000	-0.031	0.203
-272.370	27.365	0.092	0.078
-271.355	-65.269	-0.147	0.059
-270.340	-124.539	-0.190	0.030
-269.326	-50.473	0.351	0.166
-268.311	800.000	0.041	0.147
-267.297	-140.914	0.434	0.045
-266.282	-50.224	-0.099	0.047
-265.267	20.717	-0.231	0.188
-264.253	800.000	0.071	0.241
-263.238	-59.894	0.109	-0.047
-262.224	431.166	0.066	-0.143
-261.209	-2.043	0.152	-0.107
-260.195	180.033	0.243	0.357
-259.180	33.673	-0.162	-0.141
-258.165	-86.813	0.437	0.134
-257.151	382.547	-0.064	-0.132
-256.136	-200.000	-0.043	0.386
-255.122	-86.274	-0.054	-0.017
-254.107	275.436	0.134	-0.238
-253.092	-200.000	0.040	-0.201
-252.078	-200.000	0.034	0.243
-251.063	-54.449	-0.209	-0.095
-250.049	12.134	0.189	-0.146
-249.034	-155.305	0.026	-0.002
-248.019	-34.490	-0.092	-0.051
-247.005	-171.908	-0.162	0.005
-245.990	-200.000	0.016	-0.131
-244.976	-200.000	0.043	-0.331
-243.961	-89.434	-0.155	-0.046
-242.946	-200.000	-0.014	-0.187
-241.932	182.377	0.104	-0.153
-240.917	-78.604	-0.279	-0.096
-239.903	-134.911	0.215	0.026
-238.888	91.798	0.131	0.147
-237.873	-200.000	0.033	0.249
-236.859	-160.262	-0.048	0.003
-235.844	-200.000	-0.049	-0.394
-234.830	508.560	0.095	-0.221
-233.815	384.592	0.157	0.325
-232.800	90.809	-0.266	0.299
-231.786	-96.240	0.268	-0.071
-230.771	389.422	-0.136	0.283
-229.757	19.905	-0.089	-0.072
-228.742	-34.755	0.190	0.104
-227.727	-42.034	0.412	-0.211
-226.713	-200.000	0.022	0.232
-225.698	-122.851	0.414	0.067
-224.684	-54.141	0.186	-0.085
-223.669	467.925	-0.171	-0.384
-222.655	-172.065	0.195	0.006
-221.640	-86.180	0.107	0.033
-220.625	800.000	-0.063	-0.212
-219.611	-113.412	-0.349	0.069
-218.596	87.731	0.196	-0.218
-217.582	-61.567	-0.081	0.034
-216.567	-57.991	0.225	0.098
-215.552	303.243	-0.080	-0.149
-214.538	205.506	0.092	0.143
-213.523	89.690	-0.093	0.104
-212.509	800.000	-0.044	0.170
-211.494	132.592	-0.037	-0.047
-210.479	-44.024	0.144	0.073
-209.465	800.000	-0.071	0.198
-208.450	-36.473	0.246	-0.133
-207.436	-158.603	-0.099	-0.006
-206.421	-14.796	-0.189	0.121
-205.406	47.768	0.101	-0.094
-204.392	224.746	-0.111	-0.180
-203.377	-106.514	-0.475	-0.106
-202.363	-109.393	0.214	-0.045
-201.348	152.618	-0.138	-0.188
-200.333	800.000	0.111	-0.317
-199.319	-123.151	0.101	0.016
-198.304	800.000	0.016	-0.050
-197.290	-144.251	0.334	-0.031
-196.275	-200.000	0.007	0.056
-195.260	12.225	0.244	-0.188
-194.246	800.000	0.011	0.033
-193.231	800.000	-0.041	-0.148
-192.217	-7.015	0.211	0.143
-191.202	-200.000	-0.036	-0.244
-190.187	-14.182	0.179	0.115
-189.173	85.108	-0.216	0.237
-188.158	-200.000	0.028	-0.183
-187.144	88.197	0.106	0.118
-186.129	102.140	-0.140	0.164
-185.114	800.000	-0.011	0.035
-184.100	-192.834	-0.108	0.001
-183.085	-200.000	-0.012	-0.199
-182.071	-200.000	-0.008	-0.132
-181.056	51.152	0.019	-0.018
-180.042	40.942	-0.121	-0.109
-179.027	-200.000	0.000	0.102
-178.012	445.038	0.113	-0.248
-176.998	131.051	0.218	-0.280
-175.983	800.000	-0.027	0.116
-174.969	-10.162	-0.099	0.066
-173.954	84.011	-0.085	-0.093
-172.939	496.196	0.073	0.168
-171.925	-9.125	0.307	-0.205
-170.910	133.523	-0.210	-0.272
-169.896	700.525	-0.031	-0.082
-168.881	-128.474	-0.486	0.069
-167.866	16.398	-0.185	0.146
-166.852	800.000	-0.009	0.026
-165.837	-169.822	0.319	-0.011
-164.823	-200.000	-0.011	-0.273
-163.808	710.305	-0.084	-0.222
-162.793	-115.057	0.132	-0.025
-161.779	800.000	-0.037	0.118
-160.764	-19.378	0.134	-0.083
-159.750	-152.884	0.223	-0.016
-158.735	430.573	0.093	0.201
-157.720	-17.044	0.141	-0.089
-156.706	467.252	0.029	-0.065
-155.691	-48.055	0.065	0.031
-154.677	-70.770	-0.305	0.115
-153.662	132.969	-0.301	0.388
-152.647	-109.044	0.154	-0.033
-151.633	-128.195	0.122	0.017
-150.618	800.000	-0.056	-0.244
-149.604	-144.787	0.360	0.033
-148.589	353.500	0.093	0.185
-147.574	339.464	0.126	0.245
-146.560	-200.000	0.025	-0.115
-145.545	-25.857	-0.192	0.113
-144.531	-6.558	0.280	-0.190
-143.516	-60.677	0.175	-0.074
-142.502	-79.991	0.131	-0.044
-141.487	619.586	0.136	0.342
-140.472	-176.181	0.196	0.005
-139.458	230.919	0.164	0.268
-138.443	-186.378	0.375	-0.005
-137.429	-200.000	0.000	0.142
-136.414	800.000	0.050	0.147
-135.399	-200.000	0.071	0.336
-134.385	-107.767	-0.460	0.100
-133.370	504.213	-0.188	0.435
-132.356	800.000	0.039	0.145
-131.341	112.884	0.264	0.319
-130.326	14.846	0.182	0.142
-129.312	123.720	-0.107	-0.134
-128.297	-78.795	0.134	-0.045
-127.283	49.947	0.093	0.087
-126.268	622.687	0.076	0.191
-125.253	-106.540	-0.044	-0.010
-124.239	-13.128	-0.338	-0.219
-123.224	-45.952	0.172	0.085
-122.210	-200.000	0.011	-0.202
-121.195	160.548	-0.201	-0.279
-120.180	-7.283	-0.105	-0.071
-119.166	168.466	0.197	-0.280
-118.151	-38.163	-0.093	-0.049
-117.137	-200.000	0.060	0.435
-116.122	181.696	0.086	-0.126
-115.107	52.871	-0.089	-0.085
-114.093	-17.068	-0.124	0.078
-113.078	-83.261	0.360	-0.115
-112.064	58.285	0.300	-0.293
-111.049	-137.227	-0.161	-0.018
-110.034	800.000	0.109	0.320
-109.020	-200.000	0.050	-0.294
-108.005	47.879	0.093	0.087
-106.991	53.177	0.277	0.264
-105.976	2.461	-0.074	0.053
-104.962	-200.000	-0.015	-0.169
-103.947	-34.385	0.106	-0.058
-102.932	-200.000	0.056	0.319
-101.918	-84.587	0.182	0.057
-100.903	433.778	-0.072	0.156
-99.889	758.177	0.015	0.040
-98.874	-47.376	-0.201	0.098
-97.859	23.228	-0.092	-0.076
-96.845	-200.000	0.022	0.284
-95.830	-84.534	0.237	-0.075
-94.816	-116.660	-0.160	-0.029
-93.801	314.414	-0.143	0.269
-92.786	-21.855	-0.076	0.046
-91.772	800.000	0.026	0.099
-90.757	102.991	0.015	-0.018
-89.743	-200.000	0.008	-0.213
-88.728	-57.918	-0.128	0.056
-87.713	800.000	-0.075	-0.254
-86.699	387.649	0.179	-0.368
-85.684	-77.170	-0.182	-0.063
-84.670	284.262	0.105	-0.187
-83.655	-151.915	0.423	0.031
-82.640	-200.000	0.019	0.461
-81.626	6.080	-0.192	-0.142
-80.611	-114.121	0.342	0.066
-79.597	181.991	0.043	0.063
-78.582	-104.450	0.246	0.057
-77.567	119.011	0.060	0.074
-76.553	800.000	-0.091	0.300
-75.538	152.037	-0.059	-0.080
-74.524	-200.000	-0.003	-0.151
-73.509	233.836	-0.242	0.397
-72.494	30.579	-0.171	0.146
-71.480	200.360	-0.108	-0.165
-70.465	48.521	0.181	-0.169
-69.451	330.845	0.109	0.210
-68.436	-200.000	-0.013	-0.414
-67.422	213.822	0.082	0.130
-66.407	800.000	0.100	0.298
-65.392	-107.926	0.162	0.035
-64.378	800.000	0.051	-0.147
-63.363	-94.667	-0.181	0.049
-62.349	-105.805	0.302	0.068
-61.334	336.202	-0.361	-0.697
-60.319	343.322	0.170	0.331
-59.305	-200.000	-0.029	-0.419
-58.290	164.514	0.636	0.893
-57.276	800.000	0.374	1.477
-56.261	-200.000	75.292	515.329
-55.246	539.542	1317.422	3119.840
-54.232	143.539	2577.525	3416.509
-53.217	110.071	2369.940	2830.949
-52.203	50.400	1983.535	1865.969
-51.188	44.457	1768.990	1617.000
-50.173	41.481	1723.099	1551.883
-49.159	55.436	1757.614	1692.566
-48.144	60.948	1776.556	1753.895
-47.130	44.216	1739.833	1588.209
-46.115	41.062	1726.064	1551.048
-45.100	40.948	1721.299	1545.813
-44.086	40.996	1718.219	1543.358
-43.071	40.804	1716.105	1539.912
-42.057	40.862	1713.516	1537.977
-41.042	40.954	1711.060	1536.420
-40.027	40.886	1709.886	1534.779
-39.013	40.851	1707.761	1532.544
-37.998	40.838	1706.050	1530.849
-36.984	40.990	1704.747	1530.785
-35.969	41.146	1702.499	1529.905
-34.954	41.112	1700.961	1528.206
-33.940	41.101	1698.715	1526.042
-32.925	40.966	1697.319	1523.691
-31.911	41.019	1695.449	1522.357
-30.896	41.002	1694.214	1521.059
-29.881	41.060	1692.073	1519.521
-28.867	41.031	1690.050	1517.423
-27.852	40.976	1688.707	1515.732
-26.838	41.034	1687.201	1514.765
-25.823	41.073	1685.524	1513.498
-24.809	41.102	1684.415	1512.662
-23.794	41.035	1682.845	1510.679
-22.779	41.075	1681.430	1509.658
-21.765	40.982	1679.655	1507.294
-20.750	40.993	1678.065	1505.896
-19.736	41.077	1676.738	1505.275
-18.721	41.001	1675.362	1503.406
-17.706	41.052	1673.461	1502.031
-16.692	41.067	1671.382	1500.220
-15.677	40.945	1670.230	1498.206
-14.663	41.062	1669.008	1497.925
-13.648	41.000	1667.563	1496.107
-12.633	40.953	1666.478	1494.719
-11.619	41.023	1664.254	1493.188
-10.604	40.978	1662.842	1491.525
-9.590	41.027	1661.582	1490.703
-8.575	41.060	1660.213	1489.662
-7.560	41.106	1658.899	1488.774
-6.546	40.999	1658.080	1487.174
-5.531	41.055	1656.900	1486.478
-4.517	41.011	1655.070	1484.446
-3.502	41.030	1653.981	1483.557
-2.487	41.018	1652.978	1482.508
-1.473	41.098	1641.926	1473.127
-0.458	39.067	1622.711	1440.955
0.556	33.612	1621.881	1407.056
1.571	30.905	1646.435	1407.807
2.586	30.140	1660.227	1413.647
3.600	26.226	1604.716	1337.342
4.615	13.807	1481.548	1149.127
5.629	2.516	1405.392	1015.432
6.644	0.410	1394.404	993.540
7.659	0.206	1393.659	991.579
8.673	0.094	1392.325	989.808
9.688	0.120	1390.389	988.515
10.702	-0.174	1387.648	984.551
11.717	3.675	1395.938	1015.693
12.731	14.971	1418.885	1107.456
13.746	22.944	1431.829	1170.500
14.761	23.553	1431.552	1174.202
15.775	23.646	1430.702	1174.020
16.790	23.577	1430.743	1173.494
17.804	23.721	1429.880	1173.635
18.819	23.996	1429.306	1174.876
19.834	24.014	1428.627	1174.330
20.848	23.898	1428.196	1173.106
21.863	23.871	1427.373	1172.150
22.877	23.822	1426.334	1170.873
23.892	23.894	1425.308	1170.395
24.907	23.898	1425.024	1170.086
25.921	24.018	1423.552	1169.564
26.936	23.940	1422.732	1168.273
27.950	23.971	1421.610	1167.454
28.965	23.924	1420.208	1165.891
29.980	23.945	1419.039	1164.966
30.994	23.955	1417.465	1163.637
32.009	23.978	1416.486	1162.880
33.023	23.953	1415.499	1161.803
34.038	24.009	1413.985	1160.824
35.053	24.046	1413.230	1160.342
36.067	24.037	1411.908	1159.095
37.082	23.894	1411.417	1157.656
38.096	23.901	1409.836	1156.300
39.111	23.950	1409.518	1156.260
40.126	24.021	1408.340	1155.654
41.140	23.966	1407.703	1154.671
42.155	23.828	1408.196	1154.077
43.169	24.038	1407.584	1154.833
44.184	23.957	1407.208	1153.897
45.199	23.879	1406.910	1153.043
46.213	23.954	1406.059	1152.734
47.228	23.986	1405.313	1152.229
48.242	23.993	1404.075	1151.156
49.257	23.982	1402.261	1149.493
50.271	23.929	1401.428	1148.365
51.286	23.898	1399.831	1146.761
52.301	23.959	1398.021	1145.564
53.315	23.987	1397.403	1145.137
54.330	23.952	1396.915	1144.411
55.344	23.920	1396.265	1143.573
56.359	23.918	1394.428	1141.954
57.374	23.912	1393.966	1141.438
58.388	23.956	1393.360	1141.122
59.403	24.084	1392.570	1141.193
60.417	23.933	1392.800	1140.312
61.432	23.974	1391.121	1139.099
62.447	23.947	1390.416	1138.248
63.461	24.025	1389.280	1137.717
64.476	23.879	1388.578	1136.108
65.490	24.043	1386.957	1135.730
66.505	24.065	1385.264	1134.385
67.520	23.877	1384.589	1132.533
68.534	23.981	1383.301	1132.041
69.549	24.008	1382.259	1131.257
70.563	24.039	1381.325	1130.588
71.578	23.939	1380.302	1129.021
72.593	23.891	1379.364	1127.845
73.607	23.918	1378.598	1127.290
74.622	23.979	1377.896	1127.005
75.636	23.970	1377.423	1126.461
76.651	23.968	1376.577	1125.654
77.666	24.001	1375.946	1125.250
78.680	23.939	1376.002	1124.807
79.695	23.946	1374.797	1123.767
80.709	24.025	1373.651	1123.228
81.724	23.959	1373.088	1122.250
82.739	23.876	1371.998	1120.737
83.753	23.884	1370.847	1119.749
84.768	23.935	1369.719	1119.049
85.782	23.969	1368.754	1118.372
86.797	23.969	1367.472	1117.230
87.812	23.965	1366.053	1115.948
88.826	24.036	1365.128	1115.535
89.841	24.020	1363.920	1114.348
90.855	23.942	1363.394	1113.335
91.870	23.988	1362.529	1112.814
92.884	23.927	1361.725	1111.682
93.899	23.990	1360.598	1111.052
94.914	23.977	1360.079	1110.448
95.928	23.968	1359.307	1109.667
96.943	24.010	1358.728	1109.359
97.957	23.994	1357.697	1108.320
98.972	23.980	1356.977	1107.548
99.987	24.033	1355.917	1106.914
101.001	23.985	1354.775	1105.585
102.016	23.949	1354.427	1104.978
103.030	24.028	1353.035	1104.238
104.045	24.040	1352.270	1103.584
105.060	23.943	1351.405	1102.180
106.074	23.912	1350.756	1101.363
107.089	23.928	1349.768	1100.562
108.103	23.968	1348.427	1099.617
109.118	24.183	1346.710	1099.443
110.133	24.143	1345.552	1098.153
111.147	24.162	1344.063	1096.963
112.162	24.080	1343.571	1095.959
113.176	24.018	1342.682	1094.755
114.191	24.133	1341.596	1094.478
115.206	24.099	1340.893	1093.602
116.220	24.009	1339.705	1091.980
117.235	24.071	1338.572	1091.342
118.249	24.099	1337.649	1090.665
119.264	24.019	1336.983	1089.532
120.279	24.107	1336.024	1089.197
121.293	24.094	1334.851	1088.063
122.308	24.129	1333.997	1087.485
123.322	24.157	1333.406	1087.076
124.337	24.125	1332.565	1086.099
125.352	24.185	1331.864	1085.799
126.366	24.115	1330.598	1084.247
127.381	24.185	1329.721	1083.857
128.395	24.172	1328.701	1082.850
129.410	24.126	1327.820	1081.758
130.424	24.100	1327.309	1081.091
131.439	24.122	1326.190	1080.215
132.454	24.124	1325.482	1079.558
133.468	24.269	1324.794	1079.781
134.483	24.012	1324.556	1077.932
135.497	24.188	1323.099	1077.715
136.512	24.160	1322.199	1076.716
137.527	24.125	1321.654	1075.968
138.541	24.163	1319.992	1074.748
139.556	24.064	1319.324	1073.513
140.570	24.099	1317.970	1072.526
141.585	24.151	1316.499	1071.551
142.600	24.075	1315.642	1070.300
143.614	24.153	1314.662	1069.872
144.629	24.086	1314.272	1069.059
145.643	24.051	1312.834	1067.590
146.658	24.074	1311.803	1066.795
147.673	24.043	1310.950	1065.821
148.687	23.945	1310.293	1064.601
149.702	23.978	1308.971	1063.633
150.716	24.048	1307.837	1063.038
151.731	24.121	1306.288	1062.118
152.746	24.015	1305.835	1061.021
153.760	24.006	1304.834	1060.061
154.775	24.183	1303.176	1059.676
155.789	24.141	1302.458	1058.745
156.804	24.086	1301.969	1057.931
157.819	24.166	1300.476	1057.097
158.833	24.053	1299.801	1055.787
159.848	24.060	1299.273	1055.305
160.862	24.167	1298.328	1055.075
161.877	24.116	1297.481	1053.995
162.892	24.177	1296.944	1053.823
163.906	24.129	1296.229	1052.869
164.921	24.175	1295.333	1052.315
165.935	24.211	1294.328	1051.618
166.950	24.255	1293.725	1051.299
167.964	24.134	1293.516	1050.318
168.979	24.223	1292.817	1050.186
169.994	24.249	1292.364	1049.875
171.008	24.259	1291.100	1048.814
172.023	24.154	1290.940	1047.976
173.037	24.364	1289.511	1047.959
174.052	24.212	1288.733	1046.338
175.067	24.146	1288.194	1045.418
176.081	24.267	1287.217	1045.248
177.096	24.243	1286.527	1044.454
178.110	24.232	1285.422	1043.398
179.125	24.207	1284.691	1042.567
180.140	24.214	1283.584	1041.617
181.154	24.178	1282.310	1040.279
182.169	24.226	1281.180	1039.554
183.183	24.200	1280.267	1038.570
184.198	24.121	1279.749	1037.596
185.213	24.276	1278.078	1037.052
186.227	24.349	1277.166	1036.642
187.242	24.238	1276.281	1035.186
188.256	24.383	1275.438	1035.253
189.271	24.296	1274.892	1034.212
190.286	24.265	1274.220	1033.401
191.300	24.219	1273.764	1032.671
192.315	24.201	1272.653	1031.573
193.329	24.287	1272.599	1031.936
194.344	24.353	1271.896	1031.658
195.359	24.257	1271.678	1030.835
196.373	24.368	1271.002	1030.837
197.388	24.216	1270.608	1029.547
198.402	24.364	1269.862	1029.706
199.417	24.390	1269.521	1029.486
200.432	24.361	1268.907	1028.732
201.446	24.314	1268.448	1027.998
202.461	24.311	1267.969	1027.500
203.475	24.378	1266.570	1026.664
204.490	24.336	1265.502	1025.465
205.504	24.295	1264.860	1024.618
206.519	24.444	1264.029	1024.711
207.534	24.378	1262.848	1023.281
208.548	24.485	1261.743	1022.908
209.563	24.349	1261.120	1021.535
210.577	24.325	1260.437	1020.755
211.592	24.357	1259.668	1020.223
212.607	24.446	1258.746	1019.897
213.621	24.507	1258.112	1019.643
214.636	24.468	1257.098	1018.509
215.650	24.532	1255.700	1017.650
216.665	24.338	1255.459	1016.255
217.680	24.391	1254.467	1015.664
218.694	24.360	1253.902	1014.944
219.709	24.461	1253.035	1014.725
220.723	24.394	1251.984	1013.404
221.738	24.447	1251.566	1013.279
222.753	24.447	1250.754	1012.529
223.767	24.450	1250.067	1011.901
224.782	24.486	1250.066	1012.015
225.796	24.456	1249.353	1011.178
226.811	24.469	1248.970	1010.852
227.826	24.522	1247.988	1010.270
228.840	24.547	1247.358	1009.810
229.855	24.482	1246.613	1008.752
230.869	24.456	1246.172	1008.155
231.884	24.538	1244.995	1007.579
232.899	24.436	1244.763	1006.727
233.913	24.568	1243.874	1006.659
234.928	24.598	1243.404	1006.361
235.942	24.525	1242.870	1005.431
236.957	24.480	1241.888	1004.294
237.972	24.534	1241.010	1003.798
238.986	24.601	1240.374	1003.568
240.001	24.743	1239.807	1003.817
241.015	24.664	1239.209	1002.804
242.030	24.758	1237.840	1002.131
243.045	24.700	1237.663	1001.578
244.059	24.690	1236.474	1000.471
245.074	24.761	1235.905	1000.320
246.088	24.828	1235.109	999.958
247.103	24.779	1234.495	999.102
248.117	24.706	1233.894	998.121
249.132	24.756	1232.566	997.234
250.147	24.708	1231.846	996.299
251.161	24.856	1230.956	996.314
252.176	24.756	1230.584	995.367
253.190	24.696	1230.227	994.655
254.205	24.797	1229.440	994.494
255.220	24.828	1228.805	994.067
256.234	24.792	1228.256	993.334
257.249	24.761	1227.802	992.703
258.263	24.755	1226.863	991.823
259.278	24.748	1226.651	991.528
260.293	24.797	1225.627	990.880
261.307	24.767	1225.141	990.234
262.322	24.718	1224.906	989.688
263.336	24.787	1224.320	989.505
264.351	24.832	1223.290	988.836
265.366	24.825	1223.037	988.506
266.380	24.918	1221.696	987.849
267.395	24.860	1221.401	987.200
268.409	24.795	1221.177	986.573
269.424	24.812	1220.600	986.113
270.439	24.826	1219.811	985.469
271.453	24.944	1218.684	985.118
272.468	24.742	1218.187	983.519
273.482	24.820	1217.496	983.302
274.497	24.837	1217.188	983.061
275.512	24.940	1216.311	982.830
276.526	24.978	1215.462	982.266
277.541	24.953	1214.824	981.529
278.555	24.936	1214.214	980.853
279.570	25.002	1213.197	980.304
280.585	24.955	1212.584	979.466
281.599	24.983	1211.709	978.829
282.614	24.985	1211.007	978.183
283.628	24.912	1210.152	977.010
284.643	24.938	1209.181	976.277
285.657	24.966	1208.347	975.672
286.672	24.913	1207.665	974.747
287.687	24.958	1206.781	974.191
288.701	25.059	1205.882	973.928
289.716	25.034	1205.297	973.234
290.730	25.058	1204.274	972.454
291.745	25.020	1204.080	972.002
292.760	25.061	1203.507	971.676
293.774	25.132	1203.054	971.609
294.789	25.172	1202.495	971.290
295.803	25.145	1201.848	970.534
296.818	25.026	1200.879	969.025
297.833	25.099	1200.417	968.961
298.847	25.160	1199.504	968.465
299.862	25.096	1198.762	967.438
300.876	25.088	1198.315	966.945
301.891	25.105	1197.802	966.538
302.906	25.319	1196.657	966.684
303.920	25.237	1196.268	965.843
304.935	25.167	1195.689	964.910
305.949	25.323	1194.920	965.043
306.964	25.225	1194.467	964.065
307.979	25.299	1193.431	963.540
308.993	25.253	1193.159	962.987
310.008	25.314	1192.402	962.621
311.022	25.280	1192.121	962.127
312.037	25.300	1190.908	961.170
313.052	25.366	1189.697	960.462
314.066	25.240	1189.070	959.195
315.081	25.377	1188.141	959.091
316.095	25.282	1187.864	958.278
317.110	25.438	1186.813	958.178
318.125	25.375	1186.544	957.541
319.139	25.295	1186.020	956.606
320.154	25.353	1185.212	956.178
321.168	25.373	1185.010	956.036
322.183	25.335	1184.268	955.150
323.197	25.368	1183.243	954.413
324.212	25.385	1182.561	953.871
325.227	25.367	1182.368	953.535
326.241	25.450	1182.020	953.610
327.256	25.518	1180.819	952.915
328.270	25.364	1180.214	951.528
329.285	25.422	1179.429	951.122
330.300	25.526	1178.296	950.673
331.314	25.524	1177.261	949.743
332.329	25.539	1176.636	949.235
333.343	25.506	1176.100	948.541
334.358	25.472	1175.259	947.601
335.373	25.505	1174.731	947.264
336.387	25.584	1173.886	946.913
337.402	25.544	1173.384	946.217
338.416	25.645	1172.507	945.958
339.431	25.536	1171.876	944.789
340.446	25.669	1171.167	944.833
341.460	25.582	1170.590	943.828
342.475	25.587	1170.166	943.427
343.489	25.539	1169.024	942.174
344.504	25.659	1168.041	941.929
345.519	25.597	1167.173	940.821
346.533	25.664	1166.333	940.410
347.548	25.695	1165.923	940.158
348.562	25.769	1164.810	939.564
349.577	25.741	1164.249	938.881
350.592	25.667	1163.397	937.724
351.606	25.536	1162.996	936.634
352.621	25.679	1162.280	936.721
353.635	25.671	1161.689	936.118
354.650	25.673	1161.149	935.613
355.665	25.730	1160.285	935.131
356.679	25.763	1159.637	934.696
357.694	25.747	1159.066	934.070
358.708	25.779	1158.446	933.656
359.723	25.699	1157.908	932.723
360.738	25.682	1157.687	932.374
361.752	25.788	1156.862	932.177
362.767	25.872	1155.947	931.789
363.781	25.836	1155.678	931.307
364.796	25.791	1155.185	930.595
365.810	25.855	1154.399	930.207
366.825	25.824	1153.769	929.457
367.840	25.940	1153.173	929.496
368.854	25.999	1152.635	929.283
369.869	26.038	1151.722	928.662
370.883	26.031	1150.825	927.822
371.898	25.963	1150.354	927.014
372.913	25.901	1149.827	926.183
373.927	25.871	1149.589	925.759
374.942	25.950	1148.640	925.319
375.956	25.954	1148.284	924.969
376.971	26.027	1147.606	924.713
377.986	25.962	1146.943	923.767
379.000	25.917	1146.841	923.371
380.015	26.041	1145.894	923.164
381.029	25.979	1145.551	922.490
382.044	26.021	1144.467	921.749
383.059	26.185	1143.826	921.986
384.073	26.103	1143.172	920.962
385.088	26.130	1142.235	920.263
386.102	26.064	1141.143	918.964
387.117	25.986	1140.764	918.178
388.132	26.061	1139.769	917.679
389.146	26.145	1138.933	917.350
390.161	26.075	1138.780	916.792
391.175	26.156	1137.969	916.470
392.190	26.177	1136.824	915.572
393.205	26.104	1136.344	914.733
394.219	26.263	1135.363	914.669
395.234	26.183	1134.882	913.798
396.248	26.167	1134.039	912.958
397.263	26.294	1132.927	912.620
398.278	26.194	1132.701	911.854
399.292	26.282	1131.802	911.492
400.307	26.310	1131.308	911.157
401.321	26.173	1130.991	910.130
402.336	26.254	1130.320	909.914
403.350	26.225	1129.426	908.973
404.365	26.220	1128.865	908.416
405.380	26.233	1128.350	907.981
406.394	26.321	1127.379	907.563
407.409	26.369	1126.665	907.149
408.423	26.422	1125.857	906.685
409.438	26.452	1124.928	906.005
410.453	26.409	1124.262	905.176
411.467	26.419	1123.660	904.661
412.482	26.506	1122.307	903.924
413.496	26.559	1121.896	903.780
414.511	26.509	1121.624	903.228
415.526	26.558	1120.937	902.844
416.540	26.545	1120.622	902.442
417.555	26.494	1120.297	901.848
418.569	26.495	1119.486	901.122
419.584	26.633	1119.185	901.486
420.599	26.535	1118.882	900.672
421.613	84.813	1298.404	1368.447
422.628	79.786	1324.544	1368.584
