DTS Sentinel unit serial number:	SN413079Multiplexer serial number:	ORYXHardware model number:	OX4-SRSoftware version number:	ORYX F/W v4.00 Oryx Data Collector v3.7.2.0data status	okinstallation	princeton_trtdifferential loss correction	single-endedforward channel	channel 2reverse channel	N/Adate	2019/09/15time	02:39:34forward acquisition time	60.00reverse acquisition time	0.00gamma	496.2192k internal	0.2326k external	0.2326temperature offset calibration	1.0030default loss term (dB/km)	0.3790temperature slope calibration	1.0000multiplexer offset coefficient	1.0000multiplexer slope coefficient	1.0000fibre end	0.00T internal ref (°C)	31.44T ext. ref 1 (°C)	4.57T ext. ref 2 (°C)	25.86length (m)	temperature (°C)	Stokes	anti-Stokes-747.200	800.000	-0.053	0.175
-746.185	104.311	0.191	-0.227
-745.171	171.264	0.085	0.122
-744.156	-67.553	-0.549	0.217
-743.142	-76.996	0.309	-0.109
-742.127	-200.000	0.022	0.124
-741.112	-178.537	-0.219	0.005
-740.098	-129.594	0.251	-0.035
-739.083	230.964	0.134	0.221
-738.069	-68.023	0.154	-0.061
-737.054	800.000	-0.067	-0.215
-736.039	185.386	-0.228	-0.342
-735.025	800.000	-0.087	-0.248
-734.010	-163.630	0.170	0.008
-732.996	-71.565	-0.131	0.049
-731.981	247.655	-0.080	0.137
-730.966	301.671	0.080	0.148
-729.952	8.361	-0.460	-0.349
-728.937	-122.723	-0.300	-0.049
-727.923	339.713	0.126	-0.248
-726.908	-135.486	-0.201	-0.024
-725.894	38.186	-0.227	-0.203
-724.879	800.000	0.034	0.137
-723.864	251.818	0.031	0.053
-722.850	-200.000	0.000	0.100
-721.835	-97.569	-0.149	-0.039
-720.821	-120.166	-0.068	0.012
-719.806	-200.000	-0.004	-0.034
-718.791	-200.000	-0.067	-0.357
-717.777	800.000	0.025	-0.086
-716.762	138.825	-0.171	-0.226
-715.748	-170.466	0.301	0.011
-714.733	-200.000	-0.000	-0.114
-713.718	749.645	-0.038	0.105
-712.704	57.451	0.174	-0.171
-711.689	800.000	-0.012	0.049
-710.675	800.000	-0.077	-0.253
-709.660	159.329	-0.092	-0.129
-708.645	35.116	-0.098	0.086
-707.631	800.000	-0.090	0.267
-706.616	-116.451	0.338	0.063
-705.602	-27.261	0.217	-0.127
-704.587	-200.000	0.040	-0.247
-703.572	-61.015	0.239	0.102
-702.558	-200.000	0.077	0.382
-701.543	-91.152	0.270	-0.078
-700.529	-200.000	-0.007	-0.120
-699.514	172.276	0.188	0.273
-698.499	7.342	-0.196	-0.148
-697.485	-42.864	0.219	-0.112
-696.470	2.557	0.098	0.072
-695.456	800.000	-0.119	-0.372
-694.441	-191.368	-0.314	-0.003
-693.426	-200.000	0.004	0.212
-692.412	-148.287	-0.296	-0.025
-691.397	275.063	0.115	0.205
-690.383	265.921	-0.212	0.373
-689.368	83.140	-0.130	-0.143
-688.354	3.026	-0.232	-0.170
-687.339	-86.663	0.131	-0.040
-686.324	-44.476	-0.160	-0.081
-685.310	800.000	-0.078	0.321
-684.295	92.329	0.155	0.175
-683.281	800.000	0.024	-0.083
-682.266	-41.269	-0.164	-0.085
-681.251	-138.843	-0.209	-0.023
-680.237	-58.815	-0.111	0.048
-679.222	-200.000	0.030	-0.322
-678.208	-64.449	-0.062	-0.025
-677.193	5.163	-0.321	0.238
-676.178	40.730	-0.264	0.239
-675.164	-50.552	-0.207	0.098
-674.149	-168.994	0.175	0.007
-673.135	-87.039	0.271	-0.083
-672.120	23.377	0.065	-0.054
-671.105	613.298	-0.016	0.041
-670.091	-13.570	-0.096	-0.063
-669.076	-134.910	0.241	0.029
-668.062	145.742	-0.144	-0.194
-667.047	-122.776	-0.180	-0.029
-666.032	424.010	0.071	-0.154
-665.018	-200.000	-0.012	0.252
-664.003	-200.000	0.018	-0.183
-662.989	-102.143	-0.173	-0.042
-661.974	800.000	-0.108	-0.400
-660.959	63.156	-0.302	-0.304
-659.945	-200.000	-0.016	0.222
-658.930	-43.499	0.104	-0.053
-657.916	138.488	0.149	-0.196
-656.901	800.000	0.145	0.434
-655.886	23.063	-0.214	-0.177
-654.872	771.106	-0.116	-0.319
-653.857	-169.113	-0.295	0.011
-652.843	147.171	0.202	0.274
-651.828	-87.696	0.122	0.037
-650.814	-5.744	0.151	-0.104
-649.799	-25.903	0.265	0.157
-648.784	24.475	0.089	-0.074
-647.770	250.564	0.163	0.278
-646.755	-21.536	0.428	-0.262
-645.741	-63.071	-0.306	0.127
-644.726	111.014	-0.140	0.169
-643.711	800.000	-0.078	0.256
-642.697	115.175	-0.102	0.125
-641.682	102.618	0.082	0.096
-640.668	99.214	0.174	0.202
-639.653	271.643	-0.051	0.090
-638.638	767.357	-0.079	-0.215
-637.624	-101.102	0.167	-0.041
-636.609	17.772	0.274	0.219
-635.595	431.990	-0.195	0.424
-634.580	162.406	0.195	0.275
-633.565	68.724	0.174	0.179
-632.551	-129.518	0.080	0.011
-631.536	-64.782	-0.248	-0.101
-630.522	800.000	0.013	-0.042
-629.507	-140.769	-0.367	0.038
-628.492	-118.971	-0.299	-0.053
-627.478	-68.843	-0.242	0.094
-626.463	800.000	0.063	0.186
-625.449	-74.524	-0.290	0.105
-624.434	123.112	0.096	0.120
-623.419	-149.793	0.276	0.022
-622.405	-147.017	-0.134	-0.012
-621.390	40.212	0.098	0.088
-620.376	-113.731	0.344	0.067
-619.361	197.318	0.019	-0.029
-618.346	-200.000	-0.017	-0.131
-617.332	61.590	0.087	-0.087
-616.317	224.671	0.138	0.224
-615.303	-51.507	0.216	-0.101
-614.288	-86.626	-0.313	-0.096
-613.273	-1.832	-0.121	0.086
-612.259	248.288	0.063	-0.107
-611.244	-111.085	-0.187	-0.039
-610.230	-176.807	0.161	-0.004
-609.215	225.018	-0.111	-0.180
-608.201	73.279	-0.153	-0.160
-607.186	748.752	-0.114	-0.308
-606.171	-73.871	-0.218	-0.079
-605.157	-70.093	0.168	-0.064
-604.142	800.000	0.058	0.227
-603.128	-37.781	-0.240	-0.128
-602.113	-58.274	-0.289	-0.126
-601.098	-200.000	0.016	0.168
-600.084	37.892	0.205	0.183
-599.069	48.657	-0.222	0.209
-598.055	-113.012	-0.092	0.018
-597.040	-67.284	0.097	0.038
-596.025	200.804	0.025	0.039
-595.011	140.377	-0.039	-0.052
-593.996	181.675	-0.167	-0.247
-592.982	297.148	0.112	-0.206
-591.967	332.010	0.133	-0.258
-590.952	134.448	0.126	-0.163
-589.938	-27.055	0.250	0.146
-588.923	215.046	0.107	-0.170
-587.909	40.750	-0.181	0.164
-586.894	62.037	-0.086	0.086
-585.879	-123.208	-0.160	-0.026
-584.865	800.000	0.042	-0.154
-583.850	211.555	0.241	-0.380
-582.836	-113.643	-0.245	-0.048
-581.821	-200.000	0.002	-0.280
-580.806	-60.178	-0.172	0.074
-579.792	-200.000	-0.003	-0.067
-578.777	764.848	0.076	0.208
-577.763	-200.000	0.025	-0.301
-576.748	10.640	-0.159	0.121
-575.733	-200.000	0.037	0.210
-574.719	43.486	-0.235	-0.215
-573.704	-200.000	0.048	0.260
-572.690	-45.790	0.106	-0.053
-571.675	31.523	-0.177	-0.153
-570.661	321.487	0.147	0.280
-569.646	-61.572	0.187	0.079
-568.631	22.041	0.045	0.037
-567.617	350.133	-0.079	0.157
-566.602	-1.254	-0.136	-0.096
-565.588	571.036	-0.115	0.282
-564.573	211.859	-0.173	-0.273
-563.558	319.493	-0.048	0.092
-562.544	255.693	0.127	0.217
-561.529	-171.693	0.083	0.003
-560.515	114.284	0.088	0.107
-559.500	800.000	-0.066	0.201
-558.485	309.395	0.096	-0.180
-557.471	213.308	0.120	-0.190
-556.456	596.877	0.038	0.094
-555.442	800.000	-0.032	-0.128
-554.427	-16.655	-0.207	0.131
-553.412	800.000	-0.084	0.308
-552.398	167.500	-0.072	-0.102
-551.383	-200.000	0.017	0.243
-550.369	-200.000	0.021	-0.114
-549.354	359.668	-0.079	0.158
-548.339	-175.301	0.192	-0.005
-547.325	-93.123	-0.543	-0.151
-546.310	43.581	-0.244	-0.223
-545.296	-151.052	-0.151	-0.011
-544.281	800.000	-0.023	-0.102
-543.266	657.654	0.016	-0.042
-542.252	-39.012	-0.213	-0.112
-541.237	51.244	-0.272	0.259
-540.223	97.539	0.206	-0.237
-539.208	-200.000	-0.002	-0.249
-538.193	-200.000	0.005	-0.250
-537.179	800.000	-0.069	-0.203
-536.164	-9.046	0.003	-0.002
-535.150	113.434	0.122	0.148
-534.135	-130.055	-0.149	-0.020
-533.121	-200.000	0.029	-0.264
-532.106	-200.000	0.023	0.169
-531.091	-105.607	-0.247	0.056
-530.077	-57.978	-0.177	-0.078
-529.062	-136.678	-0.221	0.026
-528.048	-105.164	-0.174	-0.040
-527.033	-95.969	0.132	0.035
-526.018	91.375	0.202	-0.227
-525.004	144.651	-0.077	-0.103
-523.989	644.345	-0.138	0.351
-522.975	-65.313	0.431	0.173
-521.960	-134.158	0.105	0.013
-520.945	-200.000	0.008	-0.075
-519.931	-63.494	0.107	0.044
-518.916	-36.770	-0.121	0.065
-517.902	-200.000	-0.017	0.127
-516.887	-122.901	0.170	-0.027
-515.872	-200.000	0.038	0.208
-514.858	120.024	-0.104	0.129
-513.843	-200.000	-0.017	-0.112
-512.829	-134.114	0.157	0.019
-511.814	-74.329	-0.142	0.051
-510.799	-35.087	0.135	0.073
-509.785	-200.000	0.019	-0.085
-508.770	-97.556	0.173	0.045
-507.756	-98.034	0.219	-0.056
-506.741	800.000	-0.038	-0.135
-505.726	-83.164	-0.202	-0.065
-504.712	-110.454	-0.211	-0.044
-503.697	-64.588	-0.158	0.064
-502.683	-200.000	-0.011	-0.237
-501.668	114.793	-0.174	0.212
-500.653	153.449	-0.061	0.084
-499.639	148.829	-0.098	-0.132
-498.624	-200.000	-0.023	0.162
-497.610	-87.472	0.193	-0.058
-496.595	-132.152	0.294	0.038
-495.581	-200.000	0.024	-0.263
-494.566	-200.000	-0.015	-0.170
-493.551	-35.997	-0.089	0.048
-492.537	-86.302	-0.030	-0.009
-491.522	22.210	0.201	-0.164
-490.508	-116.204	0.175	0.032
-489.493	682.741	0.100	0.260
-488.478	800.000	0.078	-0.260
-487.464	4.586	-0.086	-0.063
-486.449	-200.000	0.012	-0.111
-485.435	-93.258	-0.303	0.084
-484.420	-161.950	0.243	-0.012
-483.405	-18.821	0.159	0.099
-482.391	-200.000	0.010	0.265
-481.376	-47.833	-0.072	0.035
-480.362	-104.298	0.371	0.086
-479.347	-200.000	0.026	-0.222
-478.332	-28.250	0.276	0.159
-477.318	262.749	0.077	0.134
-476.303	19.119	-0.180	-0.144
-475.289	-0.658	-0.141	0.100
-474.274	-75.506	-0.247	-0.088
-473.259	81.243	0.247	-0.266
-472.245	79.583	0.009	-0.009
-471.230	305.789	0.062	0.115
-470.216	-200.000	0.018	-0.086
-469.201	-200.000	0.013	0.250
-468.186	-200.000	-0.058	0.365
-467.172	511.705	0.122	-0.284
-466.157	-126.535	0.065	0.010
-465.143	-22.372	-0.141	0.085
-464.128	374.757	-0.043	-0.088
-463.113	-97.167	0.157	0.041
-462.099	-200.000	0.005	0.036
-461.084	124.425	-0.120	0.150
-460.070	-48.560	0.149	0.071
-459.055	-133.460	-0.167	0.021
-458.040	-200.000	-0.036	0.450
-457.026	-200.000	0.066	-0.301
-456.011	183.915	0.108	0.160
-454.997	-200.000	-0.045	-0.199
-453.982	-158.172	-0.029	0.002
-452.968	-43.203	0.096	0.048
-451.953	-200.000	-0.026	-0.286
-450.938	240.855	-0.063	-0.105
-449.924	85.904	-0.081	-0.089
-448.909	1.737	-0.048	0.034
-447.895	129.286	-0.150	-0.191
-446.880	-200.000	-0.039	0.326
-445.865	800.000	0.116	0.349
-444.851	168.832	0.050	0.072
-443.836	-200.000	0.016	0.255
-442.822	1.613	0.190	0.136
-441.807	103.752	-0.069	-0.080
-440.792	-47.986	0.278	-0.134
-439.778	-51.034	0.206	0.096
-438.763	-200.000	0.019	-0.257
-437.749	-200.000	0.002	0.053
-436.734	-117.566	0.229	0.041
-435.719	800.000	-0.054	0.195
-434.705	-200.000	0.027	0.160
-433.690	115.967	-0.218	0.266
-432.676	552.961	-0.117	0.279
-431.661	-7.448	0.187	-0.126
-430.646	-200.000	-0.013	-0.295
-429.632	-200.000	-0.050	-0.278
-428.617	-26.631	-0.297	-0.173
-427.603	-139.752	-0.057	-0.006
-426.588	154.657	-0.173	0.237
-425.573	82.061	0.171	-0.185
-424.559	-200.000	0.038	-0.213
-423.544	-52.754	0.242	0.111
-422.530	-200.000	-0.008	-0.158
-421.515	-200.000	-0.007	-0.057
-420.500	28.153	0.175	0.147
-419.486	4.165	0.386	-0.282
-418.471	516.844	-0.038	-0.088
-417.457	15.171	0.010	0.008
-416.442	-132.509	0.261	-0.033
-415.428	28.804	0.230	-0.194
-414.413	-93.595	-0.023	0.006
-413.398	289.302	-0.245	-0.443
-412.384	-55.962	-0.161	-0.072
-411.369	26.049	0.160	-0.133
-410.355	-67.154	0.091	0.036
-409.340	103.307	0.044	-0.051
-408.325	-200.000	0.008	-0.134
-407.311	-115.638	0.157	-0.029
-406.296	-135.639	0.318	-0.038
-405.282	92.230	-0.168	0.189
-404.267	35.668	0.192	0.167
-403.252	-150.366	0.123	0.009
-402.238	-94.682	-0.177	-0.048
-401.223	-77.874	0.057	0.020
-400.209	199.633	-0.070	-0.107
-399.194	-200.000	-0.002	-0.082
-398.179	-74.842	-0.348	0.124
-397.165	-36.841	0.217	0.116
-396.150	122.057	0.044	0.055
-395.136	-200.000	-0.016	-0.083
-394.121	405.369	-0.144	-0.302
-393.106	3.247	0.087	0.063
-392.092	800.000	0.058	0.239
-391.077	-200.000	-0.014	0.198
-390.063	11.775	-0.106	-0.081
-389.048	-138.866	-0.243	0.026
-388.033	-200.000	-0.020	0.321
-387.019	12.870	0.276	-0.213
-386.004	337.673	-0.162	0.314
-384.990	24.529	-0.041	0.034
-383.975	-74.251	-0.231	0.083
-382.960	-108.076	0.177	-0.038
-381.946	251.438	-0.096	-0.163
-380.931	203.082	0.122	-0.187
-379.917	676.592	-0.040	0.104
-378.902	52.202	-0.208	-0.197
-377.888	-144.221	-0.367	-0.034
-376.873	800.000	0.015	0.046
-375.858	800.000	0.034	-0.109
-374.844	-177.963	-0.235	-0.006
-373.829	-59.533	-0.426	-0.182
-372.815	658.784	0.109	-0.279
-371.800	300.556	0.271	0.498
-370.785	-31.799	0.055	-0.031
-369.771	-200.000	-0.036	-0.265
-368.756	115.647	0.116	-0.141
-367.742	205.689	-0.079	-0.123
-366.727	-106.338	0.201	0.045
-365.712	-133.824	0.307	0.038
-364.698	-69.211	0.268	-0.102
-363.683	-6.576	-0.191	-0.130
-362.669	4.582	-0.087	-0.064
-361.654	-200.000	0.098	-0.526
-360.639	364.825	-0.136	0.271
-359.625	-200.000	-0.008	-0.302
-358.610	521.121	0.068	-0.157
-357.596	-200.000	-0.052	-0.367
-356.581	12.900	-0.240	-0.185
-355.566	590.164	-0.074	-0.182
-354.552	-200.000	-0.002	0.056
-353.537	-200.000	-0.057	0.402
-352.523	138.888	-0.060	0.079
-351.508	105.880	-0.244	0.287
-350.493	71.214	-0.147	-0.152
-349.479	391.596	-0.095	-0.196
-348.464	-200.000	-0.046	0.257
-347.450	-83.151	0.304	0.097
-346.435	-83.169	0.256	0.082
-345.420	800.000	0.022	0.086
-344.406	-200.000	-0.007	-0.063
-343.391	800.000	-0.051	-0.194
-342.377	-200.000	0.086	-0.374
-341.362	-200.000	0.019	-0.329
-340.348	-98.392	-0.273	-0.069
-339.333	11.668	-0.127	0.096
-338.318	-80.078	-0.383	0.128
-337.304	800.000	-0.086	-0.259
-336.289	800.000	0.102	-0.392
-335.275	557.051	-0.047	-0.112
-334.260	800.000	-0.014	0.056
-333.245	79.241	0.298	-0.317
-332.231	456.790	-0.115	-0.252
-331.216	363.729	0.066	-0.132
-330.202	-76.215	-0.251	0.088
-329.187	-141.755	0.275	0.027
-328.172	18.779	0.064	0.050
-327.158	-76.804	-0.361	-0.125
-326.143	217.649	0.068	0.108
-325.129	143.297	0.084	-0.111
-324.114	-200.000	0.005	0.078
-323.099	322.944	-0.076	0.144
-322.085	-161.994	0.162	-0.008
-321.070	95.037	0.366	0.414
-320.056	141.257	-0.074	0.098
-319.041	-92.008	0.320	-0.090
-318.026	50.849	0.155	0.146
-317.012	-41.782	0.073	-0.037
-315.997	403.146	-0.032	-0.066
-314.983	101.802	-0.394	-0.456
-313.968	11.548	0.162	-0.123
-312.953	97.660	-0.147	-0.168
-311.939	-150.038	-0.128	-0.010
-310.924	-52.085	0.330	-0.152
-309.910	-90.912	-0.219	-0.062
-308.895	-200.000	-0.030	0.147
-307.880	260.308	0.102	0.175
-306.866	-91.707	0.184	-0.052
-305.851	499.862	-0.106	-0.242
-304.837	96.833	0.222	-0.253
-303.822	-35.303	-0.112	-0.061
-302.807	-163.785	0.084	0.004
-301.793	-200.000	-0.023	-0.338
-300.778	72.952	-0.086	0.089
-299.764	221.959	-0.140	-0.224
-298.749	107.135	0.122	0.143
-297.735	8.439	-0.253	0.189
-296.720	-90.704	-0.160	0.046
-295.705	800.000	-0.066	0.191
-294.691	800.000	-0.106	0.403
-293.676	163.965	-0.218	0.304
-292.662	135.050	-0.226	-0.291
-291.647	-42.629	-0.109	-0.055
-290.632	-49.833	0.320	0.150
-289.618	-41.880	-0.284	-0.144
-288.603	-141.293	0.310	-0.031
-287.589	437.801	0.083	0.179
-286.574	-4.080	-0.230	-0.158
-285.559	-50.268	0.060	0.028
-284.545	-200.000	-0.087	-0.519
-283.530	-200.000	0.044	0.244
-282.516	642.412	-0.131	0.332
-281.501	342.844	0.070	0.135
-280.486	352.128	-0.015	-0.029
-279.472	-31.782	-0.114	-0.064
-278.457	191.426	-0.036	0.054
-277.443	-30.354	-0.376	-0.212
-276.428	-200.000	0.047	0.311
-275.413	-200.000	-0.022	0.166
-274.399	4.877	-0.265	0.193
-273.384	20.938	-0.261	0.210
-272.370	800.000	0.100	0.275
-271.355	-12.314	0.114	0.074
-270.340	-97.159	0.217	0.056
-269.326	-31.716	0.216	-0.120
-268.311	-200.000	0.092	0.480
-267.297	-154.503	0.080	-0.005
-266.282	178.718	0.006	0.009
-265.267	-200.000	0.007	-0.209
-264.253	-110.712	0.171	0.035
-263.238	-58.518	-0.158	-0.068
-262.224	800.000	-0.102	0.326
-261.209	-62.415	-0.101	0.042
-260.195	-200.000	0.028	0.233
-259.180	-56.816	0.314	0.137
-258.165	800.000	-0.094	-0.296
-257.151	-74.990	0.199	-0.071
-256.136	800.000	0.076	0.307
-255.122	28.923	-0.192	0.161
-254.107	-6.267	-0.279	-0.189
-253.092	467.959	0.109	-0.242
-252.078	81.493	-0.095	-0.102
-251.063	-200.000	-0.014	0.063
-250.049	-111.338	-0.192	-0.039
-249.034	-200.000	-0.005	0.036
-248.019	-45.112	0.139	-0.069
-247.005	-90.673	0.050	0.014
-245.990	-99.231	-0.079	0.020
-244.976	-99.333	-0.167	-0.042
-243.961	-45.230	0.339	0.166
-242.946	160.295	-0.055	0.075
-241.932	-119.468	-0.165	-0.028
-240.917	-4.600	-0.034	0.023
-239.903	543.575	-0.076	0.180
-238.888	-68.848	0.161	0.061
-237.873	-127.284	0.057	-0.008
-236.859	-169.321	0.381	-0.014
-235.844	142.659	0.240	0.315
-234.830	-200.000	0.008	-0.042
-233.815	-200.000	0.035	-0.202
-232.800	182.093	0.071	0.103
-231.786	-117.296	0.220	0.040
-230.771	4.270	-0.224	0.162
-229.757	-60.440	-0.248	0.104
-228.742	-91.202	-0.070	-0.020
-227.727	-200.000	-0.020	0.231
-226.713	-145.894	-0.246	0.022
-225.698	-18.627	0.164	-0.101
-224.684	-192.577	-0.074	-0.001
-223.669	378.525	0.157	0.317
-222.655	320.844	-0.162	0.303
-221.640	-105.430	-0.173	0.039
-220.625	-200.000	-0.024	0.348
-219.611	-83.647	0.299	-0.094
-218.596	-200.000	-0.043	-0.238
-217.582	-81.867	0.253	-0.082
-216.567	368.504	0.032	0.064
-215.552	800.000	0.013	0.045
-214.538	-74.927	0.187	0.066
-213.523	-200.000	0.001	0.013
-212.509	-52.941	0.116	0.053
-211.494	-200.000	0.006	-0.163
-210.479	-82.891	-0.123	-0.039
-209.465	580.072	-0.075	-0.181
-208.450	-58.125	0.145	-0.062
-207.436	-30.067	0.263	-0.148
-206.421	363.028	0.104	-0.206
-205.406	-36.866	0.130	0.069
-204.392	800.000	0.134	-0.366
-203.377	181.912	-0.170	-0.247
-202.363	-200.000	-0.040	-0.217
-201.348	-200.000	0.012	0.100
-200.333	1.488	-0.144	-0.103
-199.319	-98.489	-0.262	-0.066
-198.304	-138.947	-0.286	-0.031
-197.290	7.015	0.198	-0.146
-196.275	34.581	-0.080	0.069
-195.260	445.319	0.061	-0.132
-194.246	84.603	-0.125	-0.135
-193.231	-200.000	0.052	0.362
-192.217	540.203	0.042	0.099
-191.202	385.075	-0.013	0.026
-190.187	517.816	0.040	-0.093
-189.173	16.975	0.107	-0.084
-188.158	-200.000	-0.010	-0.159
-187.144	-200.000	-0.056	-0.288
-186.129	-101.635	0.031	0.007
-185.114	-62.561	0.146	0.060
-184.100	-54.709	0.138	0.062
-183.085	-151.706	0.191	-0.014
-182.071	409.353	-0.042	0.087
-181.056	-83.010	0.069	-0.022
-180.042	-127.564	-0.345	-0.049
-179.027	-40.974	-0.104	0.053
-178.012	150.463	0.129	-0.173
-176.998	-47.682	-0.311	0.149
-175.983	-90.727	-0.131	0.037
-174.969	800.000	-0.129	-0.380
-173.954	22.496	0.062	0.050
-172.939	193.829	0.255	0.381
-171.925	32.269	-0.136	0.116
-170.910	-16.942	0.314	-0.196
-169.896	-200.000	-0.031	-0.264
-168.881	21.398	0.170	0.137
-167.866	-35.552	0.190	0.102
-166.852	-30.904	-0.035	-0.019
-165.837	-99.251	0.310	0.077
-164.823	205.226	0.215	0.329
-163.808	-58.413	-0.232	-0.099
-162.793	16.887	0.212	0.165
-161.779	-62.567	-0.176	-0.072
-160.764	-200.000	-0.006	-0.183
-159.750	-121.241	0.296	-0.049
-158.735	800.000	-0.085	0.236
-157.720	66.813	-0.245	0.246
-156.706	-35.060	0.249	0.134
-155.691	-200.000	0.060	0.509
-154.677	800.000	-0.071	0.295
-153.662	-62.354	0.125	0.051
-152.647	800.000	-0.119	-0.477
-151.633	224.540	-0.106	0.168
-150.618	372.059	0.190	0.381
-149.604	5.628	-0.266	-0.194
-148.589	800.000	-0.092	0.351
-147.574	10.380	-0.105	-0.079
-146.560	800.000	-0.084	0.333
-145.545	-34.069	0.193	-0.104
-144.531	-42.291	-0.177	-0.089
-143.516	-27.720	-0.158	0.090
-142.502	-58.436	-0.094	0.040
-141.487	-162.238	-0.354	0.017
-140.472	-200.000	-0.000	0.266
-139.458	-103.325	0.053	-0.012
-138.443	-166.090	0.235	0.010
-137.429	-162.612	-0.412	-0.020
-136.414	800.000	0.091	-0.342
-135.399	-124.929	0.295	-0.045
-134.385	-150.576	0.308	0.023
-133.370	83.128	0.309	0.332
-132.356	-6.218	-0.195	0.131
-131.341	724.743	0.055	0.145
-130.326	-5.305	-0.087	-0.059
-129.312	134.813	0.192	0.245
-128.297	-200.000	0.405	-0.002
-127.283	-48.411	0.137	0.065
-126.268	-200.000	0.018	0.132
-125.253	154.102	0.298	0.403
-124.239	-101.709	-0.125	0.030
-123.224	142.509	-0.074	0.097
-122.210	-55.151	0.260	-0.115
-121.195	132.401	-0.072	0.092
-120.180	-33.425	0.294	-0.160
-119.166	17.351	-0.166	0.130
-118.151	754.508	0.080	-0.212
-117.137	156.072	-0.030	-0.041
-116.122	-200.000	0.070	0.334
-115.107	183.911	0.178	0.260
-114.093	800.000	-0.066	0.221
-113.078	-76.360	0.122	-0.042
-112.064	614.740	0.091	0.224
-111.049	95.348	0.220	0.246
-110.034	-15.994	-0.229	0.143
-109.020	61.445	0.185	-0.181
-108.005	-124.479	0.409	0.063
-106.991	-42.681	-0.392	0.196
-105.976	-116.977	-0.033	0.006
-104.962	443.572	0.137	-0.295
-103.947	800.000	0.076	0.324
-102.932	-94.572	0.224	0.060
-101.918	32.272	0.097	0.083
-100.903	-86.898	0.259	-0.078
-99.889	365.652	0.101	0.201
-98.874	-20.879	0.313	-0.189
-97.859	-200.000	-0.008	-0.213
-96.845	-200.000	-0.031	-0.245
-95.830	-200.000	0.072	0.324
-94.816	-200.000	0.001	-0.041
-93.801	-138.061	-0.136	-0.015
-92.786	211.818	-0.053	0.083
-91.772	-123.550	-0.099	-0.016
-90.757	800.000	0.080	0.253
-89.743	313.072	0.051	-0.094
-88.728	75.241	-0.121	-0.125
-87.713	-102.957	-0.216	0.050
-86.699	84.302	-0.182	-0.196
-85.684	-166.879	-0.193	-0.008
-84.670	-5.129	0.128	-0.086
-83.655	-60.416	0.345	-0.144
-82.640	-7.643	0.071	-0.047
-81.626	15.546	0.237	-0.183
-80.611	26.085	0.200	-0.164
-79.597	-13.224	0.073	-0.047
-78.582	-44.497	0.214	-0.105
-77.567	-80.426	-0.209	0.068
-76.553	-110.619	0.285	0.058
-75.538	-101.203	0.175	0.042
-74.524	-200.000	0.027	-0.116
-73.509	214.780	-0.067	-0.104
-72.494	800.000	-0.085	0.279
-71.480	-200.000	-0.025	0.156
-70.465	262.785	0.075	0.128
-69.451	-200.000	-0.027	-0.213
-68.436	-26.414	0.251	-0.145
-67.422	-185.098	-0.122	-0.002
-66.407	8.934	-0.472	-0.349
-65.392	-200.000	-0.030	-0.335
-64.378	82.762	0.148	-0.158
-63.363	360.602	-0.094	0.185
-62.349	-30.711	-0.338	0.188
-61.334	62.689	-1.030	-1.011
-60.319	131.574	0.430	0.542
-59.305	799.523	-0.300	-0.812
-58.290	235.342	0.663	1.076
-57.276	342.285	0.653	1.255
-56.261	-200.000	99.443	606.366
-55.246	609.283	1396.476	3423.861
-54.232	193.673	2585.373	3842.056
-53.217	111.885	2271.518	2693.265
-52.203	40.902	1895.373	1679.321
-51.188	34.756	1685.067	1446.576
-50.173	32.011	1641.348	1388.710
-49.159	49.963	1689.892	1564.914
-48.144	51.434	1705.922	1590.728
-47.130	34.276	1666.035	1426.419
-46.115	31.613	1651.638	1394.233
-45.100	31.337	1647.242	1388.414
-44.086	31.376	1644.366	1386.225
-43.071	31.426	1641.641	1384.241
-42.057	31.295	1639.225	1381.183
-41.042	31.284	1637.327	1379.445
-40.027	31.382	1635.275	1378.391
-39.013	31.383	1633.269	1376.647
-37.998	31.369	1631.680	1375.153
-36.984	31.372	1630.199	1373.874
-35.969	31.449	1629.225	1373.564
-34.954	31.479	1627.415	1372.199
-33.940	31.515	1625.458	1370.760
-32.925	31.373	1624.352	1368.732
-31.911	31.417	1622.800	1367.692
-30.896	31.475	1620.328	1365.978
-29.881	31.462	1618.903	1364.628
-28.867	31.379	1617.422	1362.719
-27.852	31.373	1616.068	1361.487
-26.838	31.309	1614.917	1359.992
-25.823	31.405	1612.873	1358.917
-24.809	31.398	1611.684	1357.810
-23.794	31.491	1609.832	1356.869
-22.779	31.449	1608.730	1355.586
-21.765	31.499	1606.946	1354.390
-20.750	31.389	1605.638	1352.436
-19.736	31.436	1604.226	1351.533
-18.721	31.430	1603.161	1350.540
-17.706	31.469	1600.958	1348.910
-16.692	31.467	1599.634	1347.728
-15.677	31.479	1598.526	1346.827
-14.663	31.516	1597.135	1345.867
-13.648	31.442	1595.836	1344.186
-12.633	31.491	1594.072	1343.001
-11.619	31.388	1593.125	1341.408
-10.604	31.509	1591.130	1340.547
-9.590	31.482	1589.978	1339.329
-8.575	31.479	1588.458	1337.973
-7.560	31.487	1587.619	1337.268
-6.546	31.492	1586.376	1336.207
-5.531	31.556	1585.434	1335.816
-4.517	31.434	1584.630	1334.214
-3.502	31.481	1582.895	1333.034
-2.487	31.455	1581.717	1331.805
-1.473	31.233	1569.386	1319.804
-0.458	28.374	1550.074	1283.517
0.556	23.949	1550.488	1250.842
1.571	21.674	1573.411	1252.970
2.586	21.064	1586.567	1258.932
3.600	18.675	1533.361	1199.926
4.615	11.483	1426.690	1069.406
5.629	5.466	1365.615	985.712
6.644	4.700	1357.983	975.315
7.659	4.533	1356.701	973.261
8.673	4.524	1355.590	972.322
9.688	4.544	1354.127	971.315
10.702	4.430	1351.331	968.511
11.717	7.253	1355.759	989.247
12.731	14.261	1368.956	1042.823
13.746	18.824	1375.777	1076.592
14.761	18.793	1374.676	1075.437
15.775	17.812	1372.174	1067.251
16.790	16.695	1369.481	1058.086
17.804	15.850	1366.960	1050.771
18.819	15.450	1365.776	1047.274
19.834	15.203	1364.640	1044.768
20.848	14.980	1363.611	1042.499
21.863	14.772	1362.549	1040.301
22.877	14.634	1361.201	1038.318
23.892	14.577	1360.278	1037.174
24.907	14.607	1358.989	1036.281
25.921	14.646	1358.359	1035.952
26.936	14.752	1357.265	1035.684
27.950	14.567	1356.682	1033.999
28.965	14.757	1355.807	1034.421
29.980	14.866	1354.550	1034.041
30.994	14.953	1353.347	1033.574
32.009	14.878	1352.875	1032.653
33.023	14.952	1350.833	1031.463
34.038	14.857	1349.760	1029.964
35.053	14.816	1348.119	1028.374
36.067	14.808	1347.571	1027.811
37.082	14.825	1346.240	1026.811
38.096	14.865	1345.368	1026.298
39.111	14.860	1344.799	1025.747
40.126	14.709	1343.968	1024.092
41.140	14.665	1342.766	1022.820
42.155	14.572	1342.652	1022.071
43.169	14.517	1342.422	1021.469
44.184	14.510	1342.179	1021.150
45.199	14.504	1341.575	1020.566
46.213	14.570	1340.707	1020.218
47.228	14.817	1339.948	1021.057
48.242	14.781	1338.612	1019.731
49.257	14.838	1336.973	1018.737
50.271	14.715	1335.849	1017.041
51.286	14.753	1334.611	1016.243
52.301	14.740	1333.394	1015.144
53.315	14.718	1332.077	1013.921
54.330	14.605	1331.115	1012.411
55.344	14.622	1330.047	1011.611
56.359	14.641	1329.119	1010.931
57.374	14.571	1328.415	1009.884
58.388	14.537	1327.363	1008.788
59.403	14.481	1327.348	1008.352
60.417	14.486	1325.508	1006.896
61.432	14.550	1324.892	1006.725
62.447	14.457	1324.425	1005.716
63.461	14.442	1323.132	1004.556
64.476	14.465	1322.102	1003.823
65.490	14.459	1321.054	1002.905
66.505	14.345	1319.280	1000.787
67.520	14.390	1318.252	1000.186
68.534	14.505	1317.388	1000.131
69.549	14.508	1315.780	998.843
70.563	14.375	1315.576	997.802
71.578	14.417	1314.229	996.940
72.593	14.304	1313.170	995.375
73.607	14.256	1312.726	994.661
74.622	14.281	1312.062	994.220
75.636	14.373	1310.621	993.592
76.651	14.414	1309.901	993.203
77.666	14.322	1309.855	992.529
78.680	14.375	1309.513	992.498
79.695	14.330	1309.019	991.768
80.709	14.430	1308.288	991.720
81.724	14.429	1307.373	990.933
82.739	14.583	1306.062	990.769
83.753	14.701	1305.103	990.652
84.768	14.792	1304.484	990.637
85.782	14.775	1303.661	989.825
86.797	14.813	1302.413	989.013
87.812	14.700	1300.826	987.052
88.826	14.662	1300.003	986.115
89.841	14.764	1298.819	985.733
90.855	14.828	1297.836	985.272
91.870	14.863	1296.928	984.704
92.884	14.784	1296.278	983.661
93.899	14.826	1295.482	983.214
94.914	14.902	1294.666	982.955
95.928	14.872	1293.458	981.774
96.943	14.735	1292.625	980.254
97.957	14.810	1291.946	980.092
98.972	14.788	1290.807	979.008
99.987	14.724	1289.592	977.626
101.001	14.764	1288.628	977.045
102.016	14.718	1287.645	975.947
103.030	14.830	1287.053	976.064
104.045	14.767	1286.326	975.060
105.060	14.801	1285.076	974.225
106.074	14.619	1283.660	972.004
107.089	14.506	1282.253	970.196
108.103	14.383	1280.808	968.301
109.118	14.555	1279.137	967.948
110.133	14.549	1278.121	967.062
111.147	14.519	1276.894	965.875
112.162	14.473	1275.728	964.640
113.176	14.570	1274.550	964.224
114.191	14.630	1273.503	963.692
115.206	14.636	1272.171	962.632
116.220	14.642	1271.124	961.791
117.235	14.569	1270.055	960.477
118.249	14.623	1269.377	960.190
119.264	14.578	1268.222	958.975
120.279	14.544	1266.502	957.394
121.293	14.538	1265.664	956.641
122.308	14.529	1264.746	955.810
123.322	14.466	1263.824	954.668
124.337	14.351	1263.137	953.407
125.352	14.490	1261.364	952.775
126.366	14.446	1260.267	951.615
127.381	14.469	1259.115	950.792
128.395	14.523	1258.687	950.688
129.410	14.505	1257.633	949.710
130.424	14.483	1257.293	949.239
131.439	14.531	1255.761	948.274
132.454	14.696	1254.519	948.191
133.468	14.560	1254.530	947.340
134.483	14.532	1253.911	946.633
135.497	14.650	1252.704	946.303
136.512	14.581	1251.056	944.588
137.527	14.603	1250.146	943.940
138.541	14.544	1248.694	942.428
139.556	14.662	1247.183	941.867
140.570	14.727	1246.319	941.501
141.585	14.672	1245.098	940.182
142.600	14.838	1244.201	940.356
143.614	14.894	1242.803	939.531
144.629	14.933	1241.587	938.747
145.643	14.912	1240.642	937.832
146.658	14.902	1238.867	936.354
147.673	14.769	1238.213	935.034
148.687	14.700	1236.683	933.408
149.702	14.733	1235.479	932.599
150.716	14.656	1234.002	930.976
151.731	14.620	1233.348	930.195
152.746	14.713	1231.702	929.394
153.760	14.797	1230.497	928.868
154.775	14.782	1229.719	928.115
155.789	14.886	1228.897	927.990
156.804	14.788	1228.123	926.777
157.819	14.889	1226.602	926.109
158.833	14.878	1226.358	925.783
159.848	14.831	1225.640	924.899
160.862	14.880	1224.489	924.215
161.877	14.900	1222.685	922.883
162.892	14.790	1221.522	921.319
163.906	14.701	1220.723	920.143
164.921	14.875	1219.838	920.355
165.935	14.780	1219.244	919.302
166.950	14.857	1218.270	918.909
167.964	14.881	1217.727	918.551
168.979	14.904	1217.020	918.063
169.994	14.898	1215.879	917.089
171.008	14.895	1215.569	916.755
172.023	15.038	1214.761	916.851
173.037	15.047	1214.340	916.499
174.052	15.039	1212.780	915.200
175.067	14.962	1212.270	914.311
176.081	14.865	1211.027	912.761
177.096	14.837	1209.556	911.419
178.110	14.891	1208.862	911.110
179.125	14.902	1207.903	910.365
180.140	15.014	1206.572	909.894
181.154	14.994	1205.632	908.997
182.169	14.998	1204.652	908.198
183.183	15.131	1203.040	907.623
184.198	15.244	1202.084	907.433
185.213	15.127	1200.752	905.715
186.227	15.173	1200.279	905.523
187.242	15.205	1198.765	904.474
188.256	15.275	1198.243	904.378
189.271	15.155	1197.343	902.976
190.286	15.084	1195.765	901.320
191.300	14.839	1195.346	899.606
192.315	14.885	1194.234	898.937
193.329	14.968	1193.443	898.708
194.344	14.955	1192.767	898.050
195.359	15.048	1192.631	898.367
196.373	15.186	1191.859	898.446
197.388	15.194	1191.583	898.204
198.402	15.251	1191.632	898.466
199.417	15.402	1190.528	898.364
200.432	15.507	1189.789	898.286
201.446	15.527	1188.852	897.608
202.461	15.577	1188.009	897.156
203.475	15.400	1187.425	895.692
204.490	15.422	1186.000	894.654
205.504	15.163	1185.081	892.503
206.519	15.352	1183.538	892.268
207.534	15.364	1182.248	891.282
208.548	15.335	1181.435	890.434
209.563	15.379	1181.084	890.325
210.577	15.367	1179.973	889.347
211.592	15.402	1178.907	888.648
212.607	15.428	1178.455	888.366
213.621	15.486	1177.417	887.814
214.636	15.424	1176.530	886.738
215.650	15.459	1175.575	886.126
216.665	15.553	1174.225	885.522
217.680	15.619	1173.627	885.341
218.694	15.546	1173.279	884.617
219.709	15.594	1172.266	884.026
220.723	15.643	1171.505	883.631
221.738	15.712	1170.487	883.146
222.753	15.657	1169.646	882.149
223.767	15.794	1169.121	882.394
224.782	15.711	1169.006	881.790
225.796	15.753	1167.962	881.145
226.811	15.776	1167.431	880.786
227.826	15.844	1166.135	880.086
228.840	15.769	1165.738	879.319
229.855	15.632	1165.492	878.340
230.869	15.722	1164.052	877.647
231.884	15.706	1163.094	876.763
232.899	15.681	1162.648	876.217
233.913	15.668	1161.749	875.398
234.928	15.645	1160.769	874.460
235.942	15.582	1160.164	873.602
236.957	15.629	1159.405	873.197
237.972	15.686	1158.904	873.034
238.986	15.645	1158.332	872.316
240.001	15.651	1157.668	871.771
241.015	15.738	1156.788	871.479
242.030	15.703	1155.972	870.605
243.045	15.876	1155.252	870.885
244.059	15.769	1154.479	869.669
245.074	15.785	1153.680	869.075
246.088	15.847	1153.147	868.918
247.103	15.857	1152.405	868.332
248.117	15.988	1151.631	868.348
249.132	16.058	1151.090	868.221
250.147	16.096	1150.374	867.799
251.161	16.223	1149.676	867.850
252.176	16.175	1148.667	866.767
253.190	16.300	1148.325	867.075
254.205	16.276	1147.787	866.465
255.220	16.294	1147.345	866.148
256.234	16.311	1146.444	865.481
257.249	16.298	1145.649	864.734
258.263	16.304	1145.400	864.502
259.278	16.340	1144.632	864.032
260.293	16.472	1143.567	863.823
261.307	16.381	1143.382	863.142
262.322	16.438	1142.617	862.782
263.336	16.515	1141.576	862.311
264.351	16.481	1141.349	861.889
265.366	16.521	1140.639	861.479
266.380	16.419	1140.082	860.463
267.395	16.385	1139.491	859.769
268.409	16.379	1138.481	858.898
269.424	16.445	1138.106	858.879
270.439	16.459	1137.092	858.107
271.453	16.506	1136.072	857.501
272.468	16.405	1135.269	856.306
273.482	16.468	1134.684	856.108
274.497	16.469	1133.814	855.380
275.512	16.460	1133.608	855.104
276.526	16.426	1132.721	854.189
277.541	16.425	1131.503	853.188
278.555	16.455	1131.541	853.293
279.570	16.626	1130.497	853.292
280.585	16.663	1129.570	852.703
281.599	16.663	1128.838	852.078
282.614	16.566	1128.025	850.898
283.628	16.462	1127.040	849.557
284.643	16.668	1125.256	849.171
285.657	16.690	1124.856	848.907
286.672	16.567	1123.923	847.507
287.687	16.671	1123.084	847.321
288.701	16.726	1122.583	847.146
289.716	16.780	1121.453	846.487
290.730	16.776	1121.015	846.061
291.745	16.676	1120.395	845.017
292.760	16.603	1120.037	844.309
293.774	16.776	1119.272	844.523
294.789	16.848	1119.078	844.658
295.803	16.859	1118.294	844.045
296.818	16.702	1117.745	842.779
297.833	16.798	1116.608	842.325
298.847	16.851	1115.757	841.869
299.862	16.898	1114.788	841.296
300.876	16.850	1114.441	840.721
301.891	16.829	1114.038	840.240
302.906	16.909	1113.131	839.878
303.920	16.940	1112.335	839.357
304.935	17.012	1111.721	839.174
305.949	17.071	1111.589	839.293
306.964	17.157	1110.461	838.789
307.979	17.129	1109.375	837.760
308.993	16.965	1109.278	836.803
310.008	17.078	1108.171	836.449
311.022	17.132	1107.651	836.251
312.037	17.126	1106.484	835.263
313.052	16.956	1106.139	834.096
314.066	16.847	1104.972	832.603
315.081	16.942	1104.259	832.459
316.095	16.930	1103.081	831.440
317.110	16.952	1102.195	830.804
318.125	16.978	1101.579	830.396
319.139	17.032	1100.875	830.054
320.154	16.972	1100.265	829.231
321.168	16.878	1100.333	828.749
322.183	17.013	1099.371	828.607
323.197	17.063	1098.830	828.371
324.212	16.955	1098.297	827.371
325.227	17.097	1097.665	827.515
326.241	17.039	1097.178	826.789
327.256	17.199	1095.832	826.480
328.270	16.973	1095.053	824.724
329.285	17.185	1094.179	825.022
330.300	17.102	1093.507	824.037
331.314	17.023	1092.658	822.940
332.329	17.055	1091.538	822.179
333.343	17.156	1090.823	822.056
334.358	17.131	1089.933	821.192
335.373	17.244	1089.506	821.346
336.387	17.263	1088.787	820.822
337.402	17.235	1088.260	820.218
338.416	17.311	1087.311	819.795
339.431	17.323	1086.667	819.294
340.446	17.485	1085.966	819.474
341.460	17.442	1085.604	818.921
342.475	17.590	1084.466	818.704
343.489	17.566	1083.810	818.021
344.504	17.521	1083.037	817.148
345.519	17.618	1082.059	816.803
346.533	17.641	1081.287	816.259
347.548	17.684	1080.674	815.928
348.562	17.793	1079.282	815.328
349.577	17.544	1079.004	813.856
350.592	17.488	1077.966	812.732
351.606	17.525	1077.107	812.189
352.621	17.483	1076.549	811.496
353.635	17.415	1076.000	810.689
354.650	17.388	1075.426	810.054
355.665	17.455	1074.644	809.713
356.679	17.462	1074.311	809.421
357.694	17.607	1073.623	809.524
358.708	17.533	1073.033	808.656
359.723	17.572	1072.264	808.188
360.738	17.637	1071.557	807.891
361.752	17.665	1070.637	807.260
362.767	17.672	1070.285	806.955
363.781	17.670	1069.849	806.544
364.796	17.780	1069.323	806.599
365.810	17.780	1068.925	806.225
366.825	17.920	1068.510	806.505
367.840	18.027	1067.340	806.056
368.854	18.004	1066.980	805.604
369.869	17.919	1066.520	804.781
370.883	17.858	1065.537	803.683
371.898	17.854	1064.550	802.847
372.913	17.979	1063.720	802.741
373.927	17.879	1063.881	802.321
374.942	18.041	1063.056	802.387
375.956	18.034	1062.406	801.793
376.971	17.941	1061.814	800.839
377.986	18.059	1061.314	800.945
379.000	18.121	1060.928	800.874
380.015	18.338	1060.072	801.172
381.029	18.268	1059.617	800.431
382.044	18.177	1058.975	799.446
383.059	18.174	1058.225	798.797
384.073	18.207	1057.516	798.347
385.088	18.254	1056.321	797.589
386.102	18.212	1055.455	796.671
387.117	18.133	1054.669	795.639
388.132	18.108	1053.686	794.710
389.146	17.999	1052.739	793.421
390.161	18.067	1052.148	793.220
391.175	18.043	1051.915	792.861
392.190	18.205	1051.178	792.988
393.205	18.252	1050.290	792.468
394.219	18.161	1050.099	791.829
395.234	18.080	1048.867	790.457
396.248	18.241	1047.479	790.085
397.263	18.080	1046.632	788.635
398.278	18.063	1045.881	787.918
399.292	18.159	1045.149	787.741
400.307	18.109	1044.357	786.845
401.321	18.071	1043.484	785.942
402.336	18.118	1042.810	785.580
403.350	18.086	1042.524	785.148
404.365	18.172	1042.166	785.203
405.380	18.222	1041.352	784.749
406.394	18.357	1040.331	784.532
407.409	18.330	1039.765	783.911
408.423	18.498	1038.718	783.821
409.438	18.470	1038.338	783.335
410.453	18.468	1037.876	782.908
411.467	18.637	1036.919	782.889
412.482	18.632	1036.380	782.391
413.496	18.528	1036.064	781.610
414.511	18.592	1035.282	781.240
415.526	18.595	1034.966	780.948
416.540	18.724	1034.790	781.331
417.555	18.732	1033.495	780.320
418.569	18.607	1033.138	779.413
419.584	18.592	1032.797	779.020
420.599	18.760	1031.927	779.057
421.613	150.488	1401.395	1794.736
422.628	137.329	1455.226	1794.834
