DTS Sentinel unit serial number:	SN413079Multiplexer serial number:	ORYXHardware model number:	OX4-SRSoftware version number:	ORYX F/W v4.00 Oryx Data Collector v3.7.2.0data status	okinstallation	princeton_trtdifferential loss correction	single-endedforward channel	channel 2reverse channel	N/Adate	2019/09/15time	20:35:34forward acquisition time	60.00reverse acquisition time	0.00gamma	496.2192k internal	0.2330k external	0.2330temperature offset calibration	0.9936default loss term (dB/km)	0.3790temperature slope calibration	1.0000multiplexer offset coefficient	1.0000multiplexer slope coefficient	1.0000fibre end	0.00T internal ref (°C)	33.12T ext. ref 1 (°C)	7.86T ext. ref 2 (°C)	24.84length (m)	temperature (°C)	Stokes	anti-Stokes-747.200	-200.000	-0.043	-0.279
-746.185	-47.462	0.130	0.064
-745.171	-70.110	0.245	-0.094
-744.156	-200.000	0.009	0.313
-743.142	744.159	-0.099	-0.268
-742.127	-200.000	0.058	0.311
-741.112	3.361	-0.083	0.061
-740.098	-34.546	-0.259	0.143
-739.083	62.324	-0.123	0.124
-738.069	-200.000	0.008	0.192
-737.054	-105.702	-0.061	-0.014
-736.039	599.437	-0.093	-0.232
-735.025	-76.118	0.194	-0.069
-734.010	129.331	0.166	-0.213
-732.996	89.315	-0.192	-0.216
-731.981	221.767	-0.066	0.107
-730.966	-200.000	0.018	0.104
-729.952	110.601	-0.155	0.188
-728.937	-200.000	-0.006	0.037
-727.923	-39.368	-0.193	-0.102
-726.908	64.707	0.270	0.274
-725.894	-200.000	0.018	0.113
-724.879	135.530	0.222	-0.290
-723.864	800.000	-0.021	-0.084
-722.850	-200.000	0.004	0.101
-721.835	314.694	-0.042	-0.080
-720.821	-48.689	-0.121	-0.058
-719.806	-47.201	-0.201	-0.099
-718.791	-93.305	0.129	-0.036
-717.777	-118.809	-0.077	-0.014
-716.762	-115.988	0.207	-0.039
-715.748	800.000	-0.088	-0.256
-714.733	273.259	0.253	-0.449
-713.718	-200.000	0.016	-0.204
-712.704	193.095	-0.085	0.130
-711.689	-9.901	-0.206	0.138
-710.675	-105.544	-0.049	-0.011
-709.660	2.823	0.266	0.194
-708.645	649.537	-0.075	-0.194
-707.631	-37.258	0.098	0.053
-706.616	193.011	0.044	0.067
-705.602	33.739	0.308	-0.269
-704.587	-200.000	-0.042	0.278
-703.572	800.000	0.049	-0.140
-702.558	-124.684	-0.183	-0.028
-701.543	-36.450	-0.098	-0.053
-700.529	-90.704	-0.166	-0.048
-699.514	-75.065	-0.159	-0.057
-698.499	26.391	0.122	-0.102
-697.485	14.773	-0.233	0.183
-696.470	800.000	0.061	0.186
-695.456	-200.000	-0.009	0.186
-694.441	-67.716	0.443	0.174
-693.426	-57.665	0.368	-0.162
-692.412	800.000	0.032	-0.138
-691.397	-35.047	0.276	0.151
-690.383	216.560	-0.086	-0.138
-689.368	-127.453	0.151	0.022
-688.354	-37.984	-0.261	-0.140
-687.339	9.650	0.111	-0.084
-686.324	148.465	0.091	0.123
-685.310	78.358	-0.086	-0.092
-684.295	-200.000	-0.028	0.167
-683.281	191.000	-0.190	-0.287
-682.266	-16.685	-0.247	-0.157
-681.251	-200.000	0.029	-0.341
-680.237	-25.990	0.273	0.162
-679.222	477.391	-0.143	0.325
-678.208	800.000	-0.028	0.088
-677.193	-7.729	0.031	-0.021
-676.178	-161.150	-0.210	0.011
-675.164	422.170	0.076	-0.164
-674.149	54.930	0.195	-0.189
-673.135	-165.962	-0.144	0.006
-672.120	800.000	0.084	-0.335
-671.105	-36.726	-0.112	0.060
-670.091	377.552	-0.033	-0.068
-669.076	-130.965	-0.301	0.040
-668.062	-89.540	0.170	-0.050
-667.047	-132.229	-0.163	0.021
-666.032	-200.000	-0.009	0.171
-665.018	-121.436	-0.268	-0.045
-664.003	37.728	-0.045	0.040
-662.989	-200.000	-0.013	-0.144
-661.974	488.562	0.111	0.254
-660.959	121.167	0.082	-0.103
-659.945	250.980	-0.093	-0.159
-658.930	16.109	-0.140	-0.111
-657.916	770.977	-0.044	-0.121
-656.901	36.535	-0.122	-0.108
-655.886	800.000	0.089	0.307
-654.872	-200.000	-0.017	-0.155
-653.857	-35.620	-0.254	-0.138
-652.843	44.699	0.054	0.050
-651.828	-97.094	0.217	-0.057
-650.814	11.225	-0.180	0.138
-649.799	231.333	-0.105	0.173
-648.784	-144.253	-0.227	-0.021
-647.770	-101.148	-0.292	0.072
-646.755	-83.845	-0.105	-0.033
-645.741	225.442	0.182	-0.296
-644.726	191.356	-0.035	0.053
-643.711	5.011	0.088	-0.065
-642.697	123.784	-0.054	0.067
-641.682	-117.534	-0.173	-0.031
-640.668	299.856	0.092	-0.170
-639.653	-96.962	-0.073	-0.019
-638.638	-41.062	0.147	0.076
-637.624	800.000	0.097	-0.287
-636.609	22.233	0.225	-0.184
-635.595	-200.000	-0.025	0.174
-634.580	-40.509	0.206	-0.107
-633.565	800.000	0.099	0.362
-632.551	800.000	0.021	-0.064
-631.536	74.251	0.077	0.081
-630.522	-43.117	0.242	-0.123
-629.507	-125.771	0.174	0.026
-628.492	50.633	0.171	-0.162
-627.478	800.000	0.107	0.346
-626.463	50.951	-0.135	0.128
-625.449	-87.262	-0.321	0.098
-624.434	113.709	0.084	-0.103
-623.419	-200.000	0.046	0.257
-622.405	-9.798	-0.063	0.042
-621.390	-200.000	0.004	-0.272
-620.376	-200.000	0.018	-0.171
-619.361	-34.254	0.260	0.143
-618.346	-200.000	0.016	-0.287
-617.332	-74.666	-0.202	0.073
-616.317	800.000	0.019	0.071
-615.303	5.906	-0.082	0.061
-614.288	-200.000	0.007	-0.347
-613.273	-34.698	-0.087	0.048
-612.259	-93.328	0.242	-0.067
-611.244	35.733	-0.120	0.106
-610.230	223.170	-0.176	0.285
-609.215	199.371	0.206	0.317
-608.201	-200.000	-0.000	-0.127
-607.186	170.542	0.027	-0.039
-606.171	-38.227	-0.071	-0.038
-605.157	-42.510	-0.091	-0.046
-604.142	38.045	-0.099	-0.088
-603.128	800.000	-0.006	-0.026
-602.113	-34.383	-0.177	0.097
-601.098	-141.483	-0.183	-0.019
-600.084	-119.593	-0.186	0.032
-599.069	6.952	0.197	0.147
-598.055	-86.830	-0.423	-0.129
-597.040	-29.583	0.112	0.064
-596.025	453.284	-0.159	-0.353
-595.011	-107.775	-0.147	-0.032
-593.996	-126.589	0.104	-0.015
-592.982	-200.000	-0.067	-0.303
-591.967	74.855	-0.100	-0.105
-590.952	-81.425	0.125	0.041
-589.938	148.205	0.151	0.204
-588.923	-92.530	-0.238	0.067
-587.909	800.000	0.104	-0.300
-586.894	14.998	-0.038	-0.030
-585.879	-124.273	-0.167	0.026
-584.865	-200.000	0.003	-0.088
-583.850	119.959	0.023	-0.028
-582.836	-100.561	0.032	0.008
-581.821	84.165	-0.061	-0.066
-580.806	-29.730	-0.184	0.105
-579.792	-175.528	-0.406	-0.011
-578.777	-200.000	0.044	-0.324
-577.763	-24.144	0.153	0.091
-576.748	487.674	0.218	0.497
-575.733	-140.591	-0.139	-0.014
-574.719	-111.885	-0.298	-0.060
-573.704	-42.822	-0.127	0.065
-572.690	-145.977	0.139	-0.012
-571.675	-20.964	0.047	0.029
-570.661	-159.446	0.183	-0.010
-569.646	-200.000	-0.027	-0.184
-568.631	180.752	0.102	0.149
-567.617	67.222	-0.147	0.150
-566.602	-156.761	-0.180	-0.011
-565.588	14.443	0.184	0.144
-564.573	675.341	0.008	0.022
-563.558	116.028	-0.063	0.077
-562.544	-115.255	0.039	0.007
-561.529	-200.000	-0.051	0.329
-560.515	-135.239	-0.105	0.013
-559.500	-200.000	0.024	-0.430
-558.485	-27.131	0.246	-0.144
-557.471	157.529	-0.096	0.133
-556.456	-87.964	-0.160	0.048
-555.442	146.002	-0.072	-0.096
-554.427	-200.000	0.023	-0.193
-553.412	174.111	-0.094	-0.135
-552.398	-200.000	0.020	-0.180
-551.383	-200.000	0.008	0.247
-550.369	413.565	0.046	-0.098
-549.354	3.368	-0.253	-0.184
-548.339	-200.000	-0.001	0.116
-547.325	-200.000	-0.050	0.279
-546.310	628.576	0.087	-0.220
-545.296	25.661	0.049	0.040
-544.281	800.000	-0.033	-0.135
-543.266	800.000	-0.145	-0.416
-542.252	115.034	0.024	0.029
-541.237	41.262	0.238	-0.215
-540.223	21.303	0.163	-0.132
-539.208	800.000	0.036	0.114
-538.193	165.494	-0.015	0.021
-537.179	20.810	0.179	-0.145
-536.164	-138.881	0.553	0.060
-535.150	16.216	-0.203	-0.160
-534.135	171.101	0.100	-0.144
-533.121	-76.903	-0.081	-0.028
-532.106	-89.098	0.220	0.065
-531.091	-155.701	-0.070	-0.004
-530.077	-25.046	-0.192	0.114
-529.062	-114.579	0.036	0.007
-528.048	-100.749	-0.190	-0.047
-527.033	-63.481	0.197	-0.081
-526.018	-14.128	-0.038	-0.025
-525.004	-200.000	0.009	-0.111
-523.989	-200.000	-0.020	0.105
-522.975	-121.398	-0.184	0.031
-521.960	-75.036	-0.036	0.013
-520.945	-96.099	0.494	0.131
-519.931	245.544	-0.156	-0.263
-518.916	127.986	-0.225	-0.285
-517.902	591.742	-0.159	-0.391
-516.887	-83.358	0.245	0.079
-515.872	800.000	-0.038	-0.156
-514.858	-72.002	0.280	0.104
-513.843	-145.091	0.282	-0.026
-512.829	-186.022	0.259	0.004
-511.814	0.705	0.202	0.144
-510.799	9.760	-0.116	-0.088
-509.785	-200.000	-0.024	0.187
-508.770	187.086	-0.206	-0.307
-507.756	-200.000	0.012	-0.126
-506.741	433.772	-0.092	0.200
-505.726	66.129	-0.057	-0.058
-504.712	-200.000	0.020	-0.215
-503.697	348.796	-0.199	0.391
-502.683	-189.060	-0.376	-0.004
-501.668	-200.000	-0.017	0.151
-500.653	378.347	-0.082	0.168
-499.639	-200.000	0.039	0.340
-498.624	255.233	0.163	0.278
-497.610	187.272	0.058	-0.086
-496.595	-95.107	-0.213	-0.057
-495.581	-200.000	0.015	-0.074
-494.566	800.000	-0.008	0.024
-493.551	-22.468	0.218	-0.132
-492.537	-67.479	0.052	0.020
-491.522	-65.242	-0.286	-0.115
-490.508	107.243	-0.208	-0.246
-489.493	-180.866	0.080	-0.002
-488.478	44.603	0.291	0.266
-487.464	109.927	-0.045	-0.053
-486.449	61.967	0.123	-0.123
-485.435	347.336	0.222	0.436
-484.420	175.641	0.167	-0.241
-483.405	-73.178	-0.116	-0.042
-482.391	800.000	-0.077	-0.226
-481.376	221.165	-0.114	-0.183
-480.362	-197.789	-0.237	0.001
-479.347	800.000	0.085	-0.244
-478.332	-152.080	0.103	-0.007
-477.318	-38.739	-0.392	-0.206
-476.303	-200.000	0.414	0.002
-475.289	425.639	0.152	-0.327
-474.274	800.000	-0.077	-0.322
-473.259	-200.000	-0.058	0.275
-472.245	257.321	0.207	0.354
-471.230	-135.915	-0.192	0.023
-470.216	471.997	0.023	0.051
-469.201	522.871	-0.045	-0.105
-468.186	323.185	0.097	0.184
-467.172	257.202	0.108	-0.184
-466.157	-72.287	0.160	0.059
-465.143	-34.112	0.342	0.187
-464.128	-200.000	0.005	0.141
-463.113	-200.000	-0.075	0.506
-462.099	-96.894	0.403	-0.105
-461.084	-26.581	0.039	0.023
-460.070	364.718	-0.046	0.093
-459.055	-34.861	-0.277	0.151
-458.040	800.000	-0.058	0.242
-457.026	36.322	-0.099	0.087
-456.011	380.973	0.196	-0.401
-454.997	-12.726	0.123	-0.080
-453.982	4.326	-0.211	-0.154
-452.968	668.052	-0.124	-0.319
-451.953	-102.376	-0.080	0.019
-450.938	-112.598	0.126	0.025
-449.924	604.006	-0.062	-0.153
-448.909	-84.887	0.129	-0.040
-447.895	-34.322	-0.226	-0.124
-446.880	-71.800	-0.056	-0.021
-445.865	-112.288	-0.295	-0.059
-444.851	-74.797	-0.376	0.134
-443.836	800.000	0.029	0.113
-442.822	568.549	0.157	0.380
-441.807	-145.371	-0.295	0.026
-440.792	-23.817	0.138	-0.082
-439.778	111.083	-0.076	-0.091
-438.763	183.685	0.131	-0.193
-437.749	-200.000	-0.036	0.248
-436.734	102.686	0.152	-0.177
-435.719	129.156	0.106	-0.135
-434.705	-110.767	0.059	-0.012
-433.690	-166.364	0.226	0.009
-432.676	-75.194	-0.214	-0.076
-431.661	41.021	-0.324	0.291
-430.646	166.485	0.157	0.221
-429.632	800.000	0.039	0.109
-428.617	-167.041	-0.315	0.013
-427.603	172.485	-0.104	0.149
-426.588	-200.000	0.029	0.243
-425.573	-141.517	0.243	-0.024
-424.559	18.722	0.137	-0.109
-423.544	-157.760	0.392	-0.023
-422.530	347.211	-0.074	0.144
-421.515	-107.245	-0.270	-0.059
-420.500	-97.802	0.081	-0.021
-419.486	-200.000	-0.007	0.079
-418.471	1.584	-0.210	-0.150
-417.457	45.229	0.208	0.191
-416.442	55.976	-0.163	-0.157
-415.428	16.474	0.256	-0.201
-414.413	-31.520	-0.080	0.045
-413.398	667.758	-0.028	0.072
-412.384	273.343	0.100	-0.175
-411.369	-35.335	-0.180	0.097
-410.355	-16.407	0.082	-0.052
-409.340	183.250	0.229	0.337
-408.325	66.000	-0.218	-0.220
-407.311	-107.993	-0.444	0.096
-406.296	138.537	-0.087	0.113
-405.282	766.596	-0.075	0.202
-404.267	62.476	-0.156	0.155
-403.252	-30.079	-0.164	0.093
-402.238	-200.000	-0.025	-0.167
-401.223	272.736	-0.090	0.158
-400.209	-102.316	-0.292	0.070
-399.194	800.000	0.033	-0.091
-398.179	-200.000	0.042	-0.234
-397.165	-26.291	-0.237	0.138
-396.150	-161.085	-0.148	-0.008
-395.136	800.000	-0.058	0.178
-394.121	653.211	0.155	0.394
-393.106	-200.000	0.001	0.297
-392.092	30.753	0.146	0.124
-391.077	103.299	-0.273	0.318
-390.063	-200.000	-0.020	-0.183
-389.048	4.770	-0.166	0.121
-388.033	253.335	-0.175	0.297
-387.019	187.465	-0.107	-0.158
-386.004	6.749	-0.069	-0.051
-384.990	-70.280	0.265	0.100
-383.975	-15.932	-0.193	0.122
-382.960	106.291	-0.159	-0.187
-381.946	14.833	0.099	0.077
-380.931	78.091	-0.202	-0.214
-379.917	-11.290	-0.279	0.182
-378.902	203.017	0.177	0.271
-377.888	-160.486	0.369	0.020
-376.873	-112.090	0.223	0.045
-375.858	-200.000	-0.010	-0.142
-374.844	-79.335	0.203	0.068
-373.829	-103.275	0.185	-0.043
-372.815	-200.000	-0.049	-0.266
-371.800	800.000	0.018	-0.053
-370.785	-200.000	-0.022	0.269
-369.771	-135.642	-0.180	-0.021
-368.756	-49.125	0.192	-0.091
-367.742	-87.970	0.034	0.010
-366.727	-47.121	0.286	-0.138
-365.712	-200.000	0.027	-0.127
-364.698	-126.165	-0.182	-0.027
-363.683	-121.392	-0.398	0.066
-362.669	-54.823	0.044	-0.020
-361.654	285.975	-0.136	-0.243
-360.639	72.714	-0.361	0.374
-359.625	13.396	-0.247	0.190
-358.610	800.000	0.078	-0.233
-357.596	-28.576	0.118	0.067
-356.581	800.000	0.061	0.201
-355.566	-107.340	-0.072	0.016
-354.552	-94.584	0.276	0.075
-353.537	-132.822	0.192	-0.024
-352.523	-200.000	-0.008	0.083
-351.508	12.950	0.020	0.015
-350.493	800.000	0.015	-0.042
-349.479	-38.890	0.119	-0.062
-348.464	-57.180	-0.152	0.066
-347.450	-62.924	0.013	-0.005
-346.435	-27.455	0.156	0.090
-345.420	-94.743	-0.331	0.089
-344.406	800.000	0.010	-0.043
-343.391	762.877	0.013	-0.036
-342.377	-200.000	0.001	-0.284
-341.362	172.700	-0.049	-0.070
-340.348	-99.822	-0.283	0.070
-339.333	272.338	-0.141	0.247
-338.318	49.414	-0.120	-0.112
-337.304	800.000	0.102	-0.306
-336.289	-200.000	0.030	-0.440
-335.275	-110.820	-0.075	0.015
-334.260	-157.050	-0.166	0.010
-333.245	34.839	0.171	0.148
-332.231	-125.544	0.192	-0.029
-331.216	710.681	0.040	0.105
-330.202	-200.000	0.027	0.195
-329.187	-155.945	0.148	-0.009
-328.172	-23.231	-0.208	0.124
-327.158	24.832	-0.251	-0.206
-326.143	68.794	-0.125	-0.127
-325.129	-36.664	0.153	-0.082
-324.114	-44.815	0.371	0.183
-323.099	265.550	0.026	-0.045
-322.085	-95.316	0.130	-0.035
-321.070	174.743	0.100	0.143
-320.056	406.503	0.148	-0.310
-319.041	800.000	0.028	0.077
-318.026	-200.000	0.023	0.148
-317.012	-169.693	0.049	-0.002
-315.997	800.000	-0.047	-0.145
-314.983	203.203	-0.170	-0.260
-313.968	210.299	-0.045	-0.070
-312.953	64.341	0.203	-0.202
-311.939	84.021	0.261	0.282
-310.924	800.000	-0.054	0.191
-309.910	-34.032	-0.343	-0.187
-308.895	-120.006	-0.257	0.044
-307.880	-92.023	0.414	0.116
-306.866	-200.000	0.092	0.439
-305.851	-147.076	-0.146	-0.012
-304.837	78.988	0.162	0.172
-303.822	533.214	-0.023	0.053
-302.807	800.000	0.095	0.364
-301.793	606.506	-0.142	-0.351
-300.778	-200.000	-0.011	-0.110
-299.764	-50.894	0.332	-0.155
-298.749	-98.031	0.095	0.024
-297.735	-81.854	0.041	-0.013
-296.720	259.568	0.032	-0.055
-295.705	-200.000	-0.001	0.257
-294.691	-20.030	0.046	0.028
-293.676	-141.311	-0.589	0.059
-292.662	-124.164	-0.191	-0.030
-291.647	800.000	-0.028	0.086
-290.632	800.000	-0.099	0.272
-289.618	232.889	0.164	0.266
-288.603	800.000	0.049	0.187
-287.589	263.507	0.091	0.156
-286.574	248.687	0.116	0.193
-285.559	800.000	0.041	0.141
-284.545	45.480	-0.182	0.166
-283.530	800.000	-0.074	-0.231
-282.516	111.276	0.203	-0.242
-281.501	71.804	0.073	0.075
-280.486	-200.000	0.038	-0.442
-279.472	-28.733	0.243	-0.138
-278.457	24.740	-0.158	-0.130
-277.443	-89.446	-0.093	0.027
-276.428	-195.500	0.079	-0.001
-275.413	-17.006	0.136	-0.085
-274.399	-101.298	0.040	-0.010
-273.384	382.424	-0.033	-0.066
-272.370	112.837	0.043	0.051
-271.355	800.000	0.141	-0.419
-270.340	-74.067	-0.144	-0.052
-269.326	503.157	-0.136	0.310
-268.311	800.000	0.040	0.150
-267.297	800.000	-0.040	0.160
-266.282	1.218	-0.323	0.229
-265.267	244.542	-0.046	0.077
-264.253	-148.364	0.210	-0.017
-263.238	-200.000	0.009	0.092
-262.224	658.892	0.055	-0.140
-261.209	-95.546	-0.021	0.006
-260.195	637.638	0.055	0.138
-259.180	226.042	-0.126	-0.202
-258.165	-88.705	0.178	0.052
-257.151	-100.335	0.109	-0.027
-256.136	65.570	-0.050	0.050
-255.122	-55.381	0.313	-0.139
-254.107	-24.767	-0.198	-0.116
-253.092	30.105	-0.209	0.176
-252.078	215.120	0.233	0.366
-251.063	-200.000	0.066	0.000
-250.049	-68.857	0.437	0.167
-249.034	274.844	0.149	0.260
-248.019	-22.250	0.290	-0.173
-247.005	-200.000	0.013	-0.364
-245.990	-60.769	-0.117	-0.049
-244.976	-178.008	0.141	-0.003
-243.961	-200.000	-0.000	-0.199
-242.946	99.204	-0.117	0.134
-241.932	264.949	-0.065	-0.111
-240.917	800.000	-0.093	0.278
-239.903	72.518	-0.150	-0.155
-238.888	-200.000	0.035	0.302
-237.873	715.505	-0.200	-0.524
-236.859	-137.381	0.201	0.022
-235.844	608.414	0.064	-0.158
-234.830	-200.000	-0.049	0.245
-233.815	-40.880	-0.246	0.125
-232.800	503.049	-0.040	0.090
-231.786	141.498	0.274	0.358
-230.771	283.062	0.151	0.268
-229.757	-49.836	-0.204	-0.096
-228.742	-94.432	-0.244	-0.066
-227.727	-21.558	0.313	0.188
-226.713	800.000	0.070	0.211
-225.698	42.747	0.179	-0.160
-224.684	8.553	0.129	0.096
-223.669	800.000	0.029	0.090
-222.655	425.581	-0.177	-0.376
-221.640	129.714	-0.156	0.197
-220.625	746.443	-0.131	-0.347
-219.611	29.883	-0.217	0.182
-218.596	-9.243	0.218	-0.144
-217.582	-122.396	0.287	-0.046
-216.567	-118.139	0.142	-0.025
-215.552	25.906	-0.113	0.093
-214.538	-200.000	0.444	0.001
-213.523	134.339	-0.244	-0.312
-212.509	800.000	-0.063	-0.183
-211.494	-200.000	-0.059	-0.331
-210.479	110.186	-0.260	-0.307
-209.465	-150.783	0.418	-0.031
-208.450	-184.876	0.193	-0.003
-207.436	214.293	0.102	0.159
-206.421	-200.000	-0.039	-0.191
-205.406	374.422	-0.173	-0.347
-204.392	-79.704	-0.139	0.046
-203.377	112.714	0.084	0.100
-202.363	-120.852	0.384	0.064
-201.348	281.444	-0.092	-0.163
-200.333	55.409	-0.125	-0.119
-199.319	515.129	0.098	0.226
-198.304	800.000	0.097	0.314
-197.290	-147.801	0.158	-0.013
-196.275	-200.000	-0.021	0.114
-195.260	-200.000	0.028	-0.163
-194.246	-130.518	-0.436	-0.058
-193.231	-68.587	-0.245	-0.093
-192.217	173.032	0.085	0.121
-191.202	13.269	0.162	0.124
-190.187	8.276	0.106	0.079
-189.173	-70.198	0.144	-0.054
-188.158	-200.000	0.043	0.212
-187.144	-1.025	0.236	0.165
-186.129	127.435	-0.097	0.121
-185.114	285.372	-0.144	-0.256
-184.100	-200.000	0.125	0.000
-183.085	229.835	0.084	-0.136
-182.071	494.886	0.095	-0.215
-181.056	800.000	0.106	-0.352
-180.042	-192.365	0.186	0.002
-179.027	52.371	0.012	0.011
-178.012	-73.674	0.270	0.097
-176.998	-200.000	-0.011	-0.118
-175.983	136.480	0.038	0.049
-174.969	7.533	0.336	0.248
-173.954	40.164	0.038	-0.034
-172.939	217.040	-0.246	-0.386
-171.925	-57.519	0.270	0.117
-170.910	800.000	0.080	-0.266
-169.896	-82.291	-0.264	-0.085
-168.881	66.355	-0.062	0.062
-167.866	-132.190	-0.222	-0.028
-166.852	-16.820	-0.046	-0.029
-165.837	-17.352	-0.148	-0.092
-164.823	168.574	-0.144	-0.202
-163.808	-200.000	-0.017	-0.084
-162.793	-79.159	-0.033	-0.011
-161.779	-140.643	-0.178	-0.018
-160.764	-200.000	0.064	-0.295
-159.750	-18.928	-0.033	0.020
-158.735	-131.168	0.243	-0.032
-157.720	-200.000	0.013	-0.241
-156.706	574.768	-0.081	0.195
-155.691	102.463	-0.163	0.188
-154.677	598.055	0.132	0.321
-153.662	-200.000	0.020	0.199
-152.647	-9.302	-0.194	0.127
-151.633	-200.000	0.018	0.105
-150.618	-139.995	0.120	0.012
-149.604	-107.181	0.262	0.057
-148.589	-143.224	0.373	0.035
-147.574	-103.379	-0.205	0.047
-146.560	-145.870	0.187	0.016
-145.545	-69.467	0.441	-0.166
-144.531	-10.054	0.054	0.035
-143.516	297.255	-0.110	-0.198
-142.502	-29.187	0.113	0.064
-141.487	800.000	0.076	-0.288
-140.472	-112.351	0.302	0.059
-139.458	111.221	-0.141	-0.167
-138.443	32.767	0.142	-0.121
-137.429	78.419	-0.219	-0.230
-136.414	-119.872	0.198	0.034
-135.399	-174.226	0.293	-0.008
-134.385	-142.217	0.024	-0.002
-133.370	-200.000	0.110	-0.521
-132.356	93.924	-0.114	-0.127
-131.341	-200.000	-0.018	-0.107
-130.326	-155.508	0.388	-0.025
-129.312	-77.967	0.020	-0.007
-128.297	-42.938	0.281	-0.140
-127.283	-29.111	0.254	-0.143
-126.268	-200.000	-0.054	-0.269
-125.253	38.200	0.218	0.191
-124.239	37.657	0.161	0.141
-123.224	238.695	0.146	-0.238
-122.210	-22.221	-0.102	-0.061
-121.195	-200.000	-0.003	0.172
-120.180	663.429	0.099	-0.252
-119.166	-191.413	0.289	-0.003
-118.151	14.012	0.115	-0.088
-117.137	5.252	-0.166	-0.120
-116.122	56.431	-0.178	0.170
-115.107	-200.000	0.043	0.247
-114.093	-200.000	0.056	-0.257
-113.078	800.000	0.013	-0.051
-112.064	-82.276	0.526	0.168
-111.049	-84.734	-0.320	-0.099
-110.034	-94.468	0.039	-0.010
-109.020	269.699	-0.101	0.174
-108.005	-164.519	0.356	0.016
-106.991	-200.000	0.009	-0.256
-105.976	712.517	0.094	-0.245
-104.962	-120.081	0.230	-0.039
-103.947	514.477	0.200	0.459
-102.932	158.844	-0.124	-0.170
-101.918	716.722	0.062	-0.163
-100.903	36.582	0.125	-0.108
-99.889	-200.000	-0.044	0.237
-98.874	-200.000	0.029	0.138
-97.859	-182.424	0.318	-0.006
-96.845	-200.000	-0.043	-0.219
-95.830	-145.558	0.109	-0.010
-94.816	-37.232	-0.295	0.155
-93.801	800.000	-0.044	-0.147
-92.786	18.563	-0.074	-0.058
-91.772	-200.000	-0.007	0.119
-90.757	244.516	0.178	0.293
-89.743	12.657	-0.425	-0.322
-88.728	-56.476	0.256	-0.111
-87.713	-18.390	-0.098	0.060
-86.699	-200.000	0.029	-0.127
-85.684	-42.312	0.212	-0.106
-84.670	283.237	-0.149	-0.263
-83.655	-11.554	0.163	0.105
-82.640	130.129	-0.246	-0.309
-81.626	-140.792	-0.304	0.031
-80.611	-137.601	0.414	0.046
-79.597	-92.921	0.172	-0.047
-78.582	-89.584	0.191	0.055
-77.567	21.517	-0.200	0.160
-76.553	82.617	0.204	0.217
-75.538	-92.345	-0.383	-0.106
-74.524	800.000	-0.063	0.257
-73.509	-8.378	0.253	-0.167
-72.494	-103.457	0.018	-0.004
-71.480	-139.401	-0.245	-0.026
-70.465	-200.000	0.075	-0.323
-69.451	24.781	-0.118	0.096
-68.436	68.579	-0.064	0.064
-67.422	-200.000	0.086	0.414
-66.407	800.000	0.100	-0.299
-65.392	800.000	-0.075	0.267
-64.378	-200.000	0.000	0.075
-63.363	-75.930	0.187	-0.065
-62.349	32.873	0.186	-0.158
-61.334	46.713	-0.653	-0.594
-60.319	277.527	0.208	0.363
-59.305	771.229	-0.429	-1.146
-58.290	657.114	0.371	0.934
-57.276	451.840	0.574	1.243
-56.261	-200.000	92.564	566.234
-55.246	575.589	1346.880	3223.281
-54.232	167.433	2517.098	3504.510
-53.217	107.595	2254.371	2629.443
-52.203	42.406	1888.348	1682.574
-51.188	36.361	1681.117	1452.562
-50.173	33.599	1637.355	1394.413
-49.159	51.542	1682.032	1566.353
-48.144	53.051	1699.139	1593.446
-47.130	36.019	1660.892	1432.310
-46.115	33.187	1646.940	1399.306
-45.100	33.121	1642.136	1394.685
-44.086	33.099	1639.135	1391.915
-43.071	33.054	1636.946	1389.674
-42.057	32.990	1634.924	1387.430
-41.042	33.037	1632.705	1385.836
-40.027	33.029	1631.494	1384.694
-39.013	33.030	1628.907	1382.449
-37.998	33.103	1626.853	1381.187
-36.984	33.066	1626.171	1380.282
-35.969	33.135	1623.990	1378.885
-34.954	33.173	1622.712	1378.017
-33.940	33.167	1620.978	1376.451
-32.925	33.083	1619.730	1374.721
-31.911	33.006	1618.152	1372.767
-30.896	33.062	1616.002	1371.298
-29.881	33.132	1614.377	1370.373
-28.867	33.148	1612.634	1368.949
-27.852	33.141	1610.923	1367.397
-26.838	32.991	1610.349	1365.768
-25.823	33.141	1608.519	1365.244
-24.809	33.132	1606.839	1363.701
-23.794	33.117	1605.451	1362.358
-22.779	33.084	1604.144	1360.958
-21.765	33.164	1602.704	1360.262
-20.750	33.114	1601.068	1358.462
-19.736	33.173	1599.893	1357.834
-18.721	33.245	1598.084	1356.761
-17.706	33.191	1596.489	1354.964
-16.692	33.094	1595.515	1353.389
-15.677	32.987	1594.392	1351.617
-14.663	33.215	1592.461	1351.554
-13.648	33.157	1591.181	1350.004
-12.633	33.137	1589.710	1348.555
-11.619	33.063	1588.622	1347.056
-10.604	33.157	1586.928	1346.236
-9.590	33.165	1585.571	1345.084
-8.575	33.275	1583.874	1344.373
-7.560	33.214	1582.996	1343.142
-6.546	33.163	1581.927	1341.822
-5.531	33.281	1580.175	1341.114
-4.517	33.130	1579.220	1339.186
-3.502	33.167	1578.562	1338.831
-2.487	33.219	1576.425	1337.335
-1.473	32.497	1564.703	1322.271
-0.458	28.912	1542.701	1278.745
0.556	21.947	1541.228	1238.717
1.571	18.928	1563.454	1234.818
2.586	18.162	1575.573	1238.736
3.600	16.762	1526.288	1190.052
4.615	12.687	1426.884	1085.627
5.629	8.811	1369.152	1017.048
6.644	7.892	1361.724	1005.638
7.659	7.892	1359.975	1004.256
8.673	7.872	1358.792	1003.169
9.688	7.774	1357.124	1001.233
10.702	7.547	1354.153	997.528
11.717	9.390	1357.516	1011.509
12.731	13.802	1365.064	1044.884
13.746	16.794	1369.485	1067.048
14.761	17.056	1367.968	1067.416
15.775	15.967	1365.961	1058.914
16.790	14.857	1363.599	1050.024
17.804	14.058	1360.700	1042.690
18.819	13.601	1359.321	1038.673
19.834	13.336	1358.107	1035.993
20.848	13.075	1356.863	1033.324
21.863	12.925	1355.804	1031.487
22.877	12.781	1354.835	1029.760
23.892	12.752	1353.771	1028.674
24.907	12.670	1352.878	1027.396
25.921	12.736	1351.815	1026.911
26.936	12.746	1350.889	1026.180
27.950	12.733	1350.633	1025.812
28.965	12.826	1349.214	1025.220
29.980	12.812	1348.339	1024.379
30.994	12.997	1346.868	1024.320
32.009	13.095	1345.264	1023.614
33.023	13.032	1344.189	1022.317
34.038	13.039	1342.785	1021.201
35.053	13.005	1341.435	1019.876
36.067	12.893	1340.761	1018.581
37.082	12.924	1339.840	1017.981
38.096	12.956	1338.687	1017.214
39.111	12.968	1338.151	1016.788
40.126	12.833	1337.501	1015.373
41.140	12.814	1336.522	1014.426
42.155	12.754	1335.957	1013.539
43.169	12.718	1335.647	1012.988
44.184	12.654	1335.386	1012.307
45.199	12.693	1334.795	1012.011
46.213	12.661	1334.590	1011.567
47.228	12.791	1333.452	1011.417
48.242	12.913	1331.888	1010.890
49.257	12.776	1331.043	1009.318
50.271	12.812	1329.668	1008.406
51.286	12.815	1327.954	1007.033
52.301	12.798	1327.055	1006.160
53.315	12.808	1325.628	1005.050
54.330	12.812	1324.788	1004.349
55.344	12.862	1323.128	1003.304
56.359	12.807	1322.165	1002.151
57.374	12.759	1321.310	1001.125
58.388	12.645	1321.102	1000.187
59.403	12.706	1320.417	999.949
60.417	12.545	1319.866	998.463
61.432	12.540	1318.943	997.646
62.447	12.566	1317.758	996.824
63.461	12.576	1316.681	995.981
64.476	12.603	1315.390	995.078
65.490	12.553	1314.045	993.672
66.505	12.494	1312.882	992.347
67.520	12.629	1311.420	991.969
68.534	12.543	1310.298	990.513
69.549	12.652	1309.584	990.544
70.563	12.577	1308.592	989.254
71.578	12.654	1306.962	988.394
72.593	12.535	1306.446	987.202
73.607	12.568	1305.905	986.903
74.622	12.416	1305.258	985.420
75.636	12.590	1303.777	985.257
76.651	12.481	1303.771	984.508
77.666	12.511	1303.431	984.346
78.680	12.560	1302.772	984.054
79.695	12.511	1301.984	983.078
80.709	12.645	1300.914	982.984
81.724	12.709	1300.508	982.975
82.739	12.703	1299.501	982.091
83.753	12.801	1298.831	982.079
84.768	12.800	1297.903	981.287
85.782	12.902	1296.238	980.545
86.797	12.877	1295.009	979.384
87.812	12.811	1293.945	978.096
88.826	12.856	1292.780	977.397
89.841	12.792	1292.129	976.439
90.855	12.875	1290.872	975.893
91.870	12.901	1290.094	975.375
92.884	12.832	1289.578	974.493
93.899	12.944	1288.386	974.164
94.914	12.881	1287.964	973.389
95.928	12.975	1286.649	972.860
96.943	12.873	1286.041	971.717
97.957	12.909	1284.943	971.011
98.972	12.840	1283.916	969.745
99.987	12.925	1282.890	969.384
101.001	12.881	1282.105	968.445
102.016	12.846	1280.524	966.957
103.030	12.866	1279.860	966.487
104.045	12.817	1279.682	965.984
105.060	12.757	1277.958	964.245
106.074	12.729	1276.814	963.131
107.089	12.636	1275.258	961.333
108.103	12.617	1273.826	960.055
109.118	12.656	1272.769	959.401
110.133	12.652	1271.515	958.344
111.147	12.661	1270.258	957.368
112.162	12.718	1268.503	956.291
113.176	12.785	1267.513	955.851
114.191	12.646	1267.253	954.760
115.206	12.758	1265.802	954.234
116.220	12.778	1264.361	953.180
117.235	12.801	1263.317	952.441
118.249	12.714	1262.520	951.254
119.264	12.753	1261.024	950.265
120.279	12.630	1260.338	948.954
121.293	12.710	1258.803	948.179
122.308	12.625	1258.528	947.398
123.322	12.579	1257.362	946.169
124.337	12.720	1255.652	945.609
125.352	12.648	1255.244	944.803
126.366	12.585	1254.089	943.492
127.381	12.569	1253.096	942.571
128.395	12.597	1252.132	941.921
129.410	12.718	1250.832	941.552
130.424	12.671	1250.416	940.889
131.439	12.735	1249.302	940.327
132.454	12.841	1248.150	939.986
133.468	12.723	1248.111	939.200
134.483	12.696	1247.145	938.233
135.497	12.660	1246.137	937.187
136.512	12.747	1244.637	936.473
137.527	12.725	1243.533	935.435
138.541	12.747	1242.125	934.416
139.556	12.759	1240.856	933.447
140.570	12.847	1239.956	933.183
141.585	13.012	1238.446	932.901
142.600	12.966	1237.043	931.499
143.614	12.965	1236.681	931.138
144.629	12.966	1235.778	930.383
145.643	13.015	1234.492	929.610
146.658	12.968	1233.257	928.331
147.673	12.955	1232.005	927.236
148.687	12.800	1230.917	925.463
149.702	12.754	1229.439	924.011
150.716	12.856	1228.087	923.489
151.731	12.897	1226.928	922.761
152.746	12.876	1225.671	921.619
153.760	12.930	1225.040	921.363
154.775	12.840	1224.083	920.061
155.789	13.051	1222.192	919.735
156.804	13.024	1221.540	919.008
157.819	12.952	1220.762	917.945
158.833	13.136	1219.805	918.164
159.848	13.131	1218.930	917.397
160.862	13.262	1217.366	916.868
161.877	12.984	1216.987	914.956
162.892	12.950	1215.390	913.490
163.906	12.967	1214.764	913.028
164.921	12.957	1213.564	911.995
165.935	13.034	1212.743	911.719
166.950	13.050	1212.148	911.281
167.964	13.067	1211.348	910.692
168.979	12.916	1211.233	909.695
169.994	13.102	1209.924	909.654
171.008	12.972	1209.704	908.693
172.023	13.067	1208.460	908.199
173.037	13.194	1207.585	908.157
174.052	13.238	1206.467	907.482
175.067	13.098	1205.566	905.954
176.081	13.025	1204.897	904.972
177.096	12.987	1204.347	904.272
178.110	13.002	1203.024	903.281
179.125	13.138	1201.522	902.816
180.140	13.105	1200.499	901.783
181.154	13.055	1199.488	900.673
182.169	13.138	1197.985	899.916
183.183	13.161	1197.049	899.262
184.198	13.363	1195.749	899.303
185.213	13.293	1194.553	897.943
186.227	13.273	1193.595	897.036
187.242	13.287	1192.715	896.370
188.256	13.380	1191.986	896.245
189.271	13.302	1190.925	894.950
190.286	13.253	1190.315	894.143
191.300	13.109	1188.982	892.287
192.315	13.089	1188.166	891.486
193.329	13.085	1187.767	891.086
194.344	13.091	1186.887	890.378
195.359	13.252	1186.114	890.589
196.373	13.281	1185.949	890.544
197.388	13.467	1185.211	890.910
198.402	13.442	1185.037	890.566
199.417	13.580	1184.326	890.693
200.432	13.609	1183.485	890.139
201.446	13.567	1182.947	889.431
202.461	13.668	1181.822	889.047
203.475	13.608	1180.876	887.939
204.490	13.599	1179.447	886.735
205.504	13.642	1178.095	885.873
206.519	13.440	1177.481	884.249
207.534	13.627	1175.600	883.756
208.548	13.563	1174.901	882.814
209.563	13.480	1174.315	881.851
210.577	13.503	1173.597	881.356
211.592	13.553	1172.700	880.874
212.607	13.720	1171.778	880.989
213.621	13.602	1171.269	879.902
214.636	13.691	1170.189	879.483
215.650	13.566	1169.604	878.306
216.665	13.743	1168.491	878.330
217.680	13.705	1167.395	877.227
218.694	13.877	1166.526	877.404
219.709	13.869	1165.736	876.688
220.723	13.862	1165.098	876.094
221.738	13.765	1164.325	874.926
222.753	13.821	1163.516	874.534
223.767	13.846	1162.643	873.931
224.782	13.847	1162.226	873.547
225.796	13.880	1161.678	873.230
226.811	13.899	1160.538	872.399
227.826	13.888	1160.187	872.000
228.840	13.862	1159.492	871.264
229.855	13.766	1158.972	870.294
230.869	13.845	1158.172	870.026
231.884	13.877	1157.077	869.296
232.899	13.918	1156.265	868.825
233.913	13.742	1155.950	867.590
234.928	13.714	1155.050	866.689
235.942	13.771	1154.081	866.183
236.957	13.838	1153.462	865.992
237.972	13.866	1152.595	865.412
238.986	13.768	1152.088	864.443
240.001	13.755	1151.615	863.943
241.015	13.776	1150.475	863.123
242.030	13.918	1149.691	863.197
243.045	13.951	1149.210	862.930
244.059	13.891	1148.254	861.824
245.074	13.993	1147.508	861.718
246.088	13.983	1146.480	860.818
247.103	13.952	1145.936	860.172
248.117	14.091	1145.158	860.229
249.132	14.112	1144.762	859.966
250.147	14.275	1143.779	859.993
251.161	14.345	1143.114	859.777
252.176	14.260	1142.847	859.062
253.190	14.272	1142.091	858.479
254.205	14.396	1141.308	858.456
255.220	14.367	1140.966	857.972
256.234	14.388	1140.275	857.485
257.249	14.271	1139.876	856.508
258.263	14.372	1138.989	856.281
259.278	14.476	1137.913	855.931
260.293	14.446	1137.518	855.405
261.307	14.445	1136.566	854.609
262.322	14.454	1136.361	854.426
263.336	14.469	1135.571	853.834
264.351	14.636	1134.828	854.053
265.366	14.609	1134.199	853.366
266.380	14.584	1133.582	852.698
267.395	14.543	1132.912	851.908
268.409	14.413	1132.152	850.599
269.424	14.624	1131.302	850.960
270.439	14.551	1130.687	850.050
271.453	14.474	1130.305	849.299
272.468	14.419	1129.142	848.069
273.482	14.426	1128.592	847.614
274.497	14.371	1128.101	846.894
275.512	14.561	1127.247	847.140
276.526	14.558	1126.262	846.312
277.541	14.579	1125.240	845.573
278.555	14.626	1125.105	845.638
279.570	14.615	1124.856	845.319
280.585	14.745	1123.561	844.929
281.599	14.658	1123.171	844.118
282.614	14.657	1121.536	842.813
283.628	14.669	1120.693	842.163
284.643	14.709	1119.665	841.517
285.657	14.725	1119.093	841.097
286.672	14.630	1118.283	839.932
287.687	14.711	1117.409	839.610
288.701	14.679	1116.731	838.868
289.716	14.832	1115.290	838.475
290.730	14.839	1114.674	837.976
291.745	14.758	1114.588	837.429
292.760	14.794	1113.858	836.986
293.774	14.787	1113.669	836.735
294.789	14.907	1112.674	836.515
295.803	14.901	1111.861	835.800
296.818	14.934	1110.990	835.236
297.833	14.806	1110.062	833.828
298.847	14.947	1109.217	833.820
299.862	14.958	1108.783	833.473
300.876	14.940	1108.171	832.852
301.891	15.097	1107.408	832.987
302.906	14.977	1106.736	831.811
303.920	15.122	1105.917	831.840
304.935	15.181	1105.471	831.726
305.949	15.217	1104.669	831.226
306.964	15.258	1103.938	830.804
307.979	15.141	1103.569	829.875
308.993	15.097	1103.091	829.226
310.008	15.190	1102.196	828.938
311.022	15.212	1101.167	828.200
312.037	15.227	1100.399	827.624
313.052	15.120	1099.615	826.432
314.066	15.156	1098.553	825.739
315.081	15.046	1097.944	824.663
316.095	14.965	1097.157	823.603
317.110	15.134	1096.341	823.748
318.125	15.032	1095.768	822.746
319.139	15.073	1095.197	822.444
320.154	15.160	1094.407	822.203
321.168	15.091	1093.677	821.243
322.183	15.133	1093.151	820.985
323.197	15.154	1092.684	820.664
324.212	15.224	1091.906	820.349
325.227	15.205	1091.537	819.905
326.241	15.224	1090.806	819.378
327.256	15.168	1090.091	818.496
328.270	15.134	1089.306	817.668
329.285	15.190	1088.241	817.067
330.300	15.185	1087.268	816.240
331.314	15.272	1086.087	815.704
332.329	15.232	1085.632	815.093
333.343	15.257	1084.607	814.376
334.358	15.354	1083.615	814.028
335.373	15.243	1083.193	813.104
336.387	15.403	1082.393	813.204
337.402	15.485	1081.568	812.910
338.416	15.404	1080.596	811.717
339.431	15.460	1080.539	811.872
340.446	15.366	1080.150	811.053
341.460	15.532	1078.921	810.861
342.475	15.644	1078.505	811.017
343.489	15.732	1077.327	810.483
344.504	15.705	1076.234	809.457
345.519	15.759	1075.571	809.150
346.533	15.717	1074.522	808.085
347.548	15.719	1074.077	807.689
348.562	15.652	1073.875	807.142
349.577	15.626	1072.916	806.229
350.592	15.594	1072.116	805.402
351.606	15.674	1071.163	804.996
352.621	15.631	1070.505	804.227
353.635	15.579	1070.242	803.709
354.650	15.578	1069.348	802.963
355.665	15.626	1068.416	802.419
356.679	15.675	1067.812	802.131
357.694	15.665	1067.361	801.670
358.708	15.722	1066.431	801.175
359.723	15.673	1066.282	800.757
360.738	15.713	1065.527	800.309
361.752	15.838	1064.797	800.287
362.767	15.677	1064.365	799.123
363.781	15.767	1063.862	799.105
364.796	15.872	1063.118	798.973
365.810	15.936	1062.821	798.984
366.825	15.994	1061.929	798.514
367.840	16.057	1061.601	798.497
368.854	16.190	1060.622	798.318
369.869	15.955	1060.227	796.841
370.883	16.038	1059.292	796.458
371.898	15.998	1058.805	795.835
372.913	15.961	1058.241	795.166
373.927	16.004	1057.493	794.736
374.942	16.130	1057.140	794.994
375.956	16.022	1056.684	794.070
376.971	16.131	1055.631	793.722
377.986	16.055	1055.513	793.204
379.000	16.170	1054.721	793.082
380.015	16.196	1054.242	792.773
381.029	16.167	1053.852	792.271
382.044	16.216	1053.046	791.828
383.059	16.221	1052.229	791.167
384.073	16.285	1051.233	790.647
385.088	16.326	1050.373	790.121
386.102	16.325	1049.595	789.460
387.117	16.238	1048.652	788.277
388.132	16.163	1047.986	787.355
389.146	16.100	1047.337	786.508
390.161	16.176	1046.625	786.255
391.175	16.279	1045.373	785.725
392.190	16.372	1044.635	785.532
393.205	16.352	1044.253	785.083
394.219	16.348	1043.473	784.408
395.234	16.253	1042.630	783.264
396.248	16.303	1041.176	782.333
397.263	16.347	1040.783	782.172
398.278	16.124	1040.309	780.716
399.292	16.219	1039.635	780.582
400.307	16.264	1038.202	779.646
401.321	16.211	1037.891	779.096
402.336	16.279	1037.311	778.908
403.350	16.319	1036.408	778.343
404.365	16.313	1036.000	777.942
405.380	16.324	1035.324	777.413
406.394	16.395	1034.715	777.215
407.409	16.248	1034.415	776.247
408.423	16.521	1033.247	776.552
409.438	16.556	1032.558	776.127
410.453	16.651	1031.778	775.908
411.467	16.538	1031.165	774.863
412.482	16.710	1030.460	775.049
413.496	16.690	1029.810	774.402
414.511	16.678	1029.058	773.712
415.526	16.723	1028.649	773.541
416.540	16.867	1028.410	773.950
417.555	16.859	1027.800	773.387
418.569	16.838	1027.148	772.732
419.584	16.755	1026.823	772.042
420.599	16.675	1026.450	771.331
421.613	100.983	1317.964	1456.544
422.628	92.293	1360.398	1456.636
