DTS Sentinel unit serial number:	SN413079Multiplexer serial number:	ORYXHardware model number:	OX4-SRSoftware version number:	ORYX F/W v4.00 Oryx Data Collector v3.7.2.0data status	okinstallation	princeton_trtdifferential loss correction	single-endedforward channel	channel 2reverse channel	N/Adate	2019/09/11time	09:29:11forward acquisition time	60.00reverse acquisition time	0.00gamma	496.2192k internal	0.2317k external	0.2317temperature offset calibration	0.9966default loss term (dB/km)	0.3790temperature slope calibration	1.0000multiplexer offset coefficient	1.0000multiplexer slope coefficient	1.0000fibre end	0.00T internal ref (°C)	34.69T ext. ref 1 (°C)	0.11T ext. ref 2 (°C)	31.41length (m)	temperature (°C)	Stokes	anti-Stokes-747.200	-25.564	-0.224	-0.134
-746.185	-27.745	-0.186	0.109
-745.171	-135.226	-0.438	0.053
-744.156	224.791	0.074	-0.122
-743.142	117.493	0.185	-0.231
-742.127	-38.466	0.149	0.080
-741.112	49.712	0.243	0.232
-740.098	-74.276	-0.079	-0.029
-739.083	484.432	0.185	0.426
-738.069	541.108	0.074	-0.177
-737.054	335.401	0.204	-0.400
-736.039	-30.384	-0.193	-0.111
-735.025	425.519	0.203	0.443
-734.010	-140.460	0.362	-0.038
-732.996	800.000	0.054	-0.189
-731.981	-200.000	-0.377	-0.001
-730.966	-108.420	0.211	0.046
-729.952	-200.000	0.008	-0.210
-728.937	371.734	-0.067	-0.139
-727.923	-200.000	0.000	-0.023
-726.908	-200.000	-0.042	-0.203
-725.894	-65.847	-0.351	-0.142
-724.879	-200.000	-0.018	-0.080
-723.864	-200.000	0.044	-0.201
-722.850	203.231	0.306	-0.478
-721.835	329.343	-0.055	-0.108
-720.821	-8.165	-0.170	-0.116
-719.806	-150.723	-0.381	0.029
-718.791	-200.000	0.020	-0.332
-717.777	627.628	0.035	0.089
-716.762	-180.209	-0.136	0.003
-715.748	-200.000	-0.005	-0.039
-714.733	382.641	-0.164	0.341
-713.718	-200.000	0.043	0.265
-712.704	-59.787	-0.223	-0.097
-711.689	800.000	0.060	0.179
-710.675	79.023	0.139	0.150
-709.660	514.559	0.036	-0.085
-708.645	-51.901	-0.312	-0.147
-707.631	301.261	0.221	0.413
-706.616	-13.329	0.139	-0.091
-705.602	-176.709	-0.044	0.001
-704.587	-93.470	0.060	0.017
-703.572	38.266	-0.219	0.197
-702.558	-49.206	-0.311	0.150
-701.543	-200.000	0.032	-0.233
-700.529	-117.279	-0.199	-0.037
-699.514	-200.000	-0.022	0.364
-698.499	800.000	0.014	0.040
-697.485	800.000	0.023	0.087
-696.470	146.217	0.052	-0.071
-695.456	-79.183	-0.249	0.085
-694.441	-20.473	-0.246	-0.153
-693.426	-120.401	-0.245	-0.042
-692.412	-18.761	0.180	0.114
-691.397	180.880	-0.028	-0.042
-690.383	-200.000	-0.016	0.174
-689.368	-200.000	-0.021	-0.166
-688.354	19.490	0.229	-0.186
-687.339	-30.875	-0.036	0.021
-686.324	154.208	0.145	-0.200
-685.310	576.568	0.083	0.204
-684.295	-92.188	-0.024	-0.007
-683.281	-200.000	0.008	-0.049
-682.266	26.433	0.147	-0.124
-681.251	163.319	0.060	-0.085
-680.237	-36.266	0.117	-0.064
-679.222	328.449	-0.080	-0.154
-678.208	-68.184	0.038	-0.015
-677.193	800.000	0.114	-0.338
-676.178	51.119	0.248	-0.238
-675.164	-108.665	-0.196	-0.042
-674.149	-150.378	0.270	0.021
-673.135	-116.391	-0.335	0.063
-672.120	-106.426	-0.146	-0.033
-671.105	-159.634	0.217	0.012
-670.091	-59.157	-0.240	-0.105
-669.076	-74.172	0.196	0.072
-668.062	-145.441	-0.149	-0.014
-667.047	55.684	0.140	-0.137
-666.032	-21.247	0.318	-0.196
-665.018	-137.240	-0.076	0.009
-664.003	-200.000	0.047	0.302
-662.989	63.866	0.284	0.288
-661.974	-24.161	-0.194	0.117
-660.959	23.325	-0.318	-0.263
-659.945	471.164	0.065	-0.147
-658.930	-91.861	-0.021	-0.006
-657.916	-200.000	-0.024	-0.112
-656.901	-200.000	-0.018	0.192
-655.886	265.965	0.178	-0.313
-654.872	-144.697	0.292	0.027
-653.857	-86.601	-0.312	0.097
-652.843	91.366	0.233	0.265
-651.828	17.392	-0.089	-0.071
-650.814	-31.234	-0.015	-0.009
-649.799	-50.673	-0.080	-0.038
-648.784	-200.000	0.016	0.197
-647.770	516.704	0.020	0.048
-646.755	144.066	0.191	-0.257
-645.741	54.702	0.270	0.263
-644.726	-114.819	-0.358	0.069
-643.711	473.193	0.074	-0.167
-642.697	-113.233	-0.121	-0.024
-641.682	-200.000	-0.064	0.302
-640.668	-103.782	0.112	0.026
-639.653	327.545	0.042	-0.081
-638.638	127.437	0.197	0.252
-637.624	-103.070	-0.133	0.032
-636.609	-200.000	0.007	0.145
-635.595	800.000	-0.127	-0.364
-634.580	800.000	0.082	-0.264
-633.565	-52.194	-0.272	0.127
-632.551	564.360	0.013	-0.031
-631.536	9.748	0.153	-0.117
-630.522	-120.442	0.390	0.067
-629.507	-164.246	-0.356	-0.017
-628.492	-138.591	-0.284	0.031
-627.478	96.767	0.005	-0.006
-626.463	-161.444	-0.161	-0.008
-625.449	-13.054	0.177	0.116
-624.434	-200.000	-0.039	-0.452
-623.419	-90.252	-0.126	0.037
-622.405	-35.792	0.195	-0.107
-621.390	-200.000	0.034	0.322
-620.376	-50.039	-0.219	-0.104
-619.361	687.171	-0.051	-0.134
-618.346	-38.177	0.291	-0.156
-617.332	315.143	-0.076	-0.144
-616.317	730.896	0.117	0.314
-615.303	-134.757	-0.476	0.058
-614.288	241.810	-0.136	-0.229
-613.273	-152.743	-0.082	0.006
-612.259	183.810	-0.188	0.280
-611.244	245.265	0.107	0.181
-610.230	-7.492	-0.315	-0.214
-609.215	237.294	0.168	-0.280
-608.201	-18.095	-0.221	-0.139
-607.186	798.577	-0.001	0.002
-606.171	-116.893	-0.177	0.033
-605.157	-164.000	0.208	0.010
-604.142	-200.000	0.040	-0.244
-603.128	800.000	0.025	-0.092
-602.113	-56.555	0.179	0.080
-601.098	-19.803	-0.369	0.229
-600.084	-4.890	-0.163	-0.113
-599.069	150.468	-0.131	-0.179
-598.055	114.725	-0.199	-0.245
-597.040	-200.000	0.012	0.228
-596.025	18.946	-0.162	0.131
-595.011	131.612	-0.031	-0.040
-593.996	-5.869	-0.080	-0.055
-592.982	327.301	0.037	0.072
-591.967	-152.510	-0.036	0.003
-590.952	531.143	-0.017	0.041
-589.938	-200.000	-0.075	-0.373
-588.923	-26.519	-0.297	-0.175
-587.909	-200.000	-0.063	-0.325
-586.894	14.200	0.288	-0.225
-585.879	196.779	-0.157	0.242
-584.865	464.688	0.171	0.386
-583.850	-67.676	0.182	0.072
-582.836	356.641	0.160	-0.321
-581.821	33.238	0.101	-0.088
-580.806	-200.000	0.027	-0.249
-579.792	800.000	-0.036	0.115
-578.777	268.523	-0.062	0.109
-577.763	95.383	0.070	0.081
-576.748	-139.522	-0.157	0.017
-575.733	212.290	0.172	0.273
-574.719	-53.836	-0.055	0.025
-573.704	-113.690	-0.160	0.031
-572.690	-28.645	-0.234	-0.136
-571.675	151.657	0.023	0.032
-570.661	-165.478	-0.147	-0.006
-569.646	-200.000	0.092	-0.418
-568.631	46.287	0.093	-0.087
-567.617	-200.000	0.018	-0.125
-566.602	-106.992	0.152	-0.034
-565.588	86.288	-0.195	-0.216
-564.573	-94.324	0.209	0.057
-563.558	-200.000	-0.031	0.159
-562.544	615.185	0.006	-0.016
-561.529	-200.000	0.029	-0.200
-560.515	10.273	0.215	0.165
-559.500	-112.522	-0.305	-0.061
-558.485	-41.585	-0.205	0.106
-557.471	-47.911	0.224	0.109
-556.456	28.164	0.255	0.216
-555.442	-200.000	0.018	-0.287
-554.427	-24.758	-0.146	0.087
-553.412	-200.000	0.026	-0.290
-552.398	-94.472	-0.313	-0.086
-551.383	509.163	-0.083	0.194
-550.369	-152.309	-0.251	0.018
-549.354	34.015	-0.085	0.074
-548.339	-45.865	-0.205	0.102
-547.325	-52.450	-0.167	-0.077
-546.310	-0.487	0.089	-0.064
-545.296	-28.625	-0.044	-0.026
-544.281	-200.000	0.023	0.208
-543.266	-41.637	-0.224	-0.116
-542.252	112.567	-0.016	-0.020
-541.237	800.000	-0.056	-0.201
-540.223	-150.087	-0.191	0.015
-539.208	61.687	-0.239	0.239
-538.193	-27.604	0.161	-0.094
-537.179	19.832	-0.125	-0.101
-536.164	-42.571	-0.296	0.152
-535.150	-135.825	0.223	0.026
-534.135	67.988	0.186	-0.191
-533.121	-126.991	-0.044	0.006
-532.106	-136.352	-0.089	0.010
-531.091	-2.226	-0.270	0.190
-530.077	-64.183	-0.195	-0.080
-529.062	298.492	-0.095	-0.176
-528.048	-106.918	0.130	0.029
-527.033	-200.000	0.020	0.146
-526.018	-28.004	-0.090	0.052
-525.004	800.000	-0.028	-0.108
-523.989	312.526	0.039	0.074
-522.975	800.000	0.015	0.050
-521.960	45.075	-0.267	0.247
-520.945	207.889	0.110	0.172
-519.931	-57.365	-0.201	0.089
-518.916	194.083	0.094	0.143
-517.902	-88.347	0.269	0.081
-516.887	-1.099	-0.155	-0.110
-515.872	-54.395	-0.278	-0.127
-514.858	-200.000	0.020	-0.146
-513.843	-200.000	-0.038	-0.298
-512.829	-65.956	-0.329	0.132
-511.814	-200.000	0.022	-0.166
-510.799	325.857	0.146	-0.281
-509.785	-22.015	-0.196	-0.120
-508.770	123.378	0.091	-0.115
-507.756	-148.868	0.297	0.024
-506.741	558.615	-0.043	0.104
-505.726	-200.000	-0.004	-0.148
-504.712	693.922	-0.076	0.201
-503.697	-129.127	0.058	0.008
-502.683	-65.077	-0.062	-0.025
-501.668	-48.989	-0.034	0.016
-500.653	800.000	0.067	-0.223
-499.639	44.396	-0.187	-0.172
-498.624	-105.802	0.517	0.117
-497.610	255.618	-0.189	0.324
-496.595	134.453	-0.120	0.156
-495.581	-89.183	0.224	-0.066
-494.566	111.611	0.200	0.242
-493.551	-200.000	-0.004	0.288
-492.537	-34.612	-0.238	0.131
-491.522	800.000	0.052	-0.188
-490.508	-60.303	0.177	0.076
-489.493	116.584	-0.305	-0.375
-488.478	-200.000	-0.049	0.277
-487.464	-145.034	-0.259	0.024
-486.449	800.000	-0.028	0.115
-485.435	-61.374	-0.168	0.071
-484.420	800.000	-0.062	-0.186
-483.405	-80.344	0.269	-0.090
-482.391	705.995	0.056	-0.147
-481.376	-65.459	0.117	0.047
-480.362	-9.076	0.110	0.074
-479.347	100.198	0.110	-0.128
-478.332	33.723	-0.110	0.096
-477.318	-200.000	-0.019	0.302
-476.303	19.513	-0.099	0.080
-475.289	48.916	0.163	-0.154
-474.274	-200.000	0.028	0.125
-473.259	789.113	-0.017	0.046
-472.245	-142.053	0.033	-0.003
-471.230	-200.000	-0.103	0.585
-470.216	-133.063	0.056	0.007
-469.201	267.580	0.151	0.264
-468.186	538.550	-0.105	0.249
-467.172	800.000	0.036	-0.150
-466.157	-12.247	0.193	-0.127
-465.143	-200.000	-0.015	0.240
-464.128	-80.953	-0.305	-0.101
-463.113	67.140	0.260	0.265
-462.099	800.000	0.070	0.244
-461.084	4.185	0.070	0.052
-460.070	-8.387	0.102	-0.068
-459.055	-143.407	0.106	-0.010
-458.040	270.929	0.101	-0.178
-457.026	-200.000	-0.085	-0.494
-456.011	-28.230	0.186	0.107
-454.997	-200.000	-0.100	0.476
-453.982	-200.000	-0.007	0.160
-452.968	622.141	-0.031	0.078
-451.953	-42.431	0.237	-0.121
-450.938	118.873	-0.044	0.055
-449.924	18.896	0.122	0.098
-448.909	-120.604	-0.102	-0.017
-447.895	800.000	-0.071	-0.232
-446.880	800.000	0.041	-0.143
-445.865	-156.465	-0.433	-0.027
-444.851	404.363	-0.112	0.236
-443.836	-66.115	0.122	0.049
-442.822	20.932	-0.296	-0.240
-441.807	-24.387	-0.336	-0.200
-440.792	122.154	0.142	0.177
-439.778	204.673	0.149	-0.232
-438.763	-200.000	0.049	0.237
-437.749	92.222	-0.171	0.193
-436.734	92.722	0.165	0.186
-435.719	331.227	0.066	-0.128
-434.705	-29.779	0.082	0.047
-433.690	800.000	0.028	0.114
-432.676	-19.905	-0.110	0.068
-431.661	-122.914	-0.431	-0.069
-430.646	158.834	-0.165	0.230
-429.632	8.957	0.388	0.293
-428.617	-200.000	0.022	0.267
-427.603	-200.000	0.074	-0.424
-426.588	-24.156	0.112	0.067
-425.573	-200.000	0.028	-0.285
-424.559	-200.000	0.038	0.183
-423.544	800.000	0.031	0.103
-422.530	190.378	-0.124	0.186
-421.515	-118.642	0.198	0.035
-420.500	800.000	-0.120	-0.346
-419.486	167.633	-0.136	-0.193
-418.471	-70.986	-0.274	-0.103
-417.457	800.000	0.071	0.197
-416.442	157.196	0.068	0.094
-415.428	-141.431	-0.524	0.053
-414.413	-200.000	0.005	-0.060
-413.398	-33.922	0.108	0.059
-412.384	-86.430	-0.012	-0.004
-411.369	53.508	-0.099	-0.095
-410.355	84.079	-0.172	-0.188
-409.340	-200.000	-0.030	-0.167
-408.325	-160.564	0.268	-0.014
-407.311	-43.262	0.212	0.107
-406.296	384.232	-0.139	0.287
-405.282	321.381	-0.127	-0.241
-404.267	77.536	0.099	0.106
-403.252	-200.000	-0.093	0.492
-402.238	-110.074	-0.342	-0.071
-401.223	55.590	-0.126	-0.122
-400.209	68.896	-0.083	0.085
-399.194	36.940	-0.043	-0.038
-398.179	800.000	0.108	-0.394
-397.165	-1.885	0.268	-0.188
-396.150	19.129	0.308	0.247
-395.136	27.721	0.260	-0.219
-394.121	-55.975	0.118	-0.053
-393.106	-86.387	-0.272	0.084
-392.092	-49.285	0.193	-0.092
-391.077	19.288	0.051	-0.041
-390.063	-162.578	-0.285	-0.014
-389.048	-36.429	-0.166	0.089
-388.033	223.587	0.014	0.022
-387.019	157.289	0.139	-0.191
-386.004	-41.876	-0.295	0.151
-384.990	-35.705	0.231	0.125
-383.975	18.527	-0.164	-0.131
-382.960	54.916	0.159	-0.153
-381.946	800.000	0.028	-0.097
-380.931	21.572	0.139	0.113
-379.917	-102.147	-0.041	0.010
-378.902	-200.000	-0.011	-0.080
-377.888	-200.000	-0.146	-0.000
-376.873	6.884	-0.118	0.088
-375.858	253.747	-0.081	0.138
-374.844	-74.105	-0.157	0.057
-373.829	-200.000	0.011	0.207
-372.815	-155.881	-0.148	-0.009
-371.800	-200.000	0.018	-0.174
-370.785	237.674	0.062	0.103
-369.771	-136.390	0.217	0.025
-368.756	43.477	0.041	0.038
-367.742	-159.475	0.268	0.015
-366.727	-200.000	0.006	0.029
-365.712	-134.418	0.264	-0.032
-364.698	37.071	-0.099	0.087
-363.683	45.814	0.232	-0.214
-362.669	-120.465	0.192	0.033
-361.654	13.020	0.239	0.184
-360.639	-35.001	-0.182	-0.099
-359.625	103.776	0.136	0.159
-358.610	262.071	-0.014	-0.024
-357.596	-100.552	-0.257	-0.063
-356.581	800.000	-0.050	0.174
-355.566	-200.000	-0.007	0.103
-354.552	-200.000	-0.028	0.204
-353.537	-200.000	-0.006	0.223
-352.523	-41.587	-0.210	0.107
-351.508	477.212	0.179	-0.403
-350.493	-29.609	0.066	-0.037
-349.479	-64.121	0.273	-0.111
-348.464	-59.659	0.037	-0.016
-347.450	337.843	-0.179	-0.346
-346.435	-68.511	0.149	0.058
-345.420	9.494	0.148	0.112
-344.406	-47.633	-0.304	0.147
-343.391	464.078	0.112	0.248
-342.377	-200.000	0.001	0.177
-341.362	-14.491	0.092	0.059
-340.348	113.908	-0.122	0.148
-339.333	23.067	-0.187	0.153
-338.318	-7.461	-0.421	-0.284
-337.304	-200.000	0.001	-0.073
-336.289	-200.000	0.091	0.432
-335.275	-200.000	-0.031	-0.165
-334.260	800.000	0.027	0.102
-333.245	248.787	-0.113	-0.190
-332.231	-200.000	-0.039	0.281
-331.216	66.795	-0.069	0.070
-330.202	-90.527	-0.141	-0.041
-329.187	-115.478	-0.080	-0.015
-328.172	-24.134	0.120	0.071
-327.158	-200.000	0.007	-0.084
-326.143	28.394	0.270	0.227
-325.129	92.568	0.258	0.290
-324.114	-200.000	0.001	0.182
-323.099	-200.000	0.014	0.244
-322.085	56.815	0.260	-0.253
-321.070	193.995	-0.195	-0.294
-320.056	-149.782	-0.210	0.016
-319.041	-145.096	0.196	0.018
-318.026	800.000	-0.065	0.202
-317.012	236.293	0.083	-0.138
-315.997	-48.774	0.212	-0.101
-314.983	-92.328	-0.108	-0.030
-313.968	19.094	0.140	-0.112
-312.953	-111.323	0.113	-0.023
-311.939	211.489	0.188	-0.294
-310.924	-160.512	-0.235	-0.013
-309.910	-200.000	0.042	0.203
-308.895	-200.000	-0.000	0.023
-307.880	-9.977	0.053	-0.035
-306.866	-200.000	-0.034	-0.653
-305.851	209.604	0.154	0.240
-304.837	-51.909	-0.352	0.163
-303.822	-54.854	-0.190	-0.085
-302.807	-125.272	-0.180	0.027
-301.793	-87.285	0.346	0.104
-300.778	137.415	-0.048	-0.062
-299.764	330.844	0.191	0.366
-298.749	-200.000	0.054	0.273
-297.735	800.000	-0.061	0.260
-296.720	-200.000	-0.017	0.090
-295.705	-200.000	0.026	0.172
-294.691	-200.000	-0.030	-0.165
-293.676	512.303	0.049	0.114
-292.662	-81.436	0.253	-0.083
-291.647	-25.463	-0.164	-0.096
-290.632	-26.677	-0.302	-0.176
-289.618	-200.000	0.035	-0.219
-288.603	-200.000	0.008	-0.167
-287.589	-5.972	0.304	0.207
-286.574	-22.185	0.165	0.100
-285.559	800.000	-0.113	0.414
-284.545	800.000	0.032	-0.120
-283.530	516.908	-0.085	0.197
-282.516	269.269	0.018	0.031
-281.501	-178.196	0.281	-0.007
-280.486	165.587	-0.149	-0.209
-279.472	605.809	-0.094	0.234
-278.457	-200.000	0.003	0.055
-277.443	510.455	0.128	0.296
-276.428	-200.000	0.017	-0.468
-275.413	-200.000	-0.103	-0.000
-274.399	105.807	0.076	-0.090
-273.384	-91.099	-0.165	-0.047
-272.370	-9.280	0.272	0.181
-271.355	-123.964	0.430	-0.067
-270.340	-200.000	-0.013	-0.157
-269.326	98.059	0.165	0.189
-268.311	0.573	-0.145	0.103
-267.297	-150.125	-0.595	0.046
-266.282	738.238	0.058	-0.156
-265.267	-200.000	0.070	-0.355
-264.253	-136.284	0.130	-0.015
-263.238	30.035	-0.151	-0.128
-262.224	-6.858	0.070	-0.047
-261.209	667.461	-0.059	-0.150
-260.195	-44.760	0.192	-0.095
-259.180	-133.841	0.214	0.026
-258.165	-45.300	0.163	-0.080
-257.151	800.000	0.104	-0.371
-256.136	244.394	0.135	-0.226
-255.122	136.063	-0.123	0.159
-254.107	-200.000	-0.011	0.162
-253.092	21.449	-0.150	-0.121
-252.078	182.628	0.115	0.168
-251.063	95.750	-0.305	-0.345
-250.049	-71.032	-0.080	-0.030
-249.034	20.813	-0.210	0.169
-248.019	559.127	0.071	-0.171
-247.005	257.302	-0.094	0.161
-245.990	166.442	0.021	-0.029
-244.976	-200.000	0.391	-0.001
-243.961	800.000	0.019	0.060
-242.946	-80.282	-0.218	-0.072
-241.932	800.000	0.095	-0.304
-240.917	-132.092	-0.117	0.015
-239.903	-200.000	-0.028	0.272
-238.888	-25.918	-0.115	0.067
-237.873	-2.530	-0.126	-0.087
-236.859	712.874	-0.077	-0.202
-235.844	165.094	-0.088	0.123
-234.830	-24.058	0.175	0.104
-233.815	-200.000	-0.003	0.018
-232.800	-155.397	0.147	0.009
-231.786	-71.758	-0.195	-0.072
-230.771	505.046	0.067	-0.154
-229.757	-67.621	0.232	0.090
-228.742	743.455	0.102	-0.272
-227.727	378.710	-0.138	-0.280
-226.713	-46.363	0.317	-0.155
-225.698	-13.841	-0.148	-0.095
-224.684	14.388	0.112	0.087
-223.669	-200.000	0.219	0.001
-222.655	296.438	-0.108	-0.196
-221.640	398.056	-0.062	0.129
-220.625	118.296	-0.173	-0.212
-219.611	-137.959	0.274	0.030
-218.596	-20.886	0.284	-0.172
-217.582	187.811	-0.101	0.150
-216.567	-200.000	0.006	0.123
-215.552	-197.159	0.363	0.002
-214.538	700.870	0.019	0.048
-213.523	-18.068	0.264	-0.164
-212.509	-200.000	-0.007	-0.406
-211.494	-200.000	0.016	0.265
-210.479	124.312	0.224	0.279
-209.465	-61.096	-0.120	0.050
-208.450	-200.000	-0.035	0.165
-207.436	-200.000	-0.005	-0.114
-206.421	-74.166	0.223	-0.080
-205.406	72.313	0.043	0.044
-204.392	-28.871	-0.174	-0.099
-203.377	320.961	-0.141	-0.266
-202.363	-200.000	0.064	-0.307
-201.348	-179.515	0.311	0.007
-200.333	7.112	0.345	-0.255
-199.319	800.000	-0.065	0.260
-198.304	800.000	-0.051	-0.216
-197.290	800.000	0.059	0.194
-196.275	78.675	0.291	-0.309
-195.260	-140.391	0.278	0.029
-194.246	-10.201	-0.144	-0.095
-193.231	238.082	-0.050	0.083
-192.217	-51.423	-0.171	-0.079
-191.202	-130.237	-0.662	-0.089
-190.187	-27.594	-0.290	-0.167
-189.173	-200.000	0.018	0.242
-188.158	-15.453	0.365	0.231
-187.144	-37.644	-0.379	0.200
-186.129	389.132	0.104	0.214
-185.114	-7.386	-0.053	-0.036
-184.100	800.000	-0.122	0.356
-183.085	455.538	0.089	-0.196
-182.071	305.558	0.103	0.190
-181.056	-200.000	0.039	-0.176
-180.042	51.441	0.187	-0.176
-179.027	-122.731	-0.222	0.036
-178.012	-25.398	0.318	-0.186
-176.998	-200.000	-0.046	-0.220
-175.983	-113.917	-0.129	0.025
-174.969	19.115	0.264	0.210
-173.954	246.898	0.180	0.301
-172.939	106.586	-0.164	-0.192
-171.925	-193.584	0.163	-0.001
-170.910	28.736	0.077	-0.064
-169.896	-155.455	-0.022	-0.001
-168.881	-46.358	0.181	-0.088
-167.866	214.798	0.098	-0.154
-166.852	-109.874	0.145	-0.030
-165.837	0.987	0.255	0.181
-164.823	129.644	0.243	-0.307
-163.808	-123.440	-0.159	0.025
-162.793	28.379	0.321	-0.268
-161.779	-137.130	0.336	0.038
-160.764	-200.000	-0.009	0.157
-159.750	-16.837	-0.038	-0.024
-158.735	-37.715	0.047	0.025
-157.720	-85.273	-0.278	-0.086
-156.706	-104.210	0.171	-0.039
-155.691	-200.000	0.017	0.160
-154.677	-45.516	0.286	-0.140
-153.662	800.000	-0.077	0.292
-152.647	80.246	0.210	0.224
-151.633	-73.683	-0.158	0.057
-150.618	-87.376	-0.317	-0.095
-149.604	663.225	0.075	0.190
-148.589	43.692	0.051	0.046
-147.574	-175.070	-0.208	0.006
-146.560	-200.000	0.005	-0.558
-145.545	-200.000	0.027	-0.130
-144.531	423.821	-0.116	-0.246
-143.516	-36.438	0.067	-0.036
-142.502	285.205	-0.179	-0.319
-141.487	11.256	-0.089	-0.068
-140.472	75.099	-0.216	-0.225
-139.458	83.749	-0.074	-0.080
-138.443	-27.180	-0.205	-0.118
-137.429	-4.284	-0.226	-0.155
-136.414	392.535	0.198	0.407
-135.399	-37.370	-0.287	0.151
-134.385	-11.727	0.117	0.076
-133.370	9.347	-0.141	-0.105
-132.356	187.483	-0.157	-0.231
-131.341	-53.673	-0.253	0.114
-130.326	256.014	0.172	-0.292
-129.312	490.420	-0.080	-0.182
-128.297	181.734	0.149	0.217
-127.283	-29.903	-0.248	-0.139
-126.268	800.000	0.052	0.190
-125.253	-1.613	0.071	0.049
-124.239	-93.908	-0.218	-0.059
-123.224	-200.000	0.015	0.148
-122.210	-106.611	0.341	-0.075
-121.195	-96.391	0.223	-0.058
-120.180	-46.426	-0.305	0.148
-119.166	-80.748	-0.157	-0.052
-118.151	484.950	0.164	0.369
-117.137	-105.542	-0.421	0.094
-116.122	-57.657	0.101	-0.044
-115.107	-52.610	0.255	0.117
-114.093	-91.796	0.155	-0.044
-113.078	-88.326	-0.251	0.074
-112.064	315.086	-0.241	-0.448
-111.049	-5.082	0.211	-0.143
-110.034	-122.912	0.451	0.072
-109.020	-122.627	0.076	-0.012
-108.005	-200.000	0.008	0.201
-106.991	-22.517	-0.304	0.182
-105.976	12.975	-0.305	-0.233
-104.962	-157.836	0.285	0.017
-103.947	291.825	0.125	0.225
-102.932	-40.129	-0.210	-0.108
-101.918	58.597	0.100	0.096
-100.903	800.000	-0.060	-0.176
-99.889	-200.000	-0.018	-0.144
-98.874	93.308	0.140	0.157
-97.859	-70.322	0.195	-0.073
-96.845	-64.540	-0.089	0.036
-95.830	539.361	0.047	0.109
-94.816	-200.000	0.013	-0.221
-93.801	-200.000	0.017	-0.479
-92.786	4.413	-0.196	-0.142
-91.772	-4.711	0.171	0.116
-90.757	-75.310	-0.248	-0.087
-89.743	62.124	0.156	0.154
-88.728	-70.101	-0.168	-0.063
-87.713	49.107	0.215	0.199
-86.699	48.121	-0.031	0.029
-85.684	219.256	0.077	-0.121
-84.670	-103.975	0.066	0.015
-83.655	800.000	0.039	0.164
-82.640	-145.897	-0.416	0.036
-81.626	183.243	0.096	-0.140
-80.611	-193.281	0.251	0.002
-79.597	-46.741	0.152	0.073
-78.582	-200.000	0.018	-0.133
-77.567	-200.000	0.039	0.184
-76.553	-200.000	0.011	0.482
-75.538	800.000	-0.089	0.252
-74.524	-200.000	0.051	-0.231
-73.509	54.179	0.193	0.184
-72.494	-200.000	0.031	-0.357
-71.480	-200.000	-0.012	-0.216
-70.465	-89.783	0.200	0.058
-69.451	677.060	-0.038	-0.097
-68.436	-200.000	-0.021	0.176
-67.422	76.508	-0.169	0.177
-66.407	-59.328	-0.268	-0.113
-65.392	-83.964	-0.124	0.039
-64.378	-82.298	0.290	0.093
-63.363	285.691	0.050	-0.090
-62.349	275.787	-0.146	-0.255
-61.334	192.752	-0.609	-0.907
-60.319	257.841	0.223	0.378
-59.305	-200.000	-0.066	-0.653
-58.290	176.510	0.665	0.953
-57.276	337.492	0.844	1.616
-56.261	-200.000	93.690	521.093
-55.246	573.921	1374.207	3303.433
-54.232	185.473	2623.359	3839.459
-53.217	112.036	2330.089	2774.469
-52.203	44.131	1940.011	1753.286
-51.188	38.070	1723.053	1510.436
-50.173	35.150	1677.313	1448.246
-49.159	50.672	1725.655	1609.422
-48.144	53.899	1742.905	1650.214
-47.130	37.602	1699.884	1486.314
-46.115	34.728	1684.502	1451.018
-45.100	34.517	1679.832	1445.340
-44.086	34.510	1677.236	1442.992
-43.071	34.551	1674.050	1440.504
-42.057	34.551	1671.602	1438.339
-41.042	34.477	1669.656	1436.049
-40.027	34.436	1667.874	1434.153
-39.013	34.464	1665.970	1432.670
-37.998	34.507	1664.018	1431.258
-36.984	34.556	1662.814	1430.534
-35.969	34.627	1661.621	1429.981
-34.954	34.698	1659.523	1428.648
-33.940	34.596	1657.728	1426.284
-32.925	34.777	1656.101	1426.182
-31.911	34.638	1654.313	1423.547
-30.896	34.670	1652.671	1422.319
-29.881	34.639	1651.362	1420.906
-28.867	34.674	1649.415	1419.431
-27.852	34.670	1647.996	1418.123
-26.838	34.770	1646.303	1417.350
-25.823	34.723	1645.248	1416.044
-24.809	34.693	1644.169	1414.830
-23.794	34.691	1642.393	1413.236
-22.779	34.796	1640.664	1412.466
-21.765	34.718	1639.053	1410.444
-20.750	34.650	1637.678	1408.705
-19.736	34.783	1635.445	1407.708
-18.721	34.753	1634.409	1406.544
-17.706	34.710	1632.901	1404.868
-16.692	34.723	1631.009	1403.281
-15.677	34.717	1629.728	1402.079
-14.663	34.774	1628.828	1401.670
-13.648	34.699	1627.628	1400.028
-12.633	34.757	1625.536	1398.599
-11.619	34.717	1624.013	1396.941
-10.604	34.730	1622.398	1395.592
-9.590	34.669	1621.098	1393.976
-8.575	34.733	1619.863	1393.321
-7.560	34.763	1618.510	1392.320
-6.546	34.823	1616.731	1391.174
-5.531	34.716	1616.151	1389.846
-4.517	34.785	1614.807	1389.132
-3.502	34.743	1613.654	1387.777
-2.487	34.797	1612.431	1387.067
-1.473	34.661	1601.207	1376.377
-0.458	32.252	1582.065	1342.686
0.556	27.047	1582.498	1312.182
1.571	24.807	1607.705	1316.508
2.586	24.181	1621.713	1323.212
3.600	21.081	1566.626	1255.872
4.615	10.661	1451.041	1093.280
5.629	1.743	1382.067	983.802
6.644	0.315	1372.673	967.864
7.659	0.070	1372.102	965.803
8.673	0.049	1370.874	964.716
9.688	0.016	1368.603	962.820
10.702	-0.242	1365.810	959.123
11.717	3.098	1372.445	985.115
12.731	13.292	1392.527	1065.421
13.746	21.391	1406.331	1128.377
14.761	23.116	1407.729	1140.529
15.775	23.164	1407.861	1140.847
16.790	23.290	1407.659	1141.393
17.804	23.408	1406.754	1141.318
18.819	23.584	1406.754	1142.349
19.834	23.617	1405.564	1141.494
20.848	23.666	1405.251	1141.455
21.863	23.658	1404.507	1140.699
22.877	23.664	1403.329	1139.682
23.892	23.694	1402.362	1138.985
24.907	23.655	1401.830	1138.205
25.921	23.640	1400.581	1136.992
26.936	23.629	1399.702	1136.107
27.950	23.657	1398.534	1135.240
28.965	23.701	1397.190	1134.332
29.980	23.680	1395.990	1133.121
30.994	23.630	1394.424	1131.429
32.009	23.701	1393.430	1130.978
33.023	23.703	1392.099	1129.809
34.038	23.619	1391.343	1128.560
35.053	23.607	1390.174	1127.438
36.067	23.657	1389.161	1126.833
37.082	23.663	1388.340	1126.105
38.096	23.703	1387.348	1125.456
39.111	23.707	1386.583	1124.757
40.126	23.586	1385.946	1123.376
41.140	23.652	1385.004	1122.932
42.155	23.661	1384.945	1122.839
43.169	23.636	1384.980	1122.615
44.184	23.653	1384.453	1122.192
45.199	23.610	1384.185	1121.605
46.213	23.652	1383.854	1121.501
47.228	23.658	1382.540	1120.374
48.242	23.642	1381.212	1119.097
49.257	23.615	1380.143	1117.965
50.271	23.693	1378.091	1116.692
51.286	23.654	1376.953	1115.427
52.301	23.602	1376.339	1114.503
53.315	23.625	1375.334	1113.735
54.330	23.627	1374.669	1113.113
55.344	23.658	1372.989	1111.848
56.359	23.688	1372.143	1111.251
57.374	23.572	1371.867	1110.206
58.388	23.616	1370.811	1109.529
59.403	23.530	1370.651	1108.762
60.417	23.574	1369.597	1108.085
61.432	23.552	1368.702	1107.127
62.447	23.617	1368.210	1107.036
63.461	23.606	1366.692	1105.644
64.476	23.680	1365.813	1105.291
65.490	23.674	1364.864	1104.392
66.505	23.615	1363.263	1102.631
67.520	23.585	1362.001	1101.325
68.534	23.648	1361.334	1101.081
69.549	23.668	1360.083	1100.096
70.563	23.715	1359.164	1099.545
71.578	23.656	1358.152	1098.266
72.593	23.734	1357.041	1097.751
73.607	23.709	1356.605	1097.144
74.622	23.672	1355.930	1096.275
75.636	23.659	1354.261	1094.751
76.651	23.673	1354.246	1094.727
77.666	23.624	1353.984	1094.117
78.680	23.549	1353.678	1093.311
79.695	23.624	1353.091	1093.197
80.709	23.693	1351.427	1092.183
81.724	23.688	1350.968	1091.684
82.739	23.644	1349.932	1090.478
83.753	23.585	1348.979	1089.254
84.768	23.720	1347.423	1088.725
85.782	23.683	1346.557	1087.707
86.797	23.800	1344.629	1086.764
87.812	23.714	1344.002	1085.635
88.826	23.677	1343.415	1084.841
89.841	23.670	1341.976	1083.540
90.855	23.732	1341.289	1083.268
91.870	23.567	1340.785	1081.759
92.884	23.754	1339.597	1081.844
93.899	23.688	1338.719	1080.636
94.914	23.788	1337.882	1080.473
95.928	23.701	1336.964	1079.107
96.943	23.681	1336.433	1078.462
97.957	23.737	1335.766	1078.171
98.972	23.764	1334.295	1077.050
99.987	23.806	1333.459	1076.533
101.001	23.669	1332.577	1074.900
102.016	23.660	1331.655	1074.004
103.030	23.739	1331.297	1074.100
104.045	23.648	1330.038	1072.436
105.060	23.761	1329.145	1072.303
106.074	23.690	1328.069	1070.917
107.089	23.694	1327.571	1070.441
108.103	23.901	1325.963	1070.296
109.118	23.812	1325.027	1068.914
110.133	23.801	1323.812	1067.768
111.147	23.834	1322.523	1066.832
112.162	23.838	1321.327	1065.800
113.176	23.689	1320.607	1064.228
114.191	23.773	1319.759	1063.958
115.206	23.856	1318.533	1063.371
116.220	23.648	1317.815	1061.452
117.235	23.729	1316.706	1060.950
118.249	23.703	1315.733	1059.920
119.264	23.739	1314.562	1059.093
120.279	23.768	1314.057	1058.769
121.293	23.809	1313.674	1058.608
122.308	23.839	1312.360	1057.638
123.322	23.728	1311.793	1056.426
124.337	23.839	1310.610	1056.038
125.352	23.829	1309.887	1055.304
126.366	23.772	1308.810	1054.006
127.381	23.892	1307.641	1053.680
128.395	23.774	1307.015	1052.386
129.410	23.881	1305.774	1051.924
130.424	23.863	1305.316	1051.355
131.439	23.877	1304.281	1050.512
132.454	23.863	1303.378	1049.611
133.468	23.810	1303.288	1049.132
134.483	23.832	1302.030	1048.157
135.497	23.852	1301.184	1047.496
136.512	23.878	1299.843	1046.482
137.527	23.786	1299.471	1045.549
138.541	23.835	1297.870	1044.456
139.556	23.749	1296.413	1042.682
140.570	23.825	1295.564	1042.358
141.585	23.735	1294.466	1040.854
142.600	23.729	1293.653	1040.069
143.614	23.810	1292.702	1039.687
144.629	23.776	1291.600	1038.512
145.643	23.735	1290.172	1037.032
146.658	23.645	1289.517	1035.890
147.673	23.818	1288.216	1035.757
148.687	23.706	1288.019	1034.856
149.702	23.780	1286.071	1033.633
150.716	23.746	1285.153	1032.603
151.731	23.726	1284.195	1031.629
152.746	23.788	1283.385	1031.242
153.760	23.765	1282.591	1030.384
154.775	23.766	1281.166	1029.154
155.789	23.692	1280.577	1028.162
156.804	23.780	1279.342	1027.583
157.819	23.824	1278.472	1027.049
158.833	23.806	1277.880	1026.377
159.848	23.796	1276.796	1025.360
160.862	23.802	1276.208	1024.832
161.877	23.809	1275.694	1024.369
162.892	23.774	1275.091	1023.595
163.906	23.896	1274.152	1023.453
164.921	23.772	1273.448	1022.080
165.935	23.805	1272.298	1021.256
166.950	23.788	1272.316	1021.087
167.964	23.759	1271.392	1020.085
168.979	23.852	1270.640	1019.928
169.994	23.864	1270.170	1019.527
171.008	23.884	1269.544	1019.049
172.023	24.024	1268.383	1018.826
173.037	23.861	1267.899	1017.419
174.052	23.893	1267.251	1016.991
175.067	23.898	1266.092	1016.000
176.081	23.874	1265.582	1015.364
177.096	23.914	1264.497	1014.628
178.110	23.886	1263.758	1013.789
179.125	23.885	1262.772	1012.903
180.140	23.956	1261.622	1012.291
181.154	24.050	1260.199	1011.595
182.169	23.936	1259.415	1010.227
183.183	23.910	1258.466	1009.231
184.198	23.911	1257.556	1008.417
185.213	24.055	1256.262	1008.107
186.227	23.951	1255.537	1006.846
187.242	23.986	1254.870	1006.423
188.256	24.126	1253.439	1005.974
189.271	24.049	1253.037	1005.126
190.286	23.979	1252.214	1003.985
191.300	24.044	1251.869	1003.988
192.315	23.992	1251.337	1003.178
193.329	24.011	1251.065	1002.976
194.344	23.992	1250.492	1002.323
195.359	24.071	1250.140	1002.397
196.373	23.932	1249.533	1001.040
197.388	23.953	1248.693	1000.398
198.402	24.016	1248.669	1000.639
199.417	24.058	1247.891	1000.169
200.432	24.047	1247.472	999.681
201.446	23.951	1247.027	998.693
202.461	24.032	1245.968	998.215
203.475	23.936	1245.840	997.481
204.490	24.074	1244.050	996.737
205.504	24.069	1242.897	995.694
206.519	24.141	1242.088	995.363
207.534	24.076	1241.383	994.343
208.548	24.047	1240.527	993.410
209.563	24.024	1239.876	992.671
210.577	23.962	1239.069	991.590
211.592	23.963	1238.323	990.911
212.607	24.133	1237.353	990.995
213.621	24.056	1236.588	989.865
214.636	24.132	1235.569	989.385
215.650	24.120	1235.005	988.779
216.665	24.136	1234.082	988.043
217.680	24.130	1232.884	986.966
218.694	24.189	1232.359	986.783
219.709	24.198	1231.369	985.950
220.723	24.213	1230.973	985.633
221.738	24.135	1230.155	984.459
222.753	24.165	1229.484	983.998
223.767	24.153	1228.889	983.371
224.782	24.223	1228.577	983.418
225.796	24.236	1227.820	982.797
226.811	24.174	1227.032	981.739
227.826	24.254	1226.881	981.971
228.840	24.201	1226.001	980.888
229.855	24.133	1225.620	980.120
230.869	24.132	1225.023	979.554
231.884	24.236	1223.564	978.873
232.899	24.202	1222.959	978.113
233.913	24.326	1222.489	978.332
234.928	24.259	1221.878	977.390
235.942	24.282	1221.590	977.199
236.957	24.233	1220.798	976.208
237.972	24.191	1220.099	975.336
238.986	24.261	1219.671	975.286
240.001	24.270	1219.138	974.825
241.015	24.376	1218.480	974.793
242.030	24.335	1217.341	973.569
243.045	24.378	1216.718	973.223
244.059	24.335	1215.826	972.186
245.074	24.348	1214.999	971.513
246.088	24.436	1214.061	971.156
247.103	24.363	1213.546	970.261
248.117	24.382	1212.210	969.209
249.132	24.390	1212.072	969.053
250.147	24.521	1211.119	968.918
251.161	24.527	1210.340	968.245
252.176	24.415	1209.907	967.203
253.190	24.428	1209.286	966.689
254.205	24.465	1208.516	966.189
255.220	24.479	1207.873	965.669
256.234	24.462	1207.863	965.484
257.249	24.575	1206.627	965.017
258.263	24.480	1206.117	964.013
259.278	24.444	1206.090	963.709
260.293	24.615	1205.087	963.746
261.307	24.447	1204.364	962.176
262.322	24.503	1203.651	961.826
263.336	24.627	1202.838	961.759
264.351	24.491	1202.622	960.768
265.366	24.550	1201.615	960.195
266.380	24.492	1201.272	959.525
267.395	24.395	1200.686	958.448
268.409	24.509	1200.035	958.458
269.424	24.442	1199.789	957.818
270.439	24.545	1199.263	957.866
271.453	24.542	1198.096	956.832
272.468	24.541	1197.364	956.155
273.482	24.509	1196.764	955.423
274.497	24.558	1196.289	955.218
275.512	24.686	1195.693	955.345
276.526	24.478	1194.965	953.568
277.541	24.648	1193.971	953.598
278.555	24.675	1193.293	953.115
279.570	24.617	1192.707	952.252
280.585	24.709	1191.700	951.853
281.599	24.708	1191.101	951.285
282.614	24.629	1190.157	950.026
283.628	24.686	1189.403	949.648
284.643	24.596	1188.418	948.296
285.657	24.707	1187.661	948.198
286.672	24.689	1186.634	947.200
287.687	24.771	1186.057	947.088
288.701	24.719	1185.332	946.150
289.716	24.695	1184.944	945.628
290.730	24.742	1184.225	945.223
291.745	24.752	1183.418	944.549
292.760	24.884	1182.848	944.703
293.774	24.883	1181.913	943.871
294.789	24.783	1181.805	943.170
295.803	24.806	1180.873	942.464
296.818	24.794	1180.572	942.078
297.833	24.753	1179.950	941.285
298.847	24.897	1179.012	941.208
299.862	24.825	1178.309	940.188
300.876	24.777	1177.966	939.578
301.891	24.889	1177.173	939.448
302.906	24.912	1176.267	938.766
303.920	24.922	1176.014	938.531
304.935	24.906	1175.102	937.636
305.949	24.837	1174.872	937.010
306.964	24.844	1174.138	936.375
307.979	24.948	1173.427	936.271
308.993	24.909	1172.837	935.515
310.008	24.987	1172.101	935.253
311.022	24.921	1171.292	934.177
312.037	24.998	1170.590	933.935
313.052	24.860	1169.880	932.569
314.066	24.928	1168.711	931.910
315.081	24.978	1167.897	931.440
316.095	25.056	1167.372	931.342
317.110	25.024	1166.677	930.537
318.125	24.930	1166.192	929.582
319.139	24.950	1165.943	929.402
320.154	24.959	1164.974	928.599
321.168	25.145	1164.048	928.741
322.183	24.949	1163.850	927.483
323.197	24.969	1163.392	927.141
324.212	25.008	1162.495	926.548
325.227	25.091	1161.768	926.316
326.241	25.241	1161.371	926.688
327.256	25.091	1160.954	925.498
328.270	25.103	1160.010	924.725
329.285	25.054	1159.273	923.804
330.300	25.140	1158.574	923.612
331.314	25.090	1157.496	922.412
332.329	25.185	1156.355	921.911
333.343	25.142	1155.798	921.165
334.358	25.174	1155.545	921.042
335.373	25.277	1154.374	920.560
336.387	25.249	1153.716	919.809
337.402	25.339	1152.715	919.391
338.416	25.235	1152.629	918.709
339.431	25.267	1151.784	918.118
340.446	25.367	1151.050	917.960
341.460	25.328	1150.176	916.984
342.475	25.347	1149.797	916.697
343.489	25.391	1148.805	916.050
344.504	25.398	1147.602	915.045
345.519	25.399	1147.091	914.564
346.533	25.334	1146.370	913.575
347.548	25.336	1145.750	913.013
348.562	25.335	1145.010	912.337
349.577	25.400	1144.234	911.963
350.592	25.346	1143.299	910.867
351.606	25.362	1142.939	910.580
352.621	25.365	1142.698	910.322
353.635	25.400	1141.728	909.645
354.650	25.395	1140.856	908.847
355.665	25.503	1140.042	908.662
356.679	25.474	1139.786	908.230
357.694	25.536	1139.074	907.894
358.708	25.380	1138.420	906.510
359.723	25.455	1137.714	906.243
360.738	25.316	1137.619	905.390
361.752	25.535	1136.744	905.714
362.767	25.509	1135.741	904.706
363.781	25.537	1135.654	904.694
364.796	25.530	1135.255	904.261
365.810	25.582	1134.324	903.699
366.825	25.610	1133.878	903.406
367.840	25.607	1133.411	902.942
368.854	25.647	1132.625	902.435
369.869	25.579	1132.051	901.557
370.883	25.607	1131.182	900.923
371.898	25.627	1130.231	900.189
372.913	25.436	1130.168	899.104
373.927	25.635	1129.600	899.566
374.942	25.728	1128.854	899.358
375.956	25.767	1128.344	899.067
376.971	25.661	1128.092	898.254
377.986	25.742	1127.373	898.008
379.000	25.836	1126.660	897.831
380.015	25.768	1126.071	896.945
381.029	25.769	1125.291	896.246
382.044	25.735	1124.794	895.602
383.059	25.789	1124.307	895.402
384.073	25.673	1123.834	894.370
385.088	25.773	1122.989	894.114
386.102	25.807	1121.866	893.311
387.117	25.755	1120.832	892.153
388.132	25.724	1120.619	891.749
389.146	25.828	1119.397	891.214
390.161	25.759	1119.098	890.553
391.175	25.814	1118.004	889.874
392.190	25.817	1117.529	889.433
393.205	25.814	1116.972	888.900
394.219	25.889	1116.189	888.568
395.234	25.836	1115.585	887.743
396.248	25.941	1114.103	887.006
397.263	25.995	1113.387	886.622
398.278	25.888	1112.875	885.610
399.292	26.042	1112.442	885.942
400.307	26.018	1111.920	885.330
401.321	25.989	1111.323	884.634
402.336	25.909	1110.529	883.531
403.350	25.983	1110.025	883.418
404.365	26.135	1108.955	883.229
405.380	26.074	1108.704	882.653
406.394	26.073	1107.736	881.800
407.409	26.085	1107.025	881.215
408.423	25.997	1106.747	880.484
409.438	25.975	1106.126	879.804
410.453	26.074	1105.244	879.510
411.467	26.195	1104.298	879.266
412.482	26.198	1103.352	878.452
413.496	26.179	1102.880	877.907
414.511	26.081	1102.380	876.954
415.526	26.190	1101.749	876.905
416.540	26.158	1101.457	876.438
417.555	26.034	1101.438	875.742
418.569	26.097	1100.824	875.485
419.584	26.201	1100.039	875.286
420.599	26.208	1099.327	874.677
421.613	146.183	1402.157	1792.444
422.628	135.536	1446.254	1792.532
