DTS Sentinel unit serial number:	SN413079Multiplexer serial number:	ORYXHardware model number:	OX4-SRSoftware version number:	ORYX F/W v4.00 Oryx Data Collector v3.7.2.0data status	okinstallation	princeton_trtdifferential loss correction	single-endedforward channel	channel 2reverse channel	N/Adate	2019/09/10time	18:49:10forward acquisition time	60.00reverse acquisition time	0.00gamma	496.2192k internal	0.2323k external	0.2323temperature offset calibration	0.9936default loss term (dB/km)	0.3790temperature slope calibration	1.0000multiplexer offset coefficient	1.0000multiplexer slope coefficient	1.0000fibre end	0.00T internal ref (°C)	35.03T ext. ref 1 (°C)	-0.37T ext. ref 2 (°C)	27.06length (m)	temperature (°C)	Stokes	anti-Stokes-747.200	-8.462	0.146	-0.099
-746.185	57.738	0.198	0.196
-745.171	800.000	0.075	0.227
-744.156	596.119	-0.024	0.060
-743.142	3.316	0.196	0.144
-742.127	-43.398	0.220	-0.112
-741.112	800.000	-0.037	-0.152
-740.098	-72.554	-0.152	-0.057
-739.083	-40.878	-0.154	0.081
-738.069	-200.000	0.063	0.339
-737.054	116.376	0.063	0.077
-736.039	-101.791	-0.313	0.076
-735.025	621.293	0.114	0.290
-734.010	49.548	0.126	0.120
-732.996	145.509	-0.255	-0.345
-731.981	254.892	0.019	0.033
-730.966	178.335	-0.172	-0.253
-729.952	800.000	-0.086	0.277
-728.937	81.130	0.125	-0.136
-727.923	679.661	0.044	-0.116
-726.908	800.000	-0.062	-0.210
-725.894	-22.512	-0.356	-0.217
-724.879	168.263	0.107	-0.153
-723.864	43.759	-0.172	0.159
-722.850	-154.508	0.462	-0.031
-721.835	622.384	0.117	-0.296
-720.821	2.365	0.173	-0.126
-719.806	31.461	-0.212	-0.184
-718.791	353.692	-0.119	0.239
-717.777	-111.197	-0.045	-0.009
-716.762	277.537	-0.166	-0.298
-715.748	-200.000	0.037	-0.260
-714.733	87.911	0.223	-0.249
-713.718	-51.163	-0.265	-0.125
-712.704	168.285	-0.221	0.318
-711.689	800.000	-0.068	-0.194
-710.675	-77.147	0.143	0.050
-709.660	-127.030	-0.108	-0.016
-708.645	477.489	-0.200	-0.456
-707.631	-200.000	-0.054	-0.442
-706.616	-200.000	-0.063	0.331
-705.602	-139.832	-0.088	0.009
-704.587	-200.000	-0.238	0.000
-703.572	-65.425	0.136	-0.055
-702.558	18.847	-0.210	0.170
-701.543	-200.000	0.054	0.321
-700.529	-51.388	-0.211	0.099
-699.514	33.948	0.181	-0.159
-698.499	-141.252	0.164	-0.017
-697.485	800.000	0.039	0.110
-696.470	800.000	0.091	-0.356
-695.456	-200.000	-0.009	0.166
-694.441	35.331	0.147	-0.130
-693.426	105.947	0.087	0.104
-692.412	-200.000	0.022	-0.122
-691.397	584.163	-0.083	-0.205
-690.383	67.302	-0.268	-0.276
-689.368	126.399	0.190	-0.243
-688.354	521.661	0.114	-0.270
-687.339	-128.286	-0.172	-0.025
-686.324	-23.631	-0.188	0.114
-685.310	16.653	0.075	-0.060
-684.295	122.498	-0.119	0.150
-683.281	0.222	-0.081	0.058
-682.266	-200.000	-0.068	0.489
-681.251	-94.817	-0.359	0.098
-680.237	-77.593	-0.225	-0.079
-679.222	100.858	0.166	-0.194
-678.208	132.509	-0.128	-0.166
-677.193	198.846	0.126	-0.195
-676.178	130.543	-0.042	0.055
-675.164	-57.797	-0.248	-0.109
-674.149	-200.000	0.406	0.000
-673.135	-139.766	-0.231	-0.025
-672.120	-105.033	-0.392	-0.090
-671.105	84.104	0.136	0.149
-670.091	800.000	-0.060	-0.241
-669.076	24.878	0.091	-0.076
-668.062	-130.111	-0.195	0.027
-667.047	-200.000	-0.061	-0.341
-666.032	-200.000	-0.009	0.077
-665.018	-57.941	0.155	0.068
-664.003	-60.008	-0.172	0.074
-662.989	-200.000	-0.017	0.134
-661.974	800.000	0.005	-0.014
-660.959	28.814	-0.312	-0.266
-659.945	231.120	0.103	-0.170
-658.930	-156.510	-0.475	0.030
-657.916	-51.614	0.139	0.065
-656.901	-200.000	0.040	-0.178
-655.886	131.493	-0.190	-0.246
-654.872	270.000	0.156	-0.276
-653.857	-200.000	0.024	-0.244
-652.843	599.432	-0.057	-0.142
-651.828	330.269	-0.053	0.103
-650.814	302.288	-0.022	0.041
-649.799	154.983	-0.135	-0.187
-648.784	-103.659	0.331	-0.078
-647.770	800.000	0.073	0.220
-646.755	800.000	-0.067	0.281
-645.741	800.000	0.067	-0.219
-644.726	800.000	-0.079	-0.248
-643.711	84.551	0.095	-0.105
-642.697	18.352	0.068	0.055
-641.682	-90.149	-0.052	0.015
-640.668	-200.000	-0.016	-0.369
-639.653	-86.375	0.081	0.025
-638.638	79.490	0.116	0.125
-637.624	101.829	0.080	-0.094
-636.609	386.381	-0.087	0.181
-635.595	-155.201	-0.114	-0.007
-634.580	800.000	0.078	-0.241
-633.565	-26.049	0.054	-0.032
-632.551	37.943	-0.113	0.101
-631.536	483.121	0.048	-0.111
-630.522	-200.000	-0.013	-0.222
-629.507	-99.418	0.194	0.049
-628.492	800.000	-0.005	0.015
-627.478	117.322	-0.158	-0.196
-626.463	-30.704	0.051	0.029
-625.449	-200.000	0.000	-0.113
-624.434	47.050	0.204	0.191
-623.419	35.588	-0.182	-0.161
-622.405	-90.484	-0.142	-0.041
-621.390	-200.000	-0.015	-0.278
-620.376	-23.403	0.195	0.118
-619.361	-95.159	-0.208	-0.056
-618.346	88.914	0.069	0.077
-617.332	-143.130	-0.253	-0.025
-616.317	303.813	-0.063	-0.117
-615.303	514.241	-0.067	0.157
-614.288	-49.517	0.342	-0.164
-613.273	-175.963	0.176	0.005
-612.259	458.437	-0.013	0.029
-611.244	-44.961	0.369	0.184
-610.230	76.849	0.097	-0.104
-609.215	-59.551	-0.307	0.132
-608.201	-29.332	-0.042	0.024
-607.186	-40.566	0.414	0.216
-606.171	-20.802	0.151	-0.093
-605.157	800.000	0.119	-0.413
-604.142	9.020	-0.188	-0.142
-603.128	-13.697	-0.357	-0.232
-602.113	-90.075	-0.291	0.085
-601.098	800.000	-0.074	-0.262
-600.084	-200.000	-0.020	0.125
-599.069	-200.000	0.025	0.350
-598.055	-200.000	0.025	-0.160
-597.040	-107.419	0.306	-0.068
-596.025	-94.645	-0.102	0.028
-595.011	-200.000	-0.058	0.352
-593.996	-200.000	0.000	0.046
-592.982	-128.054	0.100	-0.014
-591.967	151.087	-0.176	-0.240
-590.952	167.358	-0.166	0.236
-589.938	274.637	0.057	0.101
-588.923	-200.000	-0.009	0.048
-587.909	14.132	-0.052	0.041
-586.894	-200.000	0.003	0.428
-585.879	-126.517	-0.177	-0.026
-584.865	800.000	0.063	0.266
-583.850	301.087	0.064	-0.118
-582.836	800.000	-0.020	0.088
-581.821	1.516	-0.352	-0.254
-580.806	-200.000	0.040	-0.350
-579.792	-192.557	0.089	0.001
-578.777	-180.538	-0.148	0.003
-577.763	567.828	-0.063	-0.153
-576.748	-200.000	-0.009	0.244
-575.733	176.224	-0.020	-0.030
-574.719	-40.365	0.094	-0.049
-573.704	115.476	0.092	-0.113
-572.690	800.000	-0.077	-0.276
-571.675	-12.733	0.187	-0.122
-570.661	352.996	-0.157	-0.312
-569.646	23.069	-0.236	0.194
-568.631	-159.534	0.265	0.015
-567.617	33.972	-0.152	-0.133
-566.602	24.000	0.098	0.081
-565.588	35.961	0.072	-0.064
-564.573	220.876	-0.154	0.247
-563.558	-66.050	0.449	0.180
-562.544	-80.713	0.232	0.077
-561.529	-136.130	-0.129	0.015
-560.515	90.077	0.253	0.284
-559.500	30.361	0.257	0.220
-558.485	-200.000	-0.041	-0.349
-557.471	35.838	-0.184	-0.162
-556.456	-200.000	-0.056	0.312
-555.442	420.845	0.092	0.197
-554.427	449.855	0.113	-0.250
-553.412	329.423	-0.045	0.086
-552.398	-200.000	0.028	-0.453
-551.383	-20.929	-0.104	-0.064
-550.369	54.357	-0.308	-0.297
-549.354	50.160	-0.168	0.159
-548.339	-200.000	-0.024	0.316
-547.325	37.798	-0.204	-0.182
-546.310	-97.869	-0.308	-0.080
-545.296	-109.167	0.140	0.030
-544.281	-12.554	-0.215	-0.140
-543.266	319.933	-0.057	0.109
-542.252	-200.000	-0.028	-0.132
-541.237	2.684	-0.254	0.185
-540.223	-8.786	-0.338	0.227
-539.208	500.999	-0.079	-0.183
-538.193	114.897	0.068	0.083
-537.179	800.000	-0.068	-0.243
-536.164	-200.000	-0.082	0.379
-535.150	-200.000	-0.037	0.290
-534.135	66.870	-0.142	0.145
-533.121	104.964	-0.209	-0.246
-532.106	800.000	0.062	0.215
-531.091	-200.000	-0.016	0.239
-530.077	-200.000	0.007	-0.036
-529.062	-31.342	0.180	-0.102
-528.048	124.979	-0.210	-0.265
-527.033	-193.483	0.250	0.002
-526.018	-108.689	0.471	0.101
-525.004	-49.642	-0.231	-0.110
-523.989	280.246	-0.202	-0.362
-522.975	98.578	0.126	-0.146
-521.960	78.387	-0.166	-0.178
-520.945	-53.354	0.101	-0.046
-519.931	114.213	0.145	-0.176
-518.916	254.295	0.259	-0.443
-517.902	-40.078	0.159	0.083
-516.887	-200.000	-0.018	-0.096
-515.872	235.073	-0.121	0.200
-514.858	734.403	0.071	0.190
-513.843	14.207	0.237	-0.185
-512.829	800.000	-0.064	0.241
-511.814	-200.000	-0.001	-0.087
-510.799	-64.977	0.098	0.040
-509.785	-20.314	-0.171	0.105
-508.770	-79.522	-0.017	0.006
-507.756	800.000	0.043	0.177
-506.741	-165.140	0.169	-0.007
-505.726	-152.949	-0.461	-0.033
-504.712	-95.383	0.207	0.056
-503.697	154.692	0.194	-0.267
-502.683	-49.191	0.175	0.084
-501.668	-122.500	-0.376	0.061
-500.653	227.739	0.081	-0.132
-499.639	-126.064	0.422	-0.063
-498.624	420.003	-0.125	-0.268
-497.610	78.269	-0.050	-0.053
-496.595	-200.000	0.037	-0.266
-495.581	-104.912	0.199	0.046
-494.566	800.000	-0.024	0.076
-493.551	-51.427	-0.062	0.029
-492.537	-94.552	0.146	0.040
-491.522	113.531	0.110	0.134
-490.508	127.878	0.259	0.330
-489.493	-52.782	-0.471	-0.217
-488.478	9.785	-0.096	0.072
-487.464	178.461	-0.110	-0.160
-486.449	-82.491	-0.287	-0.093
-485.435	29.175	0.114	0.096
-484.420	599.414	-0.087	0.217
-483.405	-13.136	0.145	-0.094
-482.391	-159.104	-0.214	-0.012
-481.376	210.415	-0.142	-0.222
-480.362	-143.904	0.224	0.021
-479.347	-22.639	-0.023	-0.014
-478.332	147.465	-0.062	0.083
-477.318	-106.581	0.182	0.040
-476.303	-153.437	0.270	-0.019
-475.289	-200.000	-0.024	0.167
-474.274	-126.558	-0.267	0.040
-473.259	-200.000	-0.059	-0.481
-472.245	-90.064	0.075	0.022
-471.230	-108.286	0.364	-0.079
-470.216	57.966	-0.352	0.344
-469.201	537.009	0.143	0.339
-468.186	-46.531	-0.053	0.026
-467.172	-200.000	-0.013	-0.081
-466.157	800.000	0.047	-0.156
-465.143	-148.769	-0.331	0.027
-464.128	-54.343	0.243	0.110
-463.113	-200.000	-0.003	-0.075
-462.099	-95.971	0.131	0.035
-461.084	-110.652	0.072	0.015
-460.070	800.000	0.041	0.146
-459.055	180.306	-0.099	-0.146
-458.040	-64.982	-0.233	-0.094
-457.026	793.851	0.123	0.339
-456.011	-29.438	-0.202	-0.115
-454.997	749.990	-0.119	-0.320
-453.982	-200.000	-0.039	0.192
-452.968	800.000	0.115	0.375
-451.953	-60.370	-0.154	0.065
-450.938	-74.608	0.079	0.028
-449.924	-99.432	0.072	-0.018
-448.909	-55.414	-0.113	0.051
-447.895	-10.033	-0.258	-0.171
-446.880	125.499	-0.109	0.137
-445.865	-120.003	0.417	0.071
-444.851	-145.369	-0.236	-0.021
-443.836	-80.758	-0.210	-0.070
-442.822	800.000	-0.067	-0.232
-441.807	24.595	-0.286	-0.236
-440.792	-68.665	-0.308	-0.119
-439.778	-82.869	0.174	0.056
-438.763	-69.216	-0.146	0.056
-437.749	-50.552	0.207	-0.097
-436.734	800.000	0.010	0.033
-435.719	-200.000	0.008	0.223
-434.705	65.301	-0.245	0.247
-433.690	-60.025	0.314	-0.134
-432.676	22.235	-0.271	0.221
-431.661	-107.184	-0.034	-0.007
-430.646	-137.503	-0.060	-0.007
-429.632	-26.872	-0.174	-0.101
-428.617	37.165	-0.259	0.229
-427.603	491.724	0.154	0.352
-426.588	2.534	-0.412	-0.297
-425.573	-45.019	-0.155	-0.077
-424.559	-86.557	0.068	0.021
-423.544	54.915	-0.070	0.068
-422.530	-138.381	-0.250	0.028
-421.515	43.755	0.051	0.047
-420.500	302.613	0.100	-0.184
-419.486	800.000	-0.112	-0.393
-418.471	200.439	0.158	-0.243
-417.457	-158.521	0.171	-0.010
-416.442	800.000	-0.092	-0.296
-415.428	260.719	0.075	0.129
-414.413	-114.954	0.125	0.024
-413.398	-123.268	0.083	-0.013
-412.384	3.487	0.201	0.146
-411.369	-200.000	0.031	-0.218
-410.355	-129.674	-0.075	0.010
-409.340	-200.000	-0.017	0.112
-408.325	800.000	0.079	-0.236
-407.311	282.520	-0.050	0.089
-406.296	257.965	-0.177	0.303
-405.282	11.503	0.101	-0.077
-404.267	-139.695	-0.167	0.018
-403.252	-200.000	0.053	-0.475
-402.238	800.000	-0.071	0.265
-401.223	-28.455	-0.215	-0.124
-400.209	143.094	-0.108	0.143
-399.194	184.190	0.175	0.258
-398.179	116.218	0.215	-0.262
-397.165	646.634	-0.205	-0.523
-396.150	-56.348	-0.232	-0.103
-395.136	-5.070	-0.181	-0.124
-394.121	-139.370	-0.214	-0.023
-393.106	-200.000	-0.043	0.236
-392.092	-35.864	0.186	-0.100
-391.077	-136.420	-0.239	-0.028
-390.063	647.439	-0.044	-0.112
-389.048	364.504	0.035	0.070
-388.033	70.559	-0.212	0.218
-387.019	-18.625	-0.078	0.048
-386.004	135.981	-0.143	0.185
-384.990	27.516	-0.184	0.154
-383.975	252.496	0.127	0.215
-382.960	21.108	0.223	0.181
-381.946	-166.116	-0.367	0.016
-380.931	-154.045	0.099	-0.007
-379.917	145.540	-0.118	0.158
-378.902	162.950	-0.025	-0.034
-377.888	-187.460	0.149	-0.002
-376.873	146.203	0.305	0.407
-375.858	45.386	0.146	0.134
-374.844	-83.365	0.118	-0.038
-373.829	582.318	0.122	0.297
-372.815	-97.639	-0.377	0.097
-371.800	-75.631	-0.108	0.038
-370.785	-64.037	-0.099	-0.040
-369.771	146.393	-0.144	0.192
-368.756	-89.286	0.229	-0.067
-367.742	384.749	-0.111	-0.228
-366.727	716.539	-0.074	-0.197
-365.712	82.201	0.067	-0.073
-364.698	-0.639	-0.113	-0.080
-363.683	516.925	-0.092	-0.215
-362.669	800.000	0.082	-0.326
-361.654	-110.698	-0.066	-0.014
-360.639	-200.000	0.000	-0.109
-359.625	652.658	-0.158	0.402
-358.610	10.762	0.036	0.028
-357.596	671.080	0.057	0.148
-356.581	121.174	-0.161	0.200
-355.566	800.000	0.050	0.218
-354.552	-20.802	0.274	-0.167
-353.537	57.499	0.078	0.076
-352.523	68.518	-0.063	0.064
-351.508	-200.000	-0.016	0.171
-350.493	-123.571	0.290	0.046
-349.479	116.468	-0.209	-0.255
-348.464	257.031	-0.043	-0.074
-347.450	800.000	-0.068	-0.191
-346.435	83.294	0.157	0.170
-345.420	199.997	0.072	0.110
-344.406	-200.000	-0.056	0.264
-343.391	271.424	-0.023	0.040
-342.377	130.143	-0.383	-0.487
-341.362	-200.000	-0.053	-0.376
-340.348	-17.734	0.045	-0.028
-339.333	-200.000	0.027	-0.276
-338.318	-200.000	-0.031	-0.373
-337.304	-74.645	-0.103	-0.037
-336.289	-109.545	-0.442	0.093
-335.275	152.235	0.180	-0.244
-334.260	73.688	0.177	-0.185
-333.245	53.173	0.296	-0.282
-332.231	440.268	-0.073	0.158
-331.216	-79.479	0.182	0.061
-330.202	-117.681	-0.232	-0.041
-329.187	800.000	-0.056	-0.164
-328.172	69.465	0.166	0.170
-327.158	-12.190	-0.228	-0.148
-326.143	41.145	0.243	0.218
-325.129	-95.987	0.115	0.030
-324.114	0.675	-0.179	0.127
-323.099	800.000	0.033	0.110
-322.085	87.414	0.172	0.189
-321.070	65.684	0.050	0.051
-320.056	-115.920	-0.136	0.025
-319.041	-200.000	-0.090	-0.392
-318.026	198.349	0.045	0.069
-317.012	800.000	-0.115	0.404
-315.997	800.000	0.099	0.342
-314.983	-200.000	0.015	0.096
-313.968	-2.547	0.203	0.141
-312.953	-83.929	0.007	0.002
-311.939	534.426	-0.057	0.133
-310.924	800.000	0.058	0.167
-309.910	2.424	0.222	0.159
-308.895	153.014	0.255	0.347
-307.880	-107.277	0.118	-0.026
-306.866	-93.503	-0.244	-0.067
-305.851	-71.074	-0.160	0.060
-304.837	80.563	0.218	0.233
-303.822	800.000	-0.058	-0.174
-302.807	800.000	0.081	0.278
-301.793	108.712	0.127	0.150
-300.778	800.000	-0.021	0.086
-299.764	179.590	-0.020	0.029
-298.749	-69.449	0.098	-0.037
-297.735	477.776	0.097	0.217
-296.720	-61.849	0.223	-0.093
-295.705	432.468	0.043	0.092
-294.691	-200.000	-0.050	-0.350
-293.676	189.999	0.092	0.137
-292.662	295.684	0.042	-0.076
-291.647	-188.215	0.089	0.001
-290.632	-124.588	0.078	0.012
-289.618	800.000	-0.088	0.256
-288.603	800.000	-0.019	0.063
-287.589	-23.023	0.272	-0.163
-286.574	131.167	-0.241	-0.307
-285.559	-200.000	0.009	-0.119
-284.545	-200.000	-0.084	0.538
-283.530	800.000	-0.032	0.117
-282.516	238.799	0.059	-0.097
-281.501	112.123	-0.175	-0.210
-280.486	-7.856	0.226	0.151
-279.472	-123.803	-0.473	0.074
-278.457	108.082	-0.344	-0.407
-277.443	121.754	-0.193	0.239
-276.428	-3.385	0.162	0.112
-275.413	-119.393	0.173	0.030
-274.399	26.299	0.203	0.168
-273.384	224.275	0.022	0.036
-272.370	-111.405	-0.207	0.042
-271.355	107.128	0.130	-0.154
-270.340	-200.000	-0.017	0.076
-269.326	88.063	0.181	0.199
-268.311	800.000	-0.069	-0.255
-267.297	-200.000	0.029	0.238
-266.282	66.636	-0.086	-0.087
-265.267	-173.470	0.354	-0.011
-264.253	245.654	0.106	-0.178
-263.238	800.000	0.039	0.121
-262.224	-200.000	0.000	0.055
-261.209	-98.686	-0.354	0.089
-260.195	93.253	-0.207	-0.232
-259.180	129.952	0.139	0.177
-258.165	-159.332	-0.287	-0.016
-257.151	411.950	0.168	0.353
-256.136	-123.631	0.133	-0.021
-255.122	-45.660	-0.075	0.037
-254.107	136.650	0.137	-0.178
-253.092	42.400	0.150	-0.135
-252.078	9.045	-0.134	-0.100
-251.063	-200.000	-0.054	-0.444
-250.049	-181.012	-0.092	-0.002
-249.034	204.901	0.148	-0.228
-248.019	-200.000	0.001	-0.023
-247.005	718.088	-0.094	-0.249
-245.990	-61.213	0.182	0.076
-244.976	800.000	0.093	-0.269
-243.961	85.592	0.085	-0.093
-242.946	-68.849	-0.212	-0.081
-241.932	800.000	0.025	0.077
-240.917	-82.820	-0.330	-0.105
-239.903	-84.377	0.227	-0.071
-238.888	-200.000	0.004	0.076
-237.873	337.246	0.097	0.186
-236.859	-111.243	0.172	-0.035
-235.844	55.965	0.135	0.129
-234.830	800.000	-0.072	-0.235
-233.815	-96.539	0.227	-0.059
-232.800	-99.021	0.286	0.072
-231.786	-6.936	-0.033	0.022
-230.771	70.188	-0.201	-0.206
-229.757	-200.000	-0.027	0.326
-228.742	88.726	-0.262	-0.289
-227.727	409.010	-0.088	-0.183
-226.713	-1.166	0.054	-0.037
-225.698	-167.072	-0.174	-0.007
-224.684	302.083	-0.059	0.108
-223.669	-90.272	0.076	-0.022
-222.655	-21.637	0.322	0.194
-221.640	28.262	0.125	0.105
-220.625	-150.576	0.169	-0.013
-219.611	-139.328	0.321	-0.034
-218.596	90.548	0.119	0.132
-217.582	174.589	0.137	-0.195
-216.567	-44.833	0.453	-0.224
-215.552	-176.779	0.409	-0.010
-214.538	-9.768	0.067	0.044
-213.523	-200.000	-0.049	-0.213
-212.509	-35.541	0.097	0.052
-211.494	-200.000	-0.027	-0.322
-210.479	29.647	-0.139	-0.117
-209.465	259.688	0.037	0.063
-208.450	-200.000	-0.042	-0.397
-207.436	9.633	0.405	0.303
-206.421	800.000	0.152	-0.430
-205.406	21.965	0.115	-0.093
-204.392	47.555	-0.104	-0.096
-203.377	-200.000	-0.009	0.124
-202.363	-200.000	0.019	0.446
-201.348	800.000	0.077	-0.259
-200.333	19.178	-0.306	-0.243
-199.319	-181.780	-0.224	0.004
-198.304	39.631	0.152	0.135
-197.290	27.872	0.238	-0.199
-196.275	-69.657	-0.421	-0.159
-195.260	72.392	-0.108	0.112
-194.246	77.162	0.078	-0.082
-193.231	-96.350	-0.156	-0.041
-192.217	413.383	0.082	-0.173
-191.202	-6.332	0.064	0.043
-190.187	-168.654	-0.208	0.008
-189.173	-165.293	0.298	-0.013
-188.158	-200.000	0.025	0.430
-187.144	204.645	0.188	0.288
-186.129	70.657	0.243	0.248
-185.114	-200.000	-0.013	-0.106
-184.100	21.208	-0.120	0.097
-183.085	-200.000	0.252	-0.000
-182.071	-200.000	-0.033	-0.245
-181.056	-193.316	-0.114	0.001
-180.042	-200.000	0.076	0.345
-179.027	615.845	-0.037	0.091
-178.012	800.000	-0.043	0.149
-176.998	93.852	0.255	-0.286
-175.983	-63.914	-0.184	-0.074
-174.969	-200.000	0.008	0.237
-173.954	-166.683	-0.133	0.005
-172.939	284.365	0.162	0.288
-171.925	-200.000	0.061	0.320
-170.910	-110.670	0.157	0.032
-169.896	81.661	-0.152	0.163
-168.881	-177.353	-0.173	-0.004
-167.866	-96.734	0.257	0.067
-166.852	-26.847	0.135	-0.078
-165.837	-132.514	-0.351	0.045
-164.823	-200.000	-0.021	0.144
-163.808	58.688	0.236	0.229
-162.793	171.073	0.161	0.228
-161.779	800.000	0.008	-0.023
-160.764	227.445	0.143	0.229
-159.750	-141.376	0.229	-0.023
-158.735	-200.000	0.039	0.175
-157.720	800.000	-0.021	0.071
-156.706	23.839	0.335	0.273
-155.691	-96.716	-0.158	-0.041
-154.677	-128.237	0.095	-0.013
-153.662	-105.910	-0.369	-0.082
-152.647	209.958	-0.085	-0.131
-151.633	-54.281	-0.260	-0.116
-150.618	-112.519	0.386	0.076
-149.604	-150.454	0.153	-0.012
-148.589	-158.035	-0.239	-0.014
-147.574	-120.290	-0.358	-0.060
-146.560	-44.638	-0.174	-0.086
-145.545	-127.539	-0.263	-0.038
-144.531	-190.192	-0.209	-0.002
-143.516	116.721	0.219	-0.266
-142.502	-34.529	-0.127	-0.069
-141.487	-157.730	0.072	-0.004
-140.472	800.000	0.020	-0.060
-139.458	-200.000	0.056	0.310
-138.443	163.835	-0.113	0.157
-137.429	107.119	0.119	-0.140
-136.414	13.933	0.247	-0.189
-135.399	800.000	-0.086	-0.296
-134.385	-12.516	0.099	-0.064
-133.370	-51.204	-0.294	0.136
-132.356	-200.000	-0.019	0.209
-131.341	363.833	-0.051	-0.101
-130.326	-121.838	-0.165	0.027
-129.312	-200.000	-0.016	0.203
-128.297	428.860	0.135	0.287
-127.283	195.494	-0.064	0.096
-126.268	243.131	-0.209	-0.345
-125.253	-179.367	0.078	-0.002
-124.239	-200.000	-0.017	-0.214
-123.224	477.543	-0.084	-0.188
-122.210	14.428	-0.060	-0.046
-121.195	-72.084	0.278	-0.102
-120.180	55.297	0.134	-0.127
-119.166	-156.892	-0.279	0.017
-118.151	393.295	0.197	0.404
-117.137	-94.569	-0.202	0.054
-116.122	-102.686	-0.064	0.015
-115.107	-20.543	0.094	-0.057
-114.093	175.000	0.126	0.180
-113.078	264.704	0.093	-0.160
-112.064	-120.521	-0.379	0.063
-111.049	628.568	-0.065	0.163
-110.034	-53.680	0.184	-0.083
-109.020	-200.000	0.005	-0.522
-108.005	504.002	-0.129	-0.294
-106.991	-44.044	-0.347	0.172
-105.976	-129.244	0.235	0.032
-104.962	-20.912	0.189	0.114
-103.947	-131.753	0.079	-0.010
-102.932	11.681	-0.156	0.118
-101.918	283.065	-0.052	0.092
-100.903	573.095	0.122	0.292
-99.889	46.018	-0.091	-0.083
-98.874	36.430	0.251	-0.218
-97.859	65.505	-0.147	-0.147
-96.845	-91.311	0.232	-0.065
-95.830	610.662	0.158	0.388
-94.816	16.662	-0.062	-0.048
-93.801	-87.962	-0.256	0.076
-92.786	350.644	0.188	0.366
-91.772	-200.000	0.337	0.001
-90.757	800.000	-0.078	-0.219
-89.743	681.567	-0.053	0.136
-88.728	385.794	0.199	0.404
-87.713	-71.185	0.198	-0.073
-86.699	-200.000	0.017	0.135
-85.684	-29.281	0.026	-0.015
-84.670	800.000	-0.055	0.169
-83.655	172.291	0.051	0.072
-82.640	-200.000	-0.007	0.049
-81.626	108.825	0.083	0.098
-80.611	-200.000	0.024	0.208
-79.597	800.000	-0.143	-0.419
-78.582	-40.790	-0.284	-0.145
-77.567	38.993	-0.027	0.024
-76.553	223.251	0.072	0.114
-75.538	396.185	-0.078	-0.159
-74.524	450.004	0.021	0.045
-73.509	-200.000	0.031	-0.272
-72.494	-72.658	-0.200	-0.072
-71.480	34.102	-0.053	0.045
-70.465	100.972	-0.201	-0.230
-69.451	91.316	0.081	0.090
-68.436	-69.624	-0.220	0.083
-67.422	-62.228	-0.224	0.092
-66.407	148.317	-0.195	0.259
-65.392	-200.000	-0.053	0.308
-64.378	-169.661	0.214	-0.008
-63.363	-6.313	-0.226	-0.152
-62.349	-17.651	-0.198	0.122
-61.334	79.296	-1.079	-1.137
-60.319	138.418	0.382	0.493
-59.305	-200.000	-0.026	-1.003
-58.290	12.673	0.609	0.462
-57.276	536.800	0.690	1.610
-56.261	-200.000	99.804	571.291
-55.246	607.729	1408.141	3453.397
-54.232	183.049	2644.364	3838.484
-53.217	114.896	2318.044	2779.553
-52.203	44.799	1927.590	1743.464
-51.188	38.483	1712.348	1500.500
-50.173	35.694	1666.839	1439.711
-49.159	52.692	1717.258	1612.876
-48.144	56.130	1734.945	1655.538
-47.130	38.010	1688.993	1476.226
-46.115	35.044	1674.523	1441.226
-45.100	34.995	1669.536	1436.509
-44.086	34.801	1666.990	1432.805
-43.071	34.800	1664.729	1430.797
-42.057	34.800	1661.846	1428.266
-41.042	34.913	1659.694	1427.202
-40.027	34.932	1657.759	1425.624
-39.013	34.876	1656.148	1423.767
-37.998	34.828	1654.747	1422.146
-36.984	34.805	1653.428	1420.783
-35.969	34.989	1651.766	1420.668
-34.954	35.101	1649.557	1419.542
-33.940	34.968	1648.332	1417.443
-32.925	34.991	1646.393	1415.894
-31.911	35.037	1644.390	1414.453
-30.896	34.963	1643.128	1412.762
-29.881	35.114	1640.859	1411.875
-28.867	34.971	1639.875	1409.916
-27.852	34.944	1638.532	1408.504
-26.838	35.022	1636.509	1407.285
-25.823	35.081	1634.969	1406.339
-24.809	34.980	1633.966	1404.681
-23.794	35.066	1632.699	1404.164
-22.779	35.109	1630.936	1402.904
-21.765	35.047	1629.406	1401.084
-20.750	35.040	1627.319	1399.179
-19.736	35.082	1625.739	1398.074
-18.721	35.116	1624.256	1396.991
-17.706	35.021	1622.725	1394.928
-16.692	35.064	1621.682	1394.286
-15.677	35.083	1620.274	1393.162
-14.663	35.190	1618.771	1392.588
-13.648	35.064	1617.187	1390.256
-12.633	34.976	1616.172	1388.690
-11.619	35.125	1614.105	1387.943
-10.604	35.113	1612.979	1386.832
-9.590	35.175	1611.326	1385.798
-8.575	35.209	1609.799	1384.675
-7.560	35.060	1608.863	1382.741
-6.546	35.079	1608.073	1382.147
-5.531	35.030	1607.050	1380.859
-4.517	35.120	1605.723	1380.310
-3.502	35.114	1604.343	1379.029
-2.487	35.098	1602.955	1377.665
-1.473	34.734	1590.282	1364.121
-0.458	31.352	1569.866	1322.666
0.556	24.434	1568.402	1282.385
1.571	21.706	1592.007	1281.644
2.586	21.215	1605.627	1288.871
3.600	19.211	1553.928	1232.930
4.615	10.420	1441.857	1085.275
5.629	1.566	1373.350	976.941
6.644	-0.258	1364.373	958.820
7.659	-0.289	1362.439	957.178
8.673	-0.487	1362.060	955.562
9.688	-0.425	1359.780	954.275
10.702	-0.639	1356.892	950.807
11.717	2.659	1363.684	976.514
12.731	11.767	1381.408	1047.671
13.746	17.965	1391.076	1094.760
14.761	18.511	1390.517	1097.722
15.775	18.555	1389.912	1097.425
16.790	18.509	1389.238	1096.504
17.804	18.608	1388.759	1096.666
18.819	18.699	1389.067	1097.387
19.834	18.784	1388.369	1097.284
20.848	18.838	1386.780	1096.278
21.863	18.832	1385.841	1095.402
22.877	18.909	1384.933	1095.074
23.892	18.793	1385.006	1094.296
24.907	18.769	1383.927	1093.193
25.921	18.922	1382.387	1092.857
26.936	18.798	1382.291	1091.895
27.950	18.856	1381.225	1091.326
28.965	18.705	1379.981	1089.288
29.980	18.745	1378.271	1088.096
30.994	18.863	1376.859	1087.630
32.009	18.872	1375.671	1086.651
33.023	18.780	1374.489	1085.040
34.038	18.849	1373.323	1084.458
35.053	18.894	1371.979	1083.589
36.067	18.882	1371.060	1082.686
37.082	18.728	1370.421	1081.120
38.096	18.805	1369.236	1080.573
39.111	18.856	1368.121	1079.919
40.126	18.821	1367.782	1079.332
41.140	18.833	1367.364	1078.982
42.155	18.829	1366.981	1078.559
43.169	18.782	1367.044	1078.220
44.184	18.774	1366.576	1077.708
45.199	18.793	1366.315	1077.521
46.213	18.779	1365.272	1076.519
47.228	18.834	1364.585	1076.224
48.242	18.821	1363.303	1075.035
49.257	18.856	1361.597	1073.816
50.271	18.887	1360.299	1072.892
51.286	18.836	1358.947	1071.415
52.301	18.781	1358.266	1070.440
53.315	18.778	1356.847	1069.204
54.330	18.803	1356.043	1068.635
55.344	18.682	1354.989	1066.954
56.359	18.808	1354.195	1067.019
57.374	18.803	1353.336	1066.215
58.388	18.700	1352.671	1064.961
59.403	18.794	1352.174	1065.055
60.417	18.843	1351.370	1064.630
61.432	18.803	1350.284	1063.435
62.447	18.821	1349.411	1062.766
63.461	18.873	1347.772	1061.701
64.476	18.855	1346.987	1060.876
65.490	18.817	1345.974	1059.753
66.505	18.893	1343.804	1058.416
67.520	18.808	1343.409	1057.489
68.534	18.872	1342.012	1056.691
69.549	18.883	1340.602	1055.551
70.563	18.892	1339.522	1054.667
71.578	18.879	1338.698	1053.843
72.593	18.807	1338.167	1052.891
73.607	18.864	1337.485	1052.608
74.622	18.813	1336.727	1051.608
75.636	18.818	1335.600	1050.662
76.651	18.924	1334.853	1050.625
77.666	18.841	1334.303	1049.596
78.680	18.800	1334.330	1049.274
79.695	18.830	1333.215	1048.487
80.709	18.855	1331.824	1047.449
81.724	18.726	1331.621	1046.413
82.739	18.798	1330.158	1045.609
83.753	18.815	1329.428	1045.043
84.768	18.771	1327.984	1043.549
85.782	18.879	1326.734	1043.129
86.797	18.808	1325.396	1041.557
87.812	18.865	1324.585	1041.171
88.826	18.858	1323.130	1039.892
89.841	18.923	1322.150	1039.426
90.855	18.836	1321.782	1038.517
91.870	18.849	1320.300	1037.341
92.884	18.805	1320.073	1036.806
93.899	18.881	1318.827	1036.191
94.914	18.837	1317.862	1035.076
95.928	18.869	1316.651	1034.228
96.943	18.917	1316.375	1034.209
97.957	18.888	1315.554	1033.298
98.972	18.972	1314.066	1032.542
99.987	18.944	1312.742	1031.242
101.001	18.939	1311.974	1030.516
102.016	18.955	1311.206	1029.920
103.030	18.959	1310.057	1028.950
104.045	18.887	1309.212	1027.762
105.060	18.984	1308.350	1027.578
106.074	18.959	1307.190	1026.427
107.089	19.007	1305.904	1025.610
108.103	18.956	1304.845	1024.386
109.118	19.051	1303.465	1023.775
110.133	18.957	1302.483	1022.352
111.147	19.031	1300.813	1021.393
112.162	18.887	1299.777	1019.633
113.176	18.933	1298.525	1018.832
114.191	18.931	1297.794	1018.160
115.206	18.989	1296.616	1017.490
116.220	19.048	1295.018	1016.493
117.235	18.943	1294.678	1015.513
118.249	18.975	1293.203	1014.458
119.264	18.972	1292.316	1013.656
120.279	19.032	1291.580	1013.343
121.293	19.045	1290.256	1012.288
122.308	19.091	1289.652	1011.995
123.322	18.997	1288.285	1010.281
124.337	18.990	1287.377	1009.440
125.352	18.994	1286.335	1008.555
126.366	19.004	1285.457	1007.840
127.381	18.927	1284.676	1006.685
128.395	18.979	1283.643	1006.092
129.410	19.011	1282.872	1005.585
130.424	19.032	1281.534	1004.570
131.439	19.093	1280.355	1003.912
132.454	19.003	1279.882	1002.928
133.468	18.986	1279.155	1002.169
134.483	19.049	1278.506	1001.939
135.497	19.036	1277.679	1001.130
136.512	18.979	1276.704	999.944
137.527	19.065	1275.009	999.025
138.541	18.959	1273.750	997.339
139.556	19.022	1272.448	996.592
140.570	19.033	1271.605	995.910
141.585	18.935	1270.300	994.232
142.600	19.017	1268.902	993.526
143.614	18.971	1268.142	992.575
144.629	18.967	1266.766	991.390
145.643	18.882	1265.843	990.088
146.658	18.951	1264.566	989.401
147.673	18.872	1263.920	988.349
148.687	18.949	1262.638	987.706
149.702	19.002	1261.080	986.703
150.716	18.916	1260.840	985.936
151.731	18.913	1259.112	984.480
152.746	19.136	1257.878	984.703
153.760	19.055	1257.030	983.487
154.775	18.971	1256.058	982.162
155.789	18.973	1254.927	981.201
156.804	18.968	1253.948	980.317
157.819	18.997	1253.762	980.254
158.833	18.981	1252.558	979.134
159.848	19.031	1251.535	978.533
160.862	19.097	1251.097	978.476
161.877	19.164	1250.003	977.916
162.892	19.047	1248.861	976.275
163.906	19.122	1248.249	976.131
164.921	19.084	1247.507	975.253
165.935	19.135	1246.350	974.548
166.950	19.053	1246.132	973.831
167.964	19.062	1245.617	973.390
168.979	18.983	1245.142	972.485
169.994	19.118	1244.119	972.366
171.008	19.122	1243.489	971.807
172.023	19.163	1242.404	971.107
173.037	19.060	1241.902	970.045
174.052	19.067	1241.205	969.456
175.067	19.098	1240.074	968.659
176.081	19.036	1239.556	967.823
177.096	19.168	1238.338	967.529
178.110	19.081	1237.682	966.443
179.125	19.106	1236.560	965.619
180.140	19.144	1235.717	965.086
181.154	19.065	1234.289	963.447
182.169	19.147	1233.289	963.041
183.183	19.143	1232.359	962.204
184.198	19.098	1231.659	961.319
185.213	19.180	1230.317	960.649
186.227	19.207	1229.367	959.969
187.242	19.199	1228.714	959.331
188.256	19.309	1227.133	958.625
189.271	19.205	1226.631	957.570
190.286	19.149	1226.105	956.763
191.300	19.069	1225.636	955.868
192.315	19.105	1225.354	955.760
193.329	19.136	1224.508	955.191
194.344	19.176	1224.200	955.089
195.359	19.163	1223.194	954.147
196.373	19.140	1222.905	953.707
197.388	19.073	1222.301	952.782
198.402	19.115	1222.501	953.085
199.417	19.162	1221.594	952.553
200.432	19.132	1220.812	951.692
201.446	19.137	1220.129	951.107
202.461	19.194	1219.010	950.466
203.475	19.065	1218.708	949.431
204.490	19.177	1217.587	949.092
205.504	19.248	1216.221	948.336
206.519	19.260	1215.405	947.678
207.534	19.349	1214.331	947.247
208.548	19.299	1213.326	946.103
209.563	19.160	1213.050	945.046
210.577	19.216	1211.996	944.445
211.592	19.290	1211.374	944.285
212.607	19.329	1209.985	943.333
213.621	19.302	1209.325	942.587
214.636	19.423	1208.452	942.484
215.650	19.340	1208.188	941.742
216.665	19.319	1206.704	940.386
217.680	19.284	1206.236	939.746
218.694	19.295	1204.966	938.732
219.709	19.328	1204.953	938.820
220.723	19.302	1204.403	938.165
221.738	19.320	1203.033	937.113
222.753	19.303	1202.137	936.239
223.767	19.335	1201.704	935.995
224.782	19.389	1201.355	935.932
225.796	19.512	1200.564	935.899
226.811	19.394	1200.174	934.872
227.826	19.384	1199.607	934.295
228.840	19.446	1198.970	934.054
229.855	19.305	1198.634	932.944
230.869	19.413	1197.364	932.456
231.884	19.473	1196.687	932.175
232.899	19.340	1195.915	930.773
233.913	19.414	1195.629	930.865
234.928	19.537	1195.141	931.066
235.942	19.505	1194.439	930.267
236.957	19.441	1193.956	929.461
237.972	19.453	1192.654	928.429
238.986	19.470	1192.356	928.207
240.001	19.474	1191.594	927.551
241.015	19.514	1190.985	927.215
242.030	19.582	1189.751	926.534
243.045	19.539	1189.280	925.853
244.059	19.546	1188.050	924.852
245.074	19.623	1187.277	924.585
246.088	19.544	1187.030	923.886
247.103	19.588	1185.808	923.086
248.117	19.545	1185.093	922.221
249.132	19.547	1184.995	922.074
250.147	19.579	1183.877	921.293
251.161	19.732	1182.904	921.269
252.176	19.653	1182.285	920.284
253.190	19.593	1181.955	919.626
254.205	19.598	1181.450	919.176
255.220	19.630	1180.503	918.532
256.234	19.609	1180.144	918.058
257.249	19.570	1179.682	917.409
258.263	19.608	1179.027	917.019
259.278	19.708	1178.251	916.869
260.293	19.651	1177.253	915.708
261.307	19.650	1177.271	915.637
262.322	19.585	1177.032	915.025
263.336	19.736	1175.666	914.683
264.351	19.699	1175.183	914.027
265.366	19.740	1174.632	913.734
266.380	19.672	1173.690	912.564
267.395	19.698	1173.214	912.250
268.409	19.488	1173.057	910.936
269.424	19.692	1172.008	911.118
270.439	19.688	1171.126	910.329
271.453	19.808	1170.673	910.530
272.468	19.740	1170.108	909.652
273.482	19.578	1169.381	908.155
274.497	19.725	1168.952	908.512
275.512	19.819	1168.067	908.240
276.526	19.799	1167.416	907.547
277.541	19.810	1166.892	907.119
278.555	19.797	1166.251	906.472
279.570	19.924	1165.620	906.566
280.585	19.802	1164.838	905.238
281.599	19.821	1163.762	904.418
282.614	19.799	1162.688	903.391
283.628	19.894	1161.488	902.873
284.643	19.849	1160.956	902.145
285.657	19.866	1159.883	901.321
286.672	19.734	1159.542	900.290
287.687	19.828	1158.665	900.017
288.701	19.903	1157.698	899.576
289.716	19.881	1157.403	899.156
290.730	19.933	1156.443	898.598
291.745	19.966	1155.696	898.113
292.760	19.952	1155.641	897.915
293.774	19.988	1154.611	897.222
294.789	20.047	1154.162	897.100
295.803	20.061	1153.580	896.638
296.818	19.956	1152.942	895.519
297.833	19.948	1152.128	894.771
298.847	19.930	1151.467	894.084
299.862	20.036	1150.276	893.628
300.876	20.071	1150.042	893.546
301.891	19.942	1149.610	892.463
302.906	19.996	1148.865	892.085
303.920	19.966	1148.523	891.588
304.935	19.974	1147.692	890.906
305.949	20.015	1146.826	890.367
306.964	20.040	1146.164	889.902
307.979	20.035	1145.576	889.342
308.993	19.981	1145.320	888.786
310.008	20.027	1144.226	888.093
311.022	20.203	1143.306	888.203
312.037	20.062	1143.056	887.209
313.052	20.037	1141.951	886.141
314.066	20.151	1140.691	885.670
315.081	20.061	1140.257	884.793
316.095	20.112	1139.766	884.595
317.110	20.129	1138.801	883.856
318.125	20.257	1138.001	883.810
319.139	20.171	1137.427	882.847
320.154	20.147	1137.031	882.338
321.168	20.218	1136.102	881.901
322.183	20.074	1136.277	881.228
323.197	20.158	1135.022	880.601
324.212	20.183	1134.540	880.274
325.227	20.223	1134.103	880.063
326.241	20.288	1133.596	879.923
327.256	20.140	1132.946	878.588
328.270	20.207	1132.268	878.323
329.285	20.302	1130.880	877.652
330.300	20.220	1130.440	876.816
331.314	20.182	1129.608	875.901
332.329	20.405	1128.266	875.911
333.343	20.307	1127.937	875.083
334.358	20.310	1127.082	874.354
335.373	20.257	1126.869	873.848
336.387	20.393	1125.793	873.617
337.402	20.374	1124.862	872.725
338.416	20.373	1124.188	872.118
339.431	20.492	1123.594	872.180
340.446	20.319	1123.234	870.955
341.460	20.283	1122.692	870.274
342.475	20.396	1122.233	870.411
343.489	20.361	1120.917	869.137
344.504	20.517	1119.523	868.757
345.519	20.477	1118.896	867.993
346.533	20.490	1118.248	867.480
347.548	20.456	1117.787	866.878
348.562	20.507	1117.001	866.445
349.577	20.469	1116.398	865.709
350.592	20.476	1115.719	865.141
351.606	20.433	1115.179	864.433
352.621	20.425	1114.673	863.926
353.635	20.376	1113.867	862.977
354.650	20.489	1112.942	862.749
355.665	20.536	1112.345	862.444
356.679	20.540	1111.786	861.951
357.694	20.473	1111.268	861.143
358.708	20.586	1110.916	861.351
359.723	20.557	1109.868	860.320
360.738	20.521	1109.096	859.468
361.752	20.543	1108.849	859.308
362.767	20.655	1107.875	859.032
363.781	20.657	1107.696	858.829
364.796	20.697	1106.705	858.177
365.810	20.661	1106.500	857.768
366.825	20.531	1106.291	856.889
367.840	20.572	1105.703	856.559
368.854	20.731	1104.813	856.575
369.869	20.704	1104.210	855.902
370.883	20.780	1103.056	855.303
371.898	20.897	1102.080	855.043
372.913	20.727	1101.839	853.949
373.927	20.781	1101.558	853.920
374.942	20.798	1101.043	853.527
375.956	20.661	1100.518	852.374
376.971	20.713	1099.922	852.090
377.986	20.781	1099.428	851.967
379.000	20.846	1098.772	851.700
380.015	20.844	1098.127	851.116
381.029	20.826	1097.753	850.661
382.044	20.889	1096.788	850.149
383.059	21.000	1095.745	849.806
384.073	20.966	1095.258	849.186
385.088	20.908	1094.781	848.460
386.102	20.896	1093.669	847.463
387.117	20.836	1092.804	846.429
388.132	20.899	1092.182	846.174
389.146	20.810	1091.356	845.031
390.161	20.987	1090.484	845.138
391.175	20.863	1089.975	844.067
392.190	20.855	1089.694	843.738
393.205	20.832	1088.988	843.004
394.219	20.976	1087.963	842.832
395.234	21.028	1086.655	841.997
396.248	21.047	1085.618	841.206
397.263	21.109	1084.728	840.742
398.278	20.943	1084.537	839.723
399.292	21.082	1084.270	840.109
400.307	21.040	1083.592	839.309
401.321	21.035	1082.828	838.617
402.336	21.000	1082.119	837.827
403.350	21.155	1081.134	837.736
404.365	21.115	1080.517	836.990
405.380	21.060	1079.616	835.952
406.394	21.215	1079.188	836.289
407.409	21.177	1078.276	835.329
408.423	21.142	1077.727	834.660
409.438	21.093	1077.153	833.909
410.453	21.248	1076.334	833.942
411.467	21.160	1075.799	833.034
412.482	21.269	1074.846	832.740
413.496	21.246	1074.383	832.198
414.511	21.186	1073.866	831.439
415.526	21.119	1073.495	830.759
416.540	21.195	1072.939	830.618
417.555	21.186	1072.194	829.927
418.569	21.315	1071.841	830.193
419.584	21.324	1071.181	829.647
420.599	21.396	1070.500	829.387
421.613	147.441	1395.475	1791.107
422.628	135.926	1442.811	1791.213
