DTS Sentinel unit serial number:	SN413079Multiplexer serial number:	ORYXHardware model number:	OX4-SRSoftware version number:	ORYX F/W v4.00 Oryx Data Collector v3.7.2.0data status	okinstallation	princeton_trtdifferential loss correction	single-endedforward channel	channel 2reverse channel	N/Adate	2019/09/13time	16:11:35forward acquisition time	60.00reverse acquisition time	0.00gamma	496.2192k internal	0.2314k external	0.2314temperature offset calibration	1.0213default loss term (dB/km)	0.3790temperature slope calibration	1.0000multiplexer offset coefficient	1.0000multiplexer slope coefficient	1.0000fibre end	0.00T internal ref (°C)	34.80T ext. ref 1 (°C)	4.84T ext. ref 2 (°C)	31.41length (m)	temperature (°C)	Stokes	anti-Stokes-747.200	-50.147	-0.277	-0.133
-746.185	102.572	-0.116	-0.137
-745.171	59.596	-0.094	-0.094
-744.156	-200.000	-0.005	0.109
-743.142	-200.000	-0.020	-0.305
-742.127	-200.000	0.023	0.233
-741.112	-70.289	0.218	0.084
-740.098	-5.289	-0.267	0.186
-739.083	-122.779	-0.086	-0.014
-738.069	-117.537	-0.108	0.020
-737.054	252.911	0.130	0.225
-736.039	-93.445	-0.346	0.097
-735.025	-73.131	-0.148	0.055
-734.010	665.729	-0.069	-0.180
-732.996	800.000	0.069	-0.293
-731.981	163.718	0.231	-0.329
-730.966	220.262	-0.082	-0.134
-729.952	123.700	-0.131	-0.166
-728.937	55.565	-0.157	-0.154
-727.923	800.000	0.026	-0.074
-726.908	-200.000	0.008	-0.106
-725.894	-69.714	-0.018	-0.007
-724.879	677.568	-0.054	-0.143
-723.864	-112.658	-0.195	0.039
-722.850	77.400	0.070	-0.076
-721.835	-134.309	0.124	0.015
-720.821	-62.308	-0.227	-0.096
-719.806	-73.871	-0.070	0.026
-718.791	-200.000	0.015	0.088
-717.777	-50.805	-0.131	0.062
-716.762	-92.414	-0.215	0.061
-715.748	182.787	0.040	-0.060
-714.733	593.762	-0.119	0.299
-713.718	-78.782	-0.175	0.060
-712.704	269.067	-0.110	0.196
-711.689	-200.000	0.017	0.186
-710.675	800.000	0.060	-0.180
-709.660	-120.154	-0.247	-0.043
-708.645	127.764	0.030	-0.039
-707.631	-91.590	-0.163	0.047
-706.616	340.572	-0.052	-0.104
-705.602	-85.085	-0.161	0.051
-704.587	800.000	0.070	0.262
-703.572	687.891	0.156	-0.412
-702.558	7.803	0.218	-0.165
-701.543	-165.602	-0.279	-0.012
-700.529	800.000	0.042	0.184
-699.514	-200.000	-0.022	0.238
-698.499	800.000	0.066	-0.193
-697.485	800.000	-0.080	-0.223
-696.470	270.942	0.187	-0.333
-695.456	800.000	-0.105	-0.405
-694.441	595.372	-0.095	-0.237
-693.426	289.062	0.088	0.161
-692.412	389.005	0.087	0.182
-691.397	-15.037	-0.126	0.082
-690.383	-4.024	0.517	0.362
-689.368	-200.000	-0.044	-0.313
-688.354	-116.480	-0.270	-0.050
-687.339	169.827	0.114	-0.164
-686.324	-79.672	0.147	0.050
-685.310	235.840	-0.186	0.311
-684.295	-147.835	0.225	-0.019
-683.281	800.000	0.043	0.150
-682.266	-26.158	0.091	-0.054
-681.251	-63.324	-0.412	-0.172
-680.237	-56.031	-0.250	-0.112
-679.222	118.042	0.207	0.258
-678.208	159.984	0.076	0.107
-677.193	548.976	-0.035	0.085
-676.178	180.725	-0.079	0.117
-675.164	609.921	0.033	0.083
-674.149	-158.397	0.022	0.001
-673.135	-96.768	-0.068	-0.018
-672.120	800.000	-0.053	-0.185
-671.105	141.589	0.204	-0.273
-670.091	28.065	-0.298	0.254
-669.076	-162.772	-0.334	0.017
-668.062	-175.258	0.086	-0.002
-667.047	-200.000	0.011	-0.102
-666.032	3.730	0.165	-0.122
-665.018	-48.312	0.190	0.092
-664.003	-200.000	0.013	0.178
-662.989	-200.000	-0.007	-0.063
-661.974	-200.000	-0.007	-0.127
-660.959	-121.183	0.098	-0.017
-659.945	-200.000	-0.017	-0.074
-658.930	29.527	0.215	-0.185
-657.916	800.000	-0.055	-0.222
-656.901	479.624	-0.116	0.265
-655.886	800.000	-0.110	-0.388
-654.872	-162.762	-0.181	0.009
-653.857	-53.270	-0.062	0.029
-652.843	178.201	-0.272	-0.401
-651.828	-101.383	-0.297	0.073
-650.814	-108.724	-0.096	0.021
-649.799	-117.826	0.104	-0.019
-648.784	286.636	-0.065	-0.119
-647.770	-115.517	0.121	0.023
-646.755	222.106	0.152	0.247
-645.741	800.000	-0.015	0.042
-644.726	716.209	-0.161	0.432
-643.711	-200.000	0.002	0.016
-642.697	-53.931	-0.151	-0.069
-641.682	-190.013	0.181	0.002
-640.668	40.410	-0.148	-0.134
-639.653	-104.011	0.446	-0.105
-638.638	485.219	-0.156	-0.358
-637.624	83.543	-0.296	0.326
-636.609	-53.864	-0.233	-0.107
-635.595	43.492	-0.090	0.083
-634.580	-100.358	0.137	-0.034
-633.565	-17.253	-0.097	-0.062
-632.551	6.893	0.165	0.124
-631.536	-60.210	-0.103	-0.044
-630.522	-59.485	-0.155	-0.067
-629.507	-148.396	-0.050	0.004
-628.492	186.227	-0.112	-0.168
-627.478	-35.787	0.233	0.127
-626.463	-98.656	-0.142	-0.037
-625.449	112.488	0.147	-0.179
-624.434	75.273	-0.315	-0.335
-623.419	632.875	-0.088	-0.224
-622.405	24.235	0.188	0.157
-621.390	-19.226	-0.139	0.087
-620.376	-35.409	-0.147	-0.081
-619.361	173.623	0.122	0.178
-618.346	-82.224	-0.318	0.104
-617.332	93.394	-0.111	0.126
-616.317	800.000	0.033	0.098
-615.303	128.172	-0.163	0.209
-614.288	53.503	-0.095	-0.092
-613.273	-34.779	0.215	0.118
-612.259	-112.932	0.333	-0.067
-611.244	207.352	0.033	0.052
-610.230	-41.416	-0.303	0.157
-609.215	-114.133	-0.102	-0.020
-608.201	217.109	0.284	0.456
-607.186	-129.761	-0.155	0.021
-606.171	-38.651	0.208	-0.111
-605.157	-118.751	-0.103	0.018
-604.142	314.220	0.040	0.076
-603.128	-76.700	0.113	0.040
-602.113	342.469	0.099	-0.196
-601.098	74.501	-0.190	0.201
-600.084	-84.516	-0.353	0.112
-599.069	-46.747	0.169	0.083
-598.055	81.222	-0.112	0.122
-597.040	-149.232	-0.278	0.022
-596.025	794.014	0.108	0.299
-595.011	-200.000	-0.067	-0.364
-593.996	-87.130	0.064	0.019
-592.982	320.945	-0.018	-0.035
-591.967	800.000	-0.048	-0.181
-590.952	-103.344	-0.354	-0.084
-589.938	198.253	-0.230	-0.355
-588.923	403.382	-0.153	-0.323
-587.909	-200.000	0.009	-0.148
-586.894	-22.775	-0.071	-0.043
-585.879	-48.996	-0.311	0.150
-584.865	27.672	-0.296	-0.251
-583.850	-27.062	-0.234	0.137
-582.836	133.338	-0.140	-0.183
-581.821	-107.342	0.127	0.028
-580.806	-200.000	-0.067	-0.328
-579.792	-51.191	0.145	-0.069
-578.777	800.000	0.054	0.191
-577.763	-130.935	-0.016	0.002
-576.748	199.657	0.109	-0.168
-575.733	-29.385	-0.170	0.098
-574.719	-200.000	-0.011	0.128
-573.704	-200.000	0.049	0.351
-572.690	23.816	0.166	0.138
-571.675	-105.580	0.098	0.022
-570.661	61.929	-0.107	0.108
-569.646	443.609	0.100	0.222
-568.631	-200.000	0.017	-0.248
-567.617	-27.655	0.316	-0.184
-566.602	61.467	0.294	0.294
-565.588	-90.674	-0.269	-0.078
-564.573	-15.837	-0.138	-0.088
-563.558	-167.524	-0.146	-0.006
-562.544	-200.000	-0.063	0.472
-561.529	-84.144	-0.136	-0.043
-560.515	-200.000	-0.025	-0.222
-559.500	9.440	0.225	0.171
-558.485	95.216	0.218	-0.250
-557.471	-36.015	0.110	0.060
-556.456	40.045	0.191	-0.173
-555.442	-130.104	0.154	0.021
-554.427	118.071	0.042	-0.052
-553.412	730.192	-0.039	0.104
-552.398	800.000	-0.036	0.115
-551.383	40.958	-0.251	0.228
-550.369	-38.213	0.084	-0.045
-549.354	-149.269	0.099	0.008
-548.339	-43.720	-0.477	0.242
-547.325	25.820	0.083	-0.070
-546.310	-200.000	0.007	0.319
-545.296	-153.737	-0.079	-0.005
-544.281	46.142	-0.144	0.134
-543.266	-58.553	-0.244	-0.106
-542.252	17.277	0.135	0.108
-541.237	238.686	0.146	-0.245
-540.223	800.000	0.154	-0.504
-539.208	-167.479	-0.226	0.009
-538.193	124.692	-0.179	-0.227
-537.179	-113.404	-0.372	0.073
-536.164	53.476	0.110	-0.106
-535.150	51.059	-0.076	-0.072
-534.135	-188.154	-0.338	-0.004
-533.121	800.000	0.068	0.258
-532.106	2.701	0.216	-0.158
-531.091	16.619	0.076	-0.061
-530.077	-157.188	-0.180	-0.011
-529.062	-62.042	0.171	-0.072
-528.048	271.657	-0.090	0.159
-527.033	800.000	-0.103	0.317
-526.018	-117.804	0.470	-0.085
-525.004	197.656	-0.198	-0.303
-523.989	587.991	0.110	0.273
-522.975	-132.436	0.189	-0.024
-521.960	800.000	0.079	-0.244
-520.945	29.258	-0.257	0.219
-519.931	279.644	0.068	-0.123
-518.916	800.000	0.082	-0.269
-517.902	-10.974	-0.133	-0.088
-516.887	-200.000	-0.026	0.131
-515.872	-138.197	-0.232	0.026
-514.858	-53.098	0.067	0.031
-513.843	-139.050	-0.215	0.023
-512.829	-80.001	-0.342	0.115
-511.814	60.424	0.089	-0.088
-510.799	-52.384	-0.244	-0.113
-509.785	-46.400	-0.466	-0.230
-508.770	-150.734	-0.392	-0.030
-507.756	60.818	0.285	0.283
-506.741	358.538	-0.132	0.264
-505.726	-200.000	0.019	-0.376
-504.712	192.061	-0.196	-0.297
-503.697	-200.000	-0.029	-0.275
-502.683	-200.000	0.015	-0.213
-501.668	-90.622	-0.121	0.035
-500.653	144.340	0.022	0.029
-499.639	800.000	-0.044	0.140
-498.624	-56.802	-0.252	0.112
-497.610	-102.769	0.389	-0.093
-496.595	800.000	-0.046	0.141
-495.581	800.000	0.098	0.406
-494.566	-71.021	0.388	-0.146
-493.551	88.070	0.120	-0.133
-492.537	86.238	-0.066	0.073
-491.522	-13.993	0.221	0.143
-490.508	279.160	0.180	-0.322
-489.493	-19.275	-0.043	-0.027
-488.478	-200.000	-0.019	0.176
-487.464	-113.748	0.098	0.019
-486.449	189.219	-0.106	-0.160
-485.435	25.505	0.183	-0.152
-484.420	240.056	0.177	-0.296
-483.405	-47.751	-0.452	0.220
-482.391	6.903	-0.142	-0.106
-481.376	266.063	-0.243	0.425
-480.362	-159.451	0.038	0.002
-479.347	-23.677	-0.348	0.209
-478.332	-20.210	0.102	-0.063
-477.318	-109.265	-0.328	0.070
-476.303	66.997	-0.245	-0.250
-475.289	-141.628	-0.172	-0.017
-474.274	-132.082	-0.082	-0.011
-473.259	800.000	0.077	-0.257
-472.245	-116.581	0.139	0.026
-471.230	189.525	-0.072	0.108
-470.216	-200.000	0.001	-0.148
-469.201	-38.497	-0.160	0.085
-468.186	-200.000	0.006	0.207
-467.172	-26.117	0.166	0.098
-466.157	6.687	0.155	0.116
-465.143	-200.000	0.023	-0.409
-464.128	-81.160	-0.186	0.062
-463.113	-147.440	0.084	-0.007
-462.099	-83.696	0.374	-0.120
-461.084	-74.751	0.182	0.066
-460.070	-74.270	-0.277	-0.100
-459.055	800.000	-0.102	0.389
-458.040	-147.795	-0.152	-0.013
-457.026	800.000	-0.061	-0.227
-456.011	52.396	0.119	-0.113
-454.997	-21.657	0.240	0.146
-453.982	64.660	0.071	-0.072
-452.968	119.783	0.060	0.075
-451.953	-59.844	0.376	0.161
-450.938	199.910	0.038	0.059
-449.924	-200.000	0.037	0.178
-448.909	162.233	0.069	0.097
-447.895	196.368	0.198	-0.302
-446.880	155.428	-0.121	-0.167
-445.865	226.896	-0.052	-0.085
-444.851	-71.330	-0.166	-0.062
-443.836	-200.000	-0.013	0.252
-442.822	-39.629	0.045	-0.024
-441.807	77.662	0.164	0.175
-440.792	626.575	-0.117	0.295
-439.778	91.078	0.236	0.265
-438.763	-75.491	-0.208	-0.074
-437.749	24.112	0.110	-0.091
-436.734	800.000	0.039	0.151
-435.719	-25.874	0.165	-0.097
-434.705	467.889	-0.143	-0.321
-433.690	46.974	0.069	0.065
-432.676	-52.633	-0.153	0.071
-431.661	800.000	-0.155	-0.434
-430.646	84.846	0.038	-0.041
-429.632	-54.489	0.312	-0.141
-428.617	108.956	0.147	0.176
-427.603	-162.578	0.294	-0.014
-426.588	-176.888	-0.242	-0.006
-425.573	-25.811	-0.253	0.149
-424.559	-69.573	-0.203	-0.078
-423.544	-127.391	0.133	-0.019
-422.530	-152.277	-0.154	-0.011
-421.515	-200.000	-0.046	-0.311
-420.500	-200.000	0.076	0.383
-419.486	76.581	-0.276	0.293
-418.471	-77.520	-0.119	0.041
-417.457	63.450	0.069	0.069
-416.442	-96.456	0.155	-0.041
-415.428	404.173	0.075	-0.159
-414.413	-142.486	-0.155	0.015
-413.398	-84.529	-0.196	0.062
-412.384	377.105	-0.105	0.214
-411.369	41.492	0.085	-0.077
-410.355	-200.000	-0.009	-0.104
-409.340	-32.600	0.207	0.115
-408.325	491.441	0.118	0.271
-407.311	-74.075	-0.367	-0.133
-406.296	-200.000	-0.059	-0.275
-405.282	-50.099	-0.060	-0.028
-404.267	70.261	0.141	-0.146
-403.252	-104.075	-0.282	0.066
-402.238	-125.097	-0.189	0.029
-401.223	-106.466	0.270	-0.060
-400.209	-158.145	-0.279	-0.016
-399.194	87.845	0.103	-0.114
-398.179	262.288	-0.074	-0.127
-397.165	754.234	0.067	0.180
-396.150	-140.657	0.164	0.017
-395.136	-118.942	-0.196	-0.034
-394.121	-66.820	0.151	-0.060
-393.106	140.745	-0.195	0.258
-392.092	-17.305	-0.246	-0.155
-391.077	-107.781	0.158	-0.035
-390.063	-200.000	0.025	0.159
-389.048	191.363	-0.129	-0.194
-388.033	226.559	-0.223	0.362
-387.019	93.326	-0.149	0.169
-386.004	-200.000	-0.056	-0.270
-384.990	206.327	0.175	-0.273
-383.975	38.771	0.170	-0.152
-382.960	800.000	0.059	-0.227
-381.946	47.962	-0.215	-0.201
-380.931	68.188	-0.211	-0.216
-379.917	-200.000	0.004	0.042
-378.902	110.164	-0.315	0.378
-377.888	-107.480	-0.525	0.115
-376.873	-14.557	-0.047	-0.030
-375.858	205.996	0.161	-0.250
-374.844	800.000	-0.010	-0.037
-373.829	313.280	-0.161	-0.303
-372.815	-46.976	0.097	0.048
-371.800	-96.598	0.303	-0.080
-370.785	77.809	-0.297	0.316
-369.771	-109.154	-0.299	0.063
-368.756	-200.000	0.006	-0.107
-367.742	-194.206	0.214	0.002
-366.727	560.956	0.191	-0.461
-365.712	-105.877	-0.334	-0.075
-364.698	460.735	0.147	0.327
-363.683	-140.170	0.251	-0.026
-362.669	-200.000	0.038	0.278
-361.654	362.284	0.038	-0.076
-360.639	76.139	-0.157	-0.166
-359.625	-97.788	0.074	0.019
-358.610	62.654	-0.095	0.095
-357.596	-3.850	0.183	0.127
-356.581	-200.000	0.008	-0.179
-355.566	-161.327	0.115	-0.006
-354.552	123.015	-0.077	-0.097
-353.537	800.000	0.089	-0.275
-352.523	271.536	0.046	0.081
-351.508	-5.302	0.230	-0.158
-350.493	542.057	-0.040	-0.095
-349.479	60.346	-0.195	-0.192
-348.464	244.590	0.097	-0.163
-347.450	-28.153	0.455	-0.262
-346.435	800.000	0.082	0.289
-345.420	-114.637	-0.167	-0.032
-344.406	-200.000	0.023	-0.113
-343.391	-156.093	0.216	0.014
-342.377	-32.410	-0.217	-0.121
-341.362	547.698	0.037	-0.088
-340.348	311.369	-0.060	-0.112
-339.333	-29.385	0.246	-0.140
-338.318	404.739	-0.054	0.114
-337.304	-150.337	0.173	0.013
-336.289	800.000	0.139	0.429
-335.275	37.633	-0.172	0.152
-334.260	675.292	0.119	-0.308
-333.245	-200.000	0.045	0.288
-332.231	-92.787	0.351	-0.098
-331.216	47.253	-0.236	-0.219
-330.202	144.019	0.125	-0.166
-329.187	800.000	0.092	-0.262
-328.172	2.950	0.201	0.145
-327.158	-159.297	-0.059	-0.003
-326.143	-26.151	0.166	-0.097
-325.129	-200.000	0.014	0.343
-324.114	72.789	-0.166	0.173
-323.099	-50.911	-0.120	-0.056
-322.085	800.000	0.036	-0.141
-321.070	-200.000	0.009	-0.231
-320.056	-141.186	0.106	-0.011
-319.041	81.557	-0.245	0.264
-318.026	-127.548	0.048	0.007
-317.012	60.820	0.166	0.164
-315.997	15.621	0.111	0.087
-314.983	228.454	0.152	0.246
-313.968	-68.884	-0.228	0.088
-312.953	-200.000	-0.010	-0.192
-311.939	800.000	-0.083	-0.341
-310.924	-200.000	-0.039	0.228
-309.910	122.734	-0.079	-0.098
-308.895	9.462	-0.091	-0.069
-307.880	-44.142	0.123	0.061
-306.866	-70.730	0.218	0.082
-305.851	800.000	0.049	0.211
-304.837	159.167	0.057	-0.079
-303.822	469.712	-0.122	0.273
-302.807	59.253	0.136	-0.134
-301.793	-134.468	-0.068	-0.008
-300.778	800.000	-0.056	0.236
-299.764	587.739	-0.040	-0.097
-298.749	668.769	-0.052	0.135
-297.735	-200.000	-0.045	0.306
-296.720	75.451	0.073	0.077
-295.705	-87.305	0.195	0.059
-294.691	-40.221	-0.210	0.109
-293.676	-17.461	-0.339	0.212
-292.662	-200.000	-0.010	-0.227
-291.647	5.407	-0.313	-0.230
-290.632	87.031	-0.174	-0.192
-289.618	69.189	0.248	-0.254
-288.603	70.891	0.145	-0.150
-287.589	800.000	-0.100	-0.274
-286.574	174.081	-0.118	0.169
-285.559	-61.098	0.303	-0.127
-284.545	800.000	0.070	-0.283
-283.530	-135.547	-0.066	-0.008
-282.516	-28.708	-0.132	-0.076
-281.501	-79.328	0.267	-0.090
-280.486	-133.243	-0.022	0.003
-279.472	800.000	-0.022	0.070
-278.457	-200.000	0.017	0.104
-277.443	-26.058	0.167	-0.098
-276.428	-16.464	0.117	-0.074
-275.413	22.807	-0.245	0.200
-274.399	-140.138	0.215	0.023
-273.384	-24.014	-0.031	-0.018
-272.370	48.651	0.178	-0.166
-271.355	71.388	-0.078	-0.080
-270.340	-96.620	-0.154	0.040
-269.326	-68.984	-0.047	-0.018
-268.311	-135.268	0.234	0.028
-267.297	-14.765	0.376	0.240
-266.282	-88.920	-0.210	0.062
-265.267	-51.542	0.101	-0.047
-264.253	-23.046	-0.158	0.095
-263.238	-106.203	0.244	-0.054
-262.224	-90.006	-0.218	0.063
-261.209	-2.421	-0.200	-0.139
-260.195	-169.795	0.289	0.010
-259.180	-8.171	-0.231	-0.155
-258.165	372.221	0.119	-0.240
-257.151	-60.326	0.040	-0.017
-256.136	800.000	-0.034	0.108
-255.122	-158.855	0.208	-0.012
-254.107	-20.205	0.296	-0.181
-253.092	-8.227	0.249	-0.166
-252.078	-200.000	0.002	-0.030
-251.063	-200.000	0.036	0.212
-250.049	-119.858	0.238	-0.041
-249.034	-177.781	0.169	0.004
-248.019	320.335	0.040	-0.075
-247.005	-200.000	0.034	-0.157
-245.990	-96.931	0.161	-0.042
-244.976	-73.562	0.243	-0.088
-243.961	122.375	-0.052	-0.065
-242.946	-1.969	0.130	0.091
-241.932	-126.711	-0.210	-0.031
-240.917	-37.393	0.102	0.054
-239.903	-200.000	0.107	-0.481
-238.888	800.000	0.046	-0.127
-237.873	-61.828	0.209	0.087
-236.859	663.595	-0.093	-0.239
-235.844	-4.158	0.124	0.085
-234.830	-11.140	-0.207	0.135
-233.815	788.565	0.076	0.207
-232.800	472.187	0.098	0.220
-231.786	-200.000	-0.023	-0.171
-230.771	800.000	-0.045	-0.196
-229.757	-133.238	0.268	0.034
-228.742	504.951	-0.148	-0.340
-227.727	20.876	0.105	-0.084
-226.713	-11.376	0.286	-0.187
-225.698	800.000	-0.027	-0.112
-224.684	-15.893	0.100	-0.063
-223.669	-2.978	0.214	0.149
-222.655	287.620	-0.046	0.082
-221.640	-127.886	0.304	-0.044
-220.625	-103.994	-0.118	-0.027
-219.611	-82.909	-0.274	0.088
-218.596	-50.290	-0.148	0.069
-217.582	55.074	-0.086	0.083
-216.567	-104.279	0.166	0.038
-215.552	-191.409	-0.121	-0.001
-214.538	-200.000	0.044	0.200
-213.523	800.000	0.105	0.337
-212.509	800.000	0.075	-0.217
-211.494	38.301	-0.203	-0.179
-210.479	-135.814	0.292	-0.034
-209.465	47.220	-0.056	0.052
-208.450	-107.269	0.518	0.113
-207.436	-48.712	0.191	-0.091
-206.421	237.480	-0.140	-0.231
-205.406	-200.000	-0.018	0.304
-204.392	-7.850	0.211	0.142
-203.377	-18.823	-0.118	0.073
-202.363	598.666	-0.116	0.285
-201.348	263.252	0.124	0.215
-200.333	800.000	-0.106	0.391
-199.319	18.934	0.204	-0.162
-198.304	-34.168	-0.166	0.091
-197.290	-119.244	-0.177	0.031
-196.275	-153.325	-0.298	-0.021
-195.260	800.000	-0.021	-0.076
-194.246	-96.661	0.079	-0.021
-193.231	800.000	-0.117	0.411
-192.217	-103.652	-0.345	0.080
-191.202	-200.000	0.001	0.243
-190.187	-81.745	-0.162	0.053
-189.173	-37.311	-0.282	-0.149
-188.158	53.746	0.060	0.057
-187.144	-38.838	0.120	0.063
-186.129	-200.000	-0.009	-0.175
-185.114	-137.237	0.013	-0.002
-184.100	293.064	-0.086	-0.156
-183.085	800.000	0.014	-0.061
-182.071	800.000	-0.032	0.111
-181.056	200.669	0.078	0.119
-180.042	81.414	0.118	-0.127
-179.027	649.108	0.019	0.049
-178.012	105.379	0.318	-0.372
-176.998	561.340	-0.129	0.309
-175.983	372.901	0.171	0.344
-174.969	-42.002	-0.275	0.139
-173.954	-73.456	-0.331	0.120
-172.939	-131.902	0.063	-0.008
-171.925	27.396	-0.290	0.242
-170.910	3.274	0.166	-0.120
-169.896	-200.000	0.005	-0.084
-168.881	595.517	0.070	-0.172
-167.866	800.000	0.074	0.299
-166.852	60.141	-0.356	0.349
-165.837	-114.022	-0.208	0.040
-164.823	-154.173	0.263	0.018
-163.808	800.000	0.133	0.527
-162.793	-145.397	0.208	-0.019
-161.779	-9.337	0.122	0.081
-160.764	-112.210	0.465	0.093
-159.750	-122.631	0.174	0.028
-158.735	5.067	0.117	0.085
-157.720	-144.989	0.410	-0.037
-156.706	57.613	0.217	-0.210
-155.691	800.000	0.087	0.314
-154.677	102.642	0.070	-0.081
-153.662	-95.055	0.262	-0.070
-152.647	21.724	0.224	0.181
-151.633	-123.142	0.278	-0.044
-150.618	800.000	0.043	-0.146
-149.604	-47.428	0.185	0.089
-148.589	-200.000	0.078	-0.364
-147.574	-200.000	-0.035	0.200
-146.560	-200.000	0.085	0.415
-145.545	-5.352	0.143	0.097
-144.531	123.017	0.186	0.230
-143.516	148.876	-0.185	-0.248
-142.502	-26.253	0.167	-0.097
-141.487	800.000	0.048	-0.143
-140.472	114.051	-0.181	0.218
-139.458	165.934	0.125	0.175
-138.443	800.000	-0.045	0.150
-137.429	248.446	0.114	-0.191
-136.414	99.322	0.084	0.097
-135.399	88.483	0.125	-0.138
-134.385	342.385	0.136	-0.263
-133.370	-200.000	0.004	-0.216
-132.356	27.928	-0.261	0.218
-131.341	84.455	0.368	0.398
-130.326	800.000	0.022	0.093
-129.312	-68.194	-0.244	0.094
-128.297	-131.004	-0.134	-0.018
-127.283	253.802	0.141	-0.238
-126.268	-85.892	-0.203	0.062
-125.253	-95.478	-0.146	-0.039
-124.239	-121.139	-0.178	-0.030
-123.224	148.208	0.166	-0.222
-122.210	-122.223	-0.210	-0.034
-121.195	-193.146	-0.344	0.003
-120.180	-181.245	0.172	0.003
-119.166	-88.443	-0.240	-0.071
-118.151	750.452	0.051	0.136
-117.137	39.753	-0.067	0.060
-116.122	-74.854	-0.125	-0.044
-115.107	800.000	0.038	0.114
-114.093	269.786	0.141	0.246
-113.078	696.266	0.122	0.316
-112.064	800.000	0.068	0.272
-111.049	-200.000	-0.010	0.053
-110.034	-165.448	-0.301	0.013
-109.020	-55.197	-0.097	-0.043
-108.005	-62.310	-0.373	0.154
-106.991	-48.823	0.228	-0.108
-105.976	512.783	-0.140	-0.322
-104.962	-75.667	0.383	-0.135
-103.947	800.000	0.121	-0.406
-102.932	-105.562	-0.091	0.020
-101.918	39.813	-0.165	0.147
-100.903	-110.464	0.264	0.054
-99.889	154.064	-0.168	0.228
-98.874	-180.864	-0.151	0.003
-97.859	17.569	-0.086	-0.068
-96.845	-118.083	-0.380	-0.067
-95.830	-48.989	0.200	-0.095
-94.816	-103.522	0.345	-0.080
-93.801	-146.186	0.332	-0.029
-92.786	800.000	0.027	0.104
-91.772	800.000	0.042	0.180
-90.757	-84.722	-0.176	-0.055
-89.743	414.886	-0.142	0.298
-88.728	528.523	0.101	-0.236
-87.713	-134.509	0.252	0.030
-86.699	-61.336	-0.070	-0.029
-85.684	800.000	-0.110	0.390
-84.670	800.000	0.042	0.126
-83.655	148.751	0.282	0.376
-82.640	-62.230	-0.310	0.128
-81.626	-175.313	-0.157	0.004
-80.611	-120.152	0.083	0.014
-79.597	-0.293	0.139	-0.097
-78.582	-94.592	-0.216	-0.058
-77.567	-200.000	0.019	0.513
-76.553	17.750	-0.146	0.114
-75.538	-80.956	0.205	0.067
-74.524	10.923	0.435	0.328
-73.509	-200.000	0.007	0.136
-72.494	800.000	-0.081	-0.292
-71.480	-200.000	0.009	-0.134
-70.465	95.743	0.209	0.236
-69.451	-5.664	0.188	0.127
-68.436	-129.909	-0.218	0.030
-67.422	48.551	-0.200	-0.185
-66.407	166.947	-0.126	-0.176
-65.392	522.839	-0.064	-0.149
-64.378	-111.212	0.251	0.051
-63.363	800.000	0.039	0.111
-62.349	275.096	0.094	-0.164
-61.334	48.985	-0.872	-0.808
-60.319	-110.726	0.421	0.086
-59.305	800.000	0.217	-0.628
-58.290	258.211	0.569	0.967
-57.276	800.000	0.536	1.712
-56.261	-200.000	95.693	566.440
-55.246	650.769	1381.160	3489.870
-54.232	187.190	2607.137	3835.479
-53.217	116.910	2308.064	2796.001
-52.203	44.588	1921.973	1742.865
-51.188	38.103	1708.130	1499.302
-50.173	35.330	1662.850	1438.732
-49.159	52.236	1711.194	1609.554
-48.144	55.824	1729.021	1653.533
-47.130	37.781	1685.078	1476.392
-46.115	34.874	1669.824	1441.101
-45.100	34.770	1664.687	1435.830
-44.086	34.617	1662.737	1432.942
-43.071	34.662	1659.465	1430.402
-42.057	34.617	1657.213	1428.068
-41.042	34.619	1655.444	1426.500
-40.027	34.655	1653.602	1425.126
-39.013	34.657	1651.465	1423.242
-37.998	34.572	1650.171	1421.437
-36.984	34.730	1648.618	1421.221
-35.969	34.701	1647.243	1419.759
-34.954	34.911	1645.312	1419.601
-33.940	34.814	1643.586	1417.337
-32.925	34.784	1641.977	1415.672
-31.911	34.874	1639.801	1414.405
-30.896	34.775	1638.379	1412.385
-29.881	34.777	1636.862	1411.039
-28.867	34.772	1635.201	1409.511
-27.852	34.756	1633.357	1407.751
-26.838	34.735	1632.168	1406.516
-25.823	34.824	1630.611	1405.773
-24.809	34.869	1629.073	1404.725
-23.794	34.876	1627.393	1403.265
-22.779	34.792	1626.283	1401.636
-21.765	34.760	1624.896	1400.157
-20.750	34.746	1623.007	1398.371
-19.736	34.843	1621.524	1397.742
-18.721	34.896	1619.837	1396.626
-17.706	34.852	1618.276	1394.901
-16.692	34.765	1616.731	1392.877
-15.677	34.791	1614.953	1391.481
-14.663	34.892	1614.313	1391.612
-13.648	34.915	1611.856	1389.602
-12.633	34.810	1611.047	1388.088
-11.619	34.804	1609.772	1386.890
-10.604	34.834	1608.180	1385.682
-9.590	34.944	1606.362	1384.853
-8.575	34.849	1605.486	1383.358
-7.560	34.813	1604.163	1381.903
-6.546	34.804	1603.219	1380.971
-5.531	34.802	1602.018	1379.869
-4.517	34.848	1600.923	1379.200
-3.502	34.749	1600.651	1378.195
-2.487	34.885	1598.572	1377.330
-1.473	34.721	1587.085	1366.209
-0.458	32.263	1567.133	1331.595
0.556	30.738	1567.195	1295.228
1.571	27.683	1590.494	1292.748
2.586	26.384	1602.663	1293.239
3.600	22.892	1548.615	1225.339
4.615	14.150	1437.725	1080.934
5.629	6.399	1371.903	983.126
6.644	4.851	1363.071	967.107
7.659	4.748	1362.223	965.777
8.673	4.835	1360.955	965.333
9.688	4.946	1359.107	964.628
10.702	4.894	1356.979	962.707
11.717	8.552	1363.957	990.258
12.731	17.079	1379.277	1054.475
13.746	22.555	1386.970	1094.370
14.761	22.695	1386.490	1094.764
15.775	21.822	1384.485	1087.673
16.790	20.839	1381.546	1079.178
17.804	19.971	1379.337	1071.987
18.819	19.599	1378.535	1068.966
19.834	19.451	1376.598	1066.456
20.848	19.317	1375.596	1064.759
21.863	19.120	1374.482	1062.584
22.877	19.003	1373.383	1060.919
23.892	19.006	1372.789	1060.383
24.907	18.923	1371.434	1058.736
25.921	18.969	1370.374	1058.105
26.936	19.040	1369.940	1058.113
27.950	19.025	1369.064	1057.250
28.965	19.133	1368.147	1057.114
29.980	19.270	1366.804	1056.819
30.994	19.211	1366.192	1055.895
32.009	19.266	1365.157	1055.338
33.023	19.349	1363.717	1054.637
34.038	19.285	1361.953	1052.791
35.053	19.068	1360.826	1050.498
36.067	19.123	1359.719	1049.891
37.082	19.122	1359.112	1049.323
38.096	19.201	1358.136	1048.955
39.111	19.254	1357.089	1048.375
40.126	19.143	1356.448	1047.117
41.140	18.873	1355.226	1044.434
42.155	18.806	1354.306	1043.229
43.169	18.635	1354.954	1042.596
44.184	18.583	1354.639	1041.943
45.199	18.725	1354.117	1042.312
46.213	18.887	1353.620	1042.825
47.228	19.080	1352.474	1043.020
48.242	19.120	1351.329	1042.286
49.257	19.036	1350.014	1040.672
50.271	19.123	1348.464	1039.906
51.286	19.120	1347.225	1038.844
52.301	19.013	1346.094	1037.233
53.315	18.952	1344.947	1035.888
54.330	18.779	1344.008	1034.033
55.344	18.783	1342.727	1032.978
56.359	18.808	1341.546	1032.132
57.374	18.803	1340.641	1031.313
58.388	18.628	1340.250	1029.874
59.403	18.615	1339.633	1029.229
60.417	18.722	1338.798	1029.137
61.432	18.492	1337.916	1026.989
62.447	18.528	1336.939	1026.365
63.461	18.422	1335.465	1024.507
64.476	18.535	1334.595	1024.425
65.490	18.527	1333.250	1023.255
66.505	18.501	1331.498	1021.662
67.520	18.503	1330.601	1020.897
68.534	18.741	1329.014	1021.006
69.549	18.526	1328.877	1019.530
70.563	18.424	1328.214	1018.323
71.578	18.411	1326.708	1017.003
72.593	18.397	1325.520	1015.918
73.607	18.356	1325.092	1015.260
74.622	18.290	1324.440	1014.279
75.636	18.375	1323.653	1014.087
76.651	18.452	1322.937	1013.909
77.666	18.435	1322.538	1013.409
78.680	18.411	1322.818	1013.392
79.695	18.549	1321.539	1013.140
80.709	18.609	1320.897	1012.915
81.724	18.749	1320.047	1012.998
82.739	18.814	1319.483	1012.855
83.753	18.839	1318.998	1012.541
84.768	18.993	1317.935	1012.543
85.782	19.264	1316.898	1013.250
86.797	19.126	1315.466	1011.250
87.812	19.080	1314.084	1009.830
88.826	19.036	1313.369	1008.932
89.841	19.046	1312.419	1008.172
90.855	19.039	1311.748	1007.525
91.870	19.188	1310.726	1007.522
92.884	19.188	1309.961	1006.846
93.899	19.344	1308.793	1006.772
94.914	19.385	1308.405	1006.624
95.928	19.393	1306.991	1005.494
96.943	19.251	1306.542	1004.232
97.957	19.213	1305.322	1002.979
98.972	19.243	1304.262	1002.253
99.987	19.194	1303.222	1001.083
101.001	19.212	1302.377	1000.447
102.016	19.130	1301.849	999.477
103.030	19.165	1300.934	998.886
104.045	19.169	1299.837	997.983
105.060	19.084	1298.703	996.531
106.074	18.774	1296.922	993.282
107.089	18.701	1295.089	991.370
108.103	18.486	1294.155	989.328
109.118	18.489	1293.167	988.499
110.133	18.551	1291.259	987.314
111.147	18.644	1290.384	987.090
112.162	18.626	1288.976	985.822
113.176	18.756	1287.816	985.597
114.191	18.777	1287.383	985.298
115.206	18.718	1286.005	983.818
116.220	18.615	1285.077	982.432
117.235	18.760	1283.575	982.025
118.249	18.673	1282.189	980.380
119.264	18.547	1281.593	979.115
120.279	18.508	1280.077	977.651
121.293	18.511	1279.138	976.864
122.308	18.448	1278.469	975.906
123.322	18.478	1277.075	974.930
124.337	18.515	1275.839	974.110
125.352	18.413	1274.533	972.444
126.366	18.300	1273.891	971.227
127.381	18.394	1272.652	970.734
128.395	18.378	1271.796	969.900
129.410	18.462	1270.983	969.670
130.424	18.562	1269.998	969.400
131.439	18.668	1269.318	969.391
132.454	18.649	1268.743	968.759
133.468	18.791	1267.145	968.259
134.483	18.753	1267.112	967.932
135.497	18.721	1266.187	966.961
136.512	18.834	1264.579	966.282
137.527	18.757	1263.575	964.996
138.541	18.756	1262.116	963.790
139.556	18.889	1260.887	963.511
140.570	18.913	1260.147	962.996
141.585	19.008	1258.919	962.504
142.600	19.040	1257.939	961.848
143.614	19.205	1256.843	961.847
144.629	19.218	1255.954	961.152
145.643	19.139	1254.612	959.602
146.658	19.040	1253.365	958.013
147.673	18.953	1251.753	956.209
148.687	18.827	1250.636	954.574
149.702	18.698	1249.337	952.780
150.716	18.695	1247.800	951.505
151.731	18.735	1246.662	950.779
152.746	18.788	1245.651	950.214
153.760	18.893	1244.098	949.524
154.775	18.818	1243.402	948.497
155.789	18.890	1242.952	948.466
156.804	18.935	1241.669	947.652
157.819	19.065	1240.893	947.695
158.833	19.130	1239.953	947.247
159.848	19.233	1238.761	946.822
160.862	19.159	1238.191	945.893
161.877	19.089	1236.318	943.999
162.892	18.953	1234.908	942.088
163.906	18.819	1234.373	940.864
164.921	18.809	1233.573	940.115
165.935	18.958	1232.640	940.141
166.950	18.930	1232.468	939.769
167.964	19.041	1231.704	939.711
168.979	18.903	1230.666	938.081
169.994	18.899	1230.322	937.713
171.008	18.996	1229.509	937.541
172.023	19.076	1228.575	937.182
173.037	19.204	1228.007	937.362
174.052	19.197	1227.139	936.579
175.067	19.036	1225.210	934.152
176.081	18.739	1224.905	932.224
177.096	18.771	1224.037	931.655
178.110	18.865	1222.958	931.259
179.125	18.965	1221.740	930.788
180.140	18.948	1220.470	929.650
181.154	19.205	1219.249	930.023
182.169	19.177	1218.150	928.953
183.183	19.252	1217.076	928.458
184.198	19.300	1215.814	927.668
185.213	19.260	1215.250	926.941
186.227	19.379	1213.855	926.437
187.242	19.355	1213.140	925.679
188.256	19.383	1212.683	925.396
189.271	19.462	1211.420	924.776
190.286	19.349	1209.627	922.721
191.300	18.852	1209.032	919.525
192.315	18.749	1208.509	918.497
193.329	18.907	1206.978	918.096
194.344	18.871	1207.562	918.263
195.359	18.930	1207.113	918.158
196.373	19.124	1206.536	918.671
197.388	19.207	1206.057	918.671
198.402	19.466	1205.643	919.655
199.417	19.490	1205.166	919.337
200.432	19.592	1204.704	919.445
201.446	19.753	1203.548	919.339
202.461	19.768	1202.693	918.682
203.475	19.756	1201.980	917.994
204.490	19.622	1200.088	915.759
205.504	19.374	1198.946	913.493
206.519	19.359	1197.749	912.420
207.534	19.382	1196.992	911.885
208.548	19.447	1196.058	911.436
209.563	19.348	1195.329	910.274
210.577	19.467	1194.453	910.156
211.592	19.514	1193.471	909.576
212.607	19.748	1192.606	910.065
213.621	19.681	1192.367	909.453
214.636	19.606	1191.077	907.994
215.650	19.581	1190.154	907.078
216.665	19.708	1189.027	906.803
217.680	19.823	1188.413	906.860
218.694	19.848	1187.741	906.399
219.709	19.738	1187.190	905.319
220.723	19.832	1186.178	904.960
221.738	19.829	1185.024	903.983
222.753	19.685	1184.925	903.074
223.767	19.722	1184.159	902.608
224.782	19.958	1183.563	903.302
225.796	20.066	1182.621	903.068
226.811	20.054	1181.961	902.420
227.826	19.807	1181.092	900.392
228.840	19.705	1180.780	899.542
229.855	19.731	1179.598	898.700
230.869	19.913	1178.178	898.483
231.884	19.788	1177.930	897.564
232.899	19.666	1177.133	896.243
233.913	19.502	1176.455	894.799
234.928	19.542	1175.568	894.255
235.942	19.435	1175.012	893.199
236.957	19.544	1173.974	892.895
237.972	19.591	1173.267	892.518
238.986	19.497	1172.952	891.713
240.001	19.633	1171.654	891.348
241.015	19.646	1171.309	891.078
242.030	19.769	1170.280	890.850
243.045	19.766	1170.113	890.627
244.059	19.726	1169.263	889.694
245.074	19.855	1168.262	889.516
246.088	19.898	1167.452	889.045
247.103	20.007	1166.831	889.051
248.117	20.116	1165.932	888.847
249.132	20.279	1165.320	889.140
250.147	20.471	1164.861	889.694
251.161	20.444	1164.506	889.203
252.176	20.474	1164.078	888.953
253.190	20.669	1162.996	889.044
254.205	20.656	1162.859	888.792
255.220	20.644	1161.960	887.965
256.234	20.701	1161.289	887.664
257.249	20.673	1160.580	886.901
258.263	20.726	1159.671	886.398
259.278	20.530	1159.138	884.918
260.293	20.632	1158.898	885.172
261.307	20.689	1158.556	885.122
262.322	20.754	1157.807	884.802
263.336	20.790	1156.855	884.179
264.351	20.775	1156.475	883.736
265.366	20.720	1156.054	883.058
266.380	20.665	1155.293	882.118
267.395	20.819	1153.849	881.720
268.409	20.626	1153.161	880.137
269.424	20.542	1152.992	879.506
270.439	20.548	1152.296	878.928
271.453	20.497	1151.417	877.920
272.468	20.409	1150.152	876.433
273.482	20.482	1149.551	876.267
274.497	20.546	1149.090	876.163
275.512	20.493	1148.207	875.143
276.526	20.542	1147.406	874.703
277.541	20.562	1146.741	874.217
278.555	20.588	1145.886	873.620
279.570	20.774	1145.503	874.184
280.585	20.859	1144.797	873.997
281.599	21.004	1143.461	873.624
282.614	20.759	1143.013	871.978
283.628	20.523	1142.264	870.148
284.643	20.564	1141.266	869.514
285.657	20.756	1140.116	869.522
286.672	20.679	1138.950	868.171
287.687	20.641	1138.594	867.633
288.701	20.628	1137.740	866.840
289.716	20.812	1136.763	866.935
290.730	20.733	1136.061	865.928
291.745	20.725	1135.900	865.693
292.760	20.687	1135.231	864.914
293.774	20.947	1134.346	865.459
294.789	20.982	1133.786	865.128
295.803	20.947	1133.307	864.509
296.818	20.877	1132.303	863.319
297.833	20.666	1131.640	861.694
298.847	20.796	1130.700	861.545
299.862	20.858	1129.885	861.158
300.876	20.909	1129.206	860.814
301.891	20.894	1128.549	860.164
302.906	21.083	1127.951	860.564
303.920	21.190	1127.306	860.524
304.935	21.196	1126.990	860.234
305.949	21.276	1126.373	860.080
306.964	21.311	1125.649	859.622
307.979	21.131	1125.045	858.201
308.993	21.141	1124.153	857.496
310.008	21.202	1123.349	857.106
311.022	21.266	1122.786	856.912
312.037	21.214	1122.012	855.990
313.052	21.199	1120.615	854.778
314.066	21.007	1119.095	852.605
315.081	20.832	1118.583	851.284
316.095	20.851	1117.784	850.692
317.110	20.823	1117.497	850.263
318.125	20.920	1116.533	849.926
319.139	20.913	1115.473	849.009
320.154	20.856	1115.316	848.540
321.168	20.841	1114.478	847.751
322.183	20.902	1113.760	847.427
323.197	20.951	1113.300	847.239
324.212	21.084	1112.443	847.160
325.227	20.978	1112.414	846.548
326.241	21.051	1111.395	846.053
327.256	21.030	1110.620	845.285
328.270	21.057	1109.702	844.643
329.285	20.836	1109.325	843.209
330.300	20.934	1108.086	842.670
331.314	20.979	1107.514	842.377
332.329	20.955	1106.536	841.443
333.343	21.111	1105.327	841.202
334.358	21.204	1104.590	841.013
335.373	21.202	1104.367	840.759
336.387	21.245	1103.156	839.969
337.402	21.273	1102.757	839.726
338.416	21.423	1102.018	839.807
339.431	21.390	1101.558	839.225
340.446	21.541	1101.028	839.471
341.460	21.500	1100.679	838.936
342.475	21.652	1099.765	838.893
343.489	21.726	1098.712	838.368
344.504	21.870	1097.600	838.136
345.519	21.884	1096.940	837.622
346.533	21.905	1096.196	837.081
347.548	21.917	1095.445	836.489
348.562	21.761	1094.716	835.115
349.577	21.626	1093.787	833.691
350.592	21.516	1092.721	832.281
351.606	21.356	1091.866	830.799
352.621	21.371	1091.058	830.179
353.635	21.301	1090.501	829.350
354.650	21.316	1090.227	829.138
355.665	21.383	1089.071	828.505
356.679	21.537	1088.413	828.662
357.694	21.549	1088.347	828.596
358.708	21.554	1088.031	828.303
359.723	21.756	1087.028	828.420
360.738	21.535	1086.285	826.739
361.752	21.682	1085.578	826.822
362.767	21.667	1085.340	826.496
363.781	21.789	1084.236	826.155
364.796	21.882	1083.957	826.307
365.810	22.025	1083.392	826.477
366.825	21.995	1083.019	825.980
367.840	22.191	1082.599	826.509
368.854	22.196	1082.297	826.229
369.869	22.199	1081.730	825.733
370.883	22.041	1080.615	824.071
371.898	21.926	1079.702	822.763
372.913	21.939	1079.095	822.286
373.927	22.020	1078.775	822.349
374.942	22.236	1077.823	822.564
375.956	22.120	1077.739	821.882
376.971	22.151	1076.782	821.224
377.986	22.085	1076.498	820.628
379.000	22.252	1076.027	820.977
380.015	22.314	1075.710	820.949
381.029	22.338	1075.187	820.590
382.044	22.429	1074.148	820.149
383.059	22.293	1073.316	818.809
384.073	22.428	1072.325	818.608
385.088	22.288	1071.856	817.527
386.102	22.339	1070.570	816.708
387.117	22.145	1069.534	814.948
388.132	22.069	1068.320	813.600
389.146	22.082	1067.787	813.179
390.161	21.979	1067.234	812.210
391.175	22.036	1066.324	811.712
392.190	22.214	1065.686	811.977
393.205	22.310	1065.407	812.132
394.219	22.365	1063.985	811.232
395.234	22.246	1063.356	810.131
396.248	22.072	1062.486	808.596
397.263	22.119	1061.257	807.803
398.278	22.054	1060.527	806.880
399.292	21.960	1059.614	805.683
400.307	21.865	1058.944	804.663
401.321	22.029	1058.223	804.800
402.336	21.800	1058.314	803.747
403.350	21.931	1057.432	803.608
404.365	22.009	1056.806	803.415
405.380	22.169	1055.737	803.261
406.394	22.248	1054.896	802.914
407.409	22.381	1054.610	803.231
408.423	22.455	1053.710	802.810
409.438	22.486	1053.351	802.610
410.453	22.554	1052.553	802.238
411.467	22.684	1051.554	802.000
412.482	22.673	1051.084	801.520
413.496	22.632	1050.739	801.000
414.511	22.781	1050.080	801.101
415.526	22.784	1050.081	801.046
416.540	22.906	1049.852	801.353
417.555	22.873	1048.745	800.287
418.569	22.761	1048.241	799.326
419.584	22.732	1047.600	798.636
420.599	22.659	1047.178	797.912
421.613	154.258	1399.953	1787.815
422.628	141.435	1451.342	1787.912
