DTS Sentinel unit serial number:	SN413079Multiplexer serial number:	ORYXHardware model number:	OX4-SRSoftware version number:	ORYX F/W v4.00 Oryx Data Collector v3.7.2.0data status	okinstallation	princeton_trtdifferential loss correction	single-endedforward channel	channel 2reverse channel	N/Adate	2019/09/14time	19:43:35forward acquisition time	60.00reverse acquisition time	0.00gamma	496.2192k internal	0.2320k external	0.2320temperature offset calibration	1.0096default loss term (dB/km)	0.3790temperature slope calibration	1.0000multiplexer offset coefficient	1.0000multiplexer slope coefficient	1.0000fibre end	0.00T internal ref (°C)	34.44T ext. ref 1 (°C)	4.88T ext. ref 2 (°C)	28.66length (m)	temperature (°C)	Stokes	anti-Stokes-747.200	-42.240	-0.169	0.087
-746.185	79.729	0.229	0.249
-745.171	40.507	0.162	0.147
-744.156	43.866	-0.174	-0.161
-743.142	365.957	0.143	-0.292
-742.127	-40.740	-0.309	0.162
-741.112	-200.000	0.005	0.142
-740.098	128.846	-0.187	0.241
-739.083	377.740	-0.100	-0.206
-738.069	-93.623	-0.119	-0.033
-737.054	-141.410	0.081	0.008
-736.039	92.185	0.058	-0.066
-735.025	-200.000	0.010	-0.132
-734.010	74.003	-0.234	-0.248
-732.996	800.000	-0.022	-0.078
-731.981	403.248	0.097	-0.206
-730.966	-108.426	-0.078	0.017
-729.952	-200.000	-0.033	-0.230
-728.937	-176.207	0.182	-0.005
-727.923	99.595	0.023	0.027
-726.908	-21.144	-0.298	0.184
-725.894	800.000	-0.021	0.065
-724.879	-200.000	0.019	0.191
-723.864	20.914	-0.144	0.118
-722.850	-47.577	0.321	0.157
-721.835	-20.131	-0.354	-0.220
-720.821	-200.000	-0.064	-0.331
-719.806	-167.417	0.268	0.011
-718.791	52.963	0.103	0.099
-717.777	800.000	-0.062	0.233
-716.762	140.547	0.144	-0.193
-715.748	800.000	-0.193	-0.549
-714.733	108.572	0.056	0.068
-713.718	-32.492	-0.139	0.078
-712.704	800.000	-0.049	0.141
-711.689	-13.544	-0.253	0.165
-710.675	-200.000	-0.001	-0.065
-709.660	-74.651	-0.097	0.035
-708.645	-88.880	0.175	0.053
-707.631	53.216	-0.141	0.136
-706.616	-200.000	0.029	0.150
-705.602	173.972	-0.186	0.271
-704.587	473.842	-0.079	-0.181
-703.572	800.000	-0.021	0.071
-702.558	-200.000	0.007	-0.065
-701.543	202.412	-0.261	-0.407
-700.529	-200.000	-0.025	-0.202
-699.514	-200.000	0.032	-0.258
-698.499	565.833	0.129	-0.315
-697.485	-139.348	-0.455	-0.049
-696.470	800.000	-0.030	-0.117
-695.456	-140.794	-0.135	-0.014
-694.441	-200.000	0.001	0.094
-693.426	-60.470	-0.372	-0.159
-692.412	-66.387	-0.165	0.066
-691.397	-200.000	-0.008	0.054
-690.383	-200.000	-0.030	-0.215
-689.368	-200.000	-0.033	-0.238
-688.354	-200.000	-0.010	0.049
-687.339	-200.000	-0.015	-0.232
-686.324	800.000	0.072	-0.222
-685.310	-180.053	-0.151	-0.003
-684.295	-55.460	-0.255	-0.115
-683.281	11.683	-0.112	-0.087
-682.266	-125.518	0.128	0.020
-681.251	-96.954	0.161	-0.042
-680.237	123.713	-0.188	0.238
-679.222	27.085	-0.238	0.201
-678.208	128.403	-0.188	0.242
-677.193	-200.000	-0.063	-0.285
-676.178	5.062	-0.056	-0.041
-675.164	-200.000	-0.051	-0.325
-674.149	-159.616	-0.317	-0.018
-673.135	-155.357	0.233	-0.015
-672.120	-200.000	0.009	-0.393
-671.105	800.000	0.046	0.200
-670.091	800.000	0.061	-0.176
-669.076	800.000	0.081	-0.253
-668.062	-200.000	-0.020	-0.205
-667.047	800.000	-0.048	-0.189
-666.032	-0.170	0.195	0.140
-665.018	-200.000	0.071	-0.336
-664.003	60.438	-0.191	0.190
-662.989	-163.148	0.337	0.016
-661.974	373.554	-0.097	0.200
-660.959	143.705	0.136	-0.183
-659.945	215.740	-0.051	0.082
-658.930	800.000	-0.063	-0.248
-657.916	800.000	0.091	-0.313
-656.901	252.067	-0.048	-0.083
-655.886	206.970	-0.110	-0.173
-654.872	5.898	-0.045	-0.033
-653.857	479.443	-0.053	-0.122
-652.843	5.345	-0.414	-0.308
-651.828	63.178	0.212	-0.214
-650.814	-118.822	0.249	-0.044
-649.799	-200.000	-0.009	-0.258
-648.784	-94.118	-0.171	-0.047
-647.770	-49.147	0.190	-0.092
-646.755	-192.354	0.176	0.002
-645.741	-200.000	-0.017	0.393
-644.726	10.295	-0.210	0.161
-643.711	-200.000	0.094	0.485
-642.697	91.312	0.155	-0.176
-641.682	-111.232	-0.143	0.029
-640.668	413.962	0.085	0.182
-639.653	-200.000	-0.014	-0.147
-638.638	35.139	-0.090	0.079
-637.624	-134.537	0.163	-0.020
-636.609	3.671	-0.309	-0.227
-635.595	-165.666	0.543	-0.024
-634.580	253.989	0.155	-0.266
-633.565	22.977	0.164	-0.135
-632.551	658.150	0.013	-0.035
-631.536	352.071	-0.060	-0.121
-630.522	800.000	0.080	0.254
-629.507	-40.235	-0.247	-0.129
-628.492	-38.031	-0.179	-0.096
-627.478	800.000	-0.012	0.034
-626.463	-111.516	-0.392	-0.080
-625.449	191.101	0.188	-0.285
-624.434	-159.805	0.040	-0.002
-623.419	-200.000	0.015	-0.313
-622.405	-200.000	0.018	0.365
-621.390	317.777	0.130	-0.248
-620.376	207.079	-0.112	0.176
-619.361	-60.459	-0.255	0.109
-618.346	27.884	-0.223	-0.189
-617.332	-161.757	-0.242	0.012
-616.317	24.480	0.130	0.108
-615.303	-200.000	-0.011	-0.395
-614.288	-200.000	0.039	-0.184
-613.273	-62.379	-0.044	0.018
-612.259	-200.000	-0.011	-0.175
-611.244	-20.080	-0.123	0.076
-610.230	-200.000	0.016	0.159
-609.215	-25.570	-0.126	0.075
-608.201	-64.385	0.276	0.113
-607.186	335.242	-0.029	0.057
-606.171	224.301	0.120	-0.194
-605.157	110.105	0.174	-0.210
-604.142	-12.416	-0.210	0.138
-603.128	170.404	0.086	-0.124
-602.113	-94.340	0.071	-0.020
-601.098	29.241	0.071	0.061
-600.084	47.918	0.167	0.157
-599.069	800.000	0.076	0.291
-598.055	-26.523	0.156	-0.092
-597.040	800.000	0.025	0.099
-596.025	800.000	0.056	-0.158
-595.011	-2.638	-0.198	0.139
-593.996	31.151	0.300	0.258
-592.982	-200.000	-0.008	-0.161
-591.967	-104.767	-0.402	0.093
-590.952	410.279	-0.055	0.116
-589.938	-70.628	0.240	-0.091
-588.923	-200.000	-0.022	0.242
-587.909	75.231	-0.123	-0.130
-586.894	-109.866	-0.106	-0.022
-585.879	-24.793	-0.425	-0.254
-584.865	90.240	0.207	-0.233
-583.850	-136.426	0.185	-0.022
-582.836	-46.340	-0.162	-0.080
-581.821	85.373	0.115	-0.127
-580.806	-200.000	0.003	0.389
-579.792	358.464	0.032	-0.063
-578.777	-175.804	0.267	-0.007
-577.763	-163.076	0.194	0.009
-576.748	-105.693	-0.116	-0.026
-575.733	-72.466	-0.081	0.030
-574.719	105.287	0.198	0.235
-573.704	253.560	-0.115	-0.197
-572.690	-200.000	-0.002	-0.144
-571.675	-98.943	0.145	-0.037
-570.661	448.255	-0.101	-0.223
-569.646	-183.628	-0.222	-0.004
-568.631	62.137	-0.115	0.115
-567.617	-16.431	0.207	0.132
-566.602	-124.860	-0.462	-0.072
-565.588	-87.077	0.440	0.135
-564.573	-162.439	-0.193	0.010
-563.558	-200.000	0.009	0.159
-562.544	123.008	0.128	0.161
-561.529	316.040	-0.080	0.151
-560.515	-81.058	0.317	0.105
-559.500	-200.000	-0.019	-0.357
-558.485	56.028	0.174	-0.170
-557.471	97.533	0.156	0.179
-556.456	-5.113	-0.065	-0.045
-555.442	-96.704	0.383	0.101
-554.427	-176.444	-0.265	-0.007
-553.412	147.893	0.136	0.185
-552.398	147.956	-0.154	0.208
-551.383	-114.519	-0.231	-0.045
-550.369	53.304	-0.123	0.118
-549.354	-200.000	0.023	0.227
-548.339	273.563	0.124	0.220
-547.325	-73.565	-0.216	0.079
-546.310	-136.907	0.361	0.042
-545.296	800.000	-0.019	-0.056
-544.281	-174.113	0.191	0.006
-543.266	108.119	0.054	0.065
-542.252	-113.542	0.419	-0.082
-541.237	-200.000	-0.028	-0.175
-540.223	-74.589	-0.096	-0.035
-539.208	-200.000	0.005	0.163
-538.193	-123.326	-0.339	-0.054
-537.179	-122.276	-0.115	0.019
-536.164	61.588	0.174	-0.174
-535.150	-200.000	0.027	0.274
-534.135	-78.653	-0.084	-0.029
-533.121	-88.986	-0.179	0.053
-532.106	-200.000	-0.006	0.162
-531.091	202.923	-0.127	-0.197
-530.077	213.057	-0.234	0.370
-529.062	-200.000	-0.014	0.119
-528.048	-96.880	0.197	-0.052
-527.033	284.582	0.063	-0.113
-526.018	-124.107	0.207	0.033
-525.004	138.075	-0.020	0.026
-523.989	-120.738	-0.242	-0.041
-522.975	0.525	-0.360	0.258
-521.960	-122.355	0.127	0.021
-520.945	-27.618	-0.092	0.054
-519.931	180.718	0.147	0.217
-518.916	-2.328	-0.256	-0.180
-517.902	800.000	0.140	-0.428
-516.887	800.000	-0.058	-0.208
-515.872	-200.000	0.016	-0.084
-514.858	-4.751	0.167	-0.115
-513.843	8.247	-0.072	0.054
-512.829	-133.016	0.569	0.072
-511.814	-200.000	-0.009	-0.052
-510.799	-94.473	0.304	-0.083
-509.785	-14.173	-0.118	0.076
-508.770	-7.298	-0.149	0.101
-507.756	127.289	-0.085	0.108
-506.741	192.157	-0.197	-0.298
-505.726	-200.000	0.043	0.322
-504.712	544.334	0.014	0.034
-503.697	-50.056	-0.204	-0.097
-502.683	143.883	0.039	-0.052
-501.668	204.952	0.122	-0.190
-500.653	433.408	-0.130	-0.282
-499.639	244.084	-0.154	-0.259
-498.624	70.592	-0.037	0.038
-497.610	577.683	-0.162	0.397
-496.595	800.000	0.002	-0.007
-495.581	-56.154	0.342	-0.153
-494.566	-84.416	-0.158	0.050
-493.551	5.691	-0.050	-0.037
-492.537	108.965	0.148	-0.177
-491.522	-31.943	0.166	-0.093
-490.508	253.486	-0.240	0.410
-489.493	-200.000	0.024	-0.160
-488.478	132.621	0.033	0.043
-487.464	-114.263	-0.130	-0.025
-486.449	163.782	0.215	-0.303
-485.435	-114.618	0.132	-0.025
-484.420	156.909	0.248	0.343
-483.405	-200.000	-0.079	0.421
-482.391	-67.221	-0.148	-0.058
-481.376	-112.068	0.418	0.084
-480.362	-45.849	0.066	0.033
-479.347	591.414	0.042	-0.103
-478.332	282.163	-0.135	-0.242
-477.318	-30.589	0.117	-0.066
-476.303	-200.000	0.052	-0.281
-475.289	-19.471	0.150	-0.093
-474.274	36.178	0.108	-0.095
-473.259	280.741	-0.028	-0.050
-472.245	-115.402	-0.064	-0.012
-471.230	-200.000	0.019	0.214
-470.216	800.000	0.083	-0.277
-469.201	-200.000	-0.009	0.047
-468.186	202.737	0.250	-0.386
-467.172	3.127	0.183	0.133
-466.157	-31.932	0.020	-0.011
-465.143	-200.000	-0.037	0.265
-464.128	52.085	-0.037	-0.035
-463.113	-13.875	-0.182	-0.118
-462.099	-200.000	-0.024	-0.338
-461.084	800.000	0.119	-0.331
-460.070	6.636	0.082	-0.061
-459.055	-159.106	0.269	-0.015
-458.040	-119.677	-0.172	-0.030
-457.026	278.369	0.146	-0.260
-456.011	800.000	-0.108	0.357
-454.997	650.115	0.085	-0.218
-453.982	-200.000	0.019	-0.247
-452.968	119.336	0.041	0.051
-451.953	580.662	0.106	0.260
-450.938	-62.021	0.161	-0.067
-449.924	-200.000	0.029	-0.582
-448.909	-70.592	0.285	0.108
-447.895	-164.136	-0.260	-0.012
-446.880	800.000	-0.039	0.129
-445.865	-120.677	-0.127	-0.022
-444.851	691.399	-0.063	0.166
-443.836	436.406	-0.025	-0.053
-442.822	-200.000	-0.029	0.183
-441.807	12.100	0.083	-0.064
-440.792	392.136	0.049	0.101
-439.778	199.977	-0.205	-0.314
-438.763	-48.881	-0.186	-0.089
-437.749	11.332	-0.012	-0.009
-436.734	15.102	-0.224	0.175
-435.719	800.000	-0.028	-0.081
-434.705	14.848	-0.210	0.165
-433.690	65.004	0.158	0.159
-432.676	46.995	-0.090	-0.083
-431.661	-143.847	0.167	0.016
-430.646	-50.565	-0.360	0.170
-429.632	367.919	-0.029	0.059
-428.617	398.363	-0.039	-0.082
-427.603	-116.975	0.253	0.046
-426.588	800.000	-0.050	-0.153
-425.573	139.279	0.119	0.156
-424.559	-7.933	0.164	0.110
-423.544	-91.825	-0.114	0.032
-422.530	183.817	-0.091	-0.134
-421.515	800.000	0.011	-0.046
-420.500	107.547	-0.226	0.268
-419.486	-131.998	-0.152	0.020
-418.471	-98.586	-0.167	0.043
-417.457	-10.148	-0.154	-0.102
-416.442	194.781	0.088	-0.134
-415.428	23.111	-0.319	0.261
-414.413	79.323	0.072	0.077
-413.398	-60.994	-0.174	-0.073
-412.384	-104.543	0.086	-0.020
-411.369	45.929	0.143	-0.132
-410.355	297.430	-0.030	-0.056
-409.340	-13.531	-0.283	0.183
-408.325	202.690	0.211	0.325
-407.311	-8.790	-0.169	-0.113
-406.296	-156.534	0.317	-0.020
-405.282	-114.041	-0.094	0.018
-404.267	-10.235	-0.318	-0.211
-403.252	27.000	0.091	-0.076
-402.238	20.185	-0.293	-0.236
-401.223	326.943	-0.016	0.030
-400.209	-73.850	-0.186	0.067
-399.194	-71.451	-0.091	-0.034
-398.179	-30.970	0.173	-0.097
-397.165	-200.000	0.011	-0.063
-396.150	-110.244	-0.143	0.030
-395.136	203.163	0.066	0.102
-394.121	365.511	-0.047	0.095
-393.106	-173.243	0.409	-0.012
-392.092	-176.592	0.037	-0.001
-391.077	800.000	0.087	-0.333
-390.063	800.000	-0.095	-0.291
-389.048	-21.533	-0.357	0.217
-388.033	-18.168	-0.032	0.020
-387.019	-1.521	0.262	-0.184
-386.004	18.549	-0.088	-0.070
-384.990	471.354	-0.129	-0.290
-383.975	-24.211	-0.178	-0.106
-382.960	74.804	0.155	0.162
-381.946	-200.000	0.042	-0.383
-380.931	-97.781	-0.140	-0.036
-379.917	-200.000	0.240	0.000
-378.902	800.000	-0.075	0.282
-377.888	800.000	-0.152	0.467
-376.873	-200.000	0.017	-0.218
-375.858	528.697	0.047	0.110
-374.844	-141.762	0.196	-0.020
-373.829	290.769	-0.022	0.040
-372.815	-200.000	-0.001	-0.239
-371.800	228.167	0.086	-0.140
-370.785	206.098	-0.176	0.273
-369.771	281.748	-0.091	-0.162
-368.756	-200.000	0.171	0.001
-367.742	684.659	-0.111	0.287
-366.727	10.196	-0.155	-0.117
-365.712	-146.514	-0.148	0.013
-364.698	74.140	0.172	-0.180
-363.683	800.000	0.152	-0.422
-362.669	-8.353	0.279	0.187
-361.654	-156.813	0.149	0.009
-360.639	40.853	-0.233	0.210
-359.625	-45.816	-0.205	0.101
-358.610	-200.000	-0.056	0.257
-357.596	431.750	-0.167	0.360
-356.581	321.587	-0.173	0.327
-355.566	134.705	0.063	0.082
-354.552	-18.913	0.192	0.119
-353.537	151.616	-0.189	-0.256
-352.523	207.147	0.311	0.483
-351.508	-93.723	-0.147	-0.040
-350.493	-74.077	-0.268	0.097
-349.479	85.528	0.172	-0.188
-348.464	-46.556	-0.126	0.062
-347.450	228.670	0.063	-0.102
-346.435	205.144	0.087	-0.134
-345.420	456.533	0.085	-0.188
-344.406	-119.249	0.158	-0.027
-343.391	45.639	-0.131	0.120
-342.377	145.115	0.134	-0.178
-341.362	-55.984	-0.290	0.129
-340.348	23.236	0.219	-0.179
-339.333	97.591	0.127	-0.145
-338.318	32.103	-0.067	-0.057
-337.304	349.019	0.144	0.284
-336.289	-52.761	-0.068	0.031
-335.275	800.000	0.065	-0.268
-334.260	-177.975	-0.268	-0.006
-333.245	-200.000	-0.007	-0.174
-332.231	197.561	0.191	-0.289
-331.216	-140.624	0.211	0.022
-330.202	-46.744	0.167	-0.082
-329.187	800.000	0.057	-0.171
-328.172	-200.000	0.006	0.069
-327.158	108.229	-0.086	-0.102
-326.143	-200.000	-0.064	-0.310
-325.129	55.323	-0.022	0.021
-324.114	78.519	-0.457	0.486
-323.099	800.000	-0.037	0.157
-322.085	-150.267	0.327	0.025
-321.070	-131.009	-0.154	0.020
-320.056	-200.000	-0.020	0.302
-319.041	-131.329	0.244	-0.032
-318.026	0.899	0.250	0.178
-317.012	-48.612	-0.262	-0.125
-315.997	-200.000	0.031	0.174
-314.983	140.083	-0.118	-0.155
-313.968	395.349	0.099	-0.206
-312.953	800.000	-0.096	0.404
-311.939	-200.000	-0.025	0.320
-310.924	-10.931	-0.087	0.057
-309.910	-172.892	0.263	-0.008
-308.895	800.000	0.062	0.195
-307.880	-72.734	-0.250	0.092
-306.866	174.832	-0.081	-0.117
-305.851	218.079	-0.048	0.076
-304.837	800.000	-0.102	-0.288
-303.822	-200.000	-0.000	-0.373
-302.807	145.508	-0.178	-0.237
-301.793	-200.000	0.011	-0.156
-300.778	-88.167	-0.264	-0.078
-299.764	-33.926	0.602	0.329
-298.749	800.000	0.098	0.344
-297.735	309.624	0.060	0.111
-296.720	-131.442	-0.221	0.029
-295.705	-200.000	-0.014	-0.124
-294.691	80.536	0.090	-0.096
-293.676	-16.119	0.170	-0.108
-292.662	-200.000	0.026	0.138
-291.647	-200.000	0.016	0.242
-290.632	432.429	0.145	0.313
-289.618	273.986	-0.134	-0.236
-288.603	800.000	0.042	-0.179
-287.589	-0.206	-0.265	-0.187
-286.574	-139.832	-0.087	0.009
-285.559	-200.000	0.021	0.116
-284.545	-53.423	-0.170	-0.077
-283.530	800.000	0.044	0.187
-282.516	-51.268	0.169	-0.079
-281.501	106.305	-0.109	-0.128
-280.486	-116.339	0.172	-0.032
-279.472	-104.172	0.340	-0.078
-278.457	360.627	0.127	0.253
-277.443	121.660	-0.159	0.197
-276.428	330.496	-0.260	0.498
-275.413	800.000	-0.088	0.298
-274.399	-52.736	0.077	0.035
-273.384	-78.374	-0.170	0.058
-272.370	-200.000	-0.002	0.054
-271.355	-131.077	0.288	-0.038
-270.340	-200.000	-0.066	-0.328
-269.326	-96.778	-0.257	-0.067
-268.311	-200.000	-0.025	0.132
-267.297	-200.000	0.038	-0.223
-266.282	343.413	-0.062	0.120
-265.267	-18.580	-0.278	0.172
-264.253	-57.791	-0.414	-0.180
-263.238	581.511	0.014	-0.035
-262.224	-3.083	-0.155	0.107
-261.209	800.000	0.088	-0.365
-260.195	267.609	-0.046	0.080
-259.180	-200.000	-0.043	-0.224
-258.165	-137.315	-0.088	0.010
-257.151	-86.105	-0.097	-0.030
-256.136	-91.873	0.191	-0.054
-255.122	-47.849	-0.242	-0.116
-254.107	-95.255	0.108	-0.029
-253.092	70.100	-0.201	-0.206
-252.078	81.836	0.068	-0.073
-251.063	800.000	-0.029	0.083
-250.049	-200.000	-0.012	-0.221
-249.034	-84.187	0.027	-0.009
-248.019	-200.000	-0.010	0.171
-247.005	77.648	-0.299	0.316
-245.990	87.684	-0.141	0.155
-244.976	-70.677	-0.110	0.041
-243.961	-200.000	0.181	0.000
-242.946	-86.543	-0.328	-0.100
-241.932	-200.000	0.013	-0.088
-240.917	800.000	-0.095	0.344
-239.903	-200.000	-0.037	-0.170
-238.888	448.705	0.104	-0.228
-237.873	20.294	0.260	-0.208
-236.859	-75.298	0.104	-0.037
-235.844	104.705	0.039	-0.046
-234.830	292.380	0.178	-0.322
-233.815	72.207	0.234	0.242
-232.800	191.434	0.262	-0.392
-231.786	-3.091	-0.200	0.138
-230.771	444.732	-0.028	0.062
-229.757	238.023	0.140	-0.230
-228.742	-167.341	-0.079	0.003
-227.727	-200.000	0.036	-0.206
-226.713	800.000	0.070	-0.288
-225.698	-61.184	0.363	-0.152
-224.684	800.000	-0.074	0.271
-223.669	718.833	-0.152	0.399
-222.655	-200.000	-0.048	0.229
-221.640	677.209	-0.069	-0.179
-220.625	-153.677	0.276	-0.019
-219.611	247.458	0.053	0.088
-218.596	-157.223	0.151	0.009
-217.582	206.918	0.155	-0.239
-216.567	-86.492	0.072	-0.022
-215.552	-0.391	0.048	-0.034
-214.538	-200.000	0.030	0.214
-213.523	-189.965	-0.181	0.002
-212.509	23.731	-0.123	0.100
-211.494	-49.493	0.062	0.029
-210.479	-12.582	0.306	0.198
-209.465	518.226	-0.115	0.267
-208.450	-200.000	-0.025	0.183
-207.436	-43.937	0.353	-0.176
-206.421	0.447	0.086	-0.061
-205.406	-58.755	-0.254	0.109
-204.392	-21.405	0.319	0.193
-203.377	-200.000	0.024	0.132
-202.363	-124.568	-0.391	-0.060
-201.348	-89.231	0.481	-0.140
-200.333	-200.000	-0.008	0.100
-199.319	-67.794	0.178	0.069
-198.304	-75.681	0.106	-0.037
-197.290	131.768	0.216	0.275
-196.275	361.321	-0.224	0.445
-195.260	800.000	-0.056	-0.190
-194.246	-90.292	0.246	0.071
-193.231	-39.964	-0.361	-0.187
-192.217	800.000	0.066	0.225
-191.202	800.000	-0.159	0.477
-190.187	27.023	-0.078	0.065
-189.173	-72.340	-0.117	-0.043
-188.158	184.673	-0.232	-0.341
-187.144	3.967	0.144	0.105
-186.129	38.247	0.146	-0.128
-185.114	800.000	-0.024	-0.092
-184.100	-149.639	0.237	0.018
-183.085	-5.166	0.129	-0.088
-182.071	-44.250	-0.253	-0.126
-181.056	204.079	-0.150	-0.229
-180.042	-143.968	-0.269	0.025
-179.027	-200.000	0.033	0.190
-178.012	-200.000	0.006	0.297
-176.998	121.202	-0.129	-0.158
-175.983	-116.912	-0.165	0.030
-174.969	-200.000	0.004	-0.219
-173.954	-200.000	0.005	0.108
-172.939	313.093	0.101	-0.187
-171.925	48.753	-0.236	-0.219
-170.910	800.000	0.120	0.415
-169.896	-200.000	0.005	0.184
-168.881	-1.683	-0.176	-0.123
-167.866	214.174	0.192	-0.300
-166.852	313.623	-0.096	0.179
-165.837	-200.000	0.015	0.247
-164.823	-120.112	-0.168	0.028
-163.808	-181.889	0.364	0.007
-162.793	-200.000	0.091	-0.442
-161.779	-200.000	0.038	0.211
-160.764	-128.215	0.086	-0.012
-159.750	-32.991	-0.239	-0.131
-158.735	-150.611	-0.408	0.031
-157.720	-85.717	0.311	0.095
-156.706	537.062	0.206	0.484
-155.691	213.835	-0.101	-0.158
-154.677	248.242	-0.068	-0.114
-153.662	200.622	-0.084	0.127
-152.647	-88.955	0.359	-0.105
-151.633	-108.322	-0.049	0.010
-150.618	435.528	0.122	-0.263
-149.604	89.405	0.032	0.035
-148.589	410.006	-0.121	0.253
-147.574	759.050	-0.034	-0.090
-146.560	-83.142	-0.266	0.084
-145.545	800.000	0.075	0.236
-144.531	445.251	-0.097	0.210
-143.516	56.113	-0.193	-0.185
-142.502	368.029	0.030	0.061
-141.487	-22.523	0.123	-0.074
-140.472	-103.557	0.368	0.085
-139.458	-200.000	0.020	-0.158
-138.443	69.497	0.218	-0.222
-137.429	-200.000	0.009	0.236
-136.414	-130.490	0.141	-0.019
-135.399	-40.901	0.509	0.260
-134.385	-200.000	0.025	0.122
-133.370	343.560	0.188	-0.364
-132.356	290.653	-0.068	0.122
-131.341	610.517	0.115	-0.283
-130.326	-60.595	0.079	0.033
-129.312	4.024	-0.085	-0.061
-128.297	-90.683	-0.109	0.031
-127.283	-13.724	0.370	-0.236
-126.268	-200.000	0.050	0.302
-125.253	100.307	0.133	-0.152
-124.239	-37.127	-0.181	0.096
-123.224	400.596	0.053	0.109
-122.210	-200.000	-0.021	0.398
-121.195	-200.000	0.067	0.311
-120.180	-4.507	-0.141	0.096
-119.166	138.572	-0.094	-0.122
-118.151	800.000	0.128	0.386
-117.137	182.146	0.118	0.172
-116.122	800.000	-0.077	0.263
-115.107	-168.714	-0.267	0.010
-114.093	-37.471	-0.196	0.103
-113.078	-81.123	-0.313	-0.102
-112.064	177.151	-0.116	0.166
-111.049	-80.814	-0.415	0.136
-110.034	27.463	0.135	0.112
-109.020	-200.000	-0.034	0.154
-108.005	793.097	0.058	-0.159
-106.991	23.677	-0.108	0.087
-105.976	800.000	0.037	-0.158
-104.962	2.375	-0.163	-0.116
-103.947	-141.045	0.424	-0.043
-102.932	-59.724	-0.139	-0.059
-101.918	-70.408	0.172	0.064
-100.903	140.374	0.207	-0.269
-99.889	-200.000	-0.006	0.048
-98.874	129.074	0.209	0.262
-97.859	-70.308	-0.156	0.058
-96.845	0.243	0.078	-0.055
-95.830	-36.797	-0.202	-0.107
-94.816	111.873	-0.250	-0.297
-93.801	-107.793	0.285	0.061
-92.786	-135.348	0.122	-0.014
-91.772	-130.000	0.106	-0.014
-90.757	-118.419	0.333	0.058
-89.743	-23.779	0.131	-0.077
-88.728	-94.917	-0.213	0.057
-87.713	800.000	-0.061	0.186
-86.699	348.239	-0.218	0.423
-85.684	224.867	-0.125	-0.200
-84.670	14.172	0.121	-0.093
-83.655	104.953	0.208	0.241
-82.640	-200.000	-0.038	-0.261
-81.626	-30.501	-0.153	0.086
-80.611	-46.164	0.244	0.118
-79.597	-51.531	0.213	0.098
-78.582	-93.386	-0.128	0.035
-77.567	51.434	0.225	0.210
-76.553	81.463	0.119	-0.127
-75.538	86.789	0.108	-0.118
-74.524	-5.036	-0.246	0.167
-73.509	234.148	0.174	0.282
-72.494	702.854	0.117	-0.303
-71.480	-96.998	-0.140	0.036
-70.465	109.077	-0.177	0.208
-69.451	-78.953	-0.105	-0.035
-68.436	-24.492	0.082	-0.048
-67.422	635.825	-0.145	-0.362
-66.407	8.677	-0.109	0.081
-65.392	184.583	-0.175	-0.255
-64.378	678.087	-0.084	0.215
-63.363	-2.417	0.305	0.211
-62.349	60.172	0.115	0.112
-61.334	104.606	-0.866	-1.005
-60.319	316.001	0.435	0.809
-59.305	-200.000	-0.215	-1.052
-58.290	800.000	0.432	1.509
-57.276	431.331	0.791	1.688
-56.261	-200.000	97.983	582.431
-55.246	640.387	1396.130	3497.752
-54.232	190.068	2597.847	3838.192
-53.217	114.706	2286.490	2743.263
-52.203	43.799	1903.653	1715.399
-51.188	37.670	1694.219	1480.204
-50.173	34.926	1650.138	1421.282
-49.159	52.605	1698.358	1596.372
-48.144	55.831	1715.033	1636.241
-47.130	37.351	1672.797	1458.862
-46.115	34.531	1657.457	1424.409
-45.100	34.371	1652.809	1419.167
-44.086	34.272	1650.281	1416.199
-43.071	34.264	1647.611	1413.797
-42.057	34.295	1645.439	1412.108
-41.042	34.307	1643.283	1410.287
-40.027	34.254	1641.615	1408.406
-39.013	34.281	1639.037	1406.340
-37.998	34.217	1638.127	1405.033
-36.984	34.336	1636.066	1404.082
-35.969	34.425	1634.780	1403.580
-34.954	34.528	1632.867	1402.643
-33.940	34.478	1631.032	1400.642
-32.925	34.501	1629.258	1399.232
-31.911	34.462	1627.479	1397.365
-30.896	34.411	1626.065	1395.716
-29.881	34.440	1624.373	1394.422
-28.867	34.437	1622.406	1392.654
-27.852	34.417	1621.601	1391.763
-26.838	34.460	1619.685	1390.377
-25.823	34.371	1618.401	1388.575
-24.809	34.463	1617.348	1388.282
-23.794	34.462	1615.796	1386.890
-22.779	34.475	1613.835	1385.242
-21.765	34.425	1612.595	1383.762
-20.750	34.413	1611.340	1382.549
-19.736	34.473	1609.657	1381.478
-18.721	34.491	1608.232	1380.332
-17.706	34.433	1606.601	1378.458
-16.692	34.408	1605.191	1377.017
-15.677	34.370	1603.992	1375.655
-14.663	34.516	1602.027	1374.970
-13.648	34.493	1600.520	1373.456
-12.633	34.546	1599.157	1372.615
-11.619	34.523	1597.681	1371.127
-10.604	34.421	1596.653	1369.456
-9.590	34.563	1594.755	1368.792
-8.575	34.506	1593.706	1367.428
-7.560	34.404	1592.719	1365.795
-6.546	34.522	1591.394	1365.454
-5.531	34.447	1590.713	1364.277
-4.517	34.492	1589.209	1363.258
-3.502	34.462	1588.231	1362.148
-2.487	34.609	1586.089	1361.302
-1.473	34.136	1574.504	1347.961
-0.458	31.136	1554.263	1309.560
0.556	27.638	1554.215	1274.569
1.571	24.985	1577.971	1275.081
2.586	24.320	1590.520	1280.334
3.600	21.469	1537.115	1217.427
4.615	13.051	1428.221	1076.413
5.629	6.046	1364.414	984.461
6.644	4.932	1356.563	971.766
7.659	4.916	1355.149	970.568
8.673	4.797	1354.046	968.949
9.688	4.875	1352.361	968.141
10.702	4.904	1349.103	965.904
11.717	7.779	1356.139	988.750
12.731	15.623	1369.650	1047.589
13.746	20.328	1376.902	1082.458
14.761	19.985	1374.986	1078.718
15.775	18.944	1371.893	1069.725
16.790	17.801	1369.523	1060.681
17.804	17.157	1367.106	1054.713
18.819	16.785	1365.394	1050.994
19.834	16.479	1364.268	1048.134
20.848	16.238	1363.516	1045.971
21.863	16.031	1361.452	1043.017
22.877	15.884	1360.571	1041.337
23.892	15.829	1360.025	1040.488
24.907	15.811	1359.267	1039.706
25.921	15.870	1357.977	1038.993
26.936	15.930	1357.308	1038.756
27.950	15.951	1356.143	1037.907
28.965	15.939	1355.462	1037.219
29.980	16.124	1354.318	1037.386
30.994	16.083	1353.507	1036.424
32.009	16.187	1352.177	1035.952
33.023	16.081	1351.098	1034.382
34.038	16.110	1349.677	1033.383
35.053	15.999	1348.525	1031.728
36.067	16.008	1346.892	1030.441
37.082	16.066	1345.995	1030.019
38.096	16.068	1345.360	1029.452
39.111	16.066	1344.303	1028.541
40.126	16.064	1343.220	1027.609
41.140	15.853	1342.626	1025.780
42.155	15.780	1342.139	1024.875
43.169	15.723	1342.100	1024.402
44.184	15.624	1342.057	1023.676
45.199	15.766	1341.069	1023.698
46.213	15.851	1340.546	1023.722
47.228	15.953	1339.827	1023.706
48.242	15.985	1338.598	1022.871
49.257	15.854	1337.487	1021.137
50.271	15.910	1335.706	1020.024
51.286	15.952	1334.262	1019.088
52.301	15.937	1332.955	1017.905
53.315	15.843	1332.585	1016.967
54.330	15.862	1331.105	1015.863
55.344	15.849	1329.458	1014.437
56.359	15.867	1328.615	1013.814
57.374	15.894	1327.835	1013.289
58.388	15.671	1326.964	1011.196
59.403	15.540	1326.773	1010.170
60.417	15.635	1326.093	1010.134
61.432	15.640	1324.927	1009.189
62.447	15.612	1323.596	1007.914
63.461	15.611	1322.406	1006.915
64.476	15.488	1322.226	1005.949
65.490	15.600	1320.420	1005.158
66.505	15.562	1319.342	1004.024
67.520	15.597	1318.031	1003.146
68.534	15.658	1317.203	1002.789
69.549	15.626	1316.064	1001.642
70.563	15.596	1314.711	1000.349
71.578	15.414	1313.787	998.474
72.593	15.500	1312.793	998.137
73.607	15.450	1311.967	997.124
74.622	15.561	1311.138	997.068
75.636	15.438	1310.855	996.033
76.651	15.498	1309.950	995.616
77.666	15.538	1309.353	995.310
78.680	15.405	1309.407	994.474
79.695	15.629	1307.990	994.634
80.709	15.630	1307.389	994.097
81.724	15.675	1306.451	993.564
82.739	15.846	1305.548	993.796
83.753	15.950	1304.734	993.701
84.768	16.000	1303.708	993.126
85.782	16.025	1302.704	992.425
86.797	16.038	1301.676	991.626
87.812	15.926	1300.262	989.802
88.826	15.917	1299.430	989.028
89.841	15.853	1298.421	987.801
90.855	16.102	1297.313	988.327
91.870	15.999	1296.551	987.056
92.884	16.027	1295.514	986.342
93.899	16.006	1295.168	985.869
94.914	16.106	1294.149	985.594
95.928	16.170	1292.796	984.849
96.943	16.126	1292.313	984.135
97.957	16.083	1291.620	983.270
98.972	16.101	1290.149	982.168
99.987	15.968	1289.849	981.078
101.001	15.976	1288.516	980.027
102.016	15.990	1287.756	979.441
103.030	16.045	1286.814	978.955
104.045	16.027	1285.703	977.919
105.060	15.923	1284.522	976.334
106.074	15.797	1283.073	974.417
107.089	15.737	1281.414	972.722
108.103	15.696	1280.239	971.508
109.118	15.658	1279.110	970.347
110.133	15.671	1277.752	969.307
111.147	15.669	1276.654	968.377
112.162	15.839	1274.617	967.720
113.176	15.796	1274.002	966.922
114.191	15.830	1273.391	966.566
115.206	15.812	1272.021	965.338
116.220	15.822	1270.435	964.106
117.235	15.717	1269.708	962.871
118.249	15.754	1268.885	962.373
119.264	15.727	1267.620	961.171
120.279	15.749	1266.522	960.380
121.293	15.627	1265.312	958.685
122.308	15.545	1264.546	957.552
123.322	15.641	1263.591	957.291
124.337	15.588	1262.532	956.098
125.352	15.612	1261.395	955.292
126.366	15.611	1259.932	954.093
127.381	15.725	1258.607	953.654
128.395	15.620	1258.148	952.623
129.410	15.672	1257.210	952.124
130.424	15.712	1256.305	951.580
131.439	15.732	1255.489	950.995
132.454	15.688	1254.684	950.052
133.468	15.906	1253.360	950.191
134.483	15.823	1252.815	949.230
135.497	15.737	1252.299	948.269
136.512	15.768	1250.720	947.163
137.527	15.785	1249.876	946.538
138.541	15.901	1247.568	945.357
139.556	15.812	1246.770	944.167
140.570	16.026	1245.923	944.645
141.585	16.018	1244.378	943.345
142.600	16.072	1243.134	942.620
143.614	16.108	1242.522	942.271
144.629	16.083	1241.736	941.456
145.643	16.178	1240.236	940.760
146.658	15.974	1239.211	938.764
147.673	16.001	1237.488	937.525
148.687	15.817	1236.774	935.882
149.702	15.771	1235.426	934.524
150.716	15.784	1234.038	933.461
151.731	15.677	1233.011	932.010
152.746	15.842	1231.480	931.685
153.760	15.918	1230.542	931.311
154.775	15.992	1229.625	930.944
155.789	16.080	1228.165	930.240
156.804	15.967	1227.592	929.104
157.819	16.096	1226.093	928.594
158.833	16.182	1225.516	928.551
159.848	16.286	1224.836	928.526
160.862	16.186	1223.816	927.117
161.877	16.045	1222.641	925.376
162.892	15.941	1221.371	923.760
163.906	15.927	1220.729	923.119
164.921	15.865	1220.211	922.300
165.935	15.969	1218.507	921.504
166.950	16.024	1218.523	921.734
167.964	16.089	1217.978	921.594
168.979	16.017	1216.803	920.233
169.994	16.056	1216.028	919.774
171.008	16.108	1215.407	919.512
172.023	16.185	1214.263	918.981
173.037	16.213	1213.458	918.443
174.052	16.201	1212.767	917.772
175.067	16.075	1211.849	916.315
176.081	16.069	1210.996	915.556
177.096	16.124	1209.816	914.881
178.110	16.116	1208.440	913.715
179.125	16.100	1207.429	912.785
180.140	16.068	1206.514	911.837
181.154	16.156	1205.108	911.169
182.169	16.192	1204.067	910.495
183.183	16.247	1203.200	910.058
184.198	16.287	1201.880	909.193
185.213	16.359	1200.676	908.590
186.227	16.404	1199.378	907.769
187.242	16.376	1198.616	906.960
188.256	16.444	1197.698	906.551
189.271	16.391	1197.409	905.968
190.286	16.347	1195.922	904.525
191.300	16.063	1195.038	902.261
192.315	16.024	1194.076	901.245
193.329	16.127	1193.314	901.140
194.344	16.154	1192.997	900.966
195.359	16.210	1192.208	900.588
196.373	16.286	1192.338	901.011
197.388	16.336	1191.600	900.639
198.402	16.497	1191.090	901.032
199.417	16.535	1190.873	900.995
200.432	16.704	1189.714	900.937
201.446	16.595	1189.460	900.085
202.461	16.650	1188.319	899.434
203.475	16.575	1187.404	898.263
204.490	16.588	1185.647	896.920
205.504	16.547	1184.193	895.527
206.519	16.434	1183.774	894.534
207.534	16.480	1182.298	893.579
208.548	16.410	1181.760	892.723
209.563	16.449	1180.888	892.194
210.577	16.526	1180.215	892.012
211.592	16.541	1179.044	891.130
212.607	16.886	1177.787	891.912
213.621	16.656	1177.533	890.433
214.636	16.642	1176.518	889.514
215.650	16.684	1175.940	889.218
216.665	16.778	1174.592	888.612
217.680	16.928	1173.532	888.517
218.694	16.943	1172.847	887.997
219.709	16.793	1172.424	886.817
220.723	16.794	1171.617	886.130
221.738	16.773	1171.060	885.522
222.753	16.789	1169.565	884.400
223.767	16.826	1169.309	884.320
224.782	16.958	1168.605	884.398
225.796	17.045	1167.799	884.162
226.811	16.943	1167.715	883.491
227.826	16.954	1166.669	882.679
228.840	16.793	1165.944	881.214
229.855	16.809	1165.515	880.894
230.869	16.891	1164.323	880.340
231.884	16.910	1163.589	879.808
232.899	16.915	1162.614	879.018
233.913	16.873	1161.719	878.045
234.928	16.784	1161.519	877.355
235.942	16.693	1160.935	876.364
236.957	16.762	1160.107	876.020
237.972	16.807	1159.095	875.409
238.986	16.778	1158.767	874.936
240.001	16.813	1158.114	874.547
241.015	16.831	1157.175	873.849
242.030	16.962	1156.784	874.155
243.045	16.975	1155.502	873.177
244.059	16.939	1154.709	872.315
245.074	17.067	1153.913	872.292
246.088	16.959	1153.428	871.292
247.103	17.066	1152.610	871.147
248.117	17.105	1151.711	870.590
249.132	17.194	1151.016	870.447
250.147	17.352	1150.166	870.534
251.161	17.423	1149.900	870.621
252.176	17.470	1149.047	870.136
253.190	17.529	1148.400	869.871
254.205	17.532	1148.014	869.518
255.220	17.488	1147.673	868.956
256.234	17.467	1146.854	868.151
257.249	17.443	1146.145	867.416
258.263	17.462	1145.644	867.056
259.278	17.557	1145.046	867.011
260.293	17.584	1144.200	866.432
261.307	17.594	1143.763	866.074
262.322	17.600	1142.793	865.293
263.336	17.659	1142.293	865.139
264.351	17.641	1141.631	864.472
265.366	17.646	1141.255	864.133
266.380	17.630	1140.298	863.254
267.395	17.685	1139.533	862.877
268.409	17.599	1138.920	861.901
269.424	17.586	1137.905	860.987
270.439	17.601	1137.366	860.583
271.453	17.570	1136.408	859.623
272.468	17.487	1135.730	858.617
273.482	17.558	1134.848	858.233
274.497	17.526	1134.330	857.603
275.512	17.569	1133.936	857.446
276.526	17.638	1133.067	857.057
277.541	17.564	1132.432	856.130
278.555	17.605	1131.635	855.657
279.570	17.759	1131.093	855.945
280.585	17.794	1130.235	855.396
281.599	17.795	1129.058	854.436
282.614	17.735	1127.956	853.226
283.628	17.716	1127.035	852.356
284.643	17.692	1126.504	851.760
285.657	17.824	1125.449	851.547
286.672	17.771	1124.396	850.409
287.687	17.840	1123.743	850.185
288.701	17.750	1123.051	849.138
289.716	17.623	1122.827	848.262
290.730	17.825	1121.845	848.450
291.745	17.842	1121.014	847.828
292.760	17.795	1120.267	846.958
293.774	17.867	1119.918	846.977
294.789	18.085	1119.244	847.471
295.803	18.072	1118.358	846.663
296.818	17.932	1117.618	845.334
297.833	17.850	1116.970	844.364
298.847	17.995	1115.615	843.979
299.862	17.964	1115.089	843.354
300.876	17.916	1114.754	842.789
301.891	18.081	1113.973	842.937
302.906	18.079	1113.036	842.145
303.920	18.226	1112.610	842.474
304.935	18.227	1111.956	841.908
305.949	18.302	1111.551	841.893
306.964	18.211	1110.640	840.686
307.979	18.116	1110.150	839.771
308.993	18.255	1109.161	839.631
310.008	18.200	1108.691	838.929
311.022	18.234	1108.085	838.566
312.037	18.357	1106.728	838.065
313.052	18.216	1106.096	836.822
314.066	18.076	1104.991	835.231
315.081	18.076	1104.205	834.561
316.095	18.102	1103.575	834.136
317.110	18.019	1102.822	833.089
318.125	18.111	1101.578	832.524
319.139	18.105	1101.153	832.100
320.154	18.131	1100.557	831.705
321.168	18.148	1099.974	831.271
322.183	18.183	1099.116	830.720
323.197	18.162	1098.911	830.391
324.212	18.131	1098.478	829.837
325.227	18.179	1097.724	829.426
326.241	18.200	1097.112	828.993
327.256	18.113	1096.362	827.931
328.270	18.262	1095.229	827.725
329.285	18.097	1094.438	826.255
330.300	18.207	1093.316	825.868
331.314	18.076	1092.726	824.715
332.329	18.164	1091.446	824.099
333.343	18.161	1090.872	823.580
334.358	18.443	1089.973	824.186
335.373	18.355	1089.284	823.167
336.387	18.384	1088.471	822.622
337.402	18.489	1087.680	822.456
338.416	18.513	1087.320	822.224
339.431	18.465	1086.984	821.667
340.446	18.629	1086.180	821.774
341.460	18.644	1085.816	821.497
342.475	18.657	1084.873	820.770
343.489	18.759	1083.707	820.305
344.504	18.839	1082.700	819.851
345.519	18.834	1081.655	818.963
346.533	18.832	1081.309	818.620
347.548	18.845	1080.404	817.926
348.562	18.776	1080.022	817.235
349.577	18.671	1079.193	816.034
350.592	18.659	1078.198	815.153
351.606	18.631	1077.171	814.172
352.621	18.683	1076.720	814.008
353.635	18.589	1076.397	813.244
354.650	18.630	1075.350	812.575
355.665	18.659	1074.581	812.058
356.679	18.606	1074.194	811.447
357.694	18.628	1073.810	811.188
358.708	18.753	1073.134	811.194
359.723	18.666	1072.583	810.295
360.738	18.776	1071.719	810.092
361.752	18.833	1070.812	809.602
362.767	18.789	1070.814	809.324
363.781	18.672	1070.389	808.381
364.796	18.776	1069.713	808.286
365.810	18.973	1069.075	808.660
366.825	19.040	1068.508	808.477
367.840	19.091	1067.823	808.123
368.854	19.196	1067.106	808.002
369.869	19.143	1066.472	807.201
370.883	19.149	1065.823	806.669
371.898	19.012	1064.729	805.131
372.913	19.159	1064.317	805.431
373.927	19.178	1063.690	804.977
374.942	19.226	1063.083	804.668
375.956	19.185	1062.682	804.103
376.971	19.039	1062.138	802.939
377.986	19.068	1062.001	802.901
379.000	19.342	1061.064	803.399
380.015	19.346	1060.650	803.029
381.029	19.467	1059.861	802.926
382.044	19.306	1059.274	801.663
383.059	19.246	1058.592	800.797
384.073	19.403	1057.807	800.860
385.088	19.470	1056.669	800.240
386.102	19.508	1055.741	799.639
387.117	19.321	1054.944	798.099
388.132	19.193	1054.211	796.886
389.146	19.093	1053.777	796.022
390.161	19.282	1052.302	795.709
391.175	19.302	1051.676	795.260
392.190	19.236	1051.239	794.555
393.205	19.304	1050.608	794.321
394.219	19.264	1050.014	793.615
395.234	19.286	1049.108	792.963
396.248	19.238	1048.273	792.039
397.263	19.281	1047.284	791.422
398.278	19.356	1046.030	790.750
399.292	19.263	1045.418	789.788
400.307	19.179	1044.838	788.897
401.321	19.103	1044.409	788.154
402.336	19.162	1043.454	787.634
403.350	19.249	1042.839	787.496
404.365	19.295	1042.202	787.155
405.380	19.352	1041.385	786.728
406.394	19.430	1040.813	786.584
407.409	19.427	1040.209	786.043
408.423	19.575	1039.354	786.005
409.438	19.689	1038.586	785.869
410.453	19.773	1038.060	785.784
411.467	19.682	1037.904	785.185
412.482	19.682	1037.128	784.528
413.496	19.729	1036.250	784.004
414.511	19.669	1035.738	783.277
415.526	19.901	1035.198	783.853
416.540	19.889	1034.741	783.381
417.555	19.803	1034.549	782.778
418.569	19.880	1033.327	782.133
419.584	19.841	1033.217	781.805
420.599	19.940	1032.457	781.604
421.613	151.510	1400.165	1790.879
422.628	138.337	1453.733	1790.964
