DTS Sentinel unit serial number:	SN413079Multiplexer serial number:	ORYXHardware model number:	OX4-SRSoftware version number:	ORYX F/W v4.00 Oryx Data Collector v3.7.2.0data status	okinstallation	princeton_trtdifferential loss correction	single-endedforward channel	channel 2reverse channel	N/Adate	2019/09/15time	20:39:35forward acquisition time	60.00reverse acquisition time	0.00gamma	496.2192k internal	0.2331k external	0.2331temperature offset calibration	0.9934default loss term (dB/km)	0.3790temperature slope calibration	1.0000multiplexer offset coefficient	1.0000multiplexer slope coefficient	1.0000fibre end	0.00T internal ref (°C)	32.87T ext. ref 1 (°C)	7.89T ext. ref 2 (°C)	24.63length (m)	temperature (°C)	Stokes	anti-Stokes-747.200	800.000	0.042	-0.174
-746.185	-67.882	-0.029	-0.012
-745.171	-49.679	-0.103	0.049
-744.156	3.826	-0.346	0.254
-743.142	200.768	-0.024	0.037
-742.127	-14.427	0.137	0.089
-741.112	56.256	0.199	-0.195
-740.098	231.160	-0.104	-0.171
-739.083	62.036	-0.176	0.176
-738.069	800.000	0.105	0.302
-737.054	-43.798	0.295	-0.150
-736.039	-200.000	0.010	-0.088
-735.025	800.000	0.098	0.424
-734.010	308.251	0.104	-0.195
-732.996	289.176	-0.118	0.215
-731.981	800.000	0.081	-0.349
-730.966	-134.828	0.106	-0.013
-729.952	19.812	0.170	-0.138
-728.937	-186.089	-0.186	-0.003
-727.923	-45.219	0.242	-0.121
-726.908	11.838	-0.114	-0.088
-725.894	-200.000	0.008	0.088
-724.879	-42.140	-0.147	0.076
-723.864	-192.933	-0.276	0.003
-722.850	-200.000	-0.005	-0.154
-721.835	-111.363	-0.406	0.083
-720.821	-131.916	0.262	-0.034
-719.806	-200.000	-0.010	-0.121
-718.791	312.771	0.090	-0.170
-717.777	-200.000	0.016	0.160
-716.762	67.143	0.107	-0.110
-715.748	-126.428	-0.435	-0.065
-714.733	418.547	0.038	-0.082
-713.718	-61.116	-0.220	0.093
-712.704	-160.504	-0.101	-0.005
-711.689	-126.274	-0.180	-0.027
-710.675	317.519	-0.076	-0.145
-709.660	-56.898	-0.249	0.111
-708.645	-200.000	-0.023	-0.432
-707.631	-134.214	-0.201	0.025
-706.616	-200.000	0.020	-0.097
-705.602	254.942	0.116	0.200
-704.587	195.626	-0.145	0.221
-703.572	72.335	-0.114	0.119
-702.558	23.886	0.143	0.118
-701.543	-120.869	-0.173	-0.029
-700.529	-200.000	-0.070	-0.484
-699.514	76.802	0.123	-0.131
-698.499	-200.000	0.010	-0.222
-697.485	-200.000	-0.009	-0.367
-696.470	101.459	-0.218	0.256
-695.456	-100.573	-0.177	0.044
-694.441	-140.830	-0.189	-0.020
-693.426	130.391	0.209	0.269
-692.412	-125.453	-0.033	0.005
-691.397	-172.072	0.343	-0.011
-690.383	33.124	0.227	0.198
-689.368	158.436	-0.137	-0.191
-688.354	-200.000	-0.020	-0.229
-687.339	750.419	-0.143	-0.388
-686.324	-200.000	0.005	0.096
-685.310	372.419	0.150	-0.307
-684.295	-200.000	0.067	-0.534
-683.281	-55.988	-0.066	-0.030
-682.266	378.273	-0.070	0.143
-681.251	147.915	-0.119	-0.161
-680.237	-147.647	0.078	-0.007
-679.222	-200.000	-0.013	-0.180
-678.208	134.355	0.122	-0.159
-677.193	-18.956	-0.245	-0.153
-676.178	158.489	-0.090	0.126
-675.164	750.375	-0.128	-0.346
-674.149	-131.741	-0.175	-0.023
-673.135	800.000	-0.031	-0.105
-672.120	-200.000	0.046	0.314
-671.105	-200.000	-0.012	0.138
-670.091	311.755	-0.116	0.218
-669.076	800.000	-0.037	0.149
-668.062	198.813	-0.213	0.328
-667.047	-200.000	0.019	-0.157
-666.032	-63.316	0.188	0.078
-665.018	-6.310	-0.236	-0.161
-664.003	189.013	0.048	0.071
-662.989	-0.504	-0.126	-0.090
-661.974	106.956	0.092	-0.110
-660.959	-80.504	-0.329	0.110
-659.945	255.848	-0.092	0.158
-658.930	-71.950	-0.188	0.070
-657.916	800.000	0.135	0.378
-656.901	-115.067	0.211	0.040
-655.886	-131.536	0.264	0.035
-654.872	-46.632	0.035	-0.017
-653.857	454.625	-0.222	0.493
-652.843	743.777	-0.150	0.406
-651.828	-14.481	0.094	0.060
-650.814	-200.000	-0.027	-0.263
-649.799	-141.852	-0.100	0.010
-648.784	83.785	0.225	-0.246
-647.770	235.032	-0.039	-0.064
-646.755	666.017	0.034	0.088
-645.741	-200.000	0.022	-0.361
-644.726	590.435	0.076	0.188
-643.711	-82.993	-0.069	0.022
-642.697	179.729	0.047	0.070
-641.682	800.000	0.053	-0.155
-640.668	-2.507	-0.227	0.160
-639.653	800.000	-0.020	-0.064
-638.638	110.226	0.060	0.072
-637.624	127.848	-0.100	-0.128
-636.609	-200.000	0.015	-0.073
-635.595	-2.683	0.246	-0.172
-634.580	-66.908	-0.258	-0.102
-633.565	-76.924	-0.102	0.036
-632.551	-200.000	0.015	-0.194
-631.536	-78.450	-0.203	-0.070
-630.522	423.299	-0.083	0.178
-629.507	800.000	0.117	0.498
-628.492	531.044	-0.066	-0.156
-627.478	98.608	-0.154	0.177
-626.463	-125.735	-0.346	0.053
-625.449	-44.473	0.033	-0.017
-624.434	800.000	0.066	0.191
-623.419	-97.203	0.216	0.057
-622.405	-200.000	-0.020	0.166
-621.390	-83.521	0.217	-0.070
-620.376	70.748	0.067	0.069
-619.361	-57.952	0.382	-0.167
-618.346	-200.000	0.027	-0.179
-617.332	-4.651	0.053	-0.037
-616.317	-200.000	-0.033	-0.161
-615.303	245.044	0.119	0.200
-614.288	-42.083	0.048	-0.025
-613.273	228.229	0.098	-0.160
-612.259	50.089	-0.341	0.322
-611.244	800.000	-0.060	-0.191
-610.230	332.245	-0.103	0.200
-609.215	49.687	-0.136	-0.128
-608.201	-200.000	-0.056	0.339
-607.186	800.000	-0.058	-0.202
-606.171	243.154	-0.155	-0.260
-605.157	-200.000	0.006	-0.133
-604.142	206.481	0.035	-0.054
-603.128	-126.038	-0.183	0.028
-602.113	-200.000	0.007	0.163
-601.098	-200.000	-0.011	0.369
-600.084	208.207	0.119	0.186
-599.069	-85.101	-0.205	-0.064
-598.055	293.917	-0.184	-0.336
-597.040	-15.246	0.104	0.067
-596.025	363.237	-0.061	0.123
-595.011	-78.138	-0.204	-0.070
-593.996	-200.000	0.005	-0.133
-592.982	-136.319	-0.163	-0.019
-591.967	498.349	0.161	0.371
-590.952	179.913	-0.107	0.157
-589.938	-200.000	0.049	0.277
-588.923	66.997	-0.308	-0.314
-587.909	800.000	-0.033	0.125
-586.894	349.464	-0.100	0.198
-585.879	271.134	0.029	-0.051
-584.865	251.192	-0.058	-0.099
-583.850	-38.743	-0.083	0.044
-582.836	483.228	-0.068	-0.154
-581.821	414.292	-0.027	0.057
-580.806	-114.953	-0.101	-0.019
-579.792	-52.359	-0.080	0.037
-578.777	-125.462	0.299	0.045
-577.763	-5.934	-0.305	0.209
-576.748	92.286	0.160	-0.181
-575.733	-144.712	0.318	-0.029
-574.719	-113.865	-0.296	0.058
-573.704	787.785	0.049	0.135
-572.690	-96.281	-0.111	-0.029
-571.675	56.708	0.161	-0.157
-570.661	-200.000	-0.012	0.068
-569.646	-200.000	0.193	-0.000
-568.631	-178.690	-0.107	-0.002
-567.617	-200.000	-0.022	-0.224
-566.602	-73.074	0.187	-0.068
-565.588	-200.000	-0.052	0.328
-564.573	-49.455	0.206	-0.098
-563.558	800.000	-0.059	-0.191
-562.544	-153.595	0.216	0.015
-561.529	96.518	0.177	-0.203
-560.515	-114.487	0.165	0.032
-559.500	-72.042	-0.172	-0.064
-558.485	165.052	0.163	-0.230
-557.471	398.050	-0.116	-0.243
-556.456	17.217	0.293	-0.233
-555.442	246.956	0.107	-0.180
-554.427	-29.942	-0.132	0.075
-553.412	-87.039	-0.077	0.023
-552.398	348.102	0.036	0.071
-551.383	-64.389	-0.404	-0.164
-550.369	43.295	-0.183	-0.167
-549.354	-1.167	-0.104	-0.074
-548.339	-188.752	0.079	0.001
-547.325	-200.000	-0.005	-0.306
-546.310	-150.164	-0.158	0.012
-545.296	41.417	-0.116	-0.105
-544.281	358.889	-0.126	0.251
-543.266	332.501	-0.082	-0.158
-542.252	98.750	0.204	-0.235
-541.237	800.000	0.060	0.189
-540.223	-113.246	-0.110	0.022
-539.208	487.432	0.082	-0.188
-538.193	2.084	-0.230	-0.166
-537.179	57.454	-0.099	-0.097
-536.164	166.487	-0.338	-0.479
-535.150	-200.000	0.145	-0.000
-534.135	293.433	-0.201	0.365
-533.121	394.480	0.166	-0.345
-532.106	-134.288	-0.183	-0.022
-531.091	-152.266	-0.366	0.026
-530.077	800.000	-0.045	0.196
-529.062	397.674	-0.101	0.211
-528.048	-82.453	0.166	0.054
-527.033	203.786	-0.120	-0.186
-526.018	-138.800	-0.102	0.011
-525.004	-63.515	-0.236	-0.097
-523.989	-17.522	-0.122	0.077
-522.975	637.490	-0.025	0.063
-521.960	-65.286	-0.179	-0.072
-520.945	800.000	0.099	-0.319
-519.931	-200.000	-0.019	0.497
-518.916	-22.194	0.134	0.081
-517.902	-3.033	-0.084	0.059
-516.887	800.000	-0.078	0.288
-515.872	-59.852	-0.279	-0.119
-514.858	-200.000	0.052	0.344
-513.843	116.666	0.076	0.093
-512.829	-200.000	0.045	-0.447
-511.814	84.403	0.029	-0.032
-510.799	-58.334	-0.113	-0.049
-509.785	-75.782	-0.109	0.039
-508.770	5.375	0.191	0.141
-507.756	-110.950	0.171	0.035
-506.741	402.346	0.151	-0.316
-505.726	-200.000	-0.065	0.355
-504.712	-59.117	-0.440	-0.189
-503.697	800.000	-0.093	0.298
-502.683	-88.373	-0.168	0.050
-501.668	-169.705	-0.414	0.015
-500.653	-110.170	0.256	0.053
-499.639	-200.000	0.043	-0.338
-498.624	9.146	-0.200	0.151
-497.610	88.819	-0.305	-0.338
-496.595	-19.361	0.037	0.023
-495.581	-9.401	0.147	-0.098
-494.566	368.535	-0.083	-0.167
-493.551	10.953	-0.105	-0.080
-492.537	-97.202	0.236	0.061
-491.522	-29.407	-0.236	-0.135
-490.508	-200.000	0.082	0.416
-489.493	-34.024	-0.189	0.103
-488.478	800.000	-0.080	0.281
-487.464	-51.628	0.303	0.141
-486.449	589.764	-0.085	-0.208
-485.435	-200.000	0.033	-0.241
-484.420	62.687	-0.154	0.153
-483.405	-21.999	0.112	0.068
-482.391	-0.011	0.215	0.153
-481.376	-105.207	-0.157	0.036
-480.362	76.632	-0.056	-0.059
-479.347	-192.984	-0.224	-0.002
-478.332	-200.000	-0.025	0.264
-477.318	206.632	-0.178	0.276
-476.303	800.000	0.066	0.239
-475.289	800.000	0.115	-0.379
-474.274	800.000	-0.128	-0.437
-473.259	-92.815	-0.058	0.016
-472.245	-181.706	0.161	0.003
-471.230	800.000	0.101	-0.330
-470.216	33.794	0.244	0.211
-469.201	27.062	-0.150	0.125
-468.186	-16.493	-0.206	0.130
-467.172	193.068	0.099	0.149
-466.157	-200.000	-0.251	0.001
-465.143	263.866	-0.178	-0.309
-464.128	-106.574	0.114	0.025
-463.113	-200.000	-0.020	0.340
-462.099	87.896	-0.085	-0.094
-461.084	94.428	-0.049	-0.055
-460.070	542.436	0.028	0.066
-459.055	8.688	0.101	-0.076
-458.040	-57.474	-0.109	-0.048
-457.026	-186.219	0.487	0.007
-456.011	11.733	0.087	-0.066
-454.997	-104.851	-0.247	-0.056
-453.982	-26.102	0.092	-0.054
-452.968	-200.000	-0.007	0.349
-451.953	-200.000	-0.040	0.336
-450.938	257.285	-0.080	0.137
-449.924	282.434	0.071	-0.127
-448.909	730.263	-0.074	0.198
-447.895	50.781	0.052	0.049
-446.880	800.000	0.033	0.121
-445.865	-200.000	0.020	0.318
-444.851	800.000	-0.097	0.281
-443.836	-200.000	0.018	-0.287
-442.822	27.864	-0.056	-0.047
-441.807	-200.000	-0.043	-0.198
-440.792	-94.291	-0.053	0.014
-439.778	-200.000	0.005	-0.073
-438.763	108.447	0.066	0.078
-437.749	293.116	-0.042	-0.076
-436.734	125.455	-0.268	0.337
-435.719	60.654	-0.006	-0.006
-434.705	8.766	-0.129	0.096
-433.690	-99.192	-0.388	0.098
-432.676	-43.206	-0.224	-0.113
-431.661	-174.272	0.155	-0.004
-430.646	1.762	-0.167	0.120
-429.632	136.104	0.188	-0.244
-428.617	-200.000	0.045	0.219
-427.603	175.662	-0.156	-0.224
-426.588	800.000	-0.051	0.209
-425.573	-27.369	0.249	-0.144
-424.559	-200.000	0.002	-0.098
-423.544	436.523	-0.063	0.137
-422.530	-96.873	0.216	-0.056
-421.515	389.643	-0.135	0.277
-420.500	755.409	0.103	0.277
-419.486	-26.265	0.065	-0.038
-418.471	-48.598	-0.142	0.068
-417.457	62.634	-0.155	0.154
-416.442	-67.265	0.136	-0.053
-415.428	183.453	-0.108	0.158
-414.413	-77.693	-0.179	0.062
-413.398	-200.000	0.022	-0.143
-412.384	800.000	-0.085	-0.246
-411.369	-200.000	-0.004	-0.233
-410.355	787.480	0.098	-0.268
-409.340	244.583	-0.090	0.151
-408.325	-200.000	-0.054	0.276
-407.311	-91.070	-0.151	0.043
-406.296	32.018	0.028	0.024
-405.282	1.448	0.218	0.156
-404.267	-17.069	0.181	-0.113
-403.252	691.265	0.098	0.254
-402.238	47.952	-0.167	-0.155
-401.223	48.920	0.124	0.115
-400.209	23.204	-0.211	0.172
-399.194	-3.909	0.437	0.301
-398.179	39.195	0.270	-0.240
-397.165	-61.304	-0.301	0.126
-396.150	155.757	-0.184	-0.252
-395.136	15.914	-0.168	0.131
-394.121	69.352	0.301	-0.308
-393.106	-200.000	-0.055	-0.245
-392.092	-200.000	-0.009	0.098
-391.077	-14.102	-0.136	-0.087
-390.063	85.111	0.162	0.177
-389.048	5.572	0.222	0.163
-388.033	3.966	-0.135	0.098
-387.019	-2.323	-0.052	0.036
-386.004	-84.432	0.279	0.087
-384.990	50.371	-0.038	0.036
-383.975	677.282	-0.057	-0.147
-382.960	-192.898	-0.130	0.001
-381.946	-27.377	0.169	0.098
-380.931	149.601	0.069	-0.093
-379.917	-19.517	0.154	0.095
-378.902	-67.886	0.083	-0.032
-377.888	246.048	-0.115	-0.192
-376.873	-200.000	-0.035	-0.172
-375.858	-200.000	-0.001	-0.201
-374.844	32.178	-0.233	0.199
-373.829	-62.411	0.276	-0.114
-372.815	-22.725	-0.136	-0.082
-371.800	160.661	0.171	0.237
-370.785	-200.000	-0.014	-0.221
-369.771	-127.727	0.198	0.028
-368.756	-200.000	-0.002	-0.208
-367.742	-126.275	0.366	0.054
-366.727	-200.000	0.002	0.142
-365.712	-161.013	-0.335	-0.017
-364.698	-49.365	-0.228	-0.108
-363.683	97.945	0.071	0.081
-362.669	349.347	0.037	-0.072
-361.654	-62.529	-0.128	-0.053
-360.639	-200.000	-0.023	0.154
-359.625	800.000	0.056	0.228
-358.610	529.272	0.099	0.231
-357.596	67.254	-0.133	-0.134
-356.581	-200.000	-0.004	0.076
-355.566	-64.443	-0.113	0.045
-354.552	48.241	-0.341	-0.316
-353.537	-200.000	0.027	0.383
-352.523	-96.900	-0.162	-0.042
-351.508	410.655	0.146	0.307
-350.493	-46.175	0.226	-0.110
-349.479	-45.748	-0.085	0.041
-348.464	-200.000	0.014	-0.093
-347.450	800.000	0.100	-0.310
-346.435	231.438	-0.105	0.170
-345.420	-200.000	0.016	0.215
-344.406	745.615	-0.161	-0.429
-343.391	-200.000	-0.008	-0.072
-342.377	-37.337	-0.032	-0.017
-341.362	-200.000	-0.018	0.255
-340.348	91.958	0.087	-0.098
-339.333	51.859	-0.037	0.035
-338.318	511.734	0.084	-0.195
-337.304	161.201	0.064	-0.089
-336.289	88.377	0.076	0.084
-335.275	147.956	0.130	-0.174
-334.260	-101.457	-0.039	0.009
-333.245	-200.000	0.043	0.238
-332.231	800.000	-0.070	0.196
-331.216	127.419	-0.208	0.262
-330.202	-200.000	-0.061	-0.318
-329.187	800.000	0.044	0.178
-328.172	-70.619	0.362	-0.135
-327.158	-200.000	0.039	-0.196
-326.143	277.362	-0.190	-0.335
-325.129	-90.810	-0.384	-0.110
-324.114	-200.000	-0.027	-0.136
-323.099	-20.379	0.123	-0.075
-322.085	205.752	-0.182	0.281
-321.070	-160.688	0.326	0.017
-320.056	-23.908	-0.205	-0.122
-319.041	-53.694	0.326	-0.147
-318.026	-101.892	-0.074	0.018
-317.012	22.258	0.239	0.193
-315.997	-144.113	0.166	0.015
-314.983	64.064	-0.274	-0.273
-313.968	-89.699	0.042	-0.012
-312.953	220.533	0.160	-0.254
-311.939	-200.000	-0.017	-0.253
-310.924	-134.932	-0.179	0.021
-309.910	-173.644	0.400	0.012
-308.895	46.604	0.020	-0.018
-307.880	-200.000	-0.042	0.396
-306.866	-52.607	0.280	-0.128
-305.851	-103.606	-0.270	-0.063
-304.837	-200.000	-0.004	-0.033
-303.822	-200.000	0.054	0.397
-302.807	174.914	0.128	-0.184
-301.793	-102.743	0.334	0.079
-300.778	-200.000	0.001	-0.159
-299.764	68.741	-0.156	0.159
-298.749	315.243	-0.106	-0.198
-297.735	340.164	0.219	0.423
-296.720	32.270	0.224	-0.191
-295.705	-71.521	0.197	-0.073
-294.691	542.023	-0.055	-0.129
-293.676	-113.100	0.046	-0.009
-292.662	-169.822	0.086	-0.003
-291.647	-121.767	-0.201	0.033
-290.632	-200.000	0.020	0.278
-289.618	412.118	0.075	0.157
-288.603	-200.000	0.018	0.216
-287.589	-200.000	0.021	-0.163
-286.574	-90.345	-0.228	0.066
-285.559	147.399	-0.058	-0.078
-284.545	-94.766	0.160	-0.043
-283.530	-99.873	-0.056	0.014
-282.516	-200.000	0.000	-0.374
-281.501	-148.413	-0.483	-0.039
-280.486	-200.000	0.002	0.199
-279.472	760.798	0.049	-0.133
-278.457	800.000	-0.140	0.415
-277.443	-124.401	0.069	-0.011
-276.428	175.325	-0.130	0.186
-275.413	391.745	-0.046	0.094
-274.399	-38.925	0.335	-0.174
-273.384	111.265	0.120	-0.142
-272.370	800.000	0.020	-0.073
-271.355	-60.572	0.174	0.073
-270.340	800.000	0.048	0.165
-269.326	-56.528	0.232	-0.102
-268.311	-71.702	-0.101	-0.037
-267.297	264.486	-0.178	0.306
-266.282	110.496	-0.113	0.134
-265.267	-60.663	0.261	-0.109
-264.253	800.000	0.036	0.131
-263.238	-153.519	-0.131	-0.009
-262.224	-200.000	0.006	-0.350
-261.209	-56.580	0.388	-0.170
-260.195	27.530	0.093	0.077
-259.180	-54.869	-0.290	-0.129
-258.165	41.987	0.253	-0.227
-257.151	48.085	-0.180	0.166
-256.136	-200.000	-0.004	0.145
-255.122	15.113	-0.248	0.192
-254.107	382.948	0.060	0.123
-253.092	384.268	-0.029	-0.059
-252.078	-121.101	0.240	-0.040
-251.063	-190.291	0.272	0.003
-250.049	208.294	-0.150	0.231
-249.034	174.294	-0.128	0.182
-248.019	-200.000	-0.028	-0.343
-247.005	274.147	0.147	0.257
-245.990	800.000	-0.037	-0.105
-244.976	800.000	0.055	-0.174
-243.961	91.664	0.114	-0.126
-242.946	318.074	0.064	0.119
-241.932	-11.256	-0.155	0.101
-240.917	-164.695	-0.190	-0.008
-239.903	-200.000	0.016	0.107
-238.888	-200.000	0.035	0.174
-237.873	-12.474	-0.166	0.107
-236.859	-68.342	0.205	-0.079
-235.844	124.337	0.137	0.170
-234.830	87.067	0.062	0.067
-233.815	800.000	-0.042	0.147
-232.800	-87.820	-0.019	0.006
-231.786	-136.973	0.181	-0.020
-230.771	-41.009	0.276	0.141
-229.757	-200.000	0.004	0.069
-228.742	800.000	0.094	0.316
-227.727	82.824	0.041	-0.044
-226.713	-200.000	0.015	0.077
-225.698	-200.000	-0.086	-0.454
-224.684	16.855	0.178	-0.139
-223.669	-198.340	0.169	0.001
-222.655	-66.606	-0.128	-0.050
-221.640	800.000	-0.071	-0.298
-220.625	-200.000	0.077	-0.417
-219.611	331.836	-0.120	-0.228
-218.596	-200.000	0.004	0.032
-217.582	-62.536	0.120	-0.049
-216.567	0.606	0.238	-0.168
-215.552	30.897	-0.286	0.241
-214.538	-76.915	0.270	0.093
-213.523	19.261	0.064	-0.051
-212.509	-200.000	-0.024	-0.191
-211.494	800.000	0.024	-0.080
-210.479	171.962	0.086	-0.122
-209.465	-180.151	-0.111	-0.002
-208.450	800.000	0.034	-0.144
-207.436	-200.000	-0.040	0.410
-206.421	-173.377	0.332	0.010
-205.406	163.848	0.112	0.155
-204.392	-200.000	0.033	-0.293
-203.377	-159.333	0.343	-0.019
-202.363	-85.141	0.304	0.094
-201.348	132.189	0.147	-0.187
-200.333	-200.000	-0.031	0.183
-199.319	-200.000	-0.026	-0.195
-198.304	367.435	-0.148	-0.295
-197.290	314.315	0.044	0.082
-196.275	-26.829	0.282	-0.162
-195.260	30.531	-0.140	0.118
-194.246	342.337	0.134	-0.258
-193.231	-200.000	-0.033	0.187
-192.217	567.722	0.085	-0.204
-191.202	-75.095	0.279	-0.098
-190.187	-38.299	-0.096	0.050
-189.173	800.000	0.064	0.211
-188.158	-61.180	-0.246	0.102
-187.144	316.623	-0.102	-0.189
-186.129	-200.000	-0.064	0.384
-185.114	800.000	0.104	0.343
-184.100	-200.000	0.046	-0.460
-183.085	534.598	-0.155	-0.361
-182.071	242.338	0.111	0.183
-181.056	356.105	0.164	-0.322
-180.042	-93.463	-0.187	-0.051
-179.027	800.000	-0.032	-0.134
-178.012	94.394	0.107	0.120
-176.998	-17.235	-0.130	-0.081
-175.983	800.000	-0.088	0.265
-174.969	-200.000	-0.017	-0.144
-173.954	-181.448	0.140	-0.003
-172.939	-22.111	-0.235	-0.140
-171.925	-140.254	0.315	0.032
-170.910	10.318	0.050	-0.038
-169.896	-200.000	-0.027	-0.121
-168.881	95.902	0.183	0.206
-167.866	-54.847	0.281	-0.125
-166.852	232.630	0.091	-0.148
-165.837	-200.000	-0.018	-0.078
-164.823	280.687	0.129	0.227
-163.808	-5.837	-0.192	-0.129
-162.793	385.695	-0.022	-0.044
-161.779	298.455	0.209	0.379
-160.764	296.280	0.132	0.239
-159.750	-36.503	-0.229	0.121
-158.735	509.752	-0.098	0.225
-157.720	-67.154	0.115	0.045
-156.706	-172.780	-0.089	-0.003
-155.691	-152.453	0.216	0.015
-154.677	-90.389	0.175	0.050
-153.662	22.574	0.106	0.085
-152.647	-72.840	0.295	0.107
-151.633	-200.000	-0.032	-0.326
-150.618	39.686	-0.242	-0.213
-149.604	800.000	0.041	0.114
-148.589	-114.103	-0.131	0.025
-147.574	-0.730	0.137	-0.095
-146.560	129.330	-0.192	-0.241
-145.545	68.327	0.239	-0.240
-144.531	750.974	-0.045	-0.120
-143.516	35.851	0.030	-0.026
-142.502	-37.823	0.099	0.052
-141.487	-141.929	-0.123	-0.012
-140.472	589.227	-0.017	-0.041
-139.458	-105.066	0.146	0.033
-138.443	45.562	0.216	0.196
-137.429	200.442	-0.121	-0.182
-136.414	75.493	0.040	-0.041
-135.399	-12.477	0.205	0.131
-134.385	271.843	-0.170	0.294
-133.370	-163.364	0.323	-0.015
-132.356	-32.022	-0.024	0.013
-131.341	467.235	0.015	0.033
-130.326	-93.269	-0.476	-0.130
-129.312	800.000	-0.102	0.431
-128.297	-200.000	0.031	0.181
-127.283	73.755	-0.231	-0.238
-126.268	-23.728	-0.291	-0.171
-125.253	-128.644	0.273	-0.038
-124.239	231.276	-0.072	-0.116
-123.224	-87.564	-0.140	-0.042
-122.210	401.692	-0.039	-0.079
-121.195	-92.842	-0.146	0.040
-120.180	-200.000	-0.023	-0.102
-119.166	-52.943	0.096	-0.043
-118.151	-38.541	0.095	-0.049
-117.137	-33.313	0.081	0.044
-116.122	-43.897	0.205	0.101
-115.107	-200.000	-0.025	-0.203
-114.093	20.199	0.018	0.014
-113.078	87.931	-0.106	-0.115
-112.064	672.975	-0.128	-0.326
-111.049	714.198	-0.148	-0.384
-110.034	-18.333	-0.156	-0.095
-109.020	56.273	0.037	0.035
-108.005	290.155	-0.056	0.099
-106.991	94.309	0.213	-0.238
-105.976	499.299	-0.152	0.343
-104.962	-105.589	0.225	-0.050
-103.947	287.608	-0.109	-0.193
-102.932	-200.000	0.024	0.373
-101.918	-200.000	0.002	-0.025
-100.903	-200.000	-0.001	-0.012
-99.889	-200.000	0.033	-0.255
-98.874	252.314	-0.182	-0.305
-97.859	94.643	0.198	-0.220
-96.845	37.593	0.283	0.247
-95.830	-36.190	0.289	0.153
-94.816	-173.210	-0.115	-0.003
-93.801	63.516	0.155	0.152
-92.786	-129.383	0.329	-0.045
-91.772	400.428	-0.016	0.034
-90.757	-67.908	-0.199	0.076
-89.743	-156.156	0.222	0.014
-88.728	140.285	0.167	-0.217
-87.713	-200.000	0.024	0.261
-86.699	212.497	-0.197	0.305
-85.684	296.556	-0.090	-0.161
-84.670	-200.000	-0.008	-0.114
-83.655	251.952	-0.127	0.212
-82.640	680.790	0.021	0.054
-81.626	-177.834	0.318	-0.007
-80.611	-4.819	0.198	0.134
-79.597	-163.809	0.473	0.022
-78.582	800.000	0.016	-0.048
-77.567	341.333	0.091	0.174
-76.553	65.767	0.246	0.244
-75.538	3.586	0.056	0.040
-74.524	-200.000	-0.043	-0.190
-73.509	431.894	0.080	0.170
-72.494	-200.000	0.026	0.308
-71.480	-111.300	-0.119	0.024
-70.465	34.444	-0.075	0.064
-69.451	0.556	-0.053	0.037
-68.436	10.068	0.089	0.066
-67.422	800.000	0.071	-0.264
-66.407	-200.000	0.016	-0.096
-65.392	89.904	-0.152	-0.166
-64.378	-200.000	0.009	0.127
-63.363	-200.000	-0.014	-0.264
-62.349	-77.939	0.077	0.026
-61.334	138.569	-1.012	-1.302
-60.319	82.193	0.392	0.417
-59.305	800.000	-0.269	-0.773
-58.290	310.215	0.533	0.978
-57.276	800.000	0.571	1.738
-56.261	-200.000	93.474	572.493
-55.246	568.107	1352.024	3217.939
-54.232	166.663	2523.115	3505.023
-53.217	107.406	2253.593	2626.119
-52.203	42.050	1888.500	1679.271
-51.188	36.100	1681.085	1450.172
-50.173	33.428	1637.672	1393.052
-49.159	51.193	1683.394	1564.625
-48.144	52.555	1700.320	1590.435
-47.130	35.739	1662.249	1431.014
-46.115	33.063	1648.110	1399.007
-45.100	32.905	1643.028	1393.472
-44.086	32.780	1641.195	1390.936
-43.071	32.790	1638.474	1388.653
-42.057	32.722	1636.142	1386.119
-41.042	32.808	1633.921	1384.814
-40.027	32.787	1632.162	1383.113
-39.013	32.677	1630.528	1380.867
-37.998	32.732	1628.547	1379.537
-36.984	32.798	1627.340	1378.945
-35.969	32.906	1625.457	1378.084
-34.954	32.861	1623.877	1376.358
-33.940	32.805	1622.137	1374.424
-32.925	32.848	1620.803	1373.550
-31.911	32.884	1618.917	1372.163
-30.896	32.839	1617.509	1370.583
-29.881	32.910	1615.698	1369.509
-28.867	32.891	1614.002	1367.884
-27.852	32.853	1613.132	1366.813
-26.838	32.882	1611.326	1365.439
-25.823	32.877	1610.006	1364.232
-24.809	32.986	1608.378	1363.583
-23.794	32.933	1606.861	1361.859
-22.779	32.850	1605.618	1360.159
-21.765	32.863	1604.920	1359.603
-20.750	32.827	1602.543	1357.281
-19.736	32.844	1600.978	1356.023
-18.721	32.921	1599.667	1355.412
-17.706	32.900	1598.423	1354.149
-16.692	32.897	1596.824	1352.718
-15.677	32.896	1595.369	1351.426
-14.663	32.940	1594.092	1350.605
-13.648	32.889	1592.673	1348.988
-12.633	33.016	1590.871	1348.315
-11.619	32.896	1590.015	1346.677
-10.604	32.905	1587.838	1344.842
-9.590	32.935	1586.720	1344.060
-8.575	32.958	1585.545	1343.174
-7.560	32.918	1584.186	1341.685
-6.546	32.942	1583.180	1340.950
-5.531	32.929	1582.130	1339.918
-4.517	32.979	1581.021	1339.278
-3.502	32.914	1580.134	1338.011
-2.487	33.024	1577.929	1336.870
-1.473	32.407	1565.902	1322.292
-0.458	28.685	1544.949	1278.685
0.556	21.689	1543.081	1238.271
1.571	18.792	1565.240	1235.146
2.586	18.101	1577.407	1239.623
3.600	16.765	1527.760	1191.113
4.615	12.800	1428.580	1087.569
5.629	8.855	1370.308	1018.100
6.644	7.913	1362.871	1006.532
7.659	7.935	1361.742	1005.747
8.673	7.883	1360.629	1004.509
9.688	7.808	1358.570	1002.428
10.702	7.655	1355.501	999.114
11.717	9.474	1358.747	1012.872
12.731	13.707	1366.791	1045.513
13.746	16.846	1370.660	1068.197
14.761	16.911	1369.829	1067.866
15.775	15.980	1366.985	1059.698
16.790	14.931	1364.851	1051.358
17.804	14.204	1362.127	1044.605
18.819	13.679	1360.636	1040.081
19.834	13.350	1359.355	1036.943
20.848	13.108	1358.205	1034.458
21.863	12.833	1357.487	1032.102
22.877	12.831	1355.842	1030.744
23.892	12.764	1354.760	1029.410
24.907	12.728	1354.113	1028.603
25.921	12.855	1352.661	1028.206
26.936	12.720	1352.611	1027.236
27.950	12.790	1351.665	1026.858
28.965	12.871	1350.538	1026.415
29.980	12.905	1349.587	1025.817
30.994	13.058	1347.621	1025.178
32.009	13.109	1346.754	1024.750
33.023	13.075	1345.516	1023.502
34.038	12.901	1344.849	1021.826
35.053	12.938	1343.127	1020.659
36.067	12.978	1341.738	1019.758
37.082	12.837	1341.083	1018.300
38.096	12.920	1339.815	1017.760
39.111	12.976	1338.894	1017.312
40.126	12.895	1338.300	1016.272
41.140	12.751	1337.657	1014.812
42.155	12.629	1337.154	1013.584
43.169	12.624	1337.306	1013.583
44.184	12.698	1336.591	1013.402
45.199	12.624	1336.358	1012.686
46.213	12.695	1335.356	1012.272
47.228	12.862	1334.336	1012.435
48.242	12.859	1333.605	1011.771
49.257	12.822	1331.827	1010.107
50.271	12.744	1330.744	1008.720
51.286	12.975	1328.941	1008.672
52.301	12.901	1328.336	1007.672
53.315	12.879	1327.026	1006.456
54.330	12.764	1325.894	1004.809
55.344	12.737	1325.137	1003.978
56.359	12.817	1323.440	1003.093
57.374	12.812	1322.699	1002.414
58.388	12.555	1322.456	1000.575
59.403	12.659	1321.859	1000.667
60.417	12.638	1321.053	999.840
61.432	12.563	1320.295	998.725
62.447	12.608	1319.110	998.015
63.461	12.587	1318.016	996.968
64.476	12.637	1316.568	996.090
65.490	12.554	1315.599	994.766
66.505	12.556	1314.414	993.793
67.520	12.627	1313.286	993.279
68.534	12.720	1311.927	992.725
69.549	12.659	1310.966	991.546
70.563	12.652	1309.739	990.485
71.578	12.505	1309.003	988.956
72.593	12.508	1307.783	987.967
73.607	12.461	1307.145	987.117
74.622	12.565	1306.107	986.867
75.636	12.550	1305.816	986.471
76.651	12.503	1305.375	985.770
77.666	12.481	1304.213	984.672
78.680	12.539	1304.043	984.803
79.695	12.502	1303.420	984.021
80.709	12.655	1302.245	983.967
81.724	12.723	1300.925	983.283
82.739	12.627	1300.980	982.669
83.753	12.712	1299.958	982.315
84.768	12.800	1298.886	981.943
85.782	12.906	1297.732	981.613
86.797	12.915	1296.434	980.602
87.812	12.855	1295.020	979.086
88.826	12.802	1293.944	977.873
89.841	12.803	1293.114	977.163
90.855	12.897	1292.220	976.962
91.870	12.909	1291.059	976.068
92.884	12.945	1290.008	975.396
93.899	12.924	1289.287	974.642
94.914	12.952	1289.159	974.625
95.928	13.089	1288.247	974.659
96.943	12.957	1286.924	972.793
97.957	12.890	1286.243	971.797
98.972	13.077	1284.716	971.657
99.987	12.875	1284.491	970.213
101.001	12.906	1283.101	969.258
102.016	12.945	1282.000	968.572
103.030	12.882	1281.642	967.848
104.045	12.801	1280.975	966.778
105.060	12.954	1279.167	966.227
106.074	12.867	1277.574	964.427
107.089	12.745	1276.351	962.710
108.103	12.640	1275.008	960.996
109.118	12.672	1274.007	960.346
110.133	12.650	1272.583	959.060
111.147	12.638	1271.638	958.188
112.162	12.712	1270.113	957.388
113.176	12.771	1269.046	956.841
114.191	12.652	1268.215	955.438
115.206	12.742	1267.153	955.077
116.220	12.828	1265.494	954.237
117.235	12.761	1264.426	952.964
118.249	12.710	1263.969	952.235
119.264	12.743	1262.621	951.328
120.279	12.664	1261.801	950.170
121.293	12.732	1260.347	949.384
122.308	12.649	1259.541	948.212
123.322	12.569	1258.776	947.094
124.337	12.619	1257.653	946.455
125.352	12.622	1256.531	945.544
126.366	12.642	1255.789	945.012
127.381	12.655	1254.362	943.934
128.395	12.704	1253.507	943.486
129.410	12.654	1252.606	942.437
130.424	12.742	1251.795	942.247
131.439	12.738	1250.708	941.321
132.454	12.759	1250.304	941.056
133.468	12.725	1249.247	939.985
134.483	12.733	1248.783	939.594
135.497	12.742	1247.313	938.459
136.512	12.793	1246.448	938.016
137.527	12.774	1244.572	936.413
138.541	12.848	1242.986	935.557
139.556	12.858	1241.986	934.777
140.570	12.817	1241.477	934.081
141.585	12.854	1239.672	932.849
142.600	12.951	1239.010	932.817
143.614	12.929	1238.071	931.905
144.629	12.974	1236.700	931.044
145.643	12.947	1235.663	930.026
146.658	12.990	1234.502	929.315
147.673	12.903	1233.178	927.744
148.687	12.838	1232.054	926.451
149.702	12.753	1230.671	924.852
150.716	12.785	1229.732	924.245
151.731	12.832	1228.566	923.551
152.746	12.906	1227.124	922.800
153.760	12.895	1225.919	921.748
154.775	12.922	1224.612	920.835
155.789	13.074	1223.637	920.871
156.804	13.056	1222.834	920.085
157.819	13.014	1222.039	919.167
158.833	13.107	1221.038	918.854
159.848	13.171	1219.752	918.160
160.862	13.128	1218.754	917.090
161.877	13.029	1217.392	915.435
162.892	13.040	1216.565	914.791
163.906	12.978	1215.835	913.818
164.921	12.990	1214.933	913.126
165.935	13.022	1214.211	912.676
166.950	13.020	1213.756	912.242
167.964	13.086	1212.703	911.739
168.979	13.031	1212.474	911.183
169.994	13.000	1211.498	910.195
171.008	13.034	1210.358	909.444
172.023	13.153	1209.846	909.637
173.037	13.136	1209.060	908.873
174.052	13.122	1208.445	908.250
175.067	13.005	1207.091	906.513
176.081	13.010	1206.077	905.697
177.096	13.034	1205.053	904.980
178.110	13.129	1203.910	904.559
179.125	13.225	1202.527	903.964
180.140	13.110	1201.495	902.483
181.154	13.075	1200.665	901.591
182.169	13.198	1199.061	900.972
183.183	13.275	1198.419	900.834
184.198	13.256	1196.813	899.441
185.213	13.312	1196.078	899.112
186.227	13.324	1194.753	898.106
187.242	13.283	1194.190	897.378
188.256	13.274	1193.376	896.636
189.271	13.352	1192.250	896.134
190.286	13.267	1190.718	894.445
191.300	13.068	1190.026	892.769
192.315	13.058	1189.617	892.329
193.329	13.069	1188.832	891.722
194.344	13.093	1188.353	891.414
195.359	13.155	1187.829	891.277
196.373	13.335	1186.964	891.519
197.388	13.359	1186.574	891.274
198.402	13.341	1186.988	891.411
199.417	13.427	1186.093	891.121
200.432	13.594	1184.865	891.018
201.446	13.536	1184.279	890.191
202.461	13.627	1183.075	889.693
203.475	13.623	1181.917	888.722
204.490	13.598	1180.812	887.681
205.504	13.587	1179.285	886.393
206.519	13.500	1178.122	884.978
207.534	13.482	1177.761	884.530
208.548	13.554	1176.480	883.872
209.563	13.494	1175.764	882.937
210.577	13.552	1174.765	882.421
211.592	13.630	1174.005	882.185
212.607	13.723	1173.275	882.054
213.621	13.605	1172.610	880.850
214.636	13.612	1171.415	879.911
215.650	13.655	1170.414	879.310
216.665	13.702	1169.331	878.668
217.680	13.754	1168.535	878.265
218.694	13.739	1167.823	877.574
219.709	13.786	1167.043	877.158
220.723	13.712	1166.527	876.304
221.738	13.675	1165.829	875.506
222.753	13.674	1164.921	874.737
223.767	13.778	1164.114	874.604
224.782	13.793	1164.140	874.623
225.796	13.871	1163.221	874.265
226.811	13.892	1162.531	873.784
227.826	13.885	1161.486	872.884
228.840	13.577	1161.110	870.907
229.855	13.887	1160.323	871.864
230.869	13.839	1159.599	870.991
231.884	13.749	1158.772	869.823
232.899	13.850	1157.726	869.490
233.913	13.776	1157.107	868.558
234.928	13.766	1156.420	867.913
235.942	13.758	1155.794	867.325
236.957	13.726	1154.688	866.255
237.972	13.697	1153.982	865.496
238.986	13.838	1153.383	865.703
240.001	13.835	1152.443	864.906
241.015	13.869	1151.610	864.383
242.030	13.950	1150.956	864.235
243.045	13.954	1150.104	863.543
244.059	13.909	1149.349	862.665
245.074	14.016	1148.534	862.531
246.088	13.970	1147.863	861.711
247.103	13.978	1147.327	861.278
248.117	14.098	1146.194	860.968
249.132	14.177	1145.542	860.814
250.147	14.281	1145.054	860.908
251.161	14.300	1144.375	860.417
252.176	14.295	1143.461	859.629
253.190	14.401	1142.927	859.700
254.205	14.468	1142.343	859.529
255.220	14.364	1142.029	858.679
256.234	14.442	1141.135	858.335
257.249	14.341	1140.763	857.458
258.263	14.378	1140.111	857.084
259.278	14.409	1139.432	856.655
260.293	14.363	1139.021	856.036
261.307	14.428	1138.110	855.609
262.322	14.552	1137.248	855.520
263.336	14.554	1136.828	855.140
264.351	14.545	1136.359	854.666
265.366	14.644	1135.263	854.272
266.380	14.593	1134.383	853.274
267.395	14.454	1134.154	852.313
268.409	14.458	1133.496	851.765
269.424	14.515	1132.709	851.389
270.439	14.498	1132.041	850.725
271.453	14.608	1131.261	850.626
272.468	14.389	1130.720	849.027
273.482	14.569	1129.320	848.817
274.497	14.476	1129.203	848.178
275.512	14.573	1128.406	847.998
276.526	14.605	1127.742	847.586
277.541	14.644	1126.674	846.909
278.555	14.616	1126.294	846.406
279.570	14.622	1126.043	846.173
280.585	14.729	1124.790	845.699
281.599	14.760	1123.747	844.997
282.614	14.733	1122.907	844.151
283.628	14.564	1121.917	842.478
284.643	14.695	1120.767	842.202
285.657	14.759	1120.012	841.884
286.672	14.714	1118.973	840.803
287.687	14.640	1118.432	839.951
288.701	14.715	1118.029	839.949
289.716	14.803	1116.803	839.397
290.730	14.843	1116.192	839.065
291.745	14.710	1115.694	837.945
292.760	14.965	1114.565	838.303
293.774	14.877	1114.358	837.632
294.789	14.836	1114.230	837.256
295.803	14.753	1113.763	836.418
296.818	14.835	1112.404	835.730
297.833	14.805	1111.607	834.910
298.847	14.873	1110.815	834.577
299.862	14.901	1110.251	834.220
300.876	14.998	1109.346	833.953
301.891	14.968	1108.610	833.174
302.906	15.026	1108.054	832.970
303.920	15.071	1107.376	832.609
304.935	15.186	1107.147	832.935
305.949	15.099	1106.294	831.792
306.964	15.148	1106.010	831.747
307.979	15.124	1105.019	830.810
308.993	15.139	1104.256	830.234
310.008	15.188	1103.255	829.652
311.022	15.261	1102.535	829.397
312.037	15.270	1101.765	828.792
313.052	15.213	1100.516	827.495
314.066	14.996	1100.027	825.984
315.081	14.980	1099.424	825.379
316.095	15.044	1098.304	824.780
317.110	15.127	1097.427	824.460
318.125	15.145	1096.880	824.062
319.139	15.055	1096.578	823.319
320.154	15.131	1095.718	822.976
321.168	15.107	1094.727	822.039
322.183	15.147	1094.407	821.925
323.197	15.135	1093.774	821.317
324.212	15.187	1093.244	821.099
325.227	15.270	1092.803	821.102
326.241	15.171	1092.072	819.998
327.256	15.289	1090.969	819.672
328.270	15.300	1090.167	819.051
329.285	15.049	1089.711	817.409
330.300	15.093	1088.800	816.872
331.314	15.095	1087.942	816.166
332.329	15.213	1086.641	815.690
333.343	15.251	1085.783	815.158
334.358	15.403	1084.741	815.045
335.373	15.381	1084.326	814.550
336.387	15.395	1083.755	814.118
337.402	15.400	1083.344	813.763
338.416	15.496	1081.950	813.108
339.431	15.431	1081.743	812.564
340.446	15.484	1081.365	812.467
341.460	15.618	1080.050	812.057
342.475	15.532	1079.616	811.240
343.489	15.595	1078.525	810.651
344.504	15.678	1077.955	810.551
345.519	15.679	1077.123	809.860
346.533	15.613	1076.255	808.820
347.548	15.631	1075.678	808.400
348.562	15.687	1074.730	807.885
349.577	15.713	1073.827	807.259
350.592	15.566	1073.335	806.114
351.606	15.601	1072.168	805.333
352.621	15.669	1071.556	805.127
353.635	15.554	1071.292	804.306
354.650	15.550	1070.585	803.685
355.665	15.577	1069.607	803.011
356.679	15.690	1069.272	803.229
357.694	15.763	1068.400	802.850
358.708	15.737	1067.949	802.317
359.723	15.784	1067.144	801.862
360.738	15.748	1066.559	801.181
361.752	15.773	1066.236	800.989
362.767	15.762	1065.960	800.659
363.781	15.881	1065.011	800.438
364.796	15.859	1064.362	799.776
365.810	15.963	1063.543	799.584
366.825	16.044	1063.013	799.500
367.840	15.990	1062.783	798.997
368.854	16.012	1062.265	798.642
369.869	15.918	1061.698	797.702
370.883	16.056	1060.602	797.462
371.898	15.988	1059.846	796.497
372.913	15.958	1059.395	795.949
373.927	16.018	1058.711	795.646
374.942	15.998	1058.507	795.326
375.956	16.054	1057.524	794.785
376.971	16.185	1057.104	795.014
377.986	16.147	1056.698	794.462
379.000	16.152	1056.281	794.099
380.015	16.231	1055.517	793.827
381.029	16.134	1055.004	792.917
382.044	16.179	1054.328	792.549
383.059	16.206	1053.672	792.114
384.073	16.328	1052.405	791.663
385.088	16.174	1051.761	790.386
386.102	16.358	1050.893	790.525
387.117	16.246	1049.335	788.757
388.132	16.112	1048.941	787.768
389.146	16.104	1048.209	787.108
390.161	16.180	1047.272	786.690
391.175	16.245	1046.848	786.609
392.190	16.183	1046.227	785.781
393.205	16.366	1045.016	785.655
394.219	16.458	1044.440	785.577
395.234	16.267	1043.813	784.148
396.248	16.279	1042.601	783.226
397.263	16.305	1041.568	782.502
398.278	16.193	1041.290	781.702
399.292	16.319	1040.196	781.397
400.307	16.268	1039.398	780.492
401.321	16.178	1039.315	779.944
402.336	16.261	1038.665	779.774
403.350	16.289	1037.722	779.126
404.365	16.390	1036.903	778.906
405.380	16.378	1036.545	778.513
406.394	16.484	1035.232	777.947
407.409	16.479	1034.752	777.492
408.423	16.364	1034.675	776.840
409.438	16.467	1033.839	776.617
410.453	16.614	1033.094	776.660
411.467	16.630	1032.413	776.152
412.482	16.659	1031.269	775.359
413.496	16.757	1030.876	775.444
414.511	16.766	1030.383	775.046
415.526	16.881	1029.794	775.060
416.540	16.709	1029.809	774.217
417.555	16.796	1029.208	774.092
418.569	16.811	1028.288	773.401
419.584	16.918	1027.675	773.360
420.599	16.749	1027.718	772.550
421.613	101.019	1318.342	1457.024
422.628	92.354	1360.673	1457.133
