DTS Sentinel unit serial number:	SN413079Multiplexer serial number:	ORYXHardware model number:	OX4-SRSoftware version number:	ORYX F/W v4.00 Oryx Data Collector v3.7.2.0data status	okinstallation	princeton_trtdifferential loss correction	single-endedforward channel	channel 2reverse channel	N/Adate	2019/09/14time	09:03:35forward acquisition time	60.00reverse acquisition time	0.00gamma	496.2192k internal	0.2324k external	0.2324temperature offset calibration	1.0124default loss term (dB/km)	0.3790temperature slope calibration	1.0000multiplexer offset coefficient	1.0000multiplexer slope coefficient	1.0000fibre end	0.00T internal ref (°C)	30.09T ext. ref 1 (°C)	3.74T ext. ref 2 (°C)	28.49length (m)	temperature (°C)	Stokes	anti-Stokes-747.200	-81.464	-0.468	0.156
-746.185	-79.330	-0.601	-0.206
-745.171	263.090	-0.171	0.301
-744.156	-55.447	-0.259	0.117
-743.142	-200.000	0.009	-0.096
-742.127	83.960	-0.185	-0.204
-741.112	-11.181	0.161	0.107
-740.098	800.000	-0.133	0.399
-739.083	101.880	0.189	-0.223
-738.069	-61.458	-0.365	0.155
-737.054	138.063	-0.005	0.006
-736.039	-71.259	-0.124	-0.047
-735.025	46.512	0.051	-0.048
-734.010	-83.847	0.123	0.040
-732.996	112.760	-0.116	-0.142
-731.981	10.863	0.224	0.173
-730.966	800.000	-0.068	0.208
-729.952	38.951	-0.083	0.075
-728.937	22.399	0.085	0.070
-727.923	-47.148	-0.415	-0.204
-726.908	-68.815	-0.020	0.008
-725.894	49.378	-0.174	0.165
-724.879	12.398	0.116	0.090
-723.864	-52.801	-0.165	0.077
-722.850	-200.000	-0.005	0.183
-721.835	-200.000	0.059	0.290
-720.821	-44.991	-0.365	-0.183
-719.806	-135.163	0.305	0.037
-718.791	52.666	0.096	0.092
-717.777	695.288	0.095	-0.251
-716.762	-28.922	-0.114	-0.066
-715.748	43.266	0.167	-0.154
-714.733	-84.911	-0.349	0.110
-713.718	358.677	-0.044	-0.089
-712.704	800.000	-0.118	-0.337
-711.689	593.049	-0.041	-0.102
-710.675	800.000	-0.053	-0.183
-709.660	100.677	-0.066	-0.077
-708.645	26.686	-0.242	-0.205
-707.631	-11.600	0.048	-0.032
-706.616	-18.381	-0.185	-0.117
-705.602	64.478	0.160	0.163
-704.587	133.286	-0.179	-0.233
-703.572	609.802	-0.030	-0.076
-702.558	-200.000	-0.019	-0.145
-701.543	420.457	0.171	-0.370
-700.529	-165.940	0.094	-0.004
-699.514	800.000	-0.077	-0.235
-698.499	-58.057	-0.179	-0.078
-697.485	800.000	0.029	0.104
-696.470	238.712	0.112	0.188
-695.456	800.000	-0.030	0.122
-694.441	800.000	-0.096	-0.350
-693.426	-120.915	0.449	0.076
-692.412	-100.136	-0.146	-0.037
-691.397	145.858	-0.236	-0.319
-690.383	-30.480	-0.091	0.052
-689.368	83.986	-0.192	-0.212
-688.354	-121.350	-0.127	-0.021
-687.339	-200.000	0.027	-0.270
-686.324	800.000	-0.112	-0.387
-685.310	-96.664	0.192	0.051
-684.295	-133.446	0.279	0.035
-683.281	800.000	-0.042	0.182
-682.266	-55.301	0.244	0.110
-681.251	-17.475	-0.121	-0.077
-680.237	489.565	-0.044	-0.102
-679.222	184.421	-0.127	0.190
-678.208	-70.373	-0.334	-0.128
-677.193	-200.000	0.010	-0.268
-676.178	58.458	-0.223	0.220
-675.164	-200.000	0.005	0.041
-674.149	-105.342	-0.057	0.013
-673.135	-61.689	-0.040	-0.017
-672.120	-200.000	-0.053	0.413
-671.105	21.334	-0.189	0.154
-670.091	800.000	-0.070	0.207
-669.076	32.879	-0.136	0.119
-668.062	-15.524	-0.085	0.055
-667.047	221.688	0.092	-0.149
-666.032	-56.843	-0.086	-0.038
-665.018	518.793	0.113	-0.266
-664.003	102.175	0.101	-0.118
-662.989	-4.824	-0.137	0.095
-661.974	-68.950	0.280	0.109
-660.959	-94.604	0.015	-0.004
-659.945	-200.000	0.001	0.235
-658.930	-200.000	-0.015	0.144
-657.916	800.000	0.026	0.101
-656.901	-27.378	-0.274	-0.160
-655.886	156.992	-0.208	-0.290
-654.872	-29.383	-0.378	-0.218
-653.857	-141.420	0.243	0.025
-652.843	-99.820	-0.127	-0.032
-651.828	-200.000	-0.028	-0.287
-650.814	125.488	0.169	0.214
-649.799	800.000	-0.104	0.300
-648.784	293.705	-0.084	0.154
-647.770	14.122	-0.154	0.121
-646.755	-51.224	-0.123	0.058
-645.741	24.929	-0.180	-0.150
-644.726	193.341	0.202	-0.307
-643.711	800.000	0.042	-0.132
-642.697	-99.231	0.330	0.084
-641.682	0.847	-0.418	-0.301
-640.668	-112.848	-0.149	0.030
-639.653	-70.243	-0.233	-0.089
-638.638	-14.708	0.128	-0.083
-637.624	543.620	0.122	-0.293
-636.609	-200.000	0.001	0.126
-635.595	-200.000	-0.057	-0.304
-634.580	349.532	-0.054	0.106
-633.565	-153.844	0.094	0.006
-632.551	248.737	0.090	0.154
-631.536	-65.800	-0.396	-0.159
-630.522	-200.000	-0.034	0.293
-629.507	23.214	0.151	0.124
-628.492	-81.169	0.182	-0.060
-627.478	800.000	0.080	0.256
-626.463	-110.267	-0.103	-0.022
-625.449	-12.308	-0.082	-0.054
-624.434	631.247	-0.093	0.237
-623.419	68.175	0.113	-0.117
-622.405	-33.472	0.121	-0.067
-621.390	-102.865	-0.276	-0.066
-620.376	532.224	-0.169	-0.402
-619.361	-144.698	-0.093	-0.009
-618.346	-168.527	-0.439	0.017
-617.332	-200.000	0.033	0.232
-616.317	800.000	-0.079	-0.241
-615.303	800.000	0.081	-0.245
-614.288	-60.026	-0.238	0.102
-613.273	800.000	-0.039	0.141
-612.259	-78.056	-0.207	0.072
-611.244	800.000	0.141	0.433
-610.230	-145.401	0.246	-0.022
-609.215	800.000	-0.060	-0.215
-608.201	395.771	0.055	-0.115
-607.186	-130.168	-0.163	-0.022
-606.171	-140.019	0.205	-0.022
-605.157	-28.302	-0.307	0.178
-604.142	800.000	-0.090	-0.382
-603.128	6.169	0.232	-0.173
-602.113	-73.510	-0.207	-0.076
-601.098	13.579	0.162	-0.126
-600.084	454.596	-0.063	0.141
-599.069	-68.338	0.236	-0.092
-598.055	-103.104	-0.318	0.076
-597.040	-200.000	-0.019	-0.333
-596.025	-26.865	-0.192	-0.113
-595.011	800.000	0.034	0.135
-593.996	423.454	-0.088	0.191
-592.982	-200.000	-0.019	0.139
-591.967	-4.683	-0.126	-0.087
-590.952	102.718	0.131	-0.154
-589.938	-94.054	0.174	0.048
-588.923	800.000	-0.026	0.085
-587.909	76.486	-0.072	-0.077
-586.894	-112.652	-0.295	0.059
-585.879	-200.000	0.100	0.489
-584.865	-169.598	0.072	0.003
-583.850	125.433	-0.075	0.095
-582.836	254.920	0.089	0.152
-581.821	-58.588	-0.310	-0.135
-580.806	-110.248	0.217	0.045
-579.792	149.777	0.210	-0.286
-578.777	800.000	-0.070	-0.221
-577.763	151.362	-0.103	-0.141
-576.748	-200.000	0.012	-0.081
-575.733	-55.998	-0.186	0.083
-574.719	-145.497	0.341	-0.031
-573.704	371.999	-0.060	0.122
-572.690	29.245	-0.123	0.105
-571.675	800.000	0.077	-0.296
-570.661	-150.638	0.091	0.007
-569.646	-200.000	-0.019	-0.114
-568.631	-61.502	-0.369	-0.155
-567.617	166.487	0.052	-0.074
-566.602	-47.736	-0.316	-0.154
-565.588	122.013	-0.240	-0.300
-564.573	-134.012	0.305	-0.038
-563.558	-200.000	-0.039	0.186
-562.544	-73.575	-0.205	0.075
-561.529	127.208	-0.021	0.026
-560.515	-103.851	-0.080	-0.019
-559.500	198.596	0.111	0.170
-558.485	-157.769	0.348	0.021
-557.471	-159.158	-0.343	0.019
-556.456	35.349	-0.224	0.197
-555.442	-35.633	-0.253	0.138
-554.427	56.234	0.170	0.165
-553.412	800.000	-0.046	-0.155
-552.398	-18.478	-0.053	-0.033
-551.383	-18.257	0.087	0.054
-550.369	-183.650	0.322	-0.006
-549.354	-35.955	0.090	0.049
-548.339	4.701	0.302	-0.222
-547.325	-63.373	-0.343	0.141
-546.310	-13.532	-0.317	0.206
-545.296	800.000	-0.085	-0.372
-544.281	800.000	-0.023	0.095
-543.266	114.046	-0.139	0.170
-542.252	83.889	-0.082	-0.089
-541.237	-200.000	-0.013	-0.180
-540.223	-200.000	-0.010	-0.119
-539.208	-42.762	-0.340	-0.173
-538.193	13.453	-0.139	-0.108
-537.179	-59.468	-0.401	-0.172
-536.164	-86.837	-0.096	0.029
-535.150	-200.000	0.063	-0.316
-534.135	-200.000	0.022	-0.209
-533.121	130.833	-0.107	-0.138
-532.106	-66.708	0.175	0.070
-531.091	-68.219	0.370	-0.144
-530.077	-200.000	-0.030	0.146
-529.062	-53.816	-0.213	-0.097
-528.048	225.429	0.194	-0.315
-527.033	-200.000	-0.032	-0.206
-526.018	105.772	0.213	0.253
-525.004	63.106	0.046	-0.046
-523.989	494.435	0.044	-0.101
-522.975	125.647	0.263	-0.332
-521.960	-200.000	-0.004	-0.037
-520.945	265.725	-0.086	-0.151
-519.931	-2.332	-0.104	-0.073
-518.916	-106.583	0.283	0.063
-517.902	193.163	-0.098	-0.149
-516.887	6.143	0.108	0.080
-515.872	-90.931	-0.231	0.067
-514.858	800.000	0.037	0.152
-513.843	18.548	-0.075	-0.060
-512.829	-70.177	-0.313	-0.119
-511.814	19.633	0.060	0.049
-510.799	-200.000	-0.023	0.188
-509.785	147.105	0.109	0.146
-508.770	312.053	0.107	-0.201
-507.756	-30.468	0.151	-0.086
-506.741	-50.331	0.163	0.077
-505.726	-200.000	0.014	0.083
-504.712	108.200	-0.011	0.013
-503.697	-60.761	0.242	0.103
-502.683	-177.958	-0.170	-0.004
-501.668	280.835	0.169	0.303
-500.653	473.226	0.109	0.246
-499.639	12.342	0.119	0.091
-498.624	745.717	0.076	0.203
-497.610	-62.843	0.089	-0.037
-496.595	-89.524	-0.085	-0.025
-495.581	-52.675	-0.281	0.130
-494.566	-200.000	-0.019	0.419
-493.551	542.763	0.150	0.357
-492.537	95.575	-0.098	-0.112
-491.522	611.326	-0.064	0.160
-490.508	800.000	-0.018	0.077
-489.493	-21.022	0.091	-0.056
-488.478	97.395	0.054	0.062
-487.464	-15.810	-0.158	0.100
-486.449	-33.001	-0.154	0.086
-485.435	20.519	0.144	0.117
-484.420	-4.314	0.283	0.196
-483.405	50.412	0.201	-0.190
-482.391	-39.339	-0.308	-0.162
-481.376	-8.083	0.302	-0.203
-480.362	-200.000	0.008	0.099
-479.347	-61.711	-0.078	-0.033
-478.332	-97.099	0.266	0.070
-477.318	191.084	0.114	0.171
-476.303	-160.184	0.341	-0.018
-475.289	-86.122	-0.072	0.022
-474.274	800.000	0.068	0.197
-473.259	-192.288	-0.223	-0.002
-472.245	-142.129	0.250	-0.025
-471.230	-1.786	0.297	-0.209
-470.216	59.318	0.295	-0.291
-469.201	-200.000	-0.003	-0.221
-468.186	378.868	0.036	0.073
-467.172	208.272	0.198	-0.309
-466.157	-69.560	-0.320	0.122
-465.143	101.626	-0.129	0.150
-464.128	-80.903	0.444	-0.147
-463.113	-28.302	-0.223	0.129
-462.099	-200.000	0.009	-0.171
-461.084	-26.062	0.244	-0.143
-460.070	-146.758	0.145	-0.013
-459.055	-142.933	-0.184	-0.018
-458.040	-69.210	-0.060	0.023
-457.026	800.000	0.040	0.169
-456.011	449.233	-0.101	-0.222
-454.997	-117.547	-0.459	-0.083
-453.982	-50.029	0.129	-0.061
-452.968	-200.000	0.141	0.000
-451.953	-86.236	0.460	-0.142
-450.938	-124.242	0.221	-0.034
-449.924	-200.000	0.017	-0.452
-448.909	-200.000	-0.021	-0.102
-447.895	-69.552	0.346	0.132
-446.880	53.694	0.235	0.225
-445.865	800.000	-0.037	-0.159
-444.851	-132.765	-0.162	-0.021
-443.836	-56.184	0.511	-0.227
-442.822	-200.000	0.022	0.137
-441.807	800.000	-0.071	0.210
-440.792	800.000	-0.045	0.192
-439.778	305.986	0.018	-0.034
-438.763	18.895	0.061	-0.049
-437.749	800.000	-0.036	-0.125
-436.734	-46.849	-0.282	-0.138
-435.719	430.754	0.083	0.180
-434.705	137.751	0.085	0.111
-433.690	-200.000	0.053	-0.309
-432.676	800.000	-0.049	-0.192
-431.661	-200.000	0.031	-0.237
-430.646	493.318	-0.117	-0.267
-429.632	54.973	0.152	0.146
-428.617	-200.000	0.005	-0.056
-427.603	-136.665	0.083	-0.010
-426.588	-130.797	-0.224	0.030
-425.573	-95.627	0.074	-0.020
-424.559	-98.771	-0.108	-0.027
-423.544	234.423	0.120	0.198
-422.530	78.363	0.216	-0.229
-421.515	-76.881	-0.329	-0.115
-420.500	-157.531	0.205	0.012
-419.486	-82.322	0.266	0.086
-418.471	355.475	-0.021	-0.043
-417.457	-200.000	-0.104	-0.000
-416.442	131.279	0.100	-0.128
-415.428	-19.424	-0.317	-0.196
-414.413	-131.069	-0.276	-0.037
-413.398	-94.930	0.315	-0.085
-412.384	-119.203	0.320	0.056
-411.369	-19.628	-0.203	-0.125
-410.355	32.477	-0.288	-0.248
-409.340	800.000	0.043	0.142
-408.325	-11.334	0.168	0.110
-407.311	-200.000	0.044	-0.326
-406.296	-86.830	-0.196	-0.060
-405.282	-171.744	0.205	-0.007
-404.267	-30.931	0.198	0.111
-403.252	288.934	-0.122	-0.220
-402.238	-192.453	-0.163	-0.002
-401.223	-91.711	0.220	0.062
-400.209	-4.714	0.178	0.122
-399.194	-117.077	0.045	0.008
-398.179	-65.465	0.428	0.171
-397.165	60.238	-0.359	-0.354
-396.150	43.853	-0.149	-0.136
-395.136	-200.000	0.247	-0.000
-394.121	-144.190	-0.080	-0.007
-393.106	583.751	0.100	-0.245
-392.092	-52.296	0.118	0.055
-391.077	247.137	-0.336	0.565
-390.063	-2.692	0.206	-0.143
-389.048	-200.000	0.052	0.395
-388.033	128.058	0.092	-0.117
-387.019	-73.974	-0.281	-0.102
-386.004	6.486	0.177	0.131
-384.990	315.926	0.106	0.198
-383.975	480.462	0.073	0.164
-382.960	-71.315	-0.200	-0.075
-381.946	277.237	0.114	0.202
-380.931	112.573	0.103	-0.125
-379.917	287.810	-0.191	-0.343
-378.902	-108.110	-0.040	-0.009
-377.888	-23.281	-0.173	0.103
-376.873	-200.000	0.069	-0.330
-375.858	-168.228	-0.142	0.005
-374.844	35.123	-0.068	-0.060
-373.829	-90.265	0.230	-0.066
-372.815	416.508	0.092	-0.195
-371.800	-100.233	-0.173	0.043
-370.785	-74.462	-0.203	0.073
-369.771	367.518	-0.153	-0.308
-368.756	-44.770	-0.226	0.112
-367.742	619.736	-0.061	-0.152
-366.727	-59.893	-0.385	-0.164
-365.712	170.723	-0.228	0.326
-364.698	41.346	0.140	0.126
-363.683	-32.120	-0.235	0.130
-362.669	-155.356	-0.136	-0.009
-361.654	-200.000	-0.024	-0.145
-360.639	-130.948	-0.191	-0.025
-359.625	-65.010	0.151	0.061
-358.610	10.687	0.057	0.043
-357.596	261.003	0.119	0.204
-356.581	800.000	0.043	-0.139
-355.566	139.487	-0.253	0.331
-354.552	-200.000	-0.007	-0.147
-353.537	45.837	0.064	-0.059
-352.523	-200.000	-0.002	0.138
-351.508	39.019	-0.325	0.289
-350.493	-155.121	0.076	-0.005
-349.479	107.834	0.154	0.183
-348.464	74.509	0.027	0.028
-347.450	-200.000	0.020	0.121
-346.435	14.935	-0.137	0.106
-345.420	5.159	0.217	-0.159
-344.406	-100.299	0.364	-0.090
-343.391	-74.829	0.289	-0.103
-342.377	656.565	-0.104	0.265
-341.362	-76.192	-0.157	-0.055
-340.348	-200.000	0.040	0.217
-339.333	-31.319	0.149	-0.083
-338.318	-110.449	0.425	-0.088
-337.304	-103.820	-0.233	-0.054
-336.289	-200.000	0.015	0.281
-335.275	-5.628	0.277	-0.189
-334.260	800.000	-0.018	-0.072
-333.245	800.000	0.089	0.305
-332.231	-115.742	-0.286	0.053
-331.216	121.640	-0.216	-0.268
-330.202	800.000	-0.075	-0.301
-329.187	285.566	0.033	-0.060
-328.172	-119.442	-0.250	0.043
-327.158	93.911	0.324	0.365
-326.143	-13.774	-0.098	0.063
-325.129	-200.000	-0.011	0.097
-324.114	85.088	0.208	0.227
-323.099	-200.000	-0.034	0.218
-322.085	-200.000	0.015	-0.146
-321.070	-200.000	-0.015	0.224
-320.056	240.345	0.138	0.228
-319.041	-24.180	0.310	-0.184
-318.026	-34.468	-0.069	-0.038
-317.012	266.282	-0.025	-0.043
-315.997	-87.477	-0.248	0.074
-314.983	-51.351	0.133	-0.062
-313.968	-37.176	0.281	0.149
-312.953	142.676	0.056	0.074
-311.939	-165.366	-0.365	-0.016
-310.924	47.348	0.284	-0.262
-309.910	800.000	-0.117	0.358
-308.895	36.588	0.225	0.197
-307.880	-102.990	0.283	-0.067
-306.866	-104.071	-0.094	0.022
-305.851	-200.000	-0.028	0.379
-304.837	-27.382	-0.465	0.268
-303.822	800.000	-0.061	-0.186
-302.807	-72.511	-0.261	-0.096
-301.793	-35.402	-0.183	0.099
-300.778	586.097	-0.126	0.308
-299.764	-160.775	-0.247	0.013
-298.749	-169.509	-0.124	-0.004
-297.735	-132.107	-0.051	0.007
-296.720	40.878	-0.273	0.245
-295.705	58.676	0.278	-0.271
-294.691	-39.260	0.125	0.065
-293.676	42.831	-0.269	-0.243
-292.662	-48.922	-0.175	0.083
-291.647	49.569	0.080	0.075
-290.632	-200.000	0.004	-0.022
-289.618	-95.676	-0.080	-0.021
-288.603	800.000	0.026	-0.090
-287.589	-54.994	0.307	-0.137
-286.574	-42.251	0.082	0.042
-285.559	-68.244	-0.263	0.101
-284.545	-200.000	-0.034	-0.243
-283.530	-173.085	0.237	0.007
-282.516	30.029	0.089	0.075
-281.501	-53.840	0.150	-0.068
-280.486	-97.365	0.252	-0.065
-279.472	-45.940	0.251	-0.123
-278.457	-110.990	0.143	0.029
-277.443	401.074	-0.241	-0.502
-276.428	-200.000	0.047	-0.297
-275.413	29.382	0.202	0.170
-274.399	-114.650	-0.317	-0.060
-273.384	-16.971	0.233	-0.146
-272.370	-200.000	-0.021	-0.296
-271.355	-28.698	0.148	0.085
-270.340	-130.149	0.106	0.014
-269.326	-23.007	-0.467	-0.279
-268.311	69.576	-0.086	0.087
-267.297	-200.000	0.029	0.173
-266.282	-164.709	-0.404	0.018
-265.267	-69.123	0.060	0.023
-264.253	-7.433	0.219	-0.147
-263.238	131.671	0.154	-0.196
-262.224	121.181	-0.093	0.115
-261.209	2.043	0.219	0.156
-260.195	370.878	0.065	-0.131
-259.180	-47.164	-0.073	-0.035
-258.165	108.238	-0.001	-0.001
-257.151	-15.371	0.118	0.075
-256.136	-200.000	-0.009	-0.362
-255.122	3.696	0.114	-0.082
-254.107	800.000	-0.101	-0.311
-253.092	-200.000	-0.023	0.230
-252.078	32.547	0.174	0.149
-251.063	-200.000	0.079	0.474
-250.049	125.361	0.127	-0.159
-249.034	22.422	0.067	-0.054
-248.019	-49.737	0.035	-0.016
-247.005	48.925	-0.265	-0.246
-245.990	342.952	0.080	-0.156
-244.976	-200.000	0.013	0.114
-243.961	-4.128	-0.315	-0.216
-242.946	-111.401	-0.129	0.026
-241.932	-28.591	0.090	-0.051
-240.917	-200.000	0.031	0.284
-239.903	-66.841	-0.413	-0.162
-238.888	197.531	-0.197	0.298
-237.873	-200.000	0.017	-0.148
-236.859	-74.061	0.206	0.074
-235.844	-49.960	0.147	-0.069
-234.830	320.387	-0.004	0.008
-233.815	-19.592	-0.211	-0.129
-232.800	800.000	0.134	0.432
-231.786	586.152	-0.120	0.293
-230.771	166.080	0.056	0.079
-229.757	-200.000	-0.036	0.168
-228.742	-86.718	-0.043	-0.013
-227.727	-200.000	0.016	0.217
-226.713	-200.000	0.008	-0.287
-225.698	800.000	0.059	-0.238
-224.684	-37.838	-0.077	-0.041
-223.669	-200.000	0.003	-0.241
-222.655	800.000	-0.028	-0.077
-221.640	800.000	0.123	0.415
-220.625	-200.000	-0.014	0.457
-219.611	-54.781	0.196	-0.087
-218.596	-92.508	-0.209	0.058
-217.582	188.821	0.165	0.245
-216.567	-6.939	0.266	0.178
-215.552	98.730	0.209	0.238
-214.538	-114.920	0.309	0.058
-213.523	-200.000	-0.035	-0.481
-212.509	800.000	-0.095	-0.309
-211.494	-59.773	0.402	0.170
-210.479	103.810	0.170	0.197
-209.465	-112.539	0.332	0.066
-208.450	-200.000	-0.019	-0.101
-207.436	-103.511	-0.183	-0.043
-206.421	38.391	0.170	0.150
-205.406	-200.000	0.023	-0.230
-204.392	-200.000	0.051	0.575
-203.377	-200.000	0.011	0.169
-202.363	170.792	-0.236	-0.334
-201.348	-129.792	-0.446	-0.061
-200.333	-200.000	-0.038	0.191
-199.319	-42.856	0.411	-0.206
-198.304	-98.467	-0.380	-0.096
-197.290	-200.000	0.042	0.214
-196.275	-130.919	0.124	-0.016
-195.260	-200.000	-0.018	-0.148
-194.246	-200.000	0.040	-0.207
-193.231	-200.000	-0.002	-0.133
-192.217	-200.000	-0.040	0.284
-191.202	91.070	-0.074	0.082
-190.187	702.544	-0.096	0.249
-189.173	155.675	-0.113	0.154
-188.158	655.079	0.031	-0.079
-187.144	-136.611	0.374	-0.043
-186.129	113.797	0.136	0.164
-185.114	49.866	-0.104	0.097
-184.100	-156.128	0.167	-0.010
-183.085	126.407	-0.066	-0.082
-182.071	-128.648	-0.449	-0.063
-181.056	-76.974	0.035	0.012
-180.042	11.332	-0.322	0.244
-179.027	677.863	0.142	0.364
-178.012	800.000	0.043	0.168
-176.998	-200.000	0.018	0.261
-175.983	78.019	-0.128	-0.135
-174.969	800.000	0.084	0.276
-173.954	-79.249	0.234	-0.078
-172.939	800.000	-0.074	0.238
-171.925	4.333	-0.152	-0.110
-170.910	-200.000	-0.017	0.114
-169.896	34.173	0.187	-0.161
-168.881	-99.496	-0.236	0.059
-167.866	800.000	-0.080	0.245
-166.852	-136.417	-0.230	-0.026
-165.837	-114.011	0.083	0.016
-164.823	383.634	0.030	0.061
-163.808	448.914	0.037	-0.080
-162.793	-140.527	-0.444	-0.046
-161.779	706.117	-0.008	-0.021
-160.764	-17.173	-0.074	0.046
-159.750	141.416	0.193	0.252
-158.735	-200.000	-0.032	0.167
-157.720	-117.793	0.045	-0.008
-156.706	204.637	-0.076	-0.117
-155.691	607.840	-0.053	-0.131
-154.677	-121.793	-0.068	-0.011
-153.662	-89.788	0.571	-0.165
-152.647	-67.793	-0.050	0.019
-151.633	726.169	0.121	0.318
-150.618	418.251	-0.049	-0.103
-149.604	-127.815	-0.256	-0.036
-148.589	-200.000	0.000	-0.148
-147.574	520.156	0.064	-0.148
-146.560	-78.044	-0.178	-0.061
-145.545	-99.367	0.157	0.039
-144.531	800.000	0.054	-0.233
-143.516	800.000	0.039	-0.137
-142.502	181.529	-0.188	-0.273
-141.487	214.588	0.107	-0.166
-140.472	-72.402	0.153	-0.056
-139.458	721.569	0.127	0.332
-138.443	102.309	-0.075	0.086
-137.429	-200.000	-0.030	-0.383
-136.414	-200.000	0.016	0.109
-135.399	800.000	0.045	-0.162
-134.385	-10.439	0.032	-0.021
-133.370	264.713	-0.162	-0.278
-132.356	3.766	-0.240	0.173
-131.341	-62.105	-0.234	-0.096
-130.326	195.877	-0.187	0.281
-129.312	118.629	0.123	0.150
-128.297	800.000	0.018	-0.058
-127.283	-151.226	-0.184	-0.014
-126.268	54.561	0.242	-0.230
-125.253	15.310	0.256	-0.198
-124.239	-200.000	-0.025	-0.388
-123.224	800.000	0.072	0.228
-122.210	34.853	-0.141	0.121
-121.195	694.302	-0.048	-0.125
-120.180	41.470	-0.257	0.230
-119.166	-200.000	0.009	0.251
-118.151	-200.000	0.021	0.234
-117.137	-200.000	0.004	-0.160
-116.122	-200.000	0.003	-0.037
-115.107	-51.376	0.160	-0.074
-114.093	-200.000	0.019	0.153
-113.078	106.423	0.038	-0.044
-112.064	800.000	0.057	0.222
-111.049	-109.906	0.211	-0.044
-110.034	52.205	-0.218	-0.204
-109.020	-26.518	-0.085	-0.049
-108.005	800.000	0.029	0.118
-106.991	57.433	-0.267	0.257
-105.976	84.043	0.257	-0.277
-104.962	-24.980	0.154	0.090
-103.947	-200.000	-0.009	0.156
-102.932	-183.673	0.173	0.003
-101.918	22.215	-0.261	-0.210
-100.903	-20.534	0.242	0.146
-99.889	800.000	0.048	-0.159
-98.874	219.905	-0.054	0.085
-97.859	34.781	0.166	0.143
-96.845	328.386	-0.033	-0.063
-95.830	632.404	-0.061	0.153
-94.816	-200.000	0.045	0.360
-93.801	156.294	0.125	0.170
-92.786	-46.761	-0.141	-0.068
-91.772	800.000	0.026	-0.104
-90.757	800.000	0.066	-0.243
-89.743	-196.987	0.075	-0.000
-88.728	-20.530	-0.133	-0.081
-87.713	-184.042	-0.579	-0.010
-86.699	566.685	0.185	0.441
-85.684	-200.000	0.025	0.174
-84.670	23.202	-0.188	0.152
-83.655	-19.348	0.141	0.086
-82.640	23.556	-0.276	0.224
-81.626	-168.670	0.190	0.007
-80.611	-123.024	-0.334	-0.053
-79.597	83.245	-0.214	-0.229
-78.582	-99.609	0.072	0.018
-77.567	71.146	-0.157	0.160
-76.553	126.254	-0.182	0.226
-75.538	-106.630	-0.152	0.033
-74.524	-59.947	0.281	-0.118
-73.509	728.383	0.049	0.130
-72.494	518.676	-0.062	0.142
-71.480	800.000	-0.079	0.293
-70.465	-139.385	0.045	-0.005
-69.451	221.715	0.079	0.125
-68.436	141.613	-0.183	0.238
-67.422	800.000	0.028	0.084
-66.407	800.000	-0.050	-0.187
-65.392	187.917	0.164	-0.241
-64.378	-29.320	-0.239	-0.134
-63.363	94.909	-0.111	0.124
-62.349	107.709	0.395	0.462
-61.334	39.506	-1.031	-0.908
-60.319	-94.353	0.523	0.140
-59.305	800.000	-0.270	-0.906
-58.290	466.431	0.521	1.148
-57.276	347.602	0.847	1.639
-56.261	-200.000	100.393	580.831
-55.246	531.611	1438.738	3343.982
-54.232	181.590	2656.512	3841.096
-53.217	107.817	2309.401	2703.052
-52.203	39.265	1920.870	1689.322
-51.188	33.128	1707.105	1454.234
-50.173	30.602	1662.515	1397.239
-49.159	48.173	1712.798	1573.951
-48.144	49.231	1728.933	1596.785
-47.130	32.849	1688.152	1435.740
-46.115	30.229	1673.433	1403.370
-45.100	30.018	1669.007	1398.015
-44.086	29.904	1666.828	1395.271
-43.071	30.005	1663.734	1393.390
-42.057	29.874	1661.611	1390.571
-41.042	29.974	1659.170	1389.222
-40.027	29.904	1657.161	1386.959
-39.013	29.949	1655.278	1385.668
-37.998	29.953	1653.690	1384.315
-36.984	29.954	1652.917	1383.621
-35.969	30.089	1651.081	1383.031
-34.954	30.185	1648.987	1381.939
-33.940	30.090	1647.775	1380.164
-32.925	30.054	1646.152	1378.478
-31.911	30.021	1644.746	1377.000
-30.896	30.173	1641.764	1375.579
-29.881	30.135	1640.090	1373.842
-28.867	30.142	1638.773	1372.732
-27.852	30.147	1637.267	1371.454
-26.838	30.065	1635.999	1369.732
-25.823	30.105	1634.587	1368.790
-24.809	30.177	1633.239	1368.137
-23.794	30.087	1632.030	1366.405
-22.779	30.154	1630.392	1365.476
-21.765	30.123	1628.727	1363.801
-20.750	30.008	1627.318	1361.723
-19.736	30.127	1626.059	1361.489
-18.721	30.107	1624.628	1360.091
-17.706	30.133	1622.972	1358.837
-16.692	30.049	1621.405	1356.856
-15.677	30.123	1620.196	1356.336
-14.663	30.184	1618.411	1355.231
-13.648	30.128	1617.647	1354.128
-12.633	30.112	1615.031	1351.768
-11.619	30.050	1614.341	1350.683
-10.604	30.030	1612.818	1349.210
-9.590	30.225	1611.195	1349.219
-8.575	30.171	1610.173	1347.913
-7.560	30.132	1609.100	1346.680
-6.546	30.168	1607.697	1345.717
-5.531	30.079	1606.939	1344.383
-4.517	30.108	1605.302	1343.171
-3.502	30.127	1604.328	1342.435
-2.487	30.229	1602.812	1341.858
-1.473	30.141	1591.631	1331.810
-0.458	28.240	1574.193	1303.641
0.556	26.597	1576.588	1279.988
1.571	24.677	1602.144	1286.817
2.586	24.071	1614.967	1292.600
3.600	20.799	1559.171	1224.854
4.615	11.971	1445.881	1077.923
5.629	4.850	1382.823	985.871
6.644	3.715	1375.605	973.491
7.659	3.739	1373.966	972.395
8.673	3.677	1372.656	970.992
9.688	3.839	1370.397	970.328
10.702	3.672	1368.069	967.544
11.717	6.973	1374.702	992.902
12.731	15.292	1389.816	1056.346
13.746	20.440	1397.644	1094.733
14.761	20.452	1396.218	1093.596
15.775	19.846	1393.627	1087.656
16.790	18.719	1391.577	1078.886
17.804	17.820	1389.416	1071.470
18.819	17.486	1388.158	1068.310
19.834	17.205	1387.161	1065.687
20.848	17.058	1385.715	1063.557
21.863	16.862	1384.436	1061.255
22.877	16.662	1383.400	1059.116
23.892	16.667	1382.285	1058.198
24.907	16.668	1381.354	1057.402
25.921	16.737	1380.762	1057.286
26.936	16.752	1379.776	1056.529
27.950	16.703	1378.834	1055.406
28.965	16.919	1377.272	1055.466
29.980	16.903	1376.769	1054.887
30.994	17.005	1375.690	1054.602
32.009	17.001	1374.807	1053.807
33.023	16.970	1373.504	1052.520
34.038	16.948	1371.882	1051.047
35.053	16.942	1370.612	1049.945
36.067	16.898	1369.672	1048.861
37.082	16.880	1368.857	1048.032
38.096	16.919	1367.606	1047.222
39.111	16.989	1366.883	1047.011
40.126	16.911	1365.871	1045.659
41.140	16.591	1365.227	1043.102
42.155	16.530	1364.677	1042.212
43.169	16.624	1364.209	1042.342
44.184	16.493	1364.085	1041.350
45.199	16.567	1363.595	1041.341
46.213	16.665	1363.082	1041.454
47.228	16.843	1362.080	1041.695
48.242	16.871	1360.939	1040.903
49.257	16.849	1358.857	1039.081
50.271	16.791	1357.811	1037.837
51.286	16.844	1356.747	1037.253
52.301	16.918	1355.198	1036.430
53.315	16.699	1354.526	1034.488
54.330	16.678	1353.479	1033.469
55.344	16.671	1351.860	1032.096
56.359	16.716	1350.748	1031.429
57.374	16.577	1350.269	1030.125
58.388	16.518	1349.659	1029.210
59.403	16.482	1348.878	1028.306
60.417	16.514	1347.920	1027.680
61.432	16.468	1347.324	1026.857
62.447	16.448	1346.133	1025.737
63.461	16.332	1345.102	1024.153
64.476	16.329	1343.687	1022.970
65.490	16.280	1342.905	1021.986
66.505	16.436	1341.040	1021.421
67.520	16.454	1339.985	1020.635
68.534	16.488	1338.814	1019.859
69.549	16.417	1338.086	1018.781
70.563	16.353	1337.038	1017.511
71.578	16.200	1336.136	1015.811
72.593	16.279	1334.595	1015.028
73.607	16.161	1334.272	1013.983
74.622	16.309	1333.256	1014.009
75.636	16.309	1333.098	1013.798
76.651	16.315	1331.974	1012.889
77.666	16.274	1331.712	1012.356
78.680	16.381	1330.788	1012.206
79.695	16.401	1330.004	1011.639
80.709	16.467	1329.828	1011.811
81.724	16.497	1328.722	1011.058
82.739	16.746	1327.513	1011.538
83.753	16.700	1327.031	1010.807
84.768	16.752	1326.185	1010.383
85.782	16.935	1324.910	1010.412
86.797	16.929	1323.810	1009.448
87.812	16.857	1322.395	1007.850
88.826	16.850	1321.260	1006.853
89.841	16.827	1320.223	1005.841
90.855	16.965	1319.176	1005.772
91.870	16.901	1318.523	1004.802
92.884	16.937	1318.030	1004.553
93.899	16.996	1316.746	1003.833
94.914	16.985	1316.472	1003.470
95.928	17.032	1315.543	1002.954
96.943	16.887	1314.448	1001.172
97.957	16.902	1313.409	1000.379
98.972	16.917	1312.361	999.580
99.987	16.924	1311.555	998.922
101.001	16.928	1310.636	998.158
102.016	16.836	1309.645	996.773
103.030	16.899	1308.772	996.388
104.045	16.913	1307.799	995.647
105.060	16.831	1306.742	994.269
106.074	16.682	1305.077	992.045
107.089	16.524	1303.221	989.620
108.103	16.385	1302.258	987.988
109.118	16.501	1301.054	987.665
110.133	16.528	1299.711	986.717
111.147	16.497	1298.197	985.296
112.162	16.578	1296.742	984.578
113.176	16.585	1296.016	983.979
114.191	16.738	1294.870	983.910
115.206	16.629	1293.938	982.484
116.220	16.639	1292.219	981.150
117.235	16.609	1291.588	980.411
118.249	16.635	1290.236	979.445
119.264	16.615	1288.400	977.851
120.279	16.481	1288.313	976.927
121.293	16.338	1287.228	975.191
122.308	16.478	1285.618	974.691
123.322	16.365	1285.060	973.533
124.337	16.408	1283.907	972.816
125.352	16.449	1282.552	971.942
126.366	16.362	1281.722	970.725
127.381	16.424	1280.552	970.110
128.395	16.403	1279.736	969.289
129.410	16.466	1278.549	968.661
130.424	16.533	1278.186	968.683
131.439	16.473	1276.944	967.318
132.454	16.592	1275.870	967.099
133.468	16.572	1275.029	966.261
134.483	16.544	1274.579	965.673
135.497	16.628	1273.615	965.339
136.512	16.633	1272.221	964.221
137.527	16.660	1271.019	963.379
138.541	16.708	1269.321	962.280
139.556	16.622	1268.638	961.187
140.570	16.796	1267.575	961.287
141.585	16.858	1266.378	960.644
142.600	16.898	1265.604	960.198
143.614	16.898	1264.488	959.266
144.629	17.085	1263.340	959.367
145.643	17.034	1262.243	958.162
146.658	16.844	1261.041	956.094
147.673	16.812	1259.605	954.739
148.687	16.620	1258.366	952.634
149.702	16.635	1257.274	951.811
150.716	16.664	1255.611	950.632
151.731	16.729	1254.564	950.118
152.746	16.712	1253.181	948.889
153.760	16.752	1252.426	948.458
154.775	16.845	1251.206	947.970
155.789	16.860	1250.135	947.162
156.804	16.886	1249.306	946.590
157.819	16.981	1248.319	946.289
158.833	17.029	1247.345	945.736
159.848	17.090	1246.475	945.335
160.862	17.007	1245.766	944.252
161.877	16.840	1244.238	942.081
162.892	16.733	1243.207	940.623
163.906	16.749	1242.418	940.029
164.921	16.758	1241.082	938.986
165.935	16.906	1240.595	939.357
166.950	16.880	1240.104	938.756
167.964	16.941	1238.994	938.172
168.979	16.832	1238.680	937.248
169.994	16.807	1237.733	936.307
171.008	16.958	1236.614	936.213
172.023	17.057	1235.809	936.069
173.037	17.036	1235.429	935.582
174.052	17.074	1234.334	934.879
175.067	16.989	1232.902	933.244
176.081	16.795	1232.335	931.664
177.096	16.811	1231.499	931.039
178.110	16.919	1229.884	930.327
179.125	16.966	1228.531	929.477
180.140	16.988	1227.813	928.972
181.154	17.016	1226.447	928.009
182.169	17.168	1225.215	927.826
183.183	17.084	1224.618	926.834
184.198	17.138	1223.245	926.006
185.213	17.172	1222.200	925.319
186.227	17.191	1220.935	924.386
187.242	17.285	1219.846	923.989
188.256	17.270	1219.288	923.403
189.271	17.295	1218.154	922.599
190.286	17.100	1217.219	920.751
191.300	16.898	1216.080	918.714
192.315	16.852	1215.409	917.874
193.329	16.825	1214.687	917.101
194.344	16.951	1214.311	917.417
195.359	16.910	1213.951	916.844
196.373	17.175	1212.878	917.383
197.388	17.289	1212.318	917.494
198.402	17.478	1211.894	918.112
199.417	17.463	1211.729	917.827
200.432	17.422	1211.060	917.015
201.446	17.514	1209.935	916.580
202.461	17.677	1209.078	916.725
203.475	17.564	1208.004	915.224
204.490	17.482	1206.846	913.825
205.504	17.432	1205.433	912.405
206.519	17.380	1204.130	911.060
207.534	17.399	1203.446	910.563
208.548	17.328	1202.614	909.476
209.563	17.367	1201.574	908.814
210.577	17.536	1200.439	908.779
211.592	17.481	1199.867	907.972
212.607	17.505	1198.999	907.364
213.621	17.603	1197.684	906.807
214.636	17.469	1196.839	905.375
215.650	17.527	1196.357	905.239
216.665	17.664	1195.010	904.868
217.680	17.700	1194.252	904.404
218.694	17.757	1193.574	904.111
219.709	17.641	1192.831	902.855
220.723	17.675	1191.924	902.268
221.738	17.716	1191.407	902.015
222.753	17.675	1190.821	901.275
223.767	17.720	1189.867	900.710
224.782	17.874	1189.357	901.059
225.796	17.809	1188.667	900.112
226.811	17.832	1187.937	899.602
227.826	17.763	1186.848	898.334
228.840	17.656	1186.588	897.495
229.855	17.627	1185.820	896.683
230.869	17.731	1184.932	896.476
231.884	17.650	1183.853	895.158
232.899	17.627	1183.286	894.529
233.913	17.541	1182.694	893.551
234.928	17.555	1181.717	892.806
235.942	17.520	1180.745	891.810
236.957	17.632	1179.849	891.639
237.972	17.605	1179.205	890.933
238.986	17.599	1178.712	890.453
240.001	17.612	1177.969	889.877
241.015	17.717	1176.929	889.560
242.030	17.786	1176.221	889.308
243.045	17.839	1175.503	888.964
244.059	17.784	1174.578	887.899
245.074	17.792	1174.028	887.445
246.088	17.843	1173.195	886.999
247.103	17.873	1172.717	886.717
248.117	17.973	1171.714	886.399
249.132	18.144	1171.021	886.685
250.147	18.287	1170.390	886.870
251.161	18.214	1169.803	885.966
252.176	18.412	1169.488	886.674
253.190	18.289	1169.153	885.704
254.205	18.342	1168.430	885.353
255.220	18.492	1167.683	885.487
256.234	18.411	1166.788	884.308
257.249	18.385	1166.325	883.747
258.263	18.317	1166.057	883.114
259.278	18.491	1164.343	882.633
260.293	18.451	1164.127	882.186
261.307	18.525	1164.087	882.458
262.322	18.400	1163.146	881.024
263.336	18.564	1162.727	881.473
264.351	18.728	1161.465	881.279
265.366	18.681	1160.926	880.549
266.380	18.580	1160.680	879.771
267.395	18.643	1159.230	878.913
268.409	18.455	1158.544	877.357
269.424	18.519	1157.884	877.105
270.439	18.511	1157.446	876.654
271.453	18.435	1156.841	875.729
272.468	18.408	1155.812	874.735
273.482	18.449	1154.573	873.931
274.497	18.442	1154.555	873.802
275.512	18.330	1153.880	872.644
276.526	18.427	1153.270	872.598
277.541	18.455	1152.358	871.974
278.555	18.510	1151.256	871.345
279.570	18.564	1151.004	871.348
280.585	18.718	1150.082	871.355
281.599	18.705	1149.069	870.448
282.614	18.687	1147.784	869.305
283.628	18.647	1146.822	868.295
284.643	18.512	1146.037	866.942
285.657	18.647	1144.947	866.723
286.672	18.573	1144.209	865.715
287.687	18.572	1143.964	865.449
288.701	18.693	1142.670	865.000
289.716	18.690	1141.875	864.311
290.730	18.558	1141.330	863.155
291.745	18.690	1140.514	863.123
292.760	18.664	1140.433	862.854
293.774	18.825	1139.599	862.959
294.789	18.936	1138.739	862.787
295.803	18.908	1138.300	862.238
296.818	18.817	1137.308	860.953
297.833	18.802	1136.368	860.092
298.847	18.764	1135.671	859.297
299.862	18.873	1134.697	859.032
300.876	18.790	1134.393	858.309
301.891	18.967	1133.631	858.540
302.906	19.019	1133.017	858.258
303.920	18.994	1132.526	857.684
304.935	19.172	1131.658	857.840
305.949	19.116	1131.156	857.106
306.964	19.209	1130.612	857.081
307.979	19.084	1129.814	855.775
308.993	19.072	1128.687	854.790
310.008	19.238	1127.929	854.962
311.022	19.213	1127.230	854.230
312.037	19.064	1126.752	853.057
313.052	18.994	1125.507	851.693
314.066	18.989	1124.567	850.879
315.081	18.818	1124.097	849.601
316.095	18.849	1122.785	848.690
317.110	18.889	1121.841	848.097
318.125	18.921	1121.491	847.919
319.139	18.878	1120.851	847.146
320.154	18.959	1120.159	846.949
321.168	19.002	1119.803	846.816
322.183	18.912	1118.930	845.636
323.197	18.987	1118.589	845.671
324.212	19.105	1117.756	845.548
325.227	19.031	1117.432	844.864
326.241	18.975	1116.456	843.777
327.256	19.063	1115.744	843.597
328.270	19.049	1114.508	842.517
329.285	19.122	1113.572	842.092
330.300	18.987	1112.883	840.838
331.314	19.044	1111.622	840.089
332.329	19.142	1110.796	839.870
333.343	19.137	1110.431	839.495
334.358	19.184	1109.919	839.262
335.373	19.188	1108.919	838.449
336.387	19.219	1108.384	838.124
337.402	19.361	1107.570	838.125
338.416	19.314	1106.729	837.184
339.431	19.328	1106.371	836.909
340.446	19.417	1105.500	836.604
341.460	19.487	1104.681	836.253
342.475	19.658	1103.882	836.402
343.489	19.550	1103.223	835.304
344.504	19.697	1102.012	835.024
345.519	19.665	1101.060	834.075
346.533	19.677	1100.681	833.770
347.548	19.740	1099.957	833.454
348.562	19.694	1099.184	832.573
349.577	19.603	1098.651	831.657
350.592	19.574	1097.168	830.322
351.606	19.485	1096.550	829.354
352.621	19.433	1096.022	828.629
353.635	19.411	1095.167	827.806
354.650	19.348	1094.687	827.067
355.665	19.485	1094.147	827.243
356.679	19.464	1093.432	826.528
357.694	19.567	1092.751	826.431
358.708	19.635	1092.117	826.204
359.723	19.776	1091.225	826.129
360.738	19.637	1090.846	825.108
361.752	19.625	1090.299	824.561
362.767	19.551	1090.053	823.949
363.781	19.729	1088.979	823.913
364.796	19.686	1088.429	823.223
365.810	19.891	1088.120	823.889
366.825	19.917	1087.262	823.293
367.840	19.911	1086.855	822.881
368.854	20.102	1086.475	823.428
369.869	19.938	1085.841	822.098
370.883	19.957	1084.720	821.263
371.898	19.908	1083.994	820.412
372.913	19.930	1083.314	819.926
373.927	19.984	1082.824	819.741
374.942	20.068	1082.430	819.767
375.956	19.976	1082.145	819.043
376.971	19.963	1081.345	818.306
377.986	20.048	1080.898	818.294
379.000	20.105	1080.362	818.085
380.015	20.130	1079.689	817.621
381.029	20.359	1078.652	817.843
382.044	20.300	1078.106	817.078
383.059	20.227	1077.874	816.488
384.073	20.303	1076.408	815.663
385.088	20.195	1075.708	814.552
386.102	20.260	1074.972	814.225
387.117	20.273	1073.946	813.438
388.132	20.027	1072.514	811.130
389.146	20.063	1071.920	810.777
390.161	19.965	1071.446	809.890
391.175	20.153	1070.373	809.884
392.190	20.165	1069.685	809.349
393.205	20.260	1069.554	809.619
394.219	20.231	1068.323	808.484
395.234	20.156	1067.475	807.418
396.248	20.139	1066.274	806.361
397.263	20.153	1065.114	805.477
398.278	20.086	1064.447	804.590
399.292	20.065	1063.710	803.865
400.307	20.093	1063.440	803.720
401.321	20.065	1062.757	803.002
402.336	20.000	1062.106	802.139
403.350	20.109	1061.257	801.931
404.365	20.038	1060.763	801.159
405.380	20.039	1059.919	800.456
406.394	20.255	1059.193	800.835
407.409	20.211	1058.596	800.108
408.423	20.419	1057.959	800.514
409.438	20.494	1057.073	800.119
410.453	20.636	1056.418	800.206
411.467	20.515	1055.543	798.914
412.482	20.653	1055.262	799.268
413.496	20.593	1054.689	798.486
414.511	20.603	1054.458	798.285
415.526	20.752	1053.877	798.458
416.540	20.822	1053.337	798.300
417.555	20.726	1052.648	797.267
418.569	20.714	1052.084	796.716
419.584	20.813	1051.646	796.767
420.599	20.702	1051.297	795.925
421.613	153.171	1402.154	1793.838
422.628	140.500	1453.265	1793.945
