DTS Sentinel unit serial number:	SN413079Multiplexer serial number:	ORYXHardware model number:	OX4-SRSoftware version number:	ORYX F/W v4.00 Oryx Data Collector v3.7.2.0data status	okinstallation	princeton_trtdifferential loss correction	single-endedforward channel	channel 2reverse channel	N/Adate	2019/09/13time	03:15:35forward acquisition time	60.00reverse acquisition time	0.00gamma	496.2192k internal	0.2334k external	0.2334temperature offset calibration	1.0193default loss term (dB/km)	0.3790temperature slope calibration	1.0000multiplexer offset coefficient	1.0000multiplexer slope coefficient	1.0000fibre end	0.00T internal ref (°C)	27.37T ext. ref 1 (°C)	4.09T ext. ref 2 (°C)	22.14length (m)	temperature (°C)	Stokes	anti-Stokes-747.200	800.000	-0.045	-0.146
-746.185	31.907	0.071	0.062
-745.171	800.000	0.119	0.485
-744.156	48.043	-0.227	0.213
-743.142	124.857	0.228	-0.288
-742.127	-200.000	0.023	0.355
-741.112	-111.213	-0.069	-0.014
-740.098	93.406	-0.319	0.363
-739.083	-86.561	-0.131	0.040
-738.069	55.371	-0.158	-0.153
-737.054	-121.042	0.143	0.024
-736.039	175.405	0.240	0.350
-735.025	-81.149	0.340	0.113
-734.010	308.616	-0.228	0.428
-732.996	-200.000	-0.007	-0.197
-731.981	-144.601	-0.322	-0.030
-730.966	-13.147	0.195	0.127
-729.952	-6.288	0.285	-0.195
-728.937	-48.833	-0.139	-0.067
-727.923	-200.000	-0.231	-0.001
-726.908	-144.268	-0.181	0.017
-725.894	459.548	-0.007	0.016
-724.879	-80.535	0.377	0.126
-723.864	800.000	-0.077	0.263
-722.850	-92.851	0.188	0.053
-721.835	401.578	0.138	0.292
-720.821	54.877	-0.217	-0.210
-719.806	195.432	0.075	0.115
-718.791	8.638	0.298	-0.226
-717.777	-200.000	0.025	0.224
-716.762	-200.000	-0.044	0.198
-715.748	-15.930	-0.135	-0.087
-714.733	-85.413	-0.331	0.104
-713.718	-69.972	-0.345	0.132
-712.704	56.267	-0.161	-0.157
-711.689	28.934	0.299	-0.254
-710.675	266.860	0.024	-0.043
-709.660	-200.000	-0.018	0.220
-708.645	-58.336	0.287	0.125
-707.631	391.674	-0.113	0.235
-706.616	68.092	0.203	-0.209
-705.602	-71.155	0.155	0.058
-704.587	-53.970	-0.230	-0.105
-703.572	-61.656	0.031	0.013
-702.558	-60.754	0.184	0.078
-701.543	800.000	-0.109	-0.304
-700.529	163.454	-0.172	0.243
-699.514	-105.955	0.068	-0.015
-698.499	-64.338	-0.162	-0.066
-697.485	-168.374	0.233	0.009
-696.470	800.000	-0.039	-0.124
-695.456	-200.000	0.036	0.201
-694.441	506.577	-0.053	-0.124
-693.426	318.563	-0.129	-0.244
-692.412	147.521	0.127	-0.172
-691.397	-159.705	-0.234	-0.013
-690.383	58.751	0.072	0.071
-689.368	-155.363	-0.156	0.010
-688.354	800.000	-0.048	-0.143
-687.339	136.087	0.090	0.118
-686.324	6.085	0.213	-0.158
-685.310	-19.954	0.070	-0.043
-684.295	-87.148	-0.149	-0.045
-683.281	-126.028	0.062	0.009
-682.266	-130.487	0.368	0.050
-681.251	-111.064	-0.070	0.014
-680.237	-91.404	0.158	0.045
-679.222	-103.002	0.091	-0.022
-678.208	44.754	0.141	0.130
-677.193	-200.000	-0.044	0.217
-676.178	-21.441	-0.391	0.239
-675.164	16.283	-0.193	0.153
-674.149	-77.451	0.154	0.054
-673.135	43.117	-0.088	0.080
-672.120	-200.000	-0.015	0.145
-671.105	-124.058	0.123	0.019
-670.091	-123.593	-0.164	-0.026
-669.076	-26.342	0.018	0.010
-668.062	800.000	0.050	-0.146
-667.047	125.971	-0.083	-0.105
-666.032	-41.593	0.173	-0.089
-665.018	359.584	0.100	-0.201
-664.003	350.397	-0.053	0.106
-662.989	-29.934	0.311	-0.177
-661.974	-8.270	0.093	-0.063
-660.959	20.853	-0.063	-0.052
-659.945	43.095	-0.371	-0.339
-658.930	-200.000	0.016	-0.090
-657.916	-200.000	0.069	-0.311
-656.901	218.771	-0.104	-0.166
-655.886	-200.000	-0.034	0.334
-654.872	-154.356	-0.109	-0.007
-653.857	-55.550	-0.133	-0.060
-652.843	-200.000	0.021	0.193
-651.828	-26.075	-0.057	-0.033
-650.814	98.130	-0.071	0.082
-649.799	304.629	0.111	0.206
-648.784	-112.482	0.215	-0.043
-647.770	-200.000	0.093	-0.417
-646.755	107.867	0.239	-0.285
-645.741	-188.450	-0.186	-0.002
-644.726	-100.034	0.188	-0.047
-643.711	800.000	-0.009	0.031
-642.697	-93.413	-0.229	-0.063
-641.682	-84.858	0.163	-0.051
-640.668	140.476	-0.158	0.208
-639.653	371.173	0.146	-0.296
-638.638	-200.000	0.012	0.077
-637.624	18.929	-0.121	-0.097
-636.609	-200.000	-0.018	0.225
-635.595	-16.162	-0.190	-0.121
-634.580	517.690	-0.067	-0.157
-633.565	800.000	0.081	-0.260
-632.551	-92.858	-0.254	0.071
-631.536	-128.443	0.300	0.043
-630.522	-134.424	-0.207	0.025
-629.507	-162.349	-0.370	0.018
-628.492	-41.691	-0.252	-0.130
-627.478	-17.563	0.066	0.041
-626.463	550.734	0.066	-0.158
-625.449	-74.673	-0.259	-0.093
-624.434	344.060	-0.080	-0.157
-623.419	24.391	-0.177	-0.147
-622.405	-200.000	-0.038	0.232
-621.390	-200.000	0.005	0.022
-620.376	-200.000	0.049	-0.422
-619.361	134.304	0.067	0.087
-618.346	-83.126	0.191	-0.061
-617.332	92.047	0.167	0.188
-616.317	19.621	0.168	0.135
-615.303	708.746	0.041	-0.107
-614.288	-113.863	-0.157	-0.030
-613.273	-112.395	-0.111	-0.022
-612.259	80.546	0.072	-0.078
-611.244	246.098	-0.052	-0.088
-610.230	-200.000	0.006	-0.090
-609.215	19.641	-0.401	0.322
-608.201	106.296	-0.094	0.112
-607.186	800.000	-0.021	-0.088
-606.171	607.881	-0.102	0.255
-605.157	-200.000	-0.028	0.431
-604.142	98.447	-0.118	0.136
-603.128	-160.547	0.113	-0.006
-602.113	-200.000	0.043	0.193
-601.098	161.275	0.141	-0.197
-600.084	-81.057	-0.107	-0.036
-599.069	800.000	0.111	0.387
-598.055	122.327	0.173	-0.216
-597.040	-200.000	-0.003	0.038
-596.025	-49.019	-0.151	-0.072
-595.011	306.613	0.167	-0.310
-593.996	491.027	0.099	0.227
-592.982	-200.000	-0.057	0.255
-591.967	343.773	0.062	0.121
-590.952	-112.038	0.150	0.030
-589.938	-73.826	0.177	0.064
-588.923	-120.011	-0.258	0.044
-587.909	-98.747	0.254	-0.065
-586.894	-112.341	-0.207	-0.041
-585.879	-81.343	-0.215	0.071
-584.865	206.267	-0.145	-0.225
-583.850	26.933	0.124	0.103
-582.836	75.252	0.082	-0.086
-581.821	9.786	-0.304	-0.231
-580.806	-70.106	0.238	0.091
-579.792	-200.000	0.023	-0.270
-578.777	-75.479	-0.530	0.188
-577.763	-57.138	0.235	0.104
-576.748	-180.553	0.329	-0.007
-575.733	15.502	0.118	0.092
-574.719	82.681	0.110	0.119
-573.704	-200.000	0.024	-0.288
-572.690	-200.000	-0.061	0.269
-571.675	-44.244	0.148	-0.074
-570.661	-111.065	0.237	-0.048
-569.646	-149.741	0.349	0.027
-568.631	-31.151	0.209	0.118
-567.617	-131.679	-0.217	0.028
-566.602	-47.573	-0.131	-0.064
-565.588	800.000	-0.055	-0.183
-564.573	-200.000	0.045	-0.216
-563.558	-146.917	-0.383	-0.033
-562.544	52.814	-0.166	0.158
-561.529	44.838	0.170	0.156
-560.515	-97.726	0.318	0.082
-559.500	-54.975	-0.173	-0.078
-558.485	-200.000	0.011	-0.319
-557.471	17.136	-0.103	0.082
-556.456	21.573	0.133	0.108
-555.442	-168.925	-0.331	-0.012
-554.427	-32.150	-0.375	-0.209
-553.412	5.738	-0.253	0.187
-552.398	156.505	0.104	-0.144
-551.383	-200.000	-0.015	0.078
-550.369	250.747	-0.072	-0.122
-549.354	-150.097	-0.194	0.015
-548.339	800.000	-0.094	0.299
-547.325	59.329	0.147	0.144
-546.310	-147.550	0.287	-0.024
-545.296	-200.000	-0.015	-0.130
-544.281	-200.000	0.000	0.100
-543.266	173.911	-0.147	-0.212
-542.252	800.000	-0.040	-0.128
-541.237	-134.808	0.247	-0.030
-540.223	-115.494	-0.135	-0.025
-539.208	-165.371	0.161	-0.007
-538.193	800.000	-0.067	-0.262
-537.179	800.000	0.082	0.266
-536.164	583.416	0.043	0.105
-535.150	35.638	0.168	-0.147
-534.135	61.001	-0.309	0.306
-533.121	-94.185	-0.276	0.075
-532.106	-109.988	0.158	-0.033
-531.091	-36.812	-0.231	0.123
-530.077	800.000	-0.026	-0.080
-529.062	-30.826	-0.289	-0.163
-528.048	-135.096	-0.267	0.032
-527.033	16.364	0.175	0.138
-526.018	494.146	-0.112	-0.256
-525.004	-22.190	-0.227	0.137
-523.989	-116.423	0.231	-0.043
-522.975	109.093	0.137	-0.163
-521.960	-200.000	0.022	-0.148
-520.945	-74.236	-0.144	-0.052
-519.931	-58.168	-0.304	-0.132
-518.916	330.112	0.076	-0.146
-517.902	-151.433	-0.351	0.026
-516.887	-130.591	0.343	-0.046
-515.872	37.516	-0.160	0.141
-514.858	800.000	-0.152	-0.421
-513.843	-200.000	0.026	-0.126
-512.829	228.221	0.100	-0.162
-511.814	800.000	-0.020	-0.062
-510.799	74.402	-0.281	0.294
-509.785	-200.000	0.004	0.039
-508.770	362.113	0.170	-0.339
-507.756	-146.904	-0.541	-0.046
-506.741	128.410	0.104	-0.132
-505.726	-168.918	-0.609	0.023
-504.712	-58.515	-0.042	-0.018
-503.697	-200.000	0.021	0.198
-502.683	35.178	-0.057	0.049
-501.668	-110.849	0.070	0.014
-500.653	-200.000	-0.040	0.177
-499.639	800.000	-0.077	-0.225
-498.624	-200.000	0.032	0.250
-497.610	168.695	-0.105	-0.149
-496.595	696.386	-0.093	0.242
-495.581	-200.000	-0.007	-0.242
-494.566	-200.000	0.037	0.179
-493.551	89.972	0.244	0.271
-492.537	12.428	0.362	-0.278
-491.522	-22.977	-0.104	-0.063
-490.508	96.655	-0.244	0.278
-489.493	-105.560	0.248	0.056
-488.478	-200.000	0.057	-0.336
-487.464	-200.000	-0.008	0.123
-486.449	244.003	0.101	-0.168
-485.435	-17.252	-0.123	0.077
-484.420	-86.027	-0.201	0.062
-483.405	47.179	0.190	-0.176
-482.391	-74.244	-0.085	-0.031
-481.376	-200.000	-0.030	-0.136
-480.362	-200.000	-0.049	0.301
-479.347	-82.729	0.354	0.114
-478.332	46.513	-0.097	-0.090
-477.318	-137.862	-0.092	-0.010
-476.303	-200.000	0.013	-0.468
-475.289	-167.894	0.460	0.018
-474.274	-200.000	0.043	0.262
-473.259	-43.893	0.280	-0.140
-472.245	-99.723	0.234	-0.058
-471.230	10.286	-0.141	-0.107
-470.216	-43.813	-0.242	0.121
-469.201	19.668	0.165	-0.132
-468.186	20.131	0.102	-0.081
-467.172	384.768	-0.189	-0.387
-466.157	61.480	-0.087	-0.086
-465.143	44.516	0.161	0.147
-464.128	-99.324	0.098	-0.025
-463.113	-196.497	-0.325	-0.002
-462.099	-88.495	-0.190	-0.056
-461.084	-200.000	0.038	-0.214
-460.070	-61.071	-0.259	0.109
-459.055	244.864	-0.130	-0.216
-458.040	-99.011	0.186	-0.047
-457.026	-108.249	-0.244	-0.052
-456.011	398.853	-0.111	-0.230
-454.997	83.283	-0.374	-0.405
-453.982	-131.401	-0.203	-0.027
-452.968	-200.000	0.011	-0.077
-451.953	729.355	0.178	0.472
-450.938	-128.648	0.450	-0.063
-449.924	-200.000	0.056	0.313
-448.909	195.668	-0.083	0.125
-447.895	-110.335	0.106	0.022
-446.880	-21.067	-0.323	0.196
-445.865	-7.828	-0.300	0.201
-444.851	263.897	0.149	0.257
-443.836	-104.087	-0.156	-0.036
-442.822	168.769	0.009	0.012
-441.807	27.508	0.112	0.094
-440.792	-63.644	-0.185	0.075
-439.778	70.408	0.070	-0.072
-438.763	147.941	-0.088	0.117
-437.749	-77.161	-0.111	0.038
-436.734	-159.510	0.528	-0.029
-435.719	210.101	0.342	-0.532
-434.705	800.000	-0.083	0.296
-433.690	-200.000	0.001	0.393
-432.676	-82.670	0.244	0.078
-431.661	99.377	-0.249	-0.285
-430.646	-35.631	0.156	-0.084
-429.632	50.336	0.020	0.019
-428.617	675.525	0.069	0.178
-427.603	10.508	-0.115	-0.087
-426.588	73.996	-0.056	0.058
-425.573	-91.832	0.178	0.050
-424.559	-20.427	0.247	0.151
-423.544	132.594	-0.182	0.233
-422.530	-109.981	-0.159	0.033
-421.515	45.017	-0.210	-0.192
-420.500	-125.855	0.240	0.036
-419.486	-37.638	0.248	0.131
-418.471	-173.187	-0.187	0.006
-417.457	-26.566	0.123	-0.072
-416.442	158.432	-0.112	0.154
-415.428	-200.000	-0.079	-0.569
-414.413	25.524	-0.196	-0.162
-413.398	800.000	-0.029	-0.105
-412.384	5.146	0.072	0.052
-411.369	539.088	-0.050	-0.119
-410.355	-200.000	-0.041	0.209
-409.340	247.625	0.083	0.139
-408.325	0.076	0.153	-0.108
-407.311	800.000	0.119	-0.363
-406.296	-200.000	-0.017	0.190
-405.282	75.697	0.216	-0.226
-404.267	46.836	-0.091	0.084
-403.252	-200.000	-0.027	0.219
-402.238	-200.000	-0.023	0.221
-401.223	55.816	0.290	0.278
-400.209	91.010	-0.068	0.076
-399.194	-200.000	-0.000	0.010
-398.179	-155.570	-0.469	-0.030
-397.165	-200.000	0.036	0.380
-396.150	-123.062	0.105	0.017
-395.136	-200.000	0.026	0.206
-394.121	413.212	-0.071	-0.149
-393.106	48.885	-0.127	-0.118
-392.092	-68.427	0.322	0.124
-391.077	800.000	-0.067	-0.196
-390.063	-105.790	0.371	-0.083
-389.048	39.860	-0.209	-0.186
-388.033	-118.769	0.210	-0.037
-387.019	-28.246	-0.369	0.211
-386.004	183.048	-0.231	0.338
-384.990	16.666	0.278	0.218
-383.975	96.051	-0.198	0.224
-382.960	168.077	-0.143	0.202
-381.946	22.844	-0.069	0.056
-380.931	800.000	-0.068	0.254
-379.917	67.956	0.135	-0.136
-378.902	-55.121	-0.096	0.043
-377.888	182.275	-0.042	-0.061
-376.873	-153.298	0.392	-0.027
-375.858	800.000	-0.009	0.030
-374.844	-102.536	0.245	0.058
-373.829	-0.408	0.152	0.107
-372.815	-147.657	-0.222	0.018
-371.800	-26.884	-0.178	0.103
-370.785	-200.000	0.033	0.147
-369.771	-129.357	-0.222	-0.031
-368.756	-74.667	-0.193	0.069
-367.742	60.297	-0.083	0.081
-366.727	161.435	-0.018	0.025
-365.712	-93.266	-0.137	0.038
-364.698	-200.000	-0.001	0.177
-363.683	-39.051	-0.102	-0.053
-362.669	12.218	-0.170	-0.130
-361.654	344.562	-0.084	-0.164
-360.639	-200.000	0.009	0.241
-359.625	800.000	0.100	0.309
-358.610	-84.131	0.125	-0.039
-357.596	-28.437	0.075	0.043
-356.581	114.163	0.111	-0.133
-355.566	800.000	-0.033	-0.105
-354.552	-8.070	-0.137	0.092
-353.537	-200.000	-0.023	0.111
-352.523	800.000	-0.069	-0.264
-351.508	202.343	0.107	0.163
-350.493	-46.029	0.158	0.077
-349.479	24.929	0.041	0.034
-348.464	448.516	-0.044	0.096
-347.450	-25.121	-0.261	0.153
-346.435	48.592	0.115	-0.107
-345.420	-7.065	0.351	-0.236
-344.406	240.131	-0.194	0.319
-343.391	687.701	-0.042	-0.110
-342.377	-200.000	0.002	0.197
-341.362	-67.826	0.034	-0.013
-340.348	-118.907	-0.197	0.034
-339.333	-200.000	-0.010	0.202
-338.318	27.595	0.045	-0.037
-337.304	-182.898	-0.278	0.005
-336.289	-200.000	0.005	-0.105
-335.275	42.558	0.052	0.047
-334.260	-64.305	-0.302	0.122
-333.245	4.979	-0.240	-0.175
-332.231	-45.041	0.065	-0.032
-331.216	-42.068	0.087	0.044
-330.202	-88.388	-0.342	-0.101
-329.187	-200.000	-0.005	-0.144
-328.172	29.260	0.091	0.076
-327.158	-200.000	-0.002	-0.027
-326.143	-5.617	0.270	0.183
-325.129	45.425	-0.072	0.065
-324.114	-97.005	0.178	0.046
-323.099	-12.052	-0.197	-0.127
-322.085	-19.106	0.162	-0.099
-321.070	-71.836	-0.253	-0.093
-320.056	-76.739	-0.323	-0.112
-319.041	-14.136	0.211	-0.134
-318.026	356.546	-0.057	0.112
-317.012	800.000	-0.120	-0.393
-315.997	-24.851	0.304	-0.178
-314.983	800.000	0.024	-0.090
-313.968	-85.202	-0.226	-0.070
-312.953	-63.656	0.126	0.051
-311.939	247.532	-0.139	-0.233
-310.924	7.016	0.320	-0.236
-309.910	-18.919	0.058	0.035
-308.895	157.990	0.137	0.187
-307.880	9.886	0.291	-0.219
-306.866	-130.983	0.055	0.007
-305.851	667.050	0.117	0.298
-304.837	473.755	0.032	0.072
-303.822	-149.685	-0.153	0.012
-302.807	136.112	-0.055	0.070
-301.793	-180.526	0.323	-0.007
-300.778	203.832	-0.088	0.135
-299.764	12.836	-0.146	-0.112
-298.749	68.543	-0.169	0.171
-297.735	110.232	0.235	-0.278
-296.720	-51.192	0.117	-0.054
-295.705	-200.000	0.003	0.188
-294.691	144.884	-0.032	0.043
-293.676	86.945	0.094	-0.103
-292.662	135.269	-0.147	-0.189
-291.647	-200.000	0.042	-0.252
-290.632	-200.000	-0.010	-0.110
-289.618	800.000	0.088	0.243
-288.603	523.867	-0.057	-0.131
-287.589	57.169	0.098	-0.094
-286.574	-200.000	0.062	0.402
-285.559	-68.096	0.018	0.007
-284.545	-18.767	-0.241	0.148
-283.530	-200.000	-0.052	-0.236
-282.516	800.000	0.027	-0.088
-281.501	-90.414	-0.285	-0.081
-280.486	-200.000	0.029	0.183
-279.472	555.122	-0.054	-0.128
-278.457	-66.330	0.285	0.112
-277.443	54.866	0.129	0.123
-276.428	-200.000	-0.017	0.149
-275.413	-179.353	-0.262	0.006
-274.399	800.000	0.091	0.286
-273.384	800.000	0.016	0.059
-272.370	59.080	-0.037	0.036
-271.355	-200.000	0.051	0.398
-270.340	1.996	-0.135	0.096
-269.326	800.000	0.082	0.231
-268.311	175.439	0.149	-0.213
-267.297	329.807	-0.020	0.038
-266.282	-200.000	-0.034	-0.205
-265.267	800.000	-0.057	-0.205
-264.253	45.308	0.224	0.204
-263.238	-200.000	-0.039	-0.184
-262.224	705.432	-0.132	0.343
-261.209	220.515	0.112	-0.177
-260.195	800.000	-0.039	-0.134
-259.180	313.235	-0.030	-0.056
-258.165	-69.018	0.302	-0.115
-257.151	800.000	0.021	0.081
-256.136	-71.378	0.236	-0.087
-255.122	106.763	-0.184	0.216
-254.107	-128.738	-0.187	-0.026
-253.092	800.000	0.062	-0.205
-252.078	-200.000	0.014	0.208
-251.063	15.706	0.186	0.144
-250.049	733.615	-0.089	-0.235
-249.034	163.008	-0.043	-0.059
-248.019	-200.000	-0.039	0.273
-247.005	591.385	0.136	0.332
-245.990	-147.144	0.123	-0.010
-244.976	-48.372	0.274	0.130
-243.961	90.639	-0.191	0.211
-242.946	462.256	0.021	-0.045
-241.932	-79.354	0.123	-0.041
-240.917	192.191	-0.095	0.141
-239.903	38.813	0.101	-0.089
-238.888	800.000	0.075	0.305
-237.873	-25.071	0.117	-0.068
-236.859	229.819	0.139	0.223
-235.844	-133.128	0.538	-0.067
-234.830	-65.733	-0.312	-0.123
-233.815	377.259	-0.093	0.188
-232.800	-59.542	-0.276	0.117
-231.786	800.000	-0.067	-0.265
-230.771	-200.000	-0.014	0.464
-229.757	-4.240	-0.142	0.097
-228.742	-200.000	0.070	-0.406
-227.727	49.377	0.080	-0.074
-226.713	4.577	0.212	-0.153
-225.698	-120.185	0.177	-0.030
-224.684	800.000	0.083	0.349
-223.669	-42.101	-0.173	-0.087
-222.655	45.501	-0.089	0.081
-221.640	328.791	-0.118	0.223
-220.625	276.854	0.085	-0.148
-219.611	-84.086	0.278	-0.087
-218.596	202.697	0.116	0.177
-217.582	95.980	0.218	-0.245
-216.567	-114.646	-0.238	0.045
-215.552	56.368	0.050	-0.048
-214.538	202.851	-0.063	-0.096
-213.523	-97.004	0.371	-0.096
-212.509	-88.983	0.292	0.085
-211.494	788.651	0.101	0.272
-210.479	-93.434	-0.124	0.034
-209.465	-200.000	-0.032	0.374
-208.450	217.600	0.087	-0.137
-207.436	-149.486	-0.393	-0.031
-206.421	-117.810	-0.218	-0.038
-205.406	259.884	0.132	-0.224
-204.392	38.015	0.226	0.198
-203.377	-131.849	-0.140	0.018
-202.363	-53.076	0.158	0.072
-201.348	376.297	-0.094	0.189
-200.333	800.000	0.059	0.220
-199.319	-59.591	0.320	-0.135
-198.304	148.362	0.293	-0.390
-197.290	48.748	0.370	0.342
-196.275	-11.742	0.131	-0.085
-195.260	23.263	0.165	-0.133
-194.246	91.441	-0.173	0.191
-193.231	18.477	-0.038	0.030
-192.217	111.995	0.083	-0.099
-191.202	-73.157	0.210	0.076
-190.187	259.263	-0.125	-0.211
-189.173	204.374	0.183	-0.279
-188.158	359.488	-0.110	0.216
-187.144	800.000	-0.052	-0.215
-186.129	-200.000	0.030	0.189
-185.114	-200.000	-0.019	-0.143
-184.100	114.300	-0.128	0.154
-183.085	22.370	-0.199	-0.160
-182.071	800.000	-0.109	-0.340
-181.056	-200.000	0.023	-0.156
-180.042	-200.000	-0.056	-0.301
-179.027	177.093	0.133	-0.190
-178.012	-128.192	-0.111	-0.016
-176.998	-200.000	-0.001	-0.185
-175.983	800.000	0.050	0.185
-174.969	-66.122	-0.219	-0.086
-173.954	-95.050	0.194	-0.051
-172.939	124.255	0.155	0.192
-171.925	-126.295	-0.251	-0.037
-170.910	138.225	0.169	0.218
-169.896	800.000	0.071	-0.201
-168.881	153.708	-0.157	0.211
-167.866	135.530	0.167	0.213
-166.852	-145.525	-0.211	0.019
-165.837	-39.122	-0.196	-0.101
-164.823	7.658	-0.174	0.128
-163.808	-200.000	0.008	-0.131
-162.793	111.692	0.027	-0.032
-161.779	280.297	0.138	-0.243
-160.764	-200.000	-0.005	-0.148
-159.750	42.489	-0.150	-0.134
-158.735	43.478	0.184	-0.165
-157.720	698.726	0.109	-0.280
-156.706	-37.493	-0.049	-0.026
-155.691	-200.000	0.037	-0.167
-154.677	-200.000	-0.042	-0.200
-153.662	-86.598	0.441	-0.133
-152.647	-128.809	0.173	0.024
-151.633	-125.163	0.446	0.067
-150.618	331.857	-0.118	0.224
-149.604	-200.000	0.002	0.351
-148.589	-200.000	-0.009	0.092
-147.574	723.186	-0.083	0.216
-146.560	-38.851	-0.123	0.064
-145.545	-200.000	-0.055	0.281
-144.531	433.896	-0.116	0.247
-143.516	160.414	0.195	0.267
-142.502	-33.534	0.137	0.074
-141.487	800.000	-0.056	0.218
-140.472	-200.000	0.032	0.221
-139.458	41.421	-0.177	-0.157
-138.443	183.797	0.036	0.053
-137.429	484.555	0.094	-0.209
-136.414	-170.775	0.186	0.006
-135.399	259.325	0.059	0.100
-134.385	345.002	0.036	0.068
-133.370	90.147	-0.159	-0.175
-132.356	342.853	0.092	-0.178
-131.341	-200.000	-0.013	0.079
-130.326	-60.460	0.189	0.079
-129.312	-200.000	0.001	0.209
-128.297	-85.363	0.091	-0.028
-127.283	452.293	0.063	-0.136
-126.268	-96.673	-0.292	0.075
-125.253	12.804	-0.105	-0.080
-124.239	-116.377	0.319	0.058
-123.224	-200.000	0.017	0.467
-122.210	-200.000	0.032	0.275
-121.195	-72.783	0.157	0.057
-120.180	242.368	0.043	-0.070
-119.166	-72.235	-0.148	0.054
-118.151	72.446	0.046	0.047
-117.137	-124.915	-0.167	-0.025
-116.122	209.827	-0.168	0.258
-115.107	-182.380	-0.200	0.004
-114.093	-20.498	0.099	0.060
-113.078	281.096	0.056	-0.099
-112.064	345.236	-0.096	0.184
-111.049	149.289	0.097	0.128
-110.034	-121.913	-0.430	-0.069
-109.020	-189.487	-0.435	-0.005
-108.005	800.000	0.037	-0.141
-106.991	800.000	-0.039	-0.140
-105.976	57.706	0.172	0.165
-104.962	-73.701	-0.287	-0.102
-103.947	-141.588	0.270	-0.027
-102.932	800.000	0.083	-0.235
-101.918	290.218	-0.072	-0.128
-100.903	-115.844	-0.463	0.085
-99.889	581.565	0.109	-0.262
-98.874	-41.022	0.117	-0.059
-97.859	800.000	-0.080	0.252
-96.845	-108.569	-0.212	0.045
-95.830	800.000	0.085	0.233
-94.816	-118.589	0.099	-0.017
-93.801	-188.676	0.200	0.002
-92.786	-65.584	-0.114	0.045
-91.772	-17.995	0.222	-0.136
-90.757	-86.233	0.374	0.113
-89.743	-89.516	-0.188	0.054
-88.728	800.000	-0.077	0.261
-87.713	55.096	-0.067	0.064
-86.699	-153.607	-0.240	0.016
-85.684	-40.091	-0.176	-0.090
-84.670	114.706	-0.108	-0.129
-83.655	800.000	0.063	0.242
-82.640	-133.500	0.138	-0.017
-81.626	-134.940	-0.294	-0.035
-80.611	-200.000	0.055	0.251
-79.597	683.559	-0.133	0.340
-78.582	-50.540	-0.101	0.047
-77.567	33.934	0.361	0.308
-76.553	-200.000	-0.084	0.380
-75.538	44.288	-0.162	-0.146
-74.524	446.397	0.035	-0.075
-73.509	-38.590	-0.090	0.047
-72.494	-164.994	-0.331	-0.014
-71.480	-142.919	-0.327	0.031
-70.465	55.842	-0.279	0.264
-69.451	-200.000	0.097	0.474
-68.436	19.281	-0.272	0.214
-67.422	-200.000	-0.032	0.263
-66.407	-200.000	-0.035	-0.198
-65.392	-35.927	0.028	0.015
-64.378	800.000	-0.108	0.323
-63.363	-200.000	-0.021	0.134
-62.349	113.526	0.108	0.129
-61.334	-20.182	-1.276	-0.769
-60.319	227.747	0.504	0.803
-59.305	-200.000	-0.052	-1.223
-58.290	211.040	0.712	1.096
-57.276	351.800	0.850	1.648
-56.261	-200.000	114.566	661.339
-55.246	544.147	1524.987	3562.067
-54.232	177.023	2700.800	3844.805
-53.217	102.927	2289.195	2622.588
-52.203	36.612	1895.335	1636.956
-51.188	30.513	1685.088	1409.239
-50.173	27.986	1642.921	1355.211
-49.159	50.200	1698.217	1568.665
-48.144	48.580	1712.670	1569.770
-47.130	30.110	1670.527	1393.806
-46.115	27.437	1655.834	1361.540
-45.100	27.301	1650.691	1356.242
-44.086	27.331	1647.762	1354.005
-43.071	27.276	1645.584	1351.751
-42.057	27.345	1643.185	1350.240
-41.042	27.175	1641.353	1347.423
-40.027	27.325	1639.370	1346.846
-39.013	27.349	1636.808	1344.866
-37.998	27.206	1635.999	1343.096
-36.984	27.304	1634.092	1342.202
-35.969	27.313	1632.964	1341.288
-34.954	27.434	1631.003	1340.515
-33.940	27.412	1629.080	1338.719
-32.925	27.337	1627.359	1336.695
-31.911	27.409	1625.492	1335.642
-30.896	27.356	1624.146	1334.091
-29.881	27.276	1622.840	1332.384
-28.867	27.334	1620.437	1330.776
-27.852	27.345	1619.137	1329.741
-26.838	27.316	1617.919	1328.472
-25.823	27.278	1616.792	1327.222
-24.809	27.397	1615.278	1326.792
-23.794	27.341	1613.931	1325.224
-22.779	27.340	1612.208	1323.748
-21.765	27.394	1610.323	1322.542
-20.750	27.434	1608.847	1321.564
-19.736	27.445	1607.484	1320.477
-18.721	27.523	1605.780	1319.589
-17.706	27.369	1605.037	1317.808
-16.692	27.376	1603.754	1316.752
-15.677	27.487	1601.816	1315.912
-14.663	27.502	1600.210	1314.648
-13.648	27.491	1599.210	1313.693
-12.633	27.431	1597.792	1312.049
-11.619	27.364	1596.330	1310.311
-10.604	27.386	1594.692	1309.078
-9.590	27.421	1593.818	1308.553
-8.575	27.344	1592.541	1306.903
-7.560	27.418	1590.992	1306.109
-6.546	27.495	1589.606	1305.475
-5.531	27.371	1589.145	1304.151
-4.517	27.361	1588.055	1303.136
-3.502	27.487	1586.503	1302.714
-2.487	27.525	1584.938	1301.649
-1.473	27.126	1573.045	1289.001
-0.458	24.274	1554.202	1253.488
0.556	22.867	1555.487	1222.885
1.571	20.464	1578.817	1224.211
2.586	19.927	1591.306	1229.967
3.600	18.029	1537.794	1175.461
4.615	11.192	1431.385	1050.100
5.629	5.073	1371.491	968.189
6.644	4.026	1364.025	956.368
7.659	4.101	1362.580	955.731
8.673	4.105	1361.485	954.907
9.688	4.128	1359.731	953.735
10.702	4.131	1357.020	951.766
11.717	7.036	1361.835	972.942
12.731	14.723	1376.646	1031.063
13.746	21.422	1387.411	1080.572
14.761	23.097	1389.566	1092.515
15.775	22.542	1387.196	1087.133
16.790	21.656	1385.358	1080.135
17.804	20.973	1383.001	1073.993
18.819	20.564	1381.954	1070.565
19.834	20.653	1381.172	1070.416
20.848	20.651	1379.885	1069.307
21.863	20.561	1378.501	1067.592
22.877	20.360	1377.823	1065.736
23.892	20.394	1376.928	1065.159
24.907	20.304	1375.683	1063.552
25.921	20.248	1374.873	1062.485
26.936	20.313	1373.949	1062.078
27.950	20.342	1372.635	1061.143
28.965	20.470	1372.069	1061.392
29.980	20.710	1371.039	1061.968
30.994	20.668	1370.502	1061.200
32.009	20.799	1368.961	1060.711
33.023	20.741	1367.871	1059.424
34.038	20.591	1366.854	1057.630
35.053	20.570	1365.014	1055.981
36.067	20.429	1364.553	1054.675
37.082	20.485	1363.598	1054.186
38.096	20.574	1362.927	1054.116
39.111	20.654	1361.957	1053.753
40.126	20.363	1361.133	1051.259
41.140	20.143	1359.887	1048.874
42.155	19.833	1359.273	1046.431
43.169	19.853	1359.352	1046.524
44.184	19.886	1358.748	1046.163
45.199	20.049	1358.747	1047.055
46.213	20.230	1358.015	1047.495
47.228	20.421	1357.790	1048.379
48.242	20.345	1356.729	1047.012
49.257	20.359	1354.884	1045.579
50.271	20.295	1353.686	1044.176
51.286	20.366	1352.079	1043.271
52.301	20.298	1351.108	1042.018
53.315	20.109	1349.917	1039.875
54.330	20.088	1348.460	1038.537
55.344	20.005	1347.088	1036.891
56.359	20.031	1346.085	1036.183
57.374	19.968	1345.391	1035.179
58.388	19.976	1344.671	1034.584
59.403	19.797	1344.660	1033.409
60.417	19.802	1343.414	1032.394
61.432	19.668	1342.645	1030.911
62.447	19.625	1341.627	1029.779
63.461	19.632	1340.289	1028.703
64.476	19.569	1339.560	1027.678
65.490	19.580	1337.968	1026.434
66.505	19.533	1336.937	1025.269
67.520	19.659	1335.606	1024.907
68.534	19.666	1334.556	1024.056
69.549	19.617	1333.435	1022.812
70.563	19.532	1332.201	1021.273
71.578	19.386	1331.156	1019.518
72.593	19.339	1330.139	1018.369
73.607	19.264	1329.518	1017.365
74.622	19.423	1328.697	1017.580
75.636	19.426	1327.903	1016.900
76.651	19.503	1327.387	1016.873
77.666	19.587	1326.813	1016.836
78.680	19.659	1326.601	1017.007
79.695	19.639	1325.963	1016.313
80.709	19.821	1325.386	1016.850
81.724	20.051	1324.396	1017.347
82.739	20.103	1323.764	1017.076
83.753	20.221	1323.215	1017.260
84.768	20.463	1322.345	1017.918
85.782	20.673	1321.238	1018.206
86.797	20.625	1320.497	1017.264
87.812	20.373	1319.222	1014.721
88.826	20.451	1317.775	1013.972
89.841	20.448	1316.717	1013.053
90.855	20.672	1315.804	1013.561
91.870	20.653	1315.397	1013.050
92.884	20.664	1314.842	1012.599
93.899	20.765	1313.819	1012.305
94.914	20.853	1312.784	1011.929
95.928	20.786	1312.042	1010.880
96.943	20.697	1311.311	1009.708
97.957	20.585	1310.010	1007.969
98.972	20.691	1308.963	1007.687
99.987	20.598	1308.209	1006.480
101.001	20.713	1307.256	1006.322
102.016	20.616	1306.638	1005.199
103.030	20.620	1305.716	1004.423
104.045	20.464	1304.665	1002.624
105.060	20.394	1302.980	1000.839
106.074	20.028	1301.679	997.647
107.089	19.725	1300.376	994.811
108.103	19.662	1298.476	992.907
109.118	19.682	1297.196	991.956
110.133	19.647	1295.665	990.497
111.147	19.784	1294.544	990.338
112.162	19.808	1293.523	989.607
113.176	19.793	1292.543	988.686
114.191	19.808	1292.119	988.358
115.206	19.808	1290.836	987.291
116.220	19.869	1289.410	986.459
117.235	19.780	1288.350	985.054
118.249	19.728	1287.158	983.763
119.264	19.684	1286.326	982.786
120.279	19.597	1284.779	981.022
121.293	19.512	1283.855	979.750
122.308	19.438	1282.086	977.893
123.322	19.238	1281.737	976.406
124.337	19.356	1280.327	975.914
125.352	19.346	1279.242	974.945
126.366	19.336	1278.278	974.064
127.381	19.261	1277.016	972.595
128.395	19.234	1276.321	971.830
129.410	19.386	1274.997	971.588
130.424	19.380	1274.787	971.311
131.439	19.740	1273.397	972.192
132.454	19.713	1273.068	971.701
133.468	19.746	1272.423	971.311
134.483	19.789	1272.080	971.202
135.497	19.850	1270.739	970.432
136.512	19.773	1270.525	969.755
137.527	19.874	1268.854	968.957
138.541	19.848	1267.260	967.512
139.556	19.908	1266.377	967.083
140.570	20.106	1265.596	967.511
141.585	20.294	1264.353	967.520
142.600	20.393	1263.141	967.057
143.614	20.428	1263.034	967.086
144.629	20.520	1261.886	966.636
145.643	20.540	1260.573	965.656
146.658	20.267	1259.317	963.094
147.673	20.112	1257.498	960.756
148.687	19.945	1256.504	958.983
149.702	19.877	1254.604	957.074
150.716	19.756	1253.651	955.596
151.731	19.832	1252.320	954.913
152.746	19.825	1251.285	954.005
153.760	19.934	1250.519	953.935
154.775	20.028	1249.275	953.422
155.789	20.233	1248.549	953.906
156.804	20.195	1247.236	952.611
157.819	20.295	1246.350	952.398
158.833	20.377	1245.666	952.242
159.848	20.566	1245.087	952.749
160.862	20.477	1244.041	951.377
161.877	20.115	1242.171	947.887
162.892	19.824	1241.390	945.614
163.906	19.751	1240.365	944.353
164.921	19.817	1239.394	943.889
165.935	19.960	1238.968	944.261
166.950	20.013	1238.438	944.066
167.964	20.068	1237.424	943.507
168.979	20.048	1236.403	942.535
169.994	19.939	1236.225	941.725
171.008	20.038	1235.021	941.261
172.023	20.193	1234.148	941.354
173.037	20.275	1234.125	941.699
174.052	20.336	1233.281	941.300
175.067	19.985	1231.866	938.236
176.081	19.711	1230.822	935.877
177.096	19.797	1229.471	935.229
178.110	19.852	1228.471	934.682
179.125	19.938	1227.629	934.424
180.140	19.960	1227.108	934.066
181.154	20.255	1225.876	934.632
182.169	20.359	1224.626	934.156
183.183	20.363	1223.619	933.329
184.198	20.383	1222.652	932.618
185.213	20.492	1221.321	932.103
186.227	20.556	1220.388	931.652
187.242	20.536	1219.661	930.905
188.256	20.658	1218.699	930.740
189.271	20.695	1218.157	930.445
190.286	20.447	1216.744	927.957
191.300	19.814	1215.510	923.555
192.315	19.801	1214.733	922.812
193.329	19.888	1214.138	922.743
194.344	19.985	1213.368	922.595
195.359	20.006	1212.656	922.085
196.373	20.145	1212.250	922.431
197.388	20.166	1212.492	922.647
198.402	20.426	1212.298	923.798
199.417	20.776	1211.915	925.286
200.432	20.862	1210.911	924.898
201.446	21.009	1210.436	925.229
202.461	21.037	1209.692	924.731
203.475	21.094	1208.564	924.086
204.490	20.628	1207.213	920.506
205.504	20.475	1206.045	918.726
206.519	20.355	1204.897	917.136
207.534	20.243	1203.509	915.405
208.548	20.323	1202.310	914.837
209.563	20.272	1202.212	914.409
210.577	20.370	1200.824	913.792
211.592	20.619	1199.501	914.012
212.607	20.843	1198.956	914.691
213.621	20.776	1198.283	913.747
214.636	20.741	1197.007	912.506
215.650	20.630	1196.751	911.653
216.665	20.822	1195.855	911.892
217.680	21.075	1195.378	912.775
218.694	21.037	1194.829	912.073
219.709	20.826	1193.983	910.246
220.723	20.933	1192.739	909.775
221.738	20.806	1192.436	908.800
222.753	20.904	1191.008	908.141
223.767	20.848	1190.536	907.413
224.782	21.059	1190.049	908.057
225.796	21.040	1189.931	907.788
226.811	21.063	1189.024	907.138
227.826	20.840	1188.445	905.455
228.840	20.675	1187.585	903.864
229.855	20.659	1186.810	903.108
230.869	20.804	1185.166	902.531
231.884	20.688	1184.717	901.509
232.899	20.628	1183.475	900.170
233.913	20.418	1183.171	898.776
234.928	20.408	1182.189	897.899
235.942	20.409	1180.867	896.820
236.957	20.342	1180.581	896.177
237.972	20.449	1179.492	895.822
238.986	20.358	1179.154	895.017
240.001	20.572	1178.347	895.428
241.015	20.403	1177.722	894.005
242.030	20.637	1176.920	894.521
243.045	20.600	1177.009	894.318
244.059	20.633	1176.181	893.777
245.074	20.713	1175.156	893.329
246.088	20.848	1174.851	893.713
247.103	21.020	1173.762	893.686
248.117	21.198	1173.153	894.058
249.132	21.393	1172.567	894.526
250.147	21.553	1172.601	895.293
251.161	21.826	1171.435	895.717
252.176	21.825	1171.388	895.601
253.190	21.910	1170.607	895.356
254.205	21.960	1170.347	895.333
255.220	21.910	1169.804	894.585
256.234	21.894	1169.046	893.841
257.249	21.989	1167.936	893.400
258.263	21.824	1167.548	892.185
259.278	21.787	1167.178	891.633
260.293	21.948	1166.294	891.695
261.307	22.002	1165.712	891.447
262.322	22.091	1165.244	891.462
263.336	22.081	1164.130	890.480
264.351	22.084	1163.813	890.175
265.366	22.082	1162.908	889.395
266.380	21.989	1162.448	888.493
267.395	22.039	1161.201	887.714
268.409	21.835	1160.692	886.214
269.424	21.648	1160.084	884.725
270.439	21.822	1159.101	884.776
271.453	21.660	1158.446	883.380
272.468	21.485	1157.500	881.700
273.482	21.462	1156.508	880.750
274.497	21.460	1155.753	880.088
275.512	21.485	1155.236	879.742
276.526	21.484	1154.727	879.273
277.541	21.459	1153.833	878.390
278.555	21.660	1153.395	878.985
279.570	21.857	1153.062	879.642
280.585	21.987	1152.114	879.493
281.599	21.945	1151.400	878.660
282.614	21.683	1149.936	876.152
283.628	21.555	1148.843	874.605
284.643	21.541	1148.081	873.877
285.657	21.727	1146.884	873.819
286.672	21.760	1146.040	873.259
287.687	21.757	1145.059	872.421
288.701	21.716	1144.643	871.822
289.716	21.658	1144.166	871.092
290.730	21.611	1143.479	870.260
291.745	21.871	1142.272	870.555
292.760	21.761	1142.352	869.994
293.774	21.844	1142.172	870.192
294.789	22.004	1141.117	870.103
295.803	22.090	1140.309	869.833
296.818	21.659	1139.949	867.349
297.833	21.725	1138.129	866.216
298.847	21.659	1138.040	865.744
299.862	21.620	1137.380	864.973
300.876	21.812	1136.484	865.163
301.891	21.812	1136.014	864.728
302.906	22.079	1135.273	865.406
303.920	22.221	1135.050	865.857
304.935	22.325	1134.815	866.115
305.949	22.292	1134.531	865.658
306.964	22.302	1133.508	864.849
307.979	22.192	1132.413	863.395
308.993	22.076	1131.545	862.089
310.008	22.257	1130.833	862.359
311.022	22.219	1129.995	861.458
312.037	22.251	1129.405	861.087
313.052	22.068	1127.927	858.987
314.066	21.893	1126.519	856.986
315.081	21.558	1125.984	854.868
316.095	21.556	1125.275	854.245
317.110	21.615	1124.470	853.843
318.125	21.655	1123.846	853.492
319.139	21.618	1122.942	852.549
320.154	21.598	1122.415	851.973
321.168	21.621	1121.811	851.552
322.183	21.731	1120.956	851.362
323.197	21.820	1120.458	851.344
324.212	21.825	1120.171	851.075
325.227	21.809	1119.864	850.685
326.241	21.959	1119.354	850.953
327.256	21.815	1117.847	849.031
328.270	21.679	1116.814	847.517
329.285	21.771	1116.046	847.303
330.300	21.707	1114.816	845.985
331.314	21.794	1114.106	845.788
332.329	21.789	1113.290	845.071
333.343	21.865	1112.846	845.024
334.358	22.101	1111.660	845.186
335.373	22.223	1111.112	845.284
336.387	22.100	1111.075	844.586
337.402	22.169	1109.858	843.919
338.416	22.289	1109.582	844.209
339.431	22.422	1108.783	844.164
340.446	22.515	1108.919	844.639
341.460	22.620	1108.061	844.416
342.475	22.692	1107.293	844.100
343.489	22.735	1106.828	843.879
344.504	22.892	1105.114	843.244
345.519	22.917	1104.696	842.971
346.533	22.975	1104.196	842.788
347.548	22.959	1103.391	842.024
348.562	22.929	1102.288	840.966
349.577	22.624	1101.338	838.718
350.592	22.532	1100.033	837.213
351.606	22.353	1098.867	835.401
352.621	22.193	1098.593	834.361
353.635	22.145	1097.761	833.424
354.650	22.134	1097.252	832.913
355.665	22.229	1096.613	832.804
356.679	22.299	1096.282	832.809
357.694	22.391	1095.728	832.753
358.708	22.478	1095.292	832.758
359.723	22.491	1094.684	832.281
360.738	22.483	1093.929	831.599
361.752	22.493	1093.586	831.312
362.767	22.436	1093.051	830.563
363.781	22.444	1092.160	829.847
364.796	22.909	1091.414	831.398
365.810	22.855	1091.204	830.911
366.825	22.987	1091.183	831.441
367.840	23.249	1090.683	832.218
368.854	23.282	1090.057	831.823
369.869	23.182	1089.137	830.575
370.883	23.138	1088.016	829.443
371.898	22.951	1087.108	827.802
372.913	22.835	1087.000	827.103
373.927	22.916	1086.598	827.103
374.942	23.104	1085.874	827.359
375.956	23.135	1085.497	827.141
376.971	22.991	1084.860	825.911
377.986	23.016	1084.558	825.726
379.000	23.215	1084.115	826.245
380.015	23.432	1083.124	826.428
381.029	23.429	1082.639	825.968
382.044	23.241	1081.946	824.494
383.059	23.439	1081.042	824.652
384.073	23.370	1080.155	823.581
385.088	23.231	1079.810	822.601
386.102	23.373	1078.296	822.030
387.117	23.093	1077.246	819.859
388.132	22.865	1076.228	817.957
389.146	22.841	1075.319	817.082
390.161	22.824	1074.914	816.623
391.175	22.839	1073.949	815.888
392.190	22.995	1073.799	816.425
393.205	23.346	1072.861	817.257
394.219	23.006	1072.413	815.275
395.234	23.026	1071.083	814.283
396.248	22.967	1069.815	812.978
397.263	22.867	1069.098	811.902
398.278	22.771	1068.391	810.850
399.292	22.815	1067.479	810.288
400.307	22.596	1066.944	808.805
401.321	22.659	1065.867	808.209
402.336	22.693	1065.465	807.985
403.350	22.570	1064.913	806.934
404.365	22.708	1064.244	806.985
405.380	22.957	1063.706	807.647
406.394	22.889	1063.199	806.879
407.409	23.047	1062.609	807.078
408.423	23.254	1062.131	807.591
409.438	23.324	1061.459	807.326
410.453	23.434	1061.174	807.537
411.467	23.522	1060.205	807.130
412.482	23.762	1058.985	807.222
413.496	23.676	1058.849	806.657
414.511	23.923	1058.080	807.121
415.526	23.961	1058.238	807.341
416.540	24.092	1057.590	807.369
417.555	23.893	1057.075	806.004
418.569	23.756	1056.374	804.777
419.584	23.611	1056.309	803.998
420.599	23.641	1055.307	803.300
421.613	157.767	1404.155	1798.396
422.628	144.916	1454.953	1798.492
