DTS Sentinel unit serial number:	SN413079Multiplexer serial number:	ORYXHardware model number:	OX4-SRSoftware version number:	ORYX F/W v4.00 Oryx Data Collector v3.7.2.0data status	okinstallation	princeton_trtdifferential loss correction	single-endedforward channel	channel 2reverse channel	N/Adate	2019/09/10time	22:05:10forward acquisition time	60.00reverse acquisition time	0.00gamma	496.2192k internal	0.2329k external	0.2329temperature offset calibration	0.9944default loss term (dB/km)	0.3790temperature slope calibration	1.0000multiplexer offset coefficient	1.0000multiplexer slope coefficient	1.0000fibre end	0.00T internal ref (°C)	30.66T ext. ref 1 (°C)	-0.29T ext. ref 2 (°C)	24.02length (m)	temperature (°C)	Stokes	anti-Stokes-747.200	-200.000	-0.016	0.135
-746.185	-200.000	0.006	-0.200
-745.171	-141.565	0.286	-0.029
-744.156	800.000	0.002	0.007
-743.142	-81.145	-0.212	-0.071
-742.127	256.432	-0.119	-0.206
-741.112	-80.633	-0.186	0.062
-740.098	-121.836	-0.376	0.062
-739.083	-74.059	-0.165	-0.060
-738.069	800.000	-0.048	0.132
-737.054	-200.000	0.006	0.263
-736.039	132.176	0.106	0.138
-735.025	-200.000	-0.008	0.169
-734.010	29.813	-0.265	-0.227
-732.996	-200.000	0.025	0.217
-731.981	-181.545	0.355	-0.007
-730.966	-51.233	0.241	-0.114
-729.952	-200.000	-0.063	-0.335
-728.937	-25.069	-0.379	-0.226
-727.923	-150.717	-0.325	-0.025
-726.908	800.000	-0.055	0.206
-725.894	405.870	-0.111	-0.237
-724.879	-200.000	-0.098	-0.507
-723.864	-47.264	0.047	-0.023
-722.850	-4.639	-0.318	-0.221
-721.835	163.458	-0.219	-0.309
-720.821	-49.992	-0.075	0.036
-719.806	454.716	-0.102	0.228
-718.791	-116.281	-0.227	-0.042
-717.777	-30.805	-0.178	-0.101
-716.762	-106.047	0.372	-0.084
-715.748	800.000	0.105	-0.293
-714.733	800.000	0.119	-0.488
-713.718	800.000	-0.060	-0.200
-712.704	-54.325	-0.199	-0.091
-711.689	-33.004	0.235	-0.131
-710.675	286.608	0.091	0.166
-709.660	-37.615	0.257	-0.138
-708.645	595.791	0.061	0.151
-707.631	-125.363	0.323	-0.050
-706.616	-64.825	-0.168	0.069
-705.602	-29.409	-0.248	-0.142
-704.587	627.977	-0.080	-0.202
-703.572	95.808	0.148	0.170
-702.558	-39.018	0.178	-0.094
-701.543	-136.667	-0.179	-0.021
-700.529	416.909	0.064	0.137
-699.514	-45.577	-0.176	-0.087
-698.499	-200.000	-0.031	-0.180
-697.485	-111.794	-0.333	-0.068
-696.470	214.493	0.136	0.217
-695.456	7.660	0.239	0.180
-694.441	-86.615	0.211	-0.065
-693.426	-1.612	-0.332	-0.235
-692.412	80.989	0.082	-0.089
-691.397	-65.252	-0.075	-0.030
-690.383	-200.000	0.004	0.127
-689.368	800.000	-0.014	0.052
-688.354	-61.840	0.281	-0.118
-687.339	8.266	-0.163	-0.123
-686.324	128.243	0.091	0.117
-685.310	800.000	-0.049	0.175
-684.295	-200.000	-0.014	0.113
-683.281	800.000	-0.072	0.216
-682.266	79.823	-0.266	0.287
-681.251	-26.178	0.189	-0.111
-680.237	-192.479	-0.268	0.003
-679.222	-158.668	-0.113	0.007
-678.208	204.608	-0.122	-0.190
-677.193	85.212	0.069	0.076
-676.178	76.216	0.021	-0.022
-675.164	576.469	-0.085	-0.209
-674.149	-35.831	0.025	-0.014
-673.135	800.000	0.069	-0.209
-672.120	71.340	-0.109	-0.114
-671.105	8.622	0.251	-0.190
-670.091	95.481	-0.036	-0.041
-669.076	378.002	0.160	-0.329
-668.062	-200.000	-0.028	-0.250
-667.047	-161.945	0.293	0.015
-666.032	108.003	-0.071	0.085
-665.018	367.393	0.088	0.178
-664.003	56.479	0.107	-0.104
-662.989	26.754	-0.307	-0.258
-661.974	-125.146	-0.490	-0.075
-660.959	-142.170	0.240	-0.024
-659.945	-35.706	0.215	-0.117
-658.930	-98.507	-0.405	0.104
-657.916	-58.614	-0.036	-0.016
-656.901	-200.000	0.054	-0.239
-655.886	-46.436	-0.091	-0.045
-654.872	59.727	-0.173	-0.172
-653.857	800.000	-0.100	-0.385
-652.843	-17.396	-0.249	0.157
-651.828	-200.000	0.021	0.177
-650.814	-200.000	-0.011	-0.148
-649.799	-36.380	0.128	-0.069
-648.784	50.714	0.332	-0.316
-647.770	91.787	-0.055	-0.063
-646.755	8.659	-0.171	0.129
-645.741	-200.000	0.007	-0.078
-644.726	198.990	0.115	-0.176
-643.711	-57.393	-0.046	-0.020
-642.697	-53.285	0.235	0.108
-641.682	-88.658	-0.234	0.070
-640.668	221.879	0.064	0.103
-639.653	-71.283	-0.061	0.023
-638.638	-110.207	0.174	-0.036
-637.624	-59.971	-0.164	0.070
-636.609	48.981	-0.079	-0.075
-635.595	800.000	0.055	-0.207
-634.580	91.814	-0.320	0.362
-633.565	-48.114	0.400	-0.194
-632.551	69.104	0.129	-0.133
-631.536	348.115	0.033	-0.065
-630.522	-200.000	-0.019	-0.296
-629.507	-127.171	-0.119	0.017
-628.492	93.096	-0.130	-0.147
-627.478	79.367	0.077	0.083
-626.463	-118.912	0.286	-0.050
-625.449	-50.932	-0.219	0.103
-624.434	150.365	-0.017	-0.023
-623.419	465.402	-0.051	-0.114
-622.405	-165.916	-0.276	-0.012
-621.390	-37.106	0.180	-0.097
-620.376	-89.791	0.218	-0.064
-619.361	136.010	-0.169	0.221
-618.346	800.000	-0.097	-0.374
-617.332	105.492	0.227	0.269
-616.317	-29.211	-0.073	-0.042
-615.303	-89.108	-0.278	0.082
-614.288	-139.497	0.005	-0.001
-613.273	-0.033	-0.103	-0.074
-612.259	484.842	-0.110	-0.251
-611.244	-154.790	-0.246	-0.016
-610.230	-102.283	-0.281	0.067
-609.215	-200.000	-0.013	-0.141
-608.201	-156.507	0.103	0.006
-607.186	-200.000	0.049	0.302
-606.171	14.630	-0.175	-0.137
-605.157	-112.454	0.170	0.034
-604.142	800.000	-0.026	0.095
-603.128	125.215	0.053	0.067
-602.113	93.422	0.245	0.277
-601.098	-200.000	0.031	-0.211
-600.084	-58.133	0.205	0.090
-599.069	-200.000	-0.013	-0.165
-598.055	-111.899	0.353	-0.071
-597.040	13.881	-0.174	-0.136
-596.025	-56.754	-0.093	-0.041
-595.011	439.465	0.156	-0.340
-593.996	-21.523	0.080	-0.049
-592.982	-44.393	-0.237	-0.119
-591.967	56.495	0.130	-0.127
-590.952	-87.502	-0.141	-0.043
-589.938	-34.150	0.233	0.128
-588.923	800.000	-0.051	0.154
-587.909	-134.267	0.227	0.028
-586.894	495.934	-0.160	0.368
-585.879	-165.787	0.323	-0.014
-584.865	-175.996	0.201	0.005
-583.850	-29.454	-0.171	0.098
-582.836	218.649	-0.217	0.347
-581.821	-128.605	-0.170	-0.024
-580.806	113.401	-0.106	0.128
-579.792	-76.272	-0.052	0.018
-578.777	-128.389	-0.296	-0.042
-577.763	-107.191	-0.032	-0.007
-576.748	-200.000	0.001	0.081
-575.733	-200.000	-0.004	-0.093
-574.719	-200.000	0.000	-0.121
-573.704	-65.597	-0.211	0.085
-572.690	38.401	-0.441	0.393
-571.675	-78.651	-0.421	0.144
-570.661	-82.985	0.223	-0.072
-569.646	-137.026	-0.357	0.041
-568.631	4.538	0.162	-0.119
-567.617	683.002	-0.051	0.132
-566.602	800.000	0.013	-0.046
-565.588	-200.000	-0.035	0.222
-564.573	-200.000	-0.041	0.405
-563.558	55.469	-0.108	-0.104
-562.544	142.611	0.084	0.112
-561.529	800.000	-0.066	-0.207
-560.515	99.805	0.147	-0.170
-559.500	-200.000	-0.018	0.141
-558.485	470.265	-0.031	-0.070
-557.471	-69.027	0.104	-0.040
-556.456	103.778	0.092	-0.108
-555.442	-85.197	-0.287	0.090
-554.427	-141.451	-0.268	0.027
-553.412	-48.668	0.238	-0.114
-552.398	538.287	-0.056	-0.133
-551.383	-14.923	0.063	0.040
-550.369	-193.801	-0.177	-0.001
-549.354	-152.919	0.187	-0.013
-548.339	12.170	0.102	-0.078
-547.325	-85.378	0.375	0.117
-546.310	800.000	-0.056	-0.224
-545.296	-123.197	0.153	0.024
-544.281	785.251	0.121	0.332
-543.266	343.910	-0.052	-0.101
-542.252	-149.550	0.225	0.018
-541.237	-200.000	0.036	0.461
-540.223	-25.295	0.308	0.182
-539.208	-78.749	-0.140	-0.048
-538.193	-49.976	-0.187	0.089
-537.179	24.255	-0.317	-0.261
-536.164	366.880	-0.030	-0.060
-535.150	116.139	-0.257	0.314
-534.135	601.767	0.077	-0.191
-533.121	800.000	0.076	-0.301
-532.106	-200.000	-0.047	-0.238
-531.091	-200.000	-0.045	-0.536
-530.077	171.895	-0.109	0.157
-529.062	-39.276	0.111	0.058
-528.048	-200.000	0.016	-0.240
-527.033	-134.057	0.121	0.015
-526.018	-200.000	0.009	-0.091
-525.004	11.341	0.049	-0.038
-523.989	-38.140	-0.530	0.281
-522.975	123.476	0.245	0.307
-521.960	800.000	0.038	-0.109
-520.945	69.696	0.181	0.186
-519.931	42.537	0.181	-0.165
-518.916	-13.709	-0.188	0.122
-517.902	-200.000	-0.024	0.165
-516.887	26.735	0.236	-0.198
-515.872	114.247	-0.240	0.292
-514.858	800.000	-0.049	0.152
-513.843	-200.000	-0.017	-0.219
-512.829	-106.375	-0.302	0.067
-511.814	21.923	-0.083	0.067
-510.799	14.612	-0.406	0.317
-509.785	5.438	-0.208	-0.153
-508.770	2.039	0.141	0.102
-507.756	-22.046	0.177	-0.107
-506.741	653.199	-0.030	0.077
-505.726	-49.622	-0.032	0.015
-504.712	-135.246	-0.149	0.018
-503.697	-112.660	-0.370	0.073
-502.683	-78.759	0.409	-0.139
-501.668	-3.197	-0.394	0.274
-500.653	16.159	-0.099	-0.078
-499.639	-200.000	0.444	0.001
-498.624	105.312	-0.169	0.199
-497.610	-114.880	-0.349	-0.066
-496.595	-70.474	-0.147	0.056
-495.581	409.087	0.103	-0.218
-494.566	-133.797	-0.140	-0.017
-493.551	-63.358	-0.344	0.141
-492.537	800.000	0.007	-0.021
-491.522	105.530	0.242	-0.286
-490.508	-128.680	0.157	0.022
-489.493	-200.000	-0.001	-0.317
-488.478	102.627	0.120	-0.140
-487.464	-169.129	-0.088	0.003
-486.449	-48.422	-0.369	0.177
-485.435	283.152	-0.136	-0.244
-484.420	4.463	-0.181	-0.132
-483.405	-1.166	0.233	-0.164
-482.391	-166.600	-0.143	-0.006
-481.376	482.921	0.161	0.365
-480.362	-113.822	0.168	0.032
-479.347	-200.000	0.043	-0.279
-478.332	-200.000	0.015	-0.141
-477.318	-56.736	-0.332	0.146
-476.303	800.000	-0.139	0.397
-475.289	-1.605	0.127	0.089
-474.274	-200.000	0.004	-0.040
-473.259	-54.896	-0.300	0.135
-472.245	40.926	-0.329	-0.296
-471.230	-90.020	0.208	-0.061
-470.216	-3.167	-0.362	0.252
-469.201	-101.258	0.090	-0.022
-468.186	-200.000	0.062	0.285
-467.172	259.308	-0.016	0.028
-466.157	108.852	0.176	0.209
-465.143	-23.401	0.216	0.129
-464.128	176.755	0.085	0.123
-463.113	-200.000	-0.009	-0.325
-462.099	-59.198	0.391	0.168
-461.084	-37.661	-0.194	0.103
-460.070	-157.844	-0.302	0.018
-459.055	-200.000	-0.028	0.384
-458.040	-169.614	0.172	-0.006
-457.026	-151.998	-0.112	-0.008
-456.011	-15.604	0.034	-0.021
-454.997	296.886	-0.051	-0.094
-453.982	-68.315	-0.104	0.040
-452.968	302.660	0.172	-0.317
-451.953	-51.641	0.182	-0.084
-450.938	-200.000	-0.006	-0.205
-449.924	61.375	0.219	-0.216
-448.909	18.959	0.079	0.063
-447.895	-200.000	-0.058	-0.332
-446.880	-200.000	0.058	0.362
-445.865	-113.669	0.254	0.049
-444.851	503.677	-0.128	-0.295
-443.836	-126.521	-0.388	-0.057
-442.822	98.297	0.192	-0.220
-441.807	497.996	-0.112	-0.257
-440.792	-63.813	-0.178	0.073
-439.778	96.660	-0.085	0.097
-438.763	800.000	-0.037	-0.107
-437.749	-200.000	-0.053	0.331
-436.734	-200.000	0.026	-0.415
-435.719	-200.000	-0.005	0.182
-434.705	-200.000	0.070	-0.323
-433.690	19.241	0.158	-0.126
-432.676	-57.629	0.084	0.036
-431.661	-118.655	0.114	-0.020
-430.646	27.702	0.261	0.219
-429.632	185.010	-0.076	0.112
-428.617	-200.000	0.071	-0.403
-427.603	221.018	-0.053	0.085
-426.588	-68.242	-0.103	-0.040
-425.573	-200.000	0.037	-0.200
-424.559	11.077	0.127	-0.097
-423.544	248.764	0.203	0.341
-422.530	-120.000	-0.231	-0.039
-421.515	-132.987	0.336	0.042
-420.500	800.000	-0.057	0.223
-419.486	-197.453	-0.188	-0.001
-418.471	77.281	-0.062	0.066
-417.457	-91.174	0.158	0.045
-416.442	-14.408	-0.229	-0.146
-415.428	18.076	-0.212	0.168
-414.413	-115.142	-0.196	0.037
-413.398	-200.000	0.021	0.121
-412.384	766.396	0.129	0.350
-411.369	31.405	-0.193	-0.165
-410.355	-79.859	0.295	0.099
-409.340	-69.208	-0.069	0.026
-408.325	18.792	0.153	-0.121
-407.311	-123.947	-0.164	0.026
-406.296	14.528	0.122	0.095
-405.282	-66.439	0.205	-0.081
-404.267	57.741	-0.074	0.072
-403.252	800.000	0.074	0.291
-402.238	800.000	-0.024	0.091
-401.223	-200.000	-0.030	-0.183
-400.209	-176.100	-0.119	0.003
-399.194	-200.000	0.010	-0.126
-398.179	-200.000	0.214	0.000
-397.165	123.489	0.124	-0.154
-396.150	-129.581	-0.246	0.034
-395.136	-15.979	0.376	-0.238
-394.121	-78.754	-0.246	-0.083
-393.106	-77.071	-0.287	0.099
-392.092	177.988	0.085	-0.122
-391.077	381.297	-0.041	-0.083
-390.063	220.354	0.127	0.203
-389.048	-12.565	-0.093	0.060
-388.033	362.081	0.043	-0.085
-387.019	800.000	-0.077	0.231
-386.004	117.152	-0.206	-0.251
-384.990	-200.000	0.042	0.234
-383.975	-32.938	0.115	-0.064
-382.960	300.429	0.189	0.347
-381.946	-200.000	-0.065	-0.413
-380.931	334.272	-0.096	-0.184
-379.917	777.971	-0.124	0.337
-378.902	121.795	0.145	-0.180
-377.888	31.832	-0.291	-0.249
-376.873	468.641	-0.058	0.129
-375.858	-7.825	0.260	-0.174
-374.844	800.000	0.059	-0.201
-373.829	800.000	-0.090	0.256
-372.815	-200.000	0.040	0.185
-371.800	172.484	-0.037	0.053
-370.785	-84.797	-0.264	-0.082
-369.771	89.730	0.136	-0.151
-368.756	650.031	0.080	0.202
-367.742	14.393	0.164	-0.127
-366.727	33.811	0.151	0.130
-365.712	-38.849	-0.045	0.024
-364.698	-163.476	-0.220	-0.010
-363.683	584.884	-0.057	-0.140
-362.669	-27.375	0.385	-0.222
-361.654	241.637	0.105	-0.175
-360.639	-26.978	-0.159	0.092
-359.625	-3.445	0.248	0.171
-358.610	-117.216	0.402	0.073
-357.596	49.259	-0.068	-0.063
-356.581	24.272	0.197	0.162
-355.566	95.977	0.083	0.094
-354.552	-200.000	0.035	0.201
-353.537	-74.216	0.171	0.061
-352.523	34.402	0.023	0.020
-351.508	800.000	0.031	0.107
-350.493	-200.000	-0.014	-0.089
-349.479	-200.000	0.012	0.394
-348.464	-79.499	0.295	0.099
-347.450	69.898	-0.293	-0.300
-346.435	-49.288	0.255	-0.121
-345.420	800.000	0.017	0.061
-344.406	-21.034	0.238	0.144
-343.391	-200.000	0.043	-0.315
-342.377	56.375	-0.180	-0.174
-341.362	-41.106	0.437	-0.224
-340.348	-81.488	-0.079	-0.026
-339.333	-108.695	-0.128	-0.027
-338.318	205.506	-0.075	-0.115
-337.304	287.809	0.172	0.309
-336.289	-169.834	-0.291	-0.010
-335.275	719.001	0.015	0.039
-334.260	89.816	-0.271	0.300
-333.245	-44.370	0.122	-0.060
-332.231	-65.723	-0.093	0.037
-331.216	-0.659	-0.174	0.122
-330.202	46.636	0.148	0.136
-329.187	177.861	0.142	0.205
-328.172	-200.000	-0.004	0.141
-327.158	-12.581	-0.250	0.162
-326.143	-150.814	-0.125	0.009
-325.129	66.960	0.176	-0.178
-324.114	355.367	0.060	0.119
-323.099	9.708	0.266	-0.200
-322.085	-12.171	0.088	0.057
-321.070	-112.278	-0.455	-0.090
-320.056	128.924	0.156	-0.198
-319.041	-72.801	0.297	-0.108
-318.026	-132.898	-0.378	-0.048
-317.012	-31.453	0.083	0.046
-315.997	-200.000	0.020	-0.089
-314.983	136.741	-0.029	0.038
-313.968	258.326	0.104	0.178
-312.953	219.208	0.120	-0.190
-311.939	61.082	0.054	-0.053
-310.924	-55.079	0.222	0.099
-309.910	-200.000	-0.024	0.273
-308.895	-200.000	0.007	0.102
-307.880	-46.368	0.135	0.066
-306.866	333.653	-0.113	0.217
-305.851	259.516	0.116	-0.198
-304.837	-200.000	0.073	0.370
-303.822	28.520	-0.230	-0.192
-302.807	-98.453	0.113	-0.029
-301.793	-137.568	-0.366	0.041
-300.778	199.198	-0.146	-0.222
-299.764	-110.899	0.083	-0.017
-298.749	-145.222	0.341	-0.031
-297.735	82.303	0.117	-0.125
-296.720	-56.958	-0.387	0.169
-295.705	-200.000	0.011	0.217
-294.691	800.000	-0.148	0.412
-293.676	221.876	0.120	-0.191
-292.662	-200.000	-0.008	-0.082
-291.647	800.000	0.015	-0.058
-290.632	177.048	-0.093	-0.135
-289.618	-200.000	-0.029	-0.264
-288.603	93.291	-0.168	-0.188
-287.589	-200.000	-0.024	-0.150
-286.574	-200.000	0.004	-0.285
-285.559	254.452	0.046	-0.078
-284.545	-47.520	-0.115	0.055
-283.530	800.000	-0.058	0.236
-282.516	527.845	0.192	0.447
-281.501	5.421	0.148	0.108
-280.486	639.012	-0.151	0.380
-279.472	-168.610	0.228	-0.009
-278.457	-200.000	0.007	0.174
-277.443	-200.000	0.051	0.309
-276.428	-200.000	-0.028	0.149
-275.413	-118.728	0.065	0.011
-274.399	-87.363	0.122	-0.037
-273.384	310.432	0.198	-0.367
-272.370	14.625	0.299	-0.231
-271.355	768.046	-0.077	0.207
-270.340	47.653	-0.227	-0.210
-269.326	-200.000	0.020	0.357
-268.311	255.045	0.149	0.253
-267.297	-200.000	0.005	0.287
-266.282	800.000	0.017	-0.065
-265.267	-84.920	0.328	-0.102
-264.253	800.000	-0.063	0.198
-263.238	-125.711	-0.277	0.041
-262.224	47.242	-0.124	-0.114
-261.209	-164.180	-0.306	0.014
-260.195	-113.739	-0.091	-0.018
-259.180	-72.131	0.178	0.065
-258.165	380.904	0.096	0.194
-257.151	85.987	-0.186	-0.203
-256.136	-41.912	0.079	0.040
-255.122	800.000	0.200	-0.563
-254.107	800.000	-0.044	0.151
-253.092	2.421	-0.282	-0.202
-252.078	-10.477	0.433	-0.283
-251.063	-108.799	0.249	0.053
-250.049	99.303	0.104	-0.119
-249.034	800.000	0.082	-0.343
-248.019	-41.253	-0.199	0.101
-247.005	388.179	0.140	0.286
-245.990	-92.096	0.218	0.061
-244.976	150.311	0.017	0.023
-243.961	-200.000	-0.074	-0.342
-242.946	-113.602	0.043	0.008
-241.932	483.985	-0.087	0.196
-240.917	-52.329	-0.451	-0.206
-239.903	800.000	-0.011	0.047
-238.888	-82.237	-0.104	0.033
-237.873	-155.253	0.166	0.011
-236.859	79.562	0.015	0.016
-235.844	-84.412	0.294	0.092
-234.830	-49.433	-0.007	0.003
-233.815	-200.000	0.003	0.226
-232.800	-82.106	0.103	-0.033
-231.786	-127.519	0.515	0.074
-230.771	-85.645	-0.136	-0.042
-229.757	-127.852	0.055	-0.008
-228.742	-168.355	-0.297	0.011
-227.727	-200.000	0.008	-0.057
-226.713	-200.000	0.064	-0.413
-225.698	-53.682	-0.033	-0.015
-224.684	-200.000	-0.006	-0.050
-223.669	-78.925	-0.129	0.043
-222.655	146.163	-0.213	-0.282
-221.640	-18.212	0.214	-0.132
-220.625	-47.174	-0.069	0.033
-219.611	17.207	0.030	0.024
-218.596	147.553	0.086	0.115
-217.582	299.685	-0.107	0.194
-216.567	800.000	0.053	0.169
-215.552	296.678	-0.062	-0.112
-214.538	-125.043	0.121	0.018
-213.523	479.886	0.043	0.097
-212.509	84.076	0.104	0.112
-211.494	5.646	-0.121	-0.088
-210.479	286.512	-0.088	-0.157
-209.465	800.000	-0.046	0.131
-208.450	-103.584	0.196	0.045
-207.436	74.314	-0.132	0.136
-206.421	-200.000	-0.008	0.084
-205.406	364.196	0.192	0.380
-204.392	430.072	0.024	0.050
-203.377	-200.000	-0.022	-0.258
-202.363	-151.536	-0.079	-0.006
-201.348	800.000	0.123	-0.373
-200.333	197.488	0.163	0.245
-199.319	-81.488	-0.354	0.115
-198.304	91.695	0.165	-0.183
-197.290	79.214	-0.063	0.067
-196.275	143.210	0.039	-0.052
-195.260	-110.789	-0.147	-0.030
-194.246	-28.746	-0.171	-0.097
-193.231	67.506	-0.187	0.188
-192.217	800.000	-0.034	-0.116
-191.202	193.623	0.091	0.136
-190.187	-82.029	-0.180	-0.058
-189.173	76.526	0.225	-0.235
-188.158	650.006	-0.107	-0.269
-187.144	175.224	-0.119	-0.169
-186.129	-200.000	0.015	0.149
-185.114	-39.848	0.283	-0.146
-184.100	29.900	-0.280	0.235
-183.085	37.920	0.204	0.179
-182.071	-200.000	0.017	0.125
-181.056	99.216	-0.168	0.191
-180.042	68.075	-0.163	0.164
-179.027	-82.603	0.215	0.069
-178.012	347.283	-0.079	-0.154
-176.998	-167.278	0.235	-0.009
-175.983	77.073	0.217	0.228
-174.969	-200.000	-0.408	0.001
-173.954	-154.904	-0.139	-0.009
-172.939	427.718	0.099	-0.210
-171.925	55.693	-0.247	-0.236
-170.910	13.116	0.194	-0.148
-169.896	-82.227	-0.254	-0.082
-168.881	-85.051	0.101	-0.031
-167.866	108.446	0.165	-0.194
-166.852	34.815	0.128	0.111
-165.837	7.982	-0.215	-0.159
-164.823	-1.741	0.173	-0.120
-163.808	-190.225	0.189	-0.002
-162.793	108.005	0.136	0.159
-161.779	116.045	0.053	-0.063
-160.764	36.057	-0.194	0.168
-159.750	58.442	0.025	0.024
-158.735	-46.341	0.275	0.133
-157.720	-125.069	0.242	0.037
-156.706	277.377	-0.164	-0.288
-155.691	-200.000	-0.054	-0.336
-154.677	114.242	-0.095	0.114
-153.662	-200.000	0.070	-0.349
-152.647	316.613	-0.078	0.144
-151.633	800.000	0.065	-0.231
-150.618	-33.030	0.158	-0.086
-149.604	-102.458	-0.143	-0.034
-148.589	-200.000	0.022	0.164
-147.574	-200.000	0.002	0.229
-146.560	395.069	0.204	0.418
-145.545	-200.000	-0.013	-0.160
-144.531	-135.777	0.175	0.020
-143.516	800.000	-0.054	-0.166
-142.502	-54.537	0.341	0.152
-141.487	-51.832	0.181	0.083
-140.472	-38.113	0.088	0.046
-139.458	287.949	0.119	0.212
-138.443	-105.308	-0.179	-0.040
-137.429	-51.891	0.196	-0.090
-136.414	675.924	-0.068	0.174
-135.399	-200.000	0.051	-0.306
-134.385	157.544	0.098	0.133
-133.370	-102.601	-0.260	0.061
-132.356	-200.000	-0.001	0.036
-131.341	800.000	-0.061	-0.189
-130.326	3.093	-0.089	0.064
-129.312	-143.100	-0.219	0.021
-128.297	-200.000	-0.018	0.327
-127.283	-18.053	0.218	-0.134
-126.268	-200.000	0.385	0.000
-125.253	-33.562	0.187	0.102
-124.239	-130.974	-0.157	0.021
-123.224	1.957	-0.163	0.115
-122.210	-50.459	0.417	0.194
-121.195	-200.000	0.012	0.054
-120.180	47.336	-0.214	-0.196
-119.166	-110.892	-0.308	0.062
-118.151	-17.774	0.074	-0.045
-117.137	120.903	0.122	0.149
-116.122	-170.126	0.289	-0.010
-115.107	-42.884	-0.263	-0.131
-114.093	-112.707	0.206	0.040
-113.078	-78.037	-0.168	0.057
-112.064	-135.382	-0.135	0.016
-111.049	117.923	0.139	-0.168
-110.034	-11.608	-0.338	-0.218
-109.020	-36.502	-0.240	0.127
-108.005	444.674	-0.143	0.309
-106.991	-123.571	-0.137	-0.021
-105.976	-71.964	-0.037	-0.014
-104.962	260.807	0.190	-0.324
-103.947	800.000	0.046	-0.127
-102.932	20.480	-0.091	-0.072
-101.918	39.157	0.145	0.128
-100.903	458.758	0.048	0.104
-99.889	132.387	-0.134	0.169
-98.874	-200.000	0.006	-0.103
-97.859	46.163	0.148	-0.134
-96.845	-103.883	0.132	0.030
-95.830	-200.000	0.071	-0.369
-94.816	701.593	0.025	0.064
-93.801	-78.977	0.258	0.086
-92.786	763.360	-0.110	0.293
-91.772	800.000	-0.085	0.308
-90.757	-33.178	-0.045	-0.024
-89.743	100.194	0.080	0.091
-88.728	107.778	0.092	0.108
-87.713	327.216	0.132	-0.249
-86.699	15.335	0.418	-0.322
-85.684	236.736	0.074	0.121
-84.670	63.185	0.190	-0.187
-83.655	-200.000	-0.028	0.314
-82.640	11.282	-0.209	0.157
-81.626	-137.152	-0.175	-0.020
-80.611	-34.780	0.150	0.080
-79.597	452.868	0.113	0.245
-78.582	-200.000	0.070	-0.311
-77.567	-43.572	0.170	0.084
-76.553	-33.172	0.491	-0.267
-75.538	73.840	0.170	0.175
-74.524	-158.935	-0.237	0.013
-73.509	683.166	0.102	-0.261
-72.494	61.088	-0.047	-0.046
-71.480	-130.476	0.423	-0.056
-70.465	65.559	0.242	-0.240
-69.451	59.068	-0.170	0.164
-68.436	21.009	-0.135	0.107
-67.422	6.856	-0.081	0.059
-66.407	189.825	0.089	-0.130
-65.392	75.815	0.129	-0.134
-64.378	-200.000	0.043	-0.271
-63.363	-74.081	-0.329	-0.117
-62.349	178.856	-0.077	0.110
-61.334	105.514	-1.200	-1.391
-60.319	567.952	0.219	0.522
-59.305	800.000	-0.300	-1.008
-58.290	199.921	0.733	1.103
-57.276	800.000	0.629	1.870
-56.261	-200.000	101.979	610.262
-55.246	525.702	1452.694	3353.022
-54.232	183.460	2654.146	3845.659
-53.217	107.253	2280.855	2658.125
-52.203	39.744	1893.660	1665.458
-51.188	33.738	1681.873	1433.924
-50.173	31.160	1638.311	1377.730
-49.159	49.500	1688.813	1558.070
-48.144	50.454	1704.727	1579.835
-47.130	33.536	1663.470	1416.503
-46.115	30.780	1648.879	1383.573
-45.100	30.618	1644.300	1378.475
-44.086	30.529	1641.724	1375.604
-43.071	30.631	1638.611	1373.692
-42.057	30.567	1637.212	1371.997
-41.042	30.543	1634.933	1369.854
-40.027	30.469	1633.181	1367.787
-39.013	30.506	1631.098	1366.256
-37.998	30.454	1629.778	1364.720
-36.984	30.467	1628.658	1363.823
-35.969	30.673	1626.700	1363.638
-34.954	30.641	1625.382	1362.241
-33.940	30.715	1623.012	1360.745
-32.925	30.671	1621.314	1358.947
-31.911	30.672	1619.575	1357.437
-30.896	30.681	1617.778	1355.949
-29.881	30.688	1616.197	1354.621
-28.867	30.668	1614.818	1353.261
-27.852	30.640	1613.433	1351.849
-26.838	30.636	1611.789	1350.386
-25.823	30.607	1610.743	1349.244
-24.809	30.698	1609.193	1348.556
-23.794	30.709	1607.636	1347.274
-22.779	30.726	1606.106	1346.065
-21.765	30.695	1604.221	1344.207
-20.750	30.651	1602.655	1342.520
-19.736	30.620	1601.936	1341.645
-18.721	30.739	1600.010	1340.834
-17.706	30.616	1598.792	1338.874
-16.692	30.695	1597.104	1337.975
-15.677	30.702	1595.582	1336.694
-14.663	30.724	1594.868	1336.206
-13.648	30.696	1593.128	1334.493
-12.633	30.714	1591.389	1333.115
-11.619	30.635	1590.130	1331.438
-10.604	30.694	1588.409	1330.369
-9.590	30.746	1587.301	1329.760
-8.575	30.631	1586.234	1327.992
-7.560	30.758	1584.887	1327.718
-6.546	30.685	1583.927	1326.337
-5.531	30.701	1582.676	1325.349
-4.517	30.707	1581.228	1324.127
-3.502	30.685	1580.358	1323.194
-2.487	30.720	1578.985	1322.238
-1.473	30.333	1567.051	1309.462
-0.458	27.437	1547.774	1273.093
0.556	21.579	1548.759	1241.552
1.571	19.309	1573.219	1244.674
2.586	18.944	1587.047	1252.843
3.600	17.182	1534.905	1199.150
4.615	9.178	1425.287	1060.746
5.629	1.228	1361.623	962.965
6.644	-0.196	1352.734	947.615
7.659	-0.292	1351.509	946.068
8.673	-0.410	1350.989	944.877
9.688	-0.283	1348.494	943.846
10.702	-0.646	1345.820	939.614
11.717	2.643	1351.751	964.386
12.731	11.746	1369.358	1034.665
13.746	18.879	1381.140	1088.826
14.761	20.394	1382.767	1099.614
15.775	20.566	1382.134	1100.100
16.790	20.557	1381.961	1099.808
17.804	20.708	1381.217	1100.077
18.819	20.892	1380.963	1100.937
19.834	20.953	1380.069	1100.515
20.848	20.988	1379.460	1100.147
21.863	20.937	1378.981	1099.346
22.877	21.013	1378.068	1099.003
23.892	20.967	1377.343	1098.035
24.907	21.012	1375.926	1097.094
25.921	20.978	1375.375	1096.346
26.936	20.933	1374.439	1095.220
27.950	20.924	1373.304	1094.162
28.965	20.878	1372.420	1093.069
29.980	20.936	1370.833	1092.071
30.994	20.953	1369.542	1091.056
32.009	20.974	1368.598	1090.336
33.023	21.021	1367.134	1089.368
34.038	20.878	1365.992	1087.468
35.053	20.960	1365.402	1087.417
36.067	20.996	1364.232	1086.609
37.082	20.877	1363.315	1085.043
38.096	21.034	1361.822	1084.738
39.111	21.053	1361.267	1084.318
40.126	20.948	1360.648	1083.073
41.140	20.920	1360.289	1082.519
42.155	20.884	1359.775	1081.791
43.169	20.885	1360.166	1082.011
44.184	20.984	1359.268	1081.816
45.199	20.991	1359.045	1081.586
46.213	20.954	1358.605	1080.911
47.228	20.926	1357.395	1079.678
48.242	20.901	1356.034	1078.345
49.257	20.999	1354.766	1077.851
50.271	20.980	1353.124	1076.328
51.286	20.884	1352.090	1074.820
52.301	20.961	1350.710	1074.105
53.315	20.977	1349.680	1073.289
54.330	20.939	1348.975	1072.398
55.344	20.903	1348.655	1071.824
56.359	21.046	1347.165	1071.429
57.374	20.969	1346.439	1070.284
58.388	21.023	1346.091	1070.240
59.403	20.939	1345.692	1069.311
60.417	20.947	1344.618	1068.416
61.432	21.011	1343.504	1067.825
62.447	21.039	1342.881	1067.408
63.461	20.983	1341.601	1065.956
64.476	20.921	1340.572	1064.661
65.490	20.960	1339.520	1063.972
66.505	20.930	1338.119	1062.585
67.520	20.999	1336.565	1061.676
68.534	21.019	1335.596	1060.931
69.549	21.017	1334.392	1059.872
70.563	20.998	1333.369	1058.850
71.578	21.050	1332.573	1058.440
72.593	20.975	1332.137	1057.540
73.607	20.967	1331.277	1056.716
74.622	21.067	1330.503	1056.617
75.636	21.019	1329.340	1055.310
76.651	20.972	1329.315	1054.914
77.666	20.929	1328.881	1054.216
78.680	21.008	1328.109	1053.982
79.695	20.955	1327.300	1052.928
80.709	20.975	1326.473	1052.300
81.724	21.014	1325.655	1051.796
82.739	21.011	1324.302	1050.611
83.753	20.960	1323.892	1049.884
84.768	20.954	1322.525	1048.669
85.782	20.917	1321.570	1047.600
86.797	20.991	1320.257	1046.910
87.812	20.981	1319.010	1045.770
88.826	21.017	1318.284	1045.318
89.841	20.987	1316.918	1043.959
90.855	21.102	1315.780	1043.656
91.870	21.124	1315.115	1043.165
92.884	21.081	1314.061	1041.982
93.899	21.063	1313.461	1041.307
94.914	21.068	1313.151	1040.995
95.928	21.177	1311.704	1040.406
96.943	21.041	1311.221	1039.124
97.957	21.009	1310.705	1038.430
98.972	21.056	1309.369	1037.562
99.987	21.045	1308.505	1036.715
101.001	21.099	1307.176	1035.897
102.016	21.022	1306.435	1034.759
103.030	21.091	1305.614	1034.425
104.045	21.056	1304.550	1033.284
105.060	21.084	1303.580	1032.587
106.074	21.094	1302.454	1031.667
107.089	21.114	1301.353	1030.823
108.103	21.121	1300.840	1030.363
109.118	21.095	1299.738	1029.246
110.133	21.147	1297.863	1027.978
111.147	21.072	1297.100	1026.843
112.162	21.119	1296.186	1026.304
113.176	21.152	1294.832	1025.333
114.191	21.059	1294.018	1024.050
115.206	21.138	1292.660	1023.350
116.220	21.069	1291.796	1022.171
117.235	21.036	1290.904	1021.182
118.249	21.118	1289.693	1020.612
119.264	21.159	1288.454	1019.781
120.279	21.129	1288.071	1019.212
121.293	21.169	1287.290	1018.740
122.308	21.223	1285.993	1017.939
123.322	21.231	1285.195	1017.262
124.337	21.188	1284.264	1016.184
125.352	21.246	1283.037	1015.461
126.366	21.171	1282.236	1014.303
127.381	21.124	1281.791	1013.589
128.395	21.210	1280.384	1012.885
129.410	21.254	1279.532	1012.378
130.424	21.299	1279.118	1012.218
131.439	21.259	1277.832	1010.880
132.454	21.170	1277.167	1009.752
133.468	21.035	1276.895	1008.663
134.483	21.176	1276.028	1008.707
135.497	21.213	1275.214	1008.183
136.512	21.056	1274.045	1006.266
137.527	21.126	1272.863	1005.645
138.541	21.115	1271.298	1004.261
139.556	21.116	1270.109	1003.236
140.570	21.152	1268.861	1002.367
141.585	21.038	1268.226	1001.124
142.600	21.133	1266.990	1000.604
143.614	21.137	1265.940	999.710
144.629	21.120	1265.216	998.950
145.643	20.995	1264.135	997.294
146.658	21.000	1262.861	996.230
147.673	21.093	1261.982	995.979
148.687	21.097	1260.672	994.884
149.702	21.083	1259.563	993.840
150.716	21.120	1258.292	992.957
151.731	21.183	1257.470	992.577
152.746	21.144	1256.344	991.383
153.760	21.283	1254.727	990.806
154.775	21.261	1253.879	989.926
155.789	21.162	1252.900	988.503
156.804	21.093	1252.523	987.726
157.819	21.234	1251.198	987.391
158.833	21.223	1250.704	986.853
159.848	21.324	1249.707	986.549
160.862	21.320	1248.715	985.657
161.877	21.248	1248.182	984.740
162.892	21.248	1247.363	984.011
163.906	21.276	1246.744	983.592
164.921	21.322	1245.830	983.040
165.935	21.312	1245.284	982.468
166.950	21.286	1244.412	981.546
167.964	21.326	1243.800	981.204
168.979	21.258	1243.331	980.363
169.994	21.313	1242.575	979.990
171.008	21.442	1241.659	979.905
172.023	21.299	1240.850	978.375
173.037	21.366	1239.946	977.954
174.052	21.225	1239.988	977.108
175.067	21.313	1239.184	976.885
176.081	21.391	1237.964	976.269
177.096	21.239	1237.662	975.095
178.110	21.265	1236.691	974.391
179.125	21.345	1235.448	973.771
180.140	21.390	1234.078	972.855
181.154	21.215	1233.284	971.171
182.169	21.257	1232.487	970.691
183.183	21.326	1231.134	969.921
184.198	21.342	1230.048	969.070
185.213	21.258	1229.514	968.095
186.227	21.301	1228.553	967.492
187.242	21.401	1227.008	966.744
188.256	21.334	1226.731	966.070
189.271	21.421	1225.718	965.668
190.286	21.401	1224.737	964.695
191.300	21.385	1224.609	964.421
192.315	21.396	1223.865	963.812
193.329	21.457	1223.487	963.766
194.344	21.438	1223.412	963.517
195.359	21.376	1222.549	962.411
196.373	21.358	1222.198	961.950
197.388	21.345	1221.664	961.373
198.402	21.336	1221.351	960.993
199.417	21.344	1220.927	960.618
200.432	21.299	1220.529	959.973
201.446	21.315	1219.932	959.503
202.461	21.425	1218.724	959.075
203.475	21.301	1218.253	957.936
204.490	21.326	1217.009	957.011
205.504	21.447	1215.992	956.792
206.519	21.369	1215.283	955.723
207.534	21.418	1214.328	955.153
208.548	21.381	1213.278	954.040
209.563	21.454	1212.314	953.598
210.577	21.494	1211.300	952.930
211.592	21.511	1210.583	952.378
212.607	21.468	1210.380	951.898
213.621	21.584	1209.283	951.581
214.636	21.359	1208.887	949.966
215.650	21.490	1207.542	949.536
216.665	21.411	1207.082	948.660
217.680	21.514	1206.014	948.292
218.694	21.528	1205.265	947.695
219.709	21.503	1204.614	946.966
220.723	21.586	1203.874	946.751
221.738	21.374	1203.051	944.870
222.753	21.528	1202.333	945.058
223.767	21.442	1202.219	944.417
224.782	21.560	1201.480	944.394
225.796	21.616	1200.583	943.908
226.811	21.643	1199.879	943.412
227.826	21.544	1199.719	942.669
228.840	21.586	1199.141	942.361
229.855	21.593	1198.255	941.618
230.869	21.652	1197.472	941.238
231.884	21.661	1196.977	940.815
232.899	21.566	1196.359	939.731
233.913	21.642	1195.548	939.423
234.928	21.715	1195.235	939.483
235.942	21.746	1194.508	938.996
236.957	21.690	1193.568	937.870
237.972	21.719	1193.152	937.616
238.986	21.674	1192.662	936.908
240.001	21.710	1191.767	936.314
241.015	21.676	1191.147	935.566
242.030	21.765	1190.216	935.225
243.045	21.837	1189.239	934.759
244.059	21.696	1188.836	933.606
245.074	21.733	1188.226	933.241
246.088	21.802	1187.375	932.858
247.103	21.747	1186.437	931.747
248.117	21.864	1185.410	931.483
249.132	21.800	1184.750	930.542
250.147	21.870	1184.190	930.389
251.161	21.903	1183.589	930.010
252.176	21.832	1182.801	928.932
253.190	21.874	1182.559	928.880
254.205	21.996	1181.278	928.436
255.220	21.753	1181.086	926.920
256.234	21.869	1180.208	926.763
257.249	21.877	1179.924	926.497
258.263	21.876	1179.315	925.933
259.278	21.874	1178.857	925.484
260.293	21.891	1178.624	925.307
261.307	21.928	1177.647	924.650
262.322	21.824	1177.452	923.872
263.336	21.833	1176.637	923.196
264.351	21.907	1175.500	922.613
265.366	21.891	1175.278	922.273
266.380	21.910	1174.194	921.437
267.395	21.864	1173.818	920.821
268.409	21.824	1173.611	920.368
269.424	21.871	1172.690	919.807
270.439	21.933	1172.647	920.022
271.453	22.030	1171.642	919.659
272.468	21.938	1170.679	918.338
273.482	21.925	1169.885	917.566
274.497	21.913	1169.470	917.099
275.512	22.004	1168.790	916.959
276.526	22.006	1168.222	916.443
277.541	21.988	1167.367	915.596
278.555	21.985	1166.975	915.193
279.570	22.004	1166.300	914.683
280.585	21.915	1165.613	913.599
281.599	22.022	1164.471	913.179
282.614	21.964	1163.629	912.135
283.628	22.009	1162.804	911.643
284.643	22.029	1161.861	910.924
285.657	22.064	1160.808	910.199
286.672	22.014	1160.345	909.497
287.687	22.113	1159.297	909.109
288.701	22.061	1159.048	908.566
289.716	22.151	1158.451	908.481
290.730	22.155	1157.570	907.728
291.745	22.125	1157.062	907.099
292.760	22.256	1155.983	906.845
293.774	22.207	1155.810	906.379
294.789	22.093	1155.656	905.590
295.803	22.203	1154.939	905.514
296.818	22.117	1154.235	904.438
297.833	22.191	1153.406	904.092
298.847	22.222	1152.971	903.828
299.862	22.130	1152.079	902.577
300.876	22.183	1151.101	902.004
301.891	22.306	1150.587	902.152
302.906	22.355	1149.725	901.645
303.920	22.333	1149.319	901.134
304.935	22.280	1148.843	900.408
305.949	22.268	1148.330	899.870
306.964	22.291	1147.195	899.017
307.979	22.313	1146.452	898.466
308.993	22.359	1145.927	898.213
310.008	22.327	1145.458	897.598
311.022	22.388	1144.503	897.083
312.037	22.336	1143.943	896.298
313.052	22.342	1143.078	895.576
314.066	22.416	1141.889	894.938
315.081	22.344	1141.230	893.977
316.095	22.364	1140.852	893.703
317.110	22.403	1139.958	893.124
318.125	22.336	1139.599	892.424
319.139	22.264	1139.272	891.720
320.154	22.514	1137.904	891.838
321.168	22.396	1137.724	891.023
322.183	22.520	1137.136	891.108
323.197	22.401	1136.467	889.905
324.212	22.433	1135.942	889.579
325.227	22.610	1135.375	889.946
326.241	22.497	1135.031	889.030
327.256	22.520	1134.451	888.613
328.270	22.453	1133.467	887.425
329.285	22.526	1132.604	887.039
330.300	22.369	1132.276	885.913
331.314	22.463	1130.994	885.304
332.329	22.493	1130.230	884.778
333.343	22.626	1129.301	884.637
334.358	22.599	1128.624	883.894
335.373	22.617	1127.676	883.166
336.387	22.667	1127.221	882.983
337.402	22.603	1126.212	881.793
338.416	22.760	1125.900	882.254
339.431	22.581	1125.578	881.028
340.446	22.746	1124.708	881.095
341.460	22.784	1123.662	880.389
342.475	22.728	1123.366	879.798
343.489	22.735	1122.112	878.774
344.504	22.663	1121.592	877.928
345.519	22.698	1120.907	877.492
346.533	22.737	1119.723	876.681
347.548	22.782	1118.871	876.161
348.562	22.941	1118.000	876.189
349.577	22.772	1117.876	875.177
350.592	22.700	1117.398	874.367
351.606	22.615	1116.981	873.542
352.621	22.724	1115.884	873.146
353.635	22.759	1115.455	872.906
354.650	22.827	1114.445	872.373
355.665	22.700	1114.036	871.352
356.679	22.821	1113.476	871.432
357.694	22.860	1112.675	870.918
358.708	22.761	1111.846	869.707
359.723	22.802	1111.211	869.334
360.738	22.705	1111.201	868.773
361.752	22.913	1110.510	869.177
362.767	22.740	1110.146	867.966
363.781	22.892	1109.346	868.012
364.796	22.872	1108.822	867.424
365.810	22.876	1108.381	867.024
366.825	22.844	1107.623	866.198
367.840	22.919	1107.138	866.106
368.854	22.943	1106.596	865.726
369.869	22.984	1105.429	864.935
370.883	23.043	1105.080	864.875
371.898	23.031	1104.211	864.062
372.913	23.115	1103.487	863.830
373.927	23.047	1103.265	863.247
374.942	22.988	1103.019	862.688
375.956	23.022	1102.451	862.333
376.971	23.024	1101.933	861.863
377.986	23.036	1101.254	861.312
379.000	23.126	1100.444	861.043
380.015	23.149	1099.842	860.605
381.029	23.080	1099.447	859.883
382.044	23.168	1098.316	859.351
383.059	23.166	1098.124	859.114
384.073	23.095	1097.540	858.238
385.088	23.315	1095.909	857.951
386.102	23.145	1095.724	856.910
387.117	23.152	1094.929	856.246
388.132	23.135	1093.936	855.312
389.146	23.155	1093.210	854.762
390.161	23.288	1092.703	854.935
391.175	23.282	1091.926	854.221
392.190	23.146	1091.143	852.879
393.205	23.165	1090.781	852.609
394.219	23.128	1090.193	851.896
395.234	23.336	1088.985	851.880
396.248	23.249	1088.057	850.658
397.263	23.294	1087.087	850.043
398.278	23.218	1086.747	849.334
399.292	23.342	1086.177	849.411
400.307	23.317	1085.518	848.700
401.321	23.377	1084.588	848.186
402.336	23.285	1084.400	847.523
403.350	23.224	1083.702	846.608
404.365	23.326	1083.061	846.524
405.380	23.312	1082.587	846.008
406.394	23.376	1081.622	845.485
407.409	23.311	1080.949	844.576
408.423	23.489	1079.902	844.529
409.438	23.472	1079.074	843.725
410.453	23.502	1078.412	843.279
411.467	23.436	1077.793	842.407
412.482	23.534	1076.986	842.165
413.496	23.478	1076.606	841.527
414.511	23.340	1076.110	840.412
415.526	23.447	1075.942	840.712
416.540	23.513	1075.211	840.382
417.555	23.471	1074.418	839.489
418.569	23.573	1074.067	839.620
419.584	23.608	1073.615	839.359
420.599	23.595	1073.040	838.775
421.613	149.070	1400.333	1799.049
422.628	137.425	1447.993	1799.129
