DTS Sentinel unit serial number:	SN413079Multiplexer serial number:	ORYXHardware model number:	OX4-SRSoftware version number:	ORYX F/W v4.00 Oryx Data Collector v3.7.2.0data status	okinstallation	princeton_trtdifferential loss correction	single-endedforward channel	channel 2reverse channel	N/Adate	2019/09/19time	01:51:35forward acquisition time	60.00reverse acquisition time	0.00gamma	496.2192k internal	0.2353k external	0.2353temperature offset calibration	1.0016default loss term (dB/km)	0.3790temperature slope calibration	1.0000multiplexer offset coefficient	1.0000multiplexer slope coefficient	1.0000fibre end	0.00T internal ref (°C)	21.37T ext. ref 1 (°C)	0.69T ext. ref 2 (°C)	14.77length (m)	temperature (°C)	Stokes	anti-Stokes-747.200	-109.990	0.158	0.033
-746.185	-108.459	-0.392	-0.084
-745.171	556.985	0.079	0.190
-744.156	800.000	-0.085	0.333
-743.142	-133.965	-0.464	0.057
-742.127	-139.177	0.287	-0.031
-741.112	186.286	0.124	0.184
-740.098	-200.000	-0.010	0.323
-739.083	800.000	0.036	0.105
-738.069	-200.000	-0.036	0.296
-737.054	248.233	-0.155	0.261
-736.039	-200.000	0.036	0.239
-735.025	19.013	0.074	-0.059
-734.010	800.000	-0.067	0.186
-732.996	-150.422	-0.093	0.007
-731.981	800.000	-0.129	0.378
-730.966	-147.522	-0.413	0.035
-729.952	84.703	-0.218	-0.237
-728.937	-200.000	-0.001	0.107
-727.923	632.604	-0.086	-0.217
-726.908	-115.259	-0.136	-0.026
-725.894	-77.320	0.114	0.039
-724.879	-88.825	0.082	0.024
-723.864	-15.734	-0.164	-0.104
-722.850	-200.000	0.012	0.110
-721.835	39.659	0.093	-0.083
-720.821	-25.217	-0.246	-0.145
-719.806	-44.627	0.055	-0.027
-718.791	-11.488	-0.039	0.025
-717.777	-62.269	-0.146	0.060
-716.762	263.777	0.147	-0.254
-715.748	800.000	0.125	-0.449
-714.733	-1.941	0.200	-0.140
-713.718	243.850	0.141	0.235
-712.704	-200.000	0.009	-0.209
-711.689	-131.649	-0.043	-0.006
-710.675	499.473	-0.006	0.014
-709.660	800.000	-0.049	-0.203
-708.645	-107.712	-0.240	-0.052
-707.631	-11.554	0.083	-0.054
-706.616	-200.000	0.064	0.340
-705.602	-167.316	-0.196	0.008
-704.587	-101.403	-0.242	-0.059
-703.572	-200.000	0.040	0.194
-702.558	16.773	0.089	0.070
-701.543	4.559	-0.349	-0.255
-700.529	75.638	-0.271	0.285
-699.514	2.632	0.221	-0.159
-698.499	-55.001	-0.203	0.091
-697.485	421.989	0.049	0.105
-696.470	-65.705	-0.233	0.093
-695.456	-108.944	-0.349	-0.074
-694.441	-166.648	0.272	0.011
-693.426	24.164	-0.191	0.157
-692.412	-80.337	0.060	-0.020
-691.397	20.090	0.099	0.079
-690.383	232.100	0.095	-0.155
-689.368	535.965	-0.171	-0.404
-688.354	-136.706	-0.292	0.033
-687.339	-200.000	-0.022	-0.382
-686.324	-200.000	-0.098	-0.435
-685.310	-200.000	0.015	-0.171
-684.295	87.823	0.137	0.151
-683.281	800.000	-0.099	-0.289
-682.266	4.268	0.158	0.115
-681.251	51.135	0.080	0.075
-680.237	-84.318	-0.140	-0.044
-679.222	691.197	0.050	0.130
-678.208	181.115	-0.196	-0.287
-677.193	800.000	0.042	-0.169
-676.178	800.000	0.076	0.271
-675.164	-58.060	-0.053	0.023
-674.149	-85.655	0.369	-0.114
-673.135	800.000	0.046	-0.182
-672.120	-121.308	0.397	0.066
-671.105	-15.872	0.352	-0.223
-670.091	-83.937	-0.208	0.066
-669.076	532.214	-0.031	-0.073
-668.062	-200.000	0.014	0.328
-667.047	-81.907	0.103	-0.033
-666.032	-8.358	-0.138	-0.092
-665.018	800.000	-0.048	-0.181
-664.003	110.655	-0.054	-0.064
-662.989	-135.228	-0.191	0.023
-661.974	104.406	0.174	-0.204
-660.959	322.705	-0.112	-0.213
-659.945	47.867	0.197	-0.182
-658.930	-95.830	-0.140	-0.037
-657.916	-122.761	-0.357	-0.057
-656.901	-112.419	-0.130	-0.026
-655.886	104.039	0.258	0.301
-654.872	-200.000	0.009	0.334
-653.857	406.229	-0.038	-0.079
-652.843	682.435	0.080	0.207
-651.828	260.646	0.013	-0.022
-650.814	431.223	0.160	0.344
-649.799	800.000	-0.059	-0.206
-648.784	-16.224	0.097	0.061
-647.770	41.096	0.311	0.279
-646.755	-22.247	-0.216	0.130
-645.741	-200.000	-0.004	0.210
-644.726	-31.647	0.224	-0.125
-643.711	135.387	-0.141	-0.182
-642.697	-200.000	0.018	-0.302
-641.682	-11.362	0.109	-0.071
-640.668	662.764	0.121	-0.310
-639.653	167.153	-0.185	-0.261
-638.638	202.998	0.034	0.052
-637.624	760.835	0.048	-0.128
-636.609	800.000	-0.106	0.321
-635.595	274.708	-0.121	-0.213
-634.580	-100.739	-0.185	-0.045
-633.565	-200.000	-0.015	0.110
-632.551	92.172	0.141	0.158
-631.536	90.815	0.238	-0.265
-630.522	-19.730	-0.061	-0.037
-629.507	-200.000	-0.003	0.051
-628.492	-77.859	-0.400	0.137
-627.478	-59.320	-0.181	0.077
-626.463	225.476	-0.066	-0.106
-625.449	-200.000	-0.025	-0.159
-624.434	314.737	0.063	-0.117
-623.419	-69.262	-0.102	-0.039
-622.405	-20.428	0.236	0.144
-621.390	239.296	0.082	-0.136
-620.376	800.000	0.084	-0.277
-619.361	48.197	0.133	-0.123
-618.346	-200.000	-0.001	-0.203
-617.332	232.768	-0.110	-0.179
-616.317	191.865	-0.083	-0.123
-615.303	-200.000	0.006	-0.165
-614.288	107.663	-0.171	0.201
-613.273	16.291	-0.214	0.167
-612.259	-123.484	0.687	-0.108
-611.244	800.000	-0.031	0.103
-610.230	22.176	-0.189	0.153
-609.215	132.125	0.085	-0.109
-608.201	5.695	-0.248	0.182
-607.186	55.995	-0.061	0.058
-606.171	-96.287	0.348	0.091
-605.157	264.121	-0.193	-0.334
-604.142	-178.928	0.171	-0.004
-603.128	-119.562	0.076	-0.013
-602.113	-29.910	0.207	-0.117
-601.098	-89.433	0.353	0.103
-600.084	285.495	-0.083	-0.149
-599.069	-200.000	0.009	-0.103
-598.055	-165.718	0.035	0.002
-597.040	261.967	0.200	0.344
-596.025	-200.000	0.010	-0.227
-595.011	800.000	-0.035	0.108
-593.996	-176.640	-0.264	0.007
-592.982	8.611	-0.195	-0.146
-591.967	-144.208	0.223	-0.021
-590.952	96.359	-0.175	-0.199
-589.938	-95.199	-0.392	-0.105
-588.923	277.354	-0.046	-0.081
-587.909	110.715	-0.156	-0.186
-586.894	-1.591	-0.061	-0.043
-585.879	-130.164	-0.142	0.019
-584.865	192.022	-0.110	0.164
-583.850	76.299	-0.114	0.119
-582.836	-200.000	0.031	0.197
-581.821	67.650	-0.034	0.034
-580.806	119.710	-0.111	0.137
-579.792	-27.994	0.397	-0.227
-578.777	360.683	-0.103	-0.205
-577.763	-100.480	-0.022	0.005
-576.748	-88.565	0.171	0.050
-575.733	55.444	-0.037	0.035
-574.719	260.444	-0.069	-0.118
-573.704	190.780	0.245	-0.365
-572.690	183.853	0.176	0.258
-571.675	396.394	0.079	0.163
-570.661	522.818	-0.051	0.118
-569.646	51.789	0.070	0.066
-568.631	68.832	-0.161	-0.163
-567.617	-159.570	0.162	0.009
-566.602	14.164	0.131	-0.101
-565.588	-81.588	-0.153	0.050
-564.573	35.538	0.171	0.149
-563.558	-160.018	0.126	-0.007
-562.544	45.300	-0.171	0.156
-561.529	25.523	-0.214	-0.176
-560.515	-104.970	0.106	0.024
-559.500	747.489	-0.049	0.131
-558.485	800.000	0.051	-0.185
-557.471	196.262	-0.197	-0.297
-556.456	565.461	-0.079	-0.189
-555.442	19.064	-0.124	0.098
-554.427	199.112	0.058	0.088
-553.412	-200.000	-0.058	0.466
-552.398	42.902	0.208	0.188
-551.383	-105.351	-0.114	-0.026
-550.369	343.418	-0.150	-0.291
-549.354	-200.000	0.023	-0.190
-548.339	786.933	0.079	0.214
-547.325	51.928	-0.243	0.229
-546.310	79.309	0.086	0.092
-545.296	-65.799	0.212	0.084
-544.281	-18.492	-0.187	0.116
-543.266	-58.144	0.260	-0.112
-542.252	367.624	-0.027	-0.053
-541.237	504.818	0.020	-0.045
-540.223	-200.000	-0.087	0.526
-539.208	-21.325	0.275	-0.166
-538.193	77.666	-0.042	-0.044
-537.179	96.163	0.280	-0.317
-536.164	-71.231	-0.359	0.133
-535.150	-73.918	0.278	-0.100
-534.135	311.941	0.085	0.157
-533.121	-25.576	-0.078	-0.046
-532.106	-200.000	-0.039	0.410
-531.091	15.143	0.192	-0.149
-530.077	63.340	0.049	0.048
-529.062	461.062	0.127	0.280
-528.048	-129.756	0.533	-0.073
-527.033	-200.000	0.021	-0.165
-526.018	202.518	-0.036	-0.055
-525.004	161.517	-0.075	-0.104
-523.989	-92.895	-0.359	0.099
-522.975	-27.547	-0.295	0.169
-521.960	-200.000	0.005	0.338
-520.945	357.075	-0.103	0.203
-519.931	606.860	-0.072	-0.176
-518.916	-105.717	0.059	-0.013
-517.902	-200.000	-0.021	-0.153
-516.887	182.589	0.122	0.178
-515.872	-200.000	0.000	0.127
-514.858	-147.684	-0.149	0.012
-513.843	-165.486	-0.107	-0.005
-512.829	800.000	-0.014	-0.040
-511.814	126.487	0.118	-0.147
-510.799	216.003	0.014	0.023
-509.785	-97.620	-0.399	-0.102
-508.770	666.907	-0.088	-0.225
-507.756	-200.000	0.031	-0.295
-506.741	102.935	-0.055	0.063
-505.726	465.341	-0.162	-0.358
-504.712	-99.960	-0.362	0.089
-503.697	-200.000	0.020	0.097
-502.683	-68.537	0.228	0.087
-501.668	800.000	-0.017	0.065
-500.653	-200.000	-0.016	-0.338
-499.639	-200.000	-0.019	0.198
-498.624	133.526	-0.118	-0.150
-497.610	80.993	-0.230	0.245
-496.595	800.000	0.026	-0.085
-495.581	-62.908	-0.294	-0.120
-494.566	-200.000	0.042	-0.306
-493.551	-200.000	-0.030	0.157
-492.537	-146.135	0.195	0.017
-491.522	-136.079	-0.270	0.031
-490.508	62.930	-0.237	0.234
-489.493	595.384	0.116	0.282
-488.478	150.354	0.069	0.093
-487.464	-145.509	-0.485	0.043
-486.449	-200.000	0.031	-0.244
-485.435	-74.080	0.194	0.069
-484.420	-200.000	-0.651	-0.003
-483.405	-164.486	0.176	-0.008
-482.391	11.470	-0.115	0.087
-481.376	117.779	0.160	0.194
-480.362	-161.602	-0.275	-0.014
-479.347	-200.000	-0.011	-0.280
-478.332	253.574	0.080	-0.135
-477.318	546.270	0.136	0.321
-476.303	-200.000	0.052	0.396
-475.289	156.091	0.062	0.084
-474.274	-1.268	0.372	-0.259
-473.259	760.204	-0.113	0.302
-472.245	800.000	0.070	-0.244
-471.230	95.394	-0.110	0.124
-470.216	-200.000	0.000	-0.471
-469.201	132.945	0.173	-0.220
-468.186	421.853	-0.073	0.155
-467.172	-200.000	0.049	0.244
-466.157	157.590	0.197	0.269
-465.143	800.000	0.063	-0.188
-464.128	-1.540	-0.239	0.166
-463.113	-200.000	-0.052	-0.242
-462.099	-115.493	-0.142	-0.026
-461.084	-44.387	-0.276	0.136
-460.070	-81.858	0.103	0.033
-459.055	-37.602	0.227	-0.119
-458.040	36.353	-0.117	0.102
-457.026	350.749	-0.067	0.131
-456.011	81.974	0.180	-0.192
-454.997	34.788	0.206	-0.177
-453.982	800.000	0.026	-0.071
-452.968	333.787	-0.050	0.096
-451.953	-121.494	0.115	-0.019
-450.938	-182.785	0.348	0.006
-449.924	-107.454	-0.314	0.068
-448.909	-66.555	-0.287	0.112
-447.895	-86.004	0.055	-0.017
-446.880	-23.510	-0.362	0.214
-445.865	51.266	0.319	0.299
-444.851	-36.295	0.083	0.044
-443.836	372.719	0.050	-0.101
-442.822	-200.000	0.028	-0.153
-441.807	800.000	0.066	0.202
-440.792	391.792	-0.107	-0.219
-439.778	20.364	-0.145	0.115
-438.763	-200.000	0.008	-0.250
-437.749	310.190	-0.212	0.391
-436.734	-78.405	0.391	-0.132
-435.719	247.768	-0.084	-0.141
-434.705	-200.000	0.022	-0.121
-433.690	800.000	-0.058	0.213
-432.676	-5.767	0.196	0.132
-431.661	-42.462	0.077	-0.039
-430.646	-200.000	0.015	-0.176
-429.632	-36.397	0.364	0.193
-428.617	-85.091	0.362	0.112
-427.603	-200.000	-0.026	0.198
-426.588	800.000	0.042	-0.124
-425.573	-63.779	-0.210	0.085
-424.559	-4.002	0.143	0.098
-423.544	-5.845	0.310	0.209
-422.530	800.000	-0.034	-0.112
-421.515	-45.748	0.291	-0.141
-420.500	-200.000	-0.033	0.276
-419.486	247.073	-0.177	0.294
-418.471	4.820	-0.242	0.175
-417.457	-134.207	0.161	-0.020
-416.442	309.993	0.064	-0.117
-415.428	800.000	-0.027	-0.098
-414.413	442.697	-0.105	0.226
-413.398	67.969	0.280	0.282
-412.384	6.868	0.273	-0.200
-411.369	-157.905	0.306	0.018
-410.355	-200.000	0.014	0.267
-409.340	13.760	0.208	0.159
-408.325	-13.198	-0.125	-0.080
-407.311	-200.000	-0.005	0.309
-406.296	-32.815	-0.022	-0.012
-405.282	-200.000	-0.010	-0.194
-404.267	-200.000	0.001	-0.085
-403.252	-105.616	0.136	-0.030
-402.238	-100.018	-0.135	0.033
-401.223	-200.000	0.020	0.101
-400.209	468.729	-0.018	-0.039
-399.194	-152.607	-0.112	0.008
-398.179	173.796	-0.158	-0.224
-397.165	-97.082	0.040	-0.010
-396.150	-200.000	0.014	-0.136
-395.136	-137.769	-0.261	0.029
-394.121	106.113	0.039	-0.046
-393.106	-13.982	0.054	-0.034
-392.092	33.990	-0.254	0.218
-391.077	-162.619	0.467	0.023
-390.063	-78.899	-0.136	0.046
-389.048	-72.743	0.125	0.045
-388.033	-117.905	-0.328	-0.058
-387.019	274.264	-0.100	-0.175
-386.004	-170.998	0.395	-0.013
-384.990	209.604	0.287	-0.443
-383.975	-54.981	-0.230	0.102
-382.960	-41.993	-0.086	0.043
-381.946	-26.525	0.095	-0.054
-380.931	-200.000	-0.025	-0.178
-379.917	18.777	-0.142	-0.112
-378.902	-200.000	-0.007	-0.206
-377.888	-200.000	-0.076	0.373
-376.873	39.301	0.168	-0.148
-375.858	434.088	0.019	0.041
-374.844	-104.727	-0.239	0.054
-373.829	-36.227	0.121	0.064
-372.815	-39.673	0.147	0.076
-371.800	119.119	-0.084	0.102
-370.785	-188.100	0.116	-0.001
-369.771	-86.776	-0.229	-0.069
-368.756	103.735	0.078	-0.089
-367.742	286.706	0.146	-0.259
-366.727	-92.935	-0.189	0.052
-365.712	-200.000	-0.007	0.069
-364.698	800.000	-0.156	-0.457
-363.683	13.585	0.118	-0.090
-362.669	-4.701	-0.423	-0.286
-361.654	553.997	0.074	0.176
-360.639	-200.000	0.052	-0.349
-359.625	800.000	-0.091	-0.247
-358.610	-58.213	0.285	0.122
-357.596	-73.232	-0.148	-0.053
-356.581	-18.339	-0.272	-0.167
-355.566	109.191	0.375	0.441
-354.552	800.000	-0.050	0.208
-353.537	608.619	-0.151	0.369
-352.523	-107.532	0.157	0.034
-351.508	89.859	-0.209	-0.230
-350.493	-200.000	0.001	-0.306
-349.479	-200.000	0.011	0.062
-348.464	251.345	-0.181	0.303
-347.450	-200.000	0.020	0.144
-346.435	-6.860	0.026	0.018
-345.420	-89.549	-0.212	0.061
-344.406	-177.862	-0.251	-0.006
-343.391	-144.253	0.115	0.011
-342.377	78.243	0.117	-0.122
-341.362	800.000	-0.067	-0.193
-340.348	-200.000	0.020	-0.152
-339.333	-200.000	-0.023	0.448
-338.318	84.797	-0.201	-0.216
-337.304	-46.301	0.546	0.263
-336.289	72.340	0.164	0.167
-335.275	-29.404	-0.096	-0.054
-334.260	-200.000	0.155	-0.000
-333.245	-100.295	-0.106	-0.026
-332.231	278.968	0.136	-0.238
-331.216	-100.557	-0.223	-0.054
-330.202	-163.269	0.205	-0.010
-329.187	127.352	0.034	-0.042
-328.172	800.000	-0.027	-0.105
-327.158	-200.000	-0.026	-0.121
-326.143	-42.731	-0.127	0.063
-325.129	-106.192	0.275	-0.061
-324.114	-200.000	0.025	0.297
-323.099	-91.120	-0.135	0.038
-322.085	-161.878	-0.117	0.006
-321.070	217.782	0.082	0.129
-320.056	800.000	-0.074	0.241
-319.041	-200.000	0.065	0.282
-318.026	107.655	0.048	0.056
-317.012	-178.830	-0.145	0.003
-315.997	-200.000	-0.036	-0.194
-314.983	42.375	-0.151	0.134
-313.968	442.758	0.094	-0.202
-312.953	86.831	-0.170	-0.184
-311.939	-140.047	0.260	0.027
-310.924	-92.317	0.397	-0.110
-309.910	-200.000	-0.048	-0.325
-308.895	-147.824	0.268	0.022
-307.880	-104.211	-0.212	0.048
-306.866	-200.000	-0.007	-0.113
-305.851	-26.314	0.421	0.242
-304.837	127.694	-0.124	-0.154
-303.822	70.666	-0.093	0.095
-302.807	409.442	0.132	-0.274
-301.793	800.000	-0.073	-0.230
-300.778	-132.489	0.289	0.036
-299.764	-140.108	-0.167	0.017
-298.749	-200.000	-0.035	0.211
-297.735	-98.331	0.289	0.073
-296.720	393.039	0.108	0.219
-295.705	24.322	0.221	0.179
-294.691	217.402	0.031	0.049
-293.676	786.836	0.070	0.187
-292.662	800.000	0.133	0.415
-291.647	79.922	-0.236	-0.248
-290.632	-30.034	-0.136	0.076
-289.618	-71.307	-0.034	-0.012
-288.603	-127.422	0.125	-0.018
-287.589	18.272	0.180	0.141
-286.574	658.839	0.151	-0.381
-285.559	-104.165	-0.038	0.009
-284.545	75.094	-0.069	-0.072
-283.530	23.937	-0.223	0.180
-282.516	-101.601	-0.058	0.014
-281.501	-2.529	0.194	0.133
-280.486	88.547	0.158	-0.172
-279.472	269.440	-0.019	-0.034
-278.457	-96.773	0.056	-0.014
-277.443	21.850	0.158	0.126
-276.428	-56.728	-0.103	0.044
-275.413	-200.000	-0.018	0.105
-274.399	-200.000	0.021	-0.125
-273.384	-69.117	-0.223	0.084
-272.370	-81.810	0.079	0.025
-271.355	-200.000	-0.040	0.418
-270.340	-92.409	0.455	-0.125
-269.326	262.721	0.166	0.282
-268.311	-139.066	0.076	-0.008
-267.297	-91.161	-0.130	-0.036
-266.282	-200.000	-0.013	-0.132
-265.267	-200.000	0.015	0.331
-264.253	-62.197	0.055	-0.022
-263.238	-85.606	-0.069	0.021
-262.224	-200.000	-0.004	0.290
-261.209	800.000	0.028	-0.114
-260.195	354.992	-0.139	-0.270
-259.180	145.781	0.106	-0.138
-258.165	-156.374	0.039	-0.002
-257.151	-125.998	0.249	0.037
-256.136	-6.057	-0.290	0.194
-255.122	92.760	-0.131	0.144
-254.107	-200.000	0.013	-0.198
-253.092	237.080	0.165	-0.267
-252.078	800.000	-0.041	-0.169
-251.063	174.514	-0.079	0.112
-250.049	171.800	-0.143	-0.201
-249.034	-36.646	0.263	0.138
-248.019	-82.184	-0.043	-0.014
-247.005	-160.040	-0.231	0.012
-245.990	124.751	0.247	-0.303
-244.976	118.518	-0.221	-0.266
-243.961	203.738	-0.110	-0.167
-242.946	-200.000	0.032	-0.185
-241.932	33.311	0.099	0.084
-240.917	-200.000	0.001	-0.134
-239.903	-109.408	0.364	0.075
-238.888	388.055	-0.109	-0.220
-237.873	-139.524	-0.146	0.015
-236.859	-15.445	-0.241	-0.150
-235.844	158.021	-0.059	-0.080
-234.830	-106.544	0.063	0.014
-233.815	800.000	-0.054	-0.199
-232.800	-200.000	0.012	-0.174
-231.786	-126.039	-0.197	0.029
-230.771	-81.052	0.248	-0.080
-229.757	225.267	-0.227	0.358
-228.742	-169.001	0.207	-0.008
-227.727	-45.385	-0.263	-0.127
-226.713	-4.850	-0.130	0.088
-225.698	-101.483	0.257	-0.061
-224.684	-35.617	-0.280	0.149
-223.669	-200.000	0.014	-0.097
-222.655	-200.000	-0.003	-0.168
-221.640	-134.572	0.352	0.042
-220.625	-76.635	0.058	0.020
-219.611	-150.955	0.241	0.018
-218.596	-200.000	-0.002	-0.202
-217.582	800.000	-0.036	-0.138
-216.567	114.650	-0.230	0.274
-215.552	-107.221	0.447	0.096
-214.538	174.541	-0.167	-0.236
-213.523	20.834	-0.110	0.087
-212.509	118.429	-0.068	-0.082
-211.494	-200.000	-0.021	0.153
-210.479	-97.498	0.039	-0.010
-209.465	8.598	0.211	-0.155
-208.450	45.366	0.048	0.044
-207.436	-181.779	0.323	0.006
-206.421	263.424	0.205	-0.348
-205.406	-200.000	-0.003	0.036
-204.392	-200.000	-0.047	-0.425
-203.377	64.217	-0.127	-0.125
-202.363	-129.274	-0.434	0.059
-201.348	78.221	0.189	0.197
-200.333	-200.000	-0.024	0.131
-199.319	1.027	0.158	-0.111
-198.304	-146.234	0.262	0.022
-197.290	173.017	-0.160	-0.226
-196.275	33.045	-0.216	0.183
-195.260	-200.000	0.040	0.265
-194.246	800.000	0.030	-0.084
-193.231	-200.000	-0.077	-0.366
-192.217	-104.031	-0.273	-0.062
-191.202	-200.000	0.018	0.154
-190.187	-57.830	0.503	0.215
-189.173	46.733	-0.092	0.084
-188.158	-95.071	-0.254	-0.067
-187.144	136.050	0.083	0.105
-186.129	692.619	-0.166	0.424
-185.114	-200.000	-0.008	0.248
-184.100	-140.163	-0.275	-0.028
-183.085	-83.487	-0.051	-0.016
-182.071	197.410	-0.144	-0.215
-181.056	6.491	-0.357	-0.258
-180.042	288.167	-0.019	0.033
-179.027	161.239	0.330	-0.450
-178.012	-185.799	-0.185	0.003
-176.998	95.183	-0.111	0.123
-175.983	131.726	0.233	0.293
-174.969	-36.472	-0.240	0.126
-173.954	-200.000	0.014	0.268
-172.939	531.033	-0.112	-0.259
-171.925	-200.000	0.028	0.262
-170.910	60.788	0.075	0.072
-169.896	-170.386	-0.209	0.007
-168.881	166.240	-0.041	-0.057
-167.866	280.538	-0.064	0.111
-166.852	-200.000	-0.025	-0.150
-165.837	800.000	-0.028	-0.097
-164.823	183.687	0.234	-0.337
-163.808	800.000	0.063	-0.198
-162.793	-90.575	-0.127	-0.036
-161.779	-80.488	-0.165	0.054
-160.764	-98.771	0.140	0.035
-159.750	47.584	-0.089	-0.081
-158.735	-170.173	0.199	-0.007
-157.720	268.856	-0.127	0.217
-156.706	-200.000	0.023	0.203
-155.691	-200.000	-0.037	0.553
-154.677	-73.259	-0.392	-0.140
-153.662	150.616	-0.085	-0.112
-152.647	-16.985	-0.183	0.113
-151.633	-200.000	-0.008	0.459
-150.618	-120.188	-0.133	-0.022
-149.604	-120.654	0.244	-0.040
-148.589	194.405	0.049	-0.073
-147.574	-38.371	-0.088	-0.045
-146.560	42.600	0.349	-0.309
-145.545	-71.027	-0.039	-0.014
-144.531	-132.180	-0.279	-0.035
-143.516	94.100	0.171	0.189
-142.502	-42.921	-0.051	-0.025
-141.487	38.866	0.200	0.174
-140.472	-86.981	0.027	0.008
-139.458	527.720	0.116	-0.266
-138.443	-24.719	0.242	-0.140
-137.429	527.375	0.110	-0.251
-136.414	28.176	0.193	-0.158
-135.399	-200.000	0.025	0.107
-134.385	-200.000	0.023	-0.140
-133.370	-96.432	0.306	-0.079
-132.356	126.995	0.161	-0.198
-131.341	-94.067	0.153	-0.041
-130.326	-22.985	0.198	0.116
-129.312	95.007	-0.118	0.131
-128.297	49.350	0.329	0.301
-127.283	357.060	-0.091	0.176
-126.268	-128.531	-0.183	0.025
-125.253	-34.335	0.196	-0.105
-124.239	-124.929	0.060	0.009
-123.224	96.747	-0.166	-0.185
-122.210	-200.000	-0.010	-0.082
-121.195	-52.168	0.312	-0.141
-120.180	115.577	-0.134	0.160
-119.166	-31.037	-0.119	0.066
-118.151	69.314	0.214	0.214
-117.137	373.757	-0.033	0.066
-116.122	800.000	0.079	-0.238
-115.107	213.857	-0.073	0.113
-114.093	-200.000	-0.080	0.355
-113.078	636.873	0.036	0.090
-112.064	264.859	-0.115	-0.195
-111.049	-200.000	-0.007	-0.247
-110.034	172.800	-0.078	0.110
-109.020	41.164	-0.183	0.160
-108.005	-63.250	0.359	-0.144
-106.991	-200.000	-0.021	0.147
-105.976	800.000	-0.070	-0.201
-104.962	-200.000	-0.020	0.179
-103.947	-86.547	-0.066	-0.020
-102.932	-149.716	0.441	0.034
-101.918	800.000	0.131	0.354
-100.903	25.582	0.305	-0.247
-99.889	-32.714	-0.261	0.141
-98.874	745.060	0.113	0.297
-97.859	244.671	0.206	-0.337
-96.845	29.644	0.181	0.150
-95.830	384.806	0.039	-0.079
-94.816	-78.027	-0.273	0.091
-93.801	-47.097	-0.303	-0.144
-92.786	800.000	-0.025	0.094
-91.772	-28.426	-0.054	-0.030
-90.757	350.514	-0.058	0.111
-89.743	-62.454	-0.116	0.047
-88.728	-29.975	0.064	-0.036
-87.713	78.496	0.043	0.045
-86.699	-111.083	-0.259	0.052
-85.684	81.224	0.148	0.155
-84.670	403.714	0.066	0.135
-83.655	-83.860	-0.353	0.109
-82.640	-1.263	0.087	0.060
-81.626	-101.735	0.189	0.044
-80.611	11.092	-0.187	-0.139
-79.597	-200.000	0.022	0.105
-78.582	207.267	0.188	0.284
-77.567	401.723	0.051	-0.105
-76.553	-200.000	-0.005	-0.041
-75.538	-137.500	-0.135	-0.015
-74.524	122.530	-0.044	-0.053
-73.509	-90.072	0.340	-0.096
-72.494	800.000	-0.025	-0.085
-71.480	-101.314	-0.386	-0.091
-70.465	-125.529	-0.065	0.010
-69.451	-147.115	0.081	-0.007
-68.436	800.000	0.051	-0.167
-67.422	-152.822	0.185	0.013
-66.407	-200.000	0.027	0.132
-65.392	-173.563	-0.116	0.003
-64.378	-126.911	-0.277	-0.040
-63.363	-81.382	-0.255	-0.082
-62.349	395.296	-0.116	-0.235
-61.334	53.522	-1.301	-1.211
-60.319	244.646	0.549	0.895
-59.305	800.000	-0.359	-1.331
-58.290	244.598	0.818	1.334
-57.276	161.827	0.974	1.323
-56.261	-200.000	134.783	686.383
-55.246	344.860	1675.611	3191.625
-54.232	133.951	2815.035	3537.110
-53.217	83.976	2311.231	2448.570
-52.203	30.236	1907.936	1580.246
-51.188	24.344	1702.969	1365.471
-50.173	22.445	1665.444	1321.095
-49.159	44.617	1738.620	1550.467
-48.144	41.637	1748.053	1535.938
-47.130	23.890	1699.398	1358.923
-46.115	21.433	1684.118	1328.017
-45.100	21.253	1678.477	1322.152
-44.086	21.276	1676.240	1320.517
-43.071	21.291	1673.435	1318.366
-42.057	21.261	1671.426	1316.507
-41.042	21.300	1669.682	1315.369
-40.027	21.244	1667.779	1313.403
-39.013	21.313	1665.193	1311.826
-37.998	21.195	1664.566	1310.401
-36.984	21.222	1663.219	1309.488
-35.969	21.307	1661.682	1308.862
-34.954	21.376	1659.627	1307.705
-33.940	21.349	1658.132	1306.279
-32.925	21.419	1656.467	1305.431
-31.911	21.332	1654.466	1303.158
-30.896	21.313	1653.100	1301.890
-29.881	21.278	1651.950	1300.668
-28.867	21.357	1650.642	1300.176
-27.852	21.395	1648.810	1298.962
-26.838	21.407	1647.488	1297.962
-25.823	21.345	1645.874	1296.178
-24.809	21.399	1644.887	1295.749
-23.794	21.393	1643.369	1294.456
-22.779	21.368	1642.400	1293.459
-21.765	21.411	1640.530	1292.251
-20.750	21.358	1638.863	1290.497
-19.736	21.399	1638.022	1290.082
-18.721	21.369	1636.546	1288.648
-17.706	21.390	1634.978	1287.520
-16.692	21.363	1633.096	1285.788
-15.677	21.495	1631.585	1285.516
-14.663	21.477	1630.392	1284.391
-13.648	21.455	1629.292	1283.314
-12.633	21.501	1627.392	1282.107
-11.619	21.407	1626.048	1280.308
-10.604	21.385	1624.871	1279.168
-9.590	21.466	1623.118	1278.327
-8.575	21.371	1622.212	1276.870
-7.560	21.445	1621.227	1276.583
-6.546	21.422	1620.150	1275.518
-5.531	21.509	1618.614	1274.892
-4.517	21.377	1617.708	1273.167
-3.502	21.329	1616.779	1272.035
-2.487	21.459	1614.562	1271.187
-1.473	20.995	1602.291	1258.128
-0.458	18.007	1582.476	1221.193
0.556	13.336	1584.133	1188.886
1.571	11.216	1608.313	1191.443
2.586	10.929	1620.411	1198.188
3.600	10.336	1565.945	1153.589
4.615	5.867	1460.538	1046.095
5.629	1.493	1404.486	977.772
6.644	0.679	1397.980	967.943
7.659	0.698	1397.013	967.307
8.673	0.731	1395.472	966.369
9.688	0.652	1393.361	964.314
10.702	0.472	1389.600	960.485
11.717	2.825	1392.285	977.247
12.731	8.896	1401.496	1022.438
13.746	14.890	1411.066	1067.715
14.761	17.176	1413.602	1084.143
15.775	16.665	1411.397	1079.102
16.790	15.715	1409.547	1071.542
17.804	14.953	1407.207	1064.821
18.819	14.630	1404.742	1060.809
19.834	14.354	1404.105	1058.479
20.848	14.149	1402.935	1056.200
21.863	13.841	1401.578	1053.134
22.877	13.654	1400.751	1051.230
23.892	13.568	1399.546	1049.692
24.907	13.634	1398.852	1049.491
25.921	13.612	1397.956	1048.589
26.936	13.680	1396.822	1048.078
27.950	13.671	1396.209	1047.467
28.965	13.790	1394.946	1047.180
29.980	13.811	1393.973	1046.488
30.994	13.938	1392.770	1046.293
32.009	13.912	1391.919	1045.394
33.023	13.896	1390.887	1044.424
34.038	13.837	1389.682	1043.057
35.053	13.820	1388.603	1042.051
36.067	13.791	1387.458	1040.916
37.082	13.774	1386.564	1040.049
38.096	13.723	1386.057	1039.255
39.111	13.875	1384.874	1039.231
40.126	13.748	1383.880	1037.596
41.140	13.716	1383.068	1036.696
42.155	13.660	1382.579	1035.888
43.169	13.679	1382.688	1035.997
44.184	13.659	1382.451	1035.605
45.199	13.661	1381.761	1035.006
46.213	13.658	1381.589	1034.767
47.228	13.690	1380.467	1034.031
48.242	13.759	1378.811	1033.130
49.257	13.749	1377.384	1031.912
50.271	13.829	1375.982	1031.268
51.286	13.818	1374.432	1029.940
52.301	13.767	1373.551	1028.878
53.315	13.809	1372.112	1027.969
54.330	13.667	1371.296	1026.383
55.344	13.650	1370.234	1025.392
56.359	13.608	1369.069	1024.174
57.374	13.610	1368.245	1023.476
58.388	13.650	1367.344	1022.961
59.403	13.592	1366.740	1022.063
60.417	13.581	1366.380	1021.634
61.432	13.536	1365.211	1020.391
62.447	13.681	1363.657	1020.033
63.461	13.626	1362.640	1018.845
64.476	13.548	1361.596	1017.495
65.490	13.545	1360.686	1016.705
66.505	13.644	1358.230	1015.384
67.520	13.560	1357.749	1014.423
68.534	13.585	1356.450	1013.515
69.549	13.644	1355.554	1013.114
70.563	13.580	1354.656	1011.964
71.578	13.582	1353.330	1010.898
72.593	13.576	1352.451	1010.111
73.607	13.586	1351.732	1009.551
74.622	13.419	1351.156	1008.012
75.636	13.493	1350.429	1007.830
76.651	13.577	1348.985	1007.171
77.666	13.532	1349.385	1007.112
78.680	13.499	1348.676	1006.294
79.695	13.501	1347.626	1005.432
80.709	13.488	1346.839	1004.674
81.724	13.553	1346.096	1004.427
82.739	13.695	1344.725	1004.176
83.753	13.708	1343.736	1003.428
84.768	13.725	1342.641	1002.625
85.782	13.721	1341.607	1001.737
86.797	13.692	1340.256	1000.465
87.812	13.682	1338.942	999.338
88.826	13.727	1337.496	998.439
89.841	13.682	1336.678	997.471
90.855	13.647	1335.705	996.446
91.870	13.707	1334.683	995.956
92.884	13.749	1334.327	995.851
93.899	13.718	1333.558	995.006
94.914	13.867	1331.952	994.613
95.928	13.758	1331.397	993.458
96.943	13.909	1330.456	993.570
97.957	13.773	1330.067	992.379
98.972	13.850	1328.308	991.437
99.987	13.762	1327.453	990.188
101.001	13.834	1326.249	989.629
102.016	13.782	1325.313	988.532
103.030	13.780	1324.724	987.995
104.045	13.769	1323.541	986.961
105.060	13.811	1321.840	985.852
106.074	13.668	1321.105	984.369
107.089	13.676	1319.610	983.215
108.103	13.715	1318.544	982.567
109.118	13.679	1317.570	981.540
110.133	13.676	1316.337	980.519
111.147	13.689	1314.686	979.278
112.162	13.811	1313.016	978.668
113.176	13.795	1312.247	977.913
114.191	13.859	1310.907	977.204
115.206	13.733	1310.158	975.819
116.220	13.775	1308.919	975.057
117.235	13.776	1307.627	974.015
118.249	13.710	1306.954	973.036
119.264	13.758	1305.622	972.244
120.279	13.675	1304.601	970.908
121.293	13.759	1303.359	970.391
122.308	13.635	1302.848	969.196
123.322	13.739	1301.171	968.475
124.337	13.740	1299.869	967.423
125.352	13.676	1299.146	966.429
126.366	13.636	1297.917	965.193
127.381	13.651	1297.127	964.610
128.395	13.681	1295.903	963.789
129.410	13.791	1294.427	963.242
130.424	13.706	1294.230	962.517
131.439	13.745	1293.207	961.900
132.454	13.811	1291.582	960.985
133.468	13.704	1291.464	960.195
134.483	13.785	1290.082	959.550
135.497	13.820	1288.843	958.748
136.512	13.730	1288.123	957.607
137.527	13.705	1286.526	956.190
138.541	13.723	1284.819	954.938
139.556	13.755	1283.862	954.328
140.570	13.778	1282.851	953.626
141.585	13.812	1281.687	952.869
142.600	13.894	1280.345	952.260
143.614	13.865	1279.617	951.470
144.629	13.971	1278.050	950.823
145.643	13.998	1276.847	949.997
146.658	13.919	1275.554	948.504
147.673	13.839	1274.443	947.139
148.687	13.751	1273.952	946.183
149.702	13.835	1271.868	945.031
150.716	13.884	1270.162	943.959
151.731	13.934	1269.259	943.486
152.746	13.849	1268.682	942.497
153.760	13.980	1267.046	941.940
154.775	14.103	1265.469	941.377
155.789	13.945	1264.980	940.036
156.804	14.001	1263.592	939.238
157.819	14.048	1262.423	938.552
158.833	13.999	1261.668	937.634
159.848	14.150	1260.402	937.462
160.862	14.098	1259.637	936.513
161.877	14.058	1258.279	935.197
162.892	14.037	1257.605	934.497
163.906	14.017	1256.584	933.542
164.921	13.917	1256.038	932.492
165.935	14.051	1254.912	932.325
166.950	13.982	1254.708	931.702
167.964	13.981	1253.759	930.910
168.979	14.022	1252.930	930.445
169.994	14.149	1251.952	930.344
171.008	14.192	1250.821	929.660
172.023	14.196	1250.201	929.141
173.037	14.264	1248.873	928.449
174.052	14.247	1248.737	928.173
175.067	14.205	1247.245	926.747
176.081	14.093	1246.726	925.656
177.096	14.110	1245.588	924.826
178.110	14.306	1244.223	924.821
179.125	14.207	1243.697	923.795
180.140	14.137	1242.075	922.124
181.154	14.342	1240.291	921.850
182.169	14.172	1239.670	920.368
183.183	14.249	1238.546	919.876
184.198	14.311	1237.074	919.044
185.213	14.255	1236.089	917.923
186.227	14.389	1234.734	917.570
187.242	14.335	1234.053	916.687
188.256	14.449	1232.822	916.318
189.271	14.421	1232.287	915.686
190.286	14.361	1230.826	914.193
191.300	14.205	1230.536	913.041
192.315	14.243	1229.482	912.385
193.329	14.303	1228.603	911.978
194.344	14.295	1228.148	911.518
195.359	14.313	1227.604	911.134
196.373	14.435	1226.746	911.083
197.388	14.323	1226.454	910.174
198.402	14.406	1226.077	910.267
199.417	14.650	1224.868	910.619
200.432	14.495	1224.570	909.470
201.446	14.494	1223.626	908.681
202.461	14.645	1221.800	908.066
203.475	14.581	1221.322	907.285
204.490	14.671	1220.082	906.770
205.504	14.566	1218.818	905.181
206.519	14.561	1217.714	904.255
207.534	14.581	1216.061	903.059
208.548	14.657	1215.354	902.860
209.563	14.588	1214.813	902.011
210.577	14.589	1213.870	901.231
211.592	14.632	1212.998	900.737
212.607	14.718	1211.870	900.282
213.621	14.637	1211.231	899.296
214.636	14.764	1210.372	899.259
215.650	14.652	1209.290	897.774
216.665	14.781	1208.101	897.508
217.680	14.780	1207.706	897.128
218.694	14.748	1206.629	896.075
219.709	14.747	1206.180	895.657
220.723	14.777	1204.932	894.813
221.738	14.704	1204.583	894.081
222.753	14.890	1203.801	894.419
223.767	14.893	1202.909	893.693
224.782	14.977	1202.109	893.470
225.796	14.929	1201.329	892.554
226.811	15.029	1200.500	892.389
227.826	14.967	1200.375	891.891
228.840	14.997	1199.169	891.074
229.855	14.910	1198.656	890.152
230.869	14.996	1197.375	889.577
231.884	14.974	1196.553	888.771
232.899	14.913	1196.132	888.057
233.913	14.857	1195.444	887.170
234.928	14.850	1195.044	886.760
235.942	14.989	1193.889	886.561
236.957	14.870	1193.468	885.537
237.972	14.974	1192.130	885.016
238.986	14.962	1191.691	884.551
240.001	14.938	1191.558	884.245
241.015	15.097	1190.026	883.868
242.030	15.091	1189.046	883.030
243.045	15.040	1188.355	882.169
244.059	14.969	1187.586	881.147
245.074	15.064	1187.066	881.182
246.088	15.169	1185.891	880.789
247.103	15.043	1185.296	879.607
248.117	15.160	1184.394	879.472
249.132	15.146	1183.777	878.863
250.147	15.329	1182.839	879.049
251.161	15.348	1182.290	878.659
252.176	15.235	1181.846	877.663
253.190	15.311	1181.564	877.772
254.205	15.334	1180.655	877.139
255.220	15.415	1180.004	877.002
256.234	15.330	1179.661	876.222
257.249	15.304	1178.698	875.299
258.263	15.584	1177.920	876.102
259.278	15.491	1177.239	875.032
260.293	15.470	1176.829	874.544
261.307	15.403	1176.188	873.638
262.322	15.425	1175.680	873.296
263.336	15.568	1174.315	872.952
264.351	15.523	1174.142	872.509
265.366	15.515	1173.535	871.943
266.380	15.567	1172.879	871.645
267.395	15.634	1171.617	870.980
268.409	15.602	1171.104	870.354
269.424	15.650	1170.224	869.870
270.439	15.637	1169.697	869.335
271.453	15.578	1169.260	868.631
272.468	15.563	1168.233	867.711
273.482	15.622	1167.397	867.317
274.497	15.604	1167.340	867.108
275.512	15.601	1166.453	866.355
276.526	15.618	1165.360	865.555
277.541	15.533	1164.969	864.750
278.555	15.567	1164.188	864.269
279.570	15.745	1163.078	864.285
280.585	15.844	1162.072	863.969
281.599	15.768	1161.534	863.102
282.614	15.632	1160.793	861.776
283.628	15.824	1159.179	861.483
284.643	15.877	1158.298	861.027
285.657	15.854	1157.523	860.253
286.672	15.833	1156.624	859.404
287.687	15.803	1155.502	858.340
288.701	15.883	1155.217	858.462
289.716	15.834	1154.300	857.456
290.730	15.914	1153.292	857.036
291.745	15.934	1152.722	856.639
292.760	16.009	1151.734	856.208
293.774	15.908	1151.512	855.455
294.789	16.000	1151.246	855.651
295.803	15.955	1150.418	854.732
296.818	15.989	1149.558	854.190
297.833	15.952	1149.203	853.662
298.847	15.999	1148.065	852.977
299.862	16.135	1147.173	852.931
300.876	15.992	1146.326	851.498
301.891	16.064	1145.923	851.492
302.906	16.022	1145.220	850.678
303.920	16.191	1144.002	850.553
304.935	16.225	1143.725	850.441
305.949	16.255	1142.911	849.913
306.964	16.271	1141.787	849.084
307.979	16.300	1141.569	848.989
308.993	16.376	1140.562	848.549
310.008	16.317	1140.191	847.900
311.022	16.350	1138.842	846.986
312.037	16.330	1138.002	846.190
313.052	16.297	1137.224	845.370
314.066	16.171	1136.593	844.196
315.081	16.231	1135.724	843.775
316.095	16.235	1134.951	843.146
317.110	16.226	1134.417	842.629
318.125	16.293	1133.490	842.200
319.139	16.362	1132.354	841.627
320.154	16.352	1132.001	841.239
321.168	16.319	1131.699	840.778
322.183	16.389	1130.652	840.275
323.197	16.407	1130.300	840.025
324.212	16.403	1129.425	839.283
325.227	16.409	1128.901	838.851
326.241	16.424	1128.354	838.443
327.256	16.448	1127.204	837.630
328.270	16.445	1126.516	837.030
329.285	16.535	1125.478	836.633
330.300	16.434	1124.673	835.461
331.314	16.453	1123.860	834.877
332.329	16.507	1122.723	834.226
333.343	16.455	1121.923	833.299
334.358	16.362	1121.513	832.464
335.373	16.467	1120.907	832.455
336.387	16.538	1119.530	831.709
337.402	16.514	1119.167	831.248
338.416	16.581	1118.239	830.816
339.431	16.573	1117.901	830.451
340.446	16.719	1116.936	830.374
341.460	16.636	1116.060	829.243
342.475	16.688	1115.144	828.748
343.489	16.793	1114.329	828.580
344.504	16.754	1113.649	827.811
345.519	16.875	1112.564	827.523
346.533	16.909	1111.652	826.936
347.548	16.781	1111.341	826.006
348.562	16.813	1110.714	825.624
349.577	16.870	1109.826	825.169
350.592	16.807	1109.007	824.180
351.606	16.661	1108.435	822.970
352.621	16.771	1107.539	822.769
353.635	16.886	1106.498	822.481
354.650	16.874	1105.694	821.754
355.665	16.740	1105.247	820.699
356.679	16.846	1104.940	820.911
357.694	16.858	1104.323	820.440
358.708	16.782	1103.456	819.355
359.723	16.868	1102.962	819.327
360.738	16.907	1102.179	818.865
361.752	16.930	1102.135	818.868
362.767	16.941	1100.823	817.874
363.781	16.923	1100.502	817.477
364.796	16.933	1099.900	817.004
365.810	16.899	1099.960	816.817
366.825	17.177	1098.626	817.090
367.840	17.003	1098.466	816.062
368.854	17.013	1097.644	815.426
369.869	17.185	1096.578	815.389
370.883	17.101	1095.889	814.402
371.898	17.171	1095.239	814.181
372.913	17.179	1094.578	813.656
373.927	17.273	1093.960	813.573
374.942	17.163	1093.519	812.650
375.956	17.225	1092.973	812.468
376.971	17.220	1092.285	811.862
377.986	17.330	1091.690	811.872
379.000	17.296	1091.354	811.387
380.015	17.287	1091.239	811.187
381.029	17.305	1090.310	810.512
382.044	17.288	1089.439	809.713
383.059	17.403	1088.440	809.444
384.073	17.475	1087.490	809.007
385.088	17.457	1086.552	808.154
386.102	17.383	1085.544	806.982
387.117	17.413	1085.099	806.722
388.132	17.478	1083.917	806.080
389.146	17.495	1083.248	805.591
390.161	17.368	1082.820	804.598
391.175	17.455	1081.999	804.330
392.190	17.445	1081.317	803.704
393.205	17.423	1080.785	803.133
394.219	17.500	1079.327	802.341
395.234	17.569	1078.556	802.022
396.248	17.499	1077.883	801.124
397.263	17.443	1076.644	799.868
398.278	17.523	1076.044	799.724
399.292	17.439	1075.179	798.619
400.307	17.545	1074.446	798.499
401.321	17.571	1073.800	798.073
402.336	17.657	1073.215	797.970
403.350	17.486	1072.974	796.921
404.365	17.617	1071.984	796.727
405.380	17.617	1071.188	796.063
406.394	17.593	1070.673	795.496
407.409	17.655	1069.839	795.095
408.423	17.581	1069.590	794.495
409.438	17.833	1068.204	794.573
410.453	17.825	1067.710	794.094
411.467	17.853	1066.692	793.399
412.482	17.741	1066.019	792.308
413.496	17.794	1065.500	792.098
414.511	17.940	1064.632	792.059
415.526	18.001	1064.456	792.142
416.540	17.984	1064.060	791.696
417.555	17.961	1063.782	791.315
418.569	17.845	1063.206	790.278
419.584	17.799	1062.980	789.829
420.599	17.958	1061.703	789.542
421.613	109.692	1332.346	1490.514
422.628	101.321	1371.724	1490.609
