DTS Sentinel unit serial number:	SN413079Multiplexer serial number:	ORYXHardware model number:	OX4-SRSoftware version number:	ORYX F/W v4.00 Oryx Data Collector v3.7.2.0data status	okinstallation	princeton_trtdifferential loss correction	single-endedforward channel	channel 2reverse channel	N/Adate	2019/09/14time	01:11:35forward acquisition time	60.00reverse acquisition time	0.00gamma	496.2192k internal	0.2338k external	0.2338temperature offset calibration	1.0126default loss term (dB/km)	0.3790temperature slope calibration	1.0000multiplexer offset coefficient	1.0000multiplexer slope coefficient	1.0000fibre end	0.00T internal ref (°C)	26.37T ext. ref 1 (°C)	3.18T ext. ref 2 (°C)	21.41length (m)	temperature (°C)	Stokes	anti-Stokes-747.200	753.442	-0.103	0.279
-746.185	800.000	-0.029	0.112
-745.171	537.525	0.077	-0.183
-744.156	-200.000	-0.059	0.542
-743.142	-132.962	-0.152	0.019
-742.127	73.728	-0.253	-0.266
-741.112	-200.000	-0.014	-0.106
-740.098	-142.705	0.156	0.015
-739.083	159.529	-0.065	-0.091
-738.069	-97.378	-0.159	0.042
-737.054	3.641	-0.291	0.213
-736.039	-200.000	0.009	0.139
-735.025	175.988	0.146	-0.213
-734.010	537.737	-0.037	-0.088
-732.996	15.649	-0.379	-0.299
-731.981	126.854	0.115	-0.146
-730.966	800.000	0.034	-0.098
-729.952	13.023	-0.265	-0.205
-728.937	-25.295	-0.120	-0.071
-727.923	43.340	0.266	-0.244
-726.908	-125.739	0.217	-0.033
-725.894	773.011	0.079	0.216
-724.879	59.167	0.129	-0.127
-723.864	800.000	-0.040	0.138
-722.850	170.722	-0.149	0.215
-721.835	-12.804	0.210	-0.137
-720.821	421.618	0.037	0.080
-719.806	165.807	-0.124	0.176
-718.791	-38.410	0.158	0.084
-717.777	-200.000	0.002	-0.352
-716.762	74.640	-0.402	-0.424
-715.748	-200.000	-0.056	-0.292
-714.733	-59.181	-0.396	0.171
-713.718	-61.198	-0.249	-0.105
-712.704	-110.948	-0.207	0.043
-711.689	89.048	-0.168	0.187
-710.675	123.351	0.063	0.079
-709.660	-130.047	0.111	0.015
-708.645	-96.288	-0.117	-0.031
-707.631	800.000	-0.101	0.349
-706.616	-86.982	-0.154	0.047
-705.602	185.088	0.068	-0.101
-704.587	-54.546	0.541	0.245
-703.572	-5.124	0.085	-0.058
-702.558	-200.000	0.002	-0.239
-701.543	-200.000	0.011	-0.070
-700.529	-27.239	-0.113	0.066
-699.514	-200.000	-0.001	-0.291
-698.499	-78.536	0.152	0.052
-697.485	-161.438	0.155	0.008
-696.470	28.802	0.173	-0.147
-695.456	25.066	0.380	-0.316
-694.441	557.593	-0.079	0.191
-693.426	23.006	0.112	-0.092
-692.412	13.377	-0.151	-0.117
-691.397	-200.000	-0.008	-0.100
-690.383	142.830	-0.108	-0.144
-689.368	37.481	-0.174	-0.155
-688.354	52.595	0.290	-0.278
-687.339	54.796	0.251	-0.243
-686.324	-23.627	-0.162	-0.098
-685.310	-87.458	0.314	0.095
-684.295	-34.377	0.030	0.017
-683.281	-20.932	-0.106	-0.065
-682.266	452.111	-0.074	-0.164
-681.251	279.799	0.073	-0.130
-680.237	-169.998	0.287	-0.010
-679.222	141.530	-0.192	-0.255
-678.208	242.132	0.035	-0.058
-677.193	-200.000	-0.075	-0.367
-676.178	-200.000	0.018	0.394
-675.164	-65.251	0.074	-0.030
-674.149	-153.445	0.440	-0.031
-673.135	800.000	-0.111	-0.376
-672.120	-84.622	-0.282	-0.089
-671.105	-200.000	-0.332	0.000
-670.091	191.939	0.040	-0.060
-669.076	-135.206	0.105	0.013
-668.062	-51.291	-0.382	-0.179
-667.047	105.824	-0.272	-0.321
-666.032	475.543	-0.081	0.184
-665.018	-86.509	-0.172	-0.053
-664.003	63.373	0.177	0.177
-662.989	-200.000	0.118	-0.000
-661.974	-200.000	-0.006	0.077
-660.959	-131.576	0.068	0.009
-659.945	4.412	-0.247	0.181
-658.930	72.884	0.229	-0.240
-657.916	547.562	0.194	-0.464
-656.901	58.720	-0.093	0.091
-655.886	-81.307	0.113	0.037
-654.872	-200.000	-0.072	-0.342
-653.857	107.553	-0.073	0.087
-652.843	-111.991	-0.175	0.035
-651.828	-117.334	0.194	0.035
-650.814	-71.658	-0.237	0.088
-649.799	96.769	-0.181	0.207
-648.784	-18.187	-0.214	-0.134
-647.770	94.412	0.095	0.108
-646.755	47.444	-0.067	0.063
-645.741	-200.000	-0.029	0.492
-644.726	-63.122	0.117	0.048
-643.711	800.000	-0.097	-0.342
-642.697	183.198	-0.222	-0.327
-641.682	-200.000	-0.009	-0.317
-640.668	-200.000	-0.024	0.156
-639.653	213.845	-0.147	-0.232
-638.638	49.542	-0.204	0.192
-637.624	-134.434	0.183	-0.022
-636.609	-94.008	-0.117	0.032
-635.595	-200.000	0.001	0.035
-634.580	-200.000	-0.225	0.000
-633.565	709.026	0.121	-0.320
-632.551	800.000	0.023	-0.083
-631.536	-200.000	-0.037	0.187
-630.522	-200.000	0.004	-0.228
-629.507	-200.000	-0.059	-0.483
-628.492	-198.869	-0.296	-0.002
-627.478	15.753	-0.116	-0.091
-626.463	83.884	-0.013	0.014
-625.449	800.000	0.086	0.267
-624.434	183.738	-0.066	-0.097
-623.419	-64.882	-0.251	-0.101
-622.405	410.711	-0.046	0.098
-621.390	500.804	-0.082	0.190
-620.376	429.265	0.111	0.240
-619.361	-84.464	-0.083	-0.026
-618.346	161.543	0.169	-0.235
-617.332	800.000	-0.041	0.125
-616.317	800.000	0.028	-0.095
-615.303	-200.000	-0.029	0.237
-614.288	-200.000	0.003	-0.148
-613.273	80.030	-0.099	0.107
-612.259	-57.779	-0.227	-0.099
-611.244	-200.000	0.022	0.459
-610.230	-200.000	0.003	0.089
-609.215	-197.896	-0.373	0.002
-608.201	-77.651	-0.456	-0.158
-607.186	418.716	0.120	-0.256
-606.171	-101.931	0.212	0.051
-605.157	66.172	-0.179	-0.182
-604.142	-200.000	-0.018	-0.327
-603.128	-200.000	0.044	-0.274
-602.113	125.929	-0.044	0.055
-601.098	-200.000	0.047	0.239
-600.084	-200.000	-0.033	-0.302
-599.069	43.329	-0.052	0.047
-598.055	701.714	0.151	-0.396
-597.040	58.072	0.132	-0.129
-596.025	214.054	-0.132	0.208
-595.011	-60.625	-0.118	0.050
-593.996	145.728	0.107	0.144
-592.982	-68.035	0.147	-0.057
-591.967	-200.000	-0.023	0.228
-590.952	-200.000	-0.058	0.348
-589.938	-44.732	-0.350	-0.174
-588.923	-49.799	-0.350	-0.166
-587.909	800.000	-0.076	-0.264
-586.894	733.860	0.075	-0.201
-585.879	-74.162	-0.294	0.106
-584.865	-200.000	-0.003	-0.084
-583.850	-200.000	0.023	0.211
-582.836	-200.000	0.110	-0.486
-581.821	729.692	0.097	-0.259
-580.806	98.253	0.092	-0.105
-579.792	-200.000	0.046	-0.360
-578.777	-70.199	0.120	-0.046
-577.763	31.720	-0.137	-0.118
-576.748	315.176	0.197	0.371
-575.733	800.000	0.053	-0.154
-574.719	-200.000	0.015	0.088
-573.704	-108.335	-0.230	0.049
-572.690	-47.155	0.042	0.021
-571.675	800.000	0.048	-0.146
-570.661	800.000	-0.050	-0.142
-569.646	-200.000	0.010	0.074
-568.631	-88.958	-0.270	0.080
-567.617	800.000	0.034	-0.116
-566.602	327.490	-0.156	0.298
-565.588	-200.000	0.012	0.123
-564.573	-200.000	-0.002	0.252
-563.558	668.850	0.071	0.183
-562.544	485.142	0.079	0.180
-561.529	7.071	0.074	0.055
-560.515	77.851	-0.242	-0.257
-559.500	254.249	-0.135	-0.231
-558.485	35.402	-0.314	-0.274
-557.471	72.393	-0.290	-0.301
-556.456	-10.673	0.125	0.082
-555.442	-200.000	0.019	0.243
-554.427	10.774	0.201	-0.153
-553.412	-57.536	-0.253	0.111
-552.398	-200.000	0.010	0.100
-551.383	-138.003	0.375	0.042
-550.369	528.507	-0.144	0.339
-549.354	88.657	-0.152	-0.169
-548.339	21.027	-0.195	-0.157
-547.325	-6.369	0.094	-0.064
-546.310	365.335	0.070	-0.140
-545.296	-147.623	0.303	-0.025
-544.281	117.639	-0.101	0.124
-543.266	-152.065	0.264	-0.019
-542.252	-116.081	0.115	-0.021
-541.237	204.875	0.239	0.370
-540.223	-97.419	-0.132	0.034
-539.208	134.357	0.160	-0.206
-538.193	696.463	-0.132	-0.345
-537.179	-92.282	-0.447	0.125
-536.164	-34.268	0.139	-0.076
-535.150	80.596	-0.170	0.182
-534.135	476.984	-0.117	-0.263
-533.121	-29.068	0.197	-0.113
-532.106	-200.000	-0.014	0.377
-531.091	29.304	0.093	0.079
-530.077	6.968	-0.094	-0.069
-529.062	800.000	0.047	0.132
-528.048	-85.481	0.278	0.086
-527.033	-0.121	0.195	-0.138
-526.018	542.380	0.088	-0.210
-525.004	544.965	-0.134	-0.319
-523.989	800.000	-0.110	0.327
-522.975	-200.000	0.041	-0.284
-521.960	240.984	0.091	0.152
-520.945	-74.692	0.364	0.130
-519.931	-30.555	0.178	0.101
-518.916	507.673	0.083	-0.191
-517.902	-85.074	-0.199	0.062
-516.887	-139.822	-0.182	0.019
-515.872	15.214	0.261	-0.204
-514.858	86.722	-0.029	-0.032
-513.843	800.000	-0.060	-0.203
-512.829	-174.665	0.321	0.009
-511.814	-50.112	0.454	-0.214
-510.799	121.007	-0.147	-0.182
-509.785	-89.817	-0.191	0.056
-508.770	-53.592	0.098	0.045
-507.756	18.341	-0.060	-0.048
-506.741	-40.312	-0.169	0.088
-505.726	102.915	-0.109	0.126
-504.712	112.427	-0.075	0.091
-503.697	800.000	0.056	-0.184
-502.683	-23.963	0.157	-0.093
-501.668	800.000	-0.087	-0.243
-500.653	-200.000	0.005	-0.121
-499.639	-78.816	0.213	0.072
-498.624	800.000	-0.030	0.084
-497.610	-144.971	-0.039	-0.004
-496.595	731.671	0.116	0.308
-495.581	-38.996	-0.119	-0.062
-494.566	156.557	-0.140	0.192
-493.551	-20.824	-0.308	-0.188
-492.537	498.159	-0.069	-0.159
-491.522	-116.192	0.263	0.049
-490.508	-200.000	0.004	-0.208
-489.493	-111.216	-0.026	-0.005
-488.478	-170.952	0.171	-0.006
-487.464	110.023	-0.192	0.228
-486.449	-37.306	-0.290	-0.154
-485.435	-60.860	-0.133	0.056
-484.420	24.084	-0.091	-0.074
-483.405	-200.000	0.016	0.335
-482.391	451.317	-0.079	-0.173
-481.376	-20.093	0.281	-0.172
-480.362	287.973	0.170	0.306
-479.347	-54.429	-0.226	0.102
-478.332	-66.852	0.200	-0.079
-477.318	800.000	0.064	0.210
-476.303	-23.817	0.122	0.073
-475.289	3.945	0.295	-0.214
-474.274	273.940	-0.165	-0.290
-473.259	800.000	-0.069	-0.198
-472.245	800.000	0.096	0.329
-471.230	129.955	-0.026	-0.033
-470.216	386.798	0.067	-0.137
-469.201	490.821	0.106	0.242
-468.186	800.000	-0.035	0.145
-467.172	800.000	-0.096	0.344
-466.157	-114.724	-0.235	-0.045
-465.143	58.221	0.166	-0.161
-464.128	-75.076	-0.208	-0.074
-463.113	89.560	0.123	-0.136
-462.099	443.095	0.111	-0.241
-461.084	-200.000	0.024	0.277
-460.070	-200.000	0.014	0.147
-459.055	342.439	-0.169	-0.328
-458.040	118.336	-0.295	-0.362
-457.026	-117.550	0.044	0.008
-456.011	-61.643	0.208	0.087
-454.997	800.000	-0.068	0.246
-453.982	-16.172	0.125	-0.079
-452.968	114.854	0.055	0.067
-451.953	-93.508	-0.379	0.104
-450.938	800.000	0.047	0.173
-449.924	-173.323	0.163	0.005
-448.909	579.302	0.027	-0.065
-447.895	-200.000	0.019	-0.084
-446.880	113.687	0.366	0.441
-445.865	-49.287	0.236	0.112
-444.851	-200.000	0.009	-0.208
-443.836	-145.381	0.384	0.034
-442.822	307.649	0.119	0.221
-441.807	436.713	0.133	-0.286
-440.792	-52.634	-0.132	-0.061
-439.778	-189.883	0.423	-0.005
-438.763	-200.000	-0.019	-0.431
-437.749	-200.000	0.016	-0.133
-436.734	557.001	0.087	0.208
-435.719	140.903	-0.174	0.228
-434.705	-131.350	-0.310	-0.041
-433.690	-28.241	0.137	-0.078
-432.676	-141.505	-0.194	0.019
-431.661	-49.225	-0.152	0.072
-430.646	619.673	0.112	-0.279
-429.632	-63.467	0.359	0.146
-428.617	-67.232	-0.365	0.142
-427.603	-58.003	0.262	-0.114
-426.588	670.292	-0.045	0.116
-425.573	-200.000	-0.008	0.195
-424.559	800.000	0.124	0.383
-423.544	-134.322	-0.224	-0.027
-422.530	-87.904	0.196	-0.058
-421.515	-67.355	-0.315	-0.123
-420.500	695.658	0.074	0.193
-419.486	135.215	-0.260	0.335
-418.471	106.675	0.330	0.388
-417.457	158.070	0.019	-0.027
-416.442	110.003	0.108	0.129
-415.428	188.110	0.019	0.027
-414.413	-81.898	0.272	-0.088
-413.398	-62.616	0.253	-0.104
-412.384	-200.000	-0.003	-0.163
-411.369	-152.565	0.180	-0.013
-410.355	394.136	-0.113	-0.233
-409.340	-129.946	0.230	-0.031
-408.325	477.248	-0.092	0.205
-407.311	800.000	0.070	-0.279
-406.296	419.441	0.182	-0.386
-405.282	-10.025	0.190	-0.125
-404.267	-200.000	0.006	-0.038
-403.252	-52.492	0.120	0.055
-402.238	104.698	-0.097	0.113
-401.223	-160.390	0.078	-0.004
-400.209	715.512	-0.079	-0.209
-399.194	-84.523	0.168	0.053
-398.179	-11.503	-0.229	-0.149
-397.165	-44.811	0.049	-0.024
-396.150	-200.000	0.034	0.248
-395.136	-126.684	0.245	0.036
-394.121	44.051	-0.058	-0.052
-393.106	-200.000	0.051	0.224
-392.092	-93.517	0.098	-0.027
-391.077	54.735	0.246	0.235
-390.063	25.209	-0.131	-0.108
-389.048	-18.651	-0.178	-0.110
-388.033	166.241	0.011	0.016
-387.019	-85.714	-0.399	0.122
-386.004	5.939	0.193	0.142
-384.990	0.750	-0.276	-0.196
-383.975	-144.535	0.274	-0.025
-382.960	78.127	0.085	-0.090
-381.946	-80.389	-0.289	-0.095
-380.931	-63.450	0.216	0.088
-379.917	196.162	-0.052	-0.078
-378.902	-200.000	0.005	-0.132
-377.888	-155.347	0.178	0.011
-376.873	-62.675	-0.185	-0.076
-375.858	800.000	0.052	0.202
-374.844	-200.000	-0.006	-0.174
-373.829	38.737	0.175	-0.155
-372.815	-110.591	0.086	-0.018
-371.800	-25.151	-0.118	0.069
-370.785	-157.265	-0.151	-0.009
-369.771	-65.331	-0.359	0.143
-368.756	-37.294	0.219	0.116
-367.742	375.328	-0.067	0.136
-366.727	77.678	-0.112	-0.117
-365.712	202.150	-0.080	0.122
-364.698	800.000	0.026	-0.088
-363.683	78.670	0.295	-0.312
-362.669	-55.127	-0.566	-0.252
-361.654	272.224	-0.072	-0.125
-360.639	76.316	0.132	0.139
-359.625	-26.169	-0.051	-0.030
-358.610	-60.932	-0.277	-0.116
-357.596	-200.000	-0.011	-0.423
-356.581	22.273	-0.221	-0.179
-355.566	99.634	0.399	-0.457
-354.552	-44.281	0.031	0.015
-353.537	-156.765	-0.297	0.018
-352.523	22.419	0.136	-0.110
-351.508	151.835	-0.187	0.252
-350.493	515.947	-0.174	-0.403
-349.479	172.150	0.104	-0.148
-348.464	-200.000	0.035	-0.170
-347.450	145.614	-0.072	-0.095
-346.435	35.514	0.240	-0.208
-345.420	-181.910	-0.252	-0.005
-344.406	395.535	-0.095	0.195
-343.391	142.383	-0.157	0.206
-342.377	800.000	0.070	0.206
-341.362	-7.177	0.245	-0.164
-340.348	-25.320	0.102	-0.060
-339.333	800.000	0.024	0.097
-338.318	431.779	0.101	0.217
-337.304	143.108	0.108	-0.142
-336.289	-113.290	0.088	-0.017
-335.275	-91.171	0.147	0.042
-334.260	-106.854	-0.143	0.031
-333.245	-200.000	-0.003	0.211
-332.231	269.189	0.084	-0.146
-331.216	-35.617	-0.262	0.141
-330.202	-42.258	0.303	0.153
-329.187	800.000	0.053	0.209
-328.172	-57.927	-0.264	0.114
-327.158	-162.359	-0.212	-0.010
-326.143	58.620	-0.093	-0.090
-325.129	-93.846	-0.168	0.046
-324.114	-29.418	0.352	0.199
-323.099	-128.203	0.215	0.030
-322.085	50.886	-0.374	0.350
-321.070	57.893	-0.087	-0.084
-320.056	67.751	0.286	0.289
-319.041	-79.486	-0.468	0.156
-318.026	529.041	-0.030	-0.070
-317.012	-82.008	-0.273	-0.088
-315.997	24.611	-0.299	0.244
-314.983	196.437	0.118	0.177
-313.968	372.505	-0.181	0.362
-312.953	-106.001	0.248	-0.055
-311.939	-51.189	0.173	0.080
-310.924	500.919	-0.066	-0.150
-309.910	-181.713	0.164	-0.003
-308.895	-126.105	0.129	0.019
-307.880	776.715	0.052	0.139
-306.866	-200.000	-0.024	-0.289
-305.851	515.812	0.050	-0.116
-304.837	-81.624	0.190	0.062
-303.822	-18.557	0.314	0.193
-302.807	-53.168	0.245	-0.111
-301.793	800.000	-0.040	-0.143
-300.778	-128.468	0.102	0.014
-299.764	-68.127	-0.169	-0.065
-298.749	-31.487	-0.436	-0.242
-297.735	-57.761	0.200	0.086
-296.720	-200.000	0.038	-0.220
-295.705	37.549	-0.117	0.103
-294.691	94.985	0.291	0.327
-293.676	-150.059	0.165	0.013
-292.662	124.964	-0.117	0.145
-291.647	480.968	-0.105	0.235
-290.632	41.408	-0.190	0.169
-289.618	37.163	-0.186	-0.162
-288.603	16.551	0.141	-0.110
-287.589	41.850	0.150	-0.134
-286.574	-29.019	0.146	-0.083
-285.559	52.612	-0.231	0.218
-284.545	112.147	-0.229	0.273
-283.530	28.528	0.180	-0.150
-282.516	-19.879	0.159	0.097
-281.501	-200.000	-0.007	0.122
-280.486	638.433	0.046	-0.115
-279.472	800.000	-0.017	0.059
-278.457	800.000	-0.057	0.185
-277.443	282.683	0.074	0.130
-276.428	122.066	-0.194	-0.239
-275.413	75.283	0.075	-0.078
-274.399	800.000	0.041	-0.163
-273.384	800.000	0.114	0.412
-272.370	3.822	0.235	0.169
-271.355	-200.000	0.057	-0.361
-270.340	-18.370	-0.162	-0.100
-269.326	-166.080	0.404	0.017
-268.311	800.000	-0.087	0.263
-267.297	130.722	0.082	0.103
-266.282	185.146	0.225	0.329
-265.267	-76.087	0.356	-0.124
-264.253	138.096	-0.231	-0.299
-263.238	-200.000	-0.088	0.452
-262.224	94.123	0.126	0.141
-261.209	239.476	-0.218	0.358
-260.195	800.000	0.115	0.381
-259.180	-151.231	-0.258	0.019
-258.165	800.000	-0.106	0.383
-257.151	800.000	0.105	-0.417
-256.136	27.381	-0.177	-0.146
-255.122	-95.686	-0.125	-0.033
-254.107	-80.301	-0.048	-0.016
-253.092	-190.461	-0.110	-0.001
-252.078	-148.917	-0.301	0.024
-251.063	10.425	-0.294	0.220
-250.049	-141.187	-0.285	0.029
-249.034	-200.000	0.016	0.081
-248.019	96.719	0.087	0.098
-247.005	-49.013	0.064	0.030
-245.990	174.038	-0.014	-0.020
-244.976	0.520	-0.228	-0.161
-243.961	-200.000	-0.001	0.302
-242.946	-200.000	0.001	0.142
-241.932	-200.000	-0.013	-0.096
-240.917	-200.000	-0.030	0.160
-239.903	22.932	0.163	-0.132
-238.888	4.585	-0.287	0.207
-237.873	63.435	-0.044	0.044
-236.859	-24.312	-0.138	-0.081
-235.844	-200.000	0.016	0.366
-234.830	131.360	0.174	0.220
-233.815	436.322	0.051	-0.109
-232.800	13.432	-0.194	-0.148
-231.786	-141.831	0.203	-0.020
-230.771	-200.000	0.014	0.298
-229.757	-184.597	-0.262	0.004
-228.742	302.357	-0.100	0.183
-227.727	-200.000	0.040	0.293
-226.713	-5.042	-0.080	-0.054
-225.698	135.225	-0.103	-0.132
-224.684	-138.548	0.144	-0.016
-223.669	173.538	-0.221	-0.313
-222.655	-45.254	-0.153	-0.075
-221.640	-133.940	-0.388	-0.047
-220.625	88.166	0.220	0.240
-219.611	-49.365	0.277	-0.130
-218.596	-20.802	-0.236	0.142
-217.582	435.263	-0.086	-0.184
-216.567	-95.079	-0.125	0.033
-215.552	-18.410	0.136	-0.083
-214.538	235.754	0.053	-0.086
-213.523	-62.899	0.177	-0.072
-212.509	-200.000	-0.007	0.035
-211.494	-50.055	0.412	0.192
-210.479	285.852	-0.208	-0.369
-209.465	-118.898	0.261	-0.045
-208.450	800.000	0.024	0.095
-207.436	-30.087	-0.127	0.071
-206.421	36.676	0.080	-0.069
-205.406	-53.113	0.207	-0.093
-204.392	-149.209	0.165	0.013
-203.377	-39.149	0.152	-0.079
-202.363	-64.728	-0.090	0.036
-201.348	-200.000	-0.023	0.284
-200.333	205.382	0.051	0.078
-199.319	105.407	0.033	0.039
-198.304	784.023	-0.047	0.127
-197.290	-123.307	0.058	0.009
-196.275	-14.575	0.243	-0.154
-195.260	-163.503	0.239	-0.011
-194.246	64.701	-0.194	-0.192
-193.231	129.213	-0.090	-0.112
-192.217	-6.409	0.294	0.197
-191.202	87.335	0.290	-0.315
-190.187	-61.330	0.208	-0.086
-189.173	305.074	-0.136	-0.248
-188.158	-65.076	-0.324	-0.128
-187.144	-47.758	0.412	-0.196
-186.129	591.323	-0.026	-0.064
-185.114	800.000	-0.048	0.204
-184.100	-152.321	-0.151	-0.011
-183.085	800.000	0.065	-0.181
-182.071	142.531	0.042	0.054
-181.056	636.209	0.073	0.181
-180.042	497.286	0.060	0.135
-179.027	103.247	0.203	-0.233
-178.012	-102.966	0.213	0.050
-176.998	-200.000	0.002	-0.192
-175.983	-200.000	0.007	-0.173
-174.969	428.262	0.144	-0.304
-173.954	62.863	0.067	-0.065
-172.939	211.994	0.067	-0.103
-171.925	-175.147	-0.120	-0.003
-170.910	617.169	-0.194	0.477
-169.896	800.000	0.077	0.297
-168.881	-153.953	0.200	0.013
-167.866	-25.889	-0.124	-0.072
-166.852	-80.628	0.193	-0.063
-165.837	-123.847	0.209	0.032
-164.823	-200.000	0.105	-0.517
-163.808	293.160	-0.115	0.206
-162.793	652.087	-0.097	0.244
-161.779	-42.934	0.105	0.052
-160.764	-200.000	0.018	-0.276
-159.750	800.000	0.013	0.043
-158.735	94.501	-0.128	-0.143
-157.720	243.470	0.144	0.236
-156.706	-200.000	-0.048	0.286
-155.691	-200.000	0.011	0.222
-154.677	49.983	-0.385	0.356
-153.662	11.490	-0.257	-0.193
-152.647	-133.812	0.173	-0.021
-151.633	-170.999	0.160	-0.005
-150.618	106.246	-0.103	-0.120
-149.604	3.993	0.211	-0.152
-148.589	-89.438	0.403	0.116
-147.574	505.087	-0.080	0.181
-146.560	-47.254	-0.377	-0.180
-145.545	64.464	-0.122	0.120
-144.531	-200.000	0.031	0.421
-143.516	-43.773	0.081	0.040
-142.502	13.993	-0.186	0.142
-141.487	390.572	-0.128	0.261
-140.472	-104.879	0.238	0.053
-139.458	-200.000	-0.011	-0.443
-138.443	-200.000	0.019	-0.298
-137.429	-42.389	-0.288	0.144
-136.414	57.846	0.119	0.114
-135.399	55.677	-0.124	-0.117
-134.385	19.302	0.115	-0.091
-133.370	145.330	0.069	-0.091
-132.356	127.286	-0.132	0.164
-131.341	-82.589	-0.345	0.110
-130.326	-200.000	-0.052	0.357
-129.312	63.438	0.104	-0.102
-128.297	-5.942	-0.125	-0.084
-127.283	800.000	-0.185	0.534
-126.268	-31.092	-0.294	-0.162
-125.253	191.770	0.181	0.267
-124.239	-157.704	-0.374	-0.022
-123.224	163.359	0.153	-0.210
-122.210	-129.889	0.204	0.027
-121.195	-200.000	0.079	0.367
-120.180	11.373	0.109	-0.082
-119.166	-27.555	0.366	-0.208
-118.151	770.758	-0.102	0.272
-117.137	265.662	-0.067	0.114
-116.122	-200.000	0.025	0.147
-115.107	-146.280	0.240	-0.021
-114.093	203.967	0.194	0.295
-113.078	800.000	-0.087	0.281
-112.064	-41.616	0.066	-0.033
-111.049	-36.281	-0.307	-0.162
-110.034	-200.000	0.003	0.072
-109.020	26.458	0.128	0.105
-108.005	395.331	-0.040	0.082
-106.991	72.992	0.084	-0.086
-105.976	-64.520	-0.183	-0.073
-104.962	-15.414	0.196	-0.122
-103.947	602.767	0.045	-0.111
-102.932	-4.638	-0.172	0.116
-101.918	-99.052	-0.253	0.063
-100.903	-200.000	-0.044	0.206
-99.889	-153.019	0.189	-0.013
-98.874	-78.327	-0.265	0.089
-97.859	52.775	0.200	-0.187
-96.845	-75.587	0.144	0.050
-95.830	198.148	0.227	-0.339
-94.816	101.195	-0.204	-0.232
-93.801	-200.000	-0.022	0.159
-92.786	-11.249	0.298	-0.192
-91.772	-200.000	-0.014	0.094
-90.757	199.155	0.233	-0.350
-89.743	-200.000	-0.008	0.234
-88.728	-58.246	0.065	-0.028
-87.713	800.000	-0.103	0.279
-86.699	-200.000	-0.002	-0.135
-85.684	342.728	0.038	0.074
-84.670	-191.804	0.449	0.004
-83.655	-65.276	0.174	-0.069
-82.640	27.104	0.151	0.124
-81.626	697.959	-0.066	-0.169
-80.611	405.291	0.110	0.228
-79.597	-76.949	-0.295	0.101
-78.582	6.623	0.044	-0.032
-77.567	-92.196	0.371	-0.102
-76.553	46.712	0.084	-0.076
-75.538	694.997	0.046	-0.117
-74.524	-200.000	-0.039	0.297
-73.509	29.052	0.277	-0.229
-72.494	-55.993	0.178	-0.078
-71.480	-26.212	-0.267	0.154
-70.465	87.070	-0.022	-0.024
-69.451	-119.074	0.434	0.074
-68.436	-200.000	0.015	0.165
-67.422	-88.961	-0.104	0.030
-66.407	221.079	0.165	0.258
-65.392	4.595	-0.143	0.102
-64.378	800.000	-0.032	0.088
-63.363	17.687	0.219	0.171
-62.349	25.638	-0.096	-0.078
-61.334	38.106	-1.145	-0.995
-60.319	-45.797	0.721	0.348
-59.305	-200.000	-0.293	-1.410
-58.290	212.129	0.835	1.285
-57.276	297.637	0.770	1.382
-56.261	-200.000	116.843	643.237
-55.246	497.407	1539.688	3461.340
-54.232	174.664	2718.465	3841.978
-53.217	98.026	2294.516	2579.533
-52.203	35.340	1901.850	1629.407
-51.188	29.486	1695.146	1407.769
-50.173	27.110	1654.407	1356.168
-49.159	46.866	1712.200	1554.233
-48.144	45.608	1724.897	1556.147
-47.130	29.028	1682.525	1393.598
-46.115	26.415	1668.704	1362.438
-45.100	26.323	1663.429	1357.383
-44.086	26.273	1660.483	1354.552
-43.071	26.217	1658.452	1352.425
-42.057	26.172	1656.339	1350.307
-41.042	26.260	1653.847	1348.879
-40.027	26.368	1651.642	1347.838
-39.013	26.263	1649.443	1345.205
-37.998	26.171	1648.554	1343.742
-36.984	26.189	1647.362	1342.848
-35.969	26.289	1645.717	1342.202
-34.954	26.459	1643.367	1341.491
-33.940	26.411	1642.221	1340.148
-32.925	26.337	1640.708	1338.313
-31.911	26.356	1639.380	1337.313
-30.896	26.276	1637.840	1335.415
-29.881	26.313	1635.763	1333.941
-28.867	26.335	1633.919	1332.547
-27.852	26.352	1632.652	1331.585
-26.838	26.445	1630.732	1330.654
-25.823	26.351	1630.102	1329.392
-24.809	26.468	1628.596	1328.972
-23.794	26.362	1627.493	1327.237
-22.779	26.378	1625.709	1325.854
-21.765	26.430	1623.419	1324.307
-20.750	26.331	1622.389	1322.690
-19.736	26.483	1620.808	1322.462
-18.721	26.404	1619.849	1321.049
-17.706	26.508	1617.978	1320.234
-16.692	26.414	1616.625	1318.391
-15.677	26.447	1614.970	1317.228
-14.663	26.454	1613.773	1316.251
-13.648	26.362	1612.679	1314.640
-12.633	26.422	1610.673	1313.383
-11.619	26.499	1608.839	1312.400
-10.604	26.460	1607.424	1310.906
-9.590	26.383	1606.414	1309.475
-8.575	26.400	1605.034	1308.420
-7.560	26.398	1603.399	1307.021
-6.546	26.376	1602.940	1306.433
-5.531	26.472	1601.564	1305.959
-4.517	26.438	1600.591	1304.862
-3.502	26.405	1599.667	1303.823
-2.487	26.552	1597.634	1303.171
-1.473	26.063	1586.186	1290.286
-0.458	23.423	1566.706	1255.712
0.556	20.823	1568.366	1225.013
1.571	18.664	1592.633	1228.422
2.586	18.218	1604.962	1234.601
3.600	15.933	1549.908	1176.209
4.615	9.375	1442.310	1051.703
5.629	4.017	1384.144	975.511
6.644	3.208	1376.769	965.154
7.659	3.195	1375.445	964.063
8.673	3.088	1374.475	962.626
9.688	3.230	1372.363	961.948
10.702	3.163	1369.386	959.359
11.717	5.719	1373.764	978.312
12.731	12.922	1387.603	1033.358
13.746	19.084	1397.580	1079.462
14.761	20.297	1399.049	1088.117
15.775	19.638	1397.114	1082.386
16.790	18.710	1394.095	1074.150
17.804	17.931	1391.844	1067.447
18.819	17.542	1390.875	1064.179
19.834	17.407	1389.735	1062.375
20.848	17.203	1388.274	1059.891
21.863	16.973	1387.650	1057.886
22.877	16.925	1385.931	1056.180
23.892	16.959	1384.764	1055.409
24.907	16.913	1384.201	1054.601
25.921	16.863	1383.541	1053.694
26.936	16.939	1382.857	1053.554
27.950	17.006	1381.318	1052.701
28.965	17.031	1380.293	1051.986
29.980	17.199	1379.271	1052.152
30.994	17.250	1377.901	1051.330
32.009	17.292	1376.882	1050.717
33.023	17.250	1375.840	1049.574
34.038	17.171	1374.813	1048.210
35.053	17.054	1373.597	1046.466
36.067	17.114	1372.090	1045.595
37.082	17.100	1371.286	1044.802
38.096	17.174	1370.656	1044.686
39.111	17.204	1369.615	1043.984
40.126	17.095	1368.616	1042.464
41.140	16.838	1367.589	1040.013
42.155	16.800	1366.507	1038.864
43.169	16.723	1366.709	1038.449
44.184	16.718	1366.527	1038.193
45.199	16.844	1365.909	1038.400
46.213	16.949	1365.235	1038.437
47.228	17.008	1364.959	1038.500
48.242	17.007	1363.398	1037.216
49.257	17.061	1362.066	1036.436
50.271	16.957	1360.619	1034.611
51.286	16.971	1359.208	1033.535
52.301	17.068	1357.629	1032.828
53.315	16.966	1356.611	1031.346
54.330	16.850	1355.732	1029.883
55.344	16.877	1354.002	1028.639
56.359	16.845	1353.407	1027.899
57.374	16.841	1352.100	1026.796
58.388	16.652	1352.182	1025.621
59.403	16.754	1350.929	1025.195
60.417	16.712	1349.866	1024.045
61.432	16.659	1349.646	1023.465
62.447	16.642	1348.442	1022.363
63.461	16.492	1347.104	1020.351
64.476	16.603	1346.122	1020.186
65.490	16.557	1344.967	1018.946
66.505	16.428	1343.869	1017.243
67.520	16.564	1342.227	1016.731
68.534	16.654	1341.232	1016.426
69.549	16.634	1340.214	1015.445
70.563	16.527	1339.111	1013.877
71.578	16.456	1337.664	1012.267
72.593	16.414	1336.956	1011.389
73.607	16.380	1336.482	1010.739
74.622	16.319	1335.638	1009.649
75.636	16.450	1334.977	1009.842
76.651	16.470	1334.079	1009.190
77.666	16.492	1333.051	1008.454
78.680	16.563	1333.043	1008.786
79.695	16.566	1332.602	1008.380
80.709	16.621	1332.113	1008.248
81.724	16.692	1330.810	1007.595
82.739	16.839	1330.254	1007.956
83.753	16.869	1329.658	1007.595
84.768	17.176	1328.193	1008.221
85.782	17.115	1327.284	1007.080
86.797	17.088	1325.748	1005.663
87.812	17.024	1324.680	1004.387
88.826	17.041	1323.516	1003.515
89.841	17.086	1322.532	1002.947
90.855	17.128	1321.399	1002.248
91.870	17.152	1320.571	1001.668
92.884	17.132	1320.298	1001.256
93.899	17.149	1319.418	1000.603
94.914	17.196	1318.773	1000.301
95.928	17.319	1317.115	999.675
96.943	17.179	1316.978	998.661
97.957	17.171	1315.708	997.561
98.972	17.125	1314.662	996.413
99.987	17.128	1313.807	995.693
101.001	17.170	1312.996	995.239
102.016	17.075	1311.656	993.579
103.030	17.070	1311.063	993.010
104.045	17.074	1309.872	992.044
105.060	17.010	1308.085	990.230
106.074	16.904	1306.903	988.627
107.089	16.613	1305.889	986.080
108.103	16.561	1304.541	984.672
109.118	16.669	1302.655	983.791
110.133	16.588	1301.796	982.585
111.147	16.661	1300.400	981.866
112.162	16.692	1298.952	980.862
113.176	16.666	1297.918	979.845
114.191	16.754	1297.444	979.910
115.206	16.782	1295.971	978.873
116.220	16.626	1295.043	977.187
117.235	16.694	1294.036	976.732
118.249	16.734	1292.796	975.937
119.264	16.651	1291.335	974.275
120.279	16.609	1290.240	973.118
121.293	16.612	1289.022	972.130
122.308	16.533	1288.205	970.978
123.322	16.499	1287.062	969.832
124.337	16.431	1285.962	968.530
125.352	16.452	1284.831	967.714
126.366	16.419	1283.886	966.726
127.381	16.448	1282.668	965.886
128.395	16.462	1281.816	965.243
129.410	16.508	1280.778	964.637
130.424	16.590	1280.568	964.861
131.439	16.668	1279.008	964.044
132.454	16.689	1278.705	963.850
133.468	16.703	1278.263	963.511
134.483	16.670	1277.467	962.638
135.497	16.731	1275.960	961.761
136.512	16.791	1274.690	961.062
137.527	16.747	1273.357	959.721
138.541	16.644	1272.284	958.246
139.556	16.814	1270.796	958.000
140.570	16.888	1270.114	957.820
141.585	17.007	1268.665	957.316
142.600	17.013	1267.759	956.583
143.614	17.044	1267.069	956.149
144.629	17.097	1265.932	955.508
145.643	17.111	1264.834	954.673
146.658	17.013	1263.492	953.024
147.673	16.882	1262.283	951.294
148.687	16.937	1260.884	950.463
149.702	16.808	1259.782	948.825
150.716	16.875	1257.862	947.671
151.731	16.759	1257.125	946.383
152.746	16.822	1256.203	945.958
153.760	16.922	1254.848	945.413
154.775	16.916	1254.047	944.688
155.789	17.045	1252.826	944.401
156.804	17.038	1252.246	943.847
157.819	17.028	1251.078	942.823
158.833	17.136	1250.099	942.604
159.848	17.171	1249.766	942.461
160.862	17.180	1248.479	941.457
161.877	17.014	1246.661	939.086
162.892	16.912	1245.623	937.658
163.906	16.842	1244.909	936.650
164.921	16.872	1244.172	936.180
165.935	17.001	1242.821	935.792
166.950	17.170	1242.287	936.234
167.964	17.050	1241.956	935.245
168.979	16.953	1241.349	934.170
169.994	17.062	1240.171	933.802
171.008	17.121	1238.959	933.127
172.023	17.104	1238.523	932.624
173.037	17.266	1238.072	933.091
174.052	17.296	1236.991	932.357
175.067	17.132	1235.696	930.403
176.081	16.886	1235.038	928.476
177.096	16.994	1233.652	927.944
178.110	17.029	1232.265	927.010
179.125	17.028	1231.410	926.281
180.140	17.109	1230.236	925.754
181.154	17.118	1229.559	925.210
182.169	17.148	1228.528	924.518
183.183	17.328	1227.384	924.553
184.198	17.349	1225.970	923.524
185.213	17.282	1224.951	922.311
186.227	17.405	1223.741	921.982
187.242	17.321	1223.260	921.083
188.256	17.469	1222.144	920.961
189.271	17.486	1221.008	920.116
190.286	17.224	1220.209	918.020
191.300	16.913	1218.848	915.233
192.315	16.922	1218.384	914.856
193.329	16.973	1217.502	914.385
194.344	16.951	1217.444	914.140
195.359	17.022	1216.566	913.785
196.373	17.207	1216.050	914.311
197.388	17.300	1215.538	914.347
198.402	17.389	1215.628	914.812
199.417	17.641	1214.411	915.170
200.432	17.609	1214.082	914.668
201.446	17.658	1213.273	914.243
202.461	17.789	1212.003	913.904
203.475	17.795	1210.716	912.885
204.490	17.538	1209.923	910.834
205.504	17.531	1208.367	909.545
206.519	17.439	1207.090	908.009
207.534	17.479	1206.025	907.341
208.548	17.301	1205.962	906.267
209.563	17.436	1204.504	905.810
210.577	17.521	1203.365	905.321
211.592	17.574	1202.883	905.161
212.607	17.661	1201.905	904.807
213.621	17.813	1200.696	904.624
214.636	17.513	1200.420	902.745
215.650	17.639	1199.585	902.708
216.665	17.686	1198.202	901.835
217.680	17.809	1197.819	902.117
218.694	17.840	1196.723	901.373
219.709	17.755	1196.020	900.317
220.723	17.774	1195.508	899.953
221.738	17.765	1194.368	898.969
222.753	17.825	1193.414	898.486
223.767	17.755	1192.877	897.632
224.782	17.969	1192.487	898.385
225.796	17.952	1191.989	897.842
226.811	17.978	1191.135	897.254
227.826	17.860	1190.571	896.129
228.840	17.834	1189.622	895.203
229.855	17.744	1188.776	894.016
230.869	17.838	1187.945	893.805
231.884	17.728	1186.888	892.354
232.899	17.626	1186.594	891.518
233.913	17.698	1185.237	890.795
234.928	17.662	1184.547	890.010
235.942	17.613	1183.858	889.158
236.957	17.634	1183.134	888.647
237.972	17.660	1182.608	888.307
238.986	17.595	1181.865	887.331
240.001	17.834	1180.708	887.632
241.015	17.855	1179.941	887.081
242.030	17.844	1179.230	886.413
243.045	17.967	1178.246	886.233
244.059	17.843	1177.998	885.326
245.074	17.898	1177.167	884.904
246.088	17.975	1176.598	884.798
247.103	18.144	1174.895	884.317
248.117	18.164	1174.835	884.295
249.132	18.296	1174.342	884.526
250.147	18.339	1173.917	884.349
251.161	18.372	1173.229	883.926
252.176	18.482	1172.643	883.974
253.190	18.530	1172.123	883.750
254.205	18.644	1171.171	883.542
255.220	18.660	1170.751	883.230
256.234	18.643	1170.076	882.552
257.249	18.592	1169.508	881.783
258.263	18.474	1169.538	881.123
259.278	18.588	1168.040	880.500
260.293	18.685	1167.568	880.563
261.307	18.640	1167.331	880.077
262.322	18.621	1166.686	879.417
263.336	18.691	1165.902	879.107
264.351	18.744	1165.457	878.962
265.366	18.658	1164.896	878.023
266.380	18.716	1163.701	877.341
267.395	18.684	1162.870	876.474
268.409	18.600	1161.919	875.249
269.424	18.576	1161.400	874.660
270.439	18.582	1160.708	874.093
271.453	18.554	1160.104	873.416
272.468	18.470	1159.117	872.167
273.482	18.479	1158.410	871.608
274.497	18.418	1157.723	870.702
275.512	18.584	1156.836	870.801
276.526	18.711	1155.663	870.484
277.541	18.643	1155.160	869.684
278.555	18.569	1154.762	868.931
279.570	18.736	1154.317	869.368
280.585	18.786	1153.675	869.057
281.599	18.825	1152.360	868.189
282.614	18.730	1151.179	866.741
283.628	18.690	1150.058	865.622
284.643	18.672	1149.354	864.925
285.657	18.737	1148.435	864.482
286.672	18.748	1147.374	863.660
287.687	18.848	1146.260	863.252
288.701	18.657	1146.176	862.148
289.716	18.771	1144.784	861.601
290.730	18.756	1144.498	861.233
291.745	18.732	1143.656	860.402
292.760	18.839	1143.225	860.537
293.774	18.826	1142.992	860.221
294.789	18.955	1142.689	860.564
295.803	18.980	1141.506	859.720
296.818	18.870	1140.427	858.283
297.833	18.736	1139.714	857.004
298.847	18.773	1138.858	856.465
299.862	18.860	1138.031	856.202
300.876	18.842	1138.102	856.088
301.891	19.026	1137.121	856.193
302.906	19.138	1136.095	855.901
303.920	19.131	1135.465	855.315
304.935	19.178	1135.429	855.449
305.949	19.411	1134.216	855.615
306.964	19.232	1133.899	854.408
307.979	19.303	1132.898	853.931
308.993	19.228	1132.131	852.908
310.008	19.193	1131.151	851.919
311.022	19.154	1130.493	851.158
312.037	19.344	1129.390	851.188
313.052	19.122	1128.789	849.566
314.066	19.063	1127.800	848.456
315.081	18.905	1127.148	847.111
316.095	18.867	1126.430	846.309
317.110	18.995	1125.294	846.011
318.125	19.032	1124.511	845.530
319.139	19.039	1124.136	845.205
320.154	18.943	1123.273	844.012
321.168	18.957	1122.771	843.626
322.183	19.070	1122.130	843.625
323.197	19.005	1121.419	842.697
324.212	19.121	1120.938	842.832
325.227	19.122	1120.236	842.232
326.241	19.157	1119.609	841.860
327.256	19.102	1118.765	840.882
328.270	19.020	1117.722	839.623
329.285	18.988	1117.134	838.948
330.300	19.031	1115.998	838.232
331.314	19.151	1114.855	837.881
332.329	19.132	1113.962	837.043
333.343	19.258	1113.475	837.216
334.358	19.197	1112.892	836.411
335.373	19.272	1112.186	836.170
336.387	19.209	1111.361	835.168
337.402	19.313	1110.781	835.162
338.416	19.305	1110.129	834.557
339.431	19.413	1109.152	834.276
340.446	19.566	1108.855	834.715
341.460	19.647	1108.019	834.406
342.475	19.771	1106.855	834.051
343.489	19.746	1106.275	833.422
344.504	19.643	1105.803	832.497
345.519	19.774	1104.776	832.278
346.533	19.822	1103.807	831.706
347.548	19.943	1103.074	831.663
348.562	19.775	1102.632	830.450
349.577	19.724	1101.306	829.133
350.592	19.506	1100.803	827.635
351.606	19.410	1099.949	826.461
352.621	19.531	1099.120	826.340
353.635	19.542	1097.991	825.475
354.650	19.464	1097.787	824.871
355.665	19.535	1096.938	824.501
356.679	19.631	1096.313	824.416
357.694	19.709	1095.846	824.368
358.708	19.676	1095.089	823.564
359.723	19.677	1094.936	823.380
360.738	19.723	1093.762	822.645
361.752	19.770	1093.322	822.463
362.767	19.697	1092.946	821.763
363.781	19.805	1092.240	821.671
364.796	19.943	1091.961	822.047
365.810	20.021	1091.170	821.748
366.825	20.031	1090.646	821.326
367.840	20.073	1090.521	821.358
368.854	20.225	1089.410	821.169
369.869	20.137	1088.809	820.229
370.883	20.049	1087.997	819.125
371.898	20.013	1087.127	818.229
372.913	19.929	1086.665	817.410
373.927	19.925	1086.492	817.190
374.942	20.111	1085.924	817.568
375.956	20.187	1085.087	817.224
376.971	20.177	1084.003	816.289
377.986	20.222	1083.467	816.023
379.000	20.174	1083.293	815.597
380.015	20.294	1082.754	815.681
381.029	20.415	1082.074	815.665
382.044	20.323	1081.778	814.940
383.059	20.309	1080.794	814.061
384.073	20.267	1079.503	812.818
385.088	20.412	1078.714	812.832
386.102	20.252	1077.779	811.306
387.117	20.212	1076.755	810.275
388.132	20.049	1076.207	809.034
389.146	20.186	1074.691	808.460
390.161	20.187	1074.036	807.898
391.175	20.228	1073.592	807.685
392.190	20.275	1072.949	807.349
393.205	20.293	1072.755	807.213
394.219	20.368	1071.793	806.767
395.234	20.231	1070.487	805.079
396.248	20.202	1069.556	804.174
397.263	20.193	1068.720	803.429
398.278	20.086	1067.751	802.134
399.292	20.201	1067.001	802.033
400.307	20.100	1066.384	801.032
401.321	20.089	1065.375	800.150
402.336	19.944	1065.107	799.209
403.350	20.098	1064.338	799.276
404.365	20.145	1063.952	799.130
405.380	20.177	1063.229	798.662
406.394	20.245	1062.300	798.207
407.409	20.363	1061.573	798.133
408.423	20.506	1060.926	798.233
409.438	20.531	1060.451	797.921
410.453	20.587	1059.705	797.543
411.467	20.764	1059.074	797.811
412.482	20.697	1058.456	796.969
413.496	20.730	1057.704	796.483
414.511	20.803	1057.479	796.574
415.526	20.780	1057.356	796.309
416.540	20.929	1056.266	796.097
417.555	20.993	1055.842	796.000
418.569	20.796	1055.237	794.575
419.584	20.807	1054.501	794.001
420.599	20.773	1054.053	793.436
421.613	155.265	1405.297	1797.024
422.628	142.487	1456.429	1797.099
