DTS Sentinel unit serial number:	SN413079Multiplexer serial number:	ORYXHardware model number:	OX4-SRSoftware version number:	ORYX F/W v4.00 Oryx Data Collector v3.7.2.0data status	okinstallation	princeton_trtdifferential loss correction	single-endedforward channel	channel 2reverse channel	N/Adate	2019/09/15time	21:51:35forward acquisition time	60.00reverse acquisition time	0.00gamma	496.2192k internal	0.2334k external	0.2334temperature offset calibration	0.9945default loss term (dB/km)	0.3790temperature slope calibration	1.0000multiplexer offset coefficient	1.0000multiplexer slope coefficient	1.0000fibre end	0.00T internal ref (°C)	30.09T ext. ref 1 (°C)	8.47T ext. ref 2 (°C)	23.12length (m)	temperature (°C)	Stokes	anti-Stokes-747.200	800.000	0.106	0.343
-746.185	800.000	0.098	0.351
-745.171	550.607	-0.022	-0.054
-744.156	800.000	0.093	0.404
-743.142	371.329	-0.050	0.101
-742.127	-200.000	0.026	0.207
-741.112	-32.586	0.230	-0.129
-740.098	-162.451	-0.152	-0.008
-739.083	14.446	-0.176	0.138
-738.069	-200.000	-0.044	0.289
-737.054	56.811	-0.215	-0.210
-736.039	-200.000	0.025	-0.157
-735.025	-4.908	-0.132	0.091
-734.010	-34.920	-0.081	0.045
-732.996	-14.450	-0.204	-0.132
-731.981	-118.331	-0.013	0.002
-730.966	-200.000	-0.031	0.182
-729.952	-64.592	-0.262	-0.107
-728.937	77.553	-0.118	-0.126
-727.923	-84.707	-0.029	0.009
-726.908	-45.722	0.052	0.026
-725.894	150.550	-0.124	-0.169
-724.879	-52.993	-0.134	-0.062
-723.864	282.353	0.112	-0.201
-722.850	-3.150	0.269	-0.188
-721.835	-121.071	-0.202	0.034
-720.821	800.000	-0.057	-0.243
-719.806	55.172	0.141	-0.137
-718.791	-116.536	-0.153	-0.028
-717.777	50.406	-0.065	0.061
-716.762	-200.000	0.012	0.106
-715.748	800.000	-0.035	-0.152
-714.733	-69.174	0.112	0.043
-713.718	-8.139	-0.193	0.131
-712.704	-103.592	-0.331	0.078
-711.689	-200.000	0.014	-0.065
-710.675	800.000	0.105	0.293
-709.660	-11.586	-0.266	0.175
-708.645	-153.186	0.217	0.015
-707.631	16.917	0.384	0.306
-706.616	382.154	-0.065	0.133
-705.602	-73.242	0.040	0.015
-704.587	-66.401	0.324	0.129
-703.572	74.455	-0.162	0.171
-702.558	-44.144	0.060	-0.030
-701.543	-200.000	0.059	-0.420
-700.529	-200.000	0.041	-0.234
-699.514	-200.000	-0.004	0.126
-698.499	45.295	0.100	0.092
-697.485	-144.350	0.256	0.024
-696.470	450.585	-0.061	-0.134
-695.456	29.301	0.265	0.226
-694.441	487.583	-0.009	0.020
-693.426	690.071	-0.075	-0.196
-692.412	800.000	0.063	-0.245
-691.397	-181.743	0.155	0.003
-690.383	-200.000	-0.020	-0.205
-689.368	-1.919	-0.145	-0.102
-688.354	162.891	-0.170	0.240
-687.339	-8.671	-0.252	0.170
-686.324	-108.587	0.426	-0.092
-685.310	232.972	0.041	-0.067
-684.295	29.570	-0.165	-0.141
-683.281	-30.786	0.185	-0.105
-682.266	-200.000	-0.051	0.343
-681.251	800.000	0.057	0.169
-680.237	-79.740	-0.042	-0.014
-679.222	-200.000	0.007	-0.356
-678.208	-200.000	-0.009	-0.076
-677.193	54.132	-0.193	-0.186
-676.178	-44.790	-0.137	0.069
-675.164	-67.454	-0.180	-0.071
-674.149	-200.000	-0.004	0.215
-673.135	31.732	0.201	-0.173
-672.120	66.328	0.225	-0.229
-671.105	51.518	0.046	0.043
-670.091	-112.862	-0.132	0.026
-669.076	-63.459	0.246	0.101
-668.062	-3.792	0.235	-0.163
-667.047	12.240	0.071	-0.055
-666.032	3.312	-0.269	-0.196
-665.018	800.000	-0.040	0.133
-664.003	159.688	-0.131	0.183
-662.989	70.756	0.341	0.353
-661.974	-158.396	0.361	-0.021
-660.959	-58.103	-0.193	-0.084
-659.945	-91.518	-0.391	0.112
-658.930	73.820	-0.149	-0.157
-657.916	-200.000	-0.002	0.071
-656.901	-49.063	-0.119	0.057
-655.886	177.751	0.051	-0.075
-654.872	215.024	-0.198	-0.314
-653.857	800.000	-0.062	0.180
-652.843	146.648	-0.188	0.253
-651.828	-200.000	-0.028	0.131
-650.814	671.620	-0.063	-0.163
-649.799	-200.000	-0.034	0.195
-648.784	682.638	-0.066	0.173
-647.770	-23.078	0.180	-0.109
-646.755	800.000	-0.186	0.649
-645.741	-121.597	0.069	-0.011
-644.726	327.132	-0.185	-0.356
-643.711	-57.431	0.128	0.056
-642.697	131.288	0.170	-0.219
-641.682	60.948	-0.043	-0.042
-640.668	800.000	-0.084	-0.307
-639.653	80.790	-0.085	0.091
-638.638	-200.000	0.001	-0.044
-637.624	43.353	-0.206	-0.189
-636.609	109.209	0.125	0.150
-635.595	199.102	-0.057	-0.088
-634.580	40.866	-0.120	0.108
-633.565	-31.729	0.104	-0.058
-632.551	93.819	-0.103	-0.117
-631.536	-5.338	-0.514	-0.353
-630.522	91.695	0.148	0.167
-629.507	178.835	0.088	-0.129
-628.492	-21.716	-0.284	-0.173
-627.478	-41.351	0.531	0.274
-626.463	434.188	-0.056	-0.121
-625.449	-10.559	0.335	-0.222
-624.434	-119.025	-0.146	0.026
-623.419	-200.000	0.014	-0.432
-622.405	-54.359	-0.129	-0.059
-621.390	-88.364	-0.533	0.159
-620.376	147.429	0.110	0.148
-619.361	74.324	0.049	0.052
-618.346	800.000	-0.081	0.324
-617.332	-169.418	-0.237	0.009
-616.317	-53.859	-0.319	-0.146
-615.303	742.986	-0.128	-0.344
-614.288	-164.741	-0.030	0.001
-613.273	-124.498	0.224	-0.035
-612.259	193.048	-0.068	0.103
-611.244	-200.000	0.029	0.149
-610.230	-12.479	-0.089	-0.058
-609.215	-187.119	0.339	-0.005
-608.201	-200.000	-0.030	0.146
-607.186	-3.534	0.164	-0.114
-606.171	247.058	0.052	-0.088
-605.157	419.797	0.150	-0.321
-604.142	-200.000	-0.026	0.141
-603.128	278.355	-0.148	0.264
-602.113	-50.585	0.213	-0.101
-601.098	-146.130	-0.373	-0.033
-600.084	-84.590	-0.201	0.063
-599.069	-91.940	0.292	-0.083
-598.055	384.366	0.049	-0.101
-597.040	-29.498	0.071	0.041
-596.025	-103.206	0.127	0.030
-595.011	-14.979	0.248	0.159
-593.996	163.741	0.078	-0.109
-592.982	-82.495	-0.106	0.034
-591.967	-167.835	-0.203	-0.008
-590.952	-153.591	0.214	0.015
-589.938	574.595	0.147	-0.359
-588.923	5.158	-0.427	0.315
-587.909	-27.197	-0.155	-0.090
-586.894	583.941	-0.086	0.210
-585.879	-128.628	0.384	0.054
-584.865	66.261	0.078	-0.079
-583.850	800.000	-0.081	-0.305
-582.836	235.721	0.116	0.191
-581.821	-200.000	0.046	0.327
-580.806	38.606	-0.171	-0.153
-579.792	-200.000	-0.005	0.185
-578.777	-104.401	-0.333	-0.077
-577.763	-200.000	0.050	0.382
-576.748	-200.000	-0.048	0.235
-575.733	-156.514	-0.315	0.020
-574.719	-24.132	-0.093	-0.055
-573.704	-27.705	0.292	-0.169
-572.690	-102.220	-0.370	-0.089
-571.675	-54.000	-0.153	0.070
-570.661	-65.155	0.340	-0.137
-569.646	21.610	-0.032	-0.026
-568.631	-33.114	0.406	0.225
-567.617	453.752	-0.132	-0.291
-566.602	573.894	-0.112	-0.272
-565.588	172.390	-0.174	-0.249
-564.573	800.000	0.045	0.148
-563.558	-103.210	-0.317	-0.075
-562.544	-150.030	-0.163	-0.013
-561.529	-139.594	0.116	0.012
-560.515	-200.000	0.010	-0.057
-559.500	-132.708	-0.304	0.039
-558.485	540.842	0.153	-0.363
-557.471	631.793	-0.201	-0.508
-556.456	800.000	0.054	0.155
-555.442	60.330	-0.037	0.036
-554.427	202.831	0.092	0.141
-553.412	800.000	0.056	0.210
-552.398	176.750	-0.168	0.244
-551.383	-11.039	0.034	-0.023
-550.369	-200.000	-0.006	0.061
-549.354	-88.264	0.030	0.009
-548.339	-52.130	0.132	-0.061
-547.325	-141.423	0.345	0.035
-546.310	-79.518	-0.244	-0.082
-545.296	58.198	-0.220	-0.215
-544.281	204.834	-0.143	0.222
-543.266	-200.000	0.015	0.341
-542.252	36.304	-0.008	-0.007
-541.237	800.000	0.024	0.094
-540.223	-200.000	-0.025	-0.295
-539.208	275.291	0.094	-0.167
-538.193	-200.000	0.011	0.182
-537.179	388.341	-0.073	-0.152
-536.164	-103.331	0.140	0.033
-535.150	-132.277	0.438	0.057
-534.135	-115.771	0.238	0.044
-533.121	-200.000	0.030	-0.147
-532.106	-200.000	-0.003	0.331
-531.091	-98.630	-0.405	-0.103
-530.077	6.231	-0.166	-0.122
-529.062	482.937	-0.088	0.199
-528.048	-200.000	-0.002	0.117
-527.033	107.576	0.381	0.452
-526.018	181.721	0.130	0.190
-525.004	19.317	0.197	-0.158
-523.989	28.097	-0.116	-0.098
-522.975	720.161	0.044	-0.116
-521.960	-200.000	0.013	-0.296
-520.945	88.030	0.243	-0.268
-519.931	34.358	0.306	-0.266
-518.916	800.000	0.100	-0.361
-517.902	-193.118	-0.073	-0.001
-516.887	-153.280	-0.305	0.021
-515.872	191.906	-0.195	0.292
-514.858	-200.000	0.010	0.067
-513.843	398.547	0.089	-0.185
-512.829	-123.242	-0.054	-0.009
-511.814	-144.745	-0.159	-0.015
-510.799	-0.543	0.128	-0.090
-509.785	509.822	-0.083	-0.191
-508.770	403.584	0.078	0.164
-507.756	800.000	-0.116	-0.336
-506.741	166.019	-0.216	0.305
-505.726	430.898	-0.102	0.219
-504.712	800.000	-0.141	0.530
-503.697	258.296	0.039	-0.067
-502.683	-76.574	-0.218	-0.076
-501.668	-153.452	0.263	0.018
-500.653	282.083	0.117	0.210
-499.639	800.000	-0.075	-0.296
-498.624	-10.566	0.086	0.057
-497.610	-65.423	0.157	0.063
-496.595	33.161	-0.225	0.194
-495.581	-27.796	-0.176	0.102
-494.566	-83.941	0.295	-0.093
-493.551	800.000	0.040	0.153
-492.537	90.186	-0.104	0.115
-491.522	800.000	-0.150	0.486
-490.508	17.480	0.146	0.115
-489.493	-104.938	-0.056	-0.013
-488.478	-152.043	-0.250	-0.018
-487.464	-200.000	-0.026	0.192
-486.449	-124.481	0.170	0.026
-485.435	480.784	-0.049	-0.112
-484.420	-6.145	0.095	-0.065
-483.405	-13.444	-0.132	0.085
-482.391	-27.871	-0.278	0.160
-481.376	178.081	0.064	0.093
-480.362	-200.000	-0.047	0.436
-479.347	-96.926	-0.283	-0.074
-478.332	38.794	-0.049	0.044
-477.318	7.884	0.249	0.186
-476.303	183.719	-0.048	0.070
-475.289	-200.000	0.016	-0.087
-474.274	-30.812	-0.159	0.090
-473.259	800.000	-0.065	-0.241
-472.245	-184.893	-0.265	0.004
-471.230	-200.000	0.052	-0.397
-470.216	-5.607	0.130	-0.089
-469.201	-200.000	-0.002	0.130
-468.186	-200.000	-0.013	0.089
-467.172	-115.389	-0.136	0.025
-466.157	11.507	0.205	-0.156
-465.143	36.393	-0.156	0.137
-464.128	-34.464	-0.250	0.136
-463.113	-46.010	0.121	-0.059
-462.099	390.439	-0.154	0.318
-461.084	79.186	0.006	-0.006
-460.070	213.793	-0.094	0.148
-459.055	-122.614	0.340	-0.055
-458.040	-125.706	0.222	-0.033
-457.026	-5.660	0.215	-0.146
-456.011	129.500	0.278	0.353
-454.997	29.573	-0.206	-0.174
-453.982	-172.792	0.297	0.009
-452.968	379.113	-0.055	-0.111
-451.953	-85.240	0.198	0.061
-450.938	-58.080	-0.082	-0.036
-449.924	250.571	-0.105	-0.177
-448.909	-22.950	0.224	-0.134
-447.895	40.315	0.422	0.377
-446.880	-200.000	0.028	0.196
-445.865	800.000	-0.145	0.428
-444.851	88.552	0.150	0.165
-443.836	81.897	-0.131	0.140
-442.822	800.000	-0.047	0.140
-441.807	-170.670	0.126	0.004
-440.792	-89.117	0.126	-0.037
-439.778	-34.176	0.212	0.116
-438.763	22.454	0.306	0.248
-437.749	27.929	0.187	0.156
-436.734	-200.000	-0.035	0.187
-435.719	88.893	-0.206	-0.227
-434.705	3.258	0.292	-0.211
-433.690	361.804	-0.130	0.259
-432.676	-9.270	-0.217	0.144
-431.661	-180.318	0.242	-0.005
-430.646	-12.759	0.135	-0.087
-429.632	92.892	0.066	0.074
-428.617	-54.499	-0.382	0.172
-427.603	-125.143	-0.168	-0.025
-426.588	405.284	-0.054	0.114
-425.573	-200.000	-0.017	0.100
-424.559	5.780	-0.069	-0.051
-423.544	-200.000	0.035	-0.229
-422.530	-17.968	0.152	0.094
-421.515	193.561	-0.237	-0.355
-420.500	333.408	0.110	-0.211
-419.486	87.634	0.159	0.175
-418.471	-63.208	-0.179	0.073
-417.457	-151.426	0.370	-0.027
-416.442	-39.292	-0.338	-0.176
-415.428	500.128	-0.060	0.138
-414.413	-125.221	-0.254	-0.039
-413.398	-157.534	0.194	-0.012
-412.384	89.789	0.155	0.172
-411.369	-62.307	0.253	-0.104
-410.355	-45.504	0.170	0.083
-409.340	76.394	-0.028	-0.029
-408.325	-200.000	0.021	-0.208
-407.311	49.159	-0.239	0.223
-406.296	207.595	-0.106	-0.164
-405.282	93.076	-0.165	-0.185
-404.267	-113.891	-0.312	-0.060
-403.252	228.031	-0.063	-0.102
-402.238	35.617	-0.219	-0.191
-401.223	-72.905	0.059	0.022
-400.209	-111.725	0.215	0.043
-399.194	-200.000	-0.047	-0.233
-398.179	28.017	0.267	-0.223
-397.165	-18.788	0.261	0.161
-396.150	125.503	0.157	-0.196
-395.136	-142.508	-0.311	-0.030
-394.121	-105.909	0.411	0.092
-393.106	-58.349	-0.271	0.117
-392.092	333.915	-0.090	0.173
-391.077	-82.021	-0.239	0.077
-390.063	-123.777	-0.306	0.048
-389.048	-48.326	0.176	0.084
-388.033	800.000	-0.073	-0.268
-387.019	-200.000	0.028	0.234
-386.004	165.542	0.183	0.256
-384.990	-200.000	-0.050	0.236
-383.975	13.645	0.192	-0.148
-382.960	-200.000	0.008	-0.109
-381.946	-200.000	0.066	-0.335
-380.931	113.149	-0.097	-0.117
-379.917	-102.774	0.091	-0.021
-378.902	510.313	-0.042	0.097
-377.888	177.250	0.053	0.076
-376.873	-122.971	-0.205	-0.033
-375.858	-118.042	0.112	0.020
-374.844	-88.266	-0.126	-0.037
-373.829	-153.102	0.137	-0.010
-372.815	800.000	-0.120	-0.384
-371.800	236.728	-0.135	0.221
-370.785	59.407	-0.201	-0.196
-369.771	-78.272	-0.340	0.116
-368.756	-200.000	-0.042	-0.262
-367.742	450.684	0.188	-0.410
-366.727	-64.655	-0.219	0.088
-365.712	-200.000	0.028	0.129
-364.698	-103.908	0.176	0.041
-363.683	-137.526	-0.188	-0.021
-362.669	52.133	0.118	-0.112
-361.654	-6.119	-0.162	-0.110
-360.639	-140.687	-0.217	-0.022
-359.625	119.125	-0.052	0.063
-358.610	-87.233	-0.227	-0.068
-357.596	-23.700	0.285	0.169
-356.581	-80.437	0.207	0.069
-355.566	800.000	0.011	-0.040
-354.552	398.330	0.063	-0.131
-353.537	-200.000	-0.013	0.240
-352.523	-190.509	0.320	0.003
-351.508	800.000	0.068	0.187
-350.493	-110.292	0.220	-0.045
-349.479	1.490	-0.111	-0.079
-348.464	168.931	0.242	0.342
-347.450	-44.613	-0.201	0.099
-346.435	-18.274	0.203	-0.126
-345.420	182.430	0.164	0.240
-344.406	263.949	0.089	0.152
-343.391	46.177	-0.183	-0.168
-342.377	-200.000	-0.023	-0.305
-341.362	-200.000	0.004	0.401
-340.348	-71.757	-0.161	0.059
-339.333	800.000	0.041	0.145
-338.318	-186.769	0.194	0.003
-337.304	18.796	0.303	0.240
-336.289	174.563	0.101	-0.145
-335.275	94.695	0.080	-0.090
-334.260	199.738	0.080	0.121
-333.245	800.000	-0.114	0.397
-332.231	-200.000	-0.304	0.000
-331.216	-18.409	0.162	0.100
-330.202	306.279	-0.136	0.250
-329.187	-153.931	0.137	-0.009
-328.172	43.118	-0.040	-0.036
-327.158	169.716	0.157	-0.223
-326.143	34.170	-0.280	-0.241
-325.129	800.000	0.106	-0.317
-324.114	-200.000	0.008	-0.060
-323.099	-200.000	0.012	-0.178
-322.085	800.000	0.032	-0.110
-321.070	458.395	0.132	-0.291
-320.056	268.725	-0.239	-0.414
-319.041	-200.000	0.022	-0.291
-318.026	-200.000	-0.003	0.116
-317.012	-136.991	0.128	0.014
-315.997	68.494	0.189	-0.192
-314.983	20.710	0.175	0.140
-313.968	800.000	0.091	0.254
-312.953	-95.413	0.201	0.053
-311.939	-8.080	-0.313	-0.208
-310.924	-115.505	0.071	0.013
-309.910	-200.000	0.014	0.116
-308.895	16.765	-0.142	0.111
-307.880	-92.486	0.230	0.064
-306.866	-148.027	-0.436	-0.036
-305.851	-57.613	-0.216	0.094
-304.837	437.207	0.055	-0.119
-303.822	-88.041	0.110	0.033
-302.807	46.360	0.057	0.052
-301.793	433.345	-0.038	0.081
-300.778	-70.205	-0.151	-0.057
-299.764	-1.843	0.105	-0.073
-298.749	-37.232	-0.229	0.121
-297.735	-200.000	-0.005	0.080
-296.720	414.782	-0.094	-0.198
-295.705	800.000	0.067	0.250
-294.691	506.177	-0.037	-0.084
-293.676	-200.000	0.070	0.364
-292.662	-108.981	-0.373	-0.079
-291.647	291.862	0.043	0.077
-290.632	71.358	-0.192	-0.197
-289.618	35.799	0.166	0.144
-288.603	-137.420	-0.067	0.008
-287.589	269.947	0.039	0.067
-286.574	800.000	0.170	0.501
-285.559	-200.000	-0.079	0.467
-284.545	-99.521	0.360	0.089
-283.530	-5.859	-0.151	0.102
-282.516	137.946	0.035	0.045
-281.501	308.381	0.102	-0.189
-280.486	394.190	0.142	-0.292
-279.472	557.982	0.077	-0.183
-278.457	46.117	-0.092	0.085
-277.443	-92.827	0.278	-0.077
-276.428	277.866	-0.054	-0.096
-275.413	182.083	0.055	-0.080
-274.399	800.000	0.010	-0.030
-273.384	26.117	-0.138	-0.114
-272.370	0.743	-0.349	0.247
-271.355	-135.335	-0.180	-0.021
-270.340	-200.000	0.031	0.428
-269.326	-200.000	-0.008	-0.046
-268.311	-120.877	0.280	0.047
-267.297	-118.891	0.265	0.046
-266.282	20.252	0.151	-0.120
-265.267	-16.795	-0.119	0.074
-264.253	113.245	0.109	0.130
-263.238	-200.000	-0.021	-0.357
-262.224	-49.519	-0.214	0.101
-261.209	319.464	-0.113	0.211
-260.195	-200.000	0.053	-0.243
-259.180	-104.192	-0.151	0.035
-258.165	55.532	-0.400	0.382
-257.151	-185.300	0.215	0.003
-256.136	163.704	-0.175	-0.243
-255.122	255.007	0.079	-0.133
-254.107	-200.000	0.012	-0.202
-253.092	-28.858	0.241	-0.137
-252.078	582.444	-0.079	0.190
-251.063	-200.000	-0.078	-0.385
-250.049	-200.000	-0.003	0.165
-249.034	265.317	0.172	0.296
-248.019	-153.515	0.108	0.007
-247.005	800.000	-0.103	-0.320
-245.990	-42.198	0.089	0.045
-244.976	98.270	-0.170	0.193
-243.961	306.480	-0.181	0.332
-242.946	-39.086	0.083	0.043
-241.932	800.000	-0.029	-0.115
-240.917	-93.948	-0.166	-0.045
-239.903	-200.000	0.002	0.254
-238.888	-200.000	-0.074	0.363
-237.873	605.600	-0.154	0.379
-236.859	-64.325	0.268	-0.107
-235.844	73.095	0.084	0.086
-234.830	-13.482	0.160	-0.102
-233.815	-200.000	0.008	-0.079
-232.800	-8.456	0.332	-0.220
-231.786	75.562	-0.133	-0.138
-230.771	45.452	-0.107	-0.097
-229.757	-105.115	0.239	-0.054
-228.742	-57.552	-0.343	-0.148
-227.727	87.624	-0.203	-0.221
-226.713	800.000	0.049	0.207
-225.698	-44.672	0.386	0.190
-224.684	800.000	0.020	0.064
-223.669	800.000	-0.023	0.089
-222.655	-200.000	-0.008	-0.157
-221.640	100.204	-0.249	-0.285
-220.625	-25.718	-0.146	-0.085
-219.611	-200.000	-0.010	0.116
-218.596	183.444	0.197	-0.286
-217.582	23.905	-0.207	0.168
-216.567	611.779	0.168	-0.413
-215.552	-200.000	0.004	-0.197
-214.538	370.923	0.110	-0.219
-213.523	92.328	-0.225	0.250
-212.509	-141.053	0.327	0.033
-211.494	-200.000	-0.047	-0.360
-210.479	253.631	-0.117	0.196
-209.465	-200.000	0.015	-0.172
-208.450	-200.000	0.031	-0.194
-207.436	-52.675	0.269	-0.122
-206.421	-148.394	-0.222	0.018
-205.406	52.952	0.080	-0.075
-204.392	248.184	-0.139	-0.231
-203.377	190.297	0.023	0.034
-202.363	-200.000	0.017	0.163
-201.348	9.819	0.146	0.109
-200.333	-81.440	0.303	0.098
-199.319	-110.414	0.216	0.044
-198.304	-200.000	-0.268	-0.001
-197.290	54.220	-0.170	-0.161
-196.275	-106.197	0.397	0.088
-195.260	81.863	0.215	-0.229
-194.246	139.793	0.091	-0.118
-193.231	-200.000	-0.002	-0.377
-192.217	-116.847	0.192	0.035
-191.202	-59.391	-0.206	-0.087
-190.187	240.655	-0.270	0.443
-189.173	-30.350	-0.053	-0.029
-188.158	-56.663	-0.263	-0.114
-187.144	-89.538	0.122	0.035
-186.129	204.491	-0.054	-0.082
-185.114	104.626	-0.243	0.281
-184.100	800.000	-0.050	0.188
-183.085	-200.000	0.009	0.113
-182.071	-200.000	0.021	-0.119
-181.056	-32.129	-0.163	0.089
-180.042	-85.517	0.179	-0.055
-179.027	518.522	-0.039	-0.089
-178.012	45.241	0.173	-0.157
-176.998	-94.152	0.317	0.085
-175.983	800.000	0.103	-0.364
-174.969	7.987	-0.182	-0.134
-173.954	92.412	-0.139	-0.154
-172.939	-200.000	0.054	0.352
-171.925	-140.281	0.179	0.018
-170.910	134.877	0.075	0.095
-169.896	-129.924	-0.261	-0.035
-168.881	800.000	-0.050	-0.207
-167.866	-122.110	0.231	-0.037
-166.852	-138.278	0.087	0.009
-165.837	339.582	-0.160	-0.306
-164.823	-20.501	0.144	-0.087
-163.808	-200.000	0.054	-0.295
-162.793	525.019	0.072	0.167
-161.779	255.544	-0.075	-0.126
-160.764	-200.000	-0.030	-0.213
-159.750	68.783	0.320	0.323
-158.735	305.931	-0.103	0.188
-157.720	-172.096	-0.122	0.004
-156.706	-18.441	-0.070	-0.043
-155.691	-46.512	0.041	-0.020
-154.677	234.518	0.099	-0.160
-153.662	-31.490	-0.065	-0.036
-152.647	-10.752	-0.136	-0.088
-151.633	800.000	0.086	-0.323
-150.618	-200.000	0.039	0.219
-149.604	-200.000	0.001	-0.254
-148.589	713.578	0.076	0.198
-147.574	-200.000	-0.014	0.117
-146.560	132.958	0.112	-0.142
-145.545	258.445	-0.170	0.288
-144.531	-200.000	-0.044	-0.377
-143.516	-109.967	0.374	-0.077
-142.502	384.379	0.047	0.096
-141.487	-200.000	0.018	0.148
-140.472	-26.028	-0.194	0.112
-139.458	800.000	-0.090	-0.284
-138.443	216.911	0.077	0.121
-137.429	65.320	-0.316	-0.314
-136.414	-200.000	0.039	-0.383
-135.399	6.366	-0.214	0.156
-134.385	-95.460	-0.200	0.053
-133.370	800.000	0.097	-0.298
-132.356	800.000	-0.080	0.240
-131.341	293.560	-0.079	-0.141
-130.326	-26.506	-0.067	-0.038
-129.312	800.000	0.137	-0.379
-128.297	-43.195	-0.156	-0.077
-127.283	-200.000	0.049	0.301
-126.268	585.264	-0.102	0.247
-125.253	49.120	0.210	0.193
-124.239	203.847	0.127	-0.193
-123.224	-50.959	0.092	-0.043
-122.210	-2.344	0.255	-0.176
-121.195	137.510	-0.141	0.180
-120.180	30.618	0.155	0.130
-119.166	68.230	-0.249	-0.250
-118.151	-10.012	-0.312	0.203
-117.137	63.715	-0.200	0.197
-116.122	-200.000	-0.290	-0.000
-115.107	-123.275	0.323	-0.051
-114.093	-178.010	-0.047	-0.001
-113.078	-65.463	-0.242	0.095
-112.064	-130.476	-0.135	-0.018
-111.049	159.225	-0.078	-0.106
-110.034	-200.000	-0.029	-0.172
-109.020	-93.628	0.083	0.023
-108.005	-116.017	0.219	-0.040
-106.991	-200.000	-0.034	0.154
-105.976	-131.801	-0.261	0.033
-104.962	-61.533	0.099	0.041
-103.947	251.104	-0.134	-0.224
-102.932	-138.670	-0.044	-0.005
-101.918	-200.000	-0.004	0.232
-100.903	385.948	-0.087	-0.175
-99.889	-86.301	-0.075	-0.023
-98.874	-50.348	0.209	-0.097
-97.859	-140.707	0.163	-0.017
-96.845	-57.005	-0.270	0.117
-95.830	310.519	0.104	0.191
-94.816	-43.823	0.216	0.106
-93.801	-200.000	0.006	-0.136
-92.786	-200.000	-0.039	0.251
-91.772	-27.646	0.330	-0.188
-90.757	-146.253	0.249	0.021
-89.743	535.752	-0.060	0.140
-88.728	-39.885	-0.418	0.214
-87.713	-200.000	0.050	0.235
-86.699	800.000	-0.110	-0.388
-85.684	25.276	-0.127	0.103
-84.670	50.611	0.101	0.093
-83.655	800.000	-0.077	0.260
-82.640	800.000	-0.088	0.242
-81.626	-200.000	0.000	-0.075
-80.611	-200.000	-0.003	0.016
-79.597	360.231	0.040	0.079
-78.582	-43.234	-0.260	0.129
-77.567	-98.680	0.223	0.056
-76.553	-122.571	-0.269	0.043
-75.538	-112.406	0.166	0.032
-74.524	148.840	-0.174	0.230
-73.509	800.000	0.047	-0.175
-72.494	-132.390	-0.266	-0.034
-71.480	365.703	0.087	0.171
-70.465	659.968	0.038	0.097
-69.451	-88.126	0.135	-0.040
-68.436	-145.425	0.252	-0.022
-67.422	-200.000	-0.036	0.214
-66.407	59.286	-0.161	0.156
-65.392	111.696	0.076	-0.089
-64.378	0.183	0.205	0.143
-63.363	37.829	0.253	0.220
-62.349	-73.931	-0.323	0.115
-61.334	136.737	-0.835	-1.067
-60.319	10.945	0.696	0.521
-59.305	800.000	-0.259	-1.085
-58.290	197.249	0.770	1.150
-57.276	772.176	0.626	1.670
-56.261	-200.000	106.847	590.396
-55.246	457.118	1471.206	3196.902
-54.232	149.260	2656.181	3517.389
-53.217	100.846	2271.984	2584.091
-52.203	39.046	1889.291	1652.416
-51.188	33.320	1681.011	1427.170
-50.173	30.711	1638.093	1371.479
-49.159	49.719	1691.852	1559.373
-48.144	50.180	1707.627	1577.297
-47.130	32.846	1665.144	1409.934
-46.115	30.148	1651.257	1378.097
-45.100	29.987	1645.933	1372.409
-44.086	29.996	1643.420	1370.327
-43.071	29.952	1640.728	1367.701
-42.057	29.940	1638.436	1365.642
-41.042	29.961	1636.682	1364.286
-40.027	29.974	1634.872	1362.818
-39.013	29.979	1632.657	1360.950
-37.998	29.897	1631.522	1359.353
-36.984	29.977	1630.105	1358.701
-35.969	30.026	1628.524	1357.693
-34.954	30.084	1626.819	1356.643
-33.940	30.134	1625.074	1355.499
-32.925	30.116	1623.971	1354.392
-31.911	30.102	1621.715	1352.351
-30.896	30.084	1619.952	1350.698
-29.881	30.073	1618.499	1349.354
-28.867	30.122	1616.860	1348.290
-27.852	30.039	1615.113	1346.180
-26.838	30.092	1613.573	1345.223
-25.823	30.099	1612.245	1344.115
-24.809	30.172	1611.259	1343.771
-23.794	30.127	1609.775	1342.151
-22.779	30.138	1608.246	1340.900
-21.765	30.144	1606.417	1339.367
-20.750	30.033	1605.314	1337.598
-19.736	30.083	1604.098	1336.892
-18.721	30.136	1602.340	1335.753
-17.706	30.149	1600.473	1334.238
-16.692	30.204	1598.985	1333.336
-15.677	30.113	1597.810	1331.654
-14.663	30.162	1596.703	1331.029
-13.648	30.101	1595.131	1329.224
-12.633	30.104	1593.660	1327.970
-11.619	30.150	1592.353	1327.157
-10.604	30.126	1590.636	1325.506
-9.590	30.183	1589.763	1325.131
-8.575	30.113	1588.640	1323.642
-7.560	30.067	1587.183	1322.044
-6.546	30.151	1586.181	1321.759
-5.531	30.150	1585.075	1320.778
-4.517	30.077	1584.042	1319.341
-3.502	30.099	1582.619	1318.262
-2.487	30.206	1580.730	1317.395
-1.473	29.726	1569.110	1304.278
-0.458	26.561	1548.954	1265.389
0.556	20.234	1549.328	1229.934
1.571	17.753	1572.619	1230.432
2.586	17.252	1585.080	1236.428
3.600	16.185	1534.739	1189.541
4.615	12.651	1436.109	1089.641
5.629	9.287	1379.285	1025.014
6.644	8.563	1371.692	1014.686
7.659	8.512	1370.734	1013.565
8.673	8.454	1369.456	1012.166
9.688	8.362	1367.724	1010.212
10.702	8.264	1364.197	1006.898
11.717	9.939	1366.694	1019.231
12.731	13.842	1373.853	1049.195
13.746	16.791	1378.303	1071.174
14.761	17.059	1377.595	1072.221
15.775	16.190	1374.952	1064.589
16.790	15.094	1372.239	1055.490
17.804	14.278	1369.907	1048.464
18.819	13.814	1368.532	1044.399
19.834	13.678	1366.972	1042.261
20.848	13.381	1366.072	1039.618
21.863	13.151	1364.706	1037.044
22.877	12.957	1363.362	1034.712
23.892	12.849	1363.153	1033.788
24.907	12.832	1361.648	1032.449
25.921	12.938	1360.953	1032.491
26.936	12.907	1359.852	1031.371
27.950	13.006	1358.956	1031.220
28.965	12.974	1358.362	1030.480
29.980	13.182	1356.688	1030.412
30.994	13.283	1355.276	1029.878
32.009	13.226	1354.430	1028.794
33.023	13.249	1353.031	1027.778
34.038	13.115	1351.915	1026.012
35.053	13.087	1350.234	1024.469
36.067	13.037	1349.474	1023.490
37.082	13.072	1348.602	1022.955
38.096	13.159	1347.601	1022.648
39.111	13.061	1346.907	1021.421
40.126	13.059	1346.267	1020.833
41.140	12.935	1345.378	1019.302
42.155	13.020	1344.305	1018.926
43.169	12.868	1344.179	1017.800
44.184	12.783	1344.376	1017.336
45.199	12.823	1343.597	1016.900
46.213	13.034	1342.652	1017.399
47.228	13.031	1342.109	1016.879
48.242	12.989	1341.329	1015.942
49.257	13.059	1339.506	1014.899
50.271	13.048	1337.884	1013.510
51.286	13.095	1336.941	1013.000
52.301	13.027	1335.729	1011.572
53.315	12.965	1334.420	1010.112
54.330	12.909	1333.340	1008.865
55.344	12.982	1332.328	1008.453
56.359	12.893	1331.508	1007.202
57.374	12.908	1330.495	1006.437
58.388	12.843	1329.571	1005.252
59.403	12.910	1328.819	1005.005
60.417	12.863	1328.081	1004.068
61.432	12.765	1327.754	1003.135
62.447	12.839	1326.504	1002.556
63.461	12.673	1325.607	1000.780
64.476	12.706	1324.553	1000.091
65.490	12.794	1323.300	999.594
66.505	12.834	1321.348	998.272
67.520	12.816	1320.199	997.207
68.534	12.713	1319.808	996.201
69.549	12.828	1318.465	995.794
70.563	12.841	1317.347	994.941
71.578	12.695	1316.521	993.350
72.593	12.689	1315.681	992.587
73.607	12.710	1314.895	992.036
74.622	12.729	1313.662	991.133
75.636	12.649	1313.785	990.657
76.651	12.694	1312.919	990.182
77.666	12.687	1312.283	989.578
78.680	12.741	1311.548	989.255
79.695	12.799	1310.925	989.047
80.709	12.796	1310.229	988.417
81.724	12.782	1309.542	987.729
82.739	12.986	1308.018	987.715
83.753	12.920	1307.575	986.897
84.768	12.998	1306.495	986.462
85.782	13.150	1304.815	986.012
86.797	13.046	1303.926	984.634
87.812	13.026	1302.385	983.260
88.826	13.042	1301.717	982.766
89.841	13.081	1300.198	981.763
90.855	13.122	1298.956	980.984
91.870	13.195	1298.501	980.986
92.884	13.155	1297.794	980.127
93.899	13.122	1296.926	979.190
94.914	13.147	1296.869	979.210
95.928	13.158	1295.681	978.289
96.943	12.983	1294.752	976.466
97.957	13.139	1293.630	976.458
98.972	12.999	1292.834	974.943
99.987	13.154	1291.750	974.952
101.001	13.044	1290.675	973.407
102.016	12.979	1289.813	972.290
103.030	13.146	1288.432	972.145
104.045	13.135	1287.607	971.374
105.060	12.979	1286.884	969.823
106.074	12.962	1285.205	968.370
107.089	12.881	1283.878	966.810
108.103	12.788	1282.567	965.191
109.118	12.780	1281.884	964.545
110.133	12.830	1279.919	963.275
111.147	12.834	1278.169	961.896
112.162	12.798	1277.370	961.001
113.176	13.000	1276.037	961.086
114.191	12.966	1275.353	960.293
115.206	13.013	1273.995	959.456
116.220	12.847	1273.034	957.682
117.235	12.913	1272.217	957.368
118.249	12.891	1271.072	956.294
119.264	12.851	1269.795	955.014
120.279	12.863	1268.819	954.266
121.293	12.889	1267.603	953.419
122.308	12.825	1266.527	952.155
123.322	12.815	1265.443	951.197
124.337	12.778	1264.881	950.476
125.352	12.831	1263.275	949.492
126.366	12.798	1262.116	948.346
127.381	12.845	1261.481	948.057
128.395	12.799	1260.064	946.646
129.410	12.884	1259.363	946.520
130.424	12.787	1258.863	945.508
131.439	12.837	1257.734	944.859
132.454	12.878	1256.595	944.157
133.468	12.955	1255.943	944.026
134.483	12.868	1255.260	942.930
135.497	13.010	1253.718	942.496
136.512	12.913	1252.480	940.929
137.527	12.925	1251.689	940.320
138.541	12.980	1249.577	938.965
139.556	12.975	1248.524	938.061
140.570	13.009	1247.498	937.399
141.585	13.018	1246.386	936.534
142.600	13.186	1244.815	936.221
143.614	13.110	1244.352	935.359
144.629	13.121	1243.425	934.646
145.643	13.105	1242.513	933.784
146.658	13.081	1241.033	932.456
147.673	13.180	1239.246	931.589
148.687	13.023	1238.379	929.968
149.702	13.017	1237.183	928.956
150.716	12.943	1235.962	927.540
151.731	13.092	1234.369	927.101
152.746	12.997	1233.134	925.556
153.760	13.067	1231.914	924.952
154.775	13.081	1231.434	924.585
155.789	13.195	1229.802	923.916
156.804	13.188	1229.406	923.500
157.819	13.295	1227.791	922.800
158.833	13.232	1227.083	921.838
159.848	13.324	1226.618	921.919
160.862	13.319	1225.009	920.601
161.877	13.230	1224.219	919.432
162.892	13.160	1223.045	918.078
163.906	13.028	1222.376	916.761
164.921	13.153	1221.223	916.510
165.935	13.166	1220.414	915.892
166.950	13.174	1219.890	915.462
167.964	13.127	1219.056	914.496
168.979	13.143	1218.771	914.287
169.994	13.318	1217.474	914.202
171.008	13.193	1217.078	913.136
172.023	13.257	1216.046	912.634
173.037	13.338	1215.732	912.761
174.052	13.242	1214.377	911.136
175.067	13.257	1213.261	910.301
176.081	13.242	1212.023	909.208
177.096	13.221	1211.290	908.460
178.110	13.332	1209.993	908.021
179.125	13.210	1208.825	906.391
180.140	13.237	1208.069	905.896
181.154	13.335	1207.025	905.566
182.169	13.378	1205.262	904.402
183.183	13.314	1204.337	903.277
184.198	13.456	1203.435	903.294
185.213	13.511	1202.064	902.485
186.227	13.473	1201.192	901.542
187.242	13.489	1200.171	900.782
188.256	13.487	1199.382	900.100
189.271	13.552	1198.830	899.963
190.286	13.359	1197.149	897.575
191.300	13.231	1196.898	896.608
192.315	13.238	1195.733	895.695
193.329	13.285	1194.774	895.151
194.344	13.280	1194.280	894.678
195.359	13.318	1193.842	894.473
196.373	13.416	1193.351	894.557
197.388	13.493	1192.730	894.428
198.402	13.643	1192.623	895.081
199.417	13.686	1191.922	894.708
200.432	13.730	1190.778	894.005
201.446	13.819	1189.559	893.490
202.461	13.901	1189.090	893.501
203.475	13.792	1188.355	892.282
204.490	13.858	1186.736	891.345
205.504	13.711	1185.656	889.662
206.519	13.652	1184.198	888.175
207.534	13.661	1183.327	887.492
208.548	13.720	1182.463	887.084
209.563	13.787	1181.421	886.578
210.577	13.694	1180.501	885.314
211.592	13.684	1179.731	884.607
212.607	13.882	1178.936	884.986
213.621	13.893	1178.151	884.376
214.636	13.793	1177.304	883.130
215.650	13.851	1176.347	882.641
216.665	13.842	1175.554	881.920
217.680	13.929	1174.590	881.582
218.694	13.980	1174.119	881.422
219.709	14.022	1172.839	880.605
220.723	13.937	1172.392	879.741
221.738	13.934	1171.670	879.108
222.753	13.993	1170.847	878.724
223.767	13.991	1170.666	878.498
224.782	14.163	1169.551	878.494
225.796	14.045	1169.133	877.476
226.811	14.144	1168.100	877.145
227.826	14.026	1167.573	876.050
228.840	13.916	1167.309	875.195
229.855	14.040	1166.329	875.037
230.869	13.978	1165.575	874.069
231.884	13.980	1164.347	873.080
232.899	13.939	1163.716	872.315
233.913	13.940	1163.006	871.712
234.928	13.952	1162.646	871.426
235.942	13.964	1161.297	870.398
236.957	13.900	1160.884	869.682
237.972	13.969	1160.230	869.473
238.986	14.054	1159.307	869.147
240.001	13.969	1158.584	868.085
241.015	13.997	1157.794	867.566
242.030	14.071	1156.851	867.164
243.045	14.168	1156.089	867.023
244.059	14.140	1155.408	866.291
245.074	14.203	1154.803	866.086
246.088	14.111	1154.439	865.262
247.103	14.193	1153.087	864.595
248.117	14.318	1152.186	864.496
249.132	14.386	1151.764	864.452
250.147	14.495	1151.137	864.469
251.161	14.498	1150.385	863.845
252.176	14.425	1149.799	862.949
253.190	14.588	1149.182	863.256
254.205	14.657	1148.357	862.915
255.220	14.589	1147.935	862.172
256.234	14.620	1147.418	861.866
257.249	14.579	1146.325	860.756
258.263	14.715	1145.793	860.982
259.278	14.632	1145.270	860.087
260.293	14.685	1144.951	860.043
261.307	14.688	1144.156	859.387
262.322	14.738	1143.755	859.264
263.336	14.658	1142.842	858.091
264.351	14.833	1142.014	858.292
265.366	14.686	1141.957	857.421
266.380	14.725	1141.133	856.925
267.395	14.853	1139.907	856.584
268.409	14.796	1139.244	855.717
269.424	14.685	1138.637	854.616
270.439	14.714	1138.229	854.386
271.453	14.729	1136.958	853.431
272.468	14.717	1136.282	852.790
273.482	14.697	1135.470	852.003
274.497	14.732	1134.907	851.683
275.512	14.741	1134.594	851.416
276.526	14.671	1134.008	850.549
277.541	14.745	1132.832	849.965
278.555	14.712	1132.687	849.613
279.570	14.873	1131.613	849.553
280.585	15.014	1130.985	849.719
281.599	14.926	1130.115	848.543
282.614	14.918	1128.895	847.512
283.628	14.821	1127.855	846.166
284.643	14.858	1126.770	845.464
285.657	15.031	1125.783	845.522
286.672	14.874	1125.577	844.500
287.687	14.941	1124.372	843.860
288.701	15.049	1123.552	843.717
289.716	15.047	1122.844	843.097
290.730	15.031	1122.403	842.614
291.745	15.025	1121.646	841.939
292.760	15.096	1120.645	841.468
293.774	15.096	1120.517	841.299
294.789	15.160	1119.885	841.071
295.803	14.948	1119.647	839.756
296.818	15.132	1118.211	839.527
297.833	15.187	1117.245	839.004
298.847	15.008	1116.798	837.696
299.862	15.024	1116.270	837.303
300.876	15.086	1115.585	837.028
301.891	15.207	1114.758	836.939
302.906	15.263	1113.959	836.541
303.920	15.194	1113.430	835.727
304.935	15.395	1112.643	836.064
305.949	15.356	1112.075	835.369
306.964	15.337	1111.402	834.696
307.979	15.206	1111.059	833.712
308.993	15.294	1110.398	833.579
310.008	15.300	1109.485	832.853
311.022	15.330	1108.695	832.333
312.037	15.406	1107.673	831.870
313.052	15.364	1106.492	830.701
314.066	15.289	1105.714	829.672
315.081	15.298	1104.695	828.878
316.095	15.373	1104.226	828.821
317.110	15.340	1103.378	827.951
318.125	15.349	1103.105	827.716
319.139	15.307	1102.340	826.860
320.154	15.340	1101.520	826.338
321.168	15.278	1100.920	825.509
322.183	15.204	1100.272	824.582
323.197	15.338	1100.023	824.982
324.212	15.386	1098.884	824.294
325.227	15.354	1098.531	823.798
326.241	15.394	1097.863	823.419
327.256	15.432	1096.848	822.771
328.270	15.367	1096.067	821.797
329.285	15.416	1094.924	821.108
330.300	15.392	1094.232	820.398
331.314	15.470	1093.203	819.933
332.329	15.496	1092.202	819.238
333.343	15.433	1091.708	818.488
334.358	15.529	1091.113	818.435
335.373	15.537	1090.434	817.892
336.387	15.616	1089.342	817.388
337.402	15.573	1088.627	816.567
338.416	15.611	1087.979	816.196
339.431	15.628	1087.462	815.819
340.446	15.712	1086.604	815.507
341.460	15.659	1086.015	814.739
342.475	15.764	1085.538	814.818
343.489	15.855	1083.905	813.960
344.504	15.767	1083.411	813.092
345.519	15.844	1082.746	812.893
346.533	15.979	1081.650	812.648
347.548	15.937	1081.326	812.133
348.562	15.939	1080.451	811.412
349.577	15.899	1079.511	810.440
350.592	15.664	1078.900	808.781
351.606	15.783	1078.230	808.776
352.621	15.729	1077.696	808.047
353.635	15.813	1076.349	807.366
354.650	15.889	1075.950	807.361
355.665	15.772	1075.287	806.234
356.679	15.916	1074.923	806.576
357.694	15.925	1074.256	806.051
358.708	15.891	1073.697	805.394
359.723	15.925	1073.208	805.119
360.738	15.872	1072.071	803.944
361.752	15.840	1071.881	803.574
362.767	15.971	1071.281	803.680
363.781	16.009	1070.599	803.278
364.796	16.154	1070.118	803.538
365.810	16.136	1069.397	802.841
366.825	16.220	1068.852	802.759
367.840	16.128	1068.474	801.967
368.854	16.188	1068.213	801.983
369.869	16.270	1067.095	801.466
370.883	16.268	1066.144	800.670
371.898	16.281	1065.150	799.912
372.913	16.300	1064.655	799.559
373.927	16.206	1064.319	798.793
374.942	16.325	1064.028	799.066
375.956	16.180	1063.371	797.819
376.971	16.275	1062.427	797.489
377.986	16.474	1061.800	797.883
379.000	16.463	1061.406	797.466
380.015	16.400	1061.020	796.809
381.029	16.442	1060.599	796.619
382.044	16.505	1059.422	795.964
383.059	16.529	1058.619	795.400
384.073	16.563	1058.069	795.075
385.088	16.482	1057.519	794.214
386.102	16.353	1056.748	792.960
387.117	16.542	1055.289	792.680
388.132	16.382	1054.692	791.413
389.146	16.477	1053.773	791.096
390.161	16.395	1053.050	790.098
391.175	16.533	1052.284	790.102
392.190	16.420	1052.016	789.300
393.205	16.611	1051.213	789.520
394.219	16.581	1050.351	788.662
395.234	16.506	1049.307	787.461
396.248	16.468	1048.368	786.508
397.263	16.462	1047.357	785.652
398.278	16.356	1047.098	784.897
399.292	16.341	1046.115	784.021
400.307	16.530	1045.421	784.308
401.321	16.377	1044.944	783.171
402.336	16.562	1044.011	783.261
403.350	16.435	1043.695	782.368
404.365	16.602	1042.670	782.301
405.380	16.606	1041.784	781.584
406.394	16.614	1041.389	781.257
407.409	16.756	1040.462	781.148
408.423	16.684	1039.767	780.224
409.438	16.821	1038.960	780.178
410.453	16.941	1038.118	780.029
411.467	16.849	1037.788	779.292
412.482	16.855	1037.434	778.984
413.496	16.865	1036.551	778.296
414.511	16.886	1036.024	777.929
415.526	16.953	1035.792	777.993
416.540	16.962	1035.485	777.737
417.555	16.989	1034.404	776.978
418.569	17.037	1034.276	777.032
419.584	16.957	1033.587	776.083
420.599	16.992	1032.870	775.635
421.613	103.302	1322.255	1469.541
422.628	94.591	1364.383	1469.618
