DTS Sentinel unit serial number:	SN413079Multiplexer serial number:	ORYXHardware model number:	OX4-SRSoftware version number:	ORYX F/W v4.00 Oryx Data Collector v3.7.2.0data status	okinstallation	princeton_trtdifferential loss correction	single-endedforward channel	channel 2reverse channel	N/Adate	2019/09/17time	18:19:35forward acquisition time	60.00reverse acquisition time	0.00gamma	496.2192k internal	0.2288k external	0.2288temperature offset calibration	0.9985default loss term (dB/km)	0.3790temperature slope calibration	1.0000multiplexer offset coefficient	1.0000multiplexer slope coefficient	1.0000fibre end	0.00T internal ref (°C)	43.31T ext. ref 1 (°C)	0.31T ext. ref 2 (°C)	37.07length (m)	temperature (°C)	Stokes	anti-Stokes-747.200	-200.000	0.003	-0.047
-746.185	118.230	0.197	0.249
-745.171	-25.310	-0.345	0.209
-744.156	365.400	0.107	0.220
-743.142	-46.043	0.305	0.154
-742.127	-132.243	-0.158	0.021
-741.112	106.966	0.050	0.060
-740.098	148.042	0.134	0.185
-739.083	-200.000	0.000	0.034
-738.069	-200.000	-0.041	0.203
-737.054	-200.000	0.005	0.232
-736.039	40.588	0.075	-0.069
-735.025	-137.661	-0.255	0.029
-734.010	-124.715	-0.198	0.031
-732.996	-104.319	-0.175	-0.042
-731.981	0.666	-0.149	-0.109
-730.966	132.360	-0.215	-0.283
-729.952	-78.342	0.183	-0.064
-728.937	272.725	0.040	0.073
-727.923	-78.198	-0.460	-0.162
-726.908	-200.000	-0.032	-0.237
-725.894	326.903	0.106	0.208
-724.879	766.959	-0.034	-0.094
-723.864	800.000	-0.060	-0.193
-722.850	800.000	-0.109	-0.368
-721.835	80.485	0.140	0.154
-720.821	-5.178	-0.211	-0.148
-719.806	-45.114	0.066	-0.034
-718.791	-200.000	-0.007	0.347
-717.777	-118.298	-0.249	0.045
-716.762	-158.733	-0.420	-0.025
-715.748	393.764	-0.190	-0.406
-714.733	-200.000	0.010	-0.197
-713.718	638.668	0.006	-0.015
-712.704	376.160	0.081	-0.169
-711.689	-140.374	-0.302	-0.032
-710.675	-186.831	0.020	0.000
-709.660	47.150	0.125	-0.119
-708.645	800.000	0.039	0.122
-707.631	661.672	-0.103	-0.271
-706.616	-101.394	-0.257	0.064
-705.602	-91.470	-0.142	0.042
-704.587	-200.000	-0.040	0.212
-703.572	-141.488	-0.143	0.015
-702.558	341.259	0.137	-0.274
-701.543	741.501	-0.129	-0.355
-700.529	-132.977	-0.227	-0.030
-699.514	800.000	-0.135	0.436
-698.499	61.378	0.213	-0.217
-697.485	237.875	-0.172	-0.292
-696.470	-85.608	0.428	-0.136
-695.456	800.000	0.109	0.341
-694.441	-79.106	-0.102	-0.035
-693.426	15.854	-0.399	-0.322
-692.412	-43.010	-0.124	0.064
-691.397	329.202	-0.225	-0.442
-690.383	800.000	-0.111	-0.315
-689.368	-77.755	0.305	0.108
-688.354	-126.856	0.166	-0.025
-687.339	6.310	-0.082	-0.062
-686.324	15.045	0.055	-0.044
-685.310	402.839	-0.015	-0.032
-684.295	-121.495	-0.175	0.030
-683.281	-139.516	-0.064	-0.007
-682.266	356.407	-0.185	0.378
-681.251	-148.757	0.036	-0.003
-680.237	-77.380	0.254	0.090
-679.222	-89.301	-0.394	-0.119
-678.208	-157.010	0.116	0.007
-677.193	47.790	0.211	-0.202
-676.178	-59.201	0.157	-0.069
-675.164	-5.008	-0.213	-0.150
-674.149	85.289	-0.106	-0.119
-673.135	99.576	0.050	-0.060
-672.120	165.402	-0.067	-0.097
-671.105	272.975	0.015	-0.028
-670.091	7.216	0.186	0.142
-669.076	107.484	-0.290	-0.352
-668.062	472.025	-0.056	0.128
-667.047	-61.643	-0.201	-0.086
-666.032	108.016	0.162	0.198
-665.018	229.422	-0.127	0.213
-664.003	72.452	-0.183	0.195
-662.989	163.948	-0.144	-0.207
-661.974	-50.967	-0.181	0.087
-660.959	172.025	0.120	0.177
-659.945	56.894	-0.035	0.035
-658.930	-200.000	-0.061	0.336
-657.916	-200.000	-0.035	0.345
-656.901	197.359	-0.088	0.137
-655.886	-67.989	0.275	-0.110
-654.872	-143.381	-0.061	0.006
-653.857	-200.000	-0.053	-0.377
-652.843	362.682	0.145	0.297
-651.828	-200.000	0.026	-0.413
-650.814	-42.682	0.111	0.058
-649.799	-141.759	0.295	-0.030
-648.784	-117.109	0.143	-0.027
-647.770	800.000	-0.108	-0.322
-646.755	-141.986	-0.434	-0.044
-645.741	-52.656	-0.015	-0.007
-644.726	59.037	0.013	-0.013
-643.711	287.107	0.020	-0.037
-642.697	76.313	0.063	0.068
-641.682	800.000	-0.102	0.307
-640.668	101.713	-0.031	0.037
-639.653	800.000	0.097	0.381
-638.638	-86.576	-0.320	0.100
-637.624	319.031	0.152	0.294
-636.609	729.300	0.073	-0.198
-635.595	-80.143	0.166	-0.057
-634.580	272.596	0.060	-0.108
-633.565	434.347	0.067	-0.148
-632.551	-39.544	-0.140	-0.075
-631.536	-111.121	0.279	-0.058
-630.522	77.747	0.240	0.261
-629.507	786.554	0.025	0.071
-628.492	77.166	-0.123	-0.134
-627.478	-101.491	-0.399	-0.099
-626.463	-21.611	-0.078	0.049
-625.449	43.410	0.143	0.134
-624.434	-129.002	-0.155	-0.022
-623.419	52.650	-0.053	0.052
-622.405	12.090	-0.071	0.055
-621.390	-105.014	0.260	0.061
-620.376	-156.434	-0.149	-0.009
-619.361	-200.000	-0.007	-0.132
-618.346	186.315	-0.142	0.215
-617.332	222.427	-0.199	0.328
-616.317	-200.000	-0.000	-0.258
-615.303	-170.396	-0.452	0.016
-614.288	-200.000	0.012	0.128
-613.273	-111.410	-0.119	0.025
-612.259	-191.535	0.231	-0.002
-611.244	-9.861	0.005	-0.003
-610.230	8.389	0.044	-0.034
-609.215	-115.866	-0.506	0.097
-608.201	-200.000	-0.014	-0.251
-607.186	-23.650	-0.167	0.102
-606.171	237.599	0.099	-0.167
-605.157	-139.405	-0.099	0.011
-604.142	199.974	0.121	0.189
-603.128	-115.315	0.119	-0.023
-602.113	142.091	-0.055	0.075
-601.098	800.000	0.131	0.369
-600.084	800.000	-0.098	0.393
-599.069	15.483	-0.326	0.261
-598.055	-200.000	0.025	-0.155
-597.040	179.322	-0.099	0.148
-596.025	194.947	-0.128	-0.198
-595.011	-200.000	0.013	0.394
-593.996	-130.749	0.406	0.056
-592.982	-100.815	0.141	-0.035
-591.967	-107.377	-0.203	-0.046
-590.952	118.601	-0.175	0.220
-589.938	-28.735	0.316	0.185
-588.923	265.073	-0.037	0.066
-587.909	-12.514	-0.203	0.135
-586.894	-158.042	0.220	0.013
-585.879	-57.113	-0.092	0.041
-584.865	146.073	-0.100	0.137
-583.850	-173.062	0.284	0.009
-582.836	-56.051	-0.209	-0.095
-581.821	771.092	-0.029	-0.080
-580.806	-200.000	0.013	0.112
-579.792	-70.915	0.125	-0.048
-578.777	441.553	-0.019	0.043
-577.763	100.223	0.037	0.044
-576.748	800.000	0.033	-0.106
-575.733	310.851	-0.085	-0.163
-574.719	135.745	-0.038	-0.051
-573.704	-200.000	-0.010	0.141
-572.690	116.572	-0.127	0.159
-571.675	-173.663	-0.511	-0.016
-570.661	-200.000	-0.020	0.199
-569.646	127.198	-0.076	0.098
-568.631	143.943	0.039	-0.052
-567.617	184.892	0.304	-0.460
-566.602	-100.561	-0.107	0.027
-565.588	-200.000	-0.011	-0.359
-564.573	800.000	0.104	0.309
-563.558	70.926	0.107	0.113
-562.544	-104.446	-0.346	0.081
-561.529	-141.653	0.120	0.012
-560.515	-63.754	0.224	0.093
-559.500	3.218	-0.036	0.027
-558.485	84.905	-0.189	0.211
-557.471	-168.163	0.150	-0.006
-556.456	63.763	-0.245	-0.250
-555.442	-96.943	0.069	-0.018
-554.427	283.753	-0.154	0.281
-553.412	21.596	0.184	-0.153
-552.398	205.026	-0.169	0.266
-551.383	-87.368	0.078	0.024
-550.369	800.000	0.089	-0.333
-549.354	-48.472	-0.199	0.097
-548.339	-30.509	-0.054	-0.031
-547.325	35.149	-0.195	-0.174
-546.310	-200.000	-0.033	-0.239
-545.296	500.378	-0.029	0.067
-544.281	800.000	-0.055	-0.237
-543.266	109.347	-0.033	-0.040
-542.252	-61.333	-0.132	0.057
-541.237	-106.410	-0.367	-0.083
-540.223	-103.772	0.148	-0.035
-539.208	-200.000	0.084	-0.385
-538.193	420.846	0.039	-0.084
-537.179	-60.140	0.256	0.111
-536.164	-86.627	0.152	-0.047
-535.150	-5.350	0.251	-0.175
-534.135	406.314	0.096	-0.206
-533.121	800.000	-0.066	-0.190
-532.106	800.000	-0.069	-0.286
-531.091	-200.000	-0.063	0.349
-530.077	-39.569	0.130	0.069
-529.062	522.059	0.111	0.265
-528.048	-12.069	0.260	0.173
-527.033	6.497	0.211	0.159
-526.018	59.762	-0.228	-0.228
-525.004	-200.000	0.013	0.088
-523.989	-64.286	0.182	0.075
-522.975	-200.000	-0.006	0.163
-521.960	-200.000	-0.000	-0.021
-520.945	165.314	-0.100	0.144
-519.931	134.059	-0.267	-0.352
-518.916	210.577	0.129	-0.205
-517.902	36.292	0.196	-0.176
-516.887	-59.277	-0.296	0.129
-515.872	216.563	-0.069	0.111
-514.858	165.489	0.303	-0.435
-513.843	198.142	-0.046	-0.072
-512.829	-200.000	0.002	0.132
-511.814	116.524	-0.128	0.160
-510.799	-200.000	0.010	0.093
-509.785	-182.471	-0.278	-0.005
-508.770	209.301	-0.071	0.113
-507.756	-200.000	0.002	-0.331
-506.741	-130.273	0.382	0.053
-505.726	-72.045	-0.180	0.068
-504.712	-121.108	-0.124	0.021
-503.697	-44.324	0.249	0.127
-502.683	-200.000	0.056	0.261
-501.668	460.187	0.041	0.093
-500.653	800.000	0.043	-0.169
-499.639	94.995	0.307	-0.355
-498.624	-1.558	-0.168	-0.120
-497.610	-38.959	0.079	-0.042
-496.595	-74.182	-0.191	0.070
-495.581	775.423	0.106	-0.293
-494.566	800.000	0.124	-0.361
-493.551	215.382	-0.207	-0.333
-492.537	13.639	-0.216	-0.170
-491.522	-82.473	-0.182	-0.060
-490.508	-200.000	0.057	-0.304
-489.493	-127.834	0.258	-0.038
-488.478	348.887	0.092	-0.184
-487.464	-200.000	0.000	-0.316
-486.449	86.046	0.197	0.220
-485.435	-46.626	-0.254	-0.126
-484.420	74.282	-0.421	-0.449
-483.405	-146.011	0.084	-0.008
-482.391	-200.000	-0.003	0.224
-481.376	591.161	-0.088	0.220
-480.362	-200.000	-0.023	0.411
-479.347	56.581	0.372	0.367
-478.332	615.270	0.122	-0.310
-477.318	30.789	0.223	-0.193
-476.303	59.957	0.165	0.165
-475.289	-164.642	-0.158	0.007
-474.274	228.064	-0.116	0.192
-473.259	-22.287	-0.266	0.163
-472.245	34.434	-0.116	0.103
-471.230	29.124	-0.016	0.014
-470.216	-53.136	0.312	0.145
-469.201	-27.376	0.108	-0.064
-468.186	281.261	0.060	0.110
-467.172	800.000	-0.008	-0.035
-466.157	-132.861	0.259	-0.034
-465.143	426.881	0.116	0.253
-464.128	-19.918	-0.311	0.195
-463.113	-3.570	0.127	-0.090
-462.099	-137.212	-0.351	-0.040
-461.084	468.204	0.046	-0.104
-460.070	48.662	0.245	0.232
-459.055	-42.705	0.160	-0.083
-458.040	-200.000	0.040	-0.248
-457.026	117.685	-0.148	0.185
-456.011	-200.000	0.015	0.186
-454.997	237.265	0.086	0.145
-453.982	670.076	0.176	0.461
-452.968	-33.635	0.228	0.128
-451.953	207.113	0.244	0.385
-450.938	-27.677	0.156	-0.092
-449.924	60.248	-0.034	0.034
-448.909	-59.275	0.229	-0.100
-447.895	109.886	0.092	-0.111
-446.880	122.697	-0.122	-0.155
-445.865	-115.887	-0.070	0.013
-444.851	-200.000	0.005	-0.264
-443.836	138.955	0.164	0.218
-442.822	-200.000	-0.027	-0.287
-441.807	-180.756	0.043	0.001
-440.792	-89.857	-0.088	0.026
-439.778	57.806	0.193	0.192
-438.763	376.154	0.165	0.341
-437.749	157.809	-0.177	0.248
-436.734	564.197	-0.066	-0.161
-435.719	-105.365	-0.296	0.068
-434.705	-200.000	-0.004	0.050
-433.690	393.864	0.049	-0.103
-432.676	800.000	0.060	0.170
-431.661	-11.735	0.114	0.076
-430.646	-200.000	-0.052	-0.504
-429.632	-111.968	-0.283	-0.058
-428.617	-185.475	-0.049	-0.001
-427.603	-58.658	0.366	0.161
-426.588	-200.000	-0.048	-0.288
-425.573	353.795	-0.224	-0.450
-424.559	432.246	0.105	0.231
-423.544	326.289	0.080	0.155
-422.530	-24.393	0.095	-0.057
-421.515	800.000	-0.156	-0.492
-420.500	600.118	-0.042	-0.105
-419.486	800.000	-0.025	0.093
-418.471	-200.000	0.002	0.108
-417.457	-20.713	0.124	0.077
-416.442	-41.584	0.263	-0.137
-415.428	69.261	0.218	-0.227
-414.413	310.824	0.073	0.138
-413.398	-110.337	-0.211	0.044
-412.384	141.863	-0.161	-0.216
-411.369	-50.803	0.301	0.143
-410.355	25.936	-0.042	0.035
-409.340	24.932	-0.312	0.262
-408.325	125.067	-0.150	-0.192
-407.311	800.000	-0.065	-0.239
-406.296	-200.000	0.379	0.001
-405.282	32.525	0.323	0.282
-404.267	-200.000	0.013	0.204
-403.252	-56.228	-0.044	-0.020
-402.238	384.925	-0.036	0.076
-401.223	-151.092	-0.090	0.007
-400.209	35.969	-0.136	0.121
-399.194	-200.000	-0.014	-0.223
-398.179	548.394	0.086	-0.209
-397.165	-95.988	0.082	0.022
-396.150	-156.566	-0.175	0.011
-395.136	-55.996	0.084	0.038
-394.121	-200.000	-0.014	-0.304
-393.106	80.604	-0.196	-0.213
-392.092	-147.308	0.193	0.017
-391.077	-94.049	0.093	-0.026
-390.063	344.617	0.152	-0.301
-389.048	800.000	-0.046	-0.151
-388.033	-200.000	-0.498	-0.002
-387.019	170.932	0.253	0.367
-386.004	800.000	-0.009	-0.036
-384.990	-96.591	-0.203	0.054
-383.975	260.994	0.069	-0.121
-382.960	121.641	0.166	-0.209
-381.946	-72.410	0.199	0.075
-380.931	-13.925	-0.370	0.242
-379.917	-73.643	-0.078	0.029
-378.902	80.679	-0.195	-0.212
-377.888	800.000	0.062	-0.272
-376.873	289.188	0.158	-0.289
-375.858	100.683	0.072	-0.085
-374.844	210.383	0.126	0.200
-373.829	-87.259	-0.336	0.103
-372.815	-12.777	-0.198	-0.130
-371.800	-200.000	-0.054	-0.342
-370.785	541.240	0.245	0.590
-369.771	283.380	-0.047	0.086
-368.756	-45.963	0.206	-0.103
-367.742	-118.976	0.129	0.023
-366.727	-142.961	-0.126	-0.012
-365.712	-80.233	0.544	0.184
-364.698	-120.801	-0.088	-0.015
-363.683	-0.269	-0.110	-0.079
-362.669	161.425	0.240	-0.339
-361.654	-200.000	-0.033	0.173
-360.639	150.503	0.067	0.092
-359.625	-73.800	-0.272	-0.100
-358.610	-114.245	0.268	0.052
-357.596	-162.329	-0.095	-0.005
-356.581	800.000	0.043	0.179
-355.566	-66.503	0.356	0.143
-354.552	-28.877	-0.358	0.208
-353.537	591.434	0.029	-0.073
-352.523	105.438	-0.240	0.286
-351.508	-25.542	0.126	-0.075
-350.493	0.543	0.229	-0.166
-349.479	-94.654	0.238	0.065
-348.464	-109.566	0.149	-0.032
-347.450	332.633	0.083	0.162
-346.435	-16.823	0.056	-0.036
-345.420	-72.212	0.201	0.075
-344.406	-26.069	-0.202	-0.120
-343.391	-200.000	-0.006	-0.078
-342.377	529.794	0.177	-0.421
-341.362	800.000	-0.090	-0.280
-340.348	-200.000	0.002	-0.034
-339.333	150.725	0.152	0.209
-338.318	30.884	-0.025	0.021
-337.304	98.050	0.065	0.076
-336.289	-85.115	-0.081	-0.025
-335.275	-69.377	-0.175	-0.068
-334.260	-112.959	0.138	-0.028
-333.245	207.197	0.063	0.100
-332.231	66.122	-0.312	-0.320
-331.216	-200.000	-0.004	-0.048
-330.202	15.154	0.192	0.152
-329.187	-92.873	0.014	-0.004
-328.172	63.955	-0.078	-0.079
-327.158	453.103	0.104	-0.233
-326.143	125.066	-0.164	0.209
-325.129	-200.000	-0.030	0.223
-324.114	239.365	-0.025	0.042
-323.099	168.474	-0.010	-0.015
-322.085	93.621	-0.156	-0.178
-321.070	125.136	-0.050	-0.063
-320.056	295.761	-0.149	-0.276
-319.041	68.675	0.363	0.376
-318.026	-3.835	0.032	-0.023
-317.012	-75.891	0.358	0.128
-315.997	197.604	-0.061	0.094
-314.983	-64.480	-0.314	-0.129
-313.968	145.664	0.202	-0.273
-312.953	-75.343	0.134	-0.048
-311.939	592.141	0.019	-0.048
-310.924	688.237	0.096	0.254
-309.910	800.000	0.033	0.118
-308.895	75.749	-0.100	-0.107
-307.880	-127.109	0.180	-0.027
-306.866	49.299	0.139	-0.132
-305.851	-124.296	0.251	0.040
-304.837	316.374	0.081	-0.154
-303.822	214.061	-0.058	0.093
-302.807	-70.935	0.189	0.072
-301.793	57.997	-0.150	0.148
-300.778	-200.000	0.004	0.169
-299.764	-93.596	0.135	-0.038
-298.749	-53.627	-0.235	0.108
-297.735	-140.595	-0.339	0.035
-296.720	-200.000	-0.013	-0.199
-295.705	24.238	0.344	0.286
-294.691	-62.047	-0.233	0.098
-293.676	-200.000	-0.023	-0.125
-292.662	-43.234	0.298	0.152
-291.647	62.065	-0.255	0.257
-290.632	-35.201	0.050	0.028
-289.618	288.440	0.130	-0.237
-288.603	-36.487	-0.434	0.235
-287.589	-162.527	-0.155	0.008
-286.574	57.137	0.235	0.231
-285.559	-200.000	0.051	0.342
-284.545	800.000	-0.069	-0.258
-283.530	-200.000	-0.043	-0.544
-282.516	-200.000	-0.012	0.170
-281.501	800.000	0.102	0.307
-280.486	111.783	0.213	0.259
-279.472	-176.900	-0.228	0.006
-278.457	11.180	-0.206	-0.159
-277.443	-115.297	0.041	0.008
-276.428	-125.819	-0.275	0.042
-275.413	-46.462	-0.283	0.140
-274.399	-100.020	0.381	0.096
-273.384	-200.000	-0.037	0.191
-272.370	-200.000	-0.027	-0.118
-271.355	72.995	0.113	-0.119
-270.340	-48.463	0.245	0.119
-269.326	800.000	0.089	0.354
-268.311	41.786	-0.167	-0.152
-267.297	-57.599	0.308	-0.136
-266.282	53.118	-0.073	-0.070
-265.267	-200.000	-0.020	0.098
-264.253	-189.689	0.256	0.003
-263.238	512.908	0.128	0.300
-262.224	-200.000	-0.016	0.132
-261.209	30.220	0.044	-0.038
-260.195	-71.031	-0.356	-0.135
-259.180	65.002	-0.042	0.043
-258.165	264.488	-0.041	-0.072
-257.151	800.000	0.070	-0.242
-256.136	-52.926	0.172	-0.080
-255.122	-200.000	0.040	-0.218
-254.107	800.000	0.062	-0.231
-253.092	555.627	0.052	0.125
-252.078	800.000	0.119	-0.434
-251.063	-34.825	-0.079	-0.043
-250.049	-171.309	0.088	-0.003
-249.034	-200.000	0.008	-0.265
-248.019	61.340	-0.008	0.008
-247.005	49.115	-0.192	0.181
-245.990	-2.703	-0.171	0.120
-244.976	267.247	-0.093	0.163
-243.961	-200.000	0.038	0.311
-242.946	-161.478	0.094	-0.005
-241.932	-106.095	-0.154	0.035
-240.917	-55.642	-0.093	-0.042
-239.903	-61.041	0.035	0.015
-238.888	625.014	0.090	0.228
-237.873	-94.000	0.272	-0.075
-236.859	800.000	0.079	0.293
-235.844	107.913	0.167	0.200
-234.830	-96.951	0.098	0.026
-233.815	-28.055	0.114	0.067
-232.800	442.773	0.097	-0.213
-231.786	-132.264	-0.280	0.036
-230.771	-48.044	-0.080	0.039
-229.757	78.113	-0.060	0.064
-228.742	-56.950	0.193	-0.085
-227.727	12.257	0.119	-0.092
-226.713	800.000	-0.036	0.110
-225.698	-2.237	-0.067	0.047
-224.684	468.120	-0.074	-0.166
-223.669	-97.932	0.181	-0.047
-222.655	-107.558	-0.341	-0.075
-221.640	102.869	-0.222	-0.261
-220.625	-200.000	-0.010	0.118
-219.611	-114.549	-0.132	-0.025
-218.596	-125.842	-0.412	-0.062
-217.582	384.155	-0.074	-0.153
-216.567	-200.000	0.028	-0.260
-215.552	800.000	-0.065	0.246
-214.538	-62.556	0.202	-0.084
-213.523	-49.959	-0.050	0.024
-212.509	-147.816	0.201	-0.017
-211.494	114.567	0.168	0.206
-210.479	-114.147	-0.248	0.048
-209.465	11.315	0.116	0.089
-208.450	88.033	-0.167	0.185
-207.436	800.000	-0.082	0.341
-206.421	-200.000	-0.002	-0.254
-205.406	800.000	0.054	0.227
-204.392	1.250	0.154	-0.111
-203.377	-83.339	0.039	-0.012
-202.363	263.736	-0.114	-0.199
-201.348	-167.822	0.251	0.010
-200.333	-93.730	-0.221	-0.061
-199.319	-13.866	0.071	-0.046
-198.304	74.657	0.193	0.203
-197.290	77.769	-0.176	-0.188
-196.275	-49.602	0.192	-0.091
-195.260	71.115	0.195	-0.203
-194.246	-165.706	0.181	-0.008
-193.231	20.800	-0.166	0.135
-192.217	132.439	-0.067	-0.087
-191.202	-200.000	-0.028	0.137
-190.187	-200.000	-0.070	0.358
-189.173	-105.910	0.214	0.048
-188.158	-61.017	0.278	-0.118
-187.144	800.000	0.092	-0.335
-186.129	-200.000	0.009	-0.374
-185.114	359.069	-0.242	-0.486
-184.100	-200.000	0.007	-0.250
-183.085	-144.282	0.178	-0.017
-182.071	-115.670	-0.277	-0.052
-181.056	209.073	0.103	0.162
-180.042	-121.298	0.197	0.033
-179.027	192.737	0.161	0.243
-178.012	-200.000	-0.074	0.375
-176.998	-66.976	-0.255	0.101
-175.983	-153.094	-0.095	0.007
-174.969	-60.571	-0.321	-0.137
-173.954	358.745	-0.095	0.191
-172.939	-200.000	0.038	-0.261
-171.925	-42.388	-0.158	0.081
-170.910	-164.195	-0.128	0.006
-169.896	119.927	0.190	-0.236
-168.881	-44.371	-0.289	0.145
-167.866	-200.000	0.053	-0.234
-166.852	800.000	-0.032	0.138
-165.837	427.028	0.112	0.241
-164.823	4.010	-0.181	0.133
-163.808	268.295	-0.156	-0.275
-162.793	13.450	-0.198	-0.154
-161.779	-7.557	-0.184	-0.125
-160.764	13.948	-0.322	-0.251
-159.750	64.433	-0.192	-0.194
-158.735	155.135	0.123	0.169
-157.720	-200.000	0.014	0.081
-156.706	800.000	-0.020	0.085
-155.691	-122.797	-0.233	0.038
-154.677	-200.000	0.001	-0.071
-153.662	-3.371	-0.129	-0.090
-152.647	-13.349	-0.269	-0.175
-151.633	-112.662	0.124	-0.025
-150.618	-45.476	-0.188	0.093
-149.604	48.683	-0.367	-0.345
-148.589	-200.000	-0.016	0.195
-147.574	-16.202	-0.097	0.062
-146.560	-200.000	0.041	0.296
-145.545	274.684	0.146	0.259
-144.531	-40.394	-0.108	0.056
-143.516	337.999	0.083	0.162
-142.502	-36.115	0.497	-0.269
-141.487	5.701	-0.166	-0.123
-140.472	46.118	-0.130	-0.121
-139.458	333.539	-0.046	0.090
-138.443	10.559	0.051	-0.039
-137.429	742.761	0.121	-0.326
-136.414	343.338	-0.081	0.158
-135.399	-200.000	-0.005	-0.158
-134.385	162.067	-0.033	0.046
-133.370	0.006	0.044	0.031
-132.356	-95.460	-0.118	-0.032
-131.341	-200.000	0.017	0.235
-130.326	31.334	-0.216	0.186
-129.312	-7.762	0.262	-0.177
-128.297	-200.000	0.053	-0.280
-127.283	-200.000	-0.000	0.075
-126.268	800.000	-0.061	0.187
-125.253	-193.808	-0.300	0.003
-124.239	-13.500	0.260	0.169
-123.224	144.280	-0.156	-0.209
-122.210	-139.199	0.404	-0.044
-121.195	48.378	-0.186	0.175
-120.180	333.581	-0.036	-0.070
-119.166	-45.700	-0.177	-0.087
-118.151	-90.782	0.079	-0.023
-117.137	146.927	0.301	-0.405
-116.122	78.447	-0.017	-0.019
-115.107	-200.000	0.050	-0.293
-114.093	93.036	0.082	-0.093
-113.078	14.622	-0.255	-0.200
-112.064	-200.000	0.020	0.556
-111.049	-200.000	0.011	-0.081
-110.034	127.392	-0.224	-0.284
-109.020	332.500	-0.110	-0.213
-108.005	-45.381	0.204	-0.101
-106.991	-83.812	0.063	-0.020
-105.976	-85.325	-0.196	0.061
-104.962	-26.087	-0.126	0.074
-103.947	50.446	-0.120	0.113
-102.932	-200.000	-0.040	0.343
-101.918	125.277	-0.173	0.219
-100.903	800.000	-0.076	-0.324
-99.889	233.391	-0.011	0.019
-98.874	-139.292	-0.157	0.017
-97.859	-70.380	0.240	-0.091
-96.845	337.249	0.021	0.040
-95.830	13.248	-0.129	-0.100
-94.816	-5.644	0.521	-0.357
-93.801	-200.000	-0.027	0.342
-92.786	-200.000	0.002	0.053
-91.772	585.000	0.106	0.259
-90.757	-27.570	0.157	-0.091
-89.743	476.862	0.131	-0.297
-88.728	-46.855	-0.108	-0.053
-87.713	-128.647	0.480	0.068
-86.699	-72.872	0.005	-0.002
-85.684	152.408	0.129	0.176
-84.670	-150.743	0.351	0.027
-83.655	159.837	0.039	-0.054
-82.640	-200.000	0.020	0.286
-81.626	-34.323	0.192	0.105
-80.611	-23.522	-0.305	-0.183
-79.597	151.235	-0.205	-0.278
-78.582	145.693	-0.031	0.041
-77.567	-44.947	0.243	0.121
-76.553	-164.154	-0.225	0.010
-75.538	800.000	0.019	-0.065
-74.524	192.943	0.085	0.128
-73.509	-6.053	0.104	0.071
-72.494	800.000	0.020	0.063
-71.480	-125.271	0.476	-0.073
-70.465	-70.708	-0.418	-0.158
-69.451	45.307	-0.100	0.092
-68.436	2.272	-0.144	-0.104
-67.422	113.186	-0.112	0.136
-66.407	30.993	-0.073	0.063
-65.392	-144.546	-0.186	0.017
-64.378	-200.000	-0.001	0.197
-63.363	-200.000	-0.007	0.212
-62.349	23.867	0.183	0.151
-61.334	-150.986	-0.782	-0.059
-60.319	74.374	0.135	0.141
-59.305	-200.000	0.059	-0.689
-58.290	53.565	0.457	0.438
-57.276	-200.000	0.314	1.693
-56.261	-200.000	74.278	566.944
-55.246	555.723	1323.792	3181.242
-54.232	137.268	2577.246	3363.765
-53.217	113.096	2373.863	2872.420
-52.203	53.215	1984.932	1897.358
-51.188	46.838	1772.445	1643.609
-50.173	43.830	1725.058	1576.242
-49.159	58.090	1757.737	1718.002
-48.144	64.639	1776.172	1787.110
-47.130	46.759	1740.098	1612.743
-46.115	43.406	1726.289	1573.810
-45.100	43.196	1722.012	1568.217
-44.086	43.141	1718.999	1564.986
-43.071	43.147	1716.764	1562.933
-42.057	43.079	1714.446	1560.232
-41.042	43.113	1712.148	1558.341
-40.027	43.107	1710.116	1556.382
-39.013	43.184	1708.311	1555.275
-37.998	43.232	1706.072	1553.542
-36.984	43.251	1704.930	1552.586
-35.969	43.316	1703.443	1551.675
-34.954	43.457	1701.726	1551.130
-33.940	43.433	1699.524	1548.878
-32.925	43.331	1697.710	1546.380
-31.911	43.323	1696.164	1544.852
-30.896	43.290	1694.845	1543.335
-29.881	43.283	1692.611	1541.184
-28.867	43.228	1691.080	1539.313
-27.852	43.258	1689.583	1538.118
-26.838	43.324	1687.681	1536.826
-25.823	43.289	1686.534	1535.455
-24.809	43.418	1684.990	1534.972
-23.794	43.306	1683.506	1532.707
-22.779	43.284	1682.100	1531.197
-21.765	43.388	1679.874	1529.902
-20.750	43.244	1678.669	1527.652
-19.736	43.311	1677.021	1526.598
-18.721	43.399	1675.180	1525.522
-17.706	43.407	1673.300	1523.811
-16.692	43.302	1672.115	1521.885
-15.677	43.353	1671.099	1521.279
-14.663	43.322	1669.815	1519.815
-13.648	43.307	1668.136	1518.117
-12.633	43.400	1666.521	1517.289
-11.619	43.273	1665.313	1515.169
-10.604	43.333	1663.257	1513.692
-9.590	43.319	1662.548	1512.880
-8.575	43.337	1660.944	1511.497
-7.560	43.337	1659.676	1510.279
-6.546	43.324	1658.282	1508.860
-5.531	43.313	1657.157	1507.689
-4.517	43.316	1655.724	1506.347
-3.502	43.240	1654.635	1504.731
-2.487	43.322	1653.313	1504.084
-1.473	43.309	1641.377	1493.066
-0.458	40.097	1619.571	1449.678
0.556	33.027	1613.398	1396.499
1.571	28.266	1633.117	1377.717
2.586	26.211	1645.802	1372.693
3.600	22.941	1592.378	1303.930
4.615	12.977	1474.177	1138.601
5.629	2.913	1399.407	1014.545
6.644	0.530	1388.652	991.026
7.659	0.336	1387.009	988.490
8.673	0.190	1386.557	987.127
9.688	0.165	1384.730	985.575
10.702	0.031	1381.570	982.361
11.717	3.835	1387.881	1011.691
12.731	12.809	1402.356	1081.262
13.746	17.797	1408.817	1118.949
14.761	17.423	1406.821	1114.812
15.775	16.423	1403.887	1105.845
16.790	15.379	1401.222	1096.827
17.804	14.556	1398.860	1089.509
18.819	14.220	1397.118	1085.867
19.834	13.993	1395.466	1083.005
20.848	13.510	1394.892	1079.316
21.863	13.391	1393.234	1077.164
22.877	13.242	1392.318	1075.394
23.892	13.131	1391.351	1073.827
24.907	13.188	1389.877	1072.961
25.921	13.205	1389.355	1072.577
26.936	13.200	1388.441	1071.745
27.950	13.226	1387.435	1071.044
28.965	13.241	1386.779	1070.536
29.980	13.316	1385.636	1070.048
30.994	13.380	1384.985	1069.863
32.009	13.485	1383.515	1069.310
33.023	13.402	1382.851	1068.170
34.038	13.318	1381.613	1066.572
35.053	13.195	1381.003	1065.218
36.067	13.349	1379.288	1064.787
37.082	13.270	1378.414	1063.516
38.096	13.466	1376.964	1063.560
39.111	13.383	1376.340	1062.453
40.126	13.356	1375.567	1061.586
41.140	13.201	1374.782	1059.891
42.155	13.202	1374.277	1059.414
43.169	13.127	1374.233	1058.808
44.184	13.208	1373.614	1058.758
45.199	13.203	1373.260	1058.359
46.213	13.158	1372.737	1057.575
47.228	13.316	1371.117	1057.242
48.242	13.343	1370.169	1056.589
49.257	13.274	1368.943	1055.109
50.271	13.295	1367.565	1054.086
51.286	13.336	1365.959	1053.020
52.301	13.321	1364.515	1051.715
53.315	13.221	1364.007	1050.599
54.330	13.168	1362.826	1049.257
55.344	13.203	1361.514	1048.376
56.359	13.298	1360.086	1047.786
57.374	13.232	1359.123	1046.534
58.388	13.165	1358.757	1045.736
59.403	13.136	1358.070	1044.932
60.417	13.161	1357.068	1044.226
61.432	13.053	1356.620	1043.105
62.447	12.965	1355.480	1041.582
63.461	13.079	1354.018	1041.085
64.476	13.038	1353.178	1040.087
65.490	13.173	1351.926	1039.880
66.505	13.075	1350.401	1038.000
67.520	13.182	1349.150	1037.621
68.534	13.140	1347.903	1036.305
69.549	13.130	1347.046	1035.490
70.563	13.089	1346.160	1034.461
71.578	13.064	1344.712	1033.103
72.593	13.047	1343.751	1032.166
73.607	13.066	1343.082	1031.680
74.622	13.034	1342.394	1030.861
75.636	13.073	1340.966	1029.919
76.651	13.028	1340.530	1029.208
77.666	12.995	1340.281	1028.722
78.680	13.099	1339.232	1028.475
79.695	13.121	1338.322	1027.821
80.709	13.066	1338.014	1027.149
81.724	13.089	1336.970	1026.404
82.739	13.242	1335.792	1026.356
83.753	13.303	1334.698	1025.801
84.768	13.238	1333.802	1024.619
85.782	13.328	1332.688	1024.233
86.797	13.319	1330.862	1022.684
87.812	13.190	1329.730	1020.922
88.826	13.152	1328.743	1019.844
89.841	13.244	1327.636	1019.467
90.855	13.211	1326.625	1018.398
91.870	13.293	1326.054	1018.374
92.884	13.331	1324.787	1017.544
93.899	13.374	1324.020	1017.130
94.914	13.335	1323.239	1016.202
95.928	13.402	1322.387	1015.867
96.943	13.307	1321.715	1014.678
97.957	13.306	1320.614	1013.741
98.972	13.369	1319.231	1012.974
99.987	13.370	1318.624	1012.422
101.001	13.298	1317.517	1011.042
102.016	13.278	1316.337	1009.930
103.030	13.385	1315.738	1010.034
104.045	13.288	1314.693	1008.550
105.060	13.290	1313.896	1007.860
106.074	13.269	1311.923	1006.130
107.089	13.251	1310.634	1004.941
108.103	13.165	1309.937	1003.798
109.118	13.138	1308.510	1002.449
110.133	13.154	1307.055	1001.347
111.147	13.181	1305.639	1000.336
112.162	13.140	1304.356	999.015
113.176	13.124	1303.835	998.428
114.191	13.313	1302.421	998.403
115.206	13.339	1301.096	997.451
116.220	13.292	1299.720	996.026
117.235	13.243	1298.720	994.877
118.249	13.126	1298.128	993.631
119.264	13.204	1296.739	992.952
120.279	13.202	1295.697	992.050
121.293	13.169	1294.573	990.904
122.308	13.157	1293.511	989.931
123.322	13.198	1292.565	989.369
124.337	13.218	1291.123	988.296
125.352	13.229	1290.313	987.655
126.366	13.119	1289.119	985.999
127.381	13.176	1287.822	985.256
128.395	13.202	1286.501	984.314
129.410	13.224	1285.608	983.672
130.424	13.247	1284.778	983.089
131.439	13.269	1283.900	982.459
132.454	13.312	1283.162	982.067
133.468	13.239	1282.580	981.102
134.483	13.311	1281.685	980.754
135.497	13.344	1280.687	980.102
136.512	13.366	1279.285	979.073
137.527	13.359	1278.160	978.081
138.541	13.286	1276.579	976.353
139.556	13.342	1275.088	975.456
140.570	13.399	1274.239	975.057
141.585	13.429	1272.934	974.148
142.600	13.438	1271.624	973.117
143.614	13.436	1271.086	972.604
144.629	13.421	1269.922	971.540
145.643	13.435	1268.916	970.767
146.658	13.487	1267.114	969.609
147.673	13.495	1265.804	968.567
148.687	13.385	1264.720	967.007
149.702	13.387	1263.242	965.805
150.716	13.357	1262.086	964.657
151.731	13.422	1260.710	963.899
152.746	13.291	1259.557	962.170
153.760	13.485	1257.953	961.986
154.775	13.444	1256.967	960.914
155.789	13.420	1256.257	960.145
156.804	13.399	1255.487	959.352
157.819	13.294	1254.292	957.742
158.833	13.461	1253.060	957.684
159.848	13.538	1252.367	957.517
160.862	13.515	1251.254	956.448
161.877	13.440	1250.209	955.131
162.892	13.441	1248.884	954.039
163.906	13.420	1248.009	953.162
164.921	13.416	1247.082	952.349
165.935	13.538	1245.770	951.965
166.950	13.530	1245.385	951.540
167.964	13.497	1244.767	950.794
168.979	13.440	1244.230	949.971
169.994	13.590	1242.685	949.567
171.008	13.562	1242.044	948.837
172.023	13.598	1241.114	948.249
173.037	13.624	1240.259	947.656
174.052	13.647	1239.670	947.254
175.067	13.592	1238.504	945.966
176.081	13.513	1237.615	944.755
177.096	13.510	1236.838	944.059
178.110	13.581	1235.702	943.514
179.125	13.709	1233.875	942.762
180.140	13.630	1232.837	941.435
181.154	13.592	1231.799	940.347
182.169	13.658	1230.270	939.472
183.183	13.578	1229.483	938.330
184.198	13.674	1228.481	938.030
185.213	13.700	1227.195	937.108
186.227	13.691	1225.866	935.960
187.242	13.739	1224.888	935.400
188.256	13.838	1223.612	934.904
189.271	13.833	1223.040	934.357
190.286	13.785	1222.112	933.291
191.300	13.658	1221.050	931.684
192.315	13.612	1220.376	930.829
193.329	13.707	1219.560	930.659
194.344	13.681	1218.686	929.762
195.359	13.560	1218.424	928.805
196.373	13.724	1218.035	929.345
197.388	13.755	1217.733	929.207
198.402	13.887	1216.876	929.208
199.417	13.818	1216.120	928.160
200.432	13.975	1215.064	928.150
201.446	13.931	1214.571	927.444
202.461	13.963	1213.470	926.703
203.475	14.090	1212.199	926.355
204.490	14.013	1211.402	925.238
205.504	13.995	1209.856	923.877
206.519	13.999	1208.369	922.682
207.534	14.061	1207.446	922.237
208.548	13.973	1206.806	921.179
209.563	13.963	1205.564	920.092
210.577	14.061	1204.831	919.996
211.592	13.994	1204.255	919.101
212.607	14.065	1203.388	918.752
213.621	14.137	1202.314	918.249
214.636	14.139	1201.307	917.408
215.650	14.137	1200.625	916.796
216.665	14.185	1199.306	915.974
217.680	14.180	1198.467	915.222
218.694	14.145	1197.600	914.288
219.709	14.252	1196.811	914.193
220.723	14.258	1196.509	913.915
221.738	14.152	1195.881	912.775
222.753	14.280	1194.386	912.253
223.767	14.250	1193.957	911.677
224.782	14.143	1193.666	910.792
225.796	14.325	1192.775	911.027
226.811	14.322	1191.838	910.211
227.826	14.229	1191.481	909.353
228.840	14.245	1190.820	908.854
229.855	14.265	1189.886	908.169
230.869	14.264	1189.191	907.551
231.884	14.244	1188.367	906.738
232.899	14.267	1187.403	906.043
233.913	14.234	1186.828	905.344
234.928	14.326	1185.788	904.971
235.942	14.328	1184.953	904.266
236.957	14.255	1184.178	903.196
237.972	14.276	1183.758	902.912
238.986	14.302	1183.030	902.421
240.001	14.387	1181.836	901.885
241.015	14.321	1181.369	901.096
242.030	14.425	1180.324	900.782
243.045	14.435	1179.452	900.087
244.059	14.395	1179.053	899.487
245.074	14.541	1177.806	899.242
246.088	14.451	1177.043	898.097
247.103	14.524	1176.668	898.124
248.117	14.594	1175.626	897.625
249.132	14.557	1175.144	896.981
250.147	14.552	1174.616	896.473
251.161	14.743	1173.272	896.392
252.176	14.681	1173.141	895.882
253.190	14.754	1172.325	895.566
254.205	14.686	1171.549	894.532
255.220	14.822	1171.002	894.764
256.234	14.879	1169.925	894.169
257.249	14.850	1169.413	893.541
258.263	14.818	1169.127	893.074
259.278	14.783	1168.473	892.306
260.293	14.849	1167.753	892.028
261.307	14.879	1167.200	891.690
262.322	14.864	1166.700	891.150
263.336	14.894	1165.677	890.447
264.351	14.990	1165.181	890.499
265.366	14.987	1164.320	889.749
266.380	14.959	1163.556	888.938
267.395	14.987	1162.554	888.239
268.409	14.947	1162.091	887.596
269.424	14.960	1161.320	886.997
270.439	14.878	1160.955	886.206
271.453	14.934	1160.361	885.970
272.468	14.879	1159.206	884.720
273.482	15.064	1157.968	884.672
274.497	14.915	1157.907	883.760
275.512	15.010	1157.270	883.701
276.526	14.997	1156.448	882.924
277.541	14.970	1156.182	882.503
278.555	15.083	1154.859	882.008
279.570	15.068	1154.569	881.630
280.585	15.128	1153.607	881.132
281.599	15.190	1152.501	880.535
282.614	15.103	1151.521	879.252
283.628	15.092	1150.532	878.360
284.643	15.178	1149.287	877.787
285.657	15.157	1148.801	877.223
286.672	15.186	1147.771	876.515
287.687	15.266	1146.608	875.968
288.701	15.179	1146.292	875.190
289.716	15.251	1145.163	874.627
290.730	15.238	1144.372	873.878
291.745	15.251	1143.998	873.586
292.760	15.168	1143.443	872.653
293.774	15.319	1142.703	872.794
294.789	15.289	1142.308	872.260
295.803	15.239	1141.680	871.442
296.818	15.488	1140.552	871.801
297.833	15.342	1139.956	870.507
298.847	15.334	1139.588	870.107
299.862	15.395	1138.265	869.336
300.876	15.423	1137.889	869.119
301.891	15.317	1137.307	868.046
302.906	15.363	1136.523	867.612
303.920	15.509	1135.447	867.468
304.935	15.613	1134.914	867.520
305.949	15.576	1134.283	866.769
306.964	15.638	1133.635	866.516
307.979	15.608	1132.977	865.784
308.993	15.655	1131.822	865.067
310.008	15.573	1131.554	864.361
311.022	15.693	1130.795	864.322
312.037	15.702	1129.675	863.440
313.052	15.581	1128.785	862.061
314.066	15.622	1127.553	861.253
315.081	15.544	1126.704	860.128
316.095	15.528	1126.096	859.506
317.110	15.492	1125.760	858.989
318.125	15.660	1124.468	858.787
319.139	15.602	1123.899	857.982
320.154	15.528	1123.574	857.276
321.168	15.670	1122.364	857.003
322.183	15.742	1122.240	857.198
323.197	15.618	1121.462	855.899
324.212	15.633	1120.850	855.433
325.227	15.559	1120.522	854.728
326.241	15.663	1119.805	854.634
327.256	15.676	1118.249	853.439
328.270	15.757	1117.867	853.484
329.285	15.663	1117.231	852.442
330.300	15.653	1115.921	851.318
331.314	15.757	1114.846	850.949
332.329	15.695	1114.080	849.977
333.343	15.815	1112.962	849.651
334.358	15.817	1112.393	849.155
335.373	15.888	1111.494	848.753
336.387	15.794	1111.181	847.961
337.402	15.998	1109.939	847.965
338.416	15.968	1109.517	847.417
339.431	15.927	1108.874	846.644
340.446	15.878	1108.503	846.043
341.460	16.014	1107.020	845.516
342.475	16.100	1106.392	845.395
343.489	16.081	1105.575	844.599
344.504	15.990	1104.841	843.507
345.519	16.128	1104.157	843.603
346.533	16.125	1103.093	842.698
347.548	16.304	1101.873	842.587
348.562	16.213	1101.379	841.681
349.577	16.017	1100.982	840.323
350.592	16.115	1099.971	839.968
351.606	16.043	1099.364	839.073
352.621	16.058	1098.577	838.472
353.635	16.069	1097.994	838.004
354.650	16.051	1097.214	837.246
355.665	16.069	1096.620	836.811
356.679	16.223	1095.949	836.987
357.694	16.148	1095.151	835.934
358.708	16.268	1094.604	836.035
359.723	16.226	1093.910	835.225
360.738	16.342	1093.013	835.038
361.752	16.281	1092.819	834.514
362.767	16.392	1091.926	834.308
363.781	16.316	1091.776	833.745
364.796	16.292	1091.403	833.266
365.810	16.371	1090.387	832.807
366.825	16.404	1089.743	832.401
367.840	16.439	1089.215	832.100
368.854	16.433	1088.790	831.672
369.869	16.410	1088.119	830.971
370.883	16.480	1087.081	830.450
371.898	16.449	1086.266	829.603
372.913	16.488	1085.915	829.451
373.927	16.540	1085.205	829.090
374.942	16.574	1084.861	828.919
375.956	16.468	1084.533	828.077
376.971	16.491	1084.000	827.710
377.986	16.648	1082.642	827.365
379.000	16.691	1082.429	827.342
380.015	16.663	1081.763	826.623
381.029	16.707	1081.014	826.191
382.044	16.708	1080.338	825.606
383.059	16.699	1079.655	824.969
384.073	16.718	1079.347	824.753
385.088	16.784	1077.775	823.801
386.102	16.627	1077.117	822.458
387.117	16.859	1075.774	822.486
388.132	16.669	1075.330	821.153
389.146	16.715	1074.447	820.632
390.161	16.642	1073.656	819.599
391.175	16.721	1073.083	819.472
392.190	16.726	1072.222	818.765
393.205	16.789	1071.656	818.564
394.219	16.770	1071.146	818.010
395.234	16.817	1069.749	817.100
396.248	16.756	1068.629	815.878
397.263	16.745	1068.000	815.270
398.278	16.801	1067.106	814.788
399.292	16.753	1066.480	814.007
400.307	16.763	1066.008	813.622
401.321	16.834	1065.132	813.223
402.336	16.913	1064.221	812.833
403.350	16.811	1063.574	811.780
404.365	16.831	1063.181	811.505
405.380	16.923	1062.471	811.329
406.394	16.868	1061.802	810.481
407.409	17.010	1060.957	810.444
408.423	17.143	1059.986	810.265
409.438	17.000	1059.601	809.219
410.453	17.050	1058.550	808.583
411.467	17.054	1058.180	808.248
412.482	17.092	1057.565	807.886
413.496	17.070	1056.824	807.144
414.511	17.135	1056.126	806.850
415.526	17.279	1055.856	807.254
416.540	17.326	1055.427	807.079
417.555	17.377	1054.477	806.522
418.569	17.270	1054.044	805.613
419.584	17.195	1054.003	805.157
420.599	17.329	1053.149	805.064
421.613	78.034	1281.185	1315.701
422.628	71.825	1314.413	1315.811
