DTS Sentinel unit serial number:	SN413079Multiplexer serial number:	ORYXHardware model number:	OX4-SRSoftware version number:	ORYX F/W v4.00 Oryx Data Collector v3.7.2.0data status	okinstallation	princeton_trtdifferential loss correction	single-endedforward channel	channel 2reverse channel	N/Adate	2019/09/14time	06:19:35forward acquisition time	60.00reverse acquisition time	0.00gamma	496.2192k internal	0.2336k external	0.2336temperature offset calibration	1.0132default loss term (dB/km)	0.3790temperature slope calibration	1.0000multiplexer offset coefficient	1.0000multiplexer slope coefficient	1.0000fibre end	0.00T internal ref (°C)	26.62T ext. ref 1 (°C)	3.40T ext. ref 2 (°C)	20.60length (m)	temperature (°C)	Stokes	anti-Stokes-747.200	-173.570	0.403	-0.012
-746.185	-29.486	0.208	-0.119
-745.171	-6.816	0.056	-0.038
-744.156	-11.502	-0.071	0.047
-743.142	800.000	-0.071	0.215
-742.127	-200.000	-0.035	-0.169
-741.112	-200.000	-0.008	-0.238
-740.098	782.155	-0.133	0.365
-739.083	-62.874	0.254	0.106
-738.069	-200.000	0.008	0.127
-737.054	-73.788	-0.142	0.052
-736.039	-49.912	-0.229	-0.109
-735.025	-200.000	-0.047	0.411
-734.010	-79.393	-0.043	-0.015
-732.996	41.487	-0.055	0.050
-731.981	-23.623	-0.351	0.212
-730.966	-30.668	-0.322	-0.183
-729.952	-200.000	0.018	-0.389
-728.937	48.348	-0.245	0.230
-727.923	-200.000	0.021	0.183
-726.908	-133.249	-0.199	-0.025
-725.894	800.000	-0.036	0.138
-724.879	395.224	-0.061	-0.127
-723.864	235.118	0.140	0.233
-722.850	800.000	-0.114	0.317
-721.835	-200.000	0.009	-0.070
-720.821	176.939	0.157	0.230
-719.806	800.000	-0.062	0.193
-718.791	172.109	0.037	-0.053
-717.777	-200.000	-0.024	-0.394
-716.762	-0.506	0.114	0.081
-715.748	-200.000	-0.001	-0.052
-714.733	34.432	-0.120	0.105
-713.718	-48.158	0.132	0.064
-712.704	61.425	-0.056	0.056
-711.689	15.586	0.066	0.052
-710.675	800.000	0.051	-0.174
-709.660	-50.065	-0.119	-0.057
-708.645	744.981	0.056	0.151
-707.631	1.431	-0.306	0.221
-706.616	-83.493	0.268	0.086
-705.602	227.818	-0.093	-0.151
-704.587	-7.418	-0.114	-0.077
-703.572	-52.400	-0.121	-0.056
-702.558	-60.937	-0.314	-0.133
-701.543	-109.373	0.078	-0.017
-700.529	-142.542	-0.090	0.009
-699.514	-64.018	-0.060	0.024
-698.499	7.835	0.175	0.131
-697.485	126.977	0.264	-0.335
-696.470	-200.000	-0.041	0.230
-695.456	50.860	-0.021	0.020
-694.441	78.150	-0.430	-0.459
-693.426	-200.000	-0.008	-0.139
-692.412	800.000	-0.146	0.471
-691.397	-94.866	-0.247	0.067
-690.383	-28.254	0.110	-0.064
-689.368	800.000	-0.095	0.315
-688.354	-9.701	0.295	0.197
-687.339	138.703	0.113	0.149
-686.324	-70.971	-0.171	-0.065
-685.310	-119.213	-0.202	0.035
-684.295	73.101	0.343	-0.359
-683.281	-18.193	0.068	0.042
-682.266	63.767	-0.093	-0.094
-681.251	-70.687	0.062	-0.023
-680.237	800.000	-0.020	0.084
-679.222	169.180	0.235	-0.336
-678.208	38.885	-0.248	-0.222
-677.193	170.777	0.039	-0.056
-676.178	-39.490	0.377	0.198
-675.164	-42.822	0.150	0.076
-674.149	-36.083	-0.311	-0.168
-673.135	12.419	-0.130	0.100
-672.120	-200.000	-0.005	-0.137
-671.105	-19.996	-0.138	0.085
-670.091	6.206	-0.135	-0.100
-669.076	448.712	0.038	-0.084
-668.062	26.061	0.113	-0.094
-667.047	38.372	0.117	0.105
-666.032	-76.341	-0.258	0.091
-665.018	800.000	0.144	-0.526
-664.003	11.836	0.383	-0.295
-662.989	-200.000	0.024	-0.171
-661.974	-111.079	-0.185	0.038
-660.959	3.329	0.332	-0.242
-659.945	800.000	0.021	0.061
-658.930	-200.000	0.047	-0.554
-657.916	-52.770	0.288	-0.133
-656.901	-200.000	0.003	-0.206
-655.886	-200.000	0.005	-0.215
-654.872	-109.047	0.148	0.032
-653.857	800.000	-0.067	-0.291
-652.843	-200.000	0.050	-0.240
-651.828	-134.674	-0.230	-0.028
-650.814	-68.826	0.457	0.177
-649.799	-60.978	-0.077	-0.032
-648.784	-6.928	-0.189	-0.128
-647.770	98.239	-0.170	0.195
-646.755	-200.000	0.005	0.208
-645.741	-41.053	-0.218	-0.112
-644.726	800.000	0.068	-0.235
-643.711	67.434	0.150	-0.153
-642.697	800.000	0.120	0.419
-641.682	-200.000	-0.021	0.172
-640.668	-13.887	-0.367	-0.237
-639.653	312.817	-0.170	-0.320
-638.638	48.180	-0.253	0.237
-637.624	158.284	-0.203	0.282
-636.609	403.113	0.185	-0.390
-635.595	-86.390	0.343	-0.105
-634.580	709.955	-0.124	0.327
-633.565	-41.898	-0.101	-0.052
-632.551	-200.000	0.062	-0.285
-631.536	208.958	0.169	0.265
-630.522	98.311	-0.068	-0.078
-629.507	-200.000	0.031	-0.387
-628.492	-200.000	-0.049	-0.247
-627.478	-200.000	0.017	0.333
-626.463	-12.477	0.084	-0.055
-625.449	-46.178	-0.138	-0.068
-624.434	53.236	-0.221	0.211
-623.419	465.479	-0.059	-0.133
-622.405	198.915	0.159	-0.244
-621.390	-96.950	0.179	0.047
-620.376	87.865	0.174	-0.193
-619.361	448.357	-0.135	0.297
-618.346	-84.021	-0.550	-0.175
-617.332	-34.159	0.179	-0.098
-616.317	800.000	0.065	0.193
-615.303	220.520	0.185	0.297
-614.288	22.780	0.139	0.113
-613.273	800.000	0.021	-0.091
-612.259	141.509	0.094	-0.124
-611.244	-3.012	0.228	0.159
-610.230	-121.837	-0.218	0.036
-609.215	-200.000	-0.000	-0.362
-608.201	31.355	0.108	-0.093
-607.186	223.969	0.077	0.124
-606.171	541.212	0.095	-0.226
-605.157	-33.295	0.160	-0.089
-604.142	-168.000	0.146	-0.006
-603.128	-99.114	-0.212	0.054
-602.113	117.390	0.219	-0.269
-601.098	14.515	0.310	0.242
-600.084	-200.000	-0.007	0.368
-599.069	218.848	-0.084	-0.133
-598.055	-71.937	-0.010	-0.004
-597.040	322.774	-0.160	-0.304
-596.025	139.731	0.157	0.206
-595.011	-100.624	0.211	0.052
-593.996	-31.408	-0.222	-0.124
-592.982	-28.136	0.256	0.148
-591.967	-4.574	0.186	0.128
-590.952	-108.138	-0.480	-0.104
-589.938	348.793	0.124	0.244
-588.923	800.000	-0.065	0.275
-587.909	-200.000	0.001	-0.171
-586.894	-200.000	0.007	0.193
-585.879	-80.276	-0.094	0.031
-584.865	-97.734	0.250	-0.065
-583.850	218.374	0.093	0.148
-582.836	-4.415	-0.273	0.188
-581.821	213.937	-0.176	0.278
-580.806	-200.000	0.025	0.173
-579.792	-21.877	0.221	-0.134
-578.777	479.413	0.053	0.120
-577.763	-200.000	0.065	0.285
-576.748	-147.295	0.506	0.043
-575.733	800.000	-0.160	-0.490
-574.719	49.251	0.288	-0.270
-573.704	3.495	0.157	0.114
-572.690	260.400	-0.190	-0.328
-571.675	182.749	0.150	-0.221
-570.661	800.000	-0.085	-0.262
-569.646	800.000	0.051	-0.180
-568.631	-73.741	-0.211	0.077
-567.617	343.142	0.079	-0.154
-566.602	-135.783	-0.409	0.048
-565.588	-133.907	0.191	-0.024
-564.573	132.555	-0.268	0.344
-563.558	-93.182	0.432	0.120
-562.544	800.000	0.054	0.209
-561.529	-99.603	-0.346	0.087
-560.515	149.449	0.078	-0.105
-559.500	-200.000	0.027	0.177
-558.485	-196.500	-0.616	-0.004
-557.471	364.734	-0.064	-0.129
-556.456	50.878	-0.072	-0.068
-555.442	-24.451	-0.120	0.071
-554.427	-139.107	0.304	-0.033
-553.412	-200.000	0.009	0.295
-552.398	800.000	-0.024	0.076
-551.383	800.000	-0.072	-0.280
-550.369	-72.430	0.375	0.138
-549.354	149.044	-0.169	-0.228
-548.339	-171.040	-0.491	0.017
-547.325	800.000	0.045	-0.163
-546.310	-85.113	-0.147	-0.046
-545.296	11.405	-0.146	-0.111
-544.281	186.634	-0.010	0.015
-543.266	-41.183	-0.213	0.109
-542.252	144.080	0.108	-0.143
-541.237	-200.000	-0.118	-0.740
-540.223	-84.245	0.296	0.093
-539.208	-72.628	-0.133	-0.049
-538.193	56.586	0.129	0.125
-537.179	800.000	-0.016	-0.061
-536.164	149.684	0.010	-0.013
-535.150	-200.000	0.031	-0.210
-534.135	-98.421	-0.358	-0.091
-533.121	-71.822	-0.172	-0.064
-532.106	144.296	0.127	-0.169
-531.091	-148.463	0.199	0.016
-530.077	185.195	0.143	-0.211
-529.062	363.836	0.019	0.039
-528.048	278.021	-0.057	0.101
-527.033	295.633	0.221	0.403
-526.018	-0.455	0.154	0.109
-525.004	-79.677	-0.038	0.013
-523.989	30.669	0.286	-0.244
-522.975	-34.758	-0.091	0.050
-521.960	-29.920	-0.059	-0.033
-520.945	-200.000	-0.022	0.322
-519.931	434.551	-0.076	0.165
-518.916	-152.032	-0.126	0.009
-517.902	800.000	0.065	-0.187
-516.887	22.745	0.149	0.121
-515.872	-200.000	0.095	0.594
-514.858	800.000	-0.054	0.157
-513.843	193.569	-0.024	-0.037
-512.829	-137.796	0.368	-0.041
-511.814	-200.000	0.059	-0.398
-510.799	-110.198	-0.244	-0.051
-509.785	-37.596	0.152	0.080
-508.770	-156.633	0.170	-0.010
-507.756	-33.568	0.099	0.054
-506.741	-200.000	0.000	0.006
-505.726	-110.662	-0.221	-0.046
-504.712	183.867	-0.030	0.044
-503.697	714.412	0.049	-0.130
-502.683	120.621	-0.165	0.204
-501.668	262.609	-0.101	0.175
-500.653	-50.794	0.524	-0.245
-499.639	-43.964	-0.097	-0.048
-498.624	-130.741	-0.230	0.031
-497.610	61.818	-0.157	-0.156
-496.595	48.402	0.234	-0.218
-495.581	422.732	0.105	-0.225
-494.566	-160.867	0.092	0.005
-493.551	-200.000	-0.030	0.336
-492.537	-141.137	0.145	0.015
-491.522	-119.546	0.155	0.027
-490.508	-125.463	-0.189	-0.029
-489.493	-200.000	0.032	0.169
-488.478	-45.933	0.242	0.119
-487.464	-101.183	0.227	-0.055
-486.449	-87.263	0.432	-0.130
-485.435	-5.356	0.163	0.111
-484.420	37.647	-0.149	-0.132
-483.405	-200.000	-0.011	0.137
-482.391	-86.973	0.021	-0.006
-481.376	-63.704	0.145	-0.059
-480.362	-113.520	-0.690	0.134
-479.347	-78.457	-0.105	-0.036
-478.332	63.209	0.204	-0.203
-477.318	-200.000	0.008	-0.266
-476.303	-78.095	-0.101	0.035
-475.289	85.417	0.082	-0.089
-474.274	-7.509	-0.157	0.105
-473.259	25.919	0.074	0.062
-472.245	-200.000	0.001	0.135
-471.230	345.087	0.150	0.293
-470.216	43.321	0.156	0.142
-469.201	-104.452	0.304	-0.070
-468.186	-159.078	0.136	-0.008
-467.172	-200.000	0.047	0.211
-466.157	-143.148	0.095	-0.009
-465.143	-200.000	0.000	0.013
-464.128	276.500	-0.046	-0.081
-463.113	-200.000	0.063	-0.326
-462.099	-79.518	-0.271	0.091
-461.084	-200.000	0.045	0.224
-460.070	-200.000	0.013	-0.149
-459.055	-129.173	-0.315	0.044
-458.040	-62.350	-0.047	0.019
-457.026	-62.490	-0.087	0.036
-456.011	-153.216	-0.050	-0.003
-454.997	-138.124	0.194	-0.021
-453.982	800.000	-0.136	0.551
-452.968	-200.000	0.007	0.205
-451.953	96.479	0.303	0.345
-450.938	-1.750	0.089	0.062
-449.924	286.378	0.124	0.222
-448.909	164.430	-0.272	0.380
-447.895	-73.006	0.188	0.069
-446.880	23.150	0.143	0.116
-445.865	-15.408	-0.181	0.115
-444.851	147.398	-0.131	0.174
-443.836	-41.352	-0.074	0.038
-442.822	-137.231	-0.120	-0.013
-441.807	206.891	0.149	-0.231
-440.792	-49.043	-0.113	0.054
-439.778	581.917	0.102	0.248
-438.763	-200.000	-0.027	0.213
-437.749	-200.000	0.014	-0.070
-436.734	-200.000	0.009	-0.269
-435.719	800.000	-0.037	-0.113
-434.705	-140.188	0.459	-0.048
-433.690	374.575	0.059	-0.120
-432.676	-200.000	0.012	-0.323
-431.661	205.411	0.124	-0.191
-430.646	212.508	-0.116	-0.182
-429.632	9.318	-0.154	0.115
-428.617	-200.000	-0.004	-0.054
-427.603	-87.914	0.078	0.023
-426.588	93.152	-0.126	0.141
-425.573	12.881	-0.055	0.042
-424.559	-87.016	-0.360	0.109
-423.544	-200.000	-0.001	0.035
-422.530	-0.403	-0.338	0.238
-421.515	699.011	0.168	0.439
-420.500	-61.881	0.138	-0.057
-419.486	-200.000	0.072	0.376
-418.471	125.315	0.107	0.134
-417.457	800.000	0.046	-0.174
-416.442	46.036	0.133	-0.122
-415.428	1.278	0.253	0.180
-414.413	-170.646	-0.220	0.008
-413.398	523.084	-0.027	0.062
-412.384	183.362	0.146	-0.214
-411.369	281.109	-0.042	-0.074
-410.355	-42.421	-0.040	-0.020
-409.340	133.299	0.282	-0.361
-408.325	-13.292	-0.097	-0.063
-407.311	91.883	0.026	0.029
-406.296	56.049	0.116	-0.112
-405.282	239.773	0.111	-0.184
-404.267	119.372	-0.145	0.178
-403.252	-1.350	0.193	-0.135
-402.238	-51.445	0.282	0.131
-401.223	800.000	0.065	-0.217
-400.209	-200.000	0.035	-0.316
-399.194	57.807	-0.281	0.272
-398.179	494.867	0.084	0.192
-397.165	-39.206	-0.208	0.108
-396.150	271.149	0.048	-0.084
-395.136	-71.857	-0.303	-0.112
-394.121	-19.241	0.199	-0.122
-393.106	-200.000	-0.004	-0.259
-392.092	-144.399	-0.334	-0.031
-391.077	-140.828	0.440	-0.045
-390.063	-200.000	-0.087	0.406
-389.048	-65.312	0.185	-0.074
-388.033	4.701	-0.205	0.149
-387.019	800.000	0.117	0.416
-386.004	156.534	-0.142	0.194
-384.990	18.368	0.042	0.033
-383.975	575.645	0.076	-0.185
-382.960	-200.000	0.007	-0.068
-381.946	-42.840	0.351	-0.176
-380.931	-61.682	-0.133	0.055
-379.917	-146.793	-0.331	0.028
-378.902	-102.502	0.384	0.091
-377.888	0.783	-0.146	-0.103
-376.873	-200.000	-0.051	0.365
-375.858	61.840	-0.201	-0.198
-374.844	800.000	0.098	-0.273
-373.829	-85.984	0.448	-0.137
-372.815	-8.721	-0.223	-0.148
-371.800	4.466	0.041	-0.030
-370.785	29.447	-0.072	0.061
-369.771	-162.376	-0.244	-0.012
-368.756	-71.969	-0.404	-0.149
-367.742	141.706	-0.038	-0.049
-366.727	-200.000	-0.019	-0.129
-365.712	-200.000	0.021	-0.252
-364.698	-62.930	-0.055	0.023
-363.683	398.118	0.121	-0.251
-362.669	-200.000	-0.003	0.328
-361.654	55.336	-0.196	-0.188
-360.639	31.332	-0.141	0.120
-359.625	-47.924	0.320	-0.153
-358.610	-9.506	0.136	0.090
-357.596	-200.000	0.030	0.195
-356.581	-83.644	-0.164	-0.052
-355.566	-121.428	-0.193	0.032
-354.552	-105.091	-0.341	0.077
-353.537	25.500	0.243	-0.200
-352.523	91.326	-0.188	0.208
-351.508	1.969	0.078	-0.056
-350.493	-29.848	-0.315	-0.177
-349.479	-75.653	0.263	0.092
-348.464	13.346	0.055	-0.042
-347.450	-63.465	-0.074	-0.030
-346.435	-200.000	0.036	-0.404
-345.420	800.000	-0.026	0.109
-344.406	-191.151	0.124	0.001
-343.391	-200.000	-0.240	-0.001
-342.377	-200.000	-0.006	-0.276
-341.362	-86.807	0.321	-0.097
-340.348	-69.044	0.170	-0.065
-339.333	226.080	0.059	-0.094
-338.318	219.564	0.041	0.065
-337.304	21.101	-0.246	0.197
-336.289	-100.978	-0.154	-0.037
-335.275	-200.000	0.050	0.223
-334.260	-75.358	0.197	0.069
-333.245	38.451	0.053	-0.047
-332.231	60.162	0.094	0.092
-331.216	58.564	0.123	0.119
-330.202	800.000	0.046	-0.127
-329.187	-107.575	-0.200	0.043
-328.172	20.293	0.140	0.112
-327.158	237.302	-0.071	-0.117
-326.143	37.816	-0.154	-0.135
-325.129	47.888	-0.069	0.064
-324.114	800.000	0.053	-0.166
-323.099	436.320	0.067	-0.144
-322.085	227.639	-0.100	-0.161
-321.070	123.322	-0.108	0.133
-320.056	346.923	-0.090	0.176
-319.041	-194.715	-0.326	-0.003
-318.026	736.455	-0.063	-0.168
-317.012	-200.000	0.010	-0.061
-315.997	18.159	0.244	-0.192
-314.983	-30.956	-0.201	-0.112
-313.968	19.643	0.042	0.034
-312.953	-42.831	-0.044	-0.022
-311.939	-71.870	-0.256	-0.094
-310.924	-37.932	0.202	-0.106
-309.910	-200.000	0.024	0.300
-308.895	-200.000	0.004	0.136
-307.880	-78.372	-0.274	0.093
-306.866	769.476	0.066	0.177
-305.851	-152.693	0.444	0.031
-304.837	-113.410	0.124	-0.024
-303.822	-200.000	0.138	0.001
-302.807	-127.518	0.417	0.060
-301.793	-200.000	0.027	0.260
-300.778	-200.000	-0.024	-0.217
-299.764	-200.000	-0.035	-0.215
-298.749	499.279	-0.159	-0.363
-297.735	-181.415	0.073	-0.001
-296.720	-200.000	0.011	0.369
-295.705	89.047	-0.270	0.297
-294.691	594.415	0.078	0.189
-293.676	-115.511	-0.145	0.027
-292.662	-69.821	0.257	0.097
-291.647	-61.679	-0.077	-0.032
-290.632	-102.135	0.174	0.041
-289.618	-110.265	0.247	-0.051
-288.603	-107.209	-0.356	-0.077
-287.589	800.000	-0.064	0.267
-286.574	77.981	0.106	0.112
-285.559	478.115	0.034	0.076
-284.545	800.000	0.158	0.532
-283.530	781.978	-0.078	-0.211
-282.516	261.094	0.115	-0.196
-281.501	-154.277	-0.249	0.017
-280.486	-154.474	0.350	0.023
-279.472	-127.288	0.225	-0.032
-278.457	-21.477	0.085	-0.051
-277.443	-98.415	-0.095	0.024
-276.428	-90.878	-0.255	-0.072
-275.413	188.576	-0.322	-0.475
-274.399	-147.260	0.331	-0.028
-273.384	-154.887	-0.455	-0.030
-272.370	135.761	-0.031	-0.040
-271.355	-138.743	0.059	0.006
-270.340	-200.000	0.008	-0.347
-269.326	-53.071	-0.146	0.066
-268.311	146.930	-0.081	-0.108
-267.297	800.000	0.059	-0.170
-266.282	-200.000	0.032	-0.201
-265.267	-200.000	0.000	0.111
-264.253	602.110	0.027	-0.067
-263.238	800.000	-0.032	0.089
-262.224	113.649	0.174	0.208
-261.209	-80.474	0.259	0.085
-260.195	10.920	0.315	0.237
-259.180	-129.630	-0.185	-0.025
-258.165	168.974	0.105	-0.148
-257.151	-200.000	-0.018	0.219
-256.136	14.059	0.212	0.163
-255.122	-82.502	0.354	-0.113
-254.107	180.845	-0.060	-0.087
-253.092	47.313	-0.290	0.266
-252.078	-200.000	-0.024	-0.296
-251.063	364.067	0.153	-0.303
-250.049	441.412	-0.006	0.012
-249.034	-157.627	0.072	0.004
-248.019	328.758	-0.073	-0.138
-247.005	-16.921	-0.488	-0.304
-245.990	-5.428	-0.351	0.237
-244.976	-47.609	0.304	-0.145
-243.961	57.813	0.129	-0.124
-242.946	-112.121	-0.310	0.061
-241.932	-8.920	-0.112	-0.074
-240.917	102.669	0.316	-0.365
-239.903	-35.019	0.107	0.057
-238.888	101.939	0.086	0.099
-237.873	-55.302	0.220	-0.097
-236.859	100.607	-0.126	-0.144
-235.844	22.099	-0.378	-0.303
-234.830	-107.767	0.489	-0.105
-233.815	-77.149	-0.134	-0.046
-232.800	-200.000	0.002	-0.061
-231.786	91.607	-0.127	0.140
-230.771	-29.064	-0.278	0.157
-229.757	-200.000	0.037	0.180
-228.742	316.968	-0.100	0.185
-227.727	-74.877	0.516	-0.182
-226.713	-200.000	-0.001	0.208
-225.698	-47.198	0.283	0.136
-224.684	114.832	0.046	0.055
-223.669	-121.159	-0.329	0.054
-222.655	-157.299	-0.133	-0.008
-221.640	-200.000	-0.091	0.508
-220.625	800.000	-0.064	0.203
-219.611	-70.350	-0.257	-0.096
-218.596	210.573	-0.032	0.049
-217.582	800.000	-0.096	0.261
-216.567	438.095	0.135	0.290
-215.552	800.000	-0.063	-0.206
-214.538	428.958	-0.022	0.047
-213.523	-39.525	0.323	-0.166
-212.509	-94.424	-0.363	-0.097
-211.494	800.000	0.089	-0.277
-210.479	-62.145	0.323	0.133
-209.465	436.750	-0.010	-0.022
-208.450	116.228	0.067	-0.081
-207.436	-200.000	-0.009	-0.118
-206.421	324.463	-0.146	-0.274
-205.406	-108.253	-0.180	0.038
-204.392	459.684	-0.100	-0.218
-203.377	556.382	-0.169	0.400
-202.363	-19.799	0.170	0.103
-201.348	8.946	-0.261	-0.193
-200.333	-136.836	0.171	-0.019
-199.319	-128.383	-0.222	-0.031
-198.304	-200.000	-0.008	-0.130
-197.290	-200.000	-0.062	-0.374
-196.275	363.031	-0.064	-0.127
-195.260	800.000	-0.069	-0.239
-194.246	62.359	0.155	-0.152
-193.231	665.020	0.166	0.421
-192.217	-14.425	0.311	0.197
-191.202	207.178	-0.064	0.098
-190.187	-143.227	-0.092	-0.009
-189.173	-65.412	0.059	0.023
-188.158	-91.460	-0.229	0.064
-187.144	-45.339	-0.285	-0.139
-186.129	-43.229	0.251	0.125
-185.114	81.506	0.174	0.184
-184.100	77.926	-0.237	0.249
-183.085	3.210	0.081	-0.058
-182.071	-135.722	-0.265	0.031
-181.056	-49.378	0.255	-0.119
-180.042	133.189	-0.098	-0.125
-179.027	413.669	-0.008	-0.017
-178.012	-165.314	0.187	-0.008
-176.998	-81.357	-0.103	-0.033
-175.983	-200.000	0.008	-0.071
-174.969	-200.000	0.012	0.295
-173.954	-64.481	0.195	0.078
-172.939	-200.000	-0.003	-0.091
-171.925	-154.566	0.130	0.009
-170.910	-32.068	-0.464	0.255
-169.896	75.609	-0.067	0.069
-168.881	-200.000	-0.011	-0.441
-167.866	-200.000	-0.002	-0.278
-166.852	-200.000	0.001	-0.081
-165.837	-147.842	0.310	-0.025
-164.823	-4.791	-0.125	0.085
-163.808	24.034	-0.194	0.157
-162.793	800.000	-0.108	-0.336
-161.779	34.410	-0.140	-0.120
-160.764	18.605	-0.253	0.199
-159.750	-133.436	0.064	0.008
-158.735	1.355	-0.420	0.296
-157.720	30.072	-0.180	0.151
-156.706	-200.000	0.021	-0.113
-155.691	114.835	0.049	-0.059
-154.677	33.343	-0.047	-0.040
-153.662	-200.000	0.036	0.161
-152.647	-200.000	-0.033	-0.175
-151.633	24.902	-0.262	0.213
-150.618	-91.916	-0.098	-0.027
-149.604	-31.621	-0.300	-0.165
-148.589	451.678	-0.088	0.190
-147.574	800.000	0.008	-0.026
-146.560	-200.000	-0.018	0.121
-145.545	800.000	-0.038	-0.122
-144.531	-200.000	-0.054	-0.268
-143.516	-200.000	0.003	-0.182
-142.502	-46.745	0.324	-0.156
-141.487	51.878	0.129	-0.120
-140.472	-200.000	-0.021	-0.111
-139.458	-200.000	0.009	0.115
-138.443	-16.165	-0.087	-0.054
-137.429	89.291	-0.219	0.239
-136.414	259.510	0.116	-0.196
-135.399	800.000	0.093	0.256
-134.385	-10.862	-0.040	0.026
-133.370	-200.000	0.050	0.310
-132.356	-74.977	0.163	-0.057
-131.341	-33.499	-0.130	0.071
-130.326	800.000	0.081	0.298
-129.312	-67.930	-0.103	0.039
-128.297	-96.645	0.239	0.062
-127.283	-76.341	0.115	-0.040
-126.268	301.976	0.047	-0.086
-125.253	162.132	0.212	-0.291
-124.239	-200.000	-0.032	-0.273
-123.224	15.099	-0.122	0.094
-122.210	-80.916	-0.159	-0.052
-121.195	-159.577	0.149	0.008
-120.180	-62.392	0.244	0.100
-119.166	800.000	0.089	0.273
-118.151	-22.889	0.223	0.132
-117.137	112.801	0.127	0.150
-116.122	800.000	-0.089	0.350
-115.107	-170.297	-0.191	-0.007
-114.093	306.541	0.207	0.377
-113.078	800.000	0.065	0.264
-112.064	461.322	0.072	0.157
-111.049	800.000	-0.076	0.313
-110.034	800.000	0.058	0.179
-109.020	685.366	-0.128	0.326
-108.005	-57.966	-0.214	-0.092
-106.991	-78.322	0.223	0.075
-105.976	150.942	-0.193	0.257
-104.962	-71.312	-0.179	-0.066
-103.947	-92.491	0.234	0.064
-102.932	-106.020	0.074	0.016
-101.918	-30.733	0.373	0.207
-100.903	66.353	-0.208	0.207
-99.889	154.663	0.178	0.239
-98.874	-200.000	0.031	-0.285
-97.859	-111.521	0.303	0.060
-96.845	471.546	-0.239	-0.526
-95.830	-95.840	0.050	-0.013
-94.816	-37.246	0.281	0.147
-93.801	436.317	-0.179	0.381
-92.786	159.837	-0.128	0.175
-91.772	20.771	0.183	0.145
-90.757	800.000	-0.056	-0.188
-89.743	110.278	0.173	-0.204
-88.728	373.781	0.047	0.095
-87.713	375.717	0.178	0.356
-86.699	-17.016	0.279	-0.173
-85.684	-70.601	-0.225	-0.083
-84.670	800.000	0.026	-0.107
-83.655	-64.370	-0.329	0.131
-82.640	264.142	-0.108	-0.184
-81.626	800.000	-0.042	-0.177
-80.611	800.000	-0.015	-0.062
-79.597	-200.000	-0.037	-0.203
-78.582	-200.000	-0.004	0.180
-77.567	-113.428	-0.220	-0.042
-76.553	-169.733	-0.166	0.006
-75.538	-200.000	0.019	0.183
-74.524	-200.000	0.019	-0.358
-73.509	800.000	-0.136	-0.419
-72.494	-157.989	-0.168	-0.010
-71.480	-200.000	0.005	-0.088
-70.465	-101.695	-0.250	0.059
-69.451	-94.913	0.294	-0.078
-68.436	-68.527	-0.172	-0.065
-67.422	99.721	0.085	-0.097
-66.407	-106.040	-0.062	-0.014
-65.392	168.251	0.137	-0.190
-64.378	-200.000	-0.001	-0.310
-63.363	204.008	0.193	-0.292
-62.349	97.782	0.047	0.053
-61.334	22.221	-0.896	-0.715
-60.319	-25.649	1.033	0.596
-59.305	324.636	-0.495	-0.924
-58.290	64.540	0.836	0.824
-57.276	227.472	0.927	1.473
-56.261	-200.000	116.864	647.084
-55.246	503.674	1542.803	3488.226
-54.232	173.536	2726.451	3844.493
-53.217	99.498	2303.100	2604.248
-52.203	35.753	1908.468	1639.451
-51.188	29.823	1699.813	1414.952
-50.173	27.313	1658.706	1361.921
-49.159	47.602	1716.535	1564.540
-48.144	46.174	1729.245	1565.197
-47.130	29.236	1686.745	1399.401
-46.115	26.669	1672.461	1368.135
-45.100	26.530	1667.565	1363.030
-44.086	26.511	1665.072	1360.794
-43.071	26.468	1662.682	1358.465
-42.057	26.421	1660.244	1356.063
-41.042	26.460	1657.812	1354.315
-40.027	26.480	1656.295	1353.171
-39.013	26.507	1653.977	1351.429
-37.998	26.440	1652.566	1349.720
-36.984	26.461	1651.172	1348.684
-35.969	26.509	1649.838	1347.898
-34.954	26.570	1648.299	1347.040
-33.940	26.678	1646.046	1345.953
-32.925	26.614	1644.199	1343.915
-31.911	26.656	1643.054	1343.237
-30.896	26.636	1640.885	1341.257
-29.881	26.680	1639.685	1340.553
-28.867	26.586	1638.030	1338.453
-27.852	26.595	1636.651	1337.334
-26.838	26.640	1635.232	1336.454
-25.823	26.636	1634.068	1335.424
-24.809	26.619	1632.804	1334.213
-23.794	26.615	1631.227	1332.844
-22.779	26.644	1629.590	1331.664
-21.765	26.607	1627.888	1329.945
-20.750	26.605	1625.749	1328.135
-19.736	26.609	1625.107	1327.586
-18.721	26.717	1623.258	1326.816
-17.706	26.691	1621.641	1325.246
-16.692	26.594	1620.647	1323.671
-15.677	26.616	1619.173	1322.580
-14.663	26.738	1617.086	1321.712
-13.648	26.665	1616.223	1320.422
-12.633	26.714	1614.783	1319.546
-11.619	26.651	1613.184	1317.734
-10.604	26.692	1611.222	1316.376
-9.590	26.689	1610.386	1315.620
-8.575	26.721	1608.784	1314.489
-7.560	26.752	1607.240	1313.402
-6.546	26.678	1606.519	1312.224
-5.531	26.673	1605.909	1311.638
-4.517	26.705	1604.140	1310.371
-3.502	26.675	1603.091	1309.242
-2.487	26.671	1601.599	1307.947
-1.473	26.407	1589.089	1295.787
-0.458	23.255	1569.569	1257.473
0.556	20.488	1571.582	1225.041
1.571	18.174	1595.449	1226.949
2.586	17.628	1607.873	1232.449
3.600	15.455	1552.658	1174.826
4.615	9.355	1444.747	1053.240
5.629	4.256	1386.408	978.514
6.644	3.452	1379.327	968.382
7.659	3.293	1378.555	966.760
8.673	3.370	1377.176	966.188
9.688	3.485	1375.056	965.334
10.702	3.401	1372.534	962.951
11.717	5.741	1376.293	980.153
12.731	12.650	1389.443	1032.913
13.746	18.712	1398.963	1078.088
14.761	20.273	1400.881	1089.274
15.775	19.715	1398.491	1083.823
16.790	18.660	1396.209	1075.349
17.804	17.838	1394.079	1068.468
18.819	17.498	1392.992	1065.416
19.834	17.306	1392.131	1063.460
20.848	17.168	1390.522	1061.279
21.863	16.930	1389.118	1058.628
22.877	16.820	1388.207	1057.150
23.892	16.901	1386.675	1056.398
24.907	16.777	1386.023	1055.036
25.921	16.906	1385.279	1055.178
26.936	16.801	1384.915	1054.154
27.950	16.871	1383.244	1053.223
28.965	16.973	1382.460	1053.165
29.980	17.110	1381.378	1053.101
30.994	17.121	1380.590	1052.470
32.009	17.172	1379.247	1051.673
33.023	17.105	1378.459	1050.560
34.038	17.126	1376.631	1049.209
35.053	17.000	1375.105	1047.175
36.067	16.943	1374.084	1045.951
37.082	16.930	1373.754	1045.529
38.096	17.031	1372.168	1044.851
39.111	17.159	1371.378	1044.944
40.126	17.015	1370.873	1043.583
41.140	16.726	1369.661	1040.790
42.155	16.684	1369.015	1039.946
43.169	16.721	1368.857	1039.961
44.184	16.641	1368.589	1039.178
45.199	16.613	1368.507	1038.849
46.213	16.723	1367.952	1039.009
47.228	16.838	1367.146	1039.013
48.242	16.959	1365.812	1038.650
49.257	16.936	1364.180	1037.177
50.271	16.923	1362.528	1035.746
51.286	16.950	1361.248	1034.846
52.301	16.929	1360.001	1033.682
53.315	16.810	1358.914	1032.039
54.330	16.748	1357.860	1030.766
55.344	16.729	1356.291	1029.371
56.359	16.730	1355.466	1028.660
57.374	16.677	1354.956	1027.859
58.388	16.642	1354.058	1026.876
59.403	16.619	1353.375	1026.127
60.417	16.543	1352.864	1025.187
61.432	16.585	1351.782	1024.535
62.447	16.505	1350.808	1023.216
63.461	16.400	1349.973	1021.860
64.476	16.392	1348.701	1020.762
65.490	16.530	1346.752	1020.024
66.505	16.419	1345.847	1018.579
67.520	16.497	1344.825	1018.186
68.534	16.665	1343.181	1017.863
69.549	16.547	1342.459	1016.515
70.563	16.422	1341.855	1015.220
71.578	16.455	1339.960	1013.894
72.593	16.334	1339.594	1012.802
73.607	16.230	1339.260	1011.833
74.622	16.268	1338.308	1011.256
75.636	16.253	1337.908	1010.774
76.651	16.389	1336.962	1010.783
77.666	16.430	1336.106	1010.291
78.680	16.429	1336.310	1010.348
79.695	16.460	1335.254	1009.645
80.709	16.536	1334.779	1009.654
81.724	16.690	1333.660	1009.632
82.739	16.796	1332.469	1009.276
83.753	16.892	1331.674	1009.155
84.768	16.914	1330.755	1008.501
85.782	17.000	1329.873	1008.256
86.797	17.005	1328.396	1007.074
87.812	16.870	1327.287	1005.347
88.826	16.833	1326.122	1004.157
89.841	16.901	1325.200	1003.771
90.855	17.078	1324.118	1003.909
91.870	17.069	1323.256	1003.110
92.884	17.088	1322.438	1002.518
93.899	17.066	1321.735	1001.764
94.914	17.201	1320.697	1001.686
95.928	17.101	1319.979	1000.465
96.943	17.159	1318.788	999.812
97.957	16.974	1317.978	998.020
98.972	17.038	1316.723	997.359
99.987	17.016	1315.921	996.532
101.001	17.075	1314.662	995.836
102.016	16.995	1314.100	994.857
103.030	16.948	1313.076	993.718
104.045	17.050	1311.937	993.367
105.060	16.923	1311.331	992.075
106.074	16.655	1309.337	988.911
107.089	16.557	1308.169	987.369
108.103	16.521	1306.861	986.086
109.118	16.468	1305.667	984.788
110.133	16.561	1303.991	983.980
111.147	16.535	1302.896	982.917
112.162	16.655	1301.631	982.572
113.176	16.647	1300.432	981.532
114.191	16.701	1299.607	981.136
115.206	16.730	1298.296	980.228
116.220	16.577	1297.473	978.633
117.235	16.668	1296.375	978.245
118.249	16.708	1294.910	977.286
119.264	16.588	1294.047	975.855
120.279	16.602	1292.798	974.906
121.293	16.526	1291.918	973.719
122.308	16.490	1290.905	972.664
123.322	16.440	1289.653	971.345
124.337	16.502	1288.534	970.772
125.352	16.441	1287.614	969.642
126.366	16.367	1286.742	968.477
127.381	16.489	1285.047	967.811
128.395	16.513	1284.008	967.085
129.410	16.414	1283.888	966.341
130.424	16.356	1283.165	965.381
131.439	16.653	1281.946	966.074
132.454	16.615	1281.136	965.161
133.468	16.644	1280.393	964.681
134.483	16.620	1279.858	964.058
135.497	16.671	1278.809	963.471
136.512	16.690	1276.862	962.024
137.527	16.625	1275.864	960.818
138.541	16.725	1274.713	960.435
139.556	16.721	1273.615	959.503
140.570	16.869	1272.445	959.374
141.585	16.929	1271.162	958.660
142.600	16.957	1269.924	957.800
143.614	16.960	1269.364	957.307
144.629	17.122	1268.125	957.204
145.643	17.025	1266.772	955.553
146.658	16.871	1265.591	953.711
147.673	16.853	1264.045	952.357
148.687	16.745	1262.778	950.713
149.702	16.754	1261.561	949.762
150.716	16.809	1260.480	949.174
151.731	16.758	1259.262	947.886
152.746	16.750	1258.123	946.902
153.760	16.820	1257.102	946.439
154.775	16.859	1255.934	945.694
155.789	17.003	1255.116	945.798
156.804	17.016	1253.712	944.726
157.819	17.027	1252.734	943.968
158.833	17.045	1252.180	943.567
159.848	17.282	1251.200	944.060
160.862	17.201	1250.045	942.656
161.877	16.933	1248.814	940.160
162.892	16.841	1247.823	938.822
163.906	16.729	1247.339	937.754
164.921	16.763	1246.108	936.937
165.935	16.928	1244.875	936.835
166.950	16.967	1244.316	936.549
167.964	17.009	1243.384	935.994
168.979	16.950	1242.899	935.222
169.994	16.817	1242.117	933.818
171.008	16.980	1241.049	933.828
172.023	17.101	1240.204	933.777
173.037	17.263	1239.495	934.053
174.052	17.139	1238.719	932.700
175.067	17.069	1237.142	931.047
176.081	16.864	1236.398	929.281
177.096	16.923	1235.806	929.078
178.110	16.963	1234.398	928.156
179.125	16.884	1232.958	926.558
180.140	17.039	1231.539	926.258
181.154	17.107	1230.386	925.678
182.169	17.044	1229.701	924.741
183.183	17.109	1229.012	924.495
184.198	17.230	1227.565	923.982
185.213	17.192	1226.475	922.874
186.227	17.164	1225.356	921.795
187.242	17.371	1224.068	921.866
188.256	17.427	1223.518	921.673
189.271	17.394	1222.486	920.637
190.286	17.251	1221.341	918.919
191.300	16.882	1220.500	916.211
192.315	16.840	1219.368	915.057
193.329	16.879	1219.041	914.941
194.344	17.023	1218.148	914.966
195.359	17.052	1217.919	914.869
196.373	17.107	1217.152	914.509
197.388	17.273	1217.058	915.252
198.402	17.433	1216.452	915.571
199.417	17.520	1215.824	915.488
200.432	17.573	1215.170	915.198
201.446	17.578	1214.628	914.739
202.461	17.760	1212.871	914.308
203.475	17.638	1212.139	913.023
204.490	17.556	1210.458	911.237
205.504	17.466	1209.713	910.113
206.519	17.448	1208.087	908.712
207.534	17.383	1206.954	907.435
208.548	17.346	1206.430	906.763
209.563	17.341	1205.904	906.261
210.577	17.487	1204.610	905.986
211.592	17.495	1203.603	905.192
212.607	17.659	1202.965	905.503
213.621	17.569	1202.184	904.356
214.636	17.576	1201.274	903.628
215.650	17.594	1200.538	903.090
216.665	17.716	1199.155	902.616
217.680	17.589	1199.174	901.876
218.694	17.767	1198.027	901.877
219.709	17.741	1197.422	901.205
220.723	17.841	1196.337	900.837
221.738	17.807	1195.578	900.004
222.753	17.671	1194.932	898.721
223.767	17.673	1194.314	898.187
224.782	17.849	1193.812	898.659
225.796	17.905	1193.047	898.300
226.811	17.946	1191.680	897.406
227.826	17.824	1191.051	896.211
228.840	17.770	1190.514	895.442
229.855	17.669	1190.029	894.472
230.869	17.725	1189.150	894.021
231.884	17.722	1187.888	892.980
232.899	17.727	1187.227	892.428
233.913	17.550	1186.829	891.127
234.928	17.616	1185.580	890.455
235.942	17.665	1184.778	890.026
236.957	17.554	1184.296	889.010
237.972	17.596	1183.605	888.628
238.986	17.587	1183.026	888.070
240.001	17.620	1182.109	887.474
241.015	17.571	1181.365	886.585
242.030	17.700	1180.586	886.593
243.045	17.733	1179.543	885.901
244.059	17.754	1178.810	885.379
245.074	17.798	1178.339	885.178
246.088	17.889	1177.829	885.185
247.103	17.984	1176.649	884.716
248.117	18.093	1176.323	884.953
249.132	18.301	1175.525	885.353
250.147	18.348	1174.882	885.031
251.161	18.283	1174.103	884.033
252.176	18.422	1173.559	884.262
253.190	18.328	1173.321	883.519
254.205	18.411	1172.484	883.240
255.220	18.456	1172.077	883.088
256.234	18.540	1170.714	882.415
257.249	18.479	1170.353	881.750
258.263	18.518	1169.837	881.484
259.278	18.442	1169.342	880.640
260.293	18.453	1168.594	880.058
261.307	18.500	1168.428	880.096
262.322	18.609	1167.323	879.746
263.336	18.604	1166.824	879.262
264.351	18.529	1166.590	878.625
265.366	18.686	1165.319	878.394
266.380	18.703	1164.614	877.873
267.395	18.693	1163.895	877.201
268.409	18.476	1163.067	875.393
269.424	18.529	1162.678	875.294
270.439	18.557	1161.505	874.475
271.453	18.493	1160.898	873.612
272.468	18.382	1160.340	872.552
273.482	18.391	1159.354	871.780
274.497	18.443	1158.655	871.439
275.512	18.343	1158.182	870.496
276.526	18.510	1157.376	870.664
277.541	18.560	1156.319	870.047
278.555	18.589	1155.718	869.662
279.570	18.679	1155.003	869.503
280.585	18.783	1154.281	869.410
281.599	18.749	1153.890	868.867
282.614	18.600	1152.646	867.102
283.628	18.625	1151.153	866.025
284.643	18.640	1150.509	865.541
285.657	18.662	1149.795	865.039
286.672	18.671	1148.254	863.846
287.687	18.780	1147.454	863.717
288.701	18.612	1147.397	862.752
289.716	18.714	1146.095	862.212
290.730	18.763	1145.607	862.015
291.745	18.750	1144.891	861.332
292.760	18.750	1144.153	860.700
293.774	18.769	1143.873	860.512
294.789	18.935	1143.323	860.849
295.803	18.962	1142.463	860.263
296.818	18.756	1142.060	858.854
297.833	18.630	1141.184	857.486
298.847	18.808	1140.009	857.416
299.862	19.007	1138.611	857.284
300.876	18.819	1138.583	856.251
301.891	18.889	1138.141	856.190
302.906	18.991	1137.187	855.904
303.920	19.061	1136.849	855.920
304.935	19.059	1136.375	855.478
305.949	19.215	1135.482	855.508
306.964	19.284	1134.498	855.032
307.979	19.172	1133.618	853.735
308.993	19.045	1133.248	852.753
310.008	19.145	1132.129	852.329
311.022	19.170	1131.598	851.980
312.037	19.144	1130.613	851.036
313.052	19.142	1129.311	849.970
314.066	18.983	1128.964	848.847
315.081	18.939	1127.940	847.785
316.095	18.905	1126.863	846.732
317.110	18.813	1126.817	846.171
318.125	18.995	1125.368	845.901
319.139	18.903	1125.024	845.117
320.154	18.938	1124.165	844.570
321.168	18.981	1123.637	844.311
322.183	19.016	1122.931	843.874
323.197	19.029	1122.620	843.631
324.212	18.938	1122.145	842.752
325.227	18.969	1121.789	842.561
326.241	19.057	1120.727	842.122
327.256	18.974	1120.229	841.268
328.270	19.018	1119.047	840.518
329.285	19.057	1117.937	839.804
330.300	19.139	1116.991	839.418
331.314	19.081	1116.182	838.455
332.329	19.100	1115.359	837.852
333.343	19.092	1114.403	837.021
334.358	19.251	1113.648	837.155
335.373	19.325	1113.491	837.318
336.387	19.343	1112.330	836.461
337.402	19.396	1111.225	835.811
338.416	19.268	1111.176	835.080
339.431	19.524	1110.444	835.699
340.446	19.595	1109.776	835.464
341.460	19.535	1109.414	834.829
342.475	19.590	1108.562	834.380
343.489	19.630	1107.398	833.622
344.504	19.792	1106.605	833.731
345.519	19.702	1106.417	833.083
346.533	19.746	1105.064	832.204
347.548	19.848	1104.346	832.077
348.562	19.821	1103.633	831.339
349.577	19.618	1102.902	829.737
350.592	19.530	1101.706	828.344
351.606	19.515	1100.846	827.549
352.621	19.454	1100.463	826.895
353.635	19.417	1099.769	826.126
354.650	19.466	1099.072	825.763
355.665	19.547	1098.247	825.459
356.679	19.486	1097.757	824.723
357.694	19.642	1096.617	824.539
358.708	19.666	1096.503	824.494
359.723	19.630	1095.738	823.676
360.738	19.864	1094.943	824.120
361.752	19.697	1094.606	823.000
362.767	19.725	1094.224	822.773
363.781	19.696	1093.398	821.940
364.796	19.784	1093.405	822.289
365.810	19.880	1092.470	821.970
366.825	19.975	1091.688	821.758
367.840	19.956	1091.648	821.569
368.854	20.023	1090.985	821.315
369.869	20.056	1089.913	820.589
370.883	20.061	1088.909	819.786
371.898	19.951	1088.130	818.606
372.913	19.928	1087.887	818.241
373.927	20.109	1087.079	818.415
374.942	20.189	1086.574	818.343
375.956	20.083	1086.186	817.475
376.971	20.082	1085.502	816.883
377.986	20.069	1085.276	816.580
379.000	20.249	1084.341	816.651
380.015	20.219	1084.013	816.190
381.029	20.319	1083.131	815.926
382.044	20.259	1082.392	815.015
383.059	20.262	1081.956	814.632
384.073	20.255	1081.008	813.811
385.088	20.313	1080.033	813.276
386.102	20.313	1079.034	812.454
387.117	20.204	1077.994	811.090
388.132	20.154	1076.970	810.012
389.146	20.117	1076.302	809.264
390.161	20.026	1075.512	808.174
391.175	20.066	1075.048	807.942
392.190	20.264	1074.212	808.165
393.205	20.333	1073.564	807.926
394.219	20.182	1073.078	806.787
395.234	20.187	1072.172	806.058
396.248	20.140	1070.646	804.619
397.263	20.134	1070.197	804.183
398.278	20.001	1069.223	802.766
399.292	20.205	1068.033	802.743
400.307	20.028	1067.963	801.800
401.321	20.059	1067.112	801.236
402.336	20.026	1066.477	800.535
403.350	20.067	1066.059	800.338
404.365	20.153	1064.922	799.810
405.380	20.213	1064.326	799.571
406.394	20.169	1063.638	798.780
407.409	20.326	1063.107	799.034
408.423	20.372	1062.359	798.612
409.438	20.452	1061.756	798.455
410.453	20.508	1061.064	798.120
411.467	20.653	1060.495	798.289
412.482	20.686	1059.261	797.441
413.496	20.709	1058.851	797.167
414.511	20.670	1058.417	796.588
415.526	20.703	1058.189	796.500
416.540	20.729	1057.859	796.298
417.555	20.763	1057.508	796.121
418.569	20.776	1056.311	795.210
419.584	20.749	1055.953	794.745
420.599	20.889	1055.290	794.815
421.613	155.735	1405.084	1798.843
422.628	142.967	1456.037	1798.904
