DTS Sentinel unit serial number:	SN413079Multiplexer serial number:	ORYXHardware model number:	OX4-SRSoftware version number:	ORYX F/W v4.00 Oryx Data Collector v3.7.2.0data status	okinstallation	princeton_trtdifferential loss correction	single-endedforward channel	channel 2reverse channel	N/Adate	2019/09/17time	22:31:34forward acquisition time	60.00reverse acquisition time	0.00gamma	496.2192k internal	0.2344k external	0.2344temperature offset calibration	0.9981default loss term (dB/km)	0.3790temperature slope calibration	1.0000multiplexer offset coefficient	1.0000multiplexer slope coefficient	1.0000fibre end	0.00T internal ref (°C)	25.31T ext. ref 1 (°C)	0.17T ext. ref 2 (°C)	18.65length (m)	temperature (°C)	Stokes	anti-Stokes-747.200	100.558	0.099	-0.115
-746.185	565.405	0.098	0.238
-745.171	-114.073	-0.103	0.020
-744.156	-79.574	-0.069	-0.023
-743.142	378.091	0.132	0.270
-742.127	249.008	-0.251	0.426
-741.112	-200.000	0.078	0.418
-740.098	-88.384	-0.419	0.125
-739.083	-200.000	-0.049	-0.314
-738.069	-200.000	-0.037	0.347
-737.054	-63.295	-0.174	-0.072
-736.039	-54.707	-0.353	0.160
-735.025	-100.652	-0.088	-0.022
-734.010	30.758	-0.425	-0.364
-732.996	238.476	-0.296	-0.492
-731.981	800.000	0.031	0.112
-730.966	-28.898	0.199	-0.115
-729.952	322.984	0.115	0.219
-728.937	-73.317	-0.209	0.076
-727.923	346.859	-0.018	-0.036
-726.908	174.825	-0.083	0.120
-725.894	22.582	0.052	0.042
-724.879	223.920	-0.134	-0.217
-723.864	84.156	-0.014	0.016
-722.850	-200.000	0.016	0.139
-721.835	-71.064	-0.037	0.014
-720.821	-153.694	0.191	-0.013
-719.806	12.310	0.119	0.092
-718.791	-200.000	-0.002	-0.062
-717.777	-182.967	0.057	0.001
-716.762	-94.428	-0.273	-0.075
-715.748	-200.000	0.024	0.348
-714.733	129.031	-0.069	0.087
-713.718	-83.681	0.121	0.039
-712.704	-76.054	0.175	-0.062
-711.689	3.109	0.326	-0.237
-710.675	96.610	0.094	0.108
-709.660	-73.321	0.024	0.009
-708.645	327.434	-0.039	-0.075
-707.631	-16.484	-0.117	0.074
-706.616	-112.064	-0.130	-0.026
-705.602	421.266	0.135	-0.289
-704.587	570.210	0.133	-0.324
-703.572	-124.578	0.106	-0.016
-702.558	800.000	-0.145	-0.438
-701.543	376.605	0.003	0.006
-700.529	-12.802	0.155	-0.101
-699.514	-67.322	-0.194	-0.076
-698.499	-106.841	-0.492	-0.109
-697.485	367.829	0.040	-0.081
-696.470	-87.345	-0.161	-0.049
-695.456	551.851	-0.087	0.210
-694.441	-200.000	0.037	0.215
-693.426	554.152	0.185	-0.445
-692.412	8.216	-0.291	0.218
-691.397	-92.687	-0.255	-0.071
-690.383	157.435	-0.115	-0.158
-689.368	-43.627	0.123	-0.062
-688.354	-95.341	0.238	0.064
-687.339	-20.096	-0.166	-0.102
-686.324	-108.448	0.247	0.053
-685.310	64.329	0.209	-0.210
-684.295	-200.000	-0.004	-0.173
-683.281	-41.068	-0.187	0.097
-682.266	13.152	-0.073	0.056
-681.251	-200.000	-0.045	0.291
-680.237	-125.133	-0.128	-0.020
-679.222	499.635	-0.082	0.189
-678.208	205.487	0.196	-0.304
-677.193	-55.120	0.150	-0.067
-676.178	5.648	0.175	-0.129
-675.164	433.059	0.144	-0.311
-674.149	85.963	0.165	-0.181
-673.135	204.775	0.167	-0.258
-672.120	800.000	-0.117	-0.457
-671.105	-200.000	0.048	-0.326
-670.091	272.656	0.153	-0.270
-669.076	-12.558	-0.301	0.196
-668.062	266.885	-0.076	0.133
-667.047	800.000	0.084	0.288
-666.032	800.000	-0.026	0.074
-665.018	161.111	-0.167	-0.232
-664.003	-103.197	-0.158	0.037
-662.989	800.000	0.099	-0.333
-661.974	-200.000	0.045	0.212
-660.959	434.756	-0.048	-0.105
-659.945	-200.000	0.009	0.246
-658.930	-8.744	-0.164	-0.110
-657.916	223.958	0.102	-0.164
-656.901	-88.796	-0.259	0.077
-655.886	800.000	0.035	0.136
-654.872	-176.101	-0.157	0.004
-653.857	-19.510	0.181	0.112
-652.843	-65.890	0.277	-0.111
-651.828	517.869	-0.044	-0.102
-650.814	313.378	-0.050	0.094
-649.799	800.000	0.039	0.139
-648.784	-118.188	0.166	0.029
-647.770	800.000	-0.044	0.138
-646.755	-53.754	-0.310	-0.141
-645.741	-104.274	0.320	0.074
-644.726	-200.000	-0.030	0.181
-643.711	-15.509	-0.245	-0.156
-642.697	467.481	-0.090	-0.200
-641.682	800.000	-0.060	-0.177
-640.668	-10.404	0.182	0.120
-639.653	-19.710	0.178	0.110
-638.638	-170.752	-0.185	0.006
-637.624	-200.000	0.074	0.409
-636.609	800.000	0.122	0.374
-635.595	800.000	-0.072	0.236
-634.580	-113.878	0.460	0.089
-633.565	14.128	0.140	-0.109
-632.551	-124.525	-0.308	-0.048
-631.536	800.000	0.060	0.219
-630.522	800.000	0.065	-0.205
-629.507	-65.509	-0.190	-0.076
-628.492	800.000	-0.105	0.295
-627.478	117.214	-0.105	-0.129
-626.463	-66.718	-0.286	0.113
-625.449	-67.558	0.328	0.128
-624.434	-84.854	-0.215	0.067
-623.419	141.592	0.267	-0.353
-622.405	-131.057	0.099	0.013
-621.390	-79.878	-0.232	0.078
-620.376	30.352	-0.119	-0.101
-619.361	134.267	0.227	-0.294
-618.346	800.000	0.031	-0.107
-617.332	160.438	-0.058	0.081
-616.317	800.000	-0.029	0.091
-615.303	-7.458	-0.008	0.006
-614.288	800.000	-0.078	0.245
-613.273	107.579	0.121	0.144
-612.259	-200.000	-0.001	0.014
-611.244	80.055	0.201	-0.215
-610.230	90.211	0.183	-0.204
-609.215	800.000	-0.048	-0.184
-608.201	-200.000	0.072	-0.333
-607.186	-133.577	0.111	-0.014
-606.171	279.920	0.183	-0.326
-605.157	-144.506	0.054	0.005
-604.142	176.780	0.170	-0.246
-603.128	100.972	-0.293	-0.340
-602.113	114.117	-0.174	-0.210
-601.098	-8.938	-0.130	0.087
-600.084	800.000	-0.058	-0.221
-599.069	66.084	0.277	0.279
-598.055	-200.000	0.003	0.085
-597.040	5.216	-0.102	-0.075
-596.025	284.892	0.064	0.114
-595.011	173.252	0.120	-0.172
-593.996	-200.000	0.003	-0.122
-592.982	30.487	0.081	-0.069
-591.967	-112.430	-0.467	0.093
-590.952	-60.513	0.282	0.119
-589.938	-110.116	-0.097	0.020
-588.923	344.662	-0.118	0.231
-587.909	276.759	0.180	0.319
-586.894	20.020	-0.209	-0.168
-585.879	-68.563	0.177	-0.068
-584.865	-3.517	0.136	0.094
-583.850	161.509	0.137	-0.191
-582.836	-200.000	-0.014	-0.080
-581.821	28.152	-0.168	0.141
-580.806	442.724	0.125	0.272
-579.792	-200.000	0.039	0.327
-578.777	-81.192	0.211	-0.069
-577.763	-200.000	0.070	-0.396
-576.748	-200.000	0.010	0.126
-575.733	43.736	-0.095	-0.087
-574.719	-199.516	0.157	-0.001
-573.704	49.514	0.102	-0.095
-572.690	90.002	-0.202	-0.225
-571.675	-48.923	-0.024	-0.012
-570.661	-63.016	-0.412	-0.169
-569.646	-200.000	0.016	-0.091
-568.631	305.082	0.176	0.325
-567.617	49.577	0.061	0.057
-566.602	632.770	-0.073	0.184
-565.588	140.809	0.113	0.149
-564.573	800.000	0.069	0.222
-563.558	800.000	0.039	0.159
-562.544	-37.810	-0.164	-0.087
-561.529	-200.000	-0.031	0.147
-560.515	121.497	-0.128	-0.158
-559.500	-200.000	0.053	-0.263
-558.485	232.680	-0.051	-0.084
-557.471	17.494	-0.049	-0.039
-556.456	392.615	0.031	0.064
-555.442	152.094	-0.006	0.008
-554.427	-200.000	0.061	0.330
-553.412	270.550	-0.130	-0.227
-552.398	-67.280	0.188	0.073
-551.383	228.094	0.026	-0.042
-550.369	-120.074	0.276	0.047
-549.354	-46.698	-0.031	-0.015
-548.339	21.421	-0.131	0.106
-547.325	546.190	-0.081	0.193
-546.310	583.710	-0.011	0.026
-545.296	-87.591	-0.230	0.069
-544.281	52.023	0.122	0.115
-543.266	800.000	0.046	-0.166
-542.252	-80.701	-0.379	-0.125
-541.237	800.000	-0.042	0.117
-540.223	4.751	-0.309	0.225
-539.208	-48.387	0.023	-0.011
-538.193	-44.583	-0.022	0.011
-537.179	400.658	-0.196	0.409
-536.164	-200.000	-0.024	-0.131
-535.150	394.672	0.154	0.318
-534.135	-111.397	-0.230	0.046
-533.121	-35.981	0.267	0.144
-532.106	-193.015	0.241	-0.002
-531.091	-98.336	0.194	-0.049
-530.077	145.265	-0.156	-0.208
-529.062	-93.030	0.244	-0.067
-528.048	42.032	-0.168	-0.152
-527.033	-127.242	0.120	0.017
-526.018	-20.124	-0.133	0.081
-525.004	-184.516	0.231	-0.004
-523.989	-85.379	-0.239	0.074
-522.975	-119.181	-0.272	0.047
-521.960	295.087	-0.042	-0.076
-520.945	-200.000	0.009	-0.157
-519.931	-75.137	0.048	0.017
-518.916	47.936	0.256	0.237
-517.902	128.880	0.133	0.169
-516.887	-155.780	0.113	-0.007
-515.872	311.084	-0.109	-0.203
-514.858	-115.096	-0.271	0.051
-513.843	-200.000	-0.002	0.060
-512.829	-200.000	-0.025	0.346
-511.814	-200.000	-0.013	0.144
-510.799	37.656	-0.058	0.051
-509.785	730.510	0.081	0.215
-508.770	-134.977	-0.103	-0.012
-507.756	-200.000	0.015	-0.088
-506.741	129.433	0.203	0.258
-505.726	-200.000	-0.006	0.097
-504.712	-36.324	0.241	-0.129
-503.697	676.506	0.045	-0.116
-502.683	-23.724	0.275	-0.163
-501.668	388.456	-0.146	-0.299
-500.653	282.919	0.141	0.251
-499.639	419.653	-0.050	-0.106
-498.624	144.782	0.232	-0.308
-497.610	-90.367	-0.169	0.049
-496.595	81.838	-0.281	-0.302
-495.581	-200.000	-0.002	-0.120
-494.566	48.049	-0.065	0.060
-493.551	16.857	0.062	0.048
-492.537	158.316	-0.218	-0.299
-491.522	-3.074	-0.185	-0.128
-490.508	-200.000	0.005	0.046
-489.493	-159.062	0.247	0.014
-488.478	33.239	0.074	0.064
-487.464	310.227	-0.145	0.268
-486.449	-200.000	0.009	0.079
-485.435	-119.147	-0.323	0.056
-484.420	390.953	0.094	0.193
-483.405	-77.883	-0.145	-0.049
-482.391	291.108	0.057	-0.102
-481.376	46.922	-0.176	0.162
-480.362	-200.000	0.009	-0.194
-479.347	-26.875	0.144	-0.083
-478.332	800.000	0.032	-0.096
-477.318	590.408	0.055	0.135
-476.303	354.749	0.096	-0.189
-475.289	-200.000	0.001	-0.035
-474.274	131.780	-0.102	-0.130
-473.259	800.000	-0.015	-0.048
-472.245	132.799	0.095	0.122
-471.230	-81.218	0.073	0.024
-470.216	125.256	-0.161	0.202
-469.201	-200.000	0.033	-0.236
-468.186	-200.000	-0.012	0.074
-467.172	-200.000	0.001	0.054
-466.157	477.027	-0.075	0.168
-465.143	753.937	-0.138	-0.369
-464.128	-60.425	0.229	-0.096
-463.113	-200.000	0.021	-0.249
-462.099	-200.000	0.049	0.243
-461.084	159.619	-0.045	0.062
-460.070	800.000	0.045	-0.166
-459.055	-184.734	-0.566	-0.009
-458.040	278.426	-0.129	0.228
-457.026	264.133	0.183	-0.315
-456.011	205.753	-0.208	0.321
-454.997	11.861	0.267	0.203
-453.982	800.000	0.037	-0.159
-452.968	-200.000	-0.059	-0.284
-451.953	186.718	-0.218	-0.321
-450.938	109.172	0.187	-0.221
-449.924	-162.549	0.091	0.004
-448.909	212.344	-0.051	-0.080
-447.895	-115.803	-0.100	-0.019
-446.880	-100.866	-0.162	-0.039
-445.865	-91.547	-0.091	0.026
-444.851	429.224	-0.166	0.355
-443.836	228.664	0.200	-0.322
-442.822	85.061	0.155	-0.168
-441.807	-200.000	0.000	-0.262
-440.792	667.706	-0.052	-0.132
-439.778	327.651	0.126	0.239
-438.763	0.158	-0.259	0.183
-437.749	-200.000	0.004	-0.341
-436.734	-126.522	-0.284	0.042
-435.719	567.456	0.021	0.051
-434.705	-121.529	0.173	-0.028
-433.690	145.588	-0.158	-0.209
-432.676	-189.564	0.356	-0.004
-431.661	-144.988	0.398	-0.036
-430.646	-133.899	-0.112	-0.014
-429.632	67.519	0.044	0.045
-428.617	-123.604	-0.192	0.030
-427.603	-200.000	0.021	-0.100
-426.588	-150.920	0.162	0.012
-425.573	459.752	0.104	-0.229
-424.559	110.391	0.133	-0.158
-423.544	-200.000	0.017	0.114
-422.530	-141.159	-0.076	-0.008
-421.515	-200.000	-0.006	0.122
-420.500	182.154	0.052	-0.076
-419.486	301.594	-0.139	0.254
-418.471	55.305	-0.063	0.060
-417.457	-24.267	0.263	-0.155
-416.442	800.000	0.046	0.163
-415.428	69.590	-0.248	0.252
-414.413	-174.102	-0.126	0.004
-413.398	-85.602	-0.114	-0.035
-412.384	-107.231	0.104	-0.023
-411.369	800.000	0.020	0.066
-410.355	150.672	-0.264	-0.354
-409.340	128.844	0.127	-0.160
-408.325	172.247	-0.159	-0.227
-407.311	2.875	0.102	-0.073
-406.296	512.961	0.036	0.082
-405.282	-43.273	-0.088	0.044
-404.267	-166.351	-0.230	-0.010
-403.252	18.595	-0.072	0.057
-402.238	16.428	0.261	0.204
-401.223	800.000	-0.139	0.418
-400.209	409.633	-0.126	0.263
-399.194	-200.000	0.012	-0.236
-398.179	-123.458	-0.087	-0.014
-397.165	-81.254	0.212	-0.069
-396.150	151.827	0.098	-0.131
-395.136	-175.411	0.281	-0.008
-394.121	109.728	-0.065	-0.077
-393.106	-117.358	0.094	-0.017
-392.092	800.000	-0.046	0.148
-391.077	-200.000	-0.064	-0.339
-390.063	32.906	0.275	0.235
-389.048	800.000	-0.108	0.419
-388.033	-77.473	0.305	0.105
-387.019	-32.960	-0.282	0.155
-386.004	-200.000	-0.197	0.000
-384.990	-200.000	-0.003	-0.357
-383.975	-14.603	0.134	-0.085
-382.960	800.000	0.037	-0.116
-381.946	-200.000	0.016	0.424
-380.931	-153.084	0.088	-0.006
-379.917	41.356	-0.118	0.106
-378.902	32.371	0.081	-0.069
-377.888	36.151	0.257	-0.223
-376.873	-26.094	0.180	0.105
-375.858	512.768	-0.066	0.152
-374.844	-96.666	-0.315	-0.082
-373.829	110.917	-0.290	-0.344
-372.815	138.179	-0.281	0.363
-371.800	-134.245	0.114	-0.014
-370.785	-25.067	0.298	-0.174
-369.771	-200.000	-0.016	0.350
-368.756	-200.000	-0.004	-0.283
-367.742	-182.354	0.158	0.003
-366.727	-64.299	-0.143	-0.057
-365.712	-83.540	0.162	-0.051
-364.698	-200.000	-0.005	-0.452
-363.683	-188.208	-0.266	-0.003
-362.669	-200.000	0.018	-0.256
-361.654	-71.810	0.105	-0.039
-360.639	-113.962	0.303	0.058
-359.625	31.883	-0.272	-0.231
-358.610	15.546	0.138	0.107
-357.596	74.339	-0.167	0.173
-356.581	363.062	-0.106	0.210
-355.566	800.000	-0.051	0.201
-354.552	-103.197	-0.184	0.043
-353.537	-200.000	0.059	-0.264
-352.523	600.307	0.195	0.476
-351.508	-53.382	-0.132	-0.060
-350.493	-118.251	-0.284	-0.050
-349.479	515.365	0.024	0.055
-348.464	-20.513	-0.418	0.253
-347.450	388.400	0.093	0.189
-346.435	31.068	0.261	0.220
-345.420	37.789	0.060	0.052
-344.406	-200.000	-0.003	0.184
-343.391	-109.996	-0.278	0.057
-342.377	-104.251	-0.330	0.075
-341.362	54.832	-0.053	0.051
-340.348	113.531	-0.143	0.172
-339.333	485.281	0.073	-0.165
-338.318	-200.000	0.058	0.265
-337.304	768.337	-0.012	0.032
-336.289	-46.028	-0.040	-0.019
-335.275	-171.519	-0.474	-0.015
-334.260	30.425	0.081	-0.068
-333.245	-67.737	-0.128	0.049
-332.231	-8.442	-0.147	-0.098
-331.216	165.069	0.070	-0.097
-330.202	800.000	0.072	-0.251
-329.187	-200.000	0.004	-0.028
-328.172	74.942	-0.043	0.045
-327.158	-200.000	0.011	0.299
-326.143	-72.832	-0.164	-0.059
-325.129	-67.788	0.096	-0.037
-324.114	-7.931	0.161	-0.107
-323.099	-128.167	-0.181	-0.025
-322.085	-24.421	0.239	0.140
-321.070	-135.248	-0.140	-0.017
-320.056	-141.438	-0.202	0.020
-319.041	177.722	0.158	0.227
-318.026	-26.107	-0.215	0.125
-317.012	-11.652	0.097	-0.063
-315.997	-200.000	0.006	0.154
-314.983	95.202	-0.195	0.219
-313.968	48.943	-0.221	0.204
-312.953	-29.797	0.204	0.114
-311.939	-85.670	-0.126	0.038
-310.924	-52.284	0.268	-0.122
-309.910	-20.024	0.222	-0.135
-308.895	143.867	0.076	-0.100
-307.880	697.654	0.062	0.161
-306.866	-41.013	0.193	-0.098
-305.851	-107.249	-0.175	-0.038
-304.837	-90.698	0.083	-0.024
-303.822	-82.200	-0.215	0.069
-302.807	-104.048	-0.216	-0.049
-301.793	118.916	-0.020	0.024
-300.778	142.480	0.175	-0.229
-299.764	11.811	0.150	-0.114
-298.749	-94.524	0.129	0.034
-297.735	86.982	0.209	0.227
-296.720	-98.059	0.045	-0.011
-295.705	-200.000	-0.005	-0.217
-294.691	-200.000	0.013	0.303
-293.676	28.592	-0.157	0.131
-292.662	-56.000	-0.359	0.158
-291.647	42.015	-0.163	0.145
-290.632	800.000	-0.042	-0.134
-289.618	800.000	0.107	-0.342
-288.603	598.105	-0.049	-0.118
-287.589	-200.000	-0.023	0.121
-286.574	-200.000	0.010	0.136
-285.559	40.495	-0.133	0.118
-284.545	-53.101	-0.357	0.161
-283.530	63.730	0.156	0.154
-282.516	253.732	-0.122	0.205
-281.501	-60.501	-0.023	0.009
-280.486	800.000	0.022	-0.090
-279.472	-114.098	0.068	-0.013
-278.457	100.189	0.048	-0.055
-277.443	30.013	-0.123	0.103
-276.428	-17.148	0.181	0.112
-275.413	305.410	-0.084	0.153
-274.399	800.000	-0.011	-0.037
-273.384	-200.000	0.014	-0.171
-272.370	143.488	-0.279	0.366
-271.355	800.000	0.056	0.155
-270.340	30.503	0.293	-0.246
-269.326	76.071	-0.221	-0.230
-268.311	-32.414	0.456	-0.250
-267.297	-3.925	0.078	0.053
-266.282	800.000	0.126	-0.438
-265.267	800.000	-0.055	-0.175
-264.253	-200.000	0.033	-0.267
-263.238	-34.972	0.088	0.047
-262.224	68.447	0.163	-0.165
-261.209	15.309	-0.336	0.259
-260.195	271.925	-0.041	-0.071
-259.180	-13.872	-0.125	-0.079
-258.165	-92.386	0.122	-0.034
-257.151	-200.000	-0.009	0.056
-256.136	328.214	-0.255	0.480
-255.122	-67.838	0.388	0.149
-254.107	-42.812	-0.169	-0.084
-253.092	-46.731	0.155	0.075
-252.078	-69.970	0.158	0.059
-251.063	194.479	0.065	-0.097
-250.049	-18.237	0.162	0.099
-249.034	-61.572	-0.152	0.063
-248.019	635.057	-0.102	0.255
-247.005	-52.688	0.129	-0.058
-245.990	-18.178	-0.067	0.041
-244.976	-33.992	0.203	0.110
-243.961	274.116	0.133	-0.231
-242.946	-200.000	0.012	-0.287
-241.932	-115.848	0.128	-0.024
-240.917	-34.438	-0.110	-0.059
-239.903	-14.958	-0.227	-0.143
-238.888	-102.227	0.059	0.014
-237.873	274.591	-0.132	-0.229
-236.859	-81.344	-0.395	-0.128
-235.844	157.709	-0.015	-0.020
-234.830	279.472	0.098	-0.171
-233.815	-200.000	0.046	-0.221
-232.800	-14.402	0.436	0.275
-231.786	-200.000	-0.047	0.213
-230.771	85.106	0.129	-0.139
-229.757	-67.368	0.048	-0.018
-228.742	37.838	0.353	-0.308
-227.727	-200.000	0.056	0.321
-226.713	800.000	0.054	-0.223
-225.698	-200.000	-0.001	-0.029
-224.684	-5.793	0.140	-0.094
-223.669	-81.030	0.295	-0.096
-222.655	19.888	-0.309	-0.244
-221.640	-178.742	0.434	0.010
-220.625	27.815	-0.171	-0.142
-219.611	-73.851	0.062	0.022
-218.596	156.405	-0.068	0.093
-217.582	800.000	0.088	-0.317
-216.567	-12.783	-0.054	0.034
-215.552	111.834	-0.154	-0.182
-214.538	335.092	-0.095	-0.180
-213.523	88.873	0.199	-0.217
-212.509	-200.000	-0.078	0.357
-211.494	-200.000	0.031	0.360
-210.479	800.000	-0.089	0.307
-209.465	-122.216	0.146	-0.023
-208.450	-171.681	-0.036	0.001
-207.436	800.000	-0.087	0.317
-206.421	-133.135	0.082	0.010
-205.406	428.929	0.063	0.133
-204.392	-102.544	-0.185	-0.043
-203.377	-122.886	-0.106	0.017
-202.363	327.029	-0.074	0.140
-201.348	-137.826	0.126	-0.014
-200.333	-100.030	0.390	0.095
-199.319	-151.841	0.094	0.007
-198.304	-108.755	-0.059	0.012
-197.290	-200.000	0.059	-0.284
-196.275	-200.000	-0.027	-0.295
-195.260	115.515	0.203	0.243
-194.246	134.988	-0.091	0.116
-193.231	-200.000	0.022	0.300
-192.217	674.667	0.088	0.223
-191.202	-123.414	0.269	-0.042
-190.187	178.477	0.266	-0.381
-189.173	800.000	0.122	-0.431
-188.158	-116.012	-0.134	-0.024
-187.144	-166.922	0.153	0.006
-186.129	-200.000	0.032	-0.141
-185.114	398.688	-0.101	-0.207
-184.100	95.359	-0.384	-0.429
-183.085	-142.581	0.212	-0.020
-182.071	448.139	0.199	-0.429
-181.056	-97.382	0.115	0.029
-180.042	800.000	0.155	0.551
-179.027	800.000	0.031	-0.125
-178.012	139.493	-0.148	0.191
-176.998	-63.622	-0.159	-0.064
-175.983	-130.148	0.219	0.029
-174.969	530.564	-0.041	-0.095
-173.954	27.340	0.184	0.151
-172.939	652.881	0.128	0.320
-171.925	-119.147	-0.310	0.053
-170.910	-131.060	-0.298	-0.039
-169.896	-9.809	-0.162	-0.106
-168.881	78.716	-0.201	-0.211
-167.866	317.680	0.107	-0.198
-166.852	-73.073	-0.216	0.078
-165.837	800.000	0.089	-0.252
-164.823	742.387	-0.168	0.442
-163.808	212.249	-0.100	-0.154
-162.793	32.971	-0.151	0.128
-161.779	175.243	-0.057	0.081
-160.764	-77.507	0.194	-0.066
-159.750	221.234	0.100	0.157
-158.735	20.578	0.041	0.032
-157.720	111.588	-0.235	-0.278
-156.706	800.000	0.074	-0.311
-155.691	-200.000	0.032	0.264
-154.677	73.738	0.074	-0.076
-153.662	187.408	0.126	0.184
-152.647	-147.925	0.090	0.007
-151.633	-200.000	-0.030	-0.200
-150.618	-200.000	-0.005	-0.146
-149.604	-29.028	-0.332	-0.186
-148.589	-61.480	-0.200	-0.082
-147.574	45.461	-0.158	-0.143
-146.560	-200.000	-0.053	0.310
-145.545	-12.454	0.295	-0.189
-144.531	325.209	0.111	0.208
-143.516	800.000	-0.027	0.093
-142.502	-200.000	-0.362	-0.001
-141.487	800.000	0.114	-0.338
-140.472	279.355	0.179	-0.313
-139.458	-98.089	-0.286	0.072
-138.443	207.693	0.135	-0.205
-137.429	-200.000	0.071	0.459
-136.414	-2.911	0.097	-0.067
-135.399	800.000	-0.032	0.125
-134.385	273.654	0.229	0.395
-133.370	-80.526	0.272	-0.089
-132.356	75.371	0.041	-0.042
-131.341	-127.469	-0.248	0.035
-130.326	15.192	0.288	-0.221
-129.312	-71.190	0.286	-0.105
-128.297	91.553	0.312	-0.343
-127.283	-8.658	0.195	-0.128
-126.268	95.342	-0.051	-0.057
-125.253	-130.650	-0.175	0.023
-124.239	-86.821	-0.076	-0.023
-123.224	-96.702	0.023	-0.006
-122.210	-118.467	-0.365	0.063
-121.195	-102.330	-0.176	0.041
-120.180	-42.812	0.060	-0.030
-119.166	78.255	0.117	0.122
-118.151	-200.000	0.136	-0.607
-117.137	-14.200	-0.304	0.192
-116.122	-3.633	-0.272	-0.185
-115.107	280.319	0.113	0.197
-114.093	102.021	0.328	0.374
-113.078	104.518	-0.051	-0.058
-112.064	-8.508	-0.117	-0.077
-111.049	-77.201	-0.123	0.042
-110.034	-200.000	-0.069	-0.400
-109.020	-157.369	-0.158	0.009
-108.005	-200.000	0.002	0.023
-106.991	800.000	0.011	0.031
-105.976	408.990	0.086	-0.178
-104.962	-136.962	-0.236	-0.026
-103.947	-81.068	-0.325	-0.105
-102.932	-200.000	-0.033	-0.163
-101.918	-200.000	-0.040	0.191
-100.903	-109.639	-0.533	-0.110
-99.889	82.555	0.088	0.094
-98.874	-47.997	-0.224	-0.106
-97.859	27.156	0.155	0.127
-96.845	-200.000	-0.031	-0.148
-95.830	-200.000	0.001	0.491
-94.816	-200.000	-0.021	-0.178
-93.801	-87.368	-0.248	0.073
-92.786	-123.040	-0.111	-0.017
-91.772	-154.417	-0.108	0.007
-90.757	-200.000	-0.051	0.221
-89.743	36.786	-0.267	0.230
-88.728	-131.658	-0.099	0.013
-87.713	223.934	0.204	0.322
-86.699	-38.532	0.141	0.073
-85.684	-97.703	-0.233	-0.059
-84.670	28.525	0.320	0.264
-83.655	351.584	0.217	0.418
-82.640	-68.873	-0.249	-0.094
-81.626	16.822	0.197	0.152
-80.611	-78.455	0.418	0.140
-79.597	-200.000	-0.028	-0.139
-78.582	800.000	-0.067	0.207
-77.567	87.235	-0.080	0.087
-76.553	-74.679	0.069	-0.024
-75.538	101.046	-0.200	0.227
-74.524	186.827	0.107	0.156
-73.509	800.000	0.137	0.442
-72.494	-44.467	0.182	-0.089
-71.480	800.000	0.067	-0.208
-70.465	-79.869	0.275	-0.090
-69.451	-200.000	0.024	-0.343
-68.436	-141.220	0.206	0.020
-67.422	-48.115	-0.451	0.212
-66.407	124.847	-0.120	0.147
-65.392	-55.477	0.304	-0.133
-64.378	-157.041	0.129	0.008
-63.363	-195.110	-0.050	-0.000
-62.349	54.222	-0.153	0.144
-61.334	6.599	-1.280	-0.927
-60.319	290.704	0.437	0.773
-59.305	800.000	-0.403	-1.319
-58.290	543.521	0.681	1.584
-57.276	628.714	0.465	1.145
-56.261	-200.000	119.274	609.329
-55.246	405.929	1531.432	3148.469
-54.232	147.516	2690.424	3530.689
-53.217	90.743	2263.532	2471.048
-52.203	33.734	1878.934	1592.111
-51.188	28.309	1675.896	1379.291
-50.173	26.063	1635.776	1329.682
-49.159	44.667	1700.675	1523.310
-48.144	43.436	1713.974	1525.870
-47.130	27.788	1667.070	1367.904
-46.115	25.287	1652.278	1337.106
-45.100	25.118	1647.938	1332.287
-44.086	25.152	1644.894	1330.022
-43.071	25.134	1642.342	1327.777
-42.057	25.064	1640.041	1325.341
-41.042	25.143	1638.246	1324.426
-40.027	25.182	1636.198	1323.004
-39.013	25.166	1633.987	1321.046
-37.998	25.087	1632.957	1319.581
-36.984	25.185	1631.330	1318.935
-35.969	25.234	1629.624	1317.858
-34.954	25.326	1628.032	1317.195
-33.940	25.297	1626.669	1315.830
-32.925	25.327	1625.086	1314.718
-31.911	25.279	1623.329	1312.894
-30.896	25.345	1621.537	1311.874
-29.881	25.354	1620.018	1310.656
-28.867	25.333	1618.247	1309.016
-27.852	25.298	1617.327	1307.968
-26.838	25.267	1615.981	1306.601
-25.823	25.360	1614.613	1306.118
-24.809	25.396	1613.466	1305.403
-23.794	25.259	1611.973	1303.150
-22.779	25.288	1610.514	1302.125
-21.765	25.373	1608.738	1301.255
-20.750	25.383	1606.770	1299.682
-19.736	25.230	1606.476	1298.286
-18.721	25.472	1604.425	1298.328
-17.706	25.385	1603.255	1296.702
-16.692	25.393	1601.400	1295.208
-15.677	25.308	1600.364	1293.704
-14.663	25.266	1598.990	1292.238
-13.648	25.363	1597.450	1291.645
-12.633	25.366	1595.993	1290.437
-11.619	25.287	1594.402	1288.526
-10.604	25.310	1593.033	1287.533
-9.590	25.424	1591.500	1287.062
-8.575	25.345	1590.815	1285.892
-7.560	25.351	1589.203	1284.578
-6.546	25.405	1588.230	1284.133
-5.531	25.388	1587.049	1283.005
-4.517	25.342	1586.233	1281.966
-3.502	25.280	1584.946	1280.432
-2.487	25.412	1583.014	1279.760
-1.473	24.930	1570.743	1266.381
-0.458	21.766	1551.240	1228.472
0.556	16.509	1551.799	1196.011
1.571	14.144	1574.546	1196.443
2.586	13.804	1586.212	1202.733
3.600	12.703	1533.166	1154.695
4.615	7.107	1428.079	1038.818
5.629	1.369	1368.640	959.320
6.644	0.280	1361.365	947.296
7.659	0.155	1360.717	945.973
8.673	0.135	1359.170	944.690
9.688	0.090	1357.195	942.949
10.702	-0.052	1353.840	939.651
11.717	2.830	1358.091	960.568
12.731	9.950	1368.631	1012.715
13.746	15.513	1376.601	1053.515
14.761	16.904	1377.776	1063.050
15.775	16.196	1375.599	1056.843
16.790	15.135	1373.182	1048.257
17.804	14.412	1370.924	1041.917
18.819	14.160	1369.080	1038.850
19.834	13.808	1368.506	1036.129
20.848	13.684	1366.789	1033.964
21.863	13.380	1365.480	1030.987
22.877	13.227	1364.443	1029.159
23.892	13.185	1363.385	1028.008
24.907	13.137	1362.690	1027.094
25.921	13.184	1361.929	1026.722
26.936	13.224	1360.963	1026.153
27.950	13.236	1359.993	1025.404
28.965	13.254	1359.272	1024.884
29.980	13.257	1358.610	1024.308
30.994	13.339	1357.294	1023.735
32.009	13.333	1356.585	1023.072
33.023	13.421	1355.118	1022.418
34.038	13.283	1354.295	1020.854
35.053	13.316	1352.416	1019.555
36.067	13.333	1351.629	1018.975
37.082	13.270	1351.076	1018.079
38.096	13.323	1350.037	1017.531
39.111	13.369	1348.629	1016.664
40.126	13.320	1348.188	1015.939
41.140	13.233	1347.030	1014.447
42.155	13.148	1347.017	1013.824
43.169	13.130	1347.005	1013.613
44.184	13.161	1346.346	1013.220
45.199	13.191	1345.304	1012.528
46.213	13.178	1345.309	1012.361
47.228	13.166	1344.602	1011.667
48.242	13.175	1343.052	1010.469
49.257	13.245	1341.686	1009.779
50.271	13.222	1340.069	1008.332
51.286	13.268	1338.984	1007.705
52.301	13.268	1337.738	1006.679
53.315	13.193	1337.269	1005.781
54.330	13.229	1335.918	1004.894
55.344	13.146	1334.845	1003.491
56.359	13.148	1333.626	1002.501
57.374	13.120	1332.754	1001.588
58.388	13.113	1332.083	1000.954
59.403	13.149	1331.522	1000.657
60.417	13.166	1330.813	1000.140
61.432	13.089	1329.606	998.682
62.447	13.048	1329.040	997.920
63.461	13.010	1327.660	996.563
64.476	13.083	1326.777	996.252
65.490	13.042	1325.355	994.848
66.505	13.040	1323.771	993.561
67.520	13.181	1322.382	993.281
68.534	13.021	1321.460	991.539
69.549	13.085	1320.834	991.362
70.563	13.106	1319.240	990.207
71.578	13.152	1318.231	989.640
72.593	13.057	1317.142	988.161
73.607	13.066	1316.579	987.709
74.622	12.980	1315.847	986.556
75.636	12.961	1315.183	985.860
76.651	12.980	1314.479	985.357
77.666	12.961	1313.956	984.761
78.680	13.029	1313.183	984.504
79.695	13.069	1312.436	984.092
80.709	13.145	1311.562	983.806
81.724	13.084	1310.959	982.903
82.739	13.192	1309.834	982.612
83.753	13.221	1309.085	982.139
84.768	13.170	1307.870	980.835
85.782	13.293	1306.917	980.765
86.797	13.262	1305.512	979.440
87.812	13.185	1304.333	978.015
88.826	13.140	1303.535	977.060
89.841	13.251	1302.122	976.574
90.855	13.352	1300.842	976.123
91.870	13.308	1300.238	975.322
92.884	13.335	1299.355	974.733
93.899	13.323	1298.831	974.184
94.914	13.379	1297.803	973.655
95.928	13.429	1296.885	973.174
96.943	13.363	1296.097	972.108
97.957	13.279	1295.307	970.938
98.972	13.341	1293.906	970.163
99.987	13.280	1293.329	969.289
101.001	13.301	1292.232	968.503
102.016	13.197	1291.406	967.188
103.030	13.269	1290.958	967.191
104.045	13.318	1289.467	966.274
105.060	13.430	1287.738	965.545
106.074	13.132	1286.973	963.149
107.089	13.072	1285.553	961.655
108.103	13.186	1284.272	961.273
109.118	13.080	1283.144	959.727
110.133	13.131	1281.953	959.048
111.147	13.229	1280.474	958.424
112.162	13.174	1279.309	957.150
113.176	13.270	1278.063	956.686
114.191	13.265	1277.501	956.154
115.206	13.278	1276.227	955.188
116.220	13.146	1275.341	953.683
117.235	13.252	1273.697	952.980
118.249	13.245	1273.112	952.417
119.264	13.238	1271.680	951.220
120.279	13.149	1271.138	950.220
121.293	13.163	1269.568	949.041
122.308	13.109	1268.958	948.188
123.322	13.129	1267.582	947.195
124.337	13.154	1266.996	946.818
125.352	13.211	1265.539	945.968
126.366	13.187	1264.471	944.950
127.381	13.169	1263.413	943.973
128.395	13.231	1262.338	943.442
129.410	13.222	1261.236	942.483
130.424	13.178	1260.847	941.858
131.439	13.204	1259.483	940.903
132.454	13.227	1258.323	940.083
133.468	13.236	1257.481	939.423
134.483	13.282	1256.600	938.939
135.497	13.214	1255.855	937.916
136.512	13.241	1254.333	936.850
137.527	13.185	1253.653	935.940
138.541	13.239	1251.670	934.686
139.556	13.287	1250.216	933.786
140.570	13.260	1250.064	933.438
141.585	13.393	1248.836	933.191
142.600	13.365	1247.633	932.050
143.614	13.424	1247.080	931.888
144.629	13.298	1245.832	930.164
145.643	13.391	1244.563	929.655
146.658	13.339	1243.635	928.586
147.673	13.329	1241.970	927.209
148.687	13.446	1240.446	926.643
149.702	13.377	1239.210	925.250
150.716	13.330	1237.611	923.712
151.731	13.309	1236.500	922.684
152.746	13.437	1235.332	922.442
153.760	13.397	1234.223	921.314
154.775	13.464	1233.105	920.768
155.789	13.456	1232.649	920.305
156.804	13.432	1231.121	918.946
157.819	13.491	1230.008	918.361
158.833	13.496	1229.265	917.755
159.848	13.468	1228.204	916.723
160.862	13.632	1227.328	916.899
161.877	13.585	1225.405	915.119
162.892	13.412	1225.215	913.940
163.906	13.481	1224.015	913.349
164.921	13.499	1222.991	912.599
165.935	13.434	1222.486	911.788
166.950	13.498	1222.003	911.699
167.964	13.560	1220.899	911.131
168.979	13.508	1220.404	910.396
169.994	13.501	1219.392	909.524
171.008	13.491	1218.953	909.061
172.023	13.605	1217.667	908.645
173.037	13.653	1216.192	907.730
174.052	13.631	1215.790	907.228
175.067	13.681	1214.529	906.481
176.081	13.521	1213.855	905.020
177.096	13.477	1213.316	904.298
178.110	13.552	1211.765	903.475
179.125	13.662	1210.754	903.238
180.140	13.653	1209.304	902.031
181.154	13.651	1207.895	900.888
182.169	13.641	1207.251	900.272
183.183	13.720	1205.855	899.580
184.198	13.648	1205.026	898.494
185.213	13.789	1203.774	898.242
186.227	13.834	1202.615	897.543
187.242	13.790	1201.827	896.638
188.256	13.824	1200.667	895.878
189.271	13.759	1199.749	894.760
190.286	13.811	1198.920	894.341
191.300	13.579	1198.143	892.434
192.315	13.582	1197.304	891.745
193.329	13.708	1196.863	892.020
194.344	13.682	1195.969	891.135
195.359	13.670	1195.931	890.963
196.373	13.613	1195.499	890.256
197.388	13.891	1194.404	890.852
198.402	13.905	1193.997	890.542
199.417	13.903	1193.424	890.029
200.432	14.099	1192.209	890.090
201.446	14.075	1191.671	889.483
202.461	14.034	1190.463	888.286
203.475	14.098	1189.733	887.999
204.490	13.978	1188.210	886.144
205.504	13.993	1187.167	885.369
206.519	14.083	1185.946	884.861
207.534	14.056	1184.585	883.625
208.548	13.998	1183.914	882.737
209.563	13.946	1183.658	882.192
210.577	14.066	1182.318	881.750
211.592	14.023	1181.280	880.671
212.607	14.108	1180.768	880.661
213.621	14.079	1179.760	879.677
214.636	14.156	1178.861	879.338
215.650	14.309	1177.883	879.337
216.665	14.193	1177.033	878.016
217.680	14.234	1176.403	877.684
218.694	14.156	1175.776	876.726
219.709	14.333	1174.446	876.588
220.723	14.292	1173.845	875.844
221.738	14.297	1173.152	875.277
222.753	14.289	1172.425	874.616
223.767	14.241	1171.918	873.910
224.782	14.288	1171.593	873.837
225.796	14.300	1170.578	873.065
226.811	14.368	1169.765	872.736
227.826	14.290	1169.186	871.820
228.840	14.371	1168.660	871.776
229.855	14.376	1167.702	871.006
230.869	14.322	1167.012	870.131
231.884	14.401	1165.857	869.609
232.899	14.392	1164.942	868.804
233.913	14.404	1164.307	868.316
234.928	14.356	1163.923	867.701
235.942	14.265	1163.019	866.477
236.957	14.328	1162.172	866.094
237.972	14.404	1161.574	865.970
238.986	14.243	1161.147	864.736
240.001	14.329	1160.141	864.360
241.015	14.445	1159.154	864.147
242.030	14.578	1158.378	864.183
243.045	14.485	1157.989	863.332
244.059	14.350	1156.939	861.777
245.074	14.435	1156.144	861.547
246.088	14.439	1155.274	860.845
247.103	14.524	1154.320	860.495
248.117	14.626	1153.672	860.459
249.132	14.583	1153.357	859.926
250.147	14.693	1151.806	859.260
251.161	14.728	1151.303	858.989
252.176	14.756	1150.984	858.819
253.190	14.818	1150.435	858.651
254.205	14.686	1149.933	857.523
255.220	14.843	1148.980	857.544
256.234	14.895	1148.514	857.385
257.249	15.016	1147.414	857.109
258.263	14.903	1146.803	855.997
259.278	14.970	1146.181	855.803
260.293	14.792	1145.937	854.634
261.307	14.973	1145.535	855.181
262.322	14.932	1144.675	854.256
263.336	14.988	1144.002	853.965
264.351	15.025	1143.463	853.678
265.366	15.083	1142.685	853.317
266.380	14.939	1142.360	852.261
267.395	15.079	1140.814	851.746
268.409	15.027	1140.467	851.146
269.424	14.959	1140.020	850.392
270.439	15.009	1139.378	850.093
271.453	15.009	1138.362	849.261
272.468	15.046	1137.276	848.563
273.482	15.015	1136.659	847.871
274.497	15.091	1136.155	847.802
275.512	15.016	1135.688	846.999
276.526	15.085	1134.823	846.631
277.541	15.066	1134.096	845.912
278.555	15.081	1133.609	845.554
279.570	15.193	1132.911	845.524
280.585	15.036	1132.241	844.156
281.599	15.191	1130.974	843.919
282.614	15.199	1129.975	843.135
283.628	15.174	1128.969	842.188
284.643	15.177	1128.144	841.513
285.657	15.242	1127.103	840.985
286.672	15.245	1126.450	840.440
287.687	15.314	1125.500	840.002
288.701	15.210	1124.851	838.924
289.716	15.341	1123.955	838.835
290.730	15.264	1123.720	838.199
291.745	15.334	1122.778	837.772
292.760	15.376	1122.059	837.372
293.774	15.330	1121.460	836.625
294.789	15.443	1120.806	836.625
295.803	15.464	1120.020	836.069
296.818	15.444	1119.707	835.663
297.833	15.512	1118.800	835.249
298.847	15.402	1117.861	833.926
299.862	15.439	1117.088	833.461
300.876	15.444	1116.349	832.862
301.891	15.389	1116.238	832.431
302.906	15.579	1114.810	832.235
303.920	15.440	1115.006	831.618
304.935	15.610	1113.995	831.630
305.949	15.621	1113.449	831.205
306.964	15.645	1112.784	830.753
307.979	15.685	1111.349	829.803
308.993	15.639	1110.845	829.127
310.008	15.675	1110.544	829.009
311.022	15.772	1109.488	828.623
312.037	15.694	1108.659	827.550
313.052	15.611	1107.966	826.550
314.066	15.557	1106.937	825.441
315.081	15.592	1105.898	824.767
316.095	15.680	1105.345	824.714
317.110	15.637	1104.479	823.784
318.125	15.687	1103.558	823.266
319.139	15.687	1103.192	822.921
320.154	15.615	1102.664	822.106
321.168	15.616	1102.012	821.550
322.183	15.765	1101.481	821.810
323.197	15.575	1101.089	820.518
324.212	15.832	1100.304	821.111
325.227	15.770	1099.541	820.167
326.241	15.799	1099.147	819.942
327.256	15.808	1097.808	818.917
328.270	15.745	1097.164	818.056
329.285	15.711	1096.373	817.231
330.300	15.718	1095.386	816.455
331.314	15.703	1094.625	815.741
332.329	15.750	1093.511	815.067
333.343	15.848	1092.211	814.499
334.358	15.979	1091.515	814.543
335.373	15.959	1091.197	814.135
336.387	15.904	1090.185	813.043
337.402	15.866	1089.473	812.258
338.416	15.915	1089.011	812.079
339.431	16.006	1088.362	811.959
340.446	15.985	1087.887	811.434
341.460	16.076	1087.198	811.286
342.475	16.129	1086.001	810.578
343.489	16.099	1084.952	809.578
344.504	16.138	1084.226	809.154
345.519	16.127	1083.646	808.594
346.533	16.049	1083.145	807.773
347.548	16.209	1081.888	807.532
348.562	16.258	1081.440	807.358
349.577	16.198	1080.460	806.272
350.592	16.099	1080.221	805.546
351.606	16.204	1079.184	805.204
352.621	16.127	1078.425	804.200
353.635	16.153	1077.554	803.602
354.650	16.188	1076.953	803.251
355.665	16.208	1076.269	802.763
356.679	16.162	1075.829	802.147
357.694	16.291	1075.602	802.518
358.708	16.211	1074.884	801.532
359.723	16.299	1073.824	801.088
360.738	16.300	1073.127	800.505
361.752	16.352	1072.942	800.538
362.767	16.318	1072.515	799.989
363.781	16.239	1072.124	799.251
364.796	16.374	1071.136	799.085
365.810	16.349	1070.720	798.587
366.825	16.474	1069.976	798.551
367.840	16.556	1069.059	798.183
368.854	16.590	1068.715	798.013
369.869	16.495	1068.059	797.005
370.883	16.621	1066.818	796.603
371.898	16.515	1066.467	795.772
372.913	16.432	1066.238	795.143
373.927	16.492	1065.321	794.668
374.942	16.645	1064.706	794.858
375.956	16.527	1064.658	794.197
376.971	16.677	1063.742	794.147
377.986	16.719	1063.062	793.767
379.000	16.753	1062.309	793.295
380.015	16.661	1062.268	792.763
381.029	16.697	1061.472	792.267
382.044	16.785	1060.432	791.829
383.059	16.876	1059.549	791.528
384.073	16.750	1059.274	790.661
385.088	16.820	1058.275	790.172
386.102	16.795	1057.346	789.294
387.117	16.832	1056.465	788.739
388.132	16.779	1055.513	787.713
389.146	16.758	1054.821	787.027
390.161	16.900	1053.848	786.890
391.175	16.795	1053.559	786.118
392.190	16.836	1052.840	785.703
393.205	16.852	1052.242	785.262
394.219	16.829	1051.331	784.403
395.234	16.874	1050.377	783.830
396.248	16.740	1049.663	782.609
397.263	16.852	1048.322	782.057
398.278	16.891	1047.387	781.471
399.292	16.804	1046.976	780.694
400.307	16.874	1046.416	780.530
401.321	16.895	1045.579	779.933
402.336	16.877	1045.429	779.671
403.350	16.942	1044.264	779.032
404.365	16.908	1043.719	778.399
405.380	17.001	1042.701	777.998
406.394	17.043	1041.874	777.506
407.409	16.986	1041.643	777.003
408.423	17.007	1040.823	776.416
409.438	17.152	1040.151	776.509
410.453	17.140	1039.318	775.764
411.467	17.201	1038.517	775.376
412.482	17.164	1038.434	775.077
413.496	17.151	1037.480	774.239
414.511	17.300	1036.923	774.433
415.526	17.268	1036.804	774.128
416.540	17.282	1036.373	773.801
417.555	17.317	1035.932	773.564
418.569	17.300	1035.066	772.774
419.584	17.376	1034.380	772.535
420.599	17.238	1034.089	771.625
421.613	107.266	1327.196	1483.797
422.628	98.299	1369.847	1483.876
