DTS Sentinel unit serial number:	SN413079Multiplexer serial number:	ORYXHardware model number:	OX4-SRSoftware version number:	ORYX F/W v4.00 Oryx Data Collector v3.7.2.0data status	okinstallation	princeton_trtdifferential loss correction	single-endedforward channel	channel 2reverse channel	N/Adate	2019/09/14time	21:27:34forward acquisition time	60.00reverse acquisition time	0.00gamma	496.2192k internal	0.2323k external	0.2323temperature offset calibration	1.0074default loss term (dB/km)	0.3790temperature slope calibration	1.0000multiplexer offset coefficient	1.0000multiplexer slope coefficient	1.0000fibre end	0.00T internal ref (°C)	32.87T ext. ref 1 (°C)	4.77T ext. ref 2 (°C)	27.73length (m)	temperature (°C)	Stokes	anti-Stokes-747.200	15.258	-0.195	0.154
-746.185	-200.000	0.022	0.220
-745.171	-200.000	-0.003	0.128
-744.156	-200.000	0.049	0.271
-743.142	-46.636	0.164	-0.081
-742.127	57.806	0.243	0.240
-741.112	-89.820	0.134	-0.040
-740.098	219.752	-0.108	0.175
-739.083	-49.760	-0.171	0.082
-738.069	-1.970	-0.171	0.121
-737.054	33.121	0.215	0.188
-736.039	87.911	-0.117	0.131
-735.025	-200.000	0.016	-0.126
-734.010	199.542	0.154	0.238
-732.996	800.000	-0.042	-0.162
-731.981	189.852	0.109	-0.165
-730.966	800.000	0.019	0.061
-729.952	-67.977	-0.159	-0.063
-728.937	-12.286	-0.180	-0.119
-727.923	80.794	0.059	-0.064
-726.908	800.000	-0.128	-0.465
-725.894	800.000	-0.065	0.219
-724.879	-13.775	-0.263	-0.172
-723.864	-104.809	-0.332	0.077
-722.850	-63.952	-0.453	-0.187
-721.835	116.433	-0.108	-0.133
-720.821	-47.662	-0.117	0.058
-719.806	28.457	0.080	0.068
-718.791	100.416	0.092	-0.108
-717.777	300.448	0.032	0.060
-716.762	-103.034	0.194	-0.046
-715.748	800.000	-0.085	-0.309
-714.733	-144.063	0.125	0.012
-713.718	576.784	0.176	-0.433
-712.704	6.773	-0.189	0.142
-711.689	359.853	-0.172	0.347
-710.675	-200.000	0.033	0.231
-709.660	-4.291	0.198	0.138
-708.645	-178.188	-0.027	-0.001
-707.631	225.871	0.110	-0.180
-706.616	-107.959	0.050	-0.011
-705.602	97.890	-0.169	-0.196
-704.587	69.421	-0.314	-0.326
-703.572	-200.000	0.015	0.075
-702.558	-105.392	-0.288	-0.066
-701.543	95.898	-0.049	-0.056
-700.529	381.381	0.114	-0.236
-699.514	-200.000	0.047	0.306
-698.499	165.586	-0.152	-0.216
-697.485	334.029	0.086	-0.168
-696.470	-60.628	0.128	-0.055
-695.456	-115.399	0.140	-0.027
-694.441	272.159	-0.112	0.199
-693.426	163.817	-0.157	0.222
-692.412	301.959	0.042	-0.078
-691.397	-200.000	0.004	0.106
-690.383	800.000	0.053	-0.212
-689.368	-107.508	-0.250	0.055
-688.354	-200.000	-0.048	-0.272
-687.339	-126.106	-0.346	0.052
-686.324	636.353	-0.047	-0.120
-685.310	110.692	-0.195	-0.237
-684.295	-110.244	0.094	-0.020
-683.281	-56.624	-0.091	0.041
-682.266	-86.668	-0.063	0.020
-681.251	288.853	-0.094	-0.171
-680.237	88.344	-0.063	-0.070
-679.222	-200.000	-0.012	0.222
-678.208	-65.078	0.366	0.149
-677.193	-128.732	0.297	0.042
-676.178	11.479	-0.190	-0.147
-675.164	800.000	-0.081	0.243
-674.149	367.475	0.057	0.116
-673.135	-127.799	0.286	-0.042
-672.120	64.602	0.013	-0.013
-671.105	-125.538	0.495	-0.076
-670.091	-63.020	0.113	0.047
-669.076	-2.472	-0.162	-0.114
-668.062	406.048	0.134	-0.284
-667.047	171.039	-0.103	-0.149
-666.032	-78.055	-0.174	0.060
-665.018	13.190	0.073	-0.057
-664.003	492.255	-0.059	-0.136
-662.989	527.364	-0.027	0.064
-661.974	357.286	-0.120	-0.240
-660.959	-200.000	0.021	-0.243
-659.945	-58.150	0.144	0.063
-658.930	-95.490	-0.353	-0.095
-657.916	-81.186	-0.197	-0.066
-656.901	-196.101	0.035	0.000
-655.886	787.841	0.052	0.143
-654.872	800.000	-0.087	-0.360
-653.857	65.125	-0.128	0.131
-652.843	800.000	0.021	0.060
-651.828	64.273	0.152	-0.154
-650.814	-200.000	0.003	0.092
-649.799	-62.572	-0.218	-0.091
-648.784	800.000	0.028	-0.116
-647.770	-35.938	-0.266	-0.145
-646.755	-136.608	0.223	0.026
-645.741	-29.923	-0.385	-0.221
-644.726	-5.499	-0.134	0.092
-643.711	-7.568	0.105	-0.071
-642.697	55.484	0.337	0.328
-641.682	24.297	0.303	-0.251
-640.668	327.066	0.060	0.117
-639.653	-200.000	-0.057	0.280
-638.638	33.959	0.218	0.191
-637.624	312.138	0.119	0.224
-636.609	-105.559	0.288	-0.066
-635.595	-200.000	0.002	-0.127
-634.580	37.992	-0.146	-0.130
-633.565	157.191	0.202	0.281
-632.551	-46.843	0.240	-0.118
-631.536	-11.715	-0.201	-0.133
-630.522	-200.000	-0.026	0.221
-629.507	191.744	0.318	-0.482
-628.492	-44.552	0.121	-0.061
-627.478	-92.683	-0.144	-0.041
-626.463	-107.610	0.302	0.066
-625.449	-200.000	-0.009	-0.113
-624.434	-200.000	0.076	-0.339
-623.419	80.617	-0.015	-0.016
-622.405	-162.049	0.206	-0.010
-621.390	-200.000	0.028	-0.319
-620.376	78.497	-0.078	-0.084
-619.361	800.000	0.133	-0.473
-618.346	-121.369	0.237	-0.040
-617.332	-79.584	0.126	-0.043
-616.317	-121.302	0.228	0.038
-615.303	-75.652	0.275	-0.098
-614.288	-200.000	0.006	-0.047
-613.273	-44.343	0.196	-0.099
-612.259	167.637	0.067	-0.095
-611.244	-41.035	-0.158	-0.082
-610.230	-200.000	0.045	0.263
-609.215	141.967	-0.171	0.227
-608.201	64.612	0.210	0.212
-607.186	-200.000	-0.015	-0.265
-606.171	-200.000	-0.024	-0.207
-605.157	-54.633	0.219	-0.100
-604.142	-65.702	0.083	-0.033
-603.128	-200.000	-0.039	0.289
-602.113	-80.609	0.508	0.170
-601.098	-132.948	0.203	0.026
-600.084	800.000	0.086	0.291
-599.069	-200.000	0.065	0.320
-598.055	800.000	-0.049	-0.137
-597.040	-200.000	-0.012	0.206
-596.025	800.000	-0.040	-0.128
-595.011	-36.164	-0.264	-0.143
-593.996	-37.043	0.197	-0.106
-592.982	-162.726	-0.179	-0.009
-591.967	219.527	-0.143	0.230
-590.952	335.799	-0.190	-0.371
-589.938	264.053	0.079	0.138
-588.923	-88.640	0.129	-0.038
-587.909	-200.000	0.019	0.133
-586.894	-137.954	0.232	-0.026
-585.879	-82.535	0.124	-0.040
-584.865	4.203	0.265	0.195
-583.850	468.741	-0.134	0.301
-582.836	800.000	0.091	0.313
-581.821	794.305	-0.105	0.291
-580.806	-200.000	0.011	0.265
-579.792	-173.454	-0.111	0.003
-578.777	-80.114	-0.391	0.131
-577.763	-37.020	-0.085	0.045
-576.748	-16.464	0.201	0.128
-575.733	-140.945	-0.309	0.032
-574.719	800.000	0.048	0.146
-573.704	-98.130	0.282	0.073
-572.690	-0.981	0.180	-0.128
-571.675	-115.309	0.042	-0.008
-570.661	-84.992	-0.063	0.020
-569.646	-200.000	-0.050	-0.252
-568.631	-152.557	-0.306	-0.022
-567.617	19.150	-0.212	0.171
-566.602	17.072	0.156	0.124
-565.588	-70.105	-0.142	0.054
-564.573	-18.251	0.347	0.218
-563.558	800.000	0.049	0.144
-562.544	-86.232	0.121	0.037
-561.529	79.945	0.090	0.097
-560.515	201.055	0.088	-0.136
-559.500	-125.234	-0.336	-0.052
-558.485	800.000	0.090	0.265
-557.471	-200.000	0.052	-0.268
-556.456	800.000	0.119	0.418
-555.442	-148.162	0.283	-0.023
-554.427	-16.222	0.202	0.128
-553.412	195.496	0.290	-0.441
-552.398	-11.029	-0.098	-0.065
-551.383	-200.000	0.017	0.242
-550.369	-26.121	-0.045	0.027
-549.354	-136.497	-0.173	0.020
-548.339	412.126	0.083	0.177
-547.325	-200.000	-0.011	-0.129
-546.310	12.337	0.199	-0.154
-545.296	-105.690	-0.037	-0.008
-544.281	800.000	-0.028	0.106
-543.266	-142.726	0.218	0.021
-542.252	-52.568	0.071	0.033
-541.237	800.000	-0.123	-0.357
-540.223	-200.000	0.005	0.116
-539.208	-6.121	-0.164	-0.112
-538.193	-180.489	-0.238	-0.005
-537.179	132.521	0.071	0.092
-536.164	-129.187	0.114	0.016
-535.150	-152.564	0.361	-0.026
-534.135	-102.622	-0.432	-0.103
-533.121	-200.000	0.045	-0.215
-532.106	-145.499	-0.127	0.011
-531.091	503.239	0.081	0.187
-530.077	176.307	0.154	-0.224
-529.062	407.899	-0.074	-0.156
-528.048	80.664	0.092	-0.100
-527.033	-200.000	0.114	-0.593
-526.018	114.883	-0.091	0.111
-525.004	36.819	0.176	0.156
-523.989	800.000	0.034	-0.097
-522.975	143.549	-0.036	0.048
-521.960	34.436	-0.117	0.102
-520.945	98.508	0.119	0.138
-519.931	67.828	0.275	-0.281
-518.916	-64.606	-0.142	0.057
-517.902	-200.000	-0.055	0.287
-516.887	-82.880	-0.371	0.120
-515.872	-17.387	-0.060	-0.038
-514.858	716.925	0.123	0.328
-513.843	-131.585	-0.234	0.031
-512.829	-12.727	0.200	0.130
-511.814	800.000	-0.045	0.177
-510.799	192.978	0.258	-0.390
-509.785	-68.019	-0.084	0.033
-508.770	-200.000	0.047	0.255
-507.756	53.902	0.243	0.234
-506.741	-200.000	0.010	-0.239
-505.726	87.834	0.079	0.087
-504.712	316.190	0.059	0.112
-503.697	216.580	-0.196	-0.312
-502.683	800.000	0.045	0.157
-501.668	-100.686	-0.284	0.070
-500.653	800.000	-0.025	0.096
-499.639	-84.228	-0.169	0.053
-498.624	223.928	-0.074	0.120
-497.610	342.991	0.093	0.182
-496.595	89.530	-0.045	0.050
-495.581	-34.233	-0.378	-0.208
-494.566	307.149	-0.060	0.112
-493.551	240.557	-0.012	-0.019
-492.537	-200.000	-0.068	-0.305
-491.522	-83.943	-0.396	0.126
-490.508	-87.760	-0.086	-0.026
-489.493	576.020	-0.094	-0.229
-488.478	-158.272	0.075	-0.004
-487.464	-200.000	0.079	0.427
-486.449	-97.617	-0.367	-0.095
-485.435	-200.000	0.097	-0.450
-484.420	-66.216	-0.084	-0.033
-483.405	-129.599	0.088	0.012
-482.391	161.793	0.048	-0.067
-481.376	-200.000	0.058	0.278
-480.362	53.792	-0.086	-0.082
-479.347	-16.278	0.161	-0.102
-478.332	-170.758	-0.248	0.009
-477.318	-138.406	0.243	0.027
-476.303	160.698	-0.103	0.144
-475.289	-131.422	-0.047	0.006
-474.274	138.553	0.019	0.024
-473.259	800.000	0.059	-0.177
-472.245	-200.000	0.047	0.316
-471.230	424.836	-0.065	0.139
-470.216	-200.000	-0.061	-0.505
-469.201	130.832	-0.081	0.104
-468.186	295.807	0.062	-0.113
-467.172	86.586	0.136	-0.150
-466.157	-64.496	-0.234	-0.095
-465.143	-110.272	-0.201	-0.042
-464.128	11.680	0.137	-0.105
-463.113	347.660	0.099	-0.195
-462.099	40.005	0.228	0.204
-461.084	181.856	-0.052	0.077
-460.070	-119.479	-0.213	-0.037
-459.055	-112.195	-0.154	0.031
-458.040	-200.000	0.017	0.173
-457.026	624.027	-0.022	0.056
-456.011	-200.000	-0.017	-0.175
-454.997	55.153	0.102	0.099
-453.982	-87.704	-0.124	0.037
-452.968	240.911	-0.073	-0.121
-451.953	-46.594	0.240	0.118
-450.938	-145.594	0.232	0.021
-449.924	-96.173	0.402	0.106
-448.909	-200.000	0.020	0.174
-447.895	21.553	0.191	-0.155
-446.880	665.283	0.060	0.156
-445.865	-146.759	-0.146	0.013
-444.851	-165.796	0.341	0.015
-443.836	-142.742	-0.194	-0.019
-442.822	-33.349	-0.065	-0.036
-441.807	81.503	0.056	0.061
-440.792	277.985	-0.024	0.042
-439.778	9.263	0.166	-0.125
-438.763	332.397	0.215	-0.415
-437.749	-24.980	-0.159	0.094
-436.734	24.844	0.267	0.220
-435.719	81.610	0.237	0.256
-434.705	-16.187	-0.241	0.153
-433.690	147.178	0.303	0.406
-432.676	-50.711	0.172	-0.081
-431.661	208.984	-0.052	0.080
-430.646	72.155	-0.365	-0.380
-429.632	-52.687	0.370	0.170
-428.617	-47.722	-0.261	-0.126
-427.603	648.907	0.044	0.113
-426.588	135.135	-0.100	0.130
-425.573	-200.000	-0.001	-0.172
-424.559	-70.551	0.168	-0.064
-423.544	131.358	-0.306	0.392
-422.530	104.740	0.047	-0.055
-421.515	-200.000	0.001	-0.224
-420.500	-75.101	-0.150	-0.053
-419.486	-200.000	0.025	-0.256
-418.471	326.844	-0.107	0.204
-417.457	-21.731	-0.375	-0.228
-416.442	414.807	0.054	0.115
-415.428	-200.000	0.038	-0.270
-414.413	-24.653	-0.212	-0.125
-413.398	4.430	0.160	-0.117
-412.384	-31.260	-0.126	0.071
-411.369	800.000	-0.016	0.061
-410.355	-200.000	0.009	0.144
-409.340	9.774	-0.262	-0.198
-408.325	433.253	-0.128	-0.277
-407.311	-117.488	0.158	-0.029
-406.296	93.503	0.058	-0.066
-405.282	105.728	0.218	-0.257
-404.267	-81.697	0.133	-0.043
-403.252	147.704	0.047	-0.063
-402.238	-109.322	-0.223	-0.047
-401.223	363.542	0.094	0.189
-400.209	-142.787	0.227	-0.022
-399.194	40.179	-0.160	-0.143
-398.179	724.694	-0.038	-0.100
-397.165	228.262	-0.085	-0.139
-396.150	61.992	-0.219	0.218
-395.136	-200.000	0.006	0.277
-394.121	-200.000	0.027	-0.208
-393.106	-100.063	-0.357	-0.089
-392.092	-102.346	-0.224	0.053
-391.077	-15.082	-0.181	0.115
-390.063	257.981	0.073	0.126
-389.048	-200.000	-0.002	0.155
-388.033	626.392	-0.011	-0.028
-387.019	-69.744	0.417	-0.159
-386.004	333.708	-0.079	0.153
-384.990	800.000	0.092	-0.323
-383.975	-95.283	-0.086	0.023
-382.960	528.047	-0.084	0.198
-381.946	-75.856	0.220	0.078
-380.931	328.098	-0.136	0.259
-379.917	-144.360	0.319	-0.030
-378.902	-73.126	-0.129	-0.047
-377.888	38.991	0.123	-0.110
-376.873	-200.000	-0.011	-0.237
-375.858	-169.702	-0.283	0.010
-374.844	-147.038	0.149	0.013
-373.829	-122.983	0.176	0.028
-372.815	-72.415	-0.123	-0.045
-371.800	28.569	0.126	0.106
-370.785	-178.041	-0.247	-0.006
-369.771	207.421	0.064	-0.100
-368.756	-200.000	-0.012	0.100
-367.742	-15.839	0.264	0.167
-366.727	-45.819	0.271	0.133
-365.712	800.000	0.128	-0.400
-364.698	-40.970	0.135	-0.070
-363.683	-200.000	-0.008	-0.093
-362.669	215.388	-0.065	-0.103
-361.654	-19.595	0.271	-0.167
-360.639	-103.441	-0.360	0.084
-359.625	-125.591	0.180	-0.027
-358.610	-71.237	-0.355	0.132
-357.596	49.101	0.099	-0.092
-356.581	-52.964	0.179	0.082
-355.566	639.511	0.079	-0.199
-354.552	394.219	-0.125	0.260
-353.537	-24.655	-0.308	0.182
-352.523	44.036	0.155	-0.141
-351.508	307.855	-0.082	0.152
-350.493	-16.109	-0.194	-0.123
-349.479	704.140	-0.081	0.212
-348.464	115.172	-0.090	0.110
-347.450	-71.954	0.197	0.073
-346.435	-200.000	-0.052	-0.236
-345.420	65.160	-0.158	-0.158
-344.406	-146.113	-0.076	0.007
-343.391	-200.000	0.029	-0.131
-342.377	105.331	0.096	-0.113
-341.362	-43.406	-0.169	0.085
-340.348	800.000	0.044	-0.168
-339.333	-149.163	-0.099	-0.008
-338.318	25.908	0.141	0.117
-337.304	-200.000	0.003	-0.275
-336.289	-96.590	0.247	0.065
-335.275	43.026	-0.230	-0.208
-334.260	-40.842	-0.092	0.047
-333.245	-61.216	0.072	-0.030
-332.231	800.000	-0.080	-0.302
-331.216	-126.416	0.240	-0.035
-330.202	242.248	0.165	-0.275
-329.187	108.962	0.126	0.150
-328.172	349.245	0.059	0.116
-327.158	-2.436	-0.075	0.052
-326.143	-189.799	-0.350	0.004
-325.129	-47.689	-0.039	0.019
-324.114	-110.722	-0.176	-0.036
-323.099	-127.101	-0.400	-0.058
-322.085	-200.000	-0.035	-0.164
-321.070	800.000	-0.017	-0.049
-320.056	354.770	0.086	-0.169
-319.041	800.000	-0.048	0.171
-318.026	518.227	0.059	-0.137
-317.012	-72.847	0.215	0.079
-315.997	-70.856	0.157	0.059
-314.983	500.331	0.137	-0.315
-313.968	-200.000	0.039	0.495
-312.953	800.000	-0.036	0.104
-311.939	266.682	-0.237	-0.411
-310.924	-87.547	-0.239	-0.072
-309.910	-200.000	-0.012	0.150
-308.895	-98.157	0.036	-0.009
-307.880	338.468	0.179	0.345
-306.866	800.000	-0.034	0.121
-305.851	800.000	0.131	0.455
-304.837	-100.664	-0.059	-0.014
-303.822	33.516	-0.187	0.161
-302.807	-101.397	-0.321	0.078
-301.793	-72.946	-0.050	-0.018
-300.778	800.000	-0.071	-0.215
-299.764	-200.000	0.005	0.071
-298.749	-50.699	-0.124	-0.058
-297.735	-13.899	-0.054	0.035
-296.720	-200.000	0.023	-0.116
-295.705	-200.000	-0.051	0.294
-294.691	-181.026	0.490	0.010
-293.676	800.000	-0.100	0.287
-292.662	85.503	-0.207	-0.225
-291.647	-157.088	0.099	-0.006
-290.632	800.000	-0.025	-0.078
-289.618	267.160	-0.069	-0.120
-288.603	91.365	-0.102	0.114
-287.589	-105.047	0.123	-0.028
-286.574	115.527	0.202	0.245
-285.559	-200.000	0.005	-0.088
-284.545	-141.179	0.208	0.021
-283.530	292.979	-0.106	-0.192
-282.516	221.668	-0.101	0.161
-281.501	-39.589	-0.194	-0.101
-280.486	-77.166	0.061	-0.021
-279.472	-200.000	-0.028	0.343
-278.457	35.043	-0.252	0.219
-277.443	-7.412	-0.158	-0.106
-276.428	-200.000	0.025	0.233
-275.413	-3.679	-0.206	0.142
-274.399	-5.689	-0.122	-0.083
-273.384	-14.247	0.057	-0.037
-272.370	-200.000	-0.020	-0.120
-271.355	166.489	0.150	-0.211
-270.340	800.000	0.041	-0.153
-269.326	-200.000	0.007	-0.258
-268.311	-200.000	-0.010	-0.195
-267.297	800.000	-0.070	0.267
-266.282	-200.000	-0.041	0.332
-265.267	-127.511	0.204	-0.029
-264.253	317.167	0.118	-0.221
-263.238	-200.000	-0.011	-0.159
-262.224	-197.798	-0.402	-0.002
-261.209	88.128	-0.150	-0.165
-260.195	13.567	0.136	-0.105
-259.180	564.316	0.081	-0.195
-258.165	800.000	-0.082	-0.246
-257.151	20.445	-0.060	-0.048
-256.136	94.408	-0.126	-0.141
-255.122	26.879	-0.148	0.123
-254.107	-21.542	-0.084	0.051
-253.092	25.122	0.100	0.082
-252.078	14.039	-0.249	-0.192
-251.063	-200.000	0.017	-0.160
-250.049	-200.000	0.027	0.332
-249.034	-79.757	-0.145	-0.048
-248.019	-120.422	-0.272	0.046
-247.005	508.410	-0.048	-0.110
-245.990	-180.029	0.463	0.010
-244.976	-200.000	-0.027	0.197
-243.961	26.304	-0.179	-0.148
-242.946	188.005	-0.049	-0.073
-241.932	88.902	0.282	-0.310
-240.917	-200.000	0.024	0.192
-239.903	-75.101	0.095	-0.034
-238.888	251.587	-0.158	-0.266
-237.873	-200.000	-0.022	0.472
-236.859	-26.715	-0.409	0.237
-235.844	800.000	-0.006	-0.023
-234.830	615.617	0.042	0.104
-233.815	67.940	0.117	0.118
-232.800	-119.220	-0.419	0.072
-231.786	-200.000	-0.030	0.140
-230.771	-200.000	0.022	0.272
-229.757	1.659	-0.212	0.151
-228.742	-200.000	0.023	-0.226
-227.727	708.204	-0.082	-0.214
-226.713	-82.023	-0.115	-0.037
-225.698	166.362	-0.128	-0.179
-224.684	-42.638	0.225	-0.113
-223.669	-200.000	-0.000	0.060
-222.655	195.766	0.209	-0.315
-221.640	233.537	0.080	-0.131
-220.625	-180.253	-0.090	0.002
-219.611	719.518	-0.061	-0.161
-218.596	-200.000	0.031	-0.151
-217.582	-46.816	0.057	0.028
-216.567	-125.559	0.109	-0.016
-215.552	-200.000	-0.032	0.262
-214.538	299.859	-0.115	-0.210
-213.523	-168.900	0.373	-0.014
-212.509	1.173	-0.246	0.175
-211.494	800.000	0.052	-0.150
-210.479	-200.000	-0.019	0.088
-209.465	-200.000	-0.052	-0.265
-208.450	-200.000	-0.037	0.203
-207.436	36.019	-0.256	-0.223
-206.421	-94.051	0.407	-0.110
-205.406	-83.092	0.135	-0.043
-204.392	75.034	0.152	-0.158
-203.377	800.000	0.103	-0.364
-202.363	566.698	0.078	0.188
-201.348	-142.729	0.185	-0.018
-200.333	-200.000	0.081	0.000
-199.319	41.615	-0.393	0.352
-198.304	-168.797	-0.320	-0.012
-197.290	37.170	-0.179	-0.157
-196.275	-10.492	0.087	-0.057
-195.260	274.911	0.174	0.305
-194.246	-118.999	-0.214	0.037
-193.231	86.741	0.251	0.274
-192.217	47.897	0.194	0.180
-191.202	372.782	0.158	0.317
-190.187	-200.000	0.021	-0.318
-189.173	512.427	-0.007	0.016
-188.158	7.729	0.158	0.117
-187.144	1.107	-0.237	0.168
-186.129	800.000	-0.025	-0.107
-185.114	-48.005	0.185	0.088
-184.100	-90.616	0.097	-0.028
-183.085	342.456	0.058	0.112
-182.071	-200.000	-0.002	0.172
-181.056	-76.385	-0.221	-0.077
-180.042	-200.000	-0.017	-0.221
-179.027	-200.000	-0.011	0.099
-178.012	-49.596	-0.275	-0.130
-176.998	-103.346	-0.158	-0.037
-175.983	1.204	-0.259	-0.183
-174.969	85.620	0.074	-0.080
-173.954	-200.000	0.007	0.187
-172.939	-68.468	-0.151	-0.058
-171.925	-149.841	-0.158	0.012
-170.910	275.128	0.160	-0.280
-169.896	223.132	-0.184	-0.294
-168.881	17.350	0.418	0.328
-167.866	-99.139	-0.227	-0.057
-166.852	-95.830	0.364	-0.096
-165.837	193.967	-0.135	-0.202
-164.823	-200.000	0.004	0.105
-163.808	-30.294	-0.362	0.203
-162.793	93.437	-0.264	0.295
-161.779	-122.479	0.213	-0.034
-160.764	-56.336	-0.165	-0.072
-159.750	-200.000	-0.014	-0.219
-158.735	-96.140	0.531	0.139
-157.720	104.918	0.068	0.079
-156.706	-160.506	-0.248	-0.013
-155.691	589.915	-0.124	0.303
-154.677	-174.017	0.065	0.002
-153.662	-200.000	0.010	0.151
-152.647	-53.901	-0.375	0.169
-151.633	-200.000	0.008	0.139
-150.618	800.000	-0.030	-0.124
-149.604	155.889	-0.181	-0.247
-148.589	-62.434	-0.114	0.047
-147.574	69.097	0.128	0.130
-146.560	129.570	0.130	-0.164
-145.545	-105.937	-0.243	0.054
-144.531	5.017	0.174	0.127
-143.516	-63.012	-0.458	-0.186
-142.502	-116.921	0.149	0.027
-141.487	397.808	-0.027	-0.056
-140.472	-74.995	0.149	-0.053
-139.458	-71.960	-0.204	0.075
-138.443	800.000	-0.039	-0.108
-137.429	412.652	0.095	-0.199
-136.414	800.000	0.028	-0.104
-135.399	-4.963	-0.230	-0.156
-134.385	-110.186	0.288	0.059
-133.370	-117.212	0.334	-0.060
-132.356	-112.493	0.385	0.076
-131.341	414.610	0.046	0.096
-130.326	-200.000	0.008	-0.252
-129.312	207.594	0.137	0.211
-128.297	-200.000	-0.010	0.296
-127.283	141.362	0.028	0.036
-126.268	-121.766	-0.063	0.010
-125.253	-200.000	0.011	0.071
-124.239	-77.755	0.146	-0.050
-123.224	68.410	0.173	-0.175
-122.210	-152.810	0.108	0.008
-121.195	-130.111	0.306	0.041
-120.180	-41.565	0.163	0.082
-119.166	-73.595	0.347	-0.125
-118.151	246.350	0.132	-0.219
-117.137	3.684	0.217	-0.156
-116.122	-200.000	-0.014	0.368
-115.107	800.000	0.086	-0.371
-114.093	446.550	0.104	0.226
-113.078	800.000	0.056	-0.226
-112.064	-140.566	-0.219	0.022
-111.049	15.117	-0.068	0.053
-110.034	39.572	-0.151	-0.133
-109.020	-200.000	0.002	0.165
-108.005	190.190	-0.151	0.223
-106.991	372.900	-0.049	0.099
-105.976	-200.000	0.020	-0.246
-104.962	800.000	0.110	-0.355
-103.947	800.000	0.021	0.077
-102.932	35.702	-0.027	0.024
-101.918	-128.751	0.127	-0.018
-100.903	-162.282	-0.237	-0.012
-99.889	779.566	0.078	-0.211
-98.874	-90.540	0.293	0.083
-97.859	800.000	-0.120	0.375
-96.845	174.326	-0.081	-0.115
-95.830	-189.160	0.477	0.006
-94.816	60.769	-0.112	-0.109
-93.801	103.876	-0.125	-0.145
-92.786	-200.000	-0.011	-0.424
-91.772	219.161	-0.170	0.268
-90.757	737.377	0.029	-0.077
-89.743	-200.000	0.021	0.152
-88.728	39.993	-0.200	0.176
-87.713	-82.169	0.114	0.036
-86.699	-79.728	-0.095	-0.031
-85.684	8.147	0.109	0.081
-84.670	202.895	0.006	0.010
-83.655	-200.000	-0.035	-0.360
-82.640	7.931	0.125	-0.092
-81.626	-45.782	-0.304	-0.148
-80.611	-200.000	-0.003	-0.136
-79.597	-81.681	-0.451	-0.146
-78.582	44.471	-0.106	0.096
-77.567	20.691	0.273	0.217
-76.553	153.223	-0.069	0.094
-75.538	-77.840	0.278	-0.094
-74.524	-5.530	0.355	-0.239
-73.509	-200.000	-0.031	0.243
-72.494	-200.000	-0.015	-0.179
-71.480	677.710	-0.103	-0.264
-70.465	800.000	0.055	-0.183
-69.451	-70.695	-0.298	0.111
-68.436	800.000	0.088	0.251
-67.422	430.006	-0.086	-0.183
-66.407	-134.291	-0.285	0.035
-65.392	-57.406	0.172	0.074
-64.378	-29.723	0.120	0.067
-63.363	-164.133	0.213	-0.010
-62.349	-147.936	-0.108	0.009
-61.334	30.142	-1.052	-0.883
-60.319	-89.124	0.437	0.127
-59.305	-200.000	0.077	-0.984
-58.290	194.208	0.660	0.983
-57.276	227.071	0.743	1.186
-56.261	-200.000	95.553	571.535
-55.246	650.810	1378.853	3470.972
-54.232	197.522	2559.203	3840.557
-53.217	113.314	2270.355	2707.695
-52.203	42.184	1895.336	1691.959
-51.188	36.059	1685.789	1458.655
-50.173	33.368	1641.633	1400.518
-49.159	50.634	1686.546	1568.503
-48.144	52.527	1703.569	1598.445
-47.130	35.729	1664.494	1437.530
-46.115	32.903	1650.176	1404.122
-45.100	32.744	1645.221	1398.672
-44.086	32.743	1642.404	1396.218
-43.071	32.754	1639.524	1393.792
-42.057	32.753	1637.493	1392.000
-41.042	32.837	1635.205	1390.625
-40.027	32.767	1633.230	1388.374
-39.013	32.662	1631.774	1386.309
-37.998	32.688	1629.749	1384.723
-36.984	32.759	1629.078	1384.618
-35.969	32.872	1627.801	1384.309
-34.954	32.945	1625.367	1382.715
-33.940	32.940	1623.493	1381.033
-32.925	32.820	1622.303	1379.087
-31.911	32.875	1620.755	1378.119
-30.896	32.874	1618.808	1376.402
-29.881	32.830	1616.672	1374.211
-28.867	32.819	1615.185	1372.813
-27.852	32.870	1613.698	1371.864
-26.838	32.804	1612.920	1370.669
-25.823	32.846	1611.313	1369.552
-24.809	32.886	1609.122	1367.926
-23.794	32.852	1607.781	1366.484
-22.779	32.867	1606.724	1365.639
-21.765	32.838	1605.111	1364.009
-20.750	32.876	1603.157	1362.568
-19.736	32.918	1601.872	1361.725
-18.721	33.027	1600.040	1360.895
-17.706	32.955	1598.888	1359.343
-16.692	32.965	1597.431	1358.128
-15.677	32.822	1596.533	1356.276
-14.663	32.926	1594.645	1355.364
-13.648	32.874	1594.002	1354.394
-12.633	32.950	1591.766	1352.989
-11.619	32.984	1589.833	1351.534
-10.604	33.001	1588.403	1350.384
-9.590	32.960	1587.634	1349.383
-8.575	32.968	1586.589	1348.503
-7.560	32.967	1584.833	1346.946
-6.546	32.944	1583.993	1346.015
-5.531	32.824	1583.213	1344.440
-4.517	32.838	1581.751	1343.251
-3.502	32.806	1581.015	1342.343
-2.487	32.913	1578.607	1341.005
-1.473	32.649	1567.059	1329.280
-0.458	29.892	1547.252	1293.196
0.556	26.303	1547.631	1260.892
1.571	23.921	1571.016	1262.938
2.586	23.281	1584.513	1269.090
3.600	20.649	1530.958	1207.839
4.615	12.594	1422.590	1070.063
5.629	5.904	1358.742	980.274
6.644	4.835	1351.062	968.005
7.659	4.814	1349.406	966.602
8.673	4.631	1349.203	965.233
9.688	4.789	1346.908	964.488
10.702	4.653	1344.676	961.961
11.717	7.713	1350.356	984.917
12.731	15.323	1363.888	1042.159
13.746	19.969	1371.468	1076.823
14.761	19.631	1368.995	1072.689
15.775	18.539	1366.399	1063.784
16.790	17.554	1363.538	1055.367
17.804	16.711	1361.584	1048.538
18.819	16.244	1360.342	1044.601
19.834	16.105	1358.611	1042.324
20.848	15.854	1357.752	1040.021
21.863	15.585	1356.490	1037.298
22.877	15.501	1355.040	1035.583
23.892	15.282	1354.988	1034.097
24.907	15.347	1353.842	1033.536
25.921	15.458	1352.459	1033.072
26.936	15.561	1351.559	1032.924
27.950	15.516	1350.968	1032.104
28.965	15.604	1349.863	1031.712
29.980	15.697	1348.718	1031.315
30.994	15.719	1347.638	1030.530
32.009	15.830	1346.152	1029.981
33.023	15.760	1345.272	1028.790
34.038	15.721	1343.658	1027.225
35.053	15.625	1342.779	1025.876
36.067	15.664	1341.786	1025.265
37.082	15.622	1340.730	1024.112
38.096	15.740	1339.629	1023.902
39.111	15.691	1339.109	1023.116
40.126	15.586	1338.216	1021.705
41.140	15.456	1337.618	1020.362
42.155	15.315	1336.993	1018.943
43.169	15.450	1336.067	1018.968
44.184	15.348	1336.268	1018.410
45.199	15.279	1335.776	1017.527
46.213	15.514	1335.114	1018.358
47.228	15.552	1334.609	1018.112
48.242	15.522	1333.186	1016.755
49.257	15.521	1332.075	1015.812
50.271	15.630	1330.352	1015.062
51.286	15.577	1328.778	1013.453
52.301	15.642	1327.426	1012.726
53.315	15.488	1326.741	1011.187
54.330	15.474	1325.324	1009.931
55.344	15.383	1324.765	1008.868
56.359	15.407	1323.339	1007.838
57.374	15.305	1322.571	1006.551
58.388	15.308	1321.562	1005.713
59.403	15.225	1321.590	1005.149
60.417	15.315	1320.721	1004.939
61.432	15.281	1320.030	1004.118
62.447	15.249	1318.875	1002.961
63.461	15.138	1317.772	1001.372
64.476	15.154	1316.957	1000.757
65.490	15.166	1315.428	999.579
66.505	15.242	1313.924	998.799
67.520	15.209	1312.946	997.770
68.534	15.183	1311.815	996.671
69.549	15.197	1310.658	995.785
70.563	15.215	1309.399	994.849
71.578	15.185	1308.536	993.925
72.593	15.096	1307.178	992.279
73.607	15.047	1306.755	991.580
74.622	15.057	1306.089	991.043
75.636	15.054	1305.389	990.406
76.651	15.225	1304.590	990.728
77.666	15.213	1304.036	990.149
78.680	15.063	1303.708	988.925
79.695	15.224	1302.270	988.693
80.709	15.240	1302.266	988.700
81.724	15.391	1301.480	988.903
82.739	15.502	1300.021	988.364
83.753	15.448	1299.855	987.828
84.768	15.526	1298.769	987.375
85.782	15.704	1297.337	987.247
86.797	15.557	1296.175	985.413
87.812	15.524	1295.295	984.461
88.826	15.560	1293.957	983.568
89.841	15.643	1293.271	983.447
90.855	15.664	1291.975	982.494
91.870	15.582	1291.279	981.400
92.884	15.772	1290.403	981.760
93.899	15.677	1289.455	980.396
94.914	15.735	1288.860	980.193
95.928	15.651	1288.280	979.179
96.943	15.678	1287.203	978.431
97.957	15.617	1286.219	977.242
98.972	15.655	1285.160	976.568
99.987	15.688	1284.118	975.885
101.001	15.671	1282.854	974.739
102.016	15.632	1282.131	973.874
103.030	15.597	1281.742	973.293
104.045	15.597	1280.138	971.989
105.060	15.599	1278.871	970.954
106.074	15.355	1278.115	968.885
107.089	15.350	1276.123	967.256
108.103	15.284	1274.992	965.935
109.118	15.274	1273.624	964.752
110.133	15.201	1272.356	963.289
111.147	15.317	1270.934	962.792
112.162	15.309	1269.701	961.730
113.176	15.344	1269.010	961.318
114.191	15.483	1267.838	961.143
115.206	15.364	1267.177	959.878
116.220	15.383	1265.595	958.705
117.235	15.345	1264.847	957.834
118.249	15.262	1263.914	956.572
119.264	15.320	1262.384	955.654
120.279	15.316	1261.316	954.743
121.293	15.264	1260.556	953.788
122.308	15.165	1259.659	952.462
123.322	15.090	1258.510	951.082
124.337	15.190	1257.190	950.568
125.352	15.146	1256.581	949.774
126.366	15.255	1254.910	949.044
127.381	15.242	1254.128	948.295
128.395	15.130	1253.379	947.008
129.410	15.208	1252.524	946.719
130.424	15.332	1251.669	946.690
131.439	15.324	1250.740	945.859
132.454	15.265	1249.754	944.698
133.468	15.347	1248.918	944.441
134.483	15.308	1248.066	943.495
135.497	15.367	1246.777	942.772
136.512	15.333	1246.050	941.943
137.527	15.433	1244.444	941.209
138.541	15.414	1242.910	939.862
139.556	15.399	1241.870	938.906
140.570	15.449	1241.139	938.547
141.585	15.592	1239.337	937.905
142.600	15.599	1238.344	937.106
143.614	15.740	1237.437	937.125
144.629	15.657	1236.850	936.132
145.643	15.727	1235.313	935.275
146.658	15.579	1234.224	933.550
147.673	15.563	1232.588	932.139
148.687	15.463	1231.603	930.757
149.702	15.526	1229.851	929.697
150.716	15.394	1229.043	928.278
151.731	15.364	1228.142	927.348
152.746	15.558	1226.444	927.053
153.760	15.463	1225.683	925.875
154.775	15.616	1224.396	925.661
155.789	15.615	1223.755	925.092
156.804	15.608	1222.511	924.029
157.819	15.702	1221.747	923.888
158.833	15.799	1220.941	923.729
159.848	15.731	1220.027	922.580
160.862	15.757	1219.228	922.035
161.877	15.570	1218.115	920.088
162.892	15.528	1216.939	918.890
163.906	15.455	1216.091	917.770
164.921	15.516	1214.869	917.100
165.935	15.573	1214.823	917.294
166.950	15.699	1213.396	916.824
167.964	15.606	1212.644	915.667
168.979	15.589	1212.364	915.282
169.994	15.684	1211.328	914.934
171.008	15.659	1210.628	914.193
172.023	15.761	1209.614	913.896
173.037	15.768	1209.131	913.494
174.052	15.779	1208.030	912.638
175.067	15.759	1206.905	911.597
176.081	15.680	1205.815	910.267
177.096	15.649	1205.267	909.605
178.110	15.641	1203.880	908.433
179.125	15.530	1203.440	907.422
180.140	15.590	1202.572	907.011
181.154	15.924	1200.272	906.996
182.169	15.846	1199.276	905.742
183.183	15.901	1198.555	905.416
184.198	15.988	1197.237	904.805
185.213	15.869	1196.196	903.299
186.227	15.840	1195.145	902.275
187.242	15.936	1194.244	902.028
188.256	16.052	1193.117	901.718
189.271	16.063	1192.404	901.155
190.286	15.968	1190.916	899.442
191.300	15.730	1190.059	897.451
192.315	15.607	1189.509	896.297
193.329	15.715	1188.295	895.878
194.344	15.638	1188.366	895.441
195.359	15.760	1187.756	895.554
196.373	15.865	1186.990	895.453
197.388	15.987	1187.145	896.144
198.402	16.122	1186.669	896.420
199.417	16.120	1185.984	895.816
200.432	16.165	1185.084	895.293
201.446	16.280	1183.840	894.883
202.461	16.225	1183.665	894.379
203.475	16.195	1182.430	893.212
204.490	16.140	1181.200	891.913
205.504	16.161	1179.975	891.020
206.519	16.049	1178.756	889.427
207.534	16.214	1177.298	889.116
208.548	16.015	1177.225	887.937
209.563	16.115	1176.212	887.617
210.577	16.274	1175.008	887.470
211.592	16.230	1174.290	886.616
212.607	16.329	1173.366	886.361
213.621	16.361	1172.597	885.867
214.636	16.317	1171.530	884.754
215.650	16.361	1170.699	884.280
216.665	16.341	1170.143	883.675
217.680	16.427	1169.227	883.352
218.694	16.413	1168.192	882.423
219.709	16.512	1167.437	882.288
220.723	16.393	1166.977	881.246
221.738	16.466	1166.092	880.880
222.753	16.449	1165.291	880.108
223.767	16.507	1164.535	879.758
224.782	16.485	1164.249	879.353
225.796	16.612	1163.278	879.200
226.811	16.551	1163.089	878.660
227.826	16.504	1162.198	877.666
228.840	16.462	1161.320	876.708
229.855	16.484	1160.747	876.311
230.869	16.505	1159.773	875.610
231.884	16.533	1159.006	875.098
232.899	16.418	1158.353	873.931
233.913	16.423	1157.429	873.182
234.928	16.386	1156.896	872.512
235.942	16.315	1155.904	871.319
236.957	16.369	1155.318	871.078
237.972	16.426	1154.762	870.879
238.986	16.307	1154.392	869.907
240.001	16.366	1153.264	869.283
241.015	16.411	1152.203	868.640
242.030	16.509	1151.484	868.526
243.045	16.479	1150.791	867.772
244.059	16.417	1150.242	866.964
245.074	16.663	1148.927	867.153
246.088	16.681	1148.237	866.651
247.103	16.793	1147.315	866.450
248.117	16.706	1147.144	865.797
249.132	16.837	1146.565	865.954
250.147	16.937	1145.985	865.952
251.161	16.927	1145.439	865.411
252.176	17.050	1144.373	865.158
253.190	17.066	1143.798	864.727
254.205	17.098	1143.734	864.766
255.220	17.152	1142.640	864.137
256.234	17.176	1141.991	863.688
257.249	17.103	1141.741	863.055
258.263	17.199	1140.773	862.731
259.278	17.164	1140.170	862.021
260.293	17.243	1139.532	861.866
261.307	17.279	1139.047	861.602
262.322	17.285	1138.205	860.919
263.336	17.262	1137.816	860.436
264.351	17.211	1137.170	859.610
265.366	17.301	1136.126	859.202
266.380	17.339	1135.378	858.751
267.395	17.134	1135.349	857.620
268.409	17.225	1134.397	857.285
269.424	17.133	1133.835	856.316
270.439	17.248	1133.229	856.364
271.453	17.259	1132.017	855.430
272.468	17.142	1131.120	854.087
273.482	17.108	1130.281	853.208
274.497	17.190	1129.820	853.195
275.512	17.088	1129.523	852.384
276.526	17.249	1128.558	852.388
277.541	17.247	1127.452	851.463
278.555	17.300	1127.045	851.348
279.570	17.369	1126.573	851.262
280.585	17.447	1125.468	850.741
281.599	17.456	1124.733	850.155
282.614	17.410	1123.435	848.872
283.628	17.357	1122.355	847.712
284.643	17.314	1121.426	846.726
285.657	17.315	1120.521	845.968
286.672	17.361	1119.784	845.566
287.687	17.377	1118.917	844.920
288.701	17.502	1118.031	844.797
289.716	17.427	1117.239	843.747
290.730	17.455	1116.157	842.995
291.745	17.438	1115.887	842.635
292.760	17.466	1115.467	842.382
293.774	17.589	1114.926	842.504
294.789	17.558	1114.259	841.771
295.803	17.589	1113.360	841.173
296.818	17.393	1113.450	840.201
297.833	17.476	1112.273	839.646
298.847	17.640	1110.888	839.333
299.862	17.491	1110.507	838.240
300.876	17.492	1109.956	837.752
301.891	17.602	1109.326	837.746
302.906	17.772	1108.284	837.719
303.920	17.792	1107.829	837.400
304.935	17.657	1107.755	836.604
305.949	17.964	1106.528	837.111
306.964	17.868	1106.070	836.220
307.979	17.843	1105.510	835.597
308.993	17.816	1104.706	834.784
310.008	17.799	1104.265	834.293
311.022	17.864	1103.260	833.778
312.037	17.901	1102.052	832.974
313.052	17.800	1101.180	831.750
314.066	17.782	1099.894	830.617
315.081	17.667	1099.401	829.612
316.095	17.646	1098.528	828.777
317.110	17.610	1098.140	828.233
318.125	17.628	1097.625	827.863
319.139	17.632	1096.760	827.156
320.154	17.669	1096.056	826.730
321.168	17.720	1095.580	826.545
322.183	17.689	1094.766	825.710
323.197	17.687	1094.498	825.423
324.212	17.804	1093.503	825.166
325.227	17.845	1092.715	824.697
326.241	17.856	1092.037	824.163
327.256	17.787	1091.542	823.385
328.270	17.868	1090.373	822.820
329.285	17.774	1089.495	821.631
330.300	17.837	1088.612	821.195
331.314	17.763	1087.949	820.269
332.329	17.842	1086.801	819.710
333.343	17.869	1086.144	819.271
334.358	17.886	1085.402	818.722
335.373	17.884	1085.064	818.383
336.387	18.061	1083.893	818.274
337.402	18.073	1083.242	817.770
338.416	18.019	1082.700	817.027
339.431	18.113	1081.915	816.816
340.446	18.197	1081.783	817.046
341.460	18.316	1080.939	816.899
342.475	18.300	1080.120	816.136
343.489	18.337	1079.139	815.497
344.504	18.491	1077.860	815.192
345.519	18.324	1077.237	813.851
346.533	18.449	1076.400	813.745
347.548	18.352	1076.073	812.963
348.562	18.401	1075.444	812.650
349.577	18.342	1074.412	811.517
350.592	18.142	1073.492	809.805
351.606	18.122	1072.908	809.195
352.621	18.173	1072.149	808.793
353.635	18.177	1071.454	808.218
354.650	18.277	1070.771	808.103
355.665	18.134	1069.926	806.717
356.679	18.232	1069.636	806.890
357.694	18.420	1068.766	807.050
358.708	18.291	1068.307	806.023
359.723	18.319	1067.771	805.680
360.738	18.319	1066.814	804.887
361.752	18.423	1066.180	804.824
362.767	18.266	1066.241	804.062
363.781	18.318	1065.448	803.639
364.796	18.410	1064.809	803.513
365.810	18.514	1064.512	803.706
366.825	18.609	1063.415	803.254
367.840	18.797	1062.892	803.667
368.854	18.760	1062.406	803.055
369.869	18.682	1061.845	802.196
370.883	18.740	1060.712	801.541
371.898	18.726	1060.001	800.864
372.913	18.761	1059.359	800.475
373.927	18.672	1059.314	799.952
374.942	18.755	1058.458	799.623
375.956	18.895	1058.131	799.954
376.971	18.801	1057.180	798.731
377.986	18.781	1057.002	798.432
379.000	18.803	1056.615	798.172
380.015	18.985	1055.851	798.366
381.029	18.930	1055.271	797.606
382.044	18.907	1054.651	796.956
383.059	18.949	1053.786	796.429
384.073	19.015	1053.043	796.099
385.088	18.986	1052.378	795.395
386.102	19.033	1050.997	794.499
387.117	18.793	1050.475	792.924
388.132	18.763	1049.335	791.856
389.146	18.842	1048.688	791.661
390.161	18.778	1047.843	790.657
391.175	18.884	1046.992	790.435
392.190	18.938	1046.294	790.085
393.205	18.962	1045.955	789.871
394.219	18.876	1045.401	788.985
395.234	18.977	1044.150	788.438
396.248	18.898	1043.314	787.372
397.263	18.893	1042.202	786.440
398.278	18.799	1041.875	785.695
399.292	18.910	1040.485	785.082
400.307	18.827	1040.261	784.465
401.321	18.868	1039.313	783.868
402.336	18.798	1038.560	782.914
403.350	18.829	1037.779	782.395
404.365	18.963	1037.117	782.438
405.380	18.962	1036.662	782.021
406.394	18.949	1036.027	781.414
407.409	19.187	1034.988	781.640
408.423	19.142	1034.534	781.026
409.438	19.193	1033.791	780.624
410.453	19.255	1033.342	780.496
411.467	19.319	1032.442	780.039
412.482	19.344	1032.069	779.801
413.496	19.376	1031.330	779.320
414.511	19.398	1031.095	779.174
415.526	19.435	1030.560	778.867
416.540	19.415	1030.392	778.578
417.555	19.406	1029.503	777.796
418.569	19.550	1028.898	777.919
419.584	19.442	1028.444	777.021
420.599	19.484	1027.667	776.553
421.613	151.496	1401.130	1793.489
422.628	138.140	1455.534	1793.593
