DTS Sentinel unit serial number:	SN413079Multiplexer serial number:	ORYXHardware model number:	OX4-SRSoftware version number:	ORYX F/W v4.00 Oryx Data Collector v3.7.2.0data status	okinstallation	princeton_trtdifferential loss correction	single-endedforward channel	channel 2reverse channel	N/Adate	2019/09/13time	17:27:35forward acquisition time	60.00reverse acquisition time	0.00gamma	496.2192k internal	0.2311k external	0.2311temperature offset calibration	1.0166default loss term (dB/km)	0.3790temperature slope calibration	1.0000multiplexer offset coefficient	1.0000multiplexer slope coefficient	1.0000fibre end	0.00T internal ref (°C)	36.12T ext. ref 1 (°C)	4.97T ext. ref 2 (°C)	30.34length (m)	temperature (°C)	Stokes	anti-Stokes-747.200	-200.000	-0.052	-0.399
-746.185	170.209	0.088	-0.128
-745.171	-200.000	0.022	0.143
-744.156	119.688	-0.202	0.253
-743.142	-175.807	0.180	-0.005
-742.127	-76.079	-0.180	0.065
-741.112	219.492	0.064	0.103
-740.098	189.253	0.122	0.186
-739.083	-82.664	-0.127	-0.042
-738.069	-200.000	0.016	0.165
-737.054	-200.000	0.038	0.205
-736.039	108.227	-0.247	0.299
-735.025	-50.494	0.161	0.077
-734.010	-57.180	0.071	-0.032
-732.996	-200.000	-0.010	-0.097
-731.981	33.696	0.115	0.102
-730.966	-74.387	0.126	-0.046
-729.952	77.347	0.121	0.130
-728.937	-153.805	-0.478	-0.033
-727.923	-87.480	-0.265	-0.082
-726.908	2.311	-0.192	0.141
-725.894	-25.378	0.138	-0.083
-724.879	-200.000	-0.021	-0.147
-723.864	800.000	0.066	-0.275
-722.850	-69.259	-0.209	-0.082
-721.835	91.761	-0.149	-0.170
-720.821	-20.123	-0.378	-0.237
-719.806	800.000	0.107	0.423
-718.791	678.715	-0.012	0.031
-717.777	-12.661	0.165	-0.109
-716.762	-116.577	0.232	-0.043
-715.748	-45.217	-0.460	-0.232
-714.733	-200.000	-0.014	-0.068
-713.718	800.000	0.179	-0.568
-712.704	-24.726	0.268	0.161
-711.689	25.277	-0.076	0.064
-710.675	-200.000	-0.024	0.122
-709.660	23.257	-0.331	-0.276
-708.645	-200.000	0.033	-0.363
-707.631	724.691	-0.065	0.174
-706.616	644.736	0.174	-0.450
-705.602	-21.213	-0.242	-0.150
-704.587	569.393	-0.107	-0.264
-703.572	126.359	-0.049	0.063
-702.558	-200.000	-0.021	-0.130
-701.543	-70.009	0.232	-0.090
-700.529	-103.100	-0.402	-0.097
-699.514	-51.103	0.264	0.125
-698.499	689.950	0.139	-0.368
-697.485	-61.317	-0.204	-0.087
-696.470	34.198	-0.040	0.036
-695.456	37.676	-0.197	-0.177
-694.441	-200.000	0.029	-0.187
-693.426	-35.066	0.188	-0.104
-692.412	242.494	-0.042	-0.071
-691.397	-149.676	0.157	-0.013
-690.383	-200.000	0.019	-0.105
-689.368	214.413	0.066	-0.106
-688.354	-126.526	-0.325	-0.049
-687.339	158.689	-0.206	-0.289
-686.324	800.000	0.128	-0.494
-685.310	108.467	-0.174	0.210
-684.295	-80.933	0.269	0.090
-683.281	-62.120	-0.269	0.113
-682.266	-121.564	-0.247	-0.042
-681.251	-58.026	0.160	-0.071
-680.237	140.836	0.057	0.076
-679.222	-93.170	-0.351	-0.099
-678.208	-87.561	-0.385	-0.118
-677.193	-17.236	0.194	0.124
-676.178	-10.292	-0.169	-0.114
-675.164	-25.695	0.114	0.068
-674.149	38.910	-0.146	-0.132
-673.135	-200.000	-0.059	-0.406
-672.120	800.000	-0.081	-0.243
-671.105	-200.000	-0.003	-0.078
-670.091	49.732	0.084	-0.080
-669.076	-200.000	-0.053	0.351
-668.062	441.976	0.039	0.086
-667.047	78.826	0.105	-0.114
-666.032	-155.100	0.083	0.005
-665.018	-200.000	-0.025	-0.156
-664.003	486.604	0.150	-0.346
-662.989	220.626	0.181	0.293
-661.974	-106.997	-0.237	0.053
-660.959	30.768	-0.206	0.178
-659.945	374.782	0.065	0.134
-658.930	211.087	-0.019	-0.030
-657.916	28.123	-0.288	0.246
-656.901	-184.661	0.040	0.001
-655.886	16.807	0.196	-0.157
-654.872	-87.348	0.360	0.111
-653.857	-55.527	-0.166	0.075
-652.843	-47.199	-0.269	0.132
-651.828	-42.959	-0.262	-0.134
-650.814	-52.115	0.264	-0.124
-649.799	130.770	0.072	-0.094
-648.784	13.908	-0.279	-0.220
-647.770	121.866	-0.052	-0.066
-646.755	-83.711	-0.160	-0.052
-645.741	-67.026	-0.298	-0.119
-644.726	748.096	0.099	0.270
-643.711	-122.527	-0.297	-0.049
-642.697	161.986	0.062	-0.087
-641.682	11.089	0.337	0.260
-640.668	-24.419	-0.221	-0.133
-639.653	352.939	-0.118	-0.238
-638.638	-140.617	-0.348	-0.036
-637.624	-200.000	-0.016	0.383
-636.609	800.000	0.141	-0.398
-635.595	-200.000	0.013	0.265
-634.580	-200.000	-0.097	0.459
-633.565	-32.833	0.232	-0.130
-632.551	800.000	-0.093	-0.266
-631.536	480.994	0.083	-0.191
-630.522	19.055	0.026	0.021
-629.507	-120.159	0.135	-0.023
-628.492	-154.999	0.135	0.009
-627.478	-82.725	-0.085	-0.028
-626.463	-119.242	-0.189	-0.033
-625.449	46.673	0.317	0.298
-624.434	784.405	0.096	0.266
-623.419	-200.000	0.038	0.195
-622.405	427.041	-0.062	0.135
-621.390	79.137	0.074	0.080
-620.376	-76.863	0.137	0.048
-619.361	-145.844	-0.234	-0.021
-618.346	-160.103	-0.330	0.018
-617.332	175.798	-0.111	0.162
-616.317	37.831	-0.107	0.096
-615.303	102.579	-0.095	-0.112
-614.288	-79.952	-0.149	-0.051
-613.273	-200.000	-0.037	-0.186
-612.259	249.799	-0.059	-0.101
-611.244	72.939	0.124	-0.130
-610.230	-95.865	-0.152	-0.041
-609.215	20.226	-0.094	-0.077
-608.201	-30.212	-0.320	-0.183
-607.186	-123.054	-0.191	0.031
-606.171	57.876	-0.056	-0.055
-605.157	-94.245	0.186	-0.051
-604.142	228.813	-0.102	-0.169
-603.128	-200.000	-0.001	-0.138
-602.113	-3.967	-0.123	0.086
-601.098	-200.000	-0.016	0.180
-600.084	128.557	0.111	0.143
-599.069	800.000	-0.103	-0.306
-598.055	-114.647	-0.288	-0.056
-597.040	14.311	-0.196	-0.154
-596.025	587.114	0.051	-0.128
-595.011	-9.928	0.081	-0.054
-593.996	-71.822	-0.052	-0.020
-592.982	-200.000	0.018	-0.216
-591.967	-105.540	0.064	0.015
-590.952	-61.583	0.101	-0.043
-589.938	296.914	0.100	0.186
-588.923	547.062	-0.119	0.286
-587.909	-110.233	-0.182	0.038
-586.894	268.497	0.146	0.259
-585.879	-200.000	-0.008	0.114
-584.865	-200.000	-0.021	-0.244
-583.850	-200.000	-0.009	-0.160
-582.836	376.997	-0.106	-0.219
-581.821	-15.400	0.120	0.078
-580.806	-27.124	0.193	-0.114
-579.792	51.598	-0.056	-0.053
-578.777	-83.089	-0.126	-0.041
-577.763	-104.336	-0.172	-0.040
-576.748	-65.230	-0.132	-0.054
-575.733	344.420	0.077	-0.152
-574.719	36.670	-0.081	0.072
-573.704	800.000	-0.043	0.147
-572.690	7.961	0.140	-0.106
-571.675	228.044	0.083	0.137
-570.661	-83.507	0.095	-0.031
-569.646	-30.768	-0.145	0.083
-568.631	76.452	0.047	0.051
-567.617	53.547	0.051	-0.049
-566.602	-111.181	0.267	0.055
-565.588	15.457	-0.212	-0.168
-564.573	116.910	0.285	0.353
-563.558	84.006	-0.042	-0.046
-562.544	6.638	0.153	-0.115
-561.529	-114.830	0.107	0.021
-560.515	157.650	-0.157	0.220
-559.500	131.530	0.212	0.275
-558.485	-200.000	-0.019	-0.085
-557.471	273.712	-0.180	0.321
-556.456	69.151	0.192	-0.199
-555.442	-134.537	0.250	-0.031
-554.427	708.610	0.094	-0.250
-553.412	28.062	0.093	0.079
-552.398	-113.098	0.110	-0.022
-551.383	800.000	-0.026	-0.081
-550.369	43.902	-0.127	-0.117
-549.354	-90.678	0.335	0.097
-548.339	-51.751	0.097	0.045
-547.325	-7.322	0.194	0.132
-546.310	97.917	0.170	0.197
-545.296	109.410	0.068	0.082
-544.281	800.000	0.080	-0.288
-543.266	-178.238	0.171	0.004
-542.252	800.000	0.066	0.247
-541.237	-125.130	0.186	0.029
-540.223	-10.614	0.202	-0.134
-539.208	120.006	0.273	-0.341
-538.193	-180.479	0.199	-0.004
-537.179	223.759	-0.184	-0.299
-536.164	-175.908	-0.365	0.010
-535.150	-10.682	-0.186	0.124
-534.135	-67.268	0.316	0.125
-533.121	-152.427	0.139	-0.010
-532.106	13.672	0.213	0.167
-531.091	-200.000	0.251	-0.001
-530.077	-200.000	0.037	0.000
-529.062	350.194	-0.055	0.110
-528.048	-23.246	-0.352	0.213
-527.033	-58.141	0.359	0.158
-526.018	-5.309	0.128	-0.089
-525.004	-114.187	-0.151	0.029
-523.989	300.015	-0.078	-0.144
-522.975	-200.000	-0.005	0.342
-521.960	-22.600	-0.137	-0.083
-520.945	65.124	0.092	0.093
-519.931	80.678	-0.068	-0.074
-518.916	800.000	0.037	-0.133
-517.902	-100.509	0.335	0.083
-516.887	235.103	0.203	-0.337
-515.872	-84.461	-0.394	0.125
-514.858	-97.770	0.244	-0.063
-513.843	-63.068	-0.228	-0.095
-512.829	800.000	0.054	-0.172
-511.814	-200.000	-0.140	0.000
-510.799	800.000	0.041	-0.125
-509.785	160.318	-0.194	-0.273
-508.770	800.000	-0.045	0.140
-507.756	59.386	-0.180	-0.178
-506.741	-138.034	0.168	-0.019
-505.726	-105.901	0.131	-0.030
-504.712	-200.000	0.040	-0.286
-503.697	334.382	-0.198	0.385
-502.683	800.000	0.028	-0.113
-501.668	-120.800	-0.024	-0.004
-500.653	377.447	0.075	-0.155
-499.639	15.380	-0.106	0.084
-498.624	624.260	-0.122	0.308
-497.610	-3.882	-0.123	-0.086
-496.595	234.654	0.138	0.229
-495.581	-109.378	-0.123	0.026
-494.566	800.000	0.067	-0.196
-493.551	-6.056	0.038	-0.026
-492.537	-200.000	0.011	0.092
-491.522	-24.778	0.151	-0.090
-490.508	-70.315	0.270	-0.103
-489.493	-143.794	-0.329	-0.031
-488.478	199.229	0.066	-0.101
-487.464	671.399	0.025	0.066
-486.449	222.367	0.195	0.315
-485.435	-48.175	0.329	0.160
-484.420	302.516	-0.210	-0.390
-483.405	224.840	0.183	-0.298
-482.391	9.309	-0.120	0.091
-481.376	-200.000	0.006	-0.034
-480.362	-131.865	-0.407	-0.053
-479.347	199.449	-0.188	0.289
-478.332	-200.000	-0.011	0.062
-477.318	-26.095	0.078	-0.046
-476.303	482.362	-0.094	-0.214
-475.289	-113.085	0.399	-0.079
-474.274	-26.017	0.196	0.116
-473.259	76.234	-0.133	-0.142
-472.245	-61.479	-0.176	0.074
-471.230	-88.346	-0.225	-0.068
-470.216	64.799	-0.193	-0.195
-469.201	800.000	0.086	0.324
-468.186	339.425	-0.207	-0.406
-467.172	46.839	-0.217	-0.203
-466.157	107.633	-0.180	-0.216
-465.143	779.720	0.155	-0.426
-464.128	-200.000	0.066	0.336
-463.113	-22.075	-0.135	0.082
-462.099	-98.655	0.217	0.056
-461.084	-200.000	0.019	-0.189
-460.070	475.380	-0.041	-0.092
-459.055	560.592	0.154	-0.372
-458.040	123.098	0.244	0.307
-457.026	-91.973	0.044	0.013
-456.011	-97.441	-0.125	-0.033
-454.997	120.707	-0.117	-0.146
-453.982	-13.529	-0.201	0.130
-452.968	-54.324	0.027	-0.012
-451.953	-66.726	-0.084	0.033
-450.938	-54.362	-0.261	0.119
-449.924	-200.000	0.020	0.097
-448.909	-34.294	0.058	-0.032
-447.895	459.927	0.082	0.183
-446.880	-97.388	-0.125	-0.033
-445.865	408.539	-0.092	-0.196
-444.851	-107.908	-0.388	0.085
-443.836	375.725	-0.135	0.277
-442.822	-68.019	-0.080	0.031
-441.807	10.885	-0.295	0.226
-440.792	-200.000	0.014	-0.355
-439.778	14.089	-0.169	0.132
-438.763	-63.682	0.223	0.092
-437.749	-41.648	-0.187	0.096
-436.734	-200.000	0.031	-0.539
-435.719	-14.005	0.238	0.154
-434.705	170.976	-0.111	-0.160
-433.690	-200.000	-0.027	-0.159
-432.676	-121.982	0.111	0.018
-431.661	-7.768	0.038	-0.026
-430.646	65.042	-0.048	0.049
-429.632	342.301	-0.084	-0.164
-428.617	-23.168	-0.148	0.089
-427.603	-106.196	-0.160	0.036
-426.588	22.515	0.203	0.166
-425.573	-200.000	0.003	0.306
-424.559	224.390	-0.171	-0.277
-423.544	151.452	0.345	0.470
-422.530	-196.158	0.233	-0.002
-421.515	-90.463	0.408	-0.118
-420.500	-200.000	-0.038	-0.324
-419.486	512.456	-0.083	-0.194
-418.471	717.253	-0.052	-0.138
-417.457	-200.000	0.065	0.346
-416.442	50.470	0.128	0.121
-415.428	86.162	-0.350	0.386
-414.413	-200.000	-0.012	-0.187
-413.398	23.604	0.221	-0.182
-412.384	-65.171	-0.094	0.038
-411.369	-102.337	0.225	0.054
-410.355	39.471	0.122	-0.110
-409.340	170.465	0.183	0.263
-408.325	-139.740	-0.474	-0.050
-407.311	257.399	0.066	-0.114
-406.296	-200.000	0.012	0.074
-405.282	166.039	-0.058	-0.082
-404.267	49.400	0.121	0.114
-403.252	-200.000	-0.012	0.186
-402.238	-37.216	0.388	0.208
-401.223	650.597	0.087	-0.223
-400.209	780.130	0.039	-0.107
-399.194	43.198	0.167	0.153
-398.179	43.437	-0.073	-0.067
-397.165	81.368	0.181	-0.196
-396.150	-92.196	0.110	-0.031
-395.136	-15.473	-0.501	-0.320
-394.121	252.085	-0.114	0.194
-393.106	251.378	-0.045	-0.076
-392.092	1.321	0.182	0.131
-391.077	141.102	0.149	-0.197
-390.063	-52.365	-0.215	-0.100
-389.048	-65.478	0.211	-0.085
-388.033	-46.369	-0.172	-0.085
-387.019	-22.109	0.063	0.038
-386.004	-104.210	0.052	-0.012
-384.990	144.244	0.070	0.093
-383.975	-140.140	-0.120	0.013
-382.960	-113.864	0.153	0.030
-381.946	101.730	-0.062	0.073
-380.931	4.488	0.239	0.175
-379.917	48.896	0.333	-0.312
-378.902	-131.359	-0.280	0.037
-377.888	800.000	0.092	0.323
-376.873	23.833	0.167	-0.138
-375.858	800.000	-0.081	0.249
-374.844	-23.818	0.053	-0.032
-373.829	-200.000	-0.012	0.196
-372.815	56.215	0.244	0.237
-371.800	800.000	0.037	0.131
-370.785	800.000	0.050	0.139
-369.771	431.943	0.101	0.219
-368.756	-200.000	-0.004	0.205
-367.742	75.529	0.127	0.134
-366.727	170.895	-0.107	-0.154
-365.712	-200.000	-0.020	0.355
-364.698	459.626	0.083	0.185
-363.683	56.995	0.083	0.081
-362.669	-3.952	0.186	0.129
-361.654	290.956	0.152	0.276
-360.639	800.000	0.061	0.203
-359.625	61.251	0.119	-0.118
-358.610	401.431	0.134	-0.281
-357.596	-53.068	-0.358	0.164
-356.581	2.537	0.041	0.029
-355.566	-118.890	-0.486	-0.085
-354.552	-38.433	0.159	0.084
-353.537	158.754	-0.290	-0.403
-352.523	800.000	-0.107	-0.390
-351.508	-50.938	-0.114	-0.054
-350.493	-200.000	0.008	-0.188
-349.479	-137.182	0.186	-0.021
-348.464	800.000	-0.040	-0.118
-347.450	59.604	0.063	0.063
-346.435	-200.000	-0.249	-0.000
-345.420	-93.280	-0.581	0.161
-344.406	2.353	0.260	0.188
-343.391	800.000	-0.151	-0.455
-342.377	-134.563	0.398	-0.049
-341.362	-182.001	-0.117	-0.002
-340.348	-144.248	0.189	-0.018
-339.333	145.400	-0.159	-0.213
-338.318	-200.000	0.049	0.221
-337.304	49.212	0.168	0.158
-336.289	-155.535	0.296	0.019
-335.275	300.588	0.104	-0.192
-334.260	-188.439	-0.123	0.002
-333.245	-7.493	-0.097	0.066
-332.231	777.585	-0.179	-0.489
-331.216	319.829	0.171	0.323
-330.202	-179.548	-0.397	0.009
-329.187	-97.533	0.211	-0.055
-328.172	56.281	-0.259	0.251
-327.158	-154.207	-0.323	0.022
-326.143	145.983	0.011	-0.015
-325.129	208.489	0.159	0.249
-324.114	-31.071	-0.331	-0.187
-323.099	-52.202	-0.491	0.227
-322.085	-36.870	0.068	0.037
-321.070	-200.000	0.010	0.067
-320.056	-116.242	-0.158	-0.029
-319.041	-200.000	-0.002	0.456
-318.026	302.636	0.108	-0.200
-317.012	800.000	0.070	-0.197
-315.997	-71.235	-0.164	0.061
-314.983	161.612	-0.188	-0.262
-313.968	332.761	-0.167	-0.321
-312.953	25.131	0.167	-0.138
-311.939	-114.749	-0.412	0.079
-310.924	77.390	-0.310	-0.329
-309.910	-56.072	-0.332	-0.148
-308.895	-200.000	0.020	0.108
-307.880	800.000	-0.040	-0.167
-306.866	-57.970	0.125	-0.054
-305.851	-200.000	0.007	-0.106
-304.837	-5.152	0.213	0.146
-303.822	-200.000	-0.010	-0.119
-302.807	-83.933	0.138	-0.044
-301.793	150.292	0.199	-0.270
-300.778	-87.779	-0.157	-0.047
-299.764	729.082	-0.121	0.324
-298.749	96.322	0.270	0.308
-297.735	-200.000	0.018	0.260
-296.720	-102.703	0.277	-0.066
-295.705	-23.922	0.173	-0.103
-294.691	-200.000	-0.033	-0.230
-293.676	-28.286	0.223	0.129
-292.662	30.509	0.158	-0.135
-291.647	-200.000	0.020	-0.117
-290.632	44.173	0.415	-0.379
-289.618	18.957	-0.087	-0.069
-288.603	-64.934	0.205	-0.083
-287.589	54.981	-0.134	-0.129
-286.574	-200.000	0.014	0.238
-285.559	123.970	0.245	0.307
-284.545	-49.154	-0.034	0.016
-283.530	206.402	-0.106	-0.165
-282.516	-106.689	0.198	-0.044
-281.501	-45.585	-0.284	-0.140
-280.486	-150.338	-0.189	-0.015
-279.472	800.000	-0.035	0.140
-278.457	-200.000	-0.004	0.047
-277.443	-15.145	-0.170	0.109
-276.428	-70.829	-0.211	-0.079
-275.413	211.221	0.013	0.021
-274.399	99.377	-0.103	0.119
-273.384	66.110	-0.133	0.134
-272.370	152.435	-0.136	-0.185
-271.355	197.203	0.133	-0.203
-270.340	-200.000	-0.004	-0.285
-269.326	67.723	0.109	0.111
-268.311	-40.825	-0.043	0.022
-267.297	-200.000	0.007	0.187
-266.282	-11.532	0.248	0.163
-265.267	-200.000	-0.006	-0.032
-264.253	-171.684	0.244	0.008
-263.238	-103.306	0.155	0.036
-262.224	7.554	-0.255	0.190
-261.209	110.677	0.117	0.140
-260.195	134.808	-0.028	-0.036
-259.180	-200.000	-0.004	-0.254
-258.165	-200.000	0.032	0.187
-257.151	-84.034	0.123	-0.039
-256.136	-11.238	-0.410	0.269
-255.122	-41.361	-0.229	-0.118
-254.107	-200.000	-0.016	-0.216
-253.092	-155.391	-0.247	-0.016
-252.078	-75.940	0.235	-0.083
-251.063	-60.817	0.272	-0.115
-250.049	-26.034	0.257	-0.150
-249.034	800.000	0.013	0.049
-248.019	-112.639	0.295	0.058
-247.005	780.011	0.089	-0.242
-245.990	-200.000	-0.024	-0.119
-244.976	177.262	0.043	-0.063
-243.961	-200.000	0.008	0.043
-242.946	-143.175	0.262	0.025
-241.932	291.858	0.070	0.128
-240.917	217.289	-0.202	0.321
-239.903	-47.661	0.282	0.136
-238.888	474.430	0.085	-0.191
-237.873	-161.148	0.403	0.021
-236.859	-200.000	-0.050	-0.413
-235.844	-200.000	-0.025	-0.255
-234.830	393.746	-0.046	0.095
-233.815	30.744	-0.141	-0.120
-232.800	2.238	-0.130	0.094
-231.786	800.000	-0.112	0.431
-230.771	-61.230	-0.427	0.179
-229.757	714.415	-0.088	0.231
-228.742	-31.423	-0.156	-0.087
-227.727	620.439	0.065	0.163
-226.713	70.319	0.068	-0.070
-225.698	310.911	-0.137	0.255
-224.684	178.758	-0.218	0.318
-223.669	-200.000	-0.011	-0.139
-222.655	50.161	0.027	-0.026
-221.640	-117.232	-0.117	0.021
-220.625	-92.896	-0.186	-0.052
-219.611	-107.445	0.333	-0.073
-218.596	155.065	0.354	0.484
-217.582	697.456	0.043	0.114
-216.567	-97.553	0.329	0.085
-215.552	-100.191	-0.124	-0.031
-214.538	800.000	0.075	-0.213
-213.523	-108.688	-0.271	0.058
-212.509	41.597	0.287	0.258
-211.494	57.024	-0.235	0.228
-210.479	74.230	-0.041	0.043
-209.465	-128.095	-0.138	-0.020
-208.450	106.623	0.102	-0.120
-207.436	-91.565	-0.176	-0.050
-206.421	7.594	0.107	-0.079
-205.406	-200.000	0.010	0.122
-204.392	307.323	0.054	0.099
-203.377	-200.000	-0.001	0.108
-202.363	745.087	0.036	0.096
-201.348	-55.716	0.074	-0.033
-200.333	420.576	0.158	-0.336
-199.319	800.000	0.064	0.207
-198.304	97.543	0.149	0.170
-197.290	-200.000	0.027	-0.132
-196.275	-80.591	-0.145	-0.048
-195.260	4.301	0.587	0.427
-194.246	-200.000	0.025	-0.256
-193.231	10.612	-0.143	0.108
-192.217	-68.889	0.161	-0.062
-191.202	-104.784	0.180	0.041
-190.187	492.329	-0.213	-0.484
-189.173	30.233	-0.120	0.102
-188.158	75.468	0.112	0.117
-187.144	-38.440	-0.076	-0.040
-186.129	-67.906	-0.148	0.057
-185.114	26.431	0.029	0.024
-184.100	50.445	0.174	0.163
-183.085	291.931	-0.085	0.153
-182.071	63.326	0.181	-0.180
-181.056	800.000	-0.050	0.161
-180.042	66.868	-0.178	0.180
-179.027	5.177	-0.120	-0.088
-178.012	22.580	-0.106	-0.086
-176.998	21.892	-0.159	0.129
-175.983	-154.566	0.172	-0.011
-174.969	202.583	0.182	0.279
-173.954	-200.000	-0.015	0.137
-172.939	113.313	0.304	0.366
-171.925	59.284	0.134	-0.131
-170.910	221.254	-0.041	-0.066
-169.896	-200.000	0.036	-0.199
-168.881	-39.287	0.168	-0.088
-167.866	53.582	-0.254	0.242
-166.852	-199.398	-0.286	0.001
-165.837	183.536	-0.137	-0.201
-164.823	43.590	0.114	-0.104
-163.808	406.464	0.070	0.146
-162.793	-80.810	-0.125	0.041
-161.779	0.221	-0.181	0.128
-160.764	-200.000	0.070	-0.365
-159.750	96.880	0.148	-0.168
-158.735	-73.751	0.245	0.089
-157.720	44.129	-0.141	0.128
-156.706	-200.000	0.017	-0.274
-155.691	-104.531	0.114	-0.026
-154.677	43.299	-0.333	-0.301
-153.662	-177.674	-0.257	-0.006
-152.647	-200.000	-0.015	0.147
-151.633	-200.000	-0.196	0.000
-150.618	-200.000	-0.044	0.237
-149.604	-200.000	0.032	0.490
-148.589	191.346	0.102	-0.153
-147.574	-140.360	0.145	0.015
-146.560	-155.619	-0.174	-0.011
-145.545	48.217	-0.171	-0.159
-144.531	800.000	0.042	-0.128
-143.516	325.384	-0.204	0.387
-142.502	-82.412	0.316	-0.102
-141.487	-200.000	0.064	-0.318
-140.472	-200.000	-0.006	0.085
-139.458	-40.187	-0.149	0.077
-138.443	191.452	0.169	0.253
-137.429	800.000	-0.038	0.123
-136.414	-106.663	0.084	0.019
-135.399	34.127	-0.112	0.097
-134.385	570.119	-0.135	0.325
-133.370	-151.137	0.118	0.009
-132.356	-14.030	-0.083	-0.053
-131.341	672.427	0.165	0.423
-130.326	-3.774	0.128	-0.088
-129.312	44.150	-0.174	0.158
-128.297	-23.617	-0.181	0.108
-127.283	23.378	0.207	-0.169
-126.268	-200.000	-0.013	0.091
-125.253	-75.255	-0.252	0.089
-124.239	-114.429	0.238	-0.045
-123.224	516.128	-0.067	0.155
-122.210	-43.548	-0.147	-0.073
-121.195	-42.899	0.214	0.108
-120.180	279.238	-0.078	0.137
-119.166	252.991	0.181	-0.307
-118.151	190.297	0.172	-0.256
-117.137	-11.547	-0.311	-0.203
-116.122	-96.342	-0.342	0.090
-115.107	19.306	0.260	-0.207
-114.093	-41.267	-0.009	0.004
-113.078	-200.000	0.011	-0.147
-112.064	371.357	-0.036	-0.071
-111.049	164.831	-0.090	-0.126
-110.034	-51.370	0.261	0.121
-109.020	-51.420	-0.478	0.221
-108.005	-200.000	-0.024	0.141
-106.991	-200.000	0.011	0.342
-105.976	95.109	0.114	-0.128
-104.962	800.000	0.070	0.198
-103.947	25.015	0.173	-0.142
-102.932	-28.887	0.099	0.056
-101.918	-62.908	-0.238	-0.098
-100.903	-158.675	-0.194	0.011
-99.889	88.314	0.124	-0.136
-98.874	84.452	-0.112	-0.121
-97.859	800.000	-0.053	-0.198
-96.845	94.065	0.168	0.189
-95.830	-86.432	0.186	-0.057
-94.816	34.285	-0.110	-0.095
-93.801	196.251	0.075	0.113
-92.786	75.888	0.098	-0.103
-91.772	800.000	-0.047	0.129
-90.757	-43.825	-0.172	0.086
-89.743	428.566	-0.010	0.022
-88.728	-77.278	-0.314	0.108
-87.713	99.974	0.047	-0.054
-86.699	-200.000	-0.050	0.597
-85.684	115.282	0.163	0.197
-84.670	-38.940	0.240	0.125
-83.655	800.000	0.083	-0.319
-82.640	-200.000	-0.018	0.178
-81.626	-19.552	-0.299	-0.183
-80.611	-163.372	-0.285	-0.013
-79.597	630.135	-0.067	0.169
-78.582	-200.000	-0.014	0.139
-77.567	6.678	0.394	0.290
-76.553	100.848	0.143	0.165
-75.538	800.000	0.063	-0.201
-74.524	-25.907	0.448	-0.261
-73.509	-200.000	-0.052	-0.296
-72.494	-200.000	0.020	0.148
-71.480	123.077	0.195	0.242
-70.465	-158.824	-0.233	-0.013
-69.451	-10.891	-0.298	-0.195
-68.436	-6.250	-0.167	0.113
-67.422	-200.000	0.005	-0.021
-66.407	800.000	0.006	-0.023
-65.392	412.242	-0.072	0.151
-64.378	193.032	0.041	-0.062
-63.363	-200.000	-0.024	-0.267
-62.349	-80.320	-0.053	-0.017
-61.334	327.485	-0.560	-1.061
-60.319	207.979	0.194	0.300
-59.305	-200.000	0.099	-0.616
-58.290	69.769	0.566	0.576
-57.276	800.000	0.509	1.636
-56.261	-200.000	90.379	528.166
-55.246	577.260	1390.144	3358.141
-54.232	186.250	2607.090	3832.563
-53.217	116.431	2326.274	2817.773
-52.203	45.530	1939.435	1769.428
-51.188	39.248	1726.499	1526.535
-50.173	36.504	1682.237	1466.553
-49.159	52.804	1726.976	1631.109
-48.144	56.377	1744.959	1675.458
-47.130	39.215	1703.042	1505.305
-46.115	36.147	1688.748	1469.280
-45.100	36.012	1683.398	1463.538
-44.086	35.978	1680.882	1461.038
-43.071	35.965	1678.494	1458.799
-42.057	35.962	1676.040	1456.590
-41.042	36.006	1673.866	1454.973
-40.027	36.033	1671.783	1453.313
-39.013	36.012	1669.642	1451.231
-37.998	35.848	1669.155	1449.518
-36.984	36.039	1667.245	1449.235
-35.969	36.182	1665.457	1448.699
-34.954	36.182	1664.306	1447.641
-33.940	36.091	1662.537	1445.363
-32.925	36.099	1660.470	1443.566
-31.911	36.159	1658.815	1442.521
-30.896	36.057	1656.782	1439.933
-29.881	36.130	1655.035	1438.906
-28.867	36.101	1653.667	1437.438
-27.852	36.131	1652.648	1436.724
-26.838	36.135	1651.242	1435.469
-25.823	36.142	1649.509	1433.963
-24.809	36.191	1647.550	1432.561
-23.794	36.139	1646.440	1431.154
-22.779	36.173	1644.966	1430.071
-21.765	36.140	1643.088	1428.134
-20.750	36.087	1641.118	1425.979
-19.736	36.167	1640.032	1425.567
-18.721	36.233	1638.579	1424.733
-17.706	36.115	1636.847	1422.300
-16.692	36.106	1636.066	1421.504
-15.677	36.098	1634.587	1420.098
-14.663	36.200	1633.128	1419.528
-13.648	36.199	1631.586	1418.121
-12.633	36.149	1630.513	1416.764
-11.619	36.211	1628.156	1415.114
-10.604	36.183	1626.793	1413.669
-9.590	36.237	1625.393	1412.797
-8.575	36.200	1624.525	1411.712
-7.560	36.061	1623.598	1409.835
-6.546	36.188	1621.992	1409.314
-5.531	36.129	1620.657	1407.665
-4.517	36.143	1619.491	1406.697
-3.502	36.173	1618.461	1405.968
-2.487	36.179	1616.906	1404.605
-1.473	35.972	1605.386	1393.045
-0.458	32.812	1584.379	1352.156
0.556	29.756	1582.392	1308.747
1.571	26.217	1604.231	1301.248
2.586	24.560	1616.121	1298.737
3.600	20.932	1561.771	1229.411
4.615	12.835	1451.414	1089.140
5.629	6.211	1386.463	998.378
6.644	5.062	1378.426	985.245
7.659	4.909	1377.213	983.326
8.673	5.017	1375.734	982.867
9.688	4.913	1374.430	981.193
10.702	4.879	1371.014	978.457
11.717	7.420	1375.577	997.620
12.731	14.856	1390.739	1055.646
13.746	20.878	1399.942	1100.704
14.761	21.720	1399.451	1105.535
15.775	20.978	1397.646	1099.335
16.790	19.808	1395.123	1089.885
17.804	19.068	1392.743	1083.272
18.819	18.671	1391.455	1079.678
19.834	18.564	1390.440	1078.122
20.848	18.355	1389.556	1076.025
21.863	18.064	1388.374	1073.186
22.877	18.022	1387.238	1071.950
23.892	18.067	1386.497	1071.566
24.907	17.874	1385.359	1069.382
25.921	18.034	1384.416	1069.563
26.936	17.978	1383.307	1068.258
27.950	18.058	1382.762	1068.245
28.965	18.132	1381.735	1067.817
29.980	18.205	1380.287	1067.061
30.994	18.304	1379.025	1066.610
32.009	18.373	1378.197	1066.305
33.023	18.337	1376.807	1064.910
34.038	18.213	1375.514	1063.044
35.053	18.205	1374.258	1061.928
36.067	18.198	1373.027	1060.843
37.082	18.187	1372.199	1060.040
38.096	18.308	1371.182	1059.910
39.111	18.260	1370.939	1059.329
40.126	18.169	1369.242	1057.364
41.140	17.958	1368.435	1055.346
42.155	17.787	1367.683	1053.613
43.169	17.785	1367.890	1053.666
44.184	17.768	1367.374	1053.075
45.199	17.824	1366.474	1052.634
46.213	17.956	1366.391	1053.287
47.228	18.062	1365.445	1053.119
48.242	18.217	1364.431	1053.200
49.257	18.011	1362.992	1050.728
50.271	18.082	1361.170	1049.667
51.286	18.077	1360.281	1048.860
52.301	18.094	1358.961	1047.853
53.315	18.102	1358.010	1047.076
54.330	17.913	1356.973	1045.025
55.344	17.887	1355.923	1043.964
56.359	17.942	1354.485	1043.103
57.374	17.847	1353.881	1041.965
58.388	17.737	1352.980	1040.509
59.403	17.716	1352.183	1039.675
60.417	17.685	1351.955	1039.217
61.432	17.578	1351.189	1037.884
62.447	17.661	1349.499	1036.998
63.461	17.574	1348.256	1035.427
64.476	17.574	1347.243	1034.554
65.490	17.542	1346.480	1033.685
66.505	17.681	1344.108	1032.611
67.520	17.556	1343.529	1031.318
68.534	17.629	1342.836	1031.140
69.549	17.599	1341.568	1029.894
70.563	17.609	1340.239	1028.838
71.578	17.503	1338.992	1027.152
72.593	17.384	1338.557	1026.014
73.607	17.391	1337.727	1025.326
74.622	17.380	1336.983	1024.597
75.636	17.430	1336.149	1024.170
76.651	17.478	1335.369	1023.773
77.666	17.487	1335.207	1023.612
78.680	17.599	1334.571	1023.702
79.695	17.578	1333.918	1022.987
80.709	17.764	1333.133	1023.414
81.724	17.738	1332.673	1022.810
82.739	17.920	1331.273	1022.736
83.753	18.081	1330.573	1023.071
84.768	18.074	1329.908	1022.426
85.782	18.272	1328.879	1022.731
86.797	18.246	1327.543	1021.456
87.812	18.115	1326.582	1019.842
88.826	18.040	1325.372	1018.374
89.841	18.182	1324.270	1018.288
90.855	18.289	1323.498	1018.240
91.870	18.232	1322.707	1017.203
92.884	18.275	1322.210	1016.986
93.899	18.325	1321.110	1016.348
94.914	18.353	1320.375	1015.856
95.928	18.414	1318.978	1015.054
96.943	18.233	1318.514	1013.536
97.957	18.242	1317.312	1012.573
98.972	18.273	1316.605	1012.121
99.987	18.301	1314.975	1010.944
101.001	18.281	1314.085	1010.054
102.016	18.326	1313.312	1009.636
103.030	18.153	1312.682	1008.043
104.045	18.226	1311.961	1007.832
105.060	18.202	1310.062	1006.141
106.074	17.832	1308.861	1002.957
107.089	17.676	1307.666	1001.035
108.103	17.562	1306.441	999.342
109.118	17.561	1304.979	998.129
110.133	17.664	1303.468	997.487
111.147	17.666	1301.919	996.227
112.162	17.711	1300.804	995.544
113.176	17.774	1299.966	995.183
114.191	17.862	1299.229	995.048
115.206	17.769	1298.329	993.728
116.220	17.808	1296.829	992.715
117.235	17.764	1295.609	991.439
118.249	17.631	1294.718	989.898
119.264	17.556	1293.615	988.529
120.279	17.623	1292.629	988.081
121.293	17.478	1291.680	986.426
122.308	17.475	1290.414	985.352
123.322	17.455	1289.121	984.164
124.337	17.470	1288.170	983.438
125.352	17.425	1287.071	982.253
126.366	17.414	1285.861	981.181
127.381	17.497	1284.680	980.667
128.395	17.502	1283.612	979.795
129.410	17.443	1283.341	979.163
130.424	17.684	1282.006	979.440
131.439	17.686	1281.909	979.293
132.454	17.701	1280.337	978.092
133.468	17.750	1279.753	977.839
134.483	17.868	1279.095	977.926
135.497	17.754	1278.333	976.603
136.512	17.842	1276.852	975.887
137.527	17.872	1275.568	974.992
138.541	17.919	1273.726	973.768
139.556	17.928	1273.057	973.223
140.570	17.978	1272.259	972.809
141.585	18.032	1271.046	972.105
142.600	18.200	1269.809	972.029
143.614	18.214	1269.165	971.527
144.629	18.215	1267.969	970.532
145.643	18.257	1266.463	969.530
146.658	18.140	1265.285	967.878
147.673	18.050	1263.787	966.142
148.687	17.952	1262.423	964.461
149.702	17.758	1261.231	962.366
150.716	17.740	1259.925	961.186
151.731	17.743	1258.849	960.293
152.746	17.906	1256.835	959.590
153.760	17.899	1256.188	958.972
154.775	18.009	1255.190	958.745
155.789	18.105	1254.706	958.828
156.804	18.095	1253.274	957.590
157.819	18.114	1252.149	956.756
158.833	18.130	1251.633	956.363
159.848	18.193	1250.826	956.014
160.862	18.135	1250.087	955.043
161.877	18.047	1248.626	953.347
162.892	17.757	1247.252	950.603
163.906	17.763	1246.339	949.854
164.921	17.853	1244.910	949.183
165.935	17.827	1244.755	948.836
166.950	18.069	1243.779	949.350
167.964	18.181	1242.655	949.030
168.979	18.002	1242.134	947.556
169.994	18.106	1241.395	947.485
171.008	18.000	1240.757	946.329
172.023	18.038	1240.161	946.001
173.037	18.352	1238.865	946.661
174.052	18.216	1238.592	945.617
175.067	17.945	1237.165	942.947
176.081	17.846	1235.857	941.326
177.096	17.935	1235.204	941.232
178.110	17.937	1234.208	940.401
179.125	18.106	1232.443	939.905
180.140	18.059	1231.368	938.740
181.154	18.138	1230.571	938.487
182.169	18.192	1229.767	938.083
183.183	18.232	1228.275	937.084
184.198	18.256	1227.573	936.595
185.213	18.346	1225.886	935.716
186.227	18.372	1224.676	934.856
187.242	18.333	1224.313	934.280
188.256	18.407	1223.518	933.995
189.271	18.477	1222.426	933.461
190.286	18.405	1220.592	931.586
191.300	17.925	1219.871	928.344
192.315	17.775	1219.192	926.928
193.329	17.820	1218.518	926.578
194.344	18.036	1217.388	926.811
195.359	18.127	1217.236	927.108
196.373	18.186	1216.666	926.910
197.388	18.288	1216.409	927.184
198.402	18.399	1216.265	927.592
199.417	18.584	1215.559	927.976
200.432	18.719	1214.587	927.879
201.446	18.702	1213.757	927.070
202.461	18.772	1213.099	926.865
203.475	18.720	1212.222	925.834
204.490	18.691	1210.332	924.151
205.504	18.480	1209.262	922.117
206.519	18.352	1208.638	920.870
207.534	18.470	1206.811	920.029
208.548	18.448	1205.549	918.869
209.563	18.434	1205.015	918.308
210.577	18.438	1204.334	917.729
211.592	18.586	1203.144	917.533
212.607	18.699	1202.852	917.831
213.621	18.704	1202.052	917.168
214.636	18.565	1201.034	915.565
215.650	18.522	1200.397	914.772
216.665	18.771	1199.666	915.461
217.680	18.874	1198.611	915.122
218.694	18.854	1197.759	914.283
219.709	18.630	1197.435	912.766
220.723	18.717	1196.587	912.499
221.738	18.757	1195.530	911.826
222.753	18.642	1194.608	910.431
223.767	18.803	1193.746	910.550
224.782	18.838	1193.529	910.489
225.796	18.955	1192.913	910.557
226.811	18.897	1192.147	909.583
227.826	18.754	1191.303	908.106
228.840	18.837	1189.787	907.308
229.855	18.841	1189.437	906.978
230.869	18.760	1188.911	906.069
231.884	18.726	1188.242	905.302
232.899	18.623	1186.927	903.680
233.913	18.502	1186.326	902.503
234.928	18.610	1185.364	902.257
235.942	18.474	1184.887	901.103
236.957	18.629	1183.974	901.140
237.972	18.554	1183.406	900.233
238.986	18.415	1183.137	899.221
240.001	18.567	1182.194	899.223
241.015	18.689	1181.124	898.969
242.030	18.696	1180.351	898.336
243.045	18.804	1179.769	898.377
244.059	18.781	1179.092	897.667
245.074	18.807	1178.470	897.248
246.088	18.925	1177.394	896.965
247.103	19.077	1176.762	897.197
248.117	19.127	1175.939	896.751
249.132	19.271	1174.992	896.700
250.147	19.416	1175.189	897.521
251.161	19.474	1174.461	897.187
252.176	19.614	1173.548	897.140
253.190	19.597	1173.110	896.636
254.205	19.667	1172.839	896.714
255.220	19.624	1172.417	896.088
256.234	19.701	1171.224	895.494
257.249	19.626	1170.690	894.620
258.263	19.631	1169.888	893.956
259.278	19.599	1169.143	893.141
260.293	19.666	1168.991	893.292
261.307	19.771	1168.486	893.368
262.322	19.839	1167.729	893.063
263.336	19.672	1167.244	891.753
264.351	19.853	1166.263	891.858
265.366	19.835	1165.672	891.234
266.380	19.788	1164.919	890.336
267.395	19.637	1164.464	889.134
268.409	19.669	1163.300	888.329
269.424	19.643	1162.741	887.690
270.439	19.589	1162.110	886.853
271.453	19.506	1161.435	885.833
272.468	19.496	1160.115	884.695
273.482	19.450	1159.211	883.693
274.497	19.442	1158.992	883.409
275.512	19.463	1158.419	882.998
276.526	19.514	1157.643	882.591
277.541	19.592	1156.610	882.123
278.555	19.681	1156.127	882.132
279.570	19.741	1155.358	881.775
280.585	19.900	1154.664	881.977
281.599	19.914	1153.404	881.008
282.614	19.651	1152.635	879.003
283.628	19.705	1150.920	877.892
284.643	19.649	1150.333	877.081
285.657	19.661	1149.411	876.363
286.672	19.609	1148.685	875.467
287.687	19.703	1147.715	875.126
288.701	19.732	1147.307	874.886
289.716	19.671	1146.396	873.802
290.730	19.687	1145.954	873.473
291.745	19.737	1145.355	873.187
292.760	19.887	1144.209	872.996
293.774	19.789	1143.900	872.186
294.789	19.867	1143.825	872.448
295.803	19.996	1142.535	872.036
296.818	19.891	1141.950	870.984
297.833	19.775	1141.206	869.753
298.847	19.803	1140.178	869.036
299.862	19.876	1139.389	868.726
300.876	19.909	1138.900	868.437
301.891	19.955	1138.391	868.206
302.906	19.992	1137.851	867.902
303.920	20.125	1137.151	867.958
304.935	20.241	1136.328	867.831
305.949	20.265	1136.087	867.691
306.964	20.219	1135.217	866.723
307.979	20.265	1134.150	866.059
308.993	20.163	1133.587	865.044
310.008	20.167	1132.799	864.387
311.022	20.224	1132.202	864.139
312.037	20.297	1131.377	863.796
313.052	20.022	1130.680	861.818
314.066	19.918	1129.302	860.177
315.081	19.892	1128.114	859.066
316.095	19.771	1127.102	857.620
317.110	19.785	1126.949	857.498
318.125	19.960	1125.972	857.542
319.139	19.875	1124.912	856.237
320.154	20.031	1124.189	856.385
321.168	19.895	1123.826	855.359
322.183	19.890	1123.415	854.945
323.197	19.937	1122.798	854.636
324.212	20.088	1122.197	854.843
325.227	19.938	1121.492	853.494
326.241	19.990	1120.883	853.209
327.256	20.007	1119.943	852.503
328.270	19.925	1119.107	851.389
329.285	19.996	1117.965	850.791
330.300	19.944	1117.418	850.045
331.314	19.972	1116.370	849.309
332.329	19.962	1115.361	848.417
333.343	19.940	1114.744	847.768
334.358	20.084	1114.023	847.850
335.373	20.298	1113.094	848.113
336.387	20.302	1112.330	847.474
337.402	20.284	1111.952	847.022
338.416	20.382	1111.372	846.985
339.431	20.382	1110.644	846.355
340.446	20.532	1109.971	846.498
341.460	20.578	1109.578	846.348
342.475	20.642	1108.615	845.848
343.489	20.723	1107.817	845.561
344.504	20.857	1106.333	845.004
345.519	20.823	1105.929	844.452
346.533	20.818	1105.278	843.860
347.548	20.784	1104.784	843.240
348.562	20.884	1103.554	842.709
349.577	20.736	1102.151	840.848
350.592	20.570	1101.719	839.643
351.606	20.395	1101.075	838.236
352.621	20.279	1100.438	837.115
353.635	20.299	1099.377	836.329
354.650	20.407	1098.667	836.239
355.665	20.554	1097.783	836.199
356.679	20.497	1097.600	835.709
357.694	20.637	1097.350	836.121
358.708	20.662	1096.623	835.609
359.723	20.689	1096.029	835.214
360.738	20.611	1095.575	834.419
361.752	20.557	1094.870	833.551
362.767	20.625	1094.318	833.380
363.781	20.628	1093.719	832.867
364.796	20.840	1093.131	833.359
365.810	20.907	1092.536	833.155
366.825	20.876	1092.104	832.599
367.840	21.062	1091.552	832.996
368.854	21.168	1090.977	832.989
369.869	21.178	1090.293	832.439
370.883	21.111	1089.121	831.153
371.898	20.937	1088.806	830.009
372.913	20.914	1088.083	829.278
373.927	21.027	1087.335	829.168
374.942	21.173	1086.733	829.333
375.956	21.068	1086.473	828.560
376.971	21.138	1085.637	828.182
377.986	21.090	1084.990	827.387
379.000	21.208	1084.849	827.767
380.015	21.370	1084.184	827.951
381.029	21.416	1083.509	827.583
382.044	21.355	1082.704	826.605
383.059	21.261	1082.049	825.586
384.073	21.231	1081.166	824.700
385.088	21.274	1080.202	824.093
386.102	21.424	1079.333	824.063
387.117	21.159	1078.051	821.765
388.132	21.052	1076.969	820.366
389.146	20.984	1076.391	819.534
390.161	21.062	1075.704	819.305
391.175	21.054	1075.111	818.742
392.190	21.199	1074.295	818.728
393.205	21.296	1073.933	818.833
394.219	21.255	1073.162	817.984
395.234	21.219	1072.023	816.875
396.248	21.206	1070.794	815.802
397.263	21.202	1069.725	814.898
398.278	21.056	1069.151	813.709
399.292	20.989	1068.308	812.684
400.307	20.889	1067.792	811.754
401.321	20.988	1066.778	811.371
402.336	20.996	1065.779	810.575
403.350	20.926	1065.965	810.321
404.365	21.003	1065.156	809.993
405.380	21.067	1064.336	809.591
406.394	21.177	1063.476	809.379
407.409	21.269	1062.674	809.123
408.423	21.494	1062.198	809.727
409.438	21.487	1061.707	809.249
410.453	21.540	1060.996	808.882
411.467	21.536	1060.429	808.357
412.482	21.533	1060.136	808.051
413.496	21.683	1059.119	807.898
414.511	21.670	1058.757	807.490
415.526	21.854	1058.083	807.752
416.540	21.960	1057.481	807.707
417.555	21.869	1056.847	806.732
418.569	21.739	1056.686	805.941
419.584	21.741	1056.100	805.431
420.599	21.787	1055.658	805.233
421.613	151.474	1399.893	1784.914
422.628	139.113	1450.043	1785.042
