DTS Sentinel unit serial number:	SN413079Multiplexer serial number:	ORYXHardware model number:	OX4-SRSoftware version number:	ORYX F/W v4.00 Oryx Data Collector v3.7.2.0data status	okinstallation	princeton_trtdifferential loss correction	single-endedforward channel	channel 2reverse channel	N/Adate	2019/09/11time	13:53:11forward acquisition time	60.00reverse acquisition time	0.00gamma	496.2192k internal	0.2293k external	0.2293temperature offset calibration	1.0002default loss term (dB/km)	0.3790temperature slope calibration	1.0000multiplexer offset coefficient	1.0000multiplexer slope coefficient	1.0000fibre end	0.00T internal ref (°C)	41.87T ext. ref 1 (°C)	0.83T ext. ref 2 (°C)	35.80length (m)	temperature (°C)	Stokes	anti-Stokes-747.200	151.976	-0.142	-0.198
-746.185	-163.060	-0.339	0.017
-745.171	295.732	-0.024	0.045
-744.156	-136.807	-0.265	0.031
-743.142	-200.000	0.045	0.217
-742.127	-200.000	-0.024	0.427
-741.112	-123.625	-0.182	0.030
-740.098	800.000	0.096	0.293
-739.083	-129.992	0.229	-0.032
-738.069	-35.498	0.108	-0.060
-737.054	-132.082	-0.388	0.052
-736.039	-106.809	-0.328	-0.074
-735.025	-33.412	0.389	0.220
-734.010	800.000	-0.066	-0.265
-732.996	-88.083	-0.393	-0.121
-731.981	53.755	0.123	-0.121
-730.966	511.408	0.022	-0.052
-729.952	77.692	-0.046	-0.050
-728.937	-126.974	-0.256	-0.038
-727.923	549.923	0.046	0.113
-726.908	-191.712	0.375	0.004
-725.894	-117.144	-0.179	0.033
-724.879	63.400	-0.038	-0.039
-723.864	700.351	-0.114	-0.306
-722.850	703.148	0.032	-0.086
-721.835	-200.000	0.041	-0.289
-720.821	-137.317	0.113	-0.013
-719.806	-112.295	-0.256	-0.052
-718.791	-103.430	0.114	0.027
-717.777	-92.488	0.221	0.063
-716.762	28.522	-0.124	-0.107
-715.748	800.000	0.072	0.321
-714.733	577.418	-0.122	0.304
-713.718	-89.905	-0.151	-0.045
-712.704	253.078	-0.158	-0.276
-711.689	-27.529	0.086	0.051
-710.675	-45.915	0.050	-0.025
-709.660	141.242	-0.082	0.111
-708.645	-70.667	0.211	0.081
-707.631	120.326	0.211	0.267
-706.616	-200.000	-0.033	-0.167
-705.602	-69.200	0.304	0.120
-704.587	-200.000	0.008	-0.515
-703.572	-107.766	-0.230	-0.051
-702.558	94.223	0.152	0.176
-701.543	-52.915	0.246	0.116
-700.529	28.982	0.061	0.053
-699.514	-200.000	0.039	-0.304
-698.499	-31.687	-0.139	-0.080
-697.485	-1.672	-0.307	-0.221
-696.470	258.751	-0.028	0.049
-695.456	168.499	-0.071	0.103
-694.441	-55.486	-0.165	-0.076
-693.426	800.000	0.046	0.142
-692.412	169.727	0.053	0.077
-691.397	-13.629	-0.145	-0.096
-690.383	-26.051	-0.216	-0.129
-689.368	150.658	0.215	-0.298
-688.354	-116.630	-0.409	-0.077
-687.339	-80.381	-0.085	0.029
-686.324	-162.375	-0.452	0.023
-685.310	-143.831	0.199	0.019
-684.295	278.433	-0.089	-0.162
-683.281	-200.000	0.011	-0.372
-682.266	-200.000	0.002	-0.254
-681.251	-114.337	-0.237	-0.047
-680.237	326.537	-0.218	-0.426
-679.222	-200.000	0.037	-0.219
-678.208	-8.634	-0.252	-0.172
-677.193	334.145	-0.072	0.142
-676.178	163.311	-0.058	0.084
-675.164	81.332	0.064	0.070
-674.149	-22.704	-0.147	-0.091
-673.135	709.477	-0.085	-0.230
-672.120	480.772	0.099	0.230
-671.105	-164.548	-0.109	0.005
-670.091	-76.525	-0.130	0.047
-669.076	-109.222	-0.257	-0.056
-668.062	-200.000	0.018	0.098
-667.047	800.000	0.116	-0.348
-666.032	-97.320	0.202	0.054
-665.018	46.770	0.203	0.192
-664.003	-24.920	-0.301	-0.182
-662.989	-114.590	-0.511	-0.100
-661.974	800.000	0.084	0.258
-660.959	-200.000	-0.015	0.161
-659.945	-162.753	-0.165	0.008
-658.930	93.686	0.039	-0.045
-657.916	-200.000	0.038	0.302
-656.901	-200.000	0.002	-0.298
-655.886	29.416	0.013	0.011
-654.872	-200.000	0.018	-0.193
-653.857	291.443	-0.266	0.493
-652.843	665.394	-0.061	0.160
-651.828	176.659	0.291	-0.431
-650.814	11.587	-0.167	0.130
-649.799	22.434	0.105	-0.087
-648.784	10.230	-0.347	-0.269
-647.770	-153.493	-0.245	0.017
-646.755	-149.880	0.069	0.005
-645.741	800.000	-0.035	0.145
-644.726	298.178	-0.044	0.082
-643.711	-125.199	-0.352	-0.055
-642.697	-57.506	0.256	0.115
-641.682	52.515	0.211	-0.206
-640.668	-21.809	-0.148	-0.092
-639.653	-32.963	-0.276	0.156
-638.638	-175.781	-0.157	-0.004
-637.624	-90.279	-0.264	-0.078
-636.609	-60.791	0.268	-0.116
-635.595	-61.512	-0.314	-0.134
-634.580	-55.466	0.098	-0.045
-633.565	246.161	-0.107	-0.183
-632.551	68.892	0.229	-0.239
-631.536	52.367	0.166	0.161
-630.522	-200.000	0.037	0.209
-629.507	152.271	0.170	-0.237
-628.492	511.308	0.053	0.127
-627.478	-87.144	-0.072	0.022
-626.463	11.738	0.138	-0.108
-625.449	-200.000	0.006	0.130
-624.434	-200.000	-0.011	0.119
-623.419	109.257	0.080	0.097
-622.405	-200.000	-0.045	-0.210
-621.390	48.386	-0.290	-0.277
-620.376	-200.000	0.000	0.151
-619.361	-131.164	0.299	0.040
-618.346	46.648	0.113	-0.107
-617.332	-116.293	0.239	-0.045
-616.317	218.546	0.098	0.160
-615.303	-200.000	-0.050	-0.242
-614.288	495.495	-0.039	0.092
-613.273	-41.787	0.207	0.108
-612.259	-30.122	0.161	-0.093
-611.244	-38.985	0.143	-0.076
-610.230	-42.617	-0.090	0.047
-609.215	-28.348	-0.164	-0.096
-608.201	5.772	0.108	0.081
-607.186	51.440	-0.153	0.148
-606.171	-41.028	-0.251	0.132
-605.157	38.152	-0.139	-0.126
-604.142	163.984	-0.113	-0.162
-603.128	252.832	0.092	0.160
-602.113	73.751	0.139	0.148
-601.098	800.000	-0.096	0.314
-600.084	-53.848	0.166	-0.077
-599.069	800.000	0.093	-0.312
-598.055	-200.000	-0.004	-0.094
-597.040	411.634	-0.196	0.424
-596.025	800.000	-0.088	0.352
-595.011	248.543	-0.005	-0.009
-593.996	-200.000	-0.006	0.113
-592.982	-13.136	-0.285	0.188
-591.967	244.465	-0.034	0.058
-590.952	241.212	0.198	-0.337
-589.938	-69.860	0.312	0.121
-588.923	-200.000	-0.026	-0.365
-587.909	122.002	0.095	0.120
-586.894	-80.364	-0.371	-0.126
-585.879	593.320	-0.132	0.331
-584.865	60.366	-0.136	0.137
-583.850	-200.000	0.011	-0.369
-582.836	-57.909	-0.059	-0.026
-581.821	-189.222	0.430	-0.005
-580.806	405.540	0.020	0.043
-579.792	-200.000	0.021	-0.307
-578.777	111.889	-0.062	0.076
-577.763	-76.605	0.136	0.049
-576.748	6.442	-0.417	0.315
-575.733	-113.784	0.255	-0.050
-574.719	37.816	-0.030	-0.027
-573.704	800.000	0.060	-0.171
-572.690	-200.000	0.032	0.240
-571.675	-200.000	-0.002	0.020
-570.661	-141.047	0.129	-0.013
-569.646	-68.239	-0.041	-0.016
-568.631	-70.060	-0.074	0.029
-567.617	10.509	-0.137	0.106
-566.602	-25.811	-0.294	-0.176
-565.588	227.292	0.166	0.275
-564.573	-57.610	0.057	0.025
-563.558	30.027	-0.162	-0.140
-562.544	112.219	-0.066	-0.081
-561.529	103.826	0.084	0.100
-560.515	-165.750	-0.256	0.011
-559.500	30.397	0.235	-0.204
-558.485	-200.000	0.007	-0.202
-557.471	-200.000	0.001	-0.072
-556.456	268.523	-0.099	0.176
-555.442	132.770	-0.077	-0.101
-554.427	-56.728	-0.140	0.063
-553.412	199.074	-0.060	0.093
-552.398	-140.350	0.329	-0.035
-551.383	-93.964	0.171	0.048
-550.369	-72.958	-0.285	0.106
-549.354	574.746	-0.073	-0.181
-548.339	800.000	-0.069	0.233
-547.325	-32.324	-0.424	0.240
-546.310	-200.000	-0.019	0.394
-545.296	-200.000	0.017	-0.305
-544.281	-104.925	0.161	-0.037
-543.266	-183.102	0.156	-0.003
-542.252	800.000	-0.081	0.265
-541.237	-155.978	0.191	-0.012
-540.223	19.945	-0.097	-0.080
-539.208	349.258	-0.156	0.313
-538.193	-16.341	0.204	0.131
-537.179	800.000	0.091	0.313
-536.164	37.765	0.180	-0.162
-535.150	351.933	0.106	-0.213
-534.135	23.671	0.155	-0.129
-533.121	122.391	-0.243	-0.309
-532.106	751.969	0.076	-0.207
-531.091	113.284	-0.038	0.047
-530.077	263.799	-0.075	0.132
-529.062	120.188	0.083	0.105
-528.048	-46.773	0.088	-0.044
-527.033	-52.165	0.113	-0.053
-526.018	152.773	0.172	0.239
-525.004	-147.361	-0.074	-0.006
-523.989	268.059	-0.163	-0.290
-522.975	800.000	-0.073	0.217
-521.960	46.177	0.058	0.054
-520.945	60.429	0.192	-0.193
-519.931	800.000	0.075	-0.261
-518.916	-117.253	0.129	0.024
-517.902	-73.155	-0.318	-0.118
-516.887	154.688	0.152	0.212
-515.872	-162.069	0.389	0.020
-514.858	-86.372	-0.326	0.101
-513.843	253.980	-0.079	0.137
-512.829	160.620	-0.159	-0.224
-511.814	800.000	-0.040	0.153
-510.799	-54.921	0.187	-0.085
-509.785	117.248	0.160	0.199
-508.770	33.849	0.208	-0.183
-507.756	60.953	0.142	0.143
-506.741	95.077	-0.200	0.231
-505.726	-48.911	0.142	-0.069
-504.712	-81.545	0.288	0.096
-503.697	417.374	-0.089	0.193
-502.683	24.985	-0.194	-0.163
-501.668	-88.190	-0.062	0.019
-500.653	-200.000	-0.035	0.192
-499.639	-112.212	-0.133	-0.027
-498.624	800.000	-0.093	-0.298
-497.610	-135.863	0.189	0.023
-496.595	-112.287	-0.083	-0.017
-495.581	-46.228	-0.134	0.067
-494.566	-200.000	0.043	0.321
-493.551	24.135	-0.164	0.137
-492.537	-200.000	-0.034	-0.398
-491.522	-200.000	0.026	-0.152
-490.508	114.337	0.174	-0.215
-489.493	-13.265	0.166	0.109
-488.478	-136.373	-0.471	0.055
-487.464	97.189	-0.126	-0.146
-486.449	-45.904	-0.117	-0.058
-485.435	356.167	0.213	-0.429
-484.420	395.257	0.212	-0.448
-483.405	-8.898	0.177	0.120
-482.391	-200.000	0.035	-0.242
-481.376	-200.000	0.017	0.126
-480.362	121.683	0.218	-0.275
-479.347	-131.004	-0.180	0.024
-478.332	199.614	0.121	-0.188
-477.318	800.000	-0.040	-0.120
-476.303	240.400	-0.195	0.328
-475.289	800.000	0.034	0.121
-474.274	-130.655	-0.171	0.023
-473.259	800.000	-0.097	0.324
-472.245	-78.832	-0.292	0.101
-471.230	43.733	0.223	0.206
-470.216	2.914	0.103	-0.076
-469.201	-46.489	0.378	0.188
-468.186	-61.690	0.221	-0.094
-467.172	344.897	-0.206	-0.410
-466.157	136.089	-0.210	0.277
-465.143	-48.679	-0.150	-0.073
-464.128	332.034	0.062	-0.122
-463.113	70.012	-0.032	-0.033
-462.099	-119.802	0.195	0.034
-461.084	-79.402	-0.213	0.073
-460.070	-6.456	-0.321	-0.222
-459.055	-200.000	-0.023	-0.196
-458.040	-165.682	0.366	-0.016
-457.026	-42.933	0.295	-0.152
-456.011	-49.432	-0.122	0.059
-454.997	201.482	0.102	0.159
-453.982	800.000	0.140	0.409
-452.968	58.240	-0.163	0.162
-451.953	800.000	-0.022	0.075
-450.938	145.769	0.028	0.038
-449.924	800.000	0.037	-0.154
-448.909	-200.000	-0.007	0.301
-447.895	-11.733	-0.190	-0.126
-446.880	5.792	-0.121	0.090
-445.865	-119.290	-0.187	-0.033
-444.851	-0.665	0.242	-0.173
-443.836	800.000	-0.066	-0.203
-442.822	-117.820	-0.267	-0.048
-441.807	713.254	0.140	-0.374
-440.792	45.260	0.267	-0.249
-439.778	80.608	0.145	0.158
-438.763	357.043	0.081	0.163
-437.749	-128.165	-0.259	0.037
-436.734	430.657	0.144	-0.314
-435.719	-28.147	-0.110	-0.064
-434.705	-56.640	-0.400	-0.179
-433.690	-50.685	0.249	0.118
-432.676	800.000	-0.019	-0.054
-431.661	501.317	0.118	-0.275
-430.646	-26.099	0.355	-0.211
-429.632	-136.507	0.123	-0.014
-428.617	54.092	-0.161	-0.157
-427.603	-118.953	0.359	0.064
-426.588	-149.978	0.295	0.023
-425.573	75.161	-0.195	-0.208
-424.559	-118.873	0.281	0.050
-423.544	-200.000	0.033	0.175
-422.530	192.207	-0.097	0.148
-421.515	126.332	-0.165	0.211
-420.500	-29.740	-0.321	0.185
-419.486	-47.601	0.129	0.063
-418.471	800.000	-0.130	0.456
-417.457	-80.857	-0.045	-0.015
-416.442	-24.500	0.115	-0.069
-415.428	-71.303	0.241	-0.091
-414.413	-7.655	0.167	-0.114
-413.398	373.312	0.040	0.081
-412.384	117.540	0.102	-0.126
-411.369	800.000	0.043	0.189
-410.355	-40.321	0.135	-0.071
-409.340	-47.364	0.040	0.020
-408.325	41.151	0.057	0.052
-407.311	52.345	-0.291	-0.281
-406.296	109.593	-0.089	-0.107
-405.282	800.000	0.048	-0.180
-404.267	-93.249	0.145	0.041
-403.252	-200.000	-0.004	-0.554
-402.238	297.245	-0.054	-0.100
-401.223	-156.540	-0.104	-0.007
-400.209	9.812	-0.278	-0.213
-399.194	-18.536	0.054	-0.034
-398.179	-68.258	-0.313	0.123
-397.165	-117.570	0.117	0.021
-396.150	-112.624	0.147	0.030
-395.136	-16.313	-0.105	-0.067
-394.121	-101.984	0.193	0.047
-393.106	56.092	-0.052	-0.051
-392.092	-45.869	-0.044	-0.022
-391.077	126.392	-0.134	-0.171
-390.063	224.351	0.092	-0.150
-389.048	-200.000	0.064	-0.316
-388.033	606.523	0.049	0.124
-387.019	-24.034	0.103	0.062
-386.004	-63.275	-0.172	-0.072
-384.990	-97.219	0.069	-0.018
-383.975	81.067	0.204	0.222
-382.960	86.306	-0.060	-0.066
-381.946	-97.567	-0.062	-0.016
-380.931	-186.520	-0.237	-0.003
-379.917	-103.819	0.447	-0.105
-378.902	-108.599	-0.290	0.063
-377.888	800.000	-0.015	0.060
-376.873	780.699	0.047	0.130
-375.858	48.279	0.259	0.245
-374.844	800.000	-0.018	0.074
-373.829	-125.070	-0.507	-0.079
-372.815	800.000	0.067	0.294
-371.800	-31.873	-0.442	-0.250
-370.785	-126.628	-0.253	0.038
-369.771	105.803	-0.214	-0.255
-368.756	161.215	0.107	-0.151
-367.742	488.895	0.031	-0.072
-366.727	-83.334	-0.256	-0.083
-365.712	800.000	-0.106	0.339
-364.698	-200.000	0.073	0.365
-363.683	-200.000	0.017	0.260
-362.669	-121.808	-0.045	-0.008
-361.654	495.910	0.094	-0.218
-360.639	800.000	-0.056	0.159
-359.625	-128.118	0.076	-0.011
-358.610	800.000	0.158	-0.445
-357.596	-149.598	-0.171	0.014
-356.581	-126.364	-0.225	-0.034
-355.566	712.244	-0.006	0.017
-354.552	584.499	-0.026	0.064
-353.537	-200.000	-0.036	0.229
-352.523	-200.000	0.013	0.352
-351.508	-101.145	0.026	-0.006
-350.493	28.962	-0.094	0.080
-349.479	579.794	-0.083	-0.204
-348.464	65.499	0.144	-0.147
-347.450	470.634	-0.047	0.106
-346.435	800.000	0.040	-0.138
-345.420	-65.768	-0.257	-0.104
-344.406	-12.495	-0.286	-0.188
-343.391	-92.226	0.387	0.110
-342.377	-200.000	-0.026	0.134
-341.362	71.414	-0.189	0.197
-340.348	103.031	-0.165	0.195
-339.333	244.980	-0.069	0.117
-338.318	-54.785	-0.462	-0.210
-337.304	91.455	0.154	-0.174
-336.289	800.000	-0.051	0.173
-335.275	380.654	-0.149	-0.308
-334.260	-103.946	0.224	-0.053
-333.245	800.000	-0.042	0.173
-332.231	14.573	-0.074	0.058
-331.216	-5.012	-0.341	-0.236
-330.202	63.478	-0.116	-0.117
-329.187	-200.000	-0.081	-0.371
-328.172	-137.968	-0.091	0.010
-327.158	-31.015	-0.011	0.006
-326.143	-163.187	0.313	0.015
-325.129	-108.339	0.248	0.054
-324.114	-200.000	0.003	-0.155
-323.099	-83.485	-0.221	-0.071
-322.085	203.453	-0.069	0.107
-321.070	-200.000	-0.113	0.574
-320.056	800.000	0.051	-0.153
-319.041	340.319	-0.200	0.393
-318.026	-43.951	0.051	-0.026
-317.012	800.000	-0.068	-0.287
-315.997	22.311	-0.108	0.088
-314.983	-200.000	-0.052	-0.240
-313.968	-200.000	-0.012	-0.152
-312.953	-51.010	-0.189	-0.089
-311.939	728.518	0.053	0.143
-310.924	-200.000	-0.003	0.224
-309.910	156.064	0.227	0.314
-308.895	190.843	0.040	-0.060
-307.880	-7.105	-0.324	-0.221
-306.866	34.070	-0.132	0.116
-305.851	-200.000	0.032	0.000
-304.837	301.649	-0.112	0.209
-303.822	257.547	-0.070	-0.121
-302.807	800.000	-0.043	-0.166
-301.793	-99.450	0.218	0.055
-300.778	-200.000	-0.067	0.361
-299.764	134.971	0.105	0.138
-298.749	61.292	0.077	0.077
-297.735	-50.448	-0.531	-0.252
-296.720	-200.000	0.010	-0.571
-295.705	-10.581	0.237	0.158
-294.691	140.788	0.121	0.161
-293.676	173.087	-0.051	0.074
-292.662	800.000	-0.099	0.372
-291.647	-54.854	0.225	0.102
-290.632	-200.000	0.013	0.203
-289.618	16.285	-0.102	0.081
-288.603	-21.249	-0.120	-0.074
-287.589	9.062	0.120	0.091
-286.574	33.296	0.079	0.069
-285.559	171.330	0.181	0.262
-284.545	-13.752	-0.069	0.045
-283.530	-200.000	0.031	-0.259
-282.516	-26.814	0.240	-0.141
-281.501	800.000	-0.125	0.534
-280.486	-34.762	0.164	-0.090
-279.472	159.976	0.061	-0.086
-278.457	94.045	-0.188	-0.214
-277.443	800.000	-0.072	0.284
-276.428	-200.000	0.012	-0.131
-275.413	800.000	-0.081	0.260
-274.399	-21.859	-0.145	0.088
-273.384	-70.984	0.291	0.110
-272.370	-0.387	0.215	0.153
-271.355	-133.833	-0.605	0.076
-270.340	-200.000	-0.042	0.269
-269.326	-75.140	-0.155	-0.056
-268.311	-146.043	0.213	0.019
-267.297	-56.347	0.273	0.122
-266.282	-102.344	-0.086	-0.021
-265.267	-93.543	-0.284	-0.079
-264.253	800.000	0.058	-0.174
-263.238	462.656	-0.082	-0.184
-262.224	142.970	-0.124	0.166
-261.209	-100.911	0.158	-0.039
-260.195	-27.127	0.329	0.193
-259.180	800.000	0.094	-0.315
-258.165	92.207	-0.079	0.089
-257.151	-16.696	0.158	0.100
-256.136	100.939	0.217	0.253
-255.122	13.467	-0.206	0.160
-254.107	-22.008	0.152	0.093
-253.092	-200.000	0.001	0.008
-252.078	60.158	0.105	0.104
-251.063	90.842	0.502	0.564
-250.049	800.000	0.098	0.303
-249.034	-43.088	-0.221	-0.113
-248.019	800.000	0.120	0.355
-247.005	-138.521	0.328	0.036
-245.990	37.503	-0.261	-0.232
-244.976	-66.229	0.133	-0.053
-243.961	-61.619	0.207	-0.087
-242.946	-124.559	-0.330	-0.051
-241.932	-200.000	0.005	-0.080
-240.917	13.717	0.223	0.174
-239.903	-60.859	0.335	-0.142
-238.888	-94.717	-0.201	-0.055
-237.873	-200.000	-0.001	-0.040
-236.859	263.696	-0.091	-0.158
-235.844	-200.000	-0.062	-0.359
-234.830	724.515	0.008	-0.023
-233.815	633.982	-0.115	-0.292
-232.800	178.777	-0.111	-0.162
-231.786	-143.344	0.294	-0.028
-230.771	56.546	-0.139	0.135
-229.757	-7.845	0.214	-0.145
-228.742	800.000	-0.096	-0.293
-227.727	456.230	0.089	0.197
-226.713	-94.312	0.073	-0.020
-225.698	545.640	-0.063	-0.152
-224.684	800.000	0.077	0.289
-223.669	-80.592	0.326	-0.109
-222.655	171.992	0.324	0.467
-221.640	-200.000	-0.028	0.231
-220.625	-4.931	-0.276	0.190
-219.611	-200.000	-0.026	0.182
-218.596	580.070	0.190	-0.465
-217.582	-85.913	0.028	0.009
-216.567	275.294	0.018	0.033
-215.552	-200.000	-0.014	0.239
-214.538	-84.922	-0.043	-0.013
-213.523	251.419	0.182	0.310
-212.509	33.609	-0.161	-0.140
-211.494	-85.311	0.183	0.057
-210.479	-11.462	0.238	0.157
-209.465	301.092	-0.186	-0.345
-208.450	-184.669	0.156	-0.003
-207.436	-56.059	0.169	0.075
-206.421	-16.344	0.195	0.124
-205.406	-90.700	0.412	-0.119
-204.392	154.801	0.146	-0.201
-203.377	240.012	0.119	-0.199
-202.363	-200.000	0.004	0.147
-201.348	-44.935	0.014	-0.007
-200.333	-200.000	-0.012	0.277
-199.319	-110.847	0.076	-0.016
-198.304	-200.000	-0.065	0.300
-197.290	-125.116	0.234	-0.036
-196.275	-200.000	0.015	0.104
-195.260	-200.000	-0.022	-0.335
-194.246	-3.955	-0.196	0.136
-193.231	-128.488	-0.052	-0.007
-192.217	70.158	0.177	0.183
-191.202	91.901	-0.100	-0.113
-190.187	-143.579	-0.377	0.036
-189.173	41.450	-0.050	-0.045
-188.158	594.521	-0.082	-0.204
-187.144	-39.170	-0.182	-0.096
-186.129	52.407	0.181	0.173
-185.114	800.000	-0.041	0.153
-184.100	-200.000	-0.053	0.240
-183.085	800.000	-0.035	-0.151
-182.071	100.060	0.244	-0.283
-181.056	-77.786	0.335	0.116
-180.042	-44.592	0.206	0.103
-179.027	-200.000	0.043	0.289
-178.012	-200.000	0.011	-0.095
-176.998	-102.151	-0.051	0.012
-175.983	800.000	0.083	-0.263
-174.969	10.322	0.073	-0.056
-173.954	-110.710	-0.361	-0.075
-172.939	-145.457	-0.322	-0.029
-171.925	-66.772	-0.166	0.066
-170.910	-62.897	0.483	-0.200
-169.896	-115.046	0.073	0.014
-168.881	-200.000	-0.009	-0.333
-167.866	-115.553	-0.108	-0.020
-166.852	53.149	-0.297	-0.284
-165.837	125.445	0.093	0.117
-164.823	-200.000	-0.044	-0.218
-163.808	-200.000	-0.204	0.000
-162.793	0.223	-0.232	-0.166
-161.779	-64.219	0.287	-0.117
-160.764	-152.096	0.399	-0.029
-159.750	-134.161	-0.241	0.030
-158.735	-177.260	-0.171	0.004
-157.720	37.823	-0.215	0.191
-156.706	-12.904	0.042	0.027
-155.691	113.743	-0.244	-0.296
-154.677	800.000	-0.014	0.048
-153.662	97.819	0.158	-0.181
-152.647	-104.260	0.172	-0.040
-151.633	166.739	-0.050	-0.071
-150.618	607.217	0.065	-0.162
-149.604	-157.757	-0.220	-0.013
-148.589	-121.315	-0.180	-0.030
-147.574	29.458	-0.168	0.143
-146.560	75.971	0.105	0.111
-145.545	-200.000	0.043	0.334
-144.531	682.547	-0.113	-0.294
-143.516	800.000	0.044	-0.164
-142.502	85.331	-0.212	-0.233
-141.487	491.944	-0.069	-0.158
-140.472	56.934	0.071	-0.069
-139.458	597.407	0.081	-0.200
-138.443	-12.296	-0.185	0.121
-137.429	-25.199	-0.149	-0.088
-136.414	800.000	0.135	0.399
-135.399	98.251	0.116	-0.134
-134.385	67.514	-0.198	0.202
-133.370	-200.000	-0.054	-0.274
-132.356	412.110	-0.088	0.186
-131.341	21.700	-0.076	-0.062
-130.326	-200.000	0.027	-0.123
-129.312	-146.847	0.226	0.019
-128.297	19.111	0.176	0.141
-127.283	-200.000	0.015	-0.273
-126.268	14.371	0.190	-0.148
-125.253	68.710	-0.161	0.165
-124.239	-200.000	0.054	-0.243
-123.224	-31.101	-0.093	0.052
-122.210	157.210	0.168	-0.232
-121.195	292.771	-0.099	-0.179
-120.180	204.615	0.011	0.017
-119.166	103.061	0.109	0.127
-118.151	-174.040	0.560	-0.016
-117.137	645.505	-0.095	0.243
-116.122	144.707	-0.046	-0.062
-115.107	-15.187	-0.030	0.019
-114.093	-54.308	-0.120	-0.054
-113.078	-200.000	0.005	0.041
-112.064	1.611	-0.021	-0.015
-111.049	250.657	0.219	-0.371
-110.034	-200.000	-0.003	0.019
-109.020	109.637	0.194	0.232
-108.005	99.162	-0.295	-0.340
-106.991	-101.034	0.036	-0.009
-105.976	-15.647	0.150	-0.096
-104.962	800.000	-0.016	-0.050
-103.947	-13.664	0.142	-0.092
-102.932	-165.569	0.263	-0.011
-101.918	159.036	-0.141	-0.196
-100.903	38.775	0.256	-0.228
-99.889	-54.232	0.193	0.087
-98.874	309.458	0.191	-0.356
-97.859	254.740	0.169	-0.289
-96.845	27.417	0.242	0.203
-95.830	-121.117	-0.191	0.032
-94.816	-132.216	-0.391	-0.051
-93.801	-39.028	-0.260	-0.136
-92.786	-51.423	0.153	0.071
-91.772	-84.405	0.302	0.095
-90.757	-26.758	0.054	-0.032
-89.743	-200.000	-0.013	-0.152
-88.728	-153.456	0.459	-0.032
-87.713	505.529	0.062	-0.143
-86.699	-200.000	0.065	-0.350
-85.684	0.641	0.186	-0.133
-84.670	-200.000	0.014	-0.080
-83.655	-53.345	-0.090	-0.041
-82.640	-28.187	0.121	0.070
-81.626	-134.852	0.117	-0.014
-80.611	37.604	-0.270	-0.239
-79.597	-66.891	0.420	-0.165
-78.582	-138.208	0.437	0.048
-77.567	47.562	-0.055	0.052
-76.553	-80.572	0.372	-0.124
-75.538	41.551	0.238	-0.215
-74.524	126.855	0.146	0.184
-73.509	40.054	0.161	0.144
-72.494	-200.000	0.006	0.185
-71.480	15.418	0.145	-0.113
-70.465	166.327	0.040	-0.057
-69.451	-76.407	0.347	0.122
-68.436	540.945	-0.033	0.077
-67.422	-130.585	0.459	0.062
-66.407	-158.953	0.456	0.026
-65.392	-91.170	0.229	-0.065
-64.378	-40.701	-0.132	0.068
-63.363	-45.878	0.188	0.092
-62.349	446.829	-0.144	0.316
-61.334	163.940	-0.433	-0.608
-60.319	-128.132	0.395	0.056
-59.305	-200.000	0.077	-1.054
-58.290	397.285	0.253	0.526
-57.276	800.000	0.413	1.501
-56.261	-200.000	75.801	525.361
-55.246	546.528	1311.876	3124.662
-54.232	145.196	2557.057	3407.314
-53.217	112.385	2352.934	2834.148
-52.203	51.459	1967.882	1861.576
-51.188	45.366	1756.149	1613.336
-50.173	42.354	1710.589	1548.221
-49.159	56.735	1745.177	1691.556
-48.144	62.463	1762.953	1753.157
-47.130	45.180	1726.377	1584.295
-46.115	42.011	1712.576	1547.127
-45.100	41.750	1708.690	1541.541
-44.086	41.739	1705.396	1538.421
-43.071	41.670	1702.944	1535.619
-42.057	41.721	1700.185	1533.460
-41.042	41.640	1698.499	1531.261
-40.027	41.792	1695.879	1530.002
-39.013	41.713	1694.157	1527.783
-37.998	41.725	1692.144	1525.995
-36.984	41.806	1690.876	1525.411
-35.969	41.922	1689.271	1524.787
-34.954	41.960	1687.244	1523.185
-33.940	41.828	1685.707	1520.734
-32.925	41.869	1683.571	1519.060
-31.911	41.940	1682.310	1518.403
-30.896	41.844	1680.331	1515.822
-29.881	41.959	1678.554	1515.029
-28.867	41.989	1676.627	1513.463
-27.852	41.848	1675.610	1511.414
-26.838	41.926	1673.916	1510.420
-25.823	41.785	1672.652	1508.152
-24.809	41.918	1670.397	1507.062
-23.794	41.913	1668.959	1505.667
-22.779	41.820	1667.881	1503.939
-21.765	41.946	1666.018	1503.140
-20.750	41.920	1664.540	1501.553
-19.736	41.903	1663.087	1500.054
-18.721	41.928	1661.878	1499.091
-17.706	41.839	1660.541	1497.163
-16.692	41.871	1658.523	1495.524
-15.677	41.869	1657.254	1494.301
-14.663	41.949	1655.534	1493.290
-13.648	41.923	1654.397	1492.014
-12.633	41.947	1652.538	1490.455
-11.619	41.821	1651.319	1488.356
-10.604	41.892	1649.324	1487.032
-9.590	41.846	1648.379	1485.773
-8.575	41.928	1647.368	1485.413
-7.560	41.840	1646.297	1483.734
-6.546	41.978	1644.308	1482.911
-5.531	41.853	1643.222	1480.947
-4.517	41.872	1642.061	1479.978
-3.502	41.802	1641.141	1478.572
-2.487	41.903	1639.613	1477.888
-1.473	41.808	1628.388	1467.012
-0.458	39.269	1608.456	1430.566
0.556	34.419	1607.550	1396.134
1.571	31.897	1632.416	1398.821
2.586	31.344	1647.435	1407.404
3.600	27.649	1593.118	1333.907
4.615	14.915	1470.810	1144.789
5.629	3.254	1393.786	1008.705
6.644	1.042	1383.476	986.761
7.659	0.811	1382.071	984.172
8.673	0.727	1381.015	982.787
9.688	0.760	1378.888	981.395
10.702	0.429	1376.510	977.472
11.717	4.758	1385.576	1012.017
12.731	16.578	1409.345	1107.063
13.746	24.231	1421.194	1166.576
14.761	24.514	1420.181	1167.492
15.775	24.366	1419.479	1165.844
16.790	24.364	1419.124	1165.432
17.804	24.458	1418.592	1165.511
18.819	24.633	1418.488	1166.463
19.834	24.754	1417.255	1166.133
20.848	24.743	1416.631	1165.443
21.863	24.752	1415.169	1164.199
22.877	24.753	1414.466	1163.522
23.892	24.770	1413.481	1162.718
24.907	24.675	1413.053	1161.648
25.921	24.780	1411.716	1161.129
26.936	24.633	1411.260	1159.697
27.950	24.725	1409.517	1158.757
28.965	24.646	1408.899	1157.636
29.980	24.754	1407.103	1156.753
30.994	24.782	1405.524	1155.534
32.009	24.732	1404.540	1154.303
33.023	24.694	1403.670	1153.240
34.038	24.719	1402.328	1152.194
35.053	24.731	1401.488	1151.483
36.067	24.711	1400.416	1150.368
37.082	24.726	1399.452	1149.573
38.096	24.655	1398.843	1148.513
39.111	24.670	1398.061	1147.868
40.126	24.711	1397.187	1147.310
41.140	24.827	1396.359	1147.275
42.155	24.787	1395.886	1146.527
43.169	24.690	1396.502	1146.311
44.184	24.760	1395.660	1145.965
45.199	24.663	1395.606	1145.200
46.213	24.745	1394.749	1144.917
47.228	24.783	1394.018	1144.463
48.242	24.669	1392.895	1142.708
49.257	24.694	1391.366	1141.511
50.271	24.678	1389.871	1140.086
51.286	24.653	1388.711	1138.872
52.301	24.651	1387.197	1137.514
53.315	24.664	1387.080	1137.406
54.330	24.760	1385.445	1136.573
55.344	24.662	1384.616	1135.169
56.359	24.625	1383.576	1133.981
57.374	24.593	1382.535	1132.827
58.388	24.745	1382.019	1133.264
59.403	24.697	1381.674	1132.575
60.417	24.694	1380.662	1131.627
61.432	24.637	1379.815	1130.475
62.447	24.680	1379.168	1130.114
63.461	24.755	1377.949	1129.491
64.476	24.734	1376.693	1128.229
65.490	24.860	1375.780	1128.172
66.505	24.752	1374.472	1126.319
67.520	24.770	1372.754	1124.929
68.534	24.683	1372.218	1123.845
69.549	24.733	1371.379	1123.367
70.563	24.740	1370.120	1122.282
71.578	24.810	1368.697	1121.456
72.593	24.772	1367.925	1120.486
73.607	24.737	1367.581	1119.885
74.622	24.771	1366.693	1119.274
75.636	24.830	1365.678	1118.710
76.651	24.751	1364.965	1117.532
77.666	24.641	1364.976	1116.761
78.680	24.626	1364.389	1116.088
79.695	24.693	1363.657	1115.807
80.709	24.728	1362.309	1114.821
81.724	24.795	1361.607	1114.569
82.739	24.654	1361.039	1113.123
83.753	24.670	1359.962	1112.247
84.768	24.693	1359.201	1111.666
85.782	24.673	1357.853	1110.343
86.797	24.696	1356.460	1109.249
87.812	24.665	1355.457	1108.140
88.826	24.815	1354.207	1107.949
89.841	24.757	1353.021	1106.517
90.855	24.746	1352.105	1105.603
91.870	24.774	1351.135	1104.886
92.884	24.794	1350.155	1104.108
93.899	24.723	1349.960	1103.418
94.914	24.695	1349.216	1102.539
95.928	24.734	1348.093	1101.762
96.943	24.751	1347.387	1101.192
97.957	24.765	1346.647	1100.576
98.972	24.753	1345.710	1099.640
99.987	24.772	1344.784	1098.899
101.001	24.691	1343.959	1097.631
102.016	24.696	1342.913	1096.714
103.030	24.720	1341.912	1095.944
104.045	24.833	1341.003	1095.795
105.060	24.803	1340.212	1094.872
106.074	24.774	1339.098	1093.688
107.089	24.764	1337.893	1092.545
108.103	24.869	1336.773	1092.173
109.118	24.816	1335.594	1090.794
110.133	24.843	1334.543	1089.998
111.147	24.883	1333.460	1089.263
112.162	24.793	1332.585	1087.905
113.176	24.890	1330.885	1087.007
114.191	24.847	1330.169	1086.070
115.206	24.887	1329.031	1085.285
116.220	24.951	1327.791	1084.565
117.235	24.838	1327.324	1083.402
118.249	24.773	1326.590	1082.311
119.264	24.809	1325.290	1081.376
120.279	24.817	1324.910	1081.016
121.293	24.873	1323.579	1080.173
122.308	24.831	1323.100	1079.432
123.322	24.887	1321.749	1078.575
124.337	24.866	1321.557	1078.192
125.352	24.898	1320.544	1077.464
126.366	24.813	1319.550	1076.048
127.381	24.807	1318.786	1075.292
128.395	24.846	1317.848	1074.668
129.410	24.853	1317.034	1073.952
130.424	24.846	1316.524	1073.396
131.439	24.965	1315.389	1073.092
132.454	24.825	1315.161	1071.971
133.468	24.893	1314.244	1071.539
134.483	24.834	1313.739	1070.678
135.497	24.818	1312.923	1069.823
136.512	24.844	1311.809	1068.975
137.527	24.898	1310.443	1068.089
138.541	24.921	1308.987	1066.945
139.556	24.868	1307.644	1065.439
140.570	24.898	1306.727	1064.776
141.585	24.932	1305.508	1063.890
142.600	24.842	1304.552	1062.482
143.614	24.882	1303.967	1062.152
144.629	24.937	1302.647	1061.306
145.643	24.814	1301.853	1059.836
146.658	24.833	1300.894	1059.079
147.673	24.788	1299.957	1057.955
148.687	24.815	1298.943	1057.197
149.702	24.793	1297.544	1055.833
150.716	24.806	1296.576	1055.029
151.731	24.827	1295.496	1054.180
152.746	24.835	1294.783	1053.553
153.760	24.893	1293.457	1052.723
154.775	24.772	1292.695	1051.296
155.789	24.908	1291.427	1050.972
156.804	24.854	1290.642	1049.926
157.819	24.855	1289.645	1049.023
158.833	24.876	1288.967	1048.504
159.848	24.863	1288.464	1047.926
160.862	24.970	1287.487	1047.666
161.877	24.900	1286.740	1046.558
162.892	24.856	1286.061	1045.651
163.906	24.980	1284.846	1045.297
164.921	24.995	1284.365	1044.903
165.935	24.963	1283.472	1043.897
166.950	24.948	1282.882	1043.233
167.964	24.917	1282.562	1042.700
168.979	24.871	1281.892	1041.795
169.994	24.959	1281.176	1041.632
171.008	25.111	1280.189	1041.626
172.023	25.056	1279.406	1040.575
173.037	24.919	1279.259	1039.570
174.052	24.968	1278.171	1038.877
175.067	24.959	1277.483	1038.170
176.081	25.038	1276.547	1037.776
177.096	24.974	1275.584	1036.534
178.110	24.944	1274.756	1035.592
179.125	24.981	1273.586	1034.768
180.140	24.937	1273.135	1034.054
181.154	24.951	1272.123	1033.223
182.169	25.023	1270.427	1032.170
183.183	24.961	1269.815	1031.223
184.198	25.063	1268.541	1030.684
185.213	25.087	1267.326	1029.740
186.227	25.105	1266.612	1029.177
187.242	25.054	1265.563	1027.940
188.256	25.066	1264.632	1027.161
189.271	25.008	1264.269	1026.443
190.286	25.011	1263.514	1025.758
191.300	24.980	1262.738	1024.859
192.315	24.991	1262.125	1024.330
193.329	25.030	1261.863	1024.253
194.344	25.239	1261.028	1024.679
195.359	25.151	1260.935	1024.008
196.373	25.047	1260.678	1023.117
197.388	24.979	1260.161	1022.216
198.402	25.010	1260.030	1022.196
199.417	24.987	1259.158	1021.265
200.432	25.058	1258.353	1020.930
201.446	25.059	1257.904	1020.481
202.461	25.090	1257.152	1019.958
203.475	25.026	1256.343	1018.848
204.490	25.124	1255.096	1018.301
205.504	25.090	1254.388	1017.446
206.519	25.222	1253.334	1017.249
207.534	25.183	1252.232	1016.042
208.548	25.027	1251.758	1014.686
209.563	25.124	1250.562	1014.174
210.577	25.076	1249.528	1012.972
211.592	25.176	1249.297	1013.261
212.607	25.268	1248.255	1012.847
213.621	25.126	1247.451	1011.304
214.636	25.186	1246.682	1010.927
215.650	25.162	1246.089	1010.221
216.665	25.222	1244.859	1009.475
217.680	25.216	1243.965	1008.624
218.694	25.174	1242.837	1007.388
219.709	25.270	1242.107	1007.247
220.723	25.165	1241.833	1006.344
221.738	25.141	1241.356	1005.736
222.753	25.198	1240.442	1005.224
223.767	25.172	1239.803	1004.471
224.782	25.319	1239.059	1004.602
225.796	25.246	1238.513	1003.665
226.811	25.189	1238.445	1003.199
227.826	25.370	1237.367	1003.249
228.840	25.260	1237.031	1002.274
229.855	25.242	1236.624	1001.757
230.869	25.223	1235.740	1000.847
231.884	25.236	1235.034	1000.257
232.899	25.332	1233.819	999.720
233.913	25.397	1233.181	999.474
234.928	25.431	1232.751	999.224
235.942	25.368	1232.541	998.619
236.957	25.316	1231.464	997.370
237.972	25.367	1230.562	996.832
238.986	25.341	1230.390	996.461
240.001	25.385	1229.872	996.195
241.015	25.430	1228.833	995.517
242.030	25.515	1228.051	995.262
243.045	25.425	1227.474	994.209
244.059	25.433	1226.461	993.350
245.074	25.495	1225.584	992.892
246.088	25.430	1224.666	991.702
247.103	25.527	1223.847	991.486
248.117	25.438	1223.152	990.344
249.132	25.442	1222.571	989.810
250.147	25.537	1221.708	989.547
251.161	25.646	1221.031	989.510
252.176	25.563	1220.332	988.397
253.190	25.515	1219.702	987.536
254.205	25.540	1219.275	987.241
255.220	25.571	1218.592	986.769
256.234	25.527	1218.223	986.144
257.249	25.565	1217.652	985.800
258.263	25.629	1216.743	985.327
259.278	25.612	1216.358	984.838
260.293	25.606	1215.563	984.071
261.307	25.586	1215.106	983.509
262.322	25.590	1214.720	983.131
263.336	25.520	1213.792	981.909
264.351	25.526	1213.455	981.584
265.366	25.555	1212.663	981.013
266.380	25.469	1212.342	980.199
267.395	25.586	1211.804	980.314
268.409	25.570	1210.601	979.167
269.424	25.643	1209.895	978.905
270.439	25.564	1209.796	978.308
271.453	25.739	1208.875	978.431
272.468	25.656	1207.656	976.904
273.482	25.559	1207.181	975.908
274.497	25.601	1206.947	975.859
275.512	25.700	1206.557	975.996
276.526	25.621	1206.088	975.101
277.541	25.649	1205.131	974.391
278.555	25.688	1204.437	973.956
279.570	25.760	1203.642	973.619
280.585	25.711	1202.679	972.490
281.599	25.715	1201.626	971.573
282.614	25.717	1200.859	970.877
283.628	25.803	1200.183	970.707
284.643	25.710	1199.451	969.527
285.657	25.686	1198.549	968.583
286.672	25.746	1197.791	968.211
287.687	25.726	1196.713	967.146
288.701	25.801	1196.092	966.958
289.716	25.876	1195.636	966.907
290.730	25.872	1194.877	966.187
291.745	25.839	1193.996	965.211
292.760	25.845	1193.784	964.989
293.774	25.694	1193.533	963.891
294.789	25.864	1192.879	964.187
295.803	25.819	1192.209	963.320
296.818	25.873	1191.332	962.813
297.833	25.938	1190.525	962.423
298.847	25.915	1190.105	961.875
299.862	25.881	1188.729	960.499
300.876	25.973	1188.212	960.485
301.891	25.957	1187.661	959.869
302.906	25.962	1187.187	959.426
303.920	25.916	1186.877	958.851
304.935	26.015	1185.921	958.519
305.949	25.920	1185.252	957.387
306.964	25.972	1184.652	957.097
307.979	26.039	1183.854	956.720
308.993	26.041	1183.426	956.300
310.008	26.072	1182.509	955.637
311.022	26.144	1181.516	955.131
312.037	26.061	1180.934	954.140
313.052	26.035	1180.192	953.315
314.066	26.036	1179.337	952.548
315.081	26.039	1179.077	952.272
316.095	26.081	1177.861	951.422
317.110	26.098	1177.549	951.176
318.125	26.058	1176.861	950.328
319.139	26.073	1175.834	949.491
320.154	26.120	1175.337	949.253
321.168	26.193	1174.969	949.257
322.183	26.089	1174.628	948.351
323.197	26.132	1173.667	947.719
324.212	26.157	1173.164	947.359
325.227	26.017	1173.204	946.574
326.241	26.169	1172.492	946.710
327.256	26.153	1171.714	945.915
328.270	26.170	1170.651	945.063
329.285	26.268	1169.448	944.517
330.300	26.081	1168.862	942.984
331.314	26.223	1168.203	943.111
332.329	26.191	1167.481	942.278
333.343	26.175	1166.969	941.699
334.358	26.252	1165.865	941.126
335.373	26.356	1164.860	940.772
336.387	26.430	1164.271	940.596
337.402	26.431	1163.636	940.007
338.416	26.385	1163.265	939.384
339.431	26.314	1162.596	938.395
340.446	26.502	1161.852	938.686
341.460	26.375	1161.382	937.562
342.475	26.433	1160.621	937.165
343.489	26.371	1159.685	936.007
344.504	26.338	1158.748	934.999
345.519	26.479	1157.584	934.706
346.533	26.563	1156.641	934.295
347.548	26.435	1156.638	933.546
348.562	26.432	1155.925	932.872
349.577	26.530	1154.900	932.472
350.592	26.465	1153.925	931.264
351.606	26.411	1153.411	930.491
352.621	26.383	1153.086	930.000
353.635	26.373	1152.475	929.378
354.650	26.395	1152.062	929.073
355.665	26.504	1151.005	928.696
356.679	26.473	1150.629	928.152
357.694	26.415	1150.134	927.376
358.708	26.504	1148.970	926.811
359.723	26.575	1148.112	926.400
360.738	26.608	1147.431	925.935
361.752	26.515	1147.318	925.287
362.767	26.503	1147.081	924.952
363.781	26.546	1146.419	924.557
364.796	26.624	1145.639	924.247
365.810	26.659	1144.979	923.806
366.825	26.633	1144.265	923.019
367.840	26.724	1143.669	922.921
368.854	26.827	1143.035	922.849
369.869	26.726	1142.531	921.847
370.883	26.735	1141.696	921.140
371.898	26.640	1140.893	919.928
372.913	26.669	1140.329	919.538
373.927	26.663	1139.935	919.109
374.942	26.671	1139.696	918.872
375.956	26.842	1138.938	919.049
376.971	26.667	1138.264	917.535
377.986	26.704	1137.947	917.387
379.000	26.761	1137.563	917.286
380.015	26.850	1136.736	916.986
381.029	26.892	1135.821	916.381
382.044	26.714	1135.644	915.255
383.059	26.890	1135.041	915.577
384.073	26.933	1133.858	914.761
385.088	26.841	1133.134	913.630
386.102	26.854	1132.504	913.109
387.117	26.814	1131.392	911.931
388.132	26.690	1130.644	910.622
389.146	26.758	1129.962	910.333
390.161	26.837	1129.345	910.152
391.175	26.815	1128.851	909.564
392.190	26.871	1128.501	909.483
393.205	26.866	1127.552	908.611
394.219	26.853	1126.836	907.891
395.234	26.877	1126.106	907.341
396.248	26.901	1125.083	906.558
397.263	27.028	1123.915	906.171
398.278	27.100	1123.182	905.856
399.292	27.159	1122.463	905.491
400.307	27.042	1122.307	904.705
401.321	27.038	1121.647	904.069
402.336	26.997	1120.900	903.186
403.350	27.049	1120.189	902.788
404.365	27.128	1119.687	902.697
405.380	27.068	1119.063	901.815
406.394	27.211	1118.164	901.721
407.409	27.054	1117.441	900.281
408.423	27.273	1116.642	900.643
409.438	27.131	1115.904	899.267
410.453	27.212	1115.387	899.168
411.467	27.091	1114.626	897.876
412.482	27.227	1113.656	897.687
413.496	27.326	1112.900	897.490
414.511	27.242	1112.469	896.645
415.526	27.285	1112.078	896.467
416.540	27.258	1111.897	896.106
417.555	27.236	1111.130	895.303
418.569	27.366	1110.302	895.192
419.584	27.346	1110.351	895.058
420.599	27.329	1109.950	894.567
421.613	84.690	1294.361	1359.232
422.628	79.507	1321.250	1359.362
