DTS Sentinel unit serial number:	SN413079Multiplexer serial number:	ORYXHardware model number:	OX4-SRSoftware version number:	ORYX F/W v4.00 Oryx Data Collector v3.7.2.0data status	okinstallation	princeton_trtdifferential loss correction	single-endedforward channel	channel 2reverse channel	N/Adate	2019/09/13time	22:47:35forward acquisition time	60.00reverse acquisition time	0.00gamma	496.2192k internal	0.2336k external	0.2336temperature offset calibration	1.0131default loss term (dB/km)	0.3790temperature slope calibration	1.0000multiplexer offset coefficient	1.0000multiplexer slope coefficient	1.0000fibre end	0.00T internal ref (°C)	27.55T ext. ref 1 (°C)	3.23T ext. ref 2 (°C)	21.62length (m)	temperature (°C)	Stokes	anti-Stokes-747.200	462.587	-0.065	-0.146
-746.185	112.615	-0.128	0.156
-745.171	-44.695	-0.140	0.070
-744.156	800.000	-0.042	-0.145
-743.142	401.658	0.141	0.297
-742.127	-67.302	-0.219	-0.086
-741.112	644.481	-0.190	-0.488
-740.098	298.733	-0.070	-0.130
-739.083	67.006	0.083	-0.084
-738.069	-39.787	-0.045	0.024
-737.054	497.654	-0.136	-0.314
-736.039	40.648	-0.073	-0.066
-735.025	-77.900	0.266	0.092
-734.010	396.046	0.057	0.120
-732.996	511.684	0.083	0.194
-731.981	182.567	-0.168	-0.249
-730.966	-42.807	-0.195	-0.100
-729.952	-86.278	-0.078	-0.024
-728.937	342.608	-0.109	-0.215
-727.923	-58.901	0.121	-0.053
-726.908	223.298	-0.107	0.173
-725.894	60.174	0.201	0.199
-724.879	562.112	-0.107	-0.261
-723.864	118.843	-0.218	0.270
-722.850	124.816	-0.209	0.264
-721.835	-200.000	0.007	-0.377
-720.821	194.665	0.051	0.077
-719.806	83.095	0.201	0.220
-718.791	353.954	-0.136	0.270
-717.777	-31.704	0.101	0.057
-716.762	8.593	0.258	-0.195
-715.748	-135.050	-0.382	-0.046
-714.733	707.874	-0.141	-0.374
-713.718	-200.000	0.013	-0.228
-712.704	81.003	-0.137	-0.149
-711.689	166.171	-0.073	-0.103
-710.675	800.000	0.021	-0.066
-709.660	424.944	-0.181	-0.390
-708.645	-84.641	-0.168	-0.053
-707.631	411.651	-0.038	-0.081
-706.616	63.566	-0.103	-0.104
-705.602	-102.586	-0.030	0.007
-704.587	-105.475	0.011	0.002
-703.572	-16.996	-0.154	0.098
-702.558	800.000	-0.026	-0.079
-701.543	-166.342	0.156	-0.007
-700.529	-200.000	-0.008	-0.482
-699.514	-118.129	-0.232	0.041
-698.499	-99.366	0.090	-0.023
-697.485	95.249	0.102	-0.116
-696.470	353.051	-0.133	-0.264
-695.456	-34.424	0.045	-0.025
-694.441	-159.865	0.141	-0.008
-693.426	-200.000	-0.021	0.148
-692.412	-83.790	0.186	-0.059
-691.397	-200.000	-0.011	-0.111
-690.383	-66.047	-0.226	-0.091
-689.368	-200.000	-0.004	-0.086
-688.354	-148.862	0.194	-0.016
-687.339	215.374	0.128	-0.204
-686.324	108.112	0.182	-0.217
-685.310	-156.812	0.035	0.002
-684.295	521.744	-0.026	0.062
-683.281	800.000	-0.007	-0.030
-682.266	-200.000	-0.008	-0.201
-681.251	-89.422	-0.285	0.084
-680.237	-103.197	0.136	-0.032
-679.222	35.005	-0.243	-0.213
-678.208	575.506	0.050	0.123
-677.193	54.372	0.183	-0.177
-676.178	726.811	-0.081	0.215
-675.164	-200.000	-0.017	-0.098
-674.149	-39.916	-0.094	0.049
-673.135	-47.055	-0.105	0.052
-672.120	-200.000	-0.005	-0.079
-671.105	-200.000	-0.213	-0.000
-670.091	-58.035	0.042	0.018
-669.076	-49.864	-0.259	-0.123
-668.062	552.652	-0.045	-0.107
-667.047	-66.849	0.125	-0.049
-666.032	800.000	0.053	0.179
-665.018	-55.384	0.343	-0.154
-664.003	-200.000	-0.014	-0.063
-662.989	37.163	0.155	-0.137
-661.974	-34.357	-0.169	0.093
-660.959	-80.626	-0.124	-0.041
-659.945	-140.181	0.209	-0.022
-658.930	540.259	-0.063	0.151
-657.916	93.548	0.025	-0.029
-656.901	-200.000	0.051	0.329
-655.886	175.542	0.082	-0.119
-654.872	-28.571	-0.108	-0.062
-653.857	800.000	-0.019	0.058
-652.843	-11.714	0.197	0.129
-651.828	-1.584	-0.427	-0.301
-650.814	13.941	0.196	0.152
-649.799	9.581	0.287	-0.218
-648.784	32.408	0.155	-0.134
-647.770	-77.921	0.041	0.014
-646.755	376.727	-0.062	-0.126
-645.741	-88.163	0.325	0.098
-644.726	46.036	-0.236	0.219
-643.711	-84.740	-0.151	0.047
-642.697	39.430	-0.054	0.048
-641.682	-30.115	0.284	-0.162
-640.668	-200.000	-0.011	-0.227
-639.653	-102.075	-0.288	0.070
-638.638	36.267	0.222	0.196
-637.624	6.559	0.230	-0.171
-636.609	446.553	0.132	-0.291
-635.595	800.000	-0.041	0.139
-634.580	-81.301	-0.378	0.125
-633.565	-200.000	0.031	0.284
-632.551	36.602	0.257	0.227
-631.536	29.332	-0.117	-0.099
-630.522	-200.000	0.052	-0.351
-629.507	7.997	-0.168	-0.126
-628.492	64.093	-0.137	0.138
-627.478	8.104	-0.151	0.114
-626.463	-82.369	-0.306	0.099
-625.449	-171.137	-0.126	0.004
-624.434	43.809	-0.147	-0.135
-623.419	800.000	-0.043	-0.146
-622.405	-200.000	0.036	-0.164
-621.390	117.715	-0.104	0.127
-620.376	-48.184	-0.104	-0.050
-619.361	246.701	-0.094	0.159
-618.346	90.524	0.065	-0.073
-617.332	39.923	-0.186	-0.167
-616.317	-45.736	-0.296	0.146
-615.303	-155.875	-0.168	-0.011
-614.288	523.309	-0.039	0.091
-613.273	10.033	0.237	0.180
-612.259	-5.733	-0.098	-0.067
-611.244	-200.000	0.007	-0.137
-610.230	24.423	-0.256	0.211
-609.215	-200.000	-0.017	-0.136
-608.201	315.629	0.103	-0.195
-607.186	154.684	-0.219	0.301
-606.171	-200.000	0.020	0.114
-605.157	-116.699	-0.092	-0.017
-604.142	165.094	0.157	-0.221
-603.128	-95.058	0.089	-0.024
-602.113	484.070	-0.119	0.271
-601.098	-200.000	0.218	-0.001
-600.084	-144.283	0.198	-0.018
-599.069	-200.000	-0.002	0.385
-598.055	614.091	0.007	0.017
-597.040	106.327	0.206	0.244
-596.025	-155.740	-0.040	-0.003
-595.011	-104.931	-0.227	-0.052
-593.996	-200.000	-0.002	-0.258
-592.982	430.550	-0.093	0.201
-591.967	-154.994	-0.429	0.028
-590.952	-151.926	0.112	-0.008
-589.938	-143.373	-0.119	0.011
-588.923	-14.910	-0.280	0.179
-587.909	305.112	0.116	0.216
-586.894	632.894	-0.107	-0.270
-585.879	614.328	0.130	0.326
-584.865	-91.737	-0.357	0.101
-583.850	-109.139	0.125	-0.027
-582.836	-200.000	0.025	-0.195
-581.821	-113.621	-0.332	-0.065
-580.806	544.825	0.096	0.228
-579.792	111.232	-0.073	0.088
-578.777	368.066	-0.053	-0.108
-577.763	-200.000	0.000	0.131
-576.748	357.757	0.070	0.139
-575.733	-165.777	0.311	-0.013
-574.719	-62.880	-0.137	0.057
-573.704	89.400	-0.223	-0.248
-572.690	-136.903	-0.221	0.025
-571.675	113.918	0.144	0.175
-570.661	590.403	-0.169	0.416
-569.646	25.894	0.228	-0.189
-568.631	580.872	-0.100	-0.245
-567.617	-69.628	0.161	0.061
-566.602	-91.910	0.203	-0.057
-565.588	-130.931	-0.421	0.056
-564.573	96.824	0.179	0.204
-563.558	800.000	-0.045	0.167
-562.544	-113.553	0.329	0.064
-561.529	-200.000	-0.032	0.170
-560.515	107.881	0.130	-0.154
-559.500	-200.000	0.021	-0.120
-558.485	-30.958	-0.045	-0.025
-557.471	-25.015	0.077	0.045
-556.456	-97.435	0.125	-0.033
-555.442	-200.000	0.045	0.211
-554.427	-4.975	-0.147	-0.101
-553.412	793.754	0.059	-0.161
-552.398	-64.350	0.108	0.044
-551.383	-25.252	-0.190	0.112
-550.369	-10.571	-0.248	-0.164
-549.354	-21.773	0.196	-0.119
-548.339	-200.000	-0.003	-0.235
-547.325	-90.552	0.197	0.057
-546.310	191.975	-0.156	-0.235
-545.296	-110.960	-0.180	-0.037
-544.281	97.424	0.161	-0.184
-543.266	-78.797	-0.127	-0.043
-542.252	625.288	-0.058	-0.146
-541.237	-59.131	-0.108	-0.046
-540.223	40.691	0.140	-0.126
-539.208	-200.000	0.047	-0.289
-538.193	-73.684	-0.295	0.107
-537.179	-71.018	0.332	0.125
-536.164	-146.394	-0.230	-0.020
-535.150	236.272	-0.103	-0.170
-534.135	800.000	0.086	-0.311
-533.121	-39.795	-0.117	-0.061
-532.106	686.018	-0.088	-0.228
-531.091	-131.378	-0.258	-0.034
-530.077	52.519	-0.107	-0.102
-529.062	800.000	0.100	-0.311
-528.048	15.438	0.087	-0.068
-527.033	-200.000	-0.000	-0.157
-526.018	-3.089	-0.172	0.119
-525.004	179.452	0.030	-0.043
-523.989	77.963	-0.214	0.227
-522.975	-37.304	0.185	0.099
-521.960	221.399	0.146	0.234
-520.945	-200.000	-0.022	-0.173
-519.931	-166.604	-0.271	0.011
-518.916	-200.000	0.001	-0.484
-517.902	527.495	-0.145	0.341
-516.887	-102.599	0.150	-0.036
-515.872	-13.321	-0.197	0.127
-514.858	51.700	0.333	-0.316
-513.843	-200.000	0.002	-0.181
-512.829	-200.000	0.044	-0.205
-511.814	11.610	0.115	-0.088
-510.799	-119.678	0.305	-0.052
-509.785	-200.000	0.001	-0.368
-508.770	-200.000	0.019	0.173
-507.756	114.454	-0.229	0.278
-506.741	-35.248	0.092	-0.050
-505.726	385.321	-0.038	0.079
-504.712	328.688	-0.041	0.079
-503.697	5.449	0.220	0.161
-502.683	-200.000	-0.066	0.414
-501.668	800.000	0.026	-0.072
-500.653	281.530	-0.033	0.059
-499.639	56.828	-0.119	0.115
-498.624	155.285	0.113	0.155
-497.610	111.792	0.148	-0.178
-496.595	-77.617	0.186	0.064
-495.581	800.000	-0.115	0.371
-494.566	800.000	-0.123	0.367
-493.551	22.541	-0.071	-0.058
-492.537	92.528	-0.222	-0.249
-491.522	-88.960	-0.463	-0.136
-490.508	-190.023	-0.351	-0.004
-489.493	514.375	0.240	-0.557
-488.478	-37.502	-0.268	-0.142
-487.464	277.511	0.145	-0.257
-486.449	-67.814	0.564	-0.219
-485.435	800.000	0.037	-0.105
-484.420	89.668	-0.095	0.106
-483.405	70.723	0.117	-0.120
-482.391	-82.193	-0.282	-0.091
-481.376	-200.000	0.083	-0.444
-480.362	-132.757	0.275	-0.035
-479.347	-77.540	-0.400	0.138
-478.332	-20.267	0.205	0.125
-477.318	60.107	0.223	-0.219
-476.303	10.106	-0.219	0.166
-475.289	800.000	0.047	0.165
-474.274	-88.004	0.253	0.075
-473.259	800.000	-0.051	-0.163
-472.245	198.034	-0.104	0.159
-471.230	48.412	-0.234	-0.217
-470.216	-200.000	0.006	-0.064
-469.201	-200.000	-0.032	0.619
-468.186	391.015	-0.093	0.192
-467.172	-10.040	0.257	0.169
-466.157	608.818	0.315	0.782
-465.143	-137.630	-0.290	0.032
-464.128	-153.269	-0.040	0.003
-463.113	190.520	-0.076	0.114
-462.099	-94.964	0.389	-0.104
-461.084	213.949	0.236	-0.370
-460.070	139.346	-0.092	0.120
-459.055	-113.751	-0.243	0.047
-458.040	-59.005	0.244	-0.105
-457.026	-200.000	-0.007	-0.032
-456.011	13.722	0.263	-0.203
-454.997	48.865	0.028	0.026
-453.982	-14.928	0.141	0.090
-452.968	-2.427	-0.209	0.146
-451.953	-65.590	-0.347	-0.138
-450.938	-139.104	0.268	-0.029
-449.924	209.689	-0.076	0.118
-448.909	-200.000	-0.030	-0.149
-447.895	-17.089	0.200	0.125
-446.880	-104.082	0.231	0.053
-445.865	-89.777	-0.270	-0.078
-444.851	555.964	0.020	0.048
-443.836	291.645	0.025	0.046
-442.822	22.051	-0.139	0.112
-441.807	299.574	-0.138	0.253
-440.792	-200.000	0.010	0.391
-439.778	190.955	0.065	0.097
-438.763	138.327	0.156	0.203
-437.749	-105.128	0.246	-0.056
-436.734	-58.562	0.333	0.144
-435.719	-76.138	-0.224	-0.078
-434.705	800.000	0.050	0.147
-433.690	720.267	-0.055	0.145
-432.676	134.412	0.105	-0.135
-431.661	-180.528	0.150	0.003
-430.646	91.416	-0.140	0.156
-429.632	800.000	-0.081	-0.261
-428.617	155.097	0.016	-0.022
-427.603	588.462	-0.041	-0.100
-426.588	800.000	-0.073	-0.254
-425.573	44.606	-0.196	0.179
-424.559	-165.196	-0.157	-0.007
-423.544	-50.917	-0.181	0.084
-422.530	75.781	0.293	0.307
-421.515	68.741	-0.265	-0.270
-420.500	14.186	-0.204	0.157
-419.486	478.623	0.066	-0.147
-418.471	800.000	0.085	0.358
-417.457	192.205	0.144	-0.216
-416.442	719.839	-0.169	-0.444
-415.428	-10.725	0.149	0.098
-414.413	-200.000	-0.002	0.126
-413.398	-2.173	0.259	-0.181
-412.384	-92.464	-0.387	0.108
-411.369	-146.077	0.392	-0.034
-410.355	-200.000	-0.083	0.401
-409.340	800.000	0.072	0.290
-408.325	-174.739	0.247	0.007
-407.311	254.441	-0.189	-0.320
-406.296	736.430	-0.038	0.102
-405.282	-167.552	0.258	0.010
-404.267	-200.000	-0.033	-0.219
-403.252	800.000	0.071	-0.209
-402.238	124.773	0.140	-0.175
-401.223	18.722	0.304	-0.241
-400.209	272.568	-0.142	0.248
-399.194	5.212	-0.098	0.071
-398.179	341.892	-0.174	-0.337
-397.165	-19.750	-0.199	0.122
-396.150	246.595	0.042	-0.070
-395.136	800.000	0.125	-0.380
-394.121	41.542	-0.068	-0.061
-393.106	-200.000	-0.048	0.229
-392.092	-200.000	-0.016	-0.261
-391.077	-200.000	-0.027	-0.176
-390.063	-25.108	-0.060	0.035
-389.048	2.027	-0.351	0.251
-388.033	-111.719	0.253	-0.051
-387.019	337.059	-0.159	0.305
-386.004	-163.195	0.431	-0.021
-384.990	-73.485	0.151	-0.055
-383.975	122.694	-0.173	-0.214
-382.960	14.314	-0.292	0.226
-381.946	-79.822	-0.278	-0.093
-380.931	463.070	-0.072	-0.160
-379.917	73.387	0.283	0.293
-378.902	800.000	-0.050	0.210
-377.888	54.086	0.131	-0.125
-376.873	-200.000	-0.044	0.301
-375.858	251.208	0.081	0.136
-374.844	-200.000	-0.017	-0.138
-373.829	-117.624	-0.151	-0.027
-372.815	72.937	0.176	-0.182
-371.800	385.676	0.059	0.121
-370.785	-123.763	-0.347	-0.054
-369.771	-60.085	-0.254	0.107
-368.756	-173.475	-0.132	0.004
-367.742	-82.798	0.433	-0.139
-366.727	47.016	0.133	0.122
-365.712	-200.000	-0.002	0.394
-364.698	248.772	-0.088	0.148
-363.683	-200.000	-0.047	0.359
-362.669	-118.924	-0.172	0.030
-361.654	-200.000	-0.061	-0.267
-360.639	301.647	-0.151	-0.277
-359.625	-87.284	0.365	-0.109
-358.610	-162.495	-0.347	-0.017
-357.596	-200.000	0.007	0.311
-356.581	556.981	0.072	0.171
-355.566	-48.963	0.256	0.121
-354.552	-200.000	-0.013	0.157
-353.537	-30.475	-0.214	0.120
-352.523	25.861	-0.164	0.135
-351.508	-123.553	-0.349	0.055
-350.493	-122.899	0.440	-0.070
-349.479	-102.685	0.355	0.084
-348.464	-78.560	0.100	-0.034
-347.450	448.531	0.078	0.170
-346.435	140.125	-0.125	0.163
-345.420	781.661	0.042	-0.115
-344.406	-183.225	-0.117	0.002
-343.391	-200.000	-0.010	-0.361
-342.377	62.042	0.204	-0.202
-341.362	-140.385	0.163	0.017
-340.348	50.730	-0.236	0.220
-339.333	68.903	-0.343	-0.348
-338.318	-110.963	0.128	-0.026
-337.304	800.000	-0.050	-0.149
-336.289	-174.597	0.123	-0.003
-335.275	-104.725	-0.239	-0.054
-334.260	137.748	-0.153	-0.198
-333.245	353.657	-0.177	-0.347
-332.231	-94.574	0.323	-0.087
-331.216	-11.154	0.043	-0.028
-330.202	90.385	-0.260	0.287
-329.187	-127.168	-0.089	0.013
-328.172	43.758	0.175	-0.158
-327.158	656.536	0.117	-0.296
-326.143	-200.000	0.025	-0.290
-325.129	-200.000	0.028	-0.310
-324.114	-94.482	-0.095	0.026
-323.099	250.053	-0.057	-0.095
-322.085	-32.724	0.106	-0.058
-321.070	-200.000	0.008	-0.050
-320.056	-88.153	0.224	0.066
-319.041	-200.000	0.050	-0.286
-318.026	317.245	0.127	-0.237
-317.012	-200.000	-0.052	-0.386
-315.997	-127.370	-0.342	0.049
-314.983	-3.585	0.062	0.043
-313.968	-111.162	-0.187	0.038
-312.953	90.982	-0.347	-0.384
-311.939	61.373	0.132	0.129
-310.924	-31.297	-0.230	-0.128
-309.910	-71.388	-0.120	0.044
-308.895	3.962	0.167	0.120
-307.880	52.321	-0.150	-0.142
-306.866	-111.424	0.405	0.082
-305.851	49.570	-0.191	0.177
-304.837	15.293	-0.179	0.139
-303.822	-14.776	-0.340	0.215
-302.807	-175.688	0.453	-0.012
-301.793	368.963	-0.107	-0.214
-300.778	-89.947	0.062	0.018
-299.764	90.171	0.267	-0.294
-298.749	22.797	-0.231	-0.186
-297.735	-13.993	0.238	0.152
-296.720	622.224	-0.051	0.127
-295.705	-48.054	-0.112	0.054
-294.691	-44.183	-0.306	-0.151
-293.676	-23.450	0.179	-0.106
-292.662	-111.371	-0.204	-0.041
-291.647	800.000	0.041	0.169
-290.632	-118.709	0.118	0.021
-289.618	100.997	0.132	-0.151
-288.603	-40.361	-0.125	0.064
-287.589	-47.161	0.350	0.169
-286.574	19.372	-0.153	-0.121
-285.559	-159.929	-0.149	-0.008
-284.545	660.577	-0.059	-0.151
-283.530	-4.644	0.091	-0.062
-282.516	791.079	0.075	0.203
-281.501	-61.123	0.086	-0.036
-280.486	350.262	-0.102	0.199
-279.472	-100.889	0.160	-0.039
-278.457	-200.000	0.046	0.222
-277.443	800.000	-0.060	0.211
-276.428	-25.994	-0.251	-0.146
-275.413	-2.463	-0.223	-0.154
-274.399	267.655	0.187	0.323
-273.384	167.670	-0.069	0.096
-272.370	59.002	0.265	0.257
-271.355	103.613	0.122	-0.141
-270.340	289.915	-0.095	-0.170
-269.326	-16.227	-0.107	-0.067
-268.311	-200.000	0.008	-0.082
-267.297	800.000	-0.031	-0.116
-266.282	800.000	-0.022	0.078
-265.267	-117.719	-0.350	0.062
-264.253	-107.335	0.151	-0.033
-263.238	-86.285	-0.325	0.099
-262.224	-40.969	0.234	-0.119
-261.209	-61.629	-0.511	-0.211
-260.195	403.665	0.129	0.268
-259.180	-131.304	0.068	-0.009
-258.165	-52.093	-0.095	0.043
-257.151	287.315	-0.109	0.194
-256.136	278.439	0.257	0.452
-255.122	292.346	-0.115	-0.207
-254.107	-200.000	0.038	0.196
-253.092	190.420	0.166	0.246
-252.078	-147.455	-0.155	-0.013
-251.063	-104.767	0.277	-0.063
-250.049	-79.078	0.362	-0.121
-249.034	23.107	0.101	-0.082
-248.019	-200.000	-0.022	0.262
-247.005	-138.784	-0.154	0.017
-245.990	800.000	-0.070	-0.254
-244.976	-136.642	-0.293	0.033
-243.961	95.204	-0.092	0.104
-242.946	36.753	-0.148	0.129
-241.932	27.784	-0.199	-0.165
-240.917	-175.173	0.297	0.008
-239.903	59.440	0.162	-0.157
-238.888	-200.000	0.041	-0.338
-237.873	-144.194	0.131	-0.012
-236.859	79.228	0.160	-0.168
-235.844	800.000	0.019	-0.065
-234.830	268.914	-0.107	-0.185
-233.815	34.105	-0.034	0.029
-232.800	-140.857	0.255	-0.026
-231.786	-79.526	0.036	-0.012
-230.771	-123.359	0.273	-0.043
-229.757	254.178	-0.161	0.271
-228.742	-73.107	0.163	-0.059
-227.727	-170.558	0.406	0.014
-226.713	107.423	-0.176	0.206
-225.698	-147.674	0.074	-0.006
-224.684	-200.000	-0.003	-0.043
-223.669	800.000	-0.069	0.188
-222.655	89.508	-0.377	-0.414
-221.640	800.000	-0.028	0.081
-220.625	174.064	0.054	0.077
-219.611	-117.152	0.105	0.019
-218.596	99.026	-0.059	0.067
-217.582	-200.000	-0.006	-0.165
-216.567	73.963	-0.072	0.074
-215.552	-95.421	0.129	-0.034
-214.538	-200.000	0.019	0.392
-213.523	800.000	-0.071	-0.250
-212.509	-17.466	0.089	0.055
-211.494	85.244	-0.157	0.169
-210.479	-76.441	0.245	0.085
-209.465	-106.750	-0.086	-0.019
-208.450	17.317	-0.168	-0.131
-207.436	-200.000	-0.047	-0.377
-206.421	-200.000	-0.026	0.123
-205.406	507.737	-0.011	0.025
-204.392	-200.000	-0.021	0.104
-203.377	-65.193	-0.127	0.050
-202.363	32.230	0.135	-0.114
-201.348	-200.000	-0.454	-0.000
-200.333	-60.178	0.072	0.030
-199.319	409.632	0.121	-0.251
-198.304	800.000	0.028	-0.104
-197.290	800.000	0.070	-0.279
-196.275	37.623	0.294	-0.256
-195.260	-181.128	0.353	0.007
-194.246	-14.489	0.173	0.110
-193.231	117.693	-0.329	0.398
-192.217	-28.949	-0.167	-0.094
-191.202	8.236	-0.096	0.071
-190.187	-159.157	0.113	-0.006
-189.173	771.027	-0.086	-0.230
-188.158	-200.000	0.043	0.348
-187.144	-14.915	0.326	0.205
-186.129	393.776	0.082	-0.168
-185.114	-0.508	0.365	-0.255
-184.100	220.898	-0.130	-0.205
-183.085	-200.000	0.027	0.191
-182.071	800.000	0.091	0.306
-181.056	-76.792	-0.537	-0.185
-180.042	-28.999	0.140	0.079
-179.027	73.859	0.134	0.138
-178.012	692.377	0.060	0.153
-176.998	280.472	0.036	-0.063
-175.983	-200.000	-0.056	0.273
-174.969	-200.000	0.028	0.207
-173.954	-200.000	-0.046	0.532
-172.939	-135.067	0.321	-0.038
-171.925	213.921	0.175	0.272
-170.910	-39.575	0.292	-0.150
-169.896	-106.793	0.335	-0.073
-168.881	167.124	-0.030	-0.041
-167.866	800.000	0.069	0.274
-166.852	77.156	0.164	0.171
-165.837	21.389	0.233	-0.186
-164.823	58.475	0.131	-0.126
-163.808	199.630	-0.134	-0.202
-162.793	-84.053	0.418	0.130
-161.779	-200.000	-0.024	-0.216
-160.764	244.123	0.247	0.407
-159.750	10.232	-0.262	-0.196
-158.735	85.281	-0.053	-0.057
-157.720	-129.607	-0.273	0.037
-156.706	12.468	0.233	0.177
-155.691	61.761	0.280	-0.273
-154.677	161.456	0.215	0.295
-153.662	-169.966	-0.210	0.007
-152.647	226.279	-0.120	-0.192
-151.633	-152.080	0.251	0.018
-150.618	-64.104	-0.333	0.133
-149.604	800.000	-0.073	0.226
-148.589	-200.000	0.001	0.115
-147.574	-200.000	0.031	-0.143
-146.560	-30.143	-0.308	0.172
-145.545	-200.000	-0.007	-0.142
-144.531	-128.810	0.105	0.014
-143.516	800.000	-0.114	-0.327
-142.502	-6.197	-0.089	0.060
-141.487	800.000	-0.132	-0.375
-140.472	-200.000	-0.005	-0.131
-139.458	-114.427	0.363	0.068
-138.443	54.160	-0.159	-0.150
-137.429	-21.334	0.468	0.280
-136.414	340.847	0.081	0.155
-135.399	-126.075	-0.239	-0.035
-134.385	30.114	-0.114	-0.095
-133.370	249.629	-0.011	0.019
-132.356	-200.000	-0.024	0.291
-131.341	-200.000	0.040	-0.281
-130.326	9.311	-0.335	-0.248
-129.312	2.243	-0.059	0.042
-128.297	-69.683	0.224	-0.084
-127.283	33.057	-0.101	0.086
-126.268	87.760	0.105	-0.114
-125.253	-200.000	-0.079	-0.560
-124.239	-92.995	0.096	-0.026
-123.224	-2.996	-0.183	-0.125
-122.210	80.387	0.103	0.108
-121.195	53.019	-0.063	0.060
-120.180	-63.717	-0.192	0.077
-119.166	731.344	0.129	0.337
-118.151	659.374	0.045	-0.113
-117.137	160.062	0.080	-0.109
-116.122	31.761	0.110	0.092
-115.107	-200.000	-0.037	0.224
-114.093	188.686	0.116	0.170
-113.078	142.430	0.138	-0.180
-112.064	-33.047	-0.258	0.140
-111.049	800.000	-0.009	-0.031
-110.034	623.022	-0.130	0.322
-109.020	-115.740	-0.095	0.017
-108.005	-95.622	0.138	-0.036
-106.991	-80.911	0.250	-0.081
-105.976	174.196	-0.355	-0.502
-104.962	800.000	0.003	0.012
-103.947	800.000	0.073	-0.200
-102.932	36.414	-0.134	-0.116
-101.918	-44.701	0.019	-0.009
-100.903	-71.806	-0.029	-0.011
-99.889	128.778	-0.080	-0.100
-98.874	-18.494	0.177	-0.108
-97.859	611.373	-0.089	0.218
-96.845	61.176	0.290	-0.283
-95.830	800.000	0.078	0.252
-94.816	109.992	0.221	0.260
-93.801	-19.099	-0.345	-0.210
-92.786	-11.848	-0.139	-0.089
-91.772	464.079	-0.063	-0.138
-90.757	-200.000	-0.041	0.366
-89.743	-135.448	-0.061	0.007
-88.728	-200.000	0.032	0.243
-87.713	16.168	0.162	0.125
-86.699	-200.000	0.023	0.385
-85.684	68.224	0.052	-0.052
-84.670	671.369	-0.198	-0.502
-83.655	-164.587	0.370	0.016
-82.640	252.160	-0.123	0.204
-81.626	526.445	0.046	-0.107
-80.611	-200.000	0.038	-0.261
-79.597	-200.000	-0.002	0.062
-78.582	-70.567	0.164	0.061
-77.567	-200.000	0.040	0.256
-76.553	-101.987	0.242	-0.057
-75.538	-200.000	0.004	-0.113
-74.524	152.321	-0.161	0.215
-73.509	-85.498	-0.177	-0.054
-72.494	-150.225	-0.419	0.032
-71.480	281.119	0.131	0.230
-70.465	18.832	0.046	-0.036
-69.451	11.888	-0.290	-0.218
-68.436	498.460	-0.046	-0.103
-67.422	-200.000	-0.020	-0.163
-66.407	-200.000	0.058	-0.258
-65.392	351.290	0.056	0.108
-64.378	633.591	0.078	-0.192
-63.363	-40.102	-0.053	0.027
-62.349	-129.287	0.237	0.032
-61.334	191.249	-0.909	-1.339
-60.319	-9.217	0.505	0.330
-59.305	-200.000	-0.155	-1.069
-58.290	379.144	0.577	1.155
-57.276	345.687	0.856	1.646
-56.261	-200.000	115.149	670.308
-55.246	549.559	1518.682	3559.436
-54.232	178.224	2693.365	3843.222
-53.217	103.396	2285.946	2621.623
-52.203	36.835	1894.587	1637.233
-51.188	30.670	1685.816	1410.209
-50.173	28.217	1644.319	1357.274
-49.159	50.333	1700.233	1570.585
-48.144	49.139	1713.805	1574.094
-47.130	30.315	1672.547	1396.217
-46.115	27.726	1657.491	1364.259
-45.100	27.489	1652.481	1358.314
-44.086	27.447	1649.897	1355.821
-43.071	27.389	1647.341	1353.239
-42.057	27.390	1644.982	1351.256
-41.042	27.415	1643.133	1349.865
-40.027	27.420	1640.870	1347.990
-39.013	27.459	1639.023	1346.710
-37.998	27.428	1637.565	1345.229
-36.984	27.433	1636.596	1344.418
-35.969	27.544	1634.352	1343.334
-34.954	27.551	1633.008	1342.230
-33.940	27.550	1631.496	1340.929
-32.925	27.606	1629.478	1339.626
-31.911	27.543	1627.630	1337.593
-30.896	27.524	1625.995	1336.055
-29.881	27.489	1624.802	1334.768
-28.867	27.584	1622.440	1333.467
-27.852	27.448	1621.686	1331.800
-26.838	27.550	1619.736	1330.894
-25.823	27.498	1618.776	1329.669
-24.809	27.605	1617.203	1329.104
-23.794	27.473	1616.302	1327.348
-22.779	27.504	1614.600	1326.129
-21.765	27.603	1612.778	1325.298
-20.750	27.506	1611.625	1323.596
-19.736	27.576	1609.690	1322.457
-18.721	27.547	1608.863	1321.519
-17.706	27.541	1607.156	1320.016
-16.692	27.576	1605.549	1318.901
-15.677	27.589	1604.372	1317.973
-14.663	27.607	1603.260	1317.137
-13.648	27.583	1601.498	1315.468
-12.633	27.626	1599.728	1314.272
-11.619	27.636	1598.265	1313.083
-10.604	27.518	1596.913	1311.073
-9.590	27.592	1595.693	1310.556
-8.575	27.691	1594.651	1310.359
-7.560	27.600	1593.260	1308.510
-6.546	27.660	1592.283	1308.085
-5.531	27.588	1591.121	1306.562
-4.517	27.556	1589.898	1305.276
-3.502	27.582	1588.945	1304.627
-2.487	27.671	1586.980	1303.601
-1.473	27.300	1574.485	1290.650
-0.458	24.076	1555.360	1252.287
0.556	21.456	1556.207	1220.351
1.571	18.972	1579.549	1220.933
2.586	18.466	1591.684	1226.583
3.600	16.236	1537.336	1169.167
4.615	9.648	1430.554	1045.264
5.629	4.117	1371.695	967.696
6.644	3.246	1364.831	957.351
7.659	3.192	1363.297	955.859
8.673	3.197	1362.409	955.181
9.688	3.275	1360.363	954.142
10.702	3.164	1357.464	951.341
11.717	5.703	1361.837	970.052
12.731	12.974	1375.618	1025.105
13.746	19.197	1385.618	1071.292
14.761	20.549	1386.680	1080.428
15.775	19.930	1384.677	1074.931
16.790	18.868	1382.289	1066.394
17.804	18.092	1379.826	1059.593
18.819	17.750	1378.784	1056.579
19.834	17.548	1377.888	1054.550
20.848	17.486	1376.749	1053.201
21.863	17.306	1375.213	1050.819
22.877	17.153	1374.624	1049.335
23.892	17.197	1373.098	1048.347
24.907	17.201	1372.203	1047.595
25.921	17.155	1371.607	1046.761
26.936	17.213	1370.320	1046.049
27.950	17.161	1369.715	1045.171
28.965	17.237	1368.802	1044.850
29.980	17.365	1367.697	1044.701
30.994	17.484	1366.537	1044.450
32.009	17.462	1366.047	1043.849
33.023	17.521	1364.466	1042.911
34.038	17.353	1362.975	1040.650
35.053	17.291	1361.842	1039.316
36.067	17.405	1360.553	1038.937
37.082	17.320	1359.523	1037.537
38.096	17.421	1358.898	1037.588
39.111	17.486	1358.005	1037.208
40.126	17.305	1356.832	1035.116
41.140	17.076	1355.938	1032.953
42.155	17.023	1355.206	1031.981
43.169	16.893	1355.606	1031.401
44.184	16.974	1354.959	1031.310
45.199	16.997	1354.359	1030.904
46.213	17.132	1353.899	1031.284
47.228	17.138	1353.626	1031.020
48.242	17.291	1352.557	1031.043
49.257	17.177	1350.949	1029.033
50.271	17.282	1349.231	1028.270
51.286	17.275	1348.151	1027.313
52.301	17.248	1346.416	1025.738
53.315	17.064	1345.809	1024.075
54.330	17.112	1344.481	1023.262
55.344	16.918	1343.798	1021.484
56.359	17.168	1342.164	1021.654
57.374	17.044	1341.413	1020.246
58.388	16.907	1340.702	1018.794
59.403	16.934	1340.110	1018.415
60.417	17.042	1339.031	1018.153
61.432	16.771	1338.505	1016.040
62.447	16.802	1337.322	1015.237
63.461	16.730	1335.977	1013.697
64.476	16.639	1335.490	1012.693
65.490	16.735	1333.915	1011.983
66.505	16.787	1332.386	1011.042
67.520	16.750	1331.227	1009.852
68.534	16.801	1330.203	1009.291
69.549	16.819	1328.897	1008.316
70.563	16.681	1328.382	1007.012
71.578	16.598	1326.956	1005.350
72.593	16.644	1325.981	1004.795
73.607	16.606	1325.333	1003.990
74.622	16.618	1324.372	1003.248
75.636	16.677	1323.999	1003.224
76.651	16.609	1323.337	1002.233
77.666	16.826	1322.553	1002.835
78.680	16.699	1322.574	1002.010
79.695	16.827	1321.775	1002.070
80.709	16.859	1321.073	1001.640
81.724	17.002	1320.138	1001.690
82.739	16.988	1319.766	1001.235
83.753	17.147	1318.996	1001.496
84.768	17.348	1317.974	1001.817
85.782	17.397	1316.506	1000.899
86.797	17.440	1314.969	999.898
87.812	17.134	1314.450	997.615
88.826	17.086	1313.269	996.350
89.841	17.240	1312.027	996.224
90.855	17.347	1311.356	996.251
91.870	17.397	1310.603	995.882
92.884	17.458	1309.479	995.301
93.899	17.326	1309.036	994.101
94.914	17.476	1307.974	994.082
95.928	17.572	1306.902	993.741
96.943	17.366	1306.209	991.928
97.957	17.258	1305.574	990.724
98.972	17.327	1304.048	989.885
99.987	17.310	1303.504	989.284
101.001	17.363	1302.042	988.394
102.016	17.354	1301.480	987.826
103.030	17.353	1300.666	987.116
104.045	17.265	1299.657	985.751
105.060	17.258	1298.341	984.628
106.074	17.075	1296.523	982.106
107.089	16.963	1294.663	979.958
108.103	16.900	1293.591	978.696
109.118	16.812	1292.814	977.516
110.133	16.874	1291.229	976.587
111.147	16.762	1290.051	974.966
112.162	16.908	1288.636	974.648
113.176	16.900	1287.869	973.939
114.191	16.998	1286.909	973.688
115.206	16.894	1285.426	971.881
116.220	16.951	1284.304	971.277
117.235	16.936	1283.242	970.298
118.249	16.977	1281.697	969.282
119.264	16.936	1280.654	968.173
120.279	16.800	1279.949	966.775
121.293	16.811	1278.377	965.566
122.308	16.766	1277.259	964.380
123.322	16.615	1276.325	962.734
124.337	16.775	1275.204	962.711
125.352	16.584	1274.357	960.899
126.366	16.669	1273.233	960.449
127.381	16.688	1272.122	959.638
128.395	16.780	1270.920	959.164
129.410	16.645	1270.500	958.001
130.424	16.741	1270.005	958.083
131.439	16.864	1268.961	957.904
132.454	16.905	1268.079	957.386
133.468	16.958	1267.433	957.114
134.483	16.925	1266.443	956.095
135.497	16.933	1265.333	955.220
136.512	16.952	1264.382	954.524
137.527	17.060	1263.059	954.046
138.541	17.017	1261.181	952.305
139.556	17.061	1260.563	952.000
140.570	16.996	1259.969	951.100
141.585	17.162	1258.192	950.604
142.600	17.190	1257.423	950.100
143.614	17.243	1257.184	950.129
144.629	17.357	1255.362	949.306
145.643	17.306	1254.400	948.206
146.658	17.243	1252.916	946.650
147.673	17.191	1251.632	945.309
148.687	17.030	1250.408	943.402
149.702	16.982	1249.093	942.063
150.716	17.059	1247.364	941.101
151.731	16.997	1246.331	939.898
152.746	17.050	1245.416	939.415
153.760	17.020	1244.359	938.370
154.775	17.088	1243.385	937.928
155.789	17.222	1242.314	937.777
156.804	17.279	1241.062	937.062
157.819	17.387	1240.439	937.105
158.833	17.394	1239.585	936.415
159.848	17.542	1238.895	936.628
160.862	17.485	1237.458	935.141
161.877	17.202	1236.083	932.469
162.892	17.022	1234.941	930.540
163.906	17.082	1234.067	930.127
164.921	17.070	1233.235	929.348
165.935	17.063	1232.402	928.601
166.950	17.169	1231.933	928.749
167.964	17.141	1231.112	927.891
168.979	17.179	1230.450	927.521
169.994	17.160	1229.433	926.566
171.008	17.214	1228.534	926.102
172.023	17.355	1227.996	926.380
173.037	17.345	1227.151	925.609
174.052	17.464	1226.004	925.305
175.067	17.235	1224.767	923.046
176.081	17.127	1223.728	921.595
177.096	17.088	1223.146	920.866
178.110	17.234	1221.986	920.704
179.125	17.141	1221.045	919.410
180.140	17.227	1219.813	918.865
181.154	17.345	1218.816	918.670
182.169	17.423	1217.587	918.085
183.183	17.494	1216.176	917.322
184.198	17.530	1215.485	916.913
185.213	17.545	1214.399	916.093
186.227	17.498	1213.906	915.389
187.242	17.604	1212.880	915.102
188.256	17.613	1211.809	914.258
189.271	17.755	1210.419	913.894
190.286	17.479	1209.434	911.592
191.300	17.194	1208.480	909.264
192.315	17.014	1207.650	907.596
193.329	17.011	1207.619	907.477
194.344	17.166	1206.930	907.708
195.359	17.274	1206.229	907.678
196.373	17.475	1205.702	908.271
197.388	17.479	1205.168	907.812
198.402	17.746	1205.286	909.243
199.417	17.813	1204.204	908.703
200.432	17.940	1203.470	908.745
201.446	17.955	1202.757	908.204
202.461	17.902	1202.048	907.307
203.475	17.890	1201.338	906.632
204.490	17.843	1200.014	905.299
205.504	17.707	1198.270	903.182
206.519	17.720	1196.846	902.101
207.534	17.562	1196.316	900.784
208.548	17.687	1195.395	900.670
209.563	17.608	1195.140	899.983
210.577	17.685	1193.896	899.375
211.592	17.775	1192.574	898.773
212.607	17.951	1192.194	899.332
213.621	17.896	1191.439	898.396
214.636	17.798	1190.683	897.231
215.650	17.919	1189.433	896.843
216.665	17.932	1188.680	896.265
217.680	18.108	1188.037	896.622
218.694	18.079	1187.117	895.696
219.709	17.955	1186.431	894.452
220.723	17.985	1185.447	893.787
221.738	18.024	1184.928	893.523
222.753	18.003	1183.651	892.370
223.767	18.055	1183.191	892.213
224.782	18.048	1183.089	892.022
225.796	18.188	1182.150	891.965
226.811	18.250	1181.582	891.779
227.826	18.039	1180.945	890.123
228.840	18.073	1179.821	889.376
229.855	18.010	1179.404	888.656
230.869	18.070	1178.254	888.021
231.884	18.013	1177.354	886.968
232.899	17.883	1176.662	885.695
233.913	17.757	1176.189	884.603
234.928	17.775	1174.898	883.648
235.942	17.749	1174.203	882.916
236.957	17.862	1173.640	882.998
237.972	17.923	1172.717	882.539
238.986	17.822	1172.325	881.644
240.001	17.818	1171.700	881.076
241.015	17.972	1170.550	880.927
242.030	17.978	1169.588	880.155
243.045	18.030	1168.917	879.843
244.059	18.104	1168.286	879.671
245.074	18.040	1167.609	878.755
246.088	18.170	1166.779	878.717
247.103	18.267	1165.860	878.445
248.117	18.447	1165.369	878.923
249.132	18.411	1165.025	878.402
250.147	18.638	1164.068	878.764
251.161	18.746	1163.606	878.890
252.176	18.695	1162.850	877.981
253.190	18.817	1162.203	878.038
254.205	18.894	1161.905	878.130
255.220	18.863	1161.127	877.302
256.234	18.855	1160.290	876.553
257.249	18.827	1159.843	875.998
258.263	18.805	1159.255	875.361
259.278	18.744	1158.644	874.512
260.293	18.787	1158.276	874.374
261.307	18.837	1157.512	873.974
262.322	18.794	1156.790	873.133
263.336	18.871	1155.943	872.809
264.351	18.880	1155.722	872.609
265.366	18.890	1154.843	871.921
266.380	19.049	1153.585	871.698
267.395	18.899	1152.964	870.393
268.409	18.730	1152.557	869.153
269.424	18.790	1151.586	868.650
270.439	18.737	1151.197	868.009
271.453	18.890	1150.080	867.865
272.468	18.714	1148.979	866.067
273.482	18.687	1148.309	865.353
274.497	18.702	1147.928	865.064
275.512	18.705	1147.086	864.367
276.526	18.803	1146.372	864.248
277.541	18.771	1145.570	863.403
278.555	18.836	1144.847	863.108
279.570	18.913	1144.318	863.020
280.585	19.074	1143.682	863.273
281.599	19.066	1142.613	862.350
282.614	18.942	1141.756	861.003
283.628	18.923	1140.387	859.799
284.643	18.853	1139.701	858.860
285.657	18.955	1138.732	858.562
286.672	18.979	1137.596	857.750
287.687	18.962	1136.655	856.875
288.701	18.853	1136.204	855.919
289.716	18.986	1135.474	855.955
290.730	18.904	1134.825	854.981
291.745	18.959	1134.295	854.779
292.760	18.985	1133.646	854.347
293.774	19.057	1133.267	854.341
294.789	19.210	1132.410	854.377
295.803	19.245	1131.700	853.942
296.818	19.111	1130.677	852.428
297.833	19.015	1130.073	851.423
298.847	19.049	1128.919	850.647
299.862	19.029	1128.775	850.364
300.876	19.119	1128.108	850.232
301.891	19.187	1127.536	850.062
302.906	19.198	1126.882	849.549
303.920	19.348	1125.709	849.328
304.935	19.395	1125.431	849.276
305.949	19.458	1125.141	849.288
306.964	19.411	1124.327	848.366
307.979	19.301	1123.190	846.897
308.993	19.292	1122.712	846.418
310.008	19.384	1122.325	846.498
311.022	19.461	1121.143	845.910
312.037	19.408	1120.579	845.152
313.052	19.300	1119.115	843.445
314.066	19.215	1118.220	842.280
315.081	19.133	1117.376	841.167
316.095	19.052	1116.465	840.014
317.110	19.204	1115.766	840.153
318.125	19.102	1115.239	839.187
319.139	19.179	1114.230	838.728
320.154	19.245	1113.651	838.537
321.168	19.288	1112.877	838.090
322.183	19.225	1112.820	837.667
323.197	19.217	1112.374	837.220
324.212	19.188	1111.491	836.339
325.227	19.339	1110.861	836.521
326.241	19.479	1109.976	836.460
327.256	19.360	1109.354	835.342
328.270	19.255	1108.193	833.888
329.285	19.313	1107.442	833.526
330.300	19.276	1106.868	832.841
331.314	19.309	1105.616	831.987
332.329	19.374	1104.749	831.572
333.343	19.435	1103.819	831.093
334.358	19.429	1103.303	830.604
335.373	19.517	1102.844	830.607
336.387	19.575	1101.761	829.996
337.402	19.573	1101.184	829.481
338.416	19.478	1100.923	828.752
339.431	19.583	1100.267	828.689
340.446	19.771	1099.285	828.777
341.460	19.906	1099.069	829.188
342.475	19.848	1098.129	828.127
343.489	19.812	1097.143	827.139
344.504	19.935	1096.294	827.014
345.519	20.060	1095.422	826.881
346.533	20.082	1094.800	826.441
347.548	20.034	1094.409	825.844
348.562	20.006	1093.447	824.912
349.577	19.938	1092.435	823.751
350.592	19.755	1091.230	821.903
351.606	19.695	1090.679	821.131
352.621	19.715	1089.772	820.469
353.635	19.642	1089.270	819.673
354.650	19.678	1088.537	819.216
355.665	19.728	1088.029	818.999
356.679	19.731	1087.472	818.521
357.694	19.780	1086.941	818.280
358.708	19.894	1086.213	818.200
359.723	19.920	1085.790	817.933
360.738	19.889	1085.163	817.240
361.752	19.980	1084.465	817.071
362.767	19.949	1083.887	816.420
363.781	19.944	1083.690	816.175
364.796	20.007	1083.056	815.923
365.810	20.138	1082.166	815.795
366.825	20.203	1081.712	815.687
367.840	20.402	1081.449	816.353
368.854	20.345	1080.965	815.645
369.869	20.334	1080.035	814.819
370.883	20.244	1079.316	813.784
371.898	20.208	1078.195	812.699
372.913	20.256	1077.966	812.679
373.927	20.236	1077.528	812.185
374.942	20.392	1076.736	812.245
375.956	20.224	1076.521	811.224
376.971	20.317	1075.700	810.967
377.986	20.271	1075.427	810.477
379.000	20.479	1074.638	810.778
380.015	20.596	1074.358	811.041
381.029	20.531	1073.280	809.854
382.044	20.508	1072.800	809.315
383.059	20.531	1072.114	808.830
384.073	20.645	1070.766	808.272
385.088	20.443	1070.141	806.793
386.102	20.622	1068.977	806.671
387.117	20.522	1067.720	805.188
388.132	20.399	1067.093	804.077
389.146	20.310	1066.356	803.038
390.161	20.294	1065.448	802.209
391.175	20.328	1064.737	801.758
392.190	20.389	1064.066	801.466
393.205	20.680	1063.533	802.333
394.219	20.587	1062.633	801.155
395.234	20.440	1061.892	799.851
396.248	20.301	1061.055	798.509
397.263	20.338	1059.938	797.767
398.278	20.365	1059.200	797.265
399.292	20.254	1058.521	796.175
400.307	20.251	1057.767	795.525
401.321	20.358	1056.791	795.208
402.336	20.323	1056.224	794.551
403.350	20.322	1055.621	794.022
404.365	20.344	1055.116	793.672
405.380	20.425	1054.135	793.234
406.394	20.405	1053.639	792.699
407.409	20.499	1052.798	792.428
408.423	20.706	1052.502	793.079
409.438	20.726	1051.869	792.623
410.453	20.894	1050.820	792.524
411.467	20.772	1050.386	791.572
412.482	20.993	1049.842	792.096
413.496	20.927	1049.322	791.333
414.511	20.975	1048.638	790.968
415.526	21.126	1048.400	791.402
416.540	21.118	1048.189	791.136
417.555	21.044	1047.465	790.184
418.569	21.075	1046.760	789.724
419.584	20.939	1046.253	788.656
420.599	20.955	1046.034	788.495
421.613	155.526	1403.667	1796.820
422.628	142.501	1455.734	1796.927
