DTS Sentinel unit serial number:	SN413079Multiplexer serial number:	ORYXHardware model number:	OX4-SRSoftware version number:	ORYX F/W v4.00 Oryx Data Collector v3.7.2.0data status	okinstallation	princeton_trtdifferential loss correction	single-endedforward channel	channel 2reverse channel	N/Adate	2019/09/15time	05:39:35forward acquisition time	60.00reverse acquisition time	0.00gamma	496.2192k internal	0.2326k external	0.2326temperature offset calibration	1.0027default loss term (dB/km)	0.3790temperature slope calibration	1.0000multiplexer offset coefficient	1.0000multiplexer slope coefficient	1.0000fibre end	0.00T internal ref (°C)	30.62T ext. ref 1 (°C)	4.76T ext. ref 2 (°C)	25.79length (m)	temperature (°C)	Stokes	anti-Stokes-747.200	202.535	0.094	0.147
-746.185	62.552	-0.151	0.152
-745.171	-200.000	-0.026	0.345
-744.156	-146.655	-0.274	-0.024
-743.142	39.156	-0.058	0.052
-742.127	-2.081	-0.273	0.193
-741.112	73.452	-0.232	0.244
-740.098	-22.580	-0.114	0.070
-739.083	130.300	-0.138	0.178
-738.069	-38.057	-0.161	-0.086
-737.054	-121.243	-0.159	-0.027
-736.039	-93.914	-0.385	0.107
-735.025	129.713	-0.092	-0.118
-734.010	-200.000	0.010	-0.048
-732.996	49.538	-0.111	-0.106
-731.981	67.183	0.037	0.038
-730.966	-200.000	0.025	-0.286
-729.952	313.993	-0.134	0.254
-728.937	71.642	0.219	-0.229
-727.923	-97.640	-0.288	-0.075
-726.908	-104.330	-0.384	-0.090
-725.894	-200.000	-0.431	-0.001
-724.879	-101.381	-0.249	0.061
-723.864	-90.486	-0.084	0.024
-722.850	411.561	-0.050	-0.107
-721.835	800.000	0.101	-0.338
-720.821	800.000	0.059	-0.238
-719.806	-200.000	0.010	-0.251
-718.791	800.000	-0.095	-0.375
-717.777	64.196	0.275	0.279
-716.762	-83.871	0.069	-0.022
-715.748	-30.211	-0.049	0.028
-714.733	-99.020	-0.086	-0.022
-713.718	-36.684	-0.113	0.061
-712.704	182.898	-0.242	0.360
-711.689	-19.765	0.158	0.098
-710.675	702.869	-0.169	-0.449
-709.660	-151.848	0.101	-0.007
-708.645	-47.081	-0.213	-0.104
-707.631	-15.418	0.018	0.012
-706.616	-37.651	0.227	0.122
-705.602	-85.839	-0.117	0.036
-704.587	402.152	-0.060	0.127
-703.572	-92.374	-0.232	0.066
-702.558	-200.000	0.030	-0.291
-701.543	-200.000	-0.000	-0.063
-700.529	-25.067	-0.342	0.204
-699.514	18.024	-0.203	0.163
-698.499	-200.000	-0.048	0.219
-697.485	-49.777	-0.083	0.040
-696.470	-196.330	0.141	-0.001
-695.456	800.000	0.053	0.153
-694.441	-70.320	0.196	-0.075
-693.426	-96.004	-0.167	-0.045
-692.412	-26.364	-0.097	0.057
-691.397	-127.842	-0.012	0.002
-690.383	-200.000	0.017	0.088
-689.368	800.000	0.032	0.111
-688.354	305.272	-0.153	-0.286
-687.339	-31.251	0.139	-0.079
-686.324	12.862	0.057	-0.044
-685.310	4.824	-0.166	0.123
-684.295	-200.000	-0.024	-0.136
-683.281	-101.357	-0.324	0.079
-682.266	-89.743	-0.080	0.024
-681.251	666.356	-0.076	0.196
-680.237	321.773	-0.099	0.189
-679.222	374.167	0.072	-0.147
-678.208	-200.000	-0.036	-0.263
-677.193	-105.555	0.144	-0.033
-676.178	427.125	0.083	-0.181
-675.164	75.196	-0.172	0.182
-674.149	14.982	-0.040	0.032
-673.135	-138.537	-0.147	-0.016
-672.120	44.555	0.133	0.123
-671.105	-106.594	0.408	0.091
-670.091	-112.312	-0.372	-0.075
-669.076	800.000	0.156	-0.612
-668.062	169.593	0.209	0.301
-667.047	137.815	0.136	-0.179
-666.032	-87.152	0.135	-0.041
-665.018	386.270	0.063	-0.131
-664.003	-200.000	0.070	-0.331
-662.989	-22.097	0.186	0.114
-661.974	138.044	-0.191	-0.252
-660.959	16.761	0.149	-0.118
-659.945	-200.000	-0.040	-0.318
-658.930	321.946	-0.109	-0.208
-657.916	153.428	-0.116	-0.160
-656.901	161.773	-0.256	0.361
-655.886	-60.237	-0.291	-0.125
-654.872	-78.605	-0.201	0.069
-653.857	-200.000	-0.020	-0.157
-652.843	-78.008	-0.328	0.114
-651.828	-200.000	-0.098	0.478
-650.814	32.674	0.293	0.254
-649.799	-84.412	-0.073	-0.023
-648.784	286.255	0.025	-0.046
-647.770	-2.304	0.161	-0.113
-646.755	-129.405	-0.380	-0.053
-645.741	78.268	-0.153	-0.164
-644.726	-79.151	0.476	0.162
-643.711	-200.000	-0.030	0.132
-642.697	48.229	-0.332	-0.312
-641.682	-200.000	0.019	0.167
-640.668	-200.000	-0.041	0.288
-639.653	449.318	0.123	-0.272
-638.638	800.000	-0.049	-0.174
-637.624	113.642	-0.275	-0.335
-636.609	-149.112	0.424	0.034
-635.595	327.077	-0.055	-0.107
-634.580	-200.000	-0.014	-0.212
-633.565	-12.270	0.320	-0.210
-632.551	-117.736	-0.304	0.055
-631.536	-200.000	-0.001	0.126
-630.522	187.345	-0.123	0.184
-629.507	147.308	-0.123	0.166
-628.492	-126.280	0.370	0.055
-627.478	-200.000	0.003	-0.029
-626.463	-92.045	-0.209	0.059
-625.449	-45.133	-0.211	-0.105
-624.434	-129.641	-0.284	0.039
-623.419	-84.120	0.186	-0.059
-622.405	193.662	0.114	-0.173
-621.390	-200.000	0.062	-0.278
-620.376	61.902	-0.340	0.340
-619.361	-109.433	-0.242	-0.051
-618.346	-200.000	-0.043	0.384
-617.332	107.907	-0.217	-0.259
-616.317	-102.167	0.360	-0.087
-615.303	42.531	-0.120	-0.109
-614.288	-200.000	0.001	-0.116
-613.273	-157.723	0.260	-0.016
-612.259	55.432	-0.031	0.030
-611.244	-84.432	-0.581	0.184
-610.230	-91.348	0.356	-0.102
-609.215	-200.000	-0.015	0.129
-608.201	-15.062	-0.114	0.073
-607.186	6.879	-0.073	0.055
-606.171	-101.272	0.093	-0.023
-605.157	81.352	-0.099	-0.107
-604.142	-85.917	0.116	-0.036
-603.128	-200.000	-0.021	0.103
-602.113	-200.000	-0.002	0.177
-601.098	158.470	-0.209	-0.290
-600.084	268.955	0.090	0.159
-599.069	-28.090	0.124	-0.072
-598.055	-133.142	0.133	-0.017
-597.040	-152.322	-0.432	-0.031
-596.025	620.233	-0.108	-0.273
-595.011	414.212	0.151	-0.322
-593.996	1.977	-0.120	-0.087
-592.982	-30.275	-0.002	0.001
-591.967	5.729	0.223	-0.165
-590.952	161.550	0.068	0.096
-589.938	257.043	-0.151	0.260
-588.923	-132.727	0.457	0.059
-587.909	-4.761	-0.127	-0.088
-586.894	40.312	-0.215	-0.194
-585.879	-200.000	-0.029	-0.168
-584.865	73.521	-0.239	0.251
-583.850	800.000	-0.098	-0.314
-582.836	-17.338	0.278	-0.175
-581.821	-94.703	-0.113	-0.031
-580.806	303.474	0.089	0.165
-579.792	82.066	0.043	0.047
-578.777	476.370	0.082	-0.185
-577.763	-28.148	-0.291	-0.168
-576.748	-200.000	-0.015	0.087
-575.733	-170.064	-0.180	-0.006
-574.719	-95.728	-0.208	-0.056
-573.704	59.331	-0.147	0.145
-572.690	-34.256	0.052	-0.029
-571.675	311.775	0.053	-0.099
-570.661	5.798	-0.220	0.163
-569.646	-200.000	0.002	0.061
-568.631	46.389	0.141	0.131
-567.617	-98.049	-0.474	-0.122
-566.602	116.629	-0.121	-0.148
-565.588	-52.419	0.239	-0.111
-564.573	-89.313	-0.057	-0.017
-563.558	-135.083	-0.299	0.036
-562.544	-67.475	0.198	-0.078
-561.529	-87.179	0.129	0.039
-560.515	14.336	-0.164	0.128
-559.500	-200.000	0.025	-0.298
-558.485	323.069	0.116	-0.222
-557.471	-149.552	0.263	-0.021
-556.456	342.616	0.113	0.221
-555.442	-34.652	0.404	-0.221
-554.427	-106.928	-0.148	-0.033
-553.412	800.000	0.065	-0.236
-552.398	-4.102	-0.042	0.029
-551.383	800.000	-0.034	0.100
-550.369	-32.917	0.074	-0.041
-549.354	-134.668	0.252	0.031
-548.339	463.919	-0.127	-0.285
-547.325	-76.688	0.205	-0.072
-546.310	-86.622	-0.267	0.082
-545.296	421.446	-0.081	-0.175
-544.281	44.733	0.050	-0.046
-543.266	151.944	-0.145	0.198
-542.252	-200.000	0.019	0.210
-541.237	460.456	-0.049	0.110
-540.223	-13.887	0.180	0.116
-539.208	452.192	0.062	0.136
-538.193	145.170	-0.115	0.154
-537.179	-156.403	-0.183	-0.011
-536.164	444.980	-0.153	0.335
-535.150	-97.238	0.065	-0.017
-534.135	371.570	0.060	0.122
-533.121	605.931	-0.080	-0.199
-532.106	-33.392	-0.117	0.065
-531.091	-77.569	0.144	0.050
-530.077	-17.428	-0.116	0.073
-529.062	-64.688	0.219	-0.089
-528.048	-137.477	-0.208	-0.024
-527.033	111.708	0.333	-0.402
-526.018	266.325	-0.149	0.260
-525.004	-113.865	0.330	0.064
-523.989	-85.271	0.070	0.022
-522.975	211.806	0.099	-0.155
-521.960	366.340	0.131	-0.264
-520.945	-58.255	0.141	-0.061
-519.931	-200.000	0.001	0.160
-518.916	-158.474	-0.319	-0.018
-517.902	-110.617	-0.219	-0.045
-516.887	11.770	-0.097	-0.074
-515.872	-22.144	-0.248	-0.150
-514.858	-163.830	-0.333	0.016
-513.843	675.791	0.075	-0.194
-512.829	138.259	-0.148	-0.194
-511.814	168.833	0.066	0.094
-510.799	232.513	0.087	-0.143
-509.785	-194.326	0.212	-0.002
-508.770	-97.284	0.174	-0.045
-507.756	-200.000	-0.030	0.204
-506.741	-76.222	0.470	-0.166
-505.726	-132.082	-0.193	0.025
-504.712	-37.800	0.199	0.106
-503.697	-92.262	-0.046	0.013
-502.683	17.810	-0.160	0.127
-501.668	800.000	0.037	-0.158
-500.653	-106.207	-0.223	-0.050
-499.639	10.481	-0.268	-0.204
-498.624	750.746	-0.075	-0.202
-497.610	-54.312	-0.271	0.123
-496.595	567.860	-0.004	-0.009
-495.581	-10.312	0.113	-0.075
-494.566	-62.044	-0.241	0.100
-493.551	24.017	0.092	-0.076
-492.537	49.491	0.232	0.218
-491.522	-200.000	-0.006	-0.197
-490.508	580.797	-0.006	0.014
-489.493	88.480	-0.278	0.308
-488.478	181.176	-0.104	-0.153
-487.464	-79.999	0.181	-0.061
-486.449	-200.000	-0.029	0.282
-485.435	-200.000	0.085	0.424
-484.420	78.802	-0.052	0.056
-483.405	-200.000	0.005	-0.172
-482.391	11.287	-0.437	-0.334
-481.376	-26.709	-0.381	-0.223
-480.362	-68.720	-0.078	0.030
-479.347	-111.490	-0.277	-0.056
-478.332	-200.000	0.002	0.020
-477.318	59.244	0.142	-0.140
-476.303	-151.674	-0.257	-0.019
-475.289	745.056	-0.124	0.332
-474.274	-85.585	0.325	0.101
-473.259	-200.000	-0.067	0.359
-472.245	800.000	-0.035	0.099
-471.230	3.940	-0.330	-0.241
-470.216	102.556	0.157	-0.183
-469.201	-158.789	0.277	-0.016
-468.186	146.974	-0.064	0.086
-467.172	-200.000	-0.024	0.142
-466.157	-105.550	0.212	0.048
-465.143	-200.000	0.025	0.169
-464.128	800.000	-0.081	0.257
-463.113	598.818	0.212	0.526
-462.099	800.000	-0.051	-0.148
-461.084	-200.000	-0.012	0.222
-460.070	-92.375	0.177	-0.050
-459.055	76.801	0.123	0.130
-458.040	800.000	-0.087	-0.245
-457.026	-96.767	-0.158	0.041
-456.011	-30.130	-0.109	0.062
-454.997	112.434	-0.109	0.132
-453.982	-4.934	0.080	0.055
-452.968	40.029	0.097	0.086
-451.953	-200.000	0.015	0.148
-450.938	288.888	0.043	0.078
-449.924	800.000	0.051	0.157
-448.909	190.831	0.196	0.294
-447.895	-4.338	0.222	0.153
-446.880	364.760	-0.092	-0.184
-445.865	326.607	0.081	0.154
-444.851	-23.287	0.326	-0.195
-443.836	113.540	-0.110	-0.133
-442.822	301.818	0.159	-0.293
-441.807	-58.387	-0.306	-0.133
-440.792	-200.000	0.016	0.213
-439.778	284.984	-0.170	0.305
-438.763	67.506	0.079	0.081
-437.749	800.000	-0.147	0.414
-436.734	-117.261	-0.169	-0.031
-435.719	-200.000	-0.028	-0.151
-434.705	52.424	-0.206	0.196
-433.690	67.205	-0.121	0.123
-432.676	-200.000	-0.007	-0.081
-431.661	753.372	0.064	0.171
-430.646	-16.424	-0.159	-0.100
-429.632	-200.000	-0.006	-0.185
-428.617	-2.019	-0.103	-0.072
-427.603	-129.389	0.435	-0.060
-426.588	171.418	0.222	-0.317
-425.573	-43.204	-0.205	0.103
-424.559	-146.243	0.273	-0.024
-423.544	800.000	0.037	-0.139
-422.530	13.888	-0.069	-0.054
-421.515	-1.774	0.040	0.028
-420.500	-200.000	0.016	0.352
-419.486	-47.648	-0.162	-0.078
-418.471	-200.000	0.014	-0.212
-417.457	-200.000	-0.004	-0.093
-416.442	-41.674	0.194	0.099
-415.428	271.342	0.213	-0.374
-414.413	-125.402	0.074	0.011
-413.398	-15.573	0.249	-0.158
-412.384	-77.729	0.363	0.125
-411.369	130.343	-0.103	-0.132
-410.355	-30.527	0.104	-0.059
-409.340	-111.087	0.069	-0.014
-408.325	-79.146	0.060	-0.020
-407.311	800.000	0.026	-0.108
-406.296	-93.487	-0.281	-0.077
-405.282	660.960	-0.155	-0.397
-404.267	-80.651	-0.160	-0.053
-403.252	-4.225	0.431	0.297
-402.238	-11.725	-0.026	-0.017
-401.223	132.320	-0.254	-0.326
-400.209	-145.242	-0.334	-0.030
-399.194	85.606	0.205	-0.225
-398.179	-200.000	0.031	-0.299
-397.165	-148.192	-0.240	0.020
-396.150	-200.000	-0.012	-0.261
-395.136	17.767	-0.188	0.149
-394.121	-85.799	0.112	-0.035
-393.106	-200.000	-0.032	-0.205
-392.092	800.000	-0.091	-0.315
-391.077	1.665	-0.199	-0.142
-390.063	-115.686	0.042	0.008
-389.048	-200.000	0.001	-0.027
-388.033	44.109	0.197	-0.179
-387.019	-49.813	0.194	0.092
-386.004	18.139	0.198	0.157
-384.990	-189.396	0.116	-0.001
-383.975	-16.672	0.066	-0.041
-382.960	81.456	0.283	0.304
-381.946	119.912	0.153	0.188
-380.931	-80.819	0.280	0.092
-379.917	-200.000	0.050	-0.271
-378.902	800.000	-0.055	0.173
-377.888	-50.826	0.525	0.245
-376.873	800.000	0.102	0.395
-375.858	4.218	0.339	0.246
-374.844	698.996	-0.084	-0.220
-373.829	-127.967	0.295	-0.042
-372.815	-200.000	0.016	0.253
-371.800	-1.682	0.142	0.100
-370.785	-200.000	-0.050	0.302
-369.771	293.368	0.126	0.229
-368.756	-60.153	0.062	0.026
-367.742	-200.000	0.033	-0.292
-366.727	-200.000	-0.016	-0.182
-365.712	800.000	0.041	0.159
-364.698	328.168	-0.077	0.147
-363.683	-200.000	0.041	-0.196
-362.669	-200.000	0.042	0.263
-361.654	-165.427	0.121	0.005
-360.639	800.000	0.055	-0.164
-359.625	-63.966	0.157	0.064
-358.610	42.797	0.055	0.050
-357.596	800.000	-0.061	0.237
-356.581	-94.190	0.188	-0.051
-355.566	-84.569	0.111	0.035
-354.552	-200.000	-0.063	-0.351
-353.537	-200.000	-0.007	-0.144
-352.523	55.509	-0.107	-0.103
-351.508	152.431	-0.186	0.253
-350.493	63.014	0.129	-0.128
-349.479	-149.623	0.098	-0.008
-348.464	169.930	0.111	-0.157
-347.450	-120.728	-0.200	0.034
-346.435	800.000	0.027	0.097
-345.420	-77.704	-0.097	-0.033
-344.406	-200.000	0.041	-0.271
-343.391	-82.560	0.293	-0.094
-342.377	-101.558	0.394	-0.095
-341.362	800.000	-0.077	0.313
-340.348	800.000	0.089	-0.292
-339.333	-200.000	-0.043	-0.353
-338.318	-200.000	-0.032	-0.191
-337.304	20.018	-0.213	-0.170
-336.289	120.098	0.071	-0.087
-335.275	129.782	0.232	-0.294
-334.260	87.595	-0.085	0.094
-333.245	-200.000	-0.057	0.272
-332.231	549.707	-0.158	-0.376
-331.216	686.935	0.018	0.045
-330.202	-105.349	0.204	0.046
-329.187	-123.433	-0.187	0.030
-328.172	-5.090	-0.177	0.121
-327.158	77.586	0.175	0.185
-326.143	367.908	0.067	-0.134
-325.129	3.428	-0.230	-0.166
-324.114	-61.881	-0.261	0.108
-323.099	-200.000	0.021	0.243
-322.085	-15.331	0.201	-0.127
-321.070	688.592	-0.067	-0.174
-320.056	-99.752	0.060	0.015
-319.041	26.684	-0.141	0.117
-318.026	33.396	0.205	0.177
-317.012	-184.603	-0.404	-0.006
-315.997	-22.408	0.136	-0.082
-314.983	-40.560	-0.221	-0.113
-313.968	-74.465	0.148	-0.053
-312.953	401.867	-0.055	0.115
-311.939	-7.614	-0.075	0.050
-310.924	-200.000	-0.042	0.296
-309.910	316.519	0.134	0.251
-308.895	-180.248	0.140	-0.003
-307.880	732.373	0.066	0.174
-306.866	0.076	-0.278	-0.197
-305.851	-200.000	0.012	0.187
-304.837	18.369	0.131	0.104
-303.822	-108.481	0.088	0.019
-302.807	177.384	0.106	-0.153
-301.793	346.803	0.043	0.083
-300.778	-27.253	-0.039	0.023
-299.764	5.505	0.107	0.078
-298.749	5.188	0.072	-0.052
-297.735	-125.539	-0.071	-0.011
-296.720	-150.537	0.179	0.014
-295.705	37.850	-0.109	0.096
-294.691	280.304	-0.046	0.081
-293.676	-153.539	0.020	-0.001
-292.662	104.258	0.076	-0.089
-291.647	3.759	-0.305	0.221
-290.632	303.024	0.083	-0.153
-289.618	800.000	0.025	0.103
-288.603	325.570	0.212	-0.401
-287.589	-87.693	-0.240	0.072
-286.574	-200.000	0.048	-0.214
-285.559	800.000	-0.061	-0.206
-284.545	-47.759	-0.238	-0.114
-283.530	3.471	-0.282	0.203
-282.516	-3.852	0.069	0.048
-281.501	-200.000	0.014	-0.160
-280.486	-146.007	-0.538	-0.047
-279.472	-139.076	-0.129	-0.014
-278.457	-7.420	-0.126	0.084
-277.443	39.027	-0.061	0.054
-276.428	-105.693	0.129	0.029
-275.413	800.000	-0.029	0.085
-274.399	0.072	0.192	-0.136
-273.384	-143.491	-0.192	-0.018
-272.370	106.479	0.043	0.050
-271.355	52.124	-0.233	-0.220
-270.340	37.474	-0.151	0.133
-269.326	9.284	0.114	-0.086
-268.311	-200.000	-0.013	-0.200
-267.297	-200.000	0.025	0.402
-266.282	-200.000	-0.054	-0.442
-265.267	800.000	-0.005	-0.018
-264.253	-12.822	-0.153	-0.098
-263.238	-200.000	0.020	0.258
-262.224	-200.000	0.033	0.161
-261.209	-146.204	0.235	0.020
-260.195	-59.036	-0.126	-0.054
-259.180	45.204	-0.076	-0.069
-258.165	17.101	-0.155	0.121
-257.151	268.114	-0.122	-0.212
-256.136	-119.838	-0.212	-0.036
-255.122	-72.452	-0.088	0.032
-254.107	-88.733	-0.249	0.073
-253.092	-113.493	-0.356	0.069
-252.078	-101.644	0.256	0.062
-251.063	-175.921	0.136	-0.004
-250.049	-200.000	0.062	-0.404
-249.034	32.460	-0.181	0.154
-248.019	182.818	-0.094	-0.138
-247.005	-200.000	0.001	0.148
-245.990	301.143	0.257	0.470
-244.976	-102.600	0.270	-0.064
-243.961	-155.652	0.366	0.023
-242.946	277.698	-0.087	0.154
-241.932	147.193	0.063	0.083
-240.917	800.000	-0.065	0.214
-239.903	800.000	-0.052	0.211
-238.888	304.052	-0.131	-0.240
-237.873	186.775	0.045	0.067
-236.859	8.210	-0.096	0.072
-235.844	-200.000	0.044	-0.207
-234.830	-88.858	-0.182	-0.053
-233.815	-65.550	0.161	-0.064
-232.800	-136.277	0.027	-0.003
-231.786	45.074	0.131	-0.119
-230.771	9.251	0.275	-0.205
-229.757	-38.159	0.077	-0.040
-228.742	-200.000	0.008	0.158
-227.727	-88.383	0.242	-0.071
-226.713	-127.730	-0.504	0.072
-225.698	548.039	0.113	0.268
-224.684	-200.000	0.029	0.289
-223.669	39.164	0.333	0.295
-222.655	-200.000	-0.049	0.247
-221.640	115.883	0.053	0.064
-220.625	557.497	-0.063	0.150
-219.611	13.343	0.241	0.185
-218.596	-200.000	-0.008	0.084
-217.582	-98.452	-0.192	-0.049
-216.567	-110.032	-0.461	-0.095
-215.552	-200.000	0.011	0.086
-214.538	-23.299	0.322	-0.191
-213.523	-173.261	-0.348	-0.010
-212.509	-0.670	0.168	0.118
-211.494	800.000	0.091	-0.302
-210.479	-200.000	0.014	0.180
-209.465	271.049	0.120	-0.209
-208.450	172.031	-0.106	-0.150
-207.436	55.906	-0.107	0.102
-206.421	502.452	0.065	-0.149
-205.406	800.000	0.058	0.210
-204.392	-149.091	-0.125	0.010
-203.377	395.140	0.137	-0.282
-202.363	800.000	-0.017	-0.055
-201.348	-59.835	-0.165	0.070
-200.333	88.426	-0.154	0.168
-199.319	-15.409	-0.174	-0.110
-198.304	161.760	0.151	0.209
-197.290	-200.000	-0.017	-0.100
-196.275	-14.127	0.146	0.093
-195.260	-200.000	-0.011	0.115
-194.246	-200.000	-0.085	-0.393
-193.231	-71.980	-0.227	0.083
-192.217	165.367	-0.235	0.327
-191.202	-54.153	0.485	-0.218
-190.187	-65.389	-0.283	-0.112
-189.173	-27.980	0.113	-0.065
-188.158	4.396	0.165	0.120
-187.144	339.692	-0.150	0.290
-186.129	-200.000	0.018	0.254
-185.114	15.047	-0.103	0.080
-184.100	19.063	0.033	0.026
-183.085	-83.412	0.345	-0.109
-182.071	-157.063	0.398	-0.024
-181.056	220.669	0.074	-0.116
-180.042	-130.061	-0.146	0.020
-179.027	6.516	-0.159	0.116
-178.012	-200.000	-0.049	-0.261
-176.998	-200.000	0.026	0.142
-175.983	108.332	0.221	0.261
-174.969	800.000	0.086	0.284
-173.954	-101.561	-0.229	-0.055
-172.939	-103.424	0.206	-0.048
-171.925	800.000	0.092	0.370
-170.910	58.147	-0.120	-0.116
-169.896	-16.104	-0.239	0.150
-168.881	114.792	-0.090	-0.108
-167.866	-17.791	0.273	0.169
-166.852	370.961	-0.020	-0.039
-165.837	-145.681	0.260	-0.023
-164.823	-200.000	-0.053	0.506
-163.808	-112.446	-0.212	0.042
-162.793	-200.000	-0.027	0.226
-161.779	800.000	-0.023	-0.078
-160.764	-200.000	-0.045	0.199
-159.750	-75.522	-0.110	0.039
-158.735	-30.860	0.235	-0.131
-157.720	-127.702	0.167	-0.024
-156.706	-200.000	0.011	0.295
-155.691	-153.019	0.323	0.022
-154.677	800.000	0.076	-0.255
-153.662	-200.000	-0.009	-0.381
-152.647	-29.508	0.064	-0.036
-151.633	-200.000	-0.004	-0.057
-150.618	800.000	0.032	-0.117
-149.604	-200.000	-0.018	0.151
-148.589	160.406	0.158	0.216
-147.574	-88.470	-0.081	0.024
-146.560	-200.000	0.034	-0.215
-145.545	173.256	0.295	0.419
-144.531	-79.058	0.039	0.013
-143.516	800.000	0.039	0.109
-142.502	38.333	0.134	-0.118
-141.487	800.000	-0.052	-0.153
-140.472	800.000	0.097	-0.271
-139.458	366.303	0.064	-0.126
-138.443	-14.450	-0.178	-0.113
-137.429	-200.000	-0.031	-0.176
-136.414	-100.773	0.221	0.054
-135.399	-200.000	-0.012	0.166
-134.385	-88.997	0.203	0.059
-133.370	-45.764	0.027	-0.013
-132.356	3.699	0.283	-0.203
-131.341	162.712	-0.084	0.115
-130.326	-200.000	-0.079	0.401
-129.312	-8.978	0.172	-0.113
-128.297	-94.003	0.317	0.086
-127.283	-70.732	0.379	-0.141
-126.268	-4.885	0.234	-0.159
-125.253	39.629	0.048	0.043
-124.239	2.558	0.101	-0.072
-123.224	78.701	0.005	0.005
-122.210	800.000	0.034	0.143
-121.195	-34.686	-0.218	-0.117
-120.180	-44.726	0.154	0.076
-119.166	134.037	-0.097	0.124
-118.151	-90.973	0.171	0.048
-117.137	-29.991	-0.291	0.163
-116.122	757.171	0.095	0.253
-115.107	10.154	0.124	-0.093
-114.093	17.376	0.357	0.279
-113.078	-124.895	-0.325	0.049
-112.064	120.898	0.358	-0.438
-111.049	-37.881	0.246	-0.128
-110.034	-28.128	0.112	-0.064
-109.020	-177.454	0.233	0.006
-108.005	-200.000	-0.034	0.214
-106.991	-89.715	-0.211	0.061
-105.976	800.000	0.038	0.145
-104.962	-87.891	0.248	0.073
-103.947	10.728	0.132	0.099
-102.932	222.438	-0.177	0.281
-101.918	800.000	0.010	-0.036
-100.903	-200.000	0.095	0.414
-99.889	-200.000	0.050	0.282
-98.874	-200.000	0.004	-0.152
-97.859	427.683	-0.126	0.267
-96.845	800.000	-0.071	0.269
-95.830	-200.000	0.020	-0.266
-94.816	47.059	0.193	-0.176
-93.801	53.496	-0.250	-0.236
-92.786	16.820	0.158	-0.123
-91.772	-11.218	0.275	-0.178
-90.757	42.920	-0.060	0.054
-89.743	-141.072	0.414	0.042
-88.728	6.066	-0.078	0.057
-87.713	182.104	0.238	0.344
-86.699	-3.370	-0.061	0.042
-85.684	-44.198	0.415	0.205
-84.670	-82.215	0.122	0.039
-83.655	800.000	0.056	-0.158
-82.640	23.213	-0.109	-0.088
-81.626	-26.334	0.153	0.088
-80.611	523.913	0.030	-0.069
-79.597	-136.890	-0.194	-0.022
-78.582	-9.382	-0.202	0.133
-77.567	-45.274	0.525	0.256
-76.553	362.473	0.075	0.148
-75.538	-200.000	0.001	-0.225
-74.524	-200.000	-0.042	0.330
-73.509	-98.676	-0.243	0.061
-72.494	-200.000	-0.021	-0.147
-71.480	-73.291	-0.286	-0.103
-70.465	-47.627	-0.120	-0.057
-69.451	3.797	-0.114	0.082
-68.436	-78.374	0.461	-0.155
-67.422	1.364	0.260	-0.184
-66.407	-92.873	-0.240	-0.066
-65.392	-3.505	0.118	-0.081
-64.378	-0.888	0.019	-0.014
-63.363	781.809	-0.097	0.260
-62.349	-110.746	0.231	-0.047
-61.334	6.518	-0.997	-0.728
-60.319	334.149	0.396	0.753
-59.305	800.000	-0.366	-1.080
-58.290	385.577	0.446	0.903
-57.276	800.000	0.494	1.535
-56.261	-200.000	102.545	592.909
-55.246	555.666	1434.220	3389.827
-54.232	186.135	2631.790	3842.311
-53.217	109.910	2281.157	2686.023
-52.203	39.858	1897.819	1672.183
-51.188	33.730	1686.449	1439.583
-50.173	31.199	1642.447	1383.238
-49.159	49.779	1693.386	1566.331
-48.144	50.713	1709.555	1588.251
-47.130	33.398	1668.592	1421.617
-46.115	30.839	1654.148	1390.183
-45.100	30.615	1649.536	1384.586
-44.086	30.604	1646.291	1381.723
-43.071	30.455	1644.186	1378.800
-42.057	30.373	1642.407	1376.645
-41.042	30.394	1639.832	1374.584
-40.027	30.557	1637.468	1373.750
-39.013	30.576	1635.479	1372.171
-37.998	30.412	1634.774	1370.312
-36.984	30.571	1632.729	1369.719
-35.969	30.634	1631.719	1369.279
-34.954	30.646	1630.020	1367.889
-33.940	30.560	1628.394	1365.836
-32.925	30.649	1626.596	1364.930
-31.911	30.702	1624.720	1363.689
-30.896	30.621	1623.001	1361.597
-29.881	30.642	1621.355	1360.316
-28.867	30.553	1619.802	1358.313
-27.852	30.670	1618.002	1357.603
-26.838	30.608	1617.009	1356.262
-25.823	30.623	1615.602	1355.137
-24.809	30.631	1614.547	1354.255
-23.794	30.667	1612.662	1352.881
-22.779	30.695	1611.458	1352.025
-21.765	30.622	1609.796	1350.043
-20.750	30.594	1607.779	1348.100
-19.736	30.727	1606.447	1347.889
-18.721	30.773	1604.987	1346.944
-17.706	30.556	1604.122	1344.599
-16.692	30.665	1602.011	1343.563
-15.677	30.635	1601.255	1342.656
-14.663	30.700	1599.703	1341.771
-13.648	30.707	1598.234	1340.534
-12.633	30.650	1596.517	1338.628
-11.619	30.576	1595.715	1337.375
-10.604	30.642	1593.976	1336.341
-9.590	30.626	1592.504	1334.932
-8.575	30.637	1591.169	1333.840
-7.560	30.629	1589.924	1332.691
-6.546	30.692	1588.612	1331.984
-5.531	30.608	1587.913	1330.744
-4.517	30.682	1586.533	1330.065
-3.502	30.713	1585.221	1329.137
-2.487	30.746	1583.366	1327.760
-1.473	30.418	1572.397	1316.184
-0.458	27.756	1553.321	1281.503
0.556	23.610	1554.693	1251.874
1.571	21.333	1578.915	1254.935
2.586	20.981	1592.335	1262.939
3.600	18.781	1539.435	1205.449
4.615	11.583	1432.855	1074.707
5.629	5.677	1371.737	991.493
6.644	4.838	1364.443	980.845
7.659	4.762	1362.651	978.992
8.673	4.731	1361.608	977.962
9.688	4.690	1360.514	976.836
10.702	4.538	1357.333	973.515
11.717	7.370	1362.457	994.889
12.731	14.363	1375.610	1048.562
13.746	18.836	1382.144	1081.670
14.761	18.655	1380.660	1079.275
15.775	17.588	1378.106	1070.485
16.790	16.544	1375.207	1061.590
17.804	15.728	1372.970	1054.653
18.819	15.447	1371.122	1051.380
19.834	15.207	1370.049	1048.961
20.848	14.873	1369.275	1046.184
21.863	14.740	1367.596	1043.980
22.877	14.521	1366.913	1041.997
23.892	14.607	1365.286	1041.201
24.907	14.478	1364.966	1040.057
25.921	14.479	1364.003	1039.241
26.936	14.646	1362.912	1039.356
27.950	14.650	1362.193	1038.742
28.965	14.645	1361.420	1038.030
29.980	14.771	1359.969	1037.613
30.994	14.811	1358.862	1036.925
32.009	14.848	1358.006	1036.411
33.023	14.802	1356.634	1034.989
34.038	14.820	1354.862	1033.656
35.053	14.696	1353.741	1031.944
36.067	14.704	1352.968	1031.308
37.082	14.710	1351.972	1030.494
38.096	14.758	1351.457	1030.310
39.111	14.808	1350.131	1029.513
40.126	14.659	1349.882	1028.314
41.140	14.566	1348.390	1026.518
42.155	14.461	1348.181	1025.620
43.169	14.422	1347.845	1025.036
44.184	14.453	1347.551	1024.911
45.199	14.502	1346.884	1024.613
46.213	14.508	1346.783	1024.485
47.228	14.620	1345.537	1024.131
48.242	14.696	1344.585	1023.780
49.257	14.621	1343.026	1022.046
50.271	14.595	1341.701	1020.788
51.286	14.633	1340.417	1019.952
52.301	14.646	1339.147	1018.973
53.315	14.599	1338.136	1017.829
54.330	14.511	1337.285	1016.555
55.344	14.477	1335.905	1015.213
56.359	14.500	1334.819	1014.437
57.374	14.556	1333.701	1013.839
58.388	14.436	1333.048	1012.524
59.403	14.381	1332.598	1011.755
60.417	14.474	1331.338	1011.274
61.432	14.334	1331.375	1010.365
62.447	14.411	1329.975	1009.680
63.461	14.379	1328.736	1008.452
64.476	14.413	1327.983	1007.996
65.490	14.385	1326.959	1006.964
66.505	14.324	1325.205	1005.177
67.520	14.361	1323.923	1004.337
68.534	14.352	1322.656	1003.231
69.549	14.382	1321.973	1002.804
70.563	14.340	1321.066	1001.775
71.578	14.249	1319.709	1000.109
72.593	14.209	1318.890	999.162
73.607	14.252	1318.205	998.813
74.622	14.250	1317.448	998.137
75.636	14.179	1316.800	997.137
76.651	14.295	1315.985	997.125
77.666	14.330	1315.475	996.859
78.680	14.255	1315.313	996.200
79.695	14.302	1313.922	995.340
80.709	14.432	1313.501	995.705
81.724	14.526	1312.452	995.386
82.739	14.500	1311.874	994.705
83.753	14.569	1310.879	994.275
84.768	14.714	1309.486	993.991
85.782	14.823	1308.292	993.643
86.797	14.737	1307.651	992.561
87.812	14.658	1306.230	990.923
88.826	14.547	1305.508	989.633
89.841	14.714	1304.218	989.556
90.855	14.731	1303.336	988.902
91.870	14.742	1302.103	987.942
92.884	14.697	1301.792	987.349
93.899	14.803	1300.861	987.183
94.914	14.849	1299.838	986.589
95.928	14.784	1299.261	985.684
96.943	14.665	1298.579	984.376
97.957	14.729	1297.347	983.733
98.972	14.779	1296.338	983.175
99.987	14.789	1294.927	982.077
101.001	14.740	1293.772	980.825
102.016	14.693	1293.370	980.161
103.030	14.816	1292.193	979.900
104.045	14.763	1291.273	978.808
105.060	14.570	1290.264	976.825
106.074	14.554	1288.543	975.345
107.089	14.445	1287.251	973.644
108.103	14.377	1286.024	972.228
109.118	14.419	1284.689	971.378
110.133	14.514	1283.115	970.655
111.147	14.495	1282.286	969.833
112.162	14.407	1281.302	968.492
113.176	14.473	1279.710	967.586
114.191	14.546	1278.926	967.330
115.206	14.501	1277.835	966.161
116.220	14.466	1276.606	964.945
117.235	14.436	1275.485	963.834
118.249	14.485	1274.554	963.331
119.264	14.459	1273.291	962.138
120.279	14.467	1272.191	961.271
121.293	14.525	1271.141	960.726
122.308	14.382	1270.600	959.408
123.322	14.400	1269.228	958.391
124.337	14.375	1268.193	957.382
125.352	14.399	1266.877	956.442
126.366	14.416	1266.013	955.801
127.381	14.393	1265.174	954.951
128.395	14.429	1263.913	954.123
129.410	14.427	1263.179	953.473
130.424	14.405	1262.841	953.006
131.439	14.460	1261.352	952.114
132.454	14.552	1260.247	951.716
133.468	14.528	1259.486	950.922
134.483	14.600	1258.524	950.521
135.497	14.549	1257.228	949.173
136.512	14.498	1256.326	948.117
137.527	14.506	1255.089	947.144
138.541	14.531	1253.639	946.106
139.556	14.521	1252.286	944.943
140.570	14.700	1251.438	945.233
141.585	14.707	1250.489	944.473
142.600	14.702	1249.329	943.484
143.614	14.769	1248.146	942.889
144.629	14.824	1247.454	942.595
145.643	14.780	1246.037	941.189
146.658	14.716	1244.787	939.801
147.673	14.673	1243.105	938.208
148.687	14.651	1241.835	937.043
149.702	14.650	1240.874	936.230
150.716	14.531	1239.778	934.650
151.731	14.673	1238.317	934.266
152.746	14.726	1236.832	933.357
153.760	14.751	1235.594	932.479
154.775	14.657	1235.348	931.688
155.789	14.744	1234.258	931.266
156.804	14.880	1233.131	931.091
157.819	14.782	1232.176	929.745
158.833	14.869	1231.436	929.587
159.848	14.894	1230.454	928.901
160.862	14.932	1229.232	928.106
161.877	14.882	1228.276	927.025
162.892	14.701	1227.025	924.996
163.906	14.703	1226.189	924.298
164.921	14.747	1225.304	923.789
165.935	14.783	1224.324	923.172
166.950	14.871	1223.343	922.833
167.964	14.723	1222.980	921.663
168.979	14.801	1222.294	921.495
169.994	14.851	1221.568	921.138
171.008	14.906	1220.623	920.648
172.023	14.976	1219.756	920.299
173.037	15.035	1219.054	920.010
174.052	14.906	1218.911	919.113
175.067	14.851	1217.581	917.730
176.081	14.879	1216.204	916.760
177.096	14.810	1215.677	915.905
178.110	14.864	1214.387	915.151
179.125	14.948	1213.405	914.784
180.140	14.915	1211.919	913.407
181.154	14.980	1210.650	912.720
182.169	14.975	1209.387	911.661
183.183	15.036	1208.533	911.271
184.198	15.105	1207.308	910.642
185.213	15.137	1206.307	909.981
186.227	15.072	1205.288	908.775
187.242	15.122	1204.083	908.061
188.256	15.215	1203.424	907.987
189.271	15.183	1202.130	906.755
190.286	15.000	1201.252	905.023
191.300	14.882	1200.435	903.688
192.315	14.795	1199.481	902.422
193.329	14.849	1199.052	902.310
194.344	14.823	1198.318	901.540
195.359	14.989	1197.955	902.080
196.373	15.165	1196.862	902.126
197.388	15.162	1197.085	902.200
198.402	15.230	1196.834	902.297
199.417	15.522	1195.351	902.665
200.432	15.440	1194.728	901.678
201.446	15.382	1194.185	900.876
202.461	15.376	1193.400	900.172
203.475	15.411	1192.345	899.485
204.490	15.443	1190.958	898.528
205.504	15.302	1189.546	896.633
206.519	15.395	1188.353	896.150
207.534	15.245	1187.384	894.537
208.548	15.300	1186.417	894.024
209.563	15.400	1185.617	893.873
210.577	15.324	1184.674	892.682
211.592	15.382	1183.831	892.274
212.607	15.496	1182.882	892.088
213.621	15.486	1182.223	891.456
214.636	15.417	1181.445	890.425
215.650	15.405	1180.662	889.691
216.665	15.475	1179.465	889.084
217.680	15.555	1178.635	888.804
218.694	15.492	1178.033	887.935
219.709	15.598	1177.201	887.790
220.723	15.554	1176.395	886.871
221.738	15.508	1175.592	885.943
222.753	15.469	1174.875	885.121
223.767	15.499	1174.402	884.847
224.782	15.603	1173.519	884.647
225.796	15.745	1173.223	885.092
226.811	15.868	1172.387	885.031
227.826	15.766	1171.225	883.541
228.840	15.614	1171.387	882.785
229.855	15.659	1170.291	882.120
230.869	15.679	1169.419	881.489
231.884	15.688	1168.378	880.671
232.899	15.598	1167.454	879.429
233.913	15.532	1167.184	878.801
234.928	15.574	1166.362	878.321
235.942	15.690	1165.271	878.031
236.957	15.536	1164.765	876.766
237.972	15.562	1164.009	876.256
238.986	15.659	1163.130	876.019
240.001	15.717	1162.083	875.458
241.015	15.607	1161.792	874.591
242.030	15.694	1160.619	874.081
243.045	15.729	1160.145	873.827
244.059	15.725	1159.197	873.018
245.074	15.683	1158.818	872.435
246.088	15.845	1157.728	872.377
247.103	15.785	1157.092	871.512
248.117	15.993	1156.082	871.751
249.132	16.000	1155.860	871.539
250.147	16.024	1155.171	871.067
251.161	16.197	1154.116	871.089
252.176	16.314	1153.484	871.140
253.190	16.224	1153.300	870.456
254.205	16.223	1152.673	869.900
255.220	16.266	1151.872	869.440
256.234	16.300	1151.231	869.054
257.249	16.248	1150.649	868.271
258.263	16.155	1150.704	867.757
259.278	16.263	1149.566	867.377
260.293	16.263	1149.201	867.028
261.307	16.329	1148.532	866.782
262.322	16.482	1147.348	866.596
263.336	16.436	1146.801	865.872
264.351	16.299	1146.639	864.972
265.366	16.378	1145.952	864.784
266.380	16.501	1144.681	864.375
267.395	16.411	1143.863	863.223
268.409	16.313	1143.120	862.084
269.424	16.272	1143.005	861.711
270.439	16.294	1142.078	861.050
271.453	16.383	1141.321	860.857
272.468	16.316	1139.937	859.396
273.482	16.356	1139.387	859.106
274.497	16.279	1139.319	858.588
275.512	16.312	1138.204	857.841
276.526	16.349	1137.103	857.119
277.541	16.480	1136.746	857.442
278.555	16.536	1135.809	856.943
279.570	16.435	1135.411	856.057
280.585	16.559	1134.735	856.094
281.599	16.486	1134.121	855.190
282.614	16.520	1132.470	854.040
283.628	16.490	1131.416	853.020
284.643	16.478	1130.821	852.435
285.657	16.534	1130.064	852.067
286.672	16.416	1129.287	850.811
287.687	16.531	1128.546	850.761
288.701	16.409	1128.272	849.863
289.716	16.589	1126.562	849.406
290.730	16.753	1125.809	849.583
291.745	16.580	1125.174	848.161
292.760	16.755	1124.543	848.488
293.774	16.743	1123.998	847.940
294.789	16.641	1123.600	847.054
295.803	16.820	1122.695	847.195
296.818	16.740	1121.785	846.035
297.833	16.669	1121.180	845.145
298.847	16.688	1120.674	844.784
299.862	16.730	1119.878	844.321
300.876	16.620	1119.224	843.206
301.891	16.765	1118.518	843.320
302.906	16.809	1118.244	843.258
303.920	16.898	1117.249	842.876
304.935	16.860	1116.449	842.009
305.949	17.104	1115.633	842.529
306.964	17.082	1115.139	841.973
307.979	16.967	1114.353	840.734
308.993	16.963	1113.830	840.248
310.008	17.017	1113.103	839.892
311.022	17.079	1112.218	839.456
312.037	16.914	1111.620	838.114
313.052	16.895	1110.440	837.056
314.066	16.909	1109.066	836.017
315.081	16.885	1108.529	835.416
316.095	16.759	1107.744	834.134
317.110	16.924	1107.221	834.479
318.125	16.781	1106.967	833.507
319.139	16.847	1106.391	833.324
320.154	16.861	1105.482	832.635
321.168	16.944	1104.394	832.149
322.183	16.998	1103.960	832.013
323.197	16.912	1103.598	831.245
324.212	17.029	1102.731	831.090
325.227	17.059	1102.419	830.929
326.241	17.078	1101.465	830.230
327.256	16.912	1100.875	828.900
328.270	17.072	1099.930	828.899
329.285	16.986	1099.020	827.718
330.300	17.060	1097.906	827.165
331.314	17.047	1097.214	826.507
332.329	17.019	1095.947	825.344
333.343	17.044	1095.651	825.174
334.358	17.174	1094.497	824.860
335.373	17.190	1093.556	824.156
336.387	17.251	1093.401	824.260
337.402	17.094	1092.739	822.931
338.416	17.248	1092.056	823.085
339.431	17.242	1091.284	822.403
340.446	17.330	1090.813	822.401
341.460	17.488	1090.004	822.482
342.475	17.466	1089.084	821.609
343.489	17.414	1088.465	820.818
344.504	17.555	1087.301	820.547
345.519	17.511	1086.709	819.817
346.533	17.655	1085.469	819.501
347.548	17.707	1084.938	819.278
348.562	17.656	1083.995	818.247
349.577	17.559	1083.781	817.548
350.592	17.394	1083.077	816.152
351.606	17.349	1082.040	815.085
352.621	17.278	1081.205	814.044
353.635	17.384	1080.502	813.948
354.650	17.467	1079.850	813.785
355.665	17.417	1079.368	813.109
356.679	17.483	1078.485	812.689
357.694	17.543	1078.015	812.548
358.708	17.504	1077.730	812.073
359.723	17.559	1076.753	811.526
360.738	17.611	1076.028	811.156
361.752	17.669	1075.605	811.045
362.767	17.635	1075.017	810.367
363.781	17.608	1074.259	809.595
364.796	17.799	1073.785	810.072
365.810	17.725	1073.240	809.240
366.825	17.714	1073.156	809.052
367.840	18.052	1072.068	809.763
368.854	17.986	1071.552	808.989
369.869	17.878	1071.066	808.037
370.883	17.858	1070.117	807.157
371.898	17.743	1069.349	805.965
372.913	17.966	1068.228	806.096
373.927	17.840	1067.975	805.243
374.942	17.869	1067.430	804.896
375.956	18.015	1066.984	805.179
376.971	18.016	1066.206	804.525
377.986	17.920	1066.143	803.952
379.000	17.999	1065.559	803.812
380.015	18.115	1064.786	803.706
381.029	18.102	1064.427	803.299
382.044	18.172	1063.114	802.567
383.059	18.040	1062.714	801.573
384.073	18.091	1061.945	801.164
385.088	18.156	1060.653	800.422
386.102	18.246	1060.041	800.309
387.117	18.135	1058.798	798.785
388.132	18.005	1058.120	797.595
389.146	17.997	1057.707	797.173
390.161	18.020	1056.444	796.260
391.175	18.056	1056.017	796.034
392.190	18.141	1055.312	795.826
393.205	18.098	1055.071	795.374
394.219	18.226	1054.186	795.236
395.234	18.153	1052.983	793.919
396.248	18.073	1051.958	792.704
397.263	18.121	1050.996	792.130
398.278	18.024	1050.382	791.150
399.292	17.976	1049.765	790.392
400.307	17.974	1049.311	789.968
401.321	17.992	1048.445	789.330
402.336	18.026	1047.621	788.796
403.350	18.054	1046.955	788.355
404.365	18.134	1046.527	788.335
405.380	18.140	1045.714	787.680
406.394	18.270	1044.944	787.626
407.409	18.298	1044.022	786.990
408.423	18.321	1043.405	786.563
409.438	18.419	1042.766	786.460
410.453	18.405	1042.016	785.761
411.467	18.432	1041.552	785.464
412.482	18.633	1041.027	785.922
413.496	18.632	1040.170	785.199
414.511	18.525	1039.881	784.421
415.526	18.636	1039.077	784.253
416.540	18.646	1038.807	784.027
417.555	18.668	1038.013	783.456
418.569	18.450	1037.991	782.379
419.584	18.563	1037.270	782.278
420.599	18.662	1036.394	782.001
421.613	150.501	1401.591	1795.090
422.628	137.490	1454.787	1795.184
