DTS Sentinel unit serial number:	SN413079Multiplexer serial number:	ORYXHardware model number:	OX4-SRSoftware version number:	ORYX F/W v4.00 Oryx Data Collector v3.7.2.0data status	okinstallation	princeton_trtdifferential loss correction	single-endedforward channel	channel 2reverse channel	N/Adate	2019/09/14time	20:59:35forward acquisition time	60.00reverse acquisition time	0.00gamma	496.2192k internal	0.2323k external	0.2323temperature offset calibration	1.0082default loss term (dB/km)	0.3790temperature slope calibration	1.0000multiplexer offset coefficient	1.0000multiplexer slope coefficient	1.0000fibre end	0.00T internal ref (°C)	33.19T ext. ref 1 (°C)	4.79T ext. ref 2 (°C)	27.89length (m)	temperature (°C)	Stokes	anti-Stokes-747.200	146.824	-0.146	0.199
-746.185	190.918	0.245	0.372
-745.171	-200.000	0.028	0.348
-744.156	97.059	0.330	0.383
-743.142	-83.725	0.205	0.066
-742.127	-21.985	0.114	0.070
-741.112	-6.400	-0.243	0.168
-740.098	-200.000	0.027	0.214
-739.083	43.927	-0.184	0.170
-738.069	-200.000	-0.012	0.227
-737.054	111.818	-0.113	-0.137
-736.039	-200.000	0.023	-0.280
-735.025	439.257	-0.085	0.188
-734.010	-100.144	-0.066	-0.016
-732.996	-200.000	0.033	-0.365
-731.981	-41.372	-0.273	0.142
-730.966	232.322	0.074	0.123
-729.952	800.000	0.085	-0.239
-728.937	-200.000	-0.006	-0.187
-727.923	626.544	-0.053	0.134
-726.908	35.245	0.085	-0.075
-725.894	-114.097	-0.298	0.058
-724.879	-200.000	0.013	-0.272
-723.864	-139.846	-0.083	0.009
-722.850	208.943	0.116	-0.184
-721.835	-200.000	-0.041	-0.311
-720.821	168.051	-0.135	-0.194
-719.806	104.333	0.176	-0.209
-718.791	58.021	-0.130	-0.128
-717.777	376.540	-0.207	-0.427
-716.762	147.462	-0.175	-0.237
-715.748	87.321	0.198	0.221
-714.733	31.474	-0.284	0.246
-713.718	-139.331	0.169	0.018
-712.704	110.434	-0.191	-0.232
-711.689	32.180	0.394	-0.343
-710.675	-189.542	-0.269	0.003
-709.660	-200.000	-0.046	-0.221
-708.645	-200.000	0.055	-0.337
-707.631	165.399	0.193	0.275
-706.616	-200.000	0.007	-0.177
-705.602	28.881	-0.034	-0.029
-704.587	20.386	-0.200	-0.163
-703.572	800.000	0.062	-0.265
-702.558	-200.000	0.007	-0.226
-701.543	2.202	0.317	0.231
-700.529	-137.503	-0.330	0.038
-699.514	-21.113	0.264	0.163
-698.499	-50.094	-0.095	-0.045
-697.485	-46.856	-0.177	0.087
-696.470	39.757	-0.211	0.191
-695.456	-84.931	-0.110	-0.035
-694.441	-200.000	-0.028	0.189
-693.426	-77.125	-0.333	0.117
-692.412	-200.000	0.007	0.195
-691.397	19.585	0.113	0.092
-690.383	-58.118	0.070	0.031
-689.368	148.550	-0.137	0.186
-688.354	181.505	0.118	-0.175
-687.339	24.013	0.117	0.098
-686.324	-28.998	0.232	-0.134
-685.310	-49.510	0.181	0.087
-684.295	328.002	-0.082	0.158
-683.281	-200.000	-0.043	-0.309
-682.266	800.000	0.001	0.004
-681.251	106.767	0.130	-0.155
-680.237	800.000	0.058	0.197
-679.222	-200.000	-0.025	0.119
-678.208	-112.365	0.213	0.043
-677.193	-66.474	-0.198	-0.079
-676.178	-87.187	-0.123	0.038
-675.164	-120.054	-0.381	-0.066
-674.149	-82.768	0.084	0.027
-673.135	153.965	-0.251	0.347
-672.120	800.000	0.036	0.117
-671.105	-45.689	0.074	-0.037
-670.091	-200.000	-0.004	0.449
-669.076	-200.000	-0.018	0.223
-668.062	431.799	-0.113	0.248
-667.047	150.445	-0.062	-0.084
-666.032	-3.930	-0.319	-0.223
-665.018	800.000	0.046	-0.153
-664.003	-30.158	-0.362	-0.207
-662.989	-7.250	-0.117	0.080
-661.974	-59.880	-0.283	0.122
-660.959	607.814	-0.057	-0.142
-659.945	334.898	0.135	-0.262
-658.930	45.364	0.115	-0.106
-657.916	333.216	-0.067	0.130
-656.901	116.909	-0.130	-0.161
-655.886	38.652	-0.159	0.142
-654.872	201.813	0.199	0.309
-653.857	-200.000	0.000	-0.116
-652.843	-84.871	0.066	0.021
-651.828	184.368	0.094	-0.139
-650.814	381.010	-0.119	-0.246
-649.799	170.459	-0.055	-0.080
-648.784	-200.000	-0.015	-0.323
-647.770	112.776	0.080	0.098
-646.755	-77.678	-0.504	-0.176
-645.741	800.000	0.015	-0.056
-644.726	-67.847	0.287	-0.113
-643.711	707.176	-0.072	0.192
-642.697	68.620	0.305	0.315
-641.682	-200.000	-0.040	-0.260
-640.668	800.000	-0.081	-0.228
-639.653	169.750	0.179	0.257
-638.638	-104.152	0.165	0.039
-637.624	33.938	0.132	0.115
-636.609	15.438	-0.242	-0.191
-635.595	48.665	-0.277	0.262
-634.580	800.000	-0.033	0.100
-633.565	4.415	-0.089	-0.066
-632.551	-60.209	-0.122	-0.052
-631.536	315.424	-0.084	-0.159
-630.522	367.977	-0.118	-0.239
-629.507	184.711	0.184	-0.274
-628.492	-200.000	0.005	-0.076
-627.478	6.956	0.263	-0.197
-626.463	-27.806	0.090	0.052
-625.449	19.574	-0.240	-0.194
-624.434	234.623	-0.174	0.289
-623.419	-200.000	0.000	-0.402
-622.405	527.462	-0.059	0.140
-621.390	494.087	0.102	-0.235
-620.376	-47.099	-0.053	0.026
-619.361	-89.404	0.375	-0.111
-618.346	-40.697	-0.064	0.033
-617.332	-147.120	0.202	-0.017
-616.317	-200.000	0.020	0.191
-615.303	-133.438	-0.210	0.027
-614.288	439.788	0.019	0.042
-613.273	-200.000	0.008	0.262
-612.259	-21.730	0.099	0.061
-611.244	555.924	-0.041	-0.098
-610.230	-62.354	-0.334	-0.140
-609.215	250.687	0.077	0.131
-608.201	-104.846	0.242	-0.056
-607.186	-2.945	0.133	-0.093
-606.171	-200.000	0.003	-0.467
-605.157	-31.201	-0.118	0.067
-604.142	-19.403	-0.328	-0.204
-603.128	-200.000	0.004	-0.438
-602.113	800.000	-0.026	0.093
-601.098	-94.538	-0.199	-0.054
-600.084	68.351	0.223	0.229
-599.069	800.000	0.044	0.182
-598.055	119.635	-0.118	0.146
-597.040	-55.166	0.252	0.114
-596.025	-100.565	0.349	-0.086
-595.011	273.119	-0.124	-0.219
-593.996	-45.464	0.114	0.057
-592.982	-137.795	-0.098	0.011
-591.967	-165.302	0.085	-0.004
-590.952	181.237	-0.157	-0.232
-589.938	257.235	0.149	-0.257
-588.923	-142.296	-0.256	0.025
-587.909	188.751	-0.059	-0.089
-586.894	-13.796	-0.166	0.108
-585.879	-51.522	-0.177	0.083
-584.865	157.806	0.151	0.210
-583.850	-76.226	0.258	0.091
-582.836	-45.146	0.253	-0.126
-581.821	-80.778	-0.218	-0.073
-580.806	795.122	-0.099	0.273
-579.792	800.000	-0.073	0.217
-578.777	-97.173	0.128	-0.033
-577.763	38.224	0.313	-0.279
-576.748	-200.000	-0.010	-0.172
-575.733	158.359	0.276	-0.384
-574.719	108.466	-0.088	0.106
-573.704	-152.810	-0.239	0.017
-572.690	-200.000	0.012	-0.302
-571.675	-13.404	-0.226	0.147
-570.661	80.683	-0.150	0.162
-569.646	800.000	-0.037	-0.160
-568.631	16.019	-0.421	0.333
-567.617	-149.438	0.367	-0.029
-566.602	430.590	0.076	-0.165
-565.588	604.764	-0.082	-0.205
-564.573	-200.000	0.033	-0.212
-563.558	-85.283	0.198	0.062
-562.544	-194.894	0.272	0.002
-561.529	-200.000	-0.057	-0.270
-560.515	-109.317	-0.158	0.034
-559.500	62.099	0.165	-0.165
-558.485	-166.801	-0.019	0.001
-557.471	116.815	0.036	0.044
-556.456	-85.538	0.049	0.015
-555.442	51.879	0.148	0.141
-554.427	-18.600	0.195	-0.122
-553.412	-200.000	0.026	0.258
-552.398	-200.000	0.018	-0.133
-551.383	374.536	-0.162	-0.331
-550.369	-107.182	-0.258	-0.057
-549.354	-42.839	-0.265	-0.135
-548.339	-104.017	-0.248	-0.058
-547.325	-200.000	-0.032	-0.306
-546.310	159.994	-0.287	0.401
-545.296	800.000	-0.032	-0.096
-544.281	-200.000	0.026	-0.256
-543.266	-77.697	0.171	0.059
-542.252	67.195	0.238	0.243
-541.237	-56.984	0.120	0.053
-540.223	-200.000	0.001	0.235
-539.208	-60.013	0.171	-0.073
-538.193	-73.961	-0.443	0.161
-537.179	-174.397	-0.263	-0.008
-536.164	137.237	0.107	-0.141
-535.150	167.489	-0.123	0.175
-534.135	-170.392	-0.178	0.006
-533.121	-60.040	0.500	0.214
-532.106	137.685	-0.099	0.130
-531.091	-200.000	-0.027	0.235
-530.077	97.695	-0.122	-0.141
-529.062	-200.000	0.018	0.165
-528.048	101.393	-0.196	0.229
-527.033	158.071	0.160	-0.222
-526.018	-42.662	0.124	-0.063
-525.004	22.677	-0.023	-0.019
-523.989	88.754	-0.141	0.157
-522.975	800.000	0.044	-0.163
-521.960	800.000	0.053	-0.180
-520.945	65.204	0.129	0.131
-519.931	94.228	0.114	0.129
-518.916	133.327	0.015	-0.019
-517.902	-200.000	-0.031	0.294
-516.887	-200.000	0.033	-0.231
-515.872	-200.000	-0.026	0.324
-514.858	-12.789	-0.107	0.070
-513.843	88.764	0.288	0.321
-512.829	-98.350	0.205	0.052
-511.814	-200.000	0.041	-0.255
-510.799	-158.860	0.253	-0.014
-509.785	480.722	0.047	0.106
-508.770	141.815	0.061	-0.081
-507.756	-53.538	-0.112	0.051
-506.741	52.490	0.153	-0.146
-505.726	-95.771	-0.179	0.048
-504.712	-200.000	0.177	0.000
-503.697	302.737	-0.103	-0.191
-502.683	-131.833	0.339	-0.044
-501.668	-128.573	0.127	0.018
-500.653	316.959	0.084	0.158
-499.639	-88.481	0.226	0.067
-498.624	164.010	0.116	-0.164
-497.610	-44.361	0.249	-0.125
-496.595	-40.966	-0.104	-0.054
-495.581	-25.126	0.044	0.026
-494.566	107.535	-0.241	0.287
-493.551	413.907	0.159	0.338
-492.537	-139.679	-0.371	-0.039
-491.522	34.053	-0.226	0.197
-490.508	800.000	0.105	-0.296
-489.493	553.902	0.151	-0.364
-488.478	800.000	0.047	0.198
-487.464	-49.678	0.179	-0.085
-486.449	64.992	-0.101	-0.102
-485.435	-35.247	-0.079	0.043
-484.420	799.904	0.112	0.309
-483.405	19.524	-0.084	-0.067
-482.391	-200.000	-0.009	-0.179
-481.376	5.933	-0.427	0.316
-480.362	68.265	0.346	0.354
-479.347	800.000	0.075	-0.301
-478.332	800.000	0.091	0.273
-477.318	800.000	-0.058	-0.229
-476.303	323.939	-0.178	0.340
-475.289	-115.291	0.308	0.058
-474.274	-200.000	-0.009	-0.414
-473.259	800.000	0.130	-0.367
-472.245	-158.104	0.178	-0.010
-471.230	-68.341	-0.481	0.187
-470.216	182.217	0.215	0.316
-469.201	-60.599	-0.112	-0.047
-468.186	57.236	-0.132	-0.128
-467.172	-103.876	-0.448	-0.105
-466.157	-109.552	0.136	0.029
-465.143	-200.000	0.059	0.313
-464.128	-68.062	-0.209	0.081
-463.113	-3.745	-0.222	-0.154
-462.099	-115.876	-0.266	0.050
-461.084	-89.116	0.207	-0.061
-460.070	-31.983	-0.262	-0.147
-459.055	-38.778	-0.261	0.138
-458.040	-200.000	0.026	0.452
-457.026	-186.052	-0.150	-0.002
-456.011	-200.000	0.035	-0.204
-454.997	-200.000	0.006	0.164
-453.982	216.929	-0.161	-0.255
-452.968	259.307	-0.135	-0.232
-451.953	197.785	-0.064	-0.097
-450.938	800.000	-0.087	0.250
-449.924	-200.000	-0.068	0.418
-448.909	-54.604	0.046	0.021
-447.895	214.691	0.058	-0.092
-446.880	-150.133	0.088	-0.007
-445.865	-147.355	-0.459	0.039
-444.851	215.556	-0.066	0.105
-443.836	-200.000	-0.032	0.232
-442.822	63.430	-0.241	0.242
-441.807	264.717	-0.053	0.092
-440.792	-200.000	0.034	-0.365
-439.778	-200.000	0.068	-0.369
-438.763	501.687	-0.081	0.186
-437.749	800.000	0.071	0.203
-436.734	-200.000	-0.058	-0.328
-435.719	-200.000	0.051	-0.235
-434.705	-110.881	0.107	-0.022
-433.690	-200.000	0.073	0.321
-432.676	-200.000	0.014	-0.075
-431.661	74.108	0.088	-0.092
-430.646	-200.000	-0.054	0.449
-429.632	-92.540	0.108	-0.030
-428.617	-159.303	0.128	0.007
-427.603	630.909	-0.056	-0.142
-426.588	-13.763	0.241	-0.155
-425.573	-111.823	-0.204	0.041
-424.559	240.688	-0.168	-0.279
-423.544	800.000	0.069	0.227
-422.530	2.774	-0.262	-0.189
-421.515	74.007	-0.082	-0.086
-420.500	250.071	0.020	-0.034
-419.486	-51.590	0.145	0.067
-418.471	158.881	0.010	-0.015
-417.457	64.672	0.038	0.038
-416.442	-139.565	-0.166	-0.018
-415.428	3.337	0.250	0.182
-414.413	-147.060	-0.110	0.009
-413.398	-96.945	-0.417	0.109
-412.384	800.000	0.008	0.021
-411.369	-108.462	0.326	0.070
-410.355	-74.934	-0.141	-0.050
-409.340	-36.948	-0.201	0.107
-408.325	800.000	-0.123	0.347
-407.311	-200.000	0.004	0.087
-406.296	-49.490	0.083	0.040
-405.282	-136.893	0.096	-0.011
-404.267	-200.000	0.013	0.119
-403.252	-200.000	0.004	0.395
-402.238	-200.000	0.012	-0.194
-401.223	525.339	-0.149	-0.349
-400.209	49.802	-0.074	-0.070
-399.194	-42.653	-0.126	0.064
-398.179	116.311	0.013	0.016
-397.165	-123.798	0.242	0.038
-396.150	35.064	0.308	-0.269
-395.136	295.590	-0.161	0.294
-394.121	-200.000	-0.015	-0.152
-393.106	112.727	-0.073	-0.088
-392.092	-200.000	-0.026	0.137
-391.077	-18.523	0.162	0.101
-390.063	800.000	0.024	0.084
-389.048	-54.435	0.012	-0.006
-388.033	-177.992	-0.161	-0.004
-387.019	800.000	-0.059	0.246
-386.004	800.000	0.135	-0.372
-384.990	-200.000	-0.003	-0.166
-383.975	-76.175	0.269	0.095
-382.960	-145.549	0.371	-0.033
-381.946	8.739	-0.150	-0.113
-380.931	-79.614	-0.290	-0.097
-379.917	-26.009	-0.254	-0.149
-378.902	-200.000	-0.018	-0.390
-377.888	-69.673	0.215	-0.082
-376.873	-118.300	-0.101	0.018
-375.858	-107.599	0.429	0.093
-374.844	-25.726	-0.418	0.245
-373.829	-172.160	0.172	0.006
-372.815	-200.000	-0.036	-0.203
-371.800	19.010	0.199	-0.158
-370.785	94.281	0.019	0.021
-369.771	123.708	0.085	-0.107
-368.756	-177.836	-0.162	-0.004
-367.742	-200.000	0.004	-0.202
-366.727	-104.620	-0.328	-0.075
-365.712	800.000	0.052	-0.180
-364.698	258.441	-0.094	-0.162
-363.683	-16.180	0.111	0.070
-362.669	104.088	-0.241	-0.282
-361.654	800.000	0.027	-0.096
-360.639	464.403	0.090	-0.201
-359.625	-140.373	-0.283	-0.029
-358.610	486.496	0.056	-0.127
-357.596	800.000	0.053	0.210
-356.581	-129.830	-0.148	-0.020
-355.566	99.301	0.060	-0.068
-354.552	-47.417	0.214	-0.103
-353.537	-200.000	-0.052	0.332
-352.523	800.000	0.049	0.140
-351.508	231.889	0.083	-0.135
-350.493	600.065	0.064	0.158
-349.479	43.038	-0.171	-0.156
-348.464	800.000	-0.068	-0.247
-347.450	-75.381	0.258	-0.091
-346.435	-60.398	-0.065	-0.027
-345.420	-178.282	-0.323	-0.008
-344.406	510.880	0.030	-0.069
-343.391	262.263	-0.112	-0.194
-342.377	150.526	0.334	0.451
-341.362	371.980	0.073	0.147
-340.348	-76.988	-0.507	0.176
-339.333	585.959	-0.086	0.210
-338.318	-20.356	0.051	0.031
-337.304	-200.000	-0.026	0.339
-336.289	-200.000	0.029	-0.170
-335.275	-142.220	-0.187	-0.018
-334.260	9.221	-0.409	0.307
-333.245	-60.503	0.213	0.090
-332.231	373.721	-0.079	0.160
-331.216	269.037	-0.117	0.204
-330.202	800.000	-0.037	0.142
-329.187	161.550	-0.081	0.112
-328.172	488.767	-0.098	0.222
-327.158	4.029	0.180	-0.131
-326.143	779.311	-0.056	-0.153
-325.129	-46.476	0.323	0.158
-324.114	84.629	-0.202	0.220
-323.099	-21.591	-0.087	0.052
-322.085	-104.929	-0.098	-0.022
-321.070	-41.079	0.264	-0.135
-320.056	-40.860	0.058	-0.030
-319.041	-144.918	0.075	-0.007
-318.026	-119.934	0.241	-0.041
-317.012	554.814	-0.082	0.197
-315.997	-39.119	-0.164	0.086
-314.983	-200.000	-0.006	0.040
-313.968	-200.000	0.012	-0.200
-312.953	-130.017	0.216	-0.029
-311.939	800.000	0.084	-0.357
-310.924	12.095	0.092	-0.070
-309.910	210.765	0.164	0.257
-308.895	-149.130	-0.202	0.016
-307.880	187.767	-0.067	0.100
-306.866	-54.174	0.402	0.182
-305.851	751.887	0.074	-0.198
-304.837	255.403	0.022	0.038
-303.822	-200.000	-0.020	-0.297
-302.807	-42.323	0.241	0.122
-301.793	521.123	0.041	-0.096
-300.778	-30.111	0.036	-0.020
-299.764	-200.000	-0.006	0.124
-298.749	-98.858	-0.129	-0.033
-297.735	208.173	0.207	-0.322
-296.720	134.759	0.292	-0.376
-295.705	800.000	-0.067	0.203
-294.691	-23.635	-0.258	0.154
-293.676	-200.000	0.025	0.159
-292.662	85.001	-0.284	0.309
-291.647	728.434	-0.020	0.054
-290.632	-200.000	0.022	-0.232
-289.618	53.817	-0.174	-0.166
-288.603	-50.715	-0.195	0.091
-287.589	-65.340	0.061	-0.024
-286.574	-167.561	-0.157	-0.006
-285.559	-200.000	-0.278	-0.001
-284.545	504.358	-0.054	0.124
-283.530	58.382	0.259	0.252
-282.516	39.770	0.436	0.388
-281.501	18.472	-0.328	0.260
-280.486	185.573	0.168	-0.248
-279.472	66.352	-0.084	0.085
-278.457	567.344	0.106	-0.255
-277.443	176.278	-0.051	-0.074
-276.428	-200.000	0.077	0.580
-275.413	-10.478	0.299	-0.196
-274.399	-200.000	0.047	-0.215
-273.384	800.000	0.148	0.409
-272.370	283.218	-0.108	-0.192
-271.355	-185.347	-0.212	0.003
-270.340	800.000	-0.034	-0.136
-269.326	800.000	0.037	-0.150
-268.311	52.996	0.158	-0.150
-267.297	114.737	-0.155	0.187
-266.282	-8.335	0.196	0.131
-265.267	-66.356	0.014	0.005
-264.253	-200.000	-0.008	0.040
-263.238	90.945	-0.148	0.165
-262.224	-128.374	0.224	-0.032
-261.209	94.192	-0.295	-0.331
-260.195	-30.679	0.197	0.110
-259.180	-106.606	0.263	0.058
-258.165	-100.967	-0.206	0.050
-257.151	800.000	0.110	0.409
-256.136	-138.106	-0.114	-0.013
-255.122	-182.703	-0.056	0.001
-254.107	-132.652	-0.322	-0.041
-253.092	-9.046	0.032	0.021
-252.078	-76.726	-0.303	-0.105
-251.063	-116.934	0.071	-0.013
-250.049	-161.190	-0.052	0.003
-249.034	-108.454	-0.351	-0.075
-248.019	-109.082	-0.128	-0.027
-247.005	-200.000	0.019	0.312
-245.990	181.077	-0.130	-0.190
-244.976	-200.000	0.000	-0.146
-243.961	-82.683	-0.224	0.072
-242.946	-14.480	0.176	0.112
-241.932	-200.000	0.030	-0.280
-240.917	414.066	0.078	-0.164
-239.903	-134.262	-0.208	-0.025
-238.888	-200.000	0.024	0.243
-237.873	128.218	0.213	-0.269
-236.859	41.612	-0.111	-0.100
-235.844	-200.000	0.023	-0.147
-234.830	289.875	0.006	-0.010
-233.815	57.440	-0.153	0.148
-232.800	-200.000	-0.027	0.145
-231.786	-89.535	-0.409	-0.119
-230.771	-200.000	0.078	-0.342
-229.757	-35.774	0.238	-0.128
-228.742	161.630	-0.105	-0.146
-227.727	46.912	0.187	-0.172
-226.713	489.309	0.073	-0.166
-225.698	-200.000	0.017	0.196
-224.684	9.947	-0.012	0.009
-223.669	-200.000	0.008	0.243
-222.655	136.735	-0.197	-0.254
-221.640	-41.227	0.215	0.110
-220.625	-200.000	0.005	-0.191
-219.611	5.864	0.212	0.155
-218.596	343.789	0.036	-0.069
-217.582	165.565	-0.039	0.055
-216.567	367.544	-0.068	-0.136
-215.552	63.562	-0.107	0.106
-214.538	-200.000	-0.042	0.482
-213.523	-29.836	-0.248	-0.140
-212.509	17.190	0.093	-0.073
-211.494	189.933	0.058	0.086
-210.479	-3.441	-0.282	-0.194
-209.465	-200.000	0.016	0.168
-208.450	-121.644	0.167	-0.027
-207.436	-114.267	-0.158	0.030
-206.421	-153.989	0.320	-0.022
-205.406	-11.140	0.214	-0.140
-204.392	-115.798	-0.114	0.021
-203.377	266.680	0.039	0.068
-202.363	-200.000	0.015	-0.249
-201.348	-39.930	0.232	-0.120
-200.333	36.603	0.360	-0.315
-199.319	-30.892	0.097	0.054
-198.304	-200.000	0.048	0.302
-197.290	-200.000	0.068	-0.309
-196.275	800.000	0.049	-0.174
-195.260	-62.030	0.378	-0.156
-194.246	-179.167	0.059	0.001
-193.231	148.714	0.264	0.353
-192.217	-83.022	-0.226	0.072
-191.202	-82.611	0.174	-0.056
-190.187	52.702	-0.041	-0.039
-189.173	97.736	-0.176	0.200
-188.158	-200.000	0.014	-0.129
-187.144	-200.000	0.068	-0.303
-186.129	-158.067	0.367	0.021
-185.114	800.000	0.056	0.194
-184.100	-200.000	-0.014	0.162
-183.085	-49.775	-0.152	-0.071
-182.071	800.000	0.062	0.191
-181.056	459.438	0.096	-0.211
-180.042	92.246	-0.149	0.165
-179.027	181.302	0.114	0.166
-178.012	-120.194	0.056	-0.009
-176.998	-142.187	0.523	0.051
-175.983	-175.937	0.396	-0.010
-174.969	-200.000	0.026	0.476
-173.954	754.759	-0.080	0.214
-172.939	-39.592	-0.197	0.102
-171.925	-200.000	-0.046	0.240
-170.910	-109.403	-0.144	0.030
-169.896	-200.000	0.017	-0.300
-168.881	-71.041	0.232	0.086
-167.866	-150.931	0.133	0.010
-166.852	-53.815	0.109	-0.049
-165.837	444.645	0.193	-0.419
-164.823	-104.241	0.202	-0.046
-163.808	209.241	0.126	0.195
-162.793	-104.798	-0.139	0.032
-161.779	31.237	-0.174	0.148
-160.764	-58.398	-0.225	-0.097
-159.750	-95.469	-0.025	-0.007
-158.735	164.252	0.138	-0.192
-157.720	-200.000	-0.032	-0.146
-156.706	-152.091	-0.244	-0.017
-155.691	-85.426	0.146	0.045
-154.677	-55.801	0.032	0.014
-153.662	800.000	-0.022	0.076
-152.647	379.093	-0.200	0.404
-151.633	800.000	-0.041	0.166
-150.618	800.000	-0.041	0.156
-149.604	-153.901	-0.226	0.015
-148.589	386.799	0.074	0.151
-147.574	-94.270	-0.136	0.037
-146.560	-91.958	-0.036	0.010
-145.545	94.353	-0.038	0.043
-144.531	-200.000	-0.009	0.067
-143.516	-12.342	-0.303	-0.195
-142.502	-129.822	-0.345	0.047
-141.487	9.717	-0.160	0.119
-140.472	-200.000	0.015	0.100
-139.458	97.813	-0.057	-0.065
-138.443	-37.056	0.118	-0.063
-137.429	149.536	0.206	-0.275
-136.414	-50.409	-0.302	0.141
-135.399	106.785	-0.114	-0.133
-134.385	130.498	-0.202	-0.255
-133.370	-124.998	-0.113	0.017
-132.356	-200.000	-0.032	0.421
-131.341	488.947	-0.040	0.091
-130.326	-139.255	-0.129	0.014
-129.312	-200.000	0.050	-0.241
-128.297	800.000	0.122	-0.415
-127.283	-57.871	-0.229	0.099
-126.268	59.732	-0.117	-0.114
-125.253	70.826	0.186	-0.190
-124.239	194.563	-0.054	0.081
-123.224	-133.204	-0.132	-0.016
-122.210	800.000	-0.041	0.139
-121.195	-200.000	0.011	-0.161
-120.180	-36.584	-0.193	0.102
-119.166	-44.945	-0.292	-0.143
-118.151	27.825	-0.129	-0.107
-117.137	-164.901	-0.470	0.021
-116.122	20.828	-0.008	-0.006
-115.107	800.000	0.046	-0.171
-114.093	174.082	0.137	0.195
-113.078	-200.000	-0.009	0.364
-112.064	-200.000	-0.012	0.082
-111.049	800.000	-0.052	-0.173
-110.034	84.800	0.064	-0.069
-109.020	-10.394	0.160	-0.104
-108.005	800.000	0.079	0.320
-106.991	-48.290	-0.143	-0.068
-105.976	-40.970	0.387	0.197
-104.962	-31.394	0.129	-0.071
-103.947	-143.582	0.243	-0.023
-102.932	-200.000	0.007	-0.113
-101.918	-38.763	-0.046	0.024
-100.903	-77.923	-0.326	0.111
-99.889	-157.752	-0.319	-0.019
-98.874	800.000	0.125	0.352
-97.859	-200.000	-0.073	0.000
-96.845	-50.724	0.487	-0.226
-95.830	-139.091	-0.392	-0.042
-94.816	138.364	0.202	-0.261
-93.801	-85.124	-0.260	-0.080
-92.786	38.260	-0.171	-0.150
-91.772	126.842	-0.003	0.004
-90.757	20.960	-0.266	0.212
-89.743	-17.882	-0.212	0.131
-88.728	-51.143	-0.063	0.029
-87.713	652.286	0.038	-0.096
-86.699	-122.870	0.300	-0.048
-85.684	-18.392	0.154	-0.095
-84.670	7.780	-0.081	-0.060
-83.655	-7.304	-0.210	-0.140
-82.640	-34.267	0.224	-0.121
-81.626	44.645	-0.039	0.035
-80.611	-74.925	-0.341	0.120
-79.597	-17.152	-0.052	0.032
-78.582	-148.169	0.060	0.005
-77.567	-78.142	-0.225	-0.076
-76.553	-165.994	0.110	-0.005
-75.538	242.115	0.060	-0.098
-74.524	-95.141	0.387	-0.103
-73.509	-123.918	-0.132	0.020
-72.494	-132.175	0.094	0.012
-71.480	-200.000	0.030	-0.198
-70.465	-200.000	-0.008	-0.280
-69.451	146.311	0.207	0.273
-68.436	-29.419	0.213	0.120
-67.422	-2.415	-0.126	-0.087
-66.407	94.831	-0.221	-0.247
-65.392	621.956	-0.042	-0.105
-64.378	233.889	-0.177	0.286
-63.363	-200.000	0.011	-0.082
-62.349	504.948	0.142	0.323
-61.334	72.875	-0.656	-0.674
-60.319	296.184	0.209	0.376
-59.305	-200.000	-0.023	-0.546
-58.290	414.935	0.510	1.068
-57.276	800.000	0.532	1.755
-56.261	-200.000	95.958	570.545
-55.246	642.771	1382.459	3463.646
-54.232	196.090	2567.914	3841.207
-53.217	113.265	2272.715	2710.035
-52.203	42.575	1896.538	1696.311
-51.188	36.562	1686.795	1463.317
-50.173	33.685	1642.907	1403.936
-49.159	51.522	1688.436	1576.842
-48.144	53.044	1705.284	1603.908
-47.130	36.164	1664.990	1441.196
-46.115	33.292	1651.467	1408.105
-45.100	33.143	1646.226	1402.474
-44.086	33.195	1643.310	1400.316
-43.071	33.029	1640.445	1396.596
-42.057	33.040	1638.430	1394.905
-41.042	33.096	1636.284	1393.437
-40.027	33.072	1634.148	1391.384
-39.013	33.001	1632.426	1389.337
-37.998	33.013	1631.178	1388.308
-36.984	33.109	1629.677	1387.681
-35.969	33.243	1628.223	1387.372
-34.954	33.289	1626.186	1385.915
-33.940	33.194	1624.884	1384.056
-32.925	33.188	1622.992	1382.351
-31.911	33.173	1621.513	1380.925
-30.896	33.259	1619.374	1379.675
-29.881	33.255	1617.322	1377.844
-28.867	33.206	1616.606	1376.822
-27.852	33.217	1614.869	1375.371
-26.838	33.209	1613.386	1373.990
-25.823	33.152	1612.069	1372.405
-24.809	33.250	1610.488	1371.712
-23.794	33.229	1608.763	1370.034
-22.779	33.232	1607.441	1368.881
-21.765	33.219	1606.284	1367.746
-20.750	33.228	1604.359	1366.113
-19.736	33.192	1602.741	1364.423
-18.721	33.232	1601.663	1363.739
-17.706	33.272	1600.158	1362.691
-16.692	33.211	1598.740	1360.993
-15.677	33.190	1597.084	1359.377
-14.663	33.107	1596.139	1357.923
-13.648	33.135	1594.871	1356.994
-12.633	33.254	1592.498	1355.769
-11.619	33.122	1591.819	1354.194
-10.604	33.108	1589.924	1352.430
-9.590	33.239	1588.647	1352.226
-8.575	33.162	1587.696	1350.808
-7.560	33.167	1586.313	1349.614
-6.546	33.229	1584.882	1348.785
-5.531	33.326	1583.439	1348.197
-4.517	33.186	1583.148	1346.896
-3.502	33.210	1581.436	1345.559
-2.487	33.286	1579.792	1344.650
-1.473	32.886	1568.356	1332.038
-0.458	30.185	1548.401	1296.190
0.556	26.648	1548.696	1263.198
1.571	24.135	1571.910	1264.208
2.586	23.616	1584.387	1270.413
3.600	20.927	1530.986	1208.862
4.615	12.731	1422.558	1070.108
5.629	5.975	1359.626	980.599
6.644	4.905	1351.821	968.238
7.659	4.797	1350.650	966.647
8.673	4.776	1349.316	965.475
9.688	4.673	1347.974	963.788
10.702	4.749	1345.052	962.085
11.717	7.775	1350.635	984.757
12.731	15.419	1364.721	1042.594
13.746	20.076	1371.586	1076.755
14.761	19.782	1369.602	1073.278
15.775	18.729	1367.062	1064.668
16.790	17.695	1364.023	1055.807
17.804	16.860	1361.880	1048.892
18.819	16.427	1360.736	1045.240
19.834	16.223	1359.406	1042.863
20.848	15.954	1358.435	1040.366
21.863	15.660	1357.345	1037.623
22.877	15.629	1356.041	1036.344
23.892	15.577	1355.302	1035.365
24.907	15.525	1354.347	1034.224
25.921	15.557	1353.055	1033.344
26.936	15.639	1352.294	1033.174
27.950	15.669	1351.753	1032.856
28.965	15.618	1350.841	1031.754
29.980	15.899	1349.162	1032.100
30.994	15.922	1348.316	1031.507
32.009	16.001	1347.200	1031.043
33.023	15.928	1345.339	1029.084
34.038	15.794	1344.835	1027.788
35.053	15.674	1343.745	1026.133
36.067	15.852	1342.295	1026.017
37.082	15.777	1341.890	1025.161
38.096	15.818	1340.425	1024.202
39.111	15.899	1339.524	1023.914
40.126	15.753	1338.498	1022.152
41.140	15.495	1338.071	1020.167
42.155	15.528	1337.034	1019.484
43.169	15.510	1337.193	1019.405
44.184	15.578	1336.497	1019.198
45.199	15.540	1336.337	1018.756
46.213	15.709	1335.473	1019.030
47.228	15.638	1335.115	1018.239
48.242	15.736	1333.791	1017.735
49.257	15.678	1332.395	1016.228
50.271	15.691	1330.839	1015.028
51.286	15.735	1329.622	1014.275
52.301	15.729	1328.615	1013.382
53.315	15.707	1327.283	1012.146
54.330	15.598	1326.354	1010.692
55.344	15.501	1325.274	1009.196
56.359	15.627	1324.059	1008.935
57.374	15.497	1323.400	1007.568
58.388	15.360	1322.641	1006.078
59.403	15.340	1322.273	1005.590
60.417	15.499	1321.032	1005.510
61.432	15.335	1320.457	1004.001
62.447	15.414	1319.163	1003.401
63.461	15.327	1318.631	1002.386
64.476	15.330	1316.986	1001.061
65.490	15.354	1315.655	1000.106
66.505	15.372	1314.360	999.143
67.520	15.349	1313.524	998.279
68.534	15.387	1312.691	997.785
69.549	15.443	1311.608	997.204
70.563	15.413	1310.137	995.822
71.578	15.208	1309.323	993.902
72.593	15.286	1308.069	993.321
73.607	15.221	1307.539	992.443
74.622	15.285	1306.692	992.095
75.636	15.182	1306.488	991.240
76.651	15.268	1305.518	990.927
77.666	15.240	1304.917	990.216
78.680	15.328	1304.258	990.151
79.695	15.337	1303.625	989.635
80.709	15.471	1302.611	989.565
81.724	15.395	1302.237	988.749
82.739	15.415	1301.690	988.363
83.753	15.546	1300.459	988.110
84.768	15.686	1299.697	988.267
85.782	15.788	1298.343	987.751
86.797	15.809	1296.622	986.478
87.812	15.737	1295.851	985.382
88.826	15.770	1294.336	984.337
89.841	15.711	1293.591	983.335
90.855	15.718	1293.045	982.874
91.870	15.798	1292.011	982.468
92.884	15.711	1291.305	981.336
93.899	15.783	1290.233	980.854
94.914	15.929	1289.855	981.333
95.928	15.868	1288.646	979.973
96.943	15.777	1288.131	978.963
97.957	15.793	1287.259	978.303
98.972	15.769	1285.858	977.017
99.987	15.899	1284.754	976.846
101.001	15.747	1283.836	975.177
102.016	15.781	1283.007	974.662
103.030	15.713	1282.033	973.440
104.045	15.828	1281.071	973.286
105.060	15.738	1279.927	971.815
106.074	15.628	1278.356	969.900
107.089	15.513	1276.847	968.008
108.103	15.440	1275.563	966.528
109.118	15.427	1274.466	965.536
110.133	15.403	1273.233	964.376
111.147	15.439	1271.888	963.482
112.162	15.542	1270.613	963.017
113.176	15.557	1269.272	962.004
114.191	15.560	1268.613	961.436
115.206	15.505	1267.523	960.213
116.220	15.556	1266.110	959.346
117.235	15.474	1264.835	957.831
118.249	15.526	1264.221	957.577
119.264	15.430	1263.088	956.083
120.279	15.342	1262.233	954.853
121.293	15.416	1260.780	954.090
122.308	15.402	1259.750	953.146
123.322	15.344	1258.468	951.764
124.337	15.304	1257.568	950.772
125.352	15.287	1256.725	949.953
126.366	15.373	1255.509	949.437
127.381	15.283	1254.430	948.028
128.395	15.292	1253.474	947.274
129.410	15.370	1252.653	947.007
130.424	15.443	1251.904	946.771
131.439	15.499	1250.734	946.116
132.454	15.465	1250.293	945.509
133.468	15.538	1248.844	944.738
134.483	15.650	1248.517	945.038
135.497	15.570	1247.425	943.680
136.512	15.578	1246.205	942.719
137.527	15.609	1244.485	941.505
138.541	15.636	1243.041	940.482
139.556	15.650	1242.068	939.742
140.570	15.685	1241.435	939.376
141.585	15.716	1240.012	938.385
142.600	15.738	1239.402	937.964
143.614	15.828	1238.308	937.554
144.629	15.907	1237.051	936.961
145.643	15.928	1236.164	936.324
146.658	15.755	1234.815	934.257
147.673	15.651	1233.427	932.547
148.687	15.546	1232.405	931.109
149.702	15.590	1231.005	930.217
150.716	15.708	1229.276	929.476
151.731	15.599	1228.469	928.180
152.746	15.648	1226.961	927.233
153.760	15.675	1225.734	926.373
154.775	15.706	1225.195	926.052
155.789	15.792	1224.213	925.701
156.804	15.821	1223.151	924.976
157.819	15.897	1222.397	924.744
158.833	15.877	1221.443	923.830
159.848	15.945	1220.495	923.403
160.862	15.879	1219.576	922.266
161.877	15.865	1217.978	920.900
162.892	15.654	1217.577	919.357
163.906	15.683	1216.402	918.549
164.921	15.656	1215.494	917.635
165.935	15.812	1214.645	917.762
166.950	15.708	1214.056	916.669
167.964	15.763	1213.291	916.310
168.979	15.780	1212.612	915.812
169.994	15.836	1211.477	915.179
171.008	15.780	1211.003	914.432
172.023	15.949	1210.247	914.698
173.037	16.009	1209.576	914.438
174.052	15.962	1208.329	913.156
175.067	15.864	1207.471	911.897
176.081	15.855	1206.223	910.824
177.096	15.841	1205.419	910.064
178.110	15.801	1204.331	908.944
179.125	15.976	1203.460	909.151
180.140	15.898	1202.302	907.775
181.154	15.873	1201.257	906.770
182.169	16.077	1199.343	906.343
183.183	16.108	1198.264	905.614
184.198	16.034	1198.094	905.010
185.213	16.092	1196.284	903.871
186.227	16.075	1195.715	903.273
187.242	16.121	1194.645	902.630
188.256	16.246	1193.805	902.582
189.271	16.066	1193.460	901.280
190.286	16.027	1191.781	899.724
191.300	15.721	1191.052	897.459
192.315	15.796	1189.959	896.959
193.329	15.767	1189.324	896.247
194.344	15.846	1188.986	896.333
195.359	16.023	1188.174	896.583
196.373	16.047	1188.139	896.603
197.388	16.157	1187.642	896.733
198.402	16.307	1187.233	897.145
199.417	16.432	1186.482	897.163
200.432	16.416	1185.819	896.493
201.446	16.354	1185.073	895.523
202.461	16.450	1183.969	895.118
203.475	16.468	1183.011	894.411
204.490	16.304	1181.820	892.563
205.504	16.276	1180.311	891.198
206.519	16.249	1179.604	890.443
207.534	16.193	1178.372	889.139
208.548	16.282	1177.486	888.859
209.563	16.214	1176.977	888.038
210.577	16.241	1175.775	887.194
211.592	16.360	1174.840	887.038
212.607	16.486	1173.806	886.839
213.621	16.457	1173.167	886.125
214.636	16.420	1172.080	885.030
215.650	16.479	1171.627	884.919
216.665	16.484	1170.597	884.092
217.680	16.476	1169.791	883.360
218.694	16.431	1169.215	882.611
219.709	16.503	1168.194	882.138
220.723	16.549	1167.520	881.791
221.738	16.490	1166.548	880.676
222.753	16.560	1165.611	880.251
223.767	16.461	1165.857	879.843
224.782	16.620	1164.948	879.908
225.796	16.672	1163.949	879.348
226.811	16.791	1162.896	879.088
227.826	16.611	1162.711	877.940
228.840	16.598	1161.521	876.894
229.855	16.732	1160.817	876.980
230.869	16.665	1159.797	875.787
231.884	16.566	1159.254	874.786
232.899	16.547	1158.643	874.148
233.913	16.614	1157.919	873.871
234.928	16.592	1157.127	873.081
235.942	16.423	1156.440	871.614
236.957	16.483	1155.906	871.443
237.972	16.548	1154.838	870.897
238.986	16.506	1154.526	870.367
240.001	16.550	1153.907	870.054
241.015	16.553	1152.593	868.998
242.030	16.646	1151.777	868.784
243.045	16.708	1151.217	868.605
244.059	16.762	1150.465	868.236
245.074	16.687	1149.239	866.850
246.088	16.838	1148.733	867.165
247.103	16.786	1148.337	866.523
248.117	16.943	1147.368	866.515
249.132	16.947	1146.717	865.971
250.147	17.233	1145.926	866.757
251.161	17.127	1145.502	865.817
252.176	17.231	1144.780	865.723
253.190	17.218	1144.195	865.138
254.205	17.353	1143.618	865.312
255.220	17.324	1143.194	864.769
256.234	17.281	1142.252	863.759
257.249	17.348	1141.899	863.759
258.263	17.348	1140.855	862.893
259.278	17.336	1140.006	862.110
260.293	17.321	1139.976	861.938
261.307	17.361	1139.200	861.478
262.322	17.325	1138.850	860.955
263.336	17.316	1138.034	860.216
264.351	17.429	1137.399	860.230
265.366	17.430	1136.955	859.820
266.380	17.534	1135.826	859.416
267.395	17.410	1134.943	858.049
268.409	17.346	1134.079	856.997
269.424	17.367	1133.838	856.842
270.439	17.462	1133.273	856.820
271.453	17.446	1131.833	855.576
272.468	17.365	1131.005	854.469
273.482	17.426	1130.375	854.220
274.497	17.276	1130.429	853.431
275.512	17.231	1129.748	852.616
276.526	17.241	1128.723	851.819
277.541	17.420	1127.673	851.850
278.555	17.365	1127.153	851.105
279.570	17.425	1126.801	851.062
280.585	17.506	1125.826	850.658
281.599	17.584	1124.721	850.134
282.614	17.441	1123.726	848.594
283.628	17.449	1122.772	847.839
284.643	17.539	1121.718	847.414
285.657	17.465	1121.173	846.560
286.672	17.483	1120.190	845.832
287.687	17.546	1119.205	845.329
288.701	17.533	1118.416	844.593
289.716	17.702	1117.231	844.460
290.730	17.613	1116.957	843.736
291.745	17.653	1116.655	843.631
292.760	17.649	1115.756	842.858
293.774	17.674	1115.598	842.788
294.789	17.805	1114.717	842.694
295.803	17.759	1113.966	841.825
296.818	17.613	1113.665	840.805
297.833	17.654	1112.771	840.258
298.847	17.529	1112.251	839.174
299.862	17.717	1111.004	839.083
300.876	17.831	1109.955	838.779
301.891	17.775	1109.460	838.055
302.906	17.903	1109.145	838.370
303.920	17.884	1108.239	837.519
304.935	18.003	1107.742	837.655
305.949	17.975	1107.154	836.998
306.964	17.899	1106.837	836.312
307.979	17.959	1105.690	835.665
308.993	17.912	1105.126	834.935
310.008	17.930	1104.462	834.446
311.022	18.079	1103.480	834.360
312.037	18.097	1102.288	833.471
313.052	18.015	1101.565	832.452
314.066	17.900	1100.954	831.354
315.081	17.880	1100.025	830.485
316.095	17.855	1099.160	829.637
317.110	17.861	1098.225	828.886
318.125	17.901	1097.360	828.352
319.139	17.797	1097.005	827.508
320.154	17.830	1096.831	827.461
321.168	17.865	1096.120	827.021
322.183	17.863	1095.323	826.341
323.197	17.832	1094.732	825.670
324.212	17.983	1094.203	825.925
325.227	17.989	1093.576	825.409
326.241	17.983	1092.798	824.723
327.256	17.904	1092.155	823.784
328.270	17.945	1091.189	823.176
329.285	17.908	1090.422	822.350
330.300	17.909	1089.551	821.625
331.314	17.949	1088.583	821.014
332.329	18.104	1086.820	820.357
333.343	18.026	1086.329	819.538
334.358	18.127	1085.711	819.482
335.373	18.025	1085.713	818.922
336.387	18.185	1084.335	818.576
337.402	18.189	1083.798	818.118
338.416	18.286	1082.985	817.896
339.431	18.185	1082.544	817.009
340.446	18.311	1081.934	817.077
341.460	18.409	1081.078	816.823
342.475	18.419	1080.459	816.331
343.489	18.532	1079.516	816.088
344.504	18.546	1078.374	815.217
345.519	18.651	1077.671	815.111
346.533	18.527	1077.014	813.952
347.548	18.697	1076.275	814.128
348.562	18.639	1075.480	813.183
349.577	18.498	1074.733	811.875
350.592	18.449	1073.887	810.937
351.606	18.325	1073.067	809.659
352.621	18.322	1072.518	809.156
353.635	18.425	1071.527	808.823
354.650	18.307	1071.063	807.844
355.665	18.495	1070.382	808.147
356.679	18.408	1069.903	807.305
357.694	18.570	1069.122	807.405
358.708	18.569	1068.364	806.759
359.723	18.565	1068.014	806.404
360.738	18.514	1067.394	805.624
361.752	18.494	1067.061	805.207
362.767	18.595	1066.136	804.909
363.781	18.533	1065.904	804.374
364.796	18.686	1065.474	804.698
365.810	18.790	1064.621	804.470
366.825	18.932	1063.696	804.364
367.840	18.927	1063.358	804.011
368.854	19.006	1062.676	803.796
369.869	18.967	1061.829	802.899
370.883	18.911	1061.535	802.347
371.898	18.832	1060.548	801.161
372.913	18.809	1059.686	800.330
373.927	18.924	1059.239	800.456
374.942	18.946	1058.977	800.293
375.956	18.787	1058.770	799.324
376.971	18.872	1057.993	799.063
377.986	18.897	1057.464	798.711
379.000	19.062	1056.710	798.837
380.015	19.067	1056.267	798.452
381.029	19.087	1055.529	797.916
382.044	19.119	1054.921	797.534
383.059	19.169	1054.091	797.069
384.073	19.054	1053.458	795.987
385.088	19.215	1052.447	795.897
386.102	19.179	1051.527	794.964
387.117	19.141	1050.460	793.910
388.132	18.935	1049.704	792.319
389.146	19.115	1048.711	792.331
390.161	19.098	1047.889	791.560
391.175	19.026	1047.541	790.896
392.190	19.098	1046.871	790.651
393.205	19.232	1045.839	790.417
394.219	19.189	1045.462	789.867
395.234	19.195	1044.136	788.821
396.248	19.147	1043.445	788.009
397.263	19.059	1042.278	786.654
398.278	19.091	1041.630	786.242
399.292	18.933	1041.279	785.187
400.307	18.957	1040.565	784.689
401.321	19.057	1039.693	784.419
402.336	19.049	1038.948	783.749
403.350	18.911	1038.735	782.889
404.365	19.013	1038.151	782.845
405.380	19.103	1037.280	782.531
406.394	19.233	1036.074	782.140
407.409	19.273	1035.525	781.840
408.423	19.395	1034.884	781.836
409.438	19.284	1034.569	781.030
410.453	19.500	1033.395	781.050
411.467	19.592	1032.830	780.972
412.482	19.513	1032.288	780.133
413.496	19.542	1031.491	779.596
414.511	19.549	1031.393	779.481
415.526	19.550	1031.008	779.126
416.540	19.654	1030.296	778.989
417.555	19.675	1029.908	778.719
418.569	19.636	1029.229	777.964
419.584	19.551	1028.952	777.302
420.599	19.633	1028.283	777.095
421.613	152.021	1400.714	1794.176
422.628	138.658	1455.001	1794.287
