DTS Sentinel unit serial number:	SN413079Multiplexer serial number:	ORYXHardware model number:	OX4-SRSoftware version number:	ORYX F/W v4.00 Oryx Data Collector v3.7.2.0data status	okinstallation	princeton_trtdifferential loss correction	single-endedforward channel	channel 2reverse channel	N/Adate	2019/09/10time	20:25:11forward acquisition time	60.00reverse acquisition time	0.00gamma	496.2192k internal	0.2330k external	0.2330temperature offset calibration	0.9944default loss term (dB/km)	0.3790temperature slope calibration	1.0000multiplexer offset coefficient	1.0000multiplexer slope coefficient	1.0000fibre end	0.00T internal ref (°C)	32.11T ext. ref 1 (°C)	-0.31T ext. ref 2 (°C)	25.27length (m)	temperature (°C)	Stokes	anti-Stokes-747.200	800.000	0.052	-0.224
-746.185	-200.000	0.028	0.274
-745.171	-21.320	0.115	-0.071
-744.156	81.336	-0.099	0.108
-743.142	-53.747	0.201	0.092
-742.127	800.000	0.097	0.279
-741.112	-6.430	-0.097	0.067
-740.098	-73.065	0.167	0.062
-739.083	800.000	-0.020	-0.074
-738.069	-26.776	0.194	0.114
-737.054	265.438	0.063	0.110
-736.039	-154.554	-0.280	-0.019
-735.025	-81.368	0.085	0.028
-734.010	-6.952	-0.115	-0.078
-732.996	64.685	0.124	-0.126
-731.981	6.963	0.230	0.173
-730.966	26.712	0.156	-0.132
-729.952	-55.837	0.040	0.018
-728.937	125.964	0.005	-0.007
-727.923	-106.180	0.258	0.058
-726.908	-72.391	-0.344	0.128
-725.894	-31.290	0.373	-0.211
-724.879	-123.914	-0.424	-0.067
-723.864	-65.770	0.154	0.062
-722.850	-111.475	-0.197	-0.040
-721.835	-167.205	-0.268	-0.011
-720.821	225.598	0.162	0.264
-719.806	114.882	0.152	0.187
-718.791	69.368	-0.056	0.058
-717.777	67.982	0.111	-0.114
-716.762	-200.000	-0.026	0.143
-715.748	204.723	0.173	0.270
-714.733	-83.387	-0.138	-0.045
-713.718	800.000	0.072	-0.218
-712.704	172.497	0.087	0.126
-711.689	-89.698	-0.204	-0.060
-710.675	-25.514	0.043	-0.025
-709.660	199.265	0.104	0.160
-708.645	518.662	-0.038	0.089
-707.631	-103.912	0.123	0.029
-706.616	373.485	0.185	0.379
-705.602	83.183	0.086	-0.094
-704.587	365.319	-0.037	-0.075
-703.572	800.000	-0.035	-0.104
-702.558	-107.850	-0.103	0.023
-701.543	-63.537	0.128	-0.053
-700.529	459.410	0.039	0.088
-699.514	598.859	0.041	0.102
-698.499	-83.763	-0.148	0.047
-697.485	-36.046	0.112	-0.061
-696.470	31.861	-0.150	0.130
-695.456	-168.021	-0.235	0.009
-694.441	-18.276	-0.082	0.051
-693.426	800.000	0.016	0.065
-692.412	-30.960	0.218	-0.124
-691.397	-160.199	0.223	-0.012
-690.383	-3.397	-0.154	-0.108
-689.368	82.567	-0.153	0.167
-688.354	11.764	-0.223	0.172
-687.339	-18.705	-0.145	-0.091
-686.324	28.790	0.233	-0.199
-685.310	-85.182	-0.057	-0.018
-684.295	104.984	0.205	-0.243
-683.281	-127.118	-0.610	0.090
-682.266	-200.000	-0.012	-0.280
-681.251	-38.482	0.104	0.055
-680.237	-82.117	-0.140	0.046
-679.222	-200.000	-0.002	-0.080
-678.208	251.684	-0.222	0.379
-677.193	-109.349	0.453	0.096
-676.178	-39.466	0.186	-0.098
-675.164	25.530	0.087	-0.072
-674.149	800.000	-0.051	-0.215
-673.135	96.587	-0.171	0.197
-672.120	800.000	0.047	0.171
-671.105	242.692	0.117	-0.196
-670.091	-82.797	-0.270	0.088
-669.076	406.127	0.060	-0.127
-668.062	-18.009	-0.433	-0.272
-667.047	-52.776	-0.385	-0.178
-666.032	-200.000	-0.027	-0.227
-665.018	-123.905	-0.160	0.025
-664.003	800.000	-0.082	0.312
-662.989	-200.000	0.009	0.178
-661.974	-19.162	0.268	-0.167
-660.959	197.711	-0.088	0.134
-659.945	-200.000	0.019	0.115
-658.930	-0.404	-0.160	0.114
-657.916	108.245	0.152	0.181
-656.901	800.000	-0.099	0.333
-655.886	-153.093	0.175	0.012
-654.872	-165.154	-0.088	0.004
-653.857	800.000	0.119	-0.407
-652.843	48.159	-0.076	-0.071
-651.828	171.690	-0.063	-0.091
-650.814	376.185	-0.136	-0.278
-649.799	-107.398	-0.391	0.086
-648.784	-107.014	-0.111	-0.025
-647.770	-183.550	-0.477	-0.008
-646.755	98.956	-0.307	0.356
-645.741	72.382	-0.066	0.069
-644.726	39.209	-0.153	0.138
-643.711	-200.000	0.084	-0.395
-642.697	-200.000	-0.031	0.232
-641.682	-200.000	0.021	0.123
-640.668	29.196	-0.200	-0.170
-639.653	-45.968	-0.124	-0.061
-638.638	-85.904	-0.272	-0.085
-637.624	-200.000	0.014	-0.097
-636.609	145.579	-0.234	0.314
-635.595	-174.388	-0.296	-0.009
-634.580	-81.697	0.295	0.097
-633.565	-3.800	-0.088	-0.061
-632.551	-10.489	0.054	-0.036
-631.536	-200.000	0.027	-0.466
-630.522	206.647	-0.141	-0.220
-629.507	800.000	0.054	0.208
-628.492	239.767	-0.061	-0.102
-627.478	37.854	-0.135	-0.120
-626.463	447.549	-0.189	-0.416
-625.449	-200.000	-0.010	-0.104
-624.434	-172.160	-0.210	-0.007
-623.419	-10.521	0.138	-0.091
-622.405	800.000	0.084	-0.309
-621.390	800.000	0.061	-0.196
-620.376	-46.380	-0.191	-0.094
-619.361	205.797	-0.323	0.504
-618.346	-3.065	0.158	-0.111
-617.332	-43.267	-0.227	0.115
-616.317	-33.375	0.207	-0.115
-615.303	-200.000	0.018	0.192
-614.288	800.000	-0.068	0.268
-613.273	-175.920	0.237	-0.006
-612.259	14.134	-0.024	0.019
-611.244	-37.747	-0.218	0.116
-610.230	121.229	-0.108	-0.135
-609.215	386.377	-0.057	-0.118
-608.201	322.000	-0.112	-0.214
-607.186	-10.680	-0.190	-0.126
-606.171	800.000	-0.085	-0.252
-605.157	301.216	-0.072	0.133
-604.142	-200.000	0.032	-0.152
-603.128	342.420	0.226	0.443
-602.113	54.131	0.067	0.065
-601.098	-41.282	0.079	-0.041
-600.084	62.083	-0.047	-0.047
-599.069	-200.000	-0.109	-0.575
-598.055	23.425	0.155	-0.128
-597.040	-32.593	-0.184	0.102
-596.025	-46.615	-0.158	-0.078
-595.011	-109.560	0.398	0.084
-593.996	42.876	0.031	0.029
-592.982	-200.000	-0.017	0.184
-591.967	143.993	-0.101	0.135
-590.952	-85.055	0.247	0.077
-589.938	549.221	-0.136	0.326
-588.923	-200.000	0.030	0.297
-587.909	56.372	-0.199	-0.194
-586.894	-0.538	0.171	0.122
-585.879	161.649	-0.107	0.149
-584.865	-132.392	0.236	0.030
-583.850	-61.880	0.176	-0.074
-582.836	-200.000	-0.041	-0.181
-581.821	196.261	0.171	0.261
-580.806	791.038	0.095	0.260
-579.792	-99.193	0.205	0.052
-578.777	42.904	0.154	0.141
-577.763	800.000	0.125	0.369
-576.748	87.794	0.145	0.161
-575.733	128.800	-0.106	-0.136
-574.719	-109.856	0.258	-0.054
-573.704	78.849	-0.281	0.300
-572.690	-200.000	-0.018	-0.188
-571.675	-77.763	0.204	-0.070
-570.661	800.000	-0.065	-0.253
-569.646	280.835	0.104	-0.187
-568.631	-1.992	0.218	0.154
-567.617	-117.219	0.348	-0.063
-566.602	-97.648	-0.519	0.134
-565.588	8.746	-0.054	-0.041
-564.573	-114.819	-0.126	-0.024
-563.558	-200.000	-0.047	0.221
-562.544	156.390	-0.194	0.268
-561.529	800.000	-0.061	0.243
-560.515	800.000	-0.063	0.200
-559.500	-200.000	-0.023	-0.348
-558.485	-200.000	0.053	0.321
-557.471	-151.597	-0.264	0.019
-556.456	195.544	0.094	-0.143
-555.442	77.703	-0.189	-0.201
-554.427	39.776	-0.178	0.160
-553.412	-200.000	-0.010	-0.104
-552.398	-60.189	-0.268	0.114
-551.383	-200.000	-0.029	-0.358
-550.369	-116.659	-0.234	0.043
-549.354	163.297	-0.109	-0.153
-548.339	163.086	-0.107	-0.150
-547.325	-6.403	-0.153	0.104
-546.310	-200.000	-0.013	0.221
-545.296	800.000	-0.059	-0.258
-544.281	80.701	-0.132	-0.142
-543.266	-200.000	-0.027	-0.194
-542.252	800.000	-0.054	0.164
-541.237	-200.000	-0.021	0.135
-540.223	-97.217	0.253	0.066
-539.208	-124.918	0.391	0.060
-538.193	13.704	-0.277	0.215
-537.179	800.000	0.081	0.280
-536.164	65.037	0.226	-0.228
-535.150	106.360	0.274	0.324
-534.135	520.266	0.098	0.228
-533.121	90.265	0.090	-0.100
-532.106	573.050	0.125	-0.303
-531.091	234.342	-0.118	-0.195
-530.077	-123.436	0.417	-0.066
-529.062	571.617	-0.043	-0.104
-528.048	-103.314	-0.061	-0.014
-527.033	242.434	-0.148	-0.248
-526.018	-7.767	0.141	-0.095
-525.004	-102.338	0.207	0.050
-523.989	-103.497	0.206	-0.048
-522.975	15.107	-0.192	-0.150
-521.960	-63.687	-0.216	-0.088
-520.945	-12.194	0.124	-0.081
-519.931	67.425	-0.073	0.074
-518.916	-200.000	0.014	0.285
-517.902	33.610	-0.208	-0.180
-516.887	800.000	-0.111	-0.376
-515.872	92.956	-0.239	-0.269
-514.858	-200.000	-0.064	0.338
-513.843	-64.469	0.092	-0.037
-512.829	-200.000	-0.001	-0.529
-511.814	-94.382	-0.093	0.025
-510.799	87.777	-0.098	-0.108
-509.785	-63.830	0.099	0.040
-508.770	800.000	0.035	-0.139
-507.756	-61.946	0.364	0.152
-506.741	-53.771	-0.051	-0.023
-505.726	-23.037	0.085	0.051
-504.712	-6.641	0.210	0.143
-503.697	-28.425	0.118	0.068
-502.683	440.180	0.062	0.136
-501.668	-127.298	0.232	-0.034
-500.653	189.149	0.151	0.225
-499.639	-200.000	0.136	-0.000
-498.624	-200.000	-0.021	0.111
-497.610	196.042	0.039	0.059
-496.595	-35.139	0.028	-0.015
-495.581	-107.373	0.125	0.027
-494.566	444.314	0.045	0.098
-493.551	-89.934	0.056	-0.016
-492.537	-108.055	-0.159	-0.034
-491.522	800.000	-0.073	-0.310
-490.508	-32.093	0.239	0.133
-489.493	-80.957	-0.293	-0.097
-488.478	-177.100	0.127	0.003
-487.464	-178.192	-0.186	0.004
-486.449	46.722	-0.165	-0.153
-485.435	643.498	0.069	-0.175
-484.420	-74.322	0.163	0.059
-483.405	39.057	-0.073	0.065
-482.391	62.877	-0.049	0.049
-481.376	-200.000	-0.003	0.070
-480.362	-59.421	-0.201	0.086
-479.347	347.663	0.135	-0.265
-478.332	-60.414	0.391	0.166
-477.318	-200.000	0.027	-0.245
-476.303	255.300	-0.158	-0.271
-475.289	-188.226	-0.192	0.002
-474.274	800.000	-0.039	-0.120
-473.259	-24.138	-0.199	0.119
-472.245	-103.425	-0.073	-0.017
-471.230	239.075	-0.122	-0.202
-470.216	-74.137	-0.092	-0.033
-469.201	-54.736	0.474	-0.213
-468.186	456.110	0.171	-0.377
-467.172	127.734	-0.121	-0.153
-466.157	462.625	-0.016	-0.036
-465.143	-200.000	-0.030	-0.260
-464.128	800.000	-0.087	0.298
-463.113	256.655	0.141	0.241
-462.099	47.442	-0.257	-0.239
-461.084	72.080	-0.078	0.081
-460.070	-88.851	0.035	-0.010
-459.055	105.530	0.248	-0.292
-458.040	246.970	-0.181	-0.305
-457.026	-100.020	-0.350	-0.087
-456.011	79.106	-0.216	0.231
-454.997	-140.020	0.204	-0.021
-453.982	-200.000	-0.004	-0.063
-452.968	227.636	-0.156	0.253
-451.953	-8.649	0.196	-0.131
-450.938	-82.692	-0.308	0.099
-449.924	38.076	0.111	0.098
-448.909	-107.032	-0.321	0.071
-447.895	-122.217	0.013	0.002
-446.880	-52.683	-0.232	0.107
-445.865	-200.000	-0.012	-0.147
-444.851	327.215	-0.197	-0.375
-443.836	516.364	0.142	-0.330
-442.822	8.848	0.139	-0.104
-441.807	-132.365	-0.248	-0.032
-440.792	455.288	-0.040	-0.088
-439.778	65.395	-0.156	0.157
-438.763	327.809	0.082	-0.157
-437.749	-148.594	-0.348	0.028
-436.734	-44.627	0.117	-0.058
-435.719	349.884	-0.050	-0.099
-434.705	242.514	0.080	0.134
-433.690	-61.790	0.042	-0.018
-432.676	-200.000	-0.063	-0.359
-431.661	-120.976	-0.096	-0.016
-430.646	800.000	0.105	0.297
-429.632	-140.273	-0.104	0.011
-428.617	273.369	-0.251	-0.441
-427.603	189.696	0.080	0.120
-426.588	359.504	0.154	0.306
-425.573	-65.308	0.270	0.108
-424.559	-45.791	-0.205	-0.101
-423.544	573.725	0.114	-0.277
-422.530	118.159	0.166	0.204
-421.515	217.100	0.112	0.177
-420.500	-23.655	-0.295	0.176
-419.486	241.400	0.131	0.218
-418.471	477.945	0.120	-0.269
-417.457	-25.548	-0.302	0.178
-416.442	-77.104	0.187	0.065
-415.428	-66.391	0.229	0.090
-414.413	-63.399	0.251	-0.102
-413.398	-60.290	-0.149	0.063
-412.384	-67.168	0.178	-0.070
-411.369	-154.242	-0.058	0.004
-410.355	-90.092	0.190	-0.055
-409.340	-3.225	-0.206	-0.143
-408.325	0.405	-0.225	0.160
-407.311	-123.149	0.080	-0.013
-406.296	-200.000	-0.011	-0.106
-405.282	800.000	-0.089	-0.299
-404.267	800.000	0.036	0.118
-403.252	337.036	-0.110	-0.213
-402.238	-60.165	-0.421	-0.178
-401.223	544.072	-0.087	-0.206
-400.209	-88.276	0.106	-0.031
-399.194	104.944	0.159	0.187
-398.179	18.773	-0.080	-0.064
-397.165	800.000	0.091	0.322
-396.150	12.476	0.092	0.071
-395.136	-42.952	0.334	0.168
-394.121	-200.000	-0.014	0.351
-393.106	-133.397	-0.163	-0.020
-392.092	-10.742	-0.196	0.129
-391.077	-1.959	0.206	-0.144
-390.063	-200.000	0.001	0.040
-389.048	-55.060	-0.289	0.129
-388.033	-164.749	-0.155	-0.007
-387.019	127.568	0.174	0.219
-386.004	-0.367	0.158	0.111
-384.990	156.220	0.236	0.324
-383.975	78.942	0.028	-0.029
-382.960	-200.000	-0.021	-0.287
-381.946	800.000	-0.051	0.145
-380.931	243.306	-0.180	-0.300
-379.917	-45.699	0.287	0.141
-378.902	346.870	-0.089	-0.173
-377.888	-200.000	-0.005	0.158
-376.873	-53.797	-0.188	0.085
-375.858	-16.446	-0.213	-0.134
-374.844	418.246	0.053	0.113
-373.829	160.629	0.122	0.169
-372.815	281.151	-0.110	-0.195
-371.800	-67.729	0.032	-0.013
-370.785	-200.000	-0.014	0.247
-369.771	-200.000	0.017	-0.240
-368.756	-41.393	0.120	0.061
-367.742	177.535	0.113	-0.163
-366.727	52.910	0.121	0.115
-365.712	-41.234	0.180	-0.092
-364.698	-71.561	0.139	-0.051
-363.683	206.363	0.098	-0.151
-362.669	800.000	0.010	0.038
-361.654	-94.613	0.278	0.075
-360.639	-153.496	0.412	-0.028
-359.625	-116.578	0.084	0.015
-358.610	227.459	0.058	-0.094
-357.596	-114.444	0.196	0.037
-356.581	800.000	0.025	0.081
-355.566	-41.137	0.145	-0.074
-354.552	-200.000	0.017	-0.161
-353.537	-98.196	0.212	-0.054
-352.523	800.000	0.050	0.205
-351.508	0.899	0.271	-0.193
-350.493	86.376	-0.134	0.147
-349.479	595.382	0.068	-0.166
-348.464	79.939	0.069	0.073
-347.450	-21.057	-0.020	-0.012
-346.435	-200.000	0.022	0.307
-345.420	7.416	-0.192	0.142
-344.406	226.026	-0.064	-0.103
-343.391	800.000	-0.019	-0.080
-342.377	800.000	0.069	0.270
-341.362	-124.284	0.107	0.017
-340.348	-200.000	-0.074	0.393
-339.333	-200.000	-0.027	0.153
-338.318	-99.175	-0.263	-0.066
-337.304	125.623	-0.082	-0.102
-336.289	101.324	0.158	-0.182
-335.275	800.000	-0.099	0.418
-334.260	756.458	-0.075	0.201
-333.245	-13.401	0.284	0.183
-332.231	185.209	-0.023	-0.034
-331.216	-159.885	0.187	0.010
-330.202	800.000	-0.026	-0.099
-329.187	120.714	-0.134	-0.164
-328.172	-200.000	0.043	-0.258
-327.158	-200.000	-0.040	0.189
-326.143	-101.319	-0.378	0.091
-325.129	-29.320	-0.259	0.147
-324.114	-42.905	0.069	0.034
-323.099	-200.000	0.034	0.266
-322.085	-11.201	0.185	0.121
-321.070	72.267	-0.188	0.194
-320.056	-200.000	-0.051	0.310
-319.041	-200.000	0.013	0.235
-318.026	-90.801	-0.146	-0.042
-317.012	295.903	0.118	0.215
-315.997	-157.637	-0.061	0.004
-314.983	-200.000	-0.064	0.316
-313.968	-118.996	0.213	-0.037
-312.953	148.670	-0.165	0.221
-311.939	46.847	0.194	0.179
-310.924	87.812	0.152	0.167
-309.910	-96.224	0.045	0.012
-308.895	167.328	-0.068	-0.096
-307.880	800.000	-0.081	-0.342
-306.866	-176.433	0.044	-0.001
-305.851	-86.133	0.017	-0.005
-304.837	-98.043	0.302	-0.077
-303.822	130.443	-0.143	0.181
-302.807	800.000	0.063	0.173
-301.793	-150.753	-0.266	-0.020
-300.778	-124.248	-0.357	0.055
-299.764	-143.999	0.190	0.018
-298.749	-114.567	-0.197	0.037
-297.735	-33.392	0.327	-0.179
-296.720	-200.000	-0.050	-0.246
-295.705	-200.000	0.007	0.120
-294.691	-200.000	0.091	0.461
-293.676	-164.701	0.034	0.002
-292.662	-177.613	0.084	-0.002
-291.647	528.405	0.064	-0.149
-290.632	-29.991	-0.094	-0.053
-289.618	176.705	-0.046	-0.066
-288.603	169.699	-0.085	0.121
-287.589	-200.000	0.011	-0.254
-286.574	209.766	-0.172	-0.267
-285.559	-78.959	0.214	-0.072
-284.545	-200.000	0.008	-0.177
-283.530	479.993	0.195	-0.436
-282.516	66.414	-0.279	-0.280
-281.501	182.449	0.048	-0.070
-280.486	-87.191	0.178	-0.053
-279.472	279.392	0.076	-0.134
-278.457	-66.953	0.230	-0.090
-277.443	800.000	-0.082	0.355
-276.428	-64.438	0.124	0.050
-275.413	800.000	0.091	0.281
-274.399	115.541	-0.209	-0.253
-273.384	800.000	-0.008	0.025
-272.370	-194.232	0.269	-0.002
-271.355	-7.774	-0.234	-0.156
-270.340	800.000	-0.056	-0.204
-269.326	-82.481	0.170	-0.055
-268.311	-162.377	0.358	0.018
-267.297	-18.786	-0.118	0.072
-266.282	451.932	0.018	0.040
-265.267	-40.784	-0.122	0.063
-264.253	300.946	0.135	0.246
-263.238	31.036	0.352	-0.298
-262.224	409.534	-0.085	-0.178
-261.209	800.000	0.052	0.148
-260.195	-200.000	-0.016	0.190
-259.180	-200.000	-0.005	-0.292
-258.165	-200.000	-0.008	0.437
-257.151	114.846	0.140	0.169
-256.136	-84.732	-0.328	0.102
-255.122	-62.509	-0.338	-0.139
-254.107	265.376	-0.113	0.194
-253.092	148.146	0.181	0.241
-252.078	291.645	-0.113	-0.203
-251.063	-97.480	0.134	0.034
-250.049	-32.035	-0.267	-0.148
-249.034	-200.000	0.013	-0.184
-248.019	-158.179	0.289	-0.017
-247.005	-118.582	0.434	0.076
-245.990	109.685	0.160	0.190
-244.976	384.706	-0.089	0.180
-243.961	-33.924	0.381	-0.207
-242.946	48.476	-0.161	-0.149
-241.932	-26.119	0.062	0.036
-240.917	-200.000	-0.007	-0.055
-239.903	-200.000	-0.073	-0.433
-238.888	39.868	0.260	-0.230
-237.873	-150.198	-0.240	-0.018
-236.859	134.986	-0.059	0.076
-235.844	34.799	-0.244	-0.211
-234.830	-200.000	-0.000	0.011
-233.815	-66.826	-0.295	0.115
-232.800	248.803	-0.137	-0.228
-231.786	-16.350	0.209	-0.131
-230.771	800.000	0.065	0.280
-229.757	-13.941	-0.162	-0.103
-228.742	346.427	0.132	0.257
-227.727	-200.000	0.053	-0.353
-226.713	94.247	-0.214	0.239
-225.698	709.315	-0.055	-0.144
-224.684	407.024	-0.133	0.278
-223.669	29.485	-0.047	0.039
-222.655	800.000	0.103	0.294
-221.640	21.319	0.234	-0.188
-220.625	-89.376	-0.216	-0.063
-219.611	223.924	0.127	-0.202
-218.596	-200.000	-0.057	0.256
-217.582	71.311	0.110	0.113
-216.567	-159.975	-0.196	0.011
-215.552	-108.547	0.128	-0.027
-214.538	322.093	-0.098	-0.184
-213.523	-200.000	-0.027	0.127
-212.509	800.000	-0.048	-0.184
-211.494	62.469	-0.255	-0.252
-210.479	-23.266	-0.195	0.116
-209.465	138.738	0.133	-0.173
-208.450	13.258	0.074	-0.057
-207.436	594.146	-0.047	0.114
-206.421	-37.084	-0.224	0.118
-205.406	800.000	-0.053	-0.220
-204.392	-15.992	0.203	-0.127
-203.377	88.397	-0.043	-0.047
-202.363	-200.000	-0.018	0.319
-201.348	350.954	-0.041	-0.080
-200.333	-33.468	0.156	-0.085
-199.319	-200.000	0.052	0.236
-198.304	-120.641	-0.133	-0.022
-197.290	800.000	0.052	0.145
-196.275	-5.195	0.409	0.277
-195.260	-157.333	-0.043	0.003
-194.246	800.000	-0.067	0.239
-193.231	-200.000	0.017	0.497
-192.217	-55.630	0.376	0.166
-191.202	70.858	-0.096	0.098
-190.187	264.703	-0.065	-0.112
-189.173	109.925	-0.170	0.200
-188.158	-76.362	0.205	0.071
-187.144	-12.995	-0.037	-0.024
-186.129	-39.557	-0.053	0.027
-185.114	-67.821	0.123	-0.047
-184.100	-107.067	0.023	-0.005
-183.085	-162.367	0.168	-0.008
-182.071	9.081	0.238	-0.177
-181.056	-2.967	-0.205	-0.141
-180.042	-200.000	0.047	-0.373
-179.027	-200.000	-0.014	-0.436
-178.012	-200.000	0.001	0.015
-176.998	-45.799	0.426	0.207
-175.983	-200.000	0.015	-0.157
-174.969	-51.317	-0.252	-0.116
-173.954	80.767	-0.095	-0.101
-172.939	-36.493	-0.056	0.030
-171.925	-98.054	0.153	-0.039
-170.910	32.807	0.289	0.246
-169.896	-123.839	-0.254	0.040
-168.881	-200.000	-0.001	-0.088
-167.866	35.514	0.128	-0.111
-166.852	289.139	0.113	0.202
-165.837	-76.369	-0.397	0.138
-164.823	18.630	-0.155	-0.122
-163.808	-18.079	0.135	0.083
-162.793	-200.000	-0.022	0.176
-161.779	-18.276	0.178	0.109
-160.764	76.838	-0.084	0.087
-159.750	-200.000	0.015	0.220
-158.735	-96.357	0.066	-0.017
-157.720	236.314	-0.050	0.081
-156.706	764.170	-0.023	-0.060
-155.691	10.097	0.208	-0.155
-154.677	-81.042	0.384	-0.125
-153.662	-178.132	-0.142	0.003
-152.647	-200.000	0.006	-0.238
-151.633	22.103	0.220	0.176
-150.618	-1.059	-0.287	-0.199
-149.604	-77.483	-0.222	-0.076
-148.589	734.248	0.109	-0.288
-147.574	-35.665	-0.216	0.115
-146.560	-200.000	0.032	0.169
-145.545	75.772	0.172	-0.178
-144.531	-200.000	0.031	0.142
-143.516	244.698	-0.068	-0.113
-142.502	1.610	-0.143	-0.101
-141.487	-149.517	0.111	0.009
-140.472	133.817	0.133	0.170
-139.458	-38.420	-0.129	0.067
-138.443	-200.000	0.036	-0.228
-137.429	-71.293	0.226	-0.083
-136.414	-77.621	0.084	0.029
-135.399	800.000	-0.143	-0.399
-134.385	101.527	0.258	0.295
-133.370	-120.668	0.053	-0.009
-132.356	-146.990	0.237	-0.020
-131.341	-104.728	-0.278	-0.063
-130.326	234.731	-0.154	-0.250
-129.312	-44.454	-0.219	-0.107
-128.297	-74.571	-0.292	0.103
-127.283	800.000	0.032	-0.109
-126.268	-80.175	-0.158	-0.052
-125.253	800.000	-0.062	-0.208
-124.239	10.217	0.362	-0.271
-123.224	-103.271	-0.223	0.052
-122.210	-173.122	0.110	0.003
-121.195	-10.587	0.020	-0.013
-120.180	-200.000	-0.010	-0.324
-119.166	800.000	0.037	0.144
-118.151	-200.000	-0.003	0.110
-117.137	-200.000	-0.061	0.299
-116.122	638.658	-0.066	-0.166
-115.107	-64.009	0.102	-0.041
-114.093	-71.374	-0.456	0.168
-113.078	29.357	0.202	0.168
-112.064	800.000	-0.063	-0.187
-111.049	-57.816	-0.326	0.140
-110.034	140.680	0.089	0.115
-109.020	-200.000	0.015	-0.185
-108.005	-81.749	0.097	-0.031
-106.991	311.315	0.108	-0.198
-105.976	-200.000	0.006	0.116
-104.962	221.877	-0.111	0.176
-103.947	-200.000	0.002	0.078
-102.932	-82.963	0.374	-0.118
-101.918	-200.000	-0.011	-0.138
-100.903	-200.000	0.048	0.211
-99.889	260.479	0.219	0.372
-98.874	124.115	-0.120	0.148
-97.859	254.533	0.099	-0.166
-96.845	-82.536	-0.151	0.048
-95.830	-200.000	-0.025	-0.162
-94.816	-98.827	0.251	-0.063
-93.801	-5.965	0.229	0.154
-92.786	89.570	-0.212	0.232
-91.772	800.000	-0.059	0.172
-90.757	-200.000	-0.039	0.189
-89.743	-200.000	0.002	0.549
-88.728	-166.738	0.202	0.008
-87.713	323.545	-0.202	-0.377
-86.699	248.004	-0.186	0.309
-85.684	264.032	-0.162	-0.277
-84.670	-34.318	0.013	-0.007
-83.655	0.340	-0.053	-0.037
-82.640	-124.617	0.212	-0.032
-81.626	-117.735	-0.428	-0.076
-80.611	-69.416	-0.378	-0.142
-79.597	-121.336	0.118	0.019
-78.582	-54.811	0.276	-0.122
-77.567	444.842	0.024	-0.052
-76.553	250.506	-0.148	-0.247
-75.538	800.000	-0.185	0.597
-74.524	-139.169	-0.360	0.038
-73.509	60.017	0.123	0.119
-72.494	800.000	0.031	0.117
-71.480	-47.496	0.315	0.150
-70.465	599.804	-0.022	0.052
-69.451	-100.360	-0.173	0.042
-68.436	800.000	0.039	0.162
-67.422	72.090	0.103	0.106
-66.407	206.252	-0.164	-0.250
-65.392	194.358	-0.048	0.071
-64.378	127.400	-0.053	0.066
-63.363	679.325	-0.029	-0.075
-62.349	15.769	-0.180	0.138
-61.334	-19.201	-0.901	-0.549
-60.319	800.000	0.170	0.473
-59.305	800.000	-0.324	-1.095
-58.290	390.649	0.555	1.130
-57.276	433.049	0.590	1.255
-56.261	-200.000	98.219	603.360
-55.246	616.072	1405.826	3455.810
-54.232	190.741	2606.266	3840.717
-53.217	111.527	2277.700	2692.833
-52.203	41.650	1896.488	1683.802
-51.188	35.347	1685.966	1449.393
-50.173	32.736	1641.321	1391.717
-49.159	49.890	1689.771	1561.634
-48.144	51.510	1705.854	1588.564
-47.130	34.908	1665.770	1428.520
-46.115	32.155	1651.373	1395.700
-45.100	32.072	1646.144	1390.613
-44.086	31.968	1643.755	1387.765
-43.071	31.991	1640.927	1385.493
-42.057	31.955	1639.140	1383.667
-41.042	32.001	1636.850	1382.018
-40.027	31.968	1634.804	1379.988
-39.013	31.932	1633.074	1378.210
-37.998	31.880	1631.433	1376.388
-36.984	31.944	1630.438	1375.967
-35.969	32.094	1628.741	1375.580
-34.954	32.075	1626.748	1373.704
-33.940	32.155	1624.709	1372.508
-32.925	32.092	1623.308	1370.811
-31.911	32.105	1621.396	1369.236
-30.896	32.140	1619.387	1367.742
-29.881	31.999	1618.181	1365.643
-28.867	32.064	1615.981	1364.204
-27.852	32.015	1614.903	1362.887
-26.838	32.096	1613.749	1362.444
-25.823	32.090	1611.945	1360.824
-24.809	32.150	1610.729	1360.175
-23.794	32.176	1609.144	1358.971
-22.779	32.214	1607.832	1358.089
-21.765	32.150	1606.137	1356.135
-20.750	32.151	1604.152	1354.413
-19.736	32.155	1602.661	1353.131
-18.721	32.156	1601.505	1352.106
-17.706	32.230	1600.036	1351.345
-16.692	32.105	1598.670	1349.240
-15.677	32.170	1597.351	1348.541
-14.663	32.166	1595.832	1347.177
-13.648	32.141	1594.907	1346.166
-12.633	32.206	1593.279	1345.201
-11.619	32.187	1591.721	1343.694
-10.604	32.123	1590.161	1341.866
-9.590	32.161	1589.237	1341.306
-8.575	32.156	1588.282	1340.412
-7.560	32.163	1586.548	1338.946
-6.546	32.121	1585.585	1337.780
-5.531	32.215	1584.038	1337.090
-4.517	32.210	1583.167	1336.266
-3.502	32.088	1582.273	1334.595
-2.487	32.221	1580.365	1333.873
-1.473	31.859	1568.330	1321.117
-0.458	28.845	1548.824	1283.620
0.556	22.842	1548.602	1250.239
1.571	20.386	1572.276	1251.564
2.586	20.016	1586.210	1259.851
3.600	18.194	1534.223	1205.626
4.615	9.832	1424.692	1064.505
5.629	1.523	1358.755	962.703
6.644	-0.212	1350.202	945.639
7.659	-0.264	1348.893	944.307
8.673	-0.375	1348.097	942.972
9.688	-0.389	1345.456	940.952
10.702	-0.559	1342.212	937.537
11.717	2.707	1349.502	963.078
12.731	11.938	1366.689	1033.751
13.746	18.627	1377.504	1084.251
14.761	19.637	1378.220	1091.098
15.775	19.688	1377.878	1091.053
16.790	19.740	1377.548	1091.025
17.804	19.936	1376.877	1091.635
18.819	20.006	1376.758	1091.883
19.834	20.093	1376.062	1091.781
20.848	20.100	1375.041	1090.918
21.863	20.174	1374.061	1090.513
22.877	20.193	1373.013	1089.705
23.892	20.118	1372.814	1088.975
24.907	20.125	1371.686	1088.032
25.921	19.970	1371.300	1086.655
26.936	20.151	1369.298	1086.109
27.950	20.178	1368.416	1085.480
28.965	20.188	1367.539	1084.753
29.980	20.065	1366.548	1083.098
30.994	20.078	1365.452	1082.220
32.009	20.135	1363.905	1081.250
33.023	20.129	1362.522	1080.018
34.038	20.187	1361.461	1079.442
35.053	20.185	1360.270	1078.392
36.067	20.187	1359.462	1077.673
37.082	20.110	1358.590	1076.404
38.096	20.122	1358.062	1075.963
39.111	20.020	1357.487	1074.780
40.126	20.093	1356.021	1073.976
41.140	20.127	1355.932	1074.023
42.155	20.132	1355.244	1073.412
43.169	20.123	1355.440	1073.418
44.184	20.130	1354.957	1072.985
45.199	20.091	1354.636	1072.393
46.213	20.132	1354.345	1072.324
47.228	20.065	1353.381	1071.051
48.242	20.059	1352.093	1069.899
49.257	20.136	1350.185	1068.770
50.271	20.183	1348.880	1067.929
51.286	20.242	1347.364	1067.001
52.301	20.057	1346.781	1065.305
53.315	20.117	1345.562	1064.617
54.330	20.101	1344.856	1063.868
55.344	20.094	1343.945	1063.006
56.359	20.178	1342.211	1062.059
57.374	20.230	1341.518	1061.732
58.388	20.107	1341.243	1060.669
59.403	20.143	1340.852	1060.484
60.417	20.120	1340.365	1059.868
61.432	20.181	1338.732	1058.855
62.447	20.115	1338.362	1058.063
63.461	20.132	1337.611	1057.483
64.476	20.170	1336.052	1056.387
65.490	20.058	1335.373	1055.071
66.505	20.132	1333.495	1053.948
67.520	20.167	1331.802	1052.729
68.534	20.215	1330.937	1052.242
69.549	20.201	1329.954	1051.288
70.563	20.178	1328.950	1050.262
71.578	20.129	1328.118	1049.213
72.593	20.161	1327.241	1048.622
73.607	20.314	1326.232	1048.658
74.622	20.195	1326.015	1047.674
75.636	20.182	1324.795	1046.536
76.651	20.253	1324.108	1046.331
77.666	20.197	1324.082	1045.882
78.680	20.125	1323.471	1044.869
79.695	20.227	1322.174	1044.369
80.709	20.116	1321.533	1043.104
81.724	20.153	1320.588	1042.487
82.739	20.225	1319.535	1041.994
83.753	20.181	1318.566	1040.875
84.768	20.103	1317.595	1039.545
85.782	20.228	1316.576	1039.399
86.797	20.158	1315.414	1037.970
87.812	20.099	1314.354	1036.688
88.826	20.156	1313.332	1036.135
89.841	20.141	1312.238	1035.089
90.855	20.201	1310.889	1034.292
91.870	20.180	1309.875	1033.274
92.884	20.207	1309.601	1033.131
93.899	20.180	1308.534	1032.036
94.914	20.241	1308.206	1032.047
95.928	20.251	1307.212	1031.229
96.943	20.263	1305.924	1030.194
97.957	20.305	1305.581	1030.080
98.972	20.262	1304.615	1028.974
99.987	20.197	1303.103	1027.306
101.001	20.192	1302.330	1026.578
102.016	20.220	1301.591	1026.066
103.030	20.157	1300.555	1024.790
104.045	20.301	1300.058	1025.159
105.060	20.224	1298.590	1023.453
106.074	20.240	1298.061	1023.042
107.089	20.299	1296.365	1021.962
108.103	20.358	1295.221	1021.317
109.118	20.334	1293.870	1020.018
110.133	20.297	1292.791	1018.864
111.147	20.361	1291.248	1017.932
112.162	20.390	1289.943	1016.982
113.176	20.298	1289.065	1015.663
114.191	20.381	1288.080	1015.283
115.206	20.265	1286.993	1013.656
116.220	20.273	1285.823	1012.692
117.235	20.316	1285.161	1012.329
118.249	20.271	1284.338	1011.334
119.264	20.324	1282.754	1010.301
120.279	20.343	1282.232	1009.914
121.293	20.393	1281.337	1009.410
122.308	20.357	1280.342	1008.328
123.322	20.243	1279.806	1007.155
124.337	20.389	1278.482	1006.869
125.352	20.445	1277.351	1006.213
126.366	20.408	1275.912	1004.778
127.381	20.362	1275.896	1004.411
128.395	20.452	1274.373	1003.641
129.410	20.380	1273.875	1002.748
130.424	20.360	1273.072	1001.907
131.439	20.220	1272.446	1000.518
132.454	20.277	1271.598	1000.095
133.468	20.424	1270.578	1000.046
134.483	20.339	1270.165	999.146
135.497	20.384	1268.739	998.197
136.512	20.271	1267.915	996.811
137.527	20.244	1266.805	995.693
138.541	20.247	1265.674	994.733
139.556	20.413	1263.772	994.099
140.570	20.350	1263.042	993.077
141.585	20.374	1261.723	992.090
142.600	20.301	1260.885	990.927
143.614	20.345	1260.015	990.406
144.629	20.396	1258.206	989.190
145.643	20.194	1257.659	987.522
146.658	20.257	1256.572	986.936
147.673	20.339	1255.491	986.466
148.687	20.212	1254.831	985.143
149.702	20.284	1253.352	984.302
150.716	20.413	1252.286	984.106
151.731	20.355	1251.858	983.353
152.746	20.427	1250.211	982.382
153.760	20.347	1249.347	981.165
154.775	20.391	1248.373	980.558
155.789	20.335	1247.635	979.579
156.804	20.392	1246.189	978.676
157.819	20.382	1245.745	978.186
158.833	20.326	1245.231	977.380
159.848	20.422	1243.969	976.841
160.862	20.449	1243.262	976.351
161.877	20.413	1242.070	975.132
162.892	20.403	1241.315	974.391
163.906	20.411	1240.960	974.075
164.921	20.381	1239.965	973.036
165.935	20.542	1239.007	973.102
166.950	20.385	1238.741	971.927
167.964	20.438	1238.232	971.737
168.979	20.440	1237.534	971.116
169.994	20.479	1236.929	970.772
171.008	20.506	1236.231	970.290
172.023	20.510	1235.314	969.509
173.037	20.447	1234.865	968.717
174.052	20.489	1233.980	968.172
175.067	20.382	1233.254	966.920
176.081	20.566	1231.881	966.781
177.096	20.414	1231.524	965.572
178.110	20.517	1230.817	965.506
179.125	20.462	1229.457	964.049
180.140	20.537	1228.378	963.533
181.154	20.483	1227.574	962.519
182.169	20.439	1226.473	961.323
183.183	20.547	1225.343	960.949
184.198	20.509	1224.245	959.795
185.213	20.617	1223.449	959.680
186.227	20.515	1222.413	958.221
187.242	20.522	1221.752	957.657
188.256	20.524	1221.025	957.013
189.271	20.560	1220.123	956.423
190.286	20.628	1218.951	955.790
191.300	20.603	1218.769	955.428
192.315	20.618	1217.750	954.624
193.329	20.534	1217.721	954.055
194.344	20.606	1217.661	954.319
195.359	20.592	1216.947	953.599
196.373	20.645	1215.797	952.904
197.388	20.428	1215.664	951.528
198.402	20.453	1215.665	951.579
199.417	20.525	1215.022	951.389
200.432	20.586	1214.140	950.946
201.446	20.677	1213.500	950.858
202.461	20.575	1212.941	949.778
203.475	20.587	1211.826	948.886
204.490	20.483	1211.147	947.702
205.504	20.594	1209.900	947.247
206.519	20.598	1209.387	946.785
207.534	20.582	1208.033	945.554
208.548	20.696	1207.081	945.345
209.563	20.634	1206.339	944.343
210.577	20.745	1205.127	943.916
211.592	20.664	1204.839	943.167
212.607	20.721	1204.093	942.810
213.621	20.622	1203.358	941.612
214.636	20.664	1202.979	941.457
215.650	20.653	1202.013	940.560
216.665	20.706	1199.981	939.173
217.680	20.659	1200.101	938.928
218.694	20.793	1199.219	938.881
219.709	20.733	1198.394	937.829
220.723	20.785	1197.755	937.523
221.738	20.634	1197.031	936.061
222.753	20.675	1196.212	935.561
223.767	20.667	1195.479	934.862
224.782	20.732	1195.005	934.754
225.796	20.900	1194.194	934.941
226.811	20.647	1194.238	933.535
227.826	20.776	1193.067	933.227
228.840	20.769	1193.013	933.063
229.855	20.830	1192.078	932.579
230.869	20.719	1191.477	931.431
231.884	20.702	1191.044	930.919
232.899	20.791	1189.724	930.284
233.913	20.787	1189.728	930.182
234.928	20.771	1189.382	929.743
235.942	20.762	1188.763	929.128
236.957	20.932	1187.332	928.834
237.972	20.788	1187.178	927.862
238.986	20.761	1186.204	926.879
240.001	20.872	1185.805	927.076
241.015	21.029	1184.301	926.652
242.030	20.883	1184.393	925.865
243.045	20.921	1183.321	925.146
244.059	21.040	1182.424	924.994
245.074	20.985	1181.582	923.964
246.088	21.034	1181.157	923.806
247.103	20.912	1180.117	922.264
248.117	20.904	1179.031	921.295
249.132	20.902	1178.646	920.900
250.147	21.008	1178.256	921.077
251.161	20.958	1176.896	919.665
252.176	20.971	1176.988	919.726
253.190	21.031	1175.837	919.059
254.205	20.992	1175.613	918.598
255.220	21.035	1174.941	918.220
256.234	20.931	1174.749	917.438
257.249	21.033	1173.957	917.280
258.263	21.106	1172.927	916.775
259.278	21.052	1172.501	916.077
260.293	20.994	1171.800	915.143
261.307	21.071	1171.596	915.306
262.322	21.136	1170.799	914.945
263.336	21.085	1169.885	913.885
264.351	20.974	1170.067	913.365
265.366	21.021	1169.054	912.737
266.380	21.016	1168.923	912.527
267.395	21.072	1168.036	912.045
268.409	21.051	1167.152	911.168
269.424	20.997	1166.649	910.410
270.439	21.149	1166.416	910.942
271.453	21.144	1165.604	910.199
272.468	21.032	1164.854	908.950
273.482	21.043	1163.877	908.168
274.497	21.208	1163.083	908.326
275.512	21.136	1162.770	907.625
276.526	21.133	1161.826	906.795
277.541	21.088	1161.425	906.166
278.555	21.292	1160.809	906.664
279.570	21.262	1159.687	905.552
280.585	21.106	1159.239	904.313
281.599	21.221	1158.262	904.068
282.614	21.243	1157.415	903.438
283.628	21.270	1156.818	903.033
284.643	21.278	1155.923	902.295
285.657	21.296	1155.182	901.731
286.672	21.128	1154.303	900.100
287.687	21.344	1153.478	900.487
288.701	21.302	1152.661	899.555
289.716	21.395	1151.900	899.357
290.730	21.307	1151.304	898.362
291.745	21.393	1150.522	898.114
292.760	21.378	1150.164	897.678
293.774	21.320	1149.992	897.168
294.789	21.361	1148.929	896.468
295.803	21.436	1148.538	896.468
296.818	21.388	1147.506	895.339
297.833	21.380	1147.033	894.849
298.847	21.400	1146.275	894.282
299.862	21.454	1145.349	893.756
300.876	21.504	1144.604	893.350
301.891	21.539	1144.226	893.154
302.906	21.393	1143.693	891.915
303.920	21.591	1143.018	892.317
304.935	21.492	1142.765	891.536
305.949	21.490	1141.863	890.745
306.964	21.528	1140.979	890.170
307.979	21.443	1140.527	889.306
308.993	21.458	1140.329	889.148
310.008	21.599	1138.965	888.723
311.022	21.567	1138.447	888.077
312.037	21.552	1137.807	887.423
313.052	21.484	1137.187	886.515
314.066	21.480	1136.040	885.522
315.081	21.491	1135.788	885.305
316.095	21.601	1134.553	884.818
317.110	21.443	1134.381	883.810
318.125	21.611	1133.593	883.966
319.139	21.554	1132.774	882.960
320.154	21.549	1132.620	882.737
321.168	21.611	1131.894	882.406
322.183	21.540	1131.466	881.638
323.197	21.474	1130.678	880.612
324.212	21.597	1129.826	880.488
325.227	21.634	1129.430	880.290
326.241	21.678	1129.235	880.281
327.256	21.644	1128.454	879.422
328.270	21.703	1127.113	878.594
329.285	21.684	1126.308	877.795
330.300	21.647	1125.709	877.065
331.314	21.699	1124.854	876.584
332.329	21.685	1124.126	875.865
333.343	21.745	1123.460	875.572
334.358	21.667	1122.730	874.534
335.373	21.744	1121.650	873.999
336.387	21.743	1120.844	873.289
337.402	21.785	1120.351	873.037
338.416	21.954	1119.517	873.151
339.431	21.838	1119.588	872.550
340.446	21.855	1118.606	871.794
341.460	21.795	1118.290	871.172
342.475	21.826	1117.092	870.315
343.489	21.828	1116.152	869.516
344.504	21.816	1115.261	868.685
345.519	21.791	1114.774	868.104
346.533	21.942	1113.771	867.997
347.548	21.894	1113.308	867.322
348.562	21.775	1112.526	866.045
349.577	21.889	1111.775	865.949
350.592	21.789	1110.913	864.708
351.606	21.819	1110.327	864.323
352.621	21.901	1110.045	864.429
353.635	21.922	1109.684	864.177
354.650	22.013	1108.939	863.966
355.665	21.887	1107.961	862.509
356.679	22.007	1106.923	862.213
357.694	21.878	1107.146	861.677
358.708	21.964	1106.298	861.364
359.723	21.967	1105.282	860.510
360.738	21.917	1104.817	859.829
361.752	21.962	1104.457	859.692
362.767	21.901	1104.106	859.046
363.781	21.965	1103.369	858.705
364.796	22.088	1102.398	858.479
365.810	22.041	1102.015	857.872
366.825	22.137	1101.473	857.845
367.840	22.100	1100.841	857.095
368.854	22.179	1100.360	857.031
369.869	22.090	1099.863	856.133
370.883	22.284	1098.485	855.928
371.898	22.110	1098.004	854.633
372.913	22.158	1097.653	854.516
373.927	22.208	1096.915	854.109
374.942	22.189	1096.714	853.785
375.956	22.221	1096.164	853.437
376.971	22.190	1095.291	852.532
377.986	22.058	1095.048	851.625
379.000	22.164	1094.541	851.668
380.015	22.141	1094.163	851.192
381.029	22.327	1093.177	851.249
382.044	22.293	1092.275	850.307
383.059	22.276	1091.706	849.708
384.073	22.310	1091.346	849.512
385.088	22.226	1090.326	848.240
386.102	22.327	1089.204	847.781
387.117	22.306	1088.696	847.208
388.132	22.116	1088.128	845.775
389.146	22.338	1087.035	845.917
390.161	22.340	1086.432	845.386
391.175	22.211	1086.040	844.383
392.190	22.284	1085.145	843.966
393.205	22.264	1084.777	843.506
394.219	22.346	1083.543	842.865
395.234	22.503	1082.586	842.796
396.248	22.353	1082.098	841.626
397.263	22.399	1080.652	840.647
398.278	22.445	1080.663	840.801
399.292	22.521	1079.926	840.518
400.307	22.491	1079.239	839.765
401.321	22.558	1078.513	839.443
402.336	22.329	1078.043	837.913
403.350	22.537	1077.040	838.047
404.365	22.626	1076.579	838.040
405.380	22.497	1075.847	836.782
406.394	22.466	1075.361	836.182
407.409	22.514	1074.497	835.666
408.423	22.648	1073.693	835.599
409.438	22.598	1073.044	834.786
410.453	22.537	1072.806	834.235
411.467	22.494	1072.387	833.634
412.482	22.574	1071.300	833.094
413.496	22.656	1070.321	832.645
414.511	22.690	1069.561	832.140
415.526	22.609	1069.466	831.613
416.540	22.586	1068.999	831.068
417.555	22.739	1068.628	831.425
418.569	22.688	1068.090	830.693
419.584	22.759	1067.481	830.480
420.599	22.799	1066.934	830.167
421.613	148.771	1397.451	1793.657
422.628	137.010	1445.596	1793.763
