DTS Sentinel unit serial number:	SN413079Multiplexer serial number:	ORYXHardware model number:	OX4-SRSoftware version number:	ORYX F/W v4.00 Oryx Data Collector v3.7.2.0data status	okinstallation	princeton_trtdifferential loss correction	single-endedforward channel	channel 2reverse channel	N/Adate	2019/09/11time	19:45:10forward acquisition time	60.00reverse acquisition time	0.00gamma	496.2192k internal	0.2308k external	0.2308temperature offset calibration	1.0047default loss term (dB/km)	0.3790temperature slope calibration	1.0000multiplexer offset coefficient	1.0000multiplexer slope coefficient	1.0000fibre end	0.00T internal ref (°C)	39.56T ext. ref 1 (°C)	1.35T ext. ref 2 (°C)	32.44length (m)	temperature (°C)	Stokes	anti-Stokes-747.200	106.382	-0.059	-0.071
-746.185	87.368	-0.278	0.312
-745.171	-200.000	0.004	-0.034
-744.156	-200.000	-0.016	0.282
-743.142	-108.580	-0.101	-0.022
-742.127	392.579	-0.109	0.231
-741.112	-137.437	0.228	0.026
-740.098	-200.000	0.591	0.000
-739.083	-71.969	-0.115	0.044
-738.069	80.534	-0.087	0.095
-737.054	199.473	0.272	0.424
-736.039	-200.000	0.013	0.082
-735.025	-154.338	0.190	-0.013
-734.010	-200.000	0.000	-0.073
-732.996	-100.714	-0.513	0.129
-731.981	-118.342	-0.070	0.013
-730.966	184.047	-0.060	0.091
-729.952	-155.199	-0.089	0.006
-728.937	800.000	-0.107	-0.336
-727.923	-80.222	-0.240	0.082
-726.908	-58.792	0.089	0.039
-725.894	-200.000	-0.031	0.313
-724.879	-200.000	0.006	0.075
-723.864	-125.120	-0.037	-0.006
-722.850	-167.618	-0.432	0.017
-721.835	-200.000	0.005	0.025
-720.821	73.229	0.098	-0.104
-719.806	-11.708	-0.263	-0.175
-718.791	-117.255	-0.358	-0.066
-717.777	-200.000	-0.024	0.197
-716.762	-96.852	-0.218	0.058
-715.748	-155.688	0.255	-0.017
-714.733	-100.442	-0.182	-0.046
-713.718	14.160	0.061	0.048
-712.704	18.263	0.259	-0.210
-711.689	-200.000	0.055	-0.280
-710.675	530.967	0.081	-0.194
-709.660	342.631	0.074	-0.148
-708.645	445.345	0.032	-0.071
-707.631	-61.505	-0.073	0.031
-706.616	800.000	0.060	0.217
-705.602	800.000	0.047	-0.132
-704.587	247.745	-0.205	0.351
-703.572	-84.609	-0.175	-0.056
-702.558	19.398	-0.108	0.088
-701.543	-200.000	-0.020	-0.215
-700.529	800.000	-0.015	-0.048
-699.514	4.666	-0.346	0.258
-698.499	107.853	0.137	0.166
-697.485	111.211	-0.207	0.253
-696.470	261.943	-0.115	-0.202
-695.456	-117.054	-0.243	-0.045
-694.441	429.588	-0.088	0.193
-693.426	-162.532	0.340	0.017
-692.412	800.000	-0.058	-0.225
-691.397	417.737	-0.047	0.101
-690.383	-23.041	0.293	-0.179
-689.368	23.075	-0.192	-0.160
-688.354	800.000	-0.101	-0.399
-687.339	93.448	-0.177	-0.203
-686.324	202.195	-0.177	0.277
-685.310	403.717	-0.102	0.218
-684.295	-52.070	0.156	-0.074
-683.281	-42.628	0.250	0.129
-682.266	209.102	-0.067	-0.107
-681.251	-163.139	-0.176	0.009
-680.237	800.000	-0.070	0.308
-679.222	800.000	0.163	0.476
-678.208	-112.731	0.301	-0.061
-677.193	-141.475	0.304	-0.031
-676.178	58.454	0.186	0.185
-675.164	-99.054	0.440	0.113
-674.149	-154.196	-0.302	-0.021
-673.135	-200.000	0.043	-0.487
-672.120	-200.000	-0.013	-0.116
-671.105	-110.206	-0.044	-0.009
-670.091	-162.247	0.066	-0.003
-669.076	-33.456	-0.053	-0.030
-668.062	-200.000	-0.034	0.161
-667.047	419.231	0.101	0.220
-666.032	800.000	-0.015	0.065
-665.018	219.082	0.156	0.253
-664.003	676.857	0.066	-0.175
-662.989	-111.775	0.169	-0.035
-661.974	-36.151	-0.268	-0.147
-660.959	-85.473	-0.287	-0.091
-659.945	-89.103	0.061	0.018
-658.930	-27.661	0.053	0.031
-657.916	-86.123	0.450	0.141
-656.901	-92.112	0.270	-0.077
-655.886	-154.791	0.134	-0.009
-654.872	-200.000	0.040	0.233
-653.857	-25.235	-0.272	-0.163
-652.843	-40.151	0.185	-0.098
-651.828	429.685	0.028	0.061
-650.814	-57.790	0.258	0.114
-649.799	-109.785	-0.030	0.006
-648.784	-200.000	0.048	0.312
-647.770	-123.136	0.523	0.085
-646.755	-100.124	0.140	-0.035
-645.741	62.661	0.062	-0.063
-644.726	218.937	-0.040	-0.065
-643.711	-143.857	0.192	0.018
-642.697	-45.951	0.281	-0.140
-641.682	-2.028	0.164	0.116
-640.668	-158.271	0.156	-0.009
-639.653	-162.378	-0.170	0.009
-638.638	50.256	0.089	-0.085
-637.624	-27.712	-0.187	-0.110
-636.609	-39.361	0.061	0.032
-635.595	800.000	0.072	-0.206
-634.580	195.284	-0.075	-0.116
-633.565	-58.358	0.091	-0.040
-632.551	-63.830	0.446	-0.185
-631.536	-200.000	-0.139	-0.001
-630.522	-38.944	0.128	-0.068
-629.507	800.000	-0.037	-0.146
-628.492	228.559	0.105	-0.172
-627.478	-200.000	-0.019	-0.203
-626.463	800.000	0.099	0.353
-625.449	172.581	-0.158	-0.230
-624.434	50.568	-0.044	0.042
-623.419	-200.000	0.008	-0.150
-622.405	242.976	-0.014	-0.023
-621.390	-178.350	0.248	-0.006
-620.376	-66.991	-0.190	0.076
-619.361	51.528	-0.184	0.177
-618.346	318.914	0.121	0.231
-617.332	3.611	0.094	-0.069
-616.317	-200.000	-0.042	-0.387
-615.303	800.000	0.028	-0.106
-614.288	-94.390	-0.157	0.043
-613.273	382.501	0.047	-0.097
-612.259	144.727	-0.240	-0.325
-611.244	-158.802	0.150	-0.009
-610.230	800.000	-0.046	0.182
-609.215	92.133	-0.031	-0.035
-608.201	-5.843	-0.263	0.182
-607.186	-197.316	0.266	-0.002
-606.171	-200.000	0.037	-0.193
-605.157	735.245	-0.121	0.327
-604.142	324.251	0.042	0.081
-603.128	-87.424	0.313	-0.096
-602.113	-80.263	0.154	-0.052
-601.098	-67.151	-0.196	0.078
-600.084	207.733	0.227	0.358
-599.069	800.000	-0.043	-0.186
-598.055	434.346	0.136	-0.298
-597.040	-171.640	0.323	0.011
-596.025	-22.909	-0.150	-0.091
-595.011	800.000	0.024	-0.096
-593.996	-71.328	-0.342	-0.130
-592.982	117.522	-0.224	0.278
-591.967	-146.544	0.228	0.020
-590.952	800.000	0.032	-0.135
-589.938	-90.345	0.163	0.048
-588.923	379.630	0.060	0.123
-587.909	318.958	0.139	0.265
-586.894	-110.132	0.068	-0.014
-585.879	800.000	0.131	-0.378
-584.865	-200.000	-0.020	0.126
-583.850	-159.313	0.092	0.005
-582.836	51.293	-0.292	0.280
-581.821	285.820	-0.087	0.158
-580.806	-51.307	0.166	0.078
-579.792	113.095	-0.207	-0.253
-578.777	-97.363	0.201	-0.053
-577.763	-200.000	-0.017	0.152
-576.748	-134.997	-0.436	0.053
-575.733	-200.000	0.002	-0.075
-574.719	186.620	0.044	-0.066
-573.704	-127.013	-0.140	0.021
-572.690	-63.897	-0.182	-0.075
-571.675	-45.703	0.041	0.020
-570.661	-88.422	0.048	-0.014
-569.646	589.462	-0.053	-0.131
-568.631	144.143	0.205	0.275
-567.617	-65.000	0.347	-0.142
-566.602	103.543	-0.220	0.260
-565.588	311.090	0.105	-0.198
-564.573	70.896	-0.156	0.163
-563.558	171.906	0.058	-0.084
-562.544	127.468	-0.117	-0.150
-561.529	-136.547	-0.166	0.019
-560.515	-200.000	0.006	-0.454
-559.500	-137.998	0.281	-0.032
-558.485	170.928	0.058	0.083
-557.471	114.471	0.087	0.106
-556.456	-122.898	-0.081	-0.013
-555.442	-73.025	0.094	0.035
-554.427	-182.761	-0.085	-0.002
-553.412	800.000	-0.016	-0.051
-552.398	49.594	0.207	0.196
-551.383	143.758	0.098	-0.131
-550.369	-200.000	-0.018	-0.154
-549.354	181.661	-0.143	-0.212
-548.339	-200.000	-0.079	-0.366
-547.325	672.594	-0.084	0.220
-546.310	800.000	0.060	-0.178
-545.296	-183.964	0.175	0.003
-544.281	130.421	0.051	-0.066
-543.266	-60.759	-0.239	0.102
-542.252	800.000	-0.032	0.119
-541.237	122.138	0.090	0.113
-540.223	-130.947	-0.305	-0.041
-539.208	800.000	0.100	-0.293
-538.193	-82.860	0.157	0.051
-537.179	481.119	-0.078	0.177
-536.164	-200.000	-0.016	-0.280
-535.150	243.211	0.153	0.258
-534.135	-105.442	0.015	-0.003
-533.121	58.841	0.069	-0.069
-532.106	-61.180	-0.188	0.080
-531.091	800.000	0.037	0.117
-530.077	-107.966	-0.146	-0.032
-529.062	-178.864	-0.149	-0.003
-528.048	595.105	-0.065	0.162
-527.033	-200.000	-0.045	-0.253
-526.018	719.365	0.056	-0.149
-525.004	-6.418	-0.294	-0.202
-523.989	-200.000	0.017	-0.304
-522.975	380.912	-0.161	0.334
-521.960	-200.000	0.002	-0.036
-520.945	19.633	-0.160	-0.129
-519.931	-200.000	-0.005	-0.100
-518.916	-139.503	0.058	0.006
-517.902	-80.821	-0.197	-0.066
-516.887	-20.532	0.353	-0.218
-515.872	-71.409	0.180	-0.068
-514.858	-200.000	-0.020	-0.351
-513.843	-77.889	-0.097	0.034
-512.829	-200.000	-0.027	-0.249
-511.814	94.198	0.125	-0.143
-510.799	292.397	0.195	0.358
-509.785	71.179	0.224	-0.234
-508.770	800.000	0.041	0.114
-507.756	242.369	0.021	-0.036
-506.741	800.000	-0.040	0.117
-505.726	48.876	-0.262	0.248
-504.712	-176.520	0.194	-0.005
-503.697	190.992	-0.096	0.145
-502.683	-200.000	-0.012	0.248
-501.668	800.000	-0.056	-0.233
-500.653	-10.286	0.200	0.134
-499.639	145.196	0.159	0.215
-498.624	733.750	0.029	-0.078
-497.610	-106.325	-0.224	0.051
-496.595	-200.000	0.029	0.150
-495.581	-33.186	-0.230	-0.128
-494.566	-47.058	-0.344	-0.169
-493.551	69.223	-0.273	-0.282
-492.537	-200.000	0.017	-0.079
-491.522	61.609	0.212	-0.212
-490.508	462.800	-0.062	0.140
-489.493	800.000	-0.051	0.148
-488.478	-200.000	-0.004	0.246
-487.464	-17.898	-0.158	-0.100
-486.449	800.000	0.049	0.188
-485.435	-38.035	-0.040	0.021
-484.420	55.953	-0.060	-0.058
-483.405	182.791	-0.121	0.180
-482.391	91.758	0.162	0.183
-481.376	-200.000	-0.081	-0.366
-480.362	147.844	0.088	-0.120
-479.347	-57.899	0.081	0.036
-478.332	273.873	-0.065	0.115
-477.318	449.045	0.106	0.235
-476.303	-12.077	-0.175	-0.116
-475.289	-200.000	0.006	0.032
-474.274	-200.000	-0.008	-0.207
-473.259	-80.344	0.294	-0.099
-472.245	-15.688	-0.270	0.173
-471.230	-173.205	0.373	-0.011
-470.216	-50.752	-0.115	-0.054
-469.201	-200.000	0.017	-0.092
-468.186	-36.268	-0.162	-0.088
-467.172	-80.326	-0.146	0.049
-466.157	-200.000	0.004	0.025
-465.143	-200.000	0.021	-0.167
-464.128	-6.587	0.530	0.363
-463.113	182.112	-0.048	-0.072
-462.099	-78.660	-0.120	-0.041
-461.084	-200.000	-0.010	0.143
-460.070	-23.099	0.158	0.096
-459.055	-200.000	-0.001	0.116
-458.040	-30.479	0.096	-0.055
-457.026	-200.000	-0.001	-0.027
-456.011	-86.627	0.151	0.046
-454.997	119.789	-0.083	-0.103
-453.982	517.035	0.177	0.417
-452.968	127.773	0.197	0.251
-451.953	160.299	0.136	0.191
-450.938	70.302	-0.236	-0.245
-449.924	639.063	0.018	-0.046
-448.909	151.298	0.109	0.149
-447.895	-20.475	-0.078	0.048
-446.880	800.000	0.040	0.166
-445.865	-129.271	0.172	-0.024
-444.851	-138.966	0.194	-0.021
-443.836	-200.000	-0.007	-0.082
-442.822	339.683	0.104	-0.204
-441.807	-61.207	0.146	-0.062
-440.792	-200.000	0.057	-0.259
-439.778	-119.586	-0.203	0.035
-438.763	-200.000	-0.021	-0.217
-437.749	-153.249	0.114	-0.008
-436.734	-200.000	-0.089	0.413
-435.719	709.137	0.144	0.384
-434.705	-58.185	-0.319	-0.139
-433.690	800.000	-0.077	0.273
-432.676	-165.361	0.140	0.006
-431.661	1.089	0.263	0.190
-430.646	-200.000	-0.062	0.409
-429.632	334.295	0.052	-0.100
-428.617	320.436	-0.073	-0.140
-427.603	800.000	-0.052	-0.165
-426.588	141.669	-0.080	-0.106
-425.573	-99.504	0.096	0.024
-424.559	47.713	-0.104	0.097
-423.544	-200.000	0.057	-0.273
-422.530	-68.332	-0.449	-0.175
-421.515	800.000	-0.018	0.057
-420.500	-95.030	-0.322	0.087
-419.486	-200.000	-0.009	-0.275
-418.471	800.000	-0.107	-0.333
-417.457	512.461	-0.089	-0.209
-416.442	-200.000	-0.005	0.471
-415.428	419.256	0.085	0.182
-414.413	800.000	0.066	-0.185
-413.398	-200.000	-0.022	-0.167
-412.384	-200.000	-0.058	0.266
-411.369	-70.083	-0.177	0.067
-410.355	-47.503	-0.217	0.106
-409.340	-200.000	0.024	0.170
-408.325	-169.525	-0.269	-0.010
-407.311	800.000	-0.067	-0.240
-406.296	101.719	0.061	0.071
-405.282	-61.945	-0.386	-0.162
-404.267	224.870	-0.031	0.051
-403.252	-200.000	0.003	0.192
-402.238	217.233	-0.119	0.191
-401.223	134.659	-0.247	0.321
-400.209	800.000	-0.024	0.079
-399.194	800.000	-0.088	-0.320
-398.179	118.344	0.160	0.198
-397.165	-24.766	-0.191	0.114
-396.150	-134.948	0.120	-0.015
-395.136	800.000	-0.036	-0.156
-394.121	-200.000	0.004	-0.089
-393.106	-200.000	-0.008	-0.173
-392.092	-56.643	0.139	0.062
-391.077	-23.984	0.234	-0.140
-390.063	-200.000	0.063	0.324
-389.048	-163.163	-0.388	-0.019
-388.033	-200.000	-0.025	-0.124
-387.019	-166.846	0.266	-0.011
-386.004	69.491	0.070	-0.073
-384.990	58.991	0.066	0.066
-383.975	-200.000	0.013	0.088
-382.960	-5.370	-0.242	-0.166
-381.946	6.934	-0.211	0.157
-380.931	-98.842	0.220	0.056
-379.917	56.610	-0.114	0.111
-378.902	25.652	-0.224	-0.187
-377.888	800.000	-0.064	0.188
-376.873	800.000	0.100	-0.318
-375.858	63.845	0.242	-0.244
-374.844	-138.356	-0.312	0.035
-373.829	800.000	-0.071	0.304
-372.815	164.351	0.315	-0.445
-371.800	295.555	-0.186	-0.341
-370.785	-36.715	-0.244	-0.131
-369.771	157.320	-0.173	0.240
-368.756	133.377	-0.073	-0.094
-367.742	369.909	-0.224	0.454
-366.727	-200.000	0.053	0.386
-365.712	218.747	0.264	0.422
-364.698	-58.465	0.092	0.040
-363.683	-168.485	-0.111	0.004
-362.669	-104.879	-0.226	-0.052
-361.654	-200.000	0.030	0.317
-360.639	-47.956	-0.355	-0.172
-359.625	-200.000	-0.027	-0.130
-358.610	800.000	0.047	-0.199
-357.596	-200.000	0.019	-0.210
-356.581	-200.000	-0.050	0.353
-355.566	196.547	0.243	-0.370
-354.552	207.600	-0.043	-0.067
-353.537	800.000	-0.105	-0.319
-352.523	20.060	-0.155	-0.125
-351.508	-124.106	0.120	-0.019
-350.493	159.364	-0.156	0.217
-349.479	-84.693	0.232	0.073
-348.464	-116.708	-0.167	0.031
-347.450	572.788	0.076	-0.185
-346.435	-83.949	0.212	-0.067
-345.420	-50.527	0.414	-0.195
-344.406	64.964	0.236	-0.238
-343.391	-200.000	-0.001	0.056
-342.377	44.734	0.222	-0.204
-341.362	-31.140	-0.285	-0.161
-340.348	1.262	0.194	0.140
-339.333	50.838	0.130	-0.123
-338.318	800.000	0.078	0.281
-337.304	-200.000	-0.355	-0.001
-336.289	800.000	-0.067	0.223
-335.275	-109.636	0.249	0.053
-334.260	-200.000	-0.014	0.095
-333.245	147.335	0.145	0.195
-332.231	-115.515	-0.203	0.038
-331.216	-155.009	-0.166	-0.011
-330.202	117.927	0.091	0.112
-329.187	800.000	0.156	0.509
-328.172	156.154	-0.112	-0.155
-327.158	89.593	-0.115	0.129
-326.143	800.000	-0.053	-0.212
-325.129	269.023	0.179	-0.315
-324.114	-52.255	-0.344	-0.159
-323.099	398.452	-0.240	0.503
-322.085	-200.000	0.017	0.219
-321.070	-35.641	-0.202	-0.110
-320.056	800.000	0.097	-0.339
-319.041	509.696	-0.044	0.102
-318.026	800.000	-0.044	0.135
-317.012	180.355	0.207	0.303
-315.997	800.000	-0.051	-0.210
-314.983	11.353	-0.142	-0.109
-313.968	134.545	-0.193	-0.250
-312.953	333.013	-0.114	0.221
-311.939	208.798	0.065	0.101
-310.924	-94.703	-0.183	-0.050
-309.910	84.606	0.113	-0.124
-308.895	-26.047	0.219	-0.129
-307.880	-35.430	-0.163	-0.089
-306.866	70.846	0.223	-0.231
-305.851	269.398	-0.158	-0.277
-304.837	202.017	0.227	0.349
-303.822	599.122	-0.080	0.199
-302.807	202.158	-0.066	-0.102
-301.793	-82.733	-0.295	-0.095
-300.778	-120.892	0.214	0.036
-299.764	-157.892	-0.216	-0.013
-298.749	467.502	-0.103	-0.231
-297.735	-123.161	0.111	0.018
-296.720	327.862	-0.059	0.112
-295.705	-104.009	-0.261	0.061
-294.691	165.963	0.121	0.170
-293.676	47.480	-0.165	-0.153
-292.662	-70.738	-0.086	-0.032
-291.647	-200.000	0.014	-0.081
-290.632	800.000	-0.076	0.295
-289.618	-200.000	-0.037	0.195
-288.603	-200.000	0.044	-0.203
-287.589	-200.000	-0.248	-0.001
-286.574	-200.000	-0.008	0.123
-285.559	201.125	-0.059	0.090
-284.545	-200.000	0.030	0.373
-283.530	-200.000	-0.015	0.192
-282.516	800.000	-0.153	-0.460
-281.501	-99.054	0.221	0.056
-280.486	-200.000	-0.013	0.094
-279.472	690.658	0.047	0.123
-278.457	-200.000	0.015	0.251
-277.443	601.261	0.066	-0.164
-276.428	-74.203	0.229	-0.083
-275.413	-125.806	-0.115	-0.017
-274.399	272.957	0.197	-0.347
-273.384	95.579	-0.237	-0.270
-272.370	134.640	0.286	-0.371
-271.355	-146.665	0.407	-0.035
-270.340	151.248	-0.082	0.111
-269.326	-200.000	0.068	0.370
-268.311	-3.792	0.277	0.192
-267.297	164.912	0.163	-0.230
-266.282	-46.370	-0.052	-0.025
-265.267	-5.062	0.103	-0.071
-264.253	47.259	-0.084	-0.078
-263.238	-148.756	0.106	-0.009
-262.224	-138.665	-0.134	-0.015
-261.209	38.161	0.151	0.134
-260.195	-200.000	0.010	0.290
-259.180	-200.000	-0.029	-0.267
-258.165	-138.029	-0.250	-0.028
-257.151	-86.516	0.038	-0.012
-256.136	-83.673	0.116	-0.037
-255.122	776.068	-0.112	-0.304
-254.107	-171.288	-0.042	0.001
-253.092	67.445	-0.253	0.258
-252.078	-200.000	-0.018	-0.342
-251.063	-73.488	-0.200	-0.073
-250.049	-18.773	-0.062	-0.038
-249.034	-193.794	0.371	-0.003
-248.019	350.430	-0.030	0.060
-247.005	497.625	0.069	0.159
-245.990	-9.446	0.322	0.214
-244.976	-54.167	-0.403	-0.183
-243.961	-73.564	0.243	-0.088
-242.946	293.353	0.063	0.114
-241.932	-112.201	-0.156	-0.031
-240.917	800.000	0.060	-0.196
-239.903	308.108	0.088	-0.163
-238.888	57.473	0.198	0.192
-237.873	-93.473	-0.345	-0.095
-236.859	81.979	-0.040	-0.043
-235.844	15.387	0.107	0.084
-234.830	-58.229	0.231	0.100
-233.815	-63.727	-0.194	0.079
-232.800	40.589	-0.139	-0.124
-231.786	-26.193	0.050	0.029
-230.771	471.294	-0.099	0.223
-229.757	-39.594	0.278	-0.145
-228.742	-64.678	-0.142	0.057
-227.727	30.565	-0.279	-0.237
-226.713	-200.000	-0.057	0.386
-225.698	226.438	0.084	-0.135
-224.684	235.602	0.149	0.245
-223.669	-152.355	0.127	-0.009
-222.655	800.000	-0.087	0.309
-221.640	-86.065	0.197	-0.061
-220.625	-106.306	0.043	-0.009
-219.611	-200.000	0.062	0.360
-218.596	619.292	-0.055	0.136
-217.582	-130.126	0.682	-0.093
-216.567	-141.425	0.295	0.030
-215.552	52.321	0.259	0.246
-214.538	53.757	0.106	0.101
-213.523	-159.419	-0.063	-0.003
-212.509	-139.001	-0.069	-0.007
-211.494	-200.000	0.042	-0.217
-210.479	-5.193	0.313	0.214
-209.465	76.302	0.086	0.090
-208.450	-200.000	-0.015	0.269
-207.436	-69.392	0.128	-0.049
-206.421	-13.783	0.316	0.203
-205.406	22.037	0.083	-0.067
-204.392	213.958	-0.247	-0.389
-203.377	90.258	-0.158	-0.176
-202.363	-200.000	0.014	0.185
-201.348	93.269	0.187	0.211
-200.333	415.389	0.156	-0.332
-199.319	95.489	-0.265	-0.301
-198.304	133.397	-0.186	-0.239
-197.290	-37.701	0.108	-0.057
-196.275	-166.546	0.136	-0.006
-195.260	-169.234	-0.135	0.005
-194.246	-143.503	-0.238	0.023
-193.231	-200.000	-0.011	0.203
-192.217	43.309	0.364	0.331
-191.202	800.000	-0.070	0.224
-190.187	800.000	-0.063	0.226
-189.173	-200.000	-0.050	-0.288
-188.158	800.000	0.060	-0.196
-187.144	194.555	0.165	0.248
-186.129	-148.650	-0.068	-0.005
-185.114	-138.983	-0.218	0.024
-184.100	237.687	0.100	0.164
-183.085	96.306	0.122	-0.139
-182.071	496.374	-0.029	-0.066
-181.056	-5.298	0.054	0.037
-180.042	800.000	-0.086	-0.241
-179.027	688.476	-0.098	-0.254
-178.012	199.040	-0.074	0.112
-176.998	708.286	0.042	0.110
-175.983	-200.000	-0.020	0.155
-174.969	567.296	-0.013	0.032
-173.954	-200.000	0.154	0.001
-172.939	77.140	-0.176	-0.186
-171.925	-163.792	-0.363	-0.017
-170.910	-126.127	0.189	0.028
-169.896	357.699	0.085	0.169
-168.881	12.220	0.093	-0.071
-167.866	126.085	-0.144	-0.181
-166.852	268.938	-0.021	0.037
-165.837	-0.885	-0.121	0.085
-164.823	-90.168	-0.262	0.076
-163.808	273.039	0.154	-0.269
-162.793	164.265	-0.232	0.325
-161.779	38.180	-0.280	0.248
-160.764	323.766	-0.154	-0.291
-159.750	-200.000	0.032	0.145
-158.735	800.000	-0.105	0.315
-157.720	800.000	0.087	0.290
-156.706	800.000	-0.051	0.218
-155.691	-111.550	-0.243	-0.049
-154.677	8.108	0.259	-0.193
-153.662	800.000	0.065	-0.218
-152.647	-126.858	-0.109	0.016
-151.633	407.231	0.071	-0.150
-150.618	-200.000	-0.028	-0.125
-149.604	-200.000	-0.012	-0.178
-148.589	118.073	0.051	0.063
-147.574	-37.420	0.036	-0.019
-146.560	-39.166	0.261	0.136
-145.545	-41.196	-0.299	0.153
-144.531	800.000	0.021	0.071
-143.516	-200.000	-0.020	-0.349
-142.502	23.949	-0.083	-0.068
-141.487	-200.000	-0.006	-0.173
-140.472	-106.630	-0.082	0.018
-139.458	-141.157	-0.132	0.013
-138.443	-200.000	0.031	-0.177
-137.429	171.294	-0.163	0.232
-136.414	-196.379	0.469	-0.003
-135.399	638.053	0.015	-0.037
-134.385	-200.000	-0.032	-0.239
-133.370	88.083	0.177	0.195
-132.356	105.459	-0.082	0.096
-131.341	-99.724	0.327	0.081
-130.326	800.000	-0.069	0.248
-129.312	136.455	0.194	-0.251
-128.297	-100.220	-0.225	0.056
-127.283	68.365	-0.171	0.174
-126.268	-145.301	0.199	-0.018
-125.253	409.347	-0.077	-0.163
-124.239	19.356	0.212	-0.169
-123.224	174.758	0.258	-0.370
-122.210	85.901	0.132	-0.144
-121.195	-83.798	-0.123	-0.039
-120.180	-41.448	0.154	0.079
-119.166	44.506	-0.193	-0.176
-118.151	-109.392	0.418	-0.088
-117.137	172.832	0.208	-0.297
-116.122	-84.866	0.040	0.012
-115.107	-14.629	-0.076	-0.049
-114.093	-6.385	0.040	-0.027
-113.078	-48.754	0.158	-0.075
-112.064	121.227	-0.011	0.013
-111.049	182.123	0.106	-0.155
-110.034	-200.000	0.016	0.381
-109.020	48.060	0.256	0.237
-108.005	749.642	0.076	0.202
-106.991	-200.000	-0.056	0.305
-105.976	1.387	-0.194	0.138
-104.962	8.389	0.026	0.019
-103.947	-200.000	0.014	0.142
-102.932	-65.710	-0.073	-0.029
-101.918	167.456	0.122	0.172
-100.903	-200.000	-0.026	0.372
-99.889	436.821	0.142	-0.306
-98.874	-200.000	0.006	-0.163
-97.859	-128.649	0.139	0.020
-96.845	-74.243	-0.234	0.084
-95.830	-182.921	-0.130	0.002
-94.816	-111.646	0.209	0.042
-93.801	-37.397	-0.181	-0.096
-92.786	-200.000	-0.008	-0.132
-91.772	800.000	-0.079	0.308
-90.757	541.470	-0.071	-0.168
-89.743	116.280	0.178	-0.216
-88.728	-29.473	0.107	-0.061
-87.713	-11.625	-0.236	-0.154
-86.699	406.583	-0.072	-0.151
-85.684	-60.346	0.189	0.080
-84.670	390.854	0.140	-0.287
-83.655	-75.883	0.351	-0.123
-82.640	-200.000	-0.039	0.185
-81.626	-37.977	0.312	0.164
-80.611	-145.579	0.204	-0.018
-79.597	533.075	0.059	0.139
-78.582	-200.000	0.122	0.547
-77.567	-200.000	0.012	0.115
-76.553	-53.332	-0.194	0.088
-75.538	294.054	0.053	-0.096
-74.524	0.308	-0.041	0.029
-73.509	800.000	0.118	0.383
-72.494	-116.884	0.186	0.034
-71.480	-200.000	-0.030	0.324
-70.465	800.000	0.046	0.182
-69.451	-104.693	0.294	-0.067
-68.436	-38.064	0.261	0.137
-67.422	-47.432	-0.524	-0.252
-66.407	-12.978	0.228	0.147
-65.392	-93.568	-0.076	0.021
-64.378	137.444	0.150	-0.194
-63.363	6.574	-0.142	-0.104
-62.349	-2.441	0.080	0.055
-61.334	5.283	-0.815	-0.595
-60.319	462.805	0.194	0.428
-59.305	800.000	0.124	-0.410
-58.290	242.189	0.525	0.869
-57.276	800.000	0.504	1.855
-56.261	-200.000	82.317	497.828
-55.246	519.223	1334.353	3092.441
-54.232	151.957	2556.572	3449.073
-53.217	108.619	2320.022	2741.397
-52.203	48.345	1940.552	1797.037
-51.188	42.773	1728.539	1557.651
-50.173	39.981	1683.119	1495.570
-49.159	54.282	1722.496	1640.180
-48.144	58.890	1741.622	1693.576
-47.130	42.721	1701.755	1532.880
-46.115	39.593	1687.862	1496.603
-45.100	39.433	1683.009	1491.028
-44.086	39.414	1680.871	1488.930
-43.071	39.439	1677.771	1486.316
-42.057	39.397	1675.554	1483.970
-41.042	39.360	1673.578	1481.889
-40.027	39.420	1671.174	1480.150
-39.013	39.333	1670.157	1478.534
-37.998	39.385	1668.241	1477.174
-36.984	39.450	1666.588	1476.137
-35.969	39.525	1665.197	1475.406
-34.954	39.732	1663.031	1474.979
-33.940	39.591	1661.306	1472.338
-32.925	39.548	1659.647	1470.484
-31.911	39.570	1657.893	1469.035
-30.896	39.564	1656.359	1467.579
-29.881	39.538	1654.870	1466.003
-28.867	39.562	1652.856	1464.338
-27.852	39.523	1651.905	1463.151
-26.838	39.542	1649.925	1461.477
-25.823	39.620	1648.522	1460.761
-24.809	39.676	1647.164	1459.914
-23.794	39.643	1645.905	1458.492
-22.779	39.628	1644.149	1456.767
-21.765	39.570	1642.656	1454.958
-20.750	39.542	1641.543	1453.709
-19.736	39.511	1640.299	1452.323
-18.721	39.601	1638.378	1451.226
-17.706	39.608	1636.968	1449.969
-16.692	39.595	1635.250	1448.296
-15.677	39.641	1633.848	1447.334
-14.663	39.693	1632.304	1446.291
-13.648	39.625	1631.119	1444.687
-12.633	39.607	1629.351	1442.933
-11.619	39.514	1628.213	1441.181
-10.604	39.659	1626.062	1440.281
-9.590	39.605	1625.092	1438.972
-8.575	39.513	1623.841	1437.134
-7.560	39.552	1622.801	1436.444
-6.546	39.570	1621.554	1435.414
-5.531	39.538	1620.540	1434.228
-4.517	39.524	1619.098	1432.788
-3.502	39.547	1617.984	1431.916
-2.487	39.593	1616.584	1430.952
-1.473	39.077	1604.686	1416.648
-0.458	35.771	1582.866	1373.765
0.556	30.917	1581.102	1333.178
1.571	28.124	1603.544	1331.679
2.586	27.265	1618.710	1337.837
3.600	24.093	1565.230	1270.925
4.615	13.337	1449.820	1105.594
5.629	3.424	1377.997	987.487
6.644	1.473	1368.022	967.832
7.659	1.369	1366.234	965.825
8.673	1.339	1365.210	964.824
9.688	1.199	1363.752	962.818
10.702	1.076	1360.792	959.863
11.717	4.654	1368.331	987.855
12.731	15.174	1388.037	1069.468
13.746	23.367	1402.685	1133.291
14.761	25.144	1404.248	1145.821
15.775	25.321	1404.193	1146.806
16.790	25.542	1403.591	1147.624
17.804	25.451	1403.211	1146.625
18.819	25.682	1402.702	1147.583
19.834	25.681	1402.593	1147.390
20.848	25.849	1401.326	1147.320
21.863	25.757	1400.988	1146.358
22.877	25.756	1399.756	1145.239
23.892	25.855	1398.715	1144.917
24.907	25.760	1398.256	1143.836
25.921	25.872	1396.848	1143.296
26.936	25.780	1396.338	1142.188
27.950	25.837	1394.604	1141.031
28.965	25.837	1393.132	1139.727
29.980	25.838	1391.706	1138.466
30.994	25.892	1391.096	1138.208
32.009	25.729	1390.506	1136.592
33.023	25.843	1388.465	1135.542
34.038	25.793	1387.600	1134.424
35.053	25.819	1386.340	1133.454
36.067	25.830	1385.366	1132.627
37.082	25.739	1384.734	1131.436
38.096	25.684	1383.734	1130.176
39.111	25.717	1383.106	1129.772
40.126	25.750	1382.415	1129.314
41.140	25.851	1381.527	1129.123
42.155	25.764	1381.656	1128.578
43.169	25.722	1381.526	1128.111
44.184	25.739	1381.362	1127.982
45.199	25.797	1380.750	1127.747
46.213	25.690	1380.260	1126.580
47.228	25.781	1379.141	1126.133
48.242	25.770	1377.979	1125.016
49.257	25.742	1376.890	1123.853
50.271	25.828	1375.105	1122.831
51.286	25.620	1374.461	1120.912
52.301	25.709	1372.738	1119.961
53.315	25.730	1371.998	1119.391
54.330	25.832	1370.510	1118.711
55.344	25.839	1369.394	1117.743
56.359	25.771	1368.647	1116.612
57.374	25.647	1367.718	1114.986
58.388	25.771	1367.174	1115.212
59.403	25.720	1366.950	1114.618
60.417	25.692	1366.365	1113.864
61.432	25.781	1365.196	1113.365
62.447	25.731	1364.290	1112.220
63.461	25.773	1363.284	1111.558
64.476	25.797	1362.577	1111.032
65.490	25.737	1361.679	1109.831
66.505	25.813	1359.685	1108.577
67.520	25.768	1358.345	1107.114
68.534	25.877	1356.969	1106.561
69.549	25.837	1356.409	1105.759
70.563	25.839	1355.352	1104.813
71.578	25.800	1354.508	1103.790
72.593	25.737	1353.987	1102.880
73.607	25.625	1353.529	1101.722
74.622	25.777	1352.231	1101.502
75.636	25.849	1351.538	1101.279
76.651	25.769	1351.074	1100.312
77.666	25.769	1350.504	1099.751
78.680	25.816	1349.825	1099.388
79.695	25.824	1349.013	1098.677
80.709	25.818	1347.994	1097.712
81.724	25.803	1347.452	1097.086
82.739	25.830	1346.453	1096.336
83.753	25.788	1345.419	1095.143
84.768	25.702	1344.454	1093.740
85.782	25.906	1342.799	1093.536
86.797	25.812	1342.129	1092.320
87.812	25.782	1340.478	1090.697
88.826	25.754	1339.950	1090.005
89.841	25.880	1338.220	1089.262
90.855	25.726	1338.308	1088.308
91.870	25.852	1337.086	1087.980
92.884	25.807	1336.566	1087.185
93.899	25.803	1335.466	1086.173
94.914	25.938	1334.609	1086.192
95.928	25.994	1333.379	1085.429
96.943	25.737	1333.348	1083.762
97.957	25.878	1332.504	1083.827
98.972	25.894	1331.537	1083.042
99.987	25.827	1330.842	1081.979
101.001	25.888	1329.176	1080.895
102.016	25.871	1328.441	1080.101
103.030	25.873	1327.706	1079.417
104.045	25.787	1326.809	1078.078
105.060	25.867	1325.828	1077.665
106.074	25.821	1325.374	1076.925
107.089	25.790	1324.035	1075.555
108.103	25.891	1322.709	1074.989
109.118	25.870	1321.931	1074.133
110.133	25.764	1321.284	1072.884
111.147	25.882	1319.496	1072.038
112.162	25.901	1318.228	1071.024
113.176	25.935	1317.380	1070.444
114.191	25.964	1316.362	1069.694
115.206	25.896	1315.510	1068.505
116.220	25.953	1314.416	1067.857
117.235	25.826	1313.478	1066.250
118.249	25.895	1312.827	1066.036
119.264	25.836	1312.340	1065.198
120.279	25.910	1311.229	1064.639
121.293	25.991	1310.226	1064.211
122.308	25.927	1309.699	1063.308
123.322	25.932	1308.907	1062.603
124.337	25.934	1308.024	1061.801
125.352	25.925	1307.053	1060.869
126.366	26.030	1306.124	1060.637
127.381	25.979	1305.492	1059.727
128.395	25.856	1304.586	1058.180
129.410	26.071	1303.491	1058.455
130.424	26.013	1302.942	1057.580
131.439	25.988	1301.780	1056.396
132.454	25.896	1301.411	1055.466
133.468	26.063	1300.551	1055.647
134.483	26.051	1299.654	1054.757
135.497	25.992	1299.126	1053.890
136.512	26.006	1297.859	1052.852
137.527	26.033	1296.610	1051.900
138.541	25.919	1295.837	1050.521
139.556	26.047	1294.131	1049.786
140.570	25.934	1293.953	1048.892
141.585	25.957	1292.489	1047.749
142.600	26.001	1291.564	1047.157
143.614	26.045	1290.503	1046.460
144.629	25.916	1289.889	1045.126
145.643	25.941	1288.646	1044.166
146.658	25.869	1287.810	1042.983
147.673	25.946	1286.483	1042.259
148.687	25.911	1285.845	1041.446
149.702	25.816	1284.395	1039.634
150.716	25.914	1282.959	1038.947
151.731	25.980	1282.174	1038.600
152.746	25.882	1281.686	1037.544
153.760	25.814	1280.550	1036.142
154.775	25.814	1279.716	1035.377
155.789	25.906	1278.432	1034.776
156.804	25.974	1277.422	1034.257
157.819	25.896	1276.889	1033.288
158.833	25.996	1276.005	1033.050
159.848	25.926	1275.304	1031.991
160.862	25.943	1274.478	1031.332
161.877	25.962	1273.975	1030.941
162.892	25.919	1273.112	1029.905
163.906	25.930	1272.410	1029.310
164.921	26.023	1271.067	1028.663
165.935	25.991	1270.633	1028.037
166.950	26.001	1270.034	1027.520
167.964	26.052	1269.211	1027.053
168.979	26.137	1268.925	1027.210
169.994	26.112	1267.918	1026.167
171.008	26.082	1267.393	1025.481
172.023	26.017	1266.785	1024.525
173.037	26.051	1265.728	1023.773
174.052	26.087	1265.433	1023.648
175.067	26.106	1264.019	1022.520
176.081	26.021	1263.961	1021.901
177.096	26.026	1263.009	1021.073
178.110	25.940	1262.105	1019.765
179.125	26.144	1260.868	1019.827
180.140	26.064	1259.824	1018.440
181.154	26.182	1258.535	1017.971
182.169	26.066	1257.786	1016.627
183.183	26.128	1256.479	1015.826
184.198	26.033	1255.498	1014.408
185.213	26.051	1254.763	1013.830
186.227	26.022	1254.161	1013.089
187.242	26.196	1252.863	1012.929
188.256	26.174	1252.271	1012.232
189.271	26.092	1251.491	1011.053
190.286	26.156	1250.507	1010.531
191.300	26.123	1249.821	1009.703
192.315	26.108	1249.747	1009.469
193.329	26.048	1249.173	1008.579
194.344	26.186	1248.730	1008.905
195.359	26.178	1247.865	1008.071
196.373	26.193	1247.376	1007.669
197.388	26.051	1247.248	1006.685
198.402	26.122	1246.934	1006.740
199.417	26.145	1246.224	1006.204
200.432	26.213	1245.741	1006.103
201.446	26.128	1245.487	1005.338
202.461	26.049	1244.751	1004.214
203.475	26.180	1243.340	1003.714
204.490	26.152	1242.928	1003.140
205.504	26.118	1242.158	1002.240
206.519	26.251	1240.857	1001.841
207.534	26.179	1240.020	1000.674
208.548	26.138	1239.131	999.642
209.563	26.101	1238.489	998.834
210.577	26.212	1237.567	998.615
211.592	26.237	1236.347	997.675
212.607	26.278	1235.875	997.435
213.621	26.362	1234.756	996.909
214.636	26.287	1234.340	996.067
215.650	26.285	1233.273	995.111
216.665	26.230	1232.475	994.076
217.680	26.278	1231.346	993.339
218.694	26.251	1231.096	992.902
219.709	26.233	1230.422	992.171
220.723	26.331	1229.660	992.008
221.738	26.134	1229.296	990.547
222.753	26.124	1228.394	989.673
223.767	26.305	1228.025	990.282
224.782	26.373	1227.101	989.820
225.796	26.385	1226.285	989.142
226.811	26.219	1226.288	988.149
227.826	26.256	1225.616	987.721
228.840	26.304	1225.128	987.505
229.855	26.342	1224.230	986.900
230.869	26.298	1223.883	986.294
231.884	26.381	1222.487	985.530
232.899	26.416	1221.583	984.911
233.913	26.390	1221.377	984.513
234.928	26.490	1220.792	984.499
235.942	26.459	1220.190	983.757
236.957	26.413	1219.393	982.779
237.972	26.414	1218.493	981.968
238.986	26.424	1218.367	981.836
240.001	26.473	1217.533	981.343
241.015	26.495	1216.948	980.907
242.030	26.498	1216.238	980.258
243.045	26.500	1215.272	979.405
244.059	26.446	1214.563	978.456
245.074	26.539	1213.599	978.097
246.088	26.496	1213.053	977.337
247.103	26.561	1211.745	976.546
248.117	26.476	1211.106	975.486
249.132	26.516	1210.561	975.180
250.147	26.589	1209.955	974.998
251.161	26.611	1209.223	974.441
252.176	26.612	1208.400	973.696
253.190	26.636	1207.756	973.220
254.205	26.587	1207.555	972.707
255.220	26.603	1206.615	971.952
256.234	26.658	1206.163	971.795
257.249	26.612	1205.260	970.735
258.263	26.648	1204.864	970.525
259.278	26.747	1203.757	970.078
260.293	26.731	1203.240	969.487
261.307	26.700	1203.303	969.289
262.322	26.589	1202.721	968.140
263.336	26.632	1202.040	967.733
264.351	26.584	1201.486	966.949
265.366	26.616	1200.418	966.171
266.380	26.737	1199.878	966.296
267.395	26.724	1198.752	965.236
268.409	26.613	1198.790	964.590
269.424	26.638	1198.139	964.114
270.439	26.745	1197.775	964.302
271.453	26.799	1196.997	963.878
272.468	26.691	1196.072	962.478
273.482	26.663	1195.685	961.930
274.497	26.714	1195.128	961.670
275.512	26.817	1194.231	961.406
276.526	26.683	1193.918	960.359
277.541	26.712	1192.924	959.627
278.555	26.772	1191.989	959.110
279.570	26.754	1191.462	958.507
280.585	26.713	1190.723	957.609
281.599	26.769	1190.177	957.384
282.614	26.753	1189.384	956.577
283.628	26.772	1188.270	955.694
284.643	26.882	1187.464	955.543
285.657	26.812	1186.593	954.388
286.672	26.753	1186.105	953.597
287.687	26.925	1185.198	953.691
288.701	26.893	1184.736	953.068
289.716	26.976	1183.012	952.031
290.730	26.907	1182.937	951.522
291.745	26.864	1182.308	950.709
292.760	26.903	1181.844	950.455
293.774	26.857	1181.334	949.721
294.789	26.866	1180.889	949.327
295.803	26.937	1180.149	949.019
296.818	26.973	1179.511	948.607
297.833	26.987	1178.466	947.757
298.847	26.957	1178.176	947.282
299.862	26.999	1177.070	946.529
300.876	26.957	1176.529	945.794
301.891	27.011	1176.070	945.619
302.906	27.013	1175.548	945.129
303.920	27.025	1174.804	944.508
304.935	26.989	1173.916	943.524
305.949	27.093	1173.418	943.583
306.964	26.981	1172.627	942.282
307.979	27.178	1171.962	942.685
308.993	27.062	1171.509	941.632
310.008	27.095	1170.686	941.062
311.022	27.066	1170.182	940.423
312.037	27.173	1168.991	939.933
313.052	27.058	1168.541	938.892
314.066	27.121	1167.591	938.376
315.081	27.141	1166.658	937.643
316.095	27.137	1166.296	937.248
317.110	27.093	1165.826	936.564
318.125	27.152	1164.891	936.030
319.139	27.210	1163.941	935.484
320.154	27.133	1163.717	934.827
321.168	27.232	1163.310	934.924
322.183	27.249	1162.625	934.380
323.197	27.133	1161.893	933.113
324.212	27.281	1161.427	933.415
325.227	27.231	1160.980	932.715
326.241	27.293	1160.397	932.487
327.256	27.130	1160.239	931.440
328.270	27.181	1158.987	930.613
329.285	27.224	1158.686	930.506
330.300	27.258	1157.749	929.845
331.314	27.169	1156.723	928.488
332.329	27.248	1155.439	927.779
333.343	27.275	1155.207	927.646
334.358	27.337	1154.235	927.102
335.373	27.348	1153.506	926.487
336.387	27.363	1152.626	925.778
337.402	27.308	1152.196	925.068
338.416	27.340	1151.540	924.621
339.431	27.515	1150.975	924.976
340.446	27.430	1150.367	923.976
341.460	27.402	1149.855	923.341
342.475	27.540	1148.632	922.974
343.489	27.415	1148.166	921.886
344.504	27.466	1147.483	921.512
345.519	27.427	1146.395	920.363
346.533	27.523	1145.488	920.038
347.548	27.572	1144.718	919.583
348.562	27.519	1144.112	918.748
349.577	27.575	1143.315	918.311
350.592	27.460	1142.357	916.879
351.606	27.400	1142.042	916.242
352.621	27.472	1141.540	916.120
353.635	27.483	1141.123	915.761
354.650	27.498	1140.351	915.134
355.665	27.518	1139.797	914.709
356.679	27.617	1139.056	914.533
357.694	27.561	1138.517	913.740
358.708	27.690	1137.430	913.430
359.723	27.592	1136.872	912.409
360.738	27.545	1136.507	911.801
361.752	27.548	1136.134	911.436
362.767	27.649	1135.105	911.035
363.781	27.747	1134.770	911.177
364.796	27.679	1134.434	910.486
365.810	27.653	1133.536	909.555
366.825	27.717	1133.085	909.431
367.840	27.749	1132.371	908.939
368.854	27.763	1132.124	908.729
369.869	27.792	1131.073	907.948
370.883	27.811	1130.539	907.536
371.898	27.739	1129.877	906.567
372.913	27.702	1129.253	905.801
373.927	27.822	1128.710	905.879
374.942	27.737	1128.463	905.181
375.956	27.686	1128.082	904.542
376.971	27.770	1127.592	904.485
377.986	27.922	1126.091	903.952
379.000	27.969	1125.652	903.751
380.015	27.873	1125.255	902.881
381.029	27.840	1124.755	902.234
382.044	27.775	1124.096	901.307
383.059	27.869	1123.367	901.107
384.073	27.869	1123.027	900.754
385.088	28.034	1121.460	900.231
386.102	28.000	1120.804	899.455
387.117	27.922	1119.793	898.182
388.132	27.980	1119.157	897.878
389.146	28.009	1118.667	897.547
390.161	28.001	1117.948	896.849
391.175	28.140	1116.973	896.669
392.190	28.089	1116.415	895.892
393.205	28.030	1115.993	895.188
394.219	28.112	1114.941	894.664
395.234	28.074	1114.638	894.157
396.248	28.069	1113.335	893.007
397.263	28.092	1112.672	892.508
398.278	28.121	1112.279	892.257
399.292	28.056	1112.080	891.700
400.307	28.073	1111.360	891.129
401.321	28.171	1110.603	890.920
402.336	28.051	1110.263	889.983
403.350	28.256	1109.140	889.999
404.365	28.285	1108.545	889.585
405.380	28.152	1108.294	888.660
406.394	28.205	1107.138	887.909
407.409	28.221	1106.302	887.242
408.423	28.250	1105.440	886.609
409.438	28.261	1104.952	886.192
410.453	28.349	1104.302	886.018
411.467	28.161	1103.890	884.703
412.482	28.345	1102.462	884.368
413.496	28.299	1102.308	883.945
414.511	28.235	1101.730	883.094
415.526	28.251	1101.257	882.715
416.540	28.279	1100.909	882.491
417.555	28.318	1100.263	882.083
418.569	28.320	1099.632	881.507
419.584	28.436	1099.321	881.741
420.599	28.348	1099.209	881.146
421.613	93.014	1307.049	1401.057
422.628	86.974	1337.337	1401.183
