DTS Sentinel unit serial number:	SN413079Multiplexer serial number:	ORYXHardware model number:	OX4-SRSoftware version number:	ORYX F/W v4.00 Oryx Data Collector v3.7.2.0data status	okinstallation	princeton_trtdifferential loss correction	single-endedforward channel	channel 2reverse channel	N/Adate	2019/09/15time	17:59:35forward acquisition time	60.00reverse acquisition time	0.00gamma	496.2192k internal	0.2284k external	0.2284temperature offset calibration	0.9923default loss term (dB/km)	0.3790temperature slope calibration	1.0000multiplexer offset coefficient	1.0000multiplexer slope coefficient	1.0000fibre end	0.00T internal ref (°C)	44.75T ext. ref 1 (°C)	6.45T ext. ref 2 (°C)	39.48length (m)	temperature (°C)	Stokes	anti-Stokes-747.200	607.346	-0.052	-0.132
-746.185	239.605	0.072	0.124
-745.171	459.835	-0.149	0.340
-744.156	747.948	-0.164	0.453
-743.142	24.024	0.322	0.273
-742.127	83.152	0.228	-0.255
-741.112	282.471	-0.109	0.200
-740.098	257.139	-0.289	0.510
-739.083	-171.984	-0.156	-0.005
-738.069	435.823	0.033	-0.073
-737.054	800.000	0.083	-0.283
-736.039	237.151	-0.161	-0.274
-735.025	106.680	-0.050	0.061
-734.010	-200.000	-0.056	0.486
-732.996	23.611	0.192	-0.162
-731.981	-200.000	-0.063	-0.303
-730.966	-200.000	-0.017	0.402
-729.952	12.067	0.266	-0.210
-728.937	398.176	-0.125	-0.268
-727.923	-191.574	-0.465	-0.005
-726.908	150.104	-0.125	0.174
-725.894	-47.251	-0.286	0.143
-724.879	418.528	0.039	-0.086
-723.864	-59.213	0.086	0.038
-722.850	800.000	-0.100	0.291
-721.835	-71.653	-0.164	0.063
-720.821	171.341	0.165	0.243
-719.806	383.997	-0.150	-0.317
-718.791	67.883	-0.252	-0.265
-717.777	-66.136	-0.254	0.104
-716.762	39.645	0.175	-0.161
-715.748	516.017	0.136	0.326
-714.733	50.348	0.139	0.134
-713.718	-79.544	0.078	0.027
-712.704	439.037	-0.075	-0.167
-711.689	-72.359	-0.345	0.131
-710.675	-66.819	-0.337	-0.137
-709.660	139.805	-0.127	0.171
-708.645	-147.600	-0.278	0.024
-707.631	-200.000	0.034	-0.152
-706.616	494.567	0.097	-0.228
-705.602	498.089	-0.016	-0.038
-704.587	-5.120	-0.327	-0.231
-703.572	800.000	-0.090	0.334
-702.558	117.811	-0.067	-0.084
-701.543	119.156	0.094	0.119
-700.529	57.932	0.183	-0.184
-699.514	-200.000	-0.053	-0.414
-698.499	341.039	0.122	0.244
-697.485	330.211	-0.062	0.122
-696.470	102.199	0.138	-0.165
-695.456	381.001	-0.106	-0.223
-694.441	-11.842	0.236	0.158
-693.426	-115.318	-0.236	0.046
-692.412	-143.286	-0.279	0.027
-691.397	231.136	0.115	0.193
-690.383	-148.103	0.281	-0.024
-689.368	800.000	0.042	-0.144
-688.354	231.956	0.056	-0.094
-687.339	1.041	0.322	0.237
-686.324	-14.003	-0.076	-0.050
-685.310	-200.000	0.004	-0.166
-684.295	800.000	-0.071	-0.258
-683.281	39.285	-0.198	0.182
-682.266	295.844	0.096	0.180
-681.251	-200.000	0.048	-0.262
-680.237	-30.992	-0.176	0.102
-679.222	-11.842	-0.133	-0.089
-678.208	-200.000	0.018	0.415
-677.193	-29.875	-0.111	-0.065
-676.178	800.000	0.083	-0.287
-675.164	800.000	-0.082	-0.235
-674.149	-150.377	0.049	0.004
-673.135	61.414	-0.148	0.150
-672.120	-24.796	-0.109	-0.067
-671.105	-118.876	-0.261	0.047
-670.091	-48.019	-0.091	0.045
-669.076	-157.974	-0.191	0.012
-668.062	-200.000	0.026	-0.398
-667.047	152.097	0.175	-0.244
-666.032	-67.345	0.111	-0.044
-665.018	217.468	-0.053	0.087
-664.003	-200.000	0.026	-0.219
-662.989	-90.647	-0.349	-0.103
-661.974	-200.000	0.052	0.283
-660.959	-200.000	-0.047	0.432
-659.945	16.368	0.039	0.031
-658.930	148.332	0.133	0.184
-657.916	92.207	0.308	0.355
-656.901	337.764	0.142	0.284
-655.886	168.216	0.262	0.382
-654.872	224.185	-0.228	0.377
-653.857	89.238	-0.168	0.192
-652.843	549.791	-0.057	-0.140
-651.828	45.102	-0.190	0.179
-650.814	-81.110	-0.192	0.065
-649.799	-14.541	-0.091	-0.060
-648.784	664.251	-0.133	0.351
-647.770	-121.932	0.081	-0.014
-646.755	-42.355	-0.323	0.169
-645.741	93.041	-0.086	0.100
-644.726	313.151	-0.110	0.212
-643.711	-115.903	-0.071	-0.014
-642.697	26.729	-0.166	0.143
-641.682	620.432	-0.076	0.197
-640.668	-57.191	-0.265	0.119
-639.653	-23.940	-0.198	0.121
-638.638	-63.682	0.036	0.015
-637.624	-6.726	-0.127	-0.089
-636.609	-2.372	-0.168	0.121
-635.595	800.000	-0.086	0.351
-634.580	-8.424	0.123	-0.084
-633.565	-161.665	-0.252	-0.013
-632.551	800.000	0.129	-0.452
-631.536	47.466	0.048	-0.046
-630.522	-200.000	-0.021	0.094
-629.507	-22.417	-0.078	0.048
-628.492	69.781	0.142	0.150
-627.478	-114.261	0.152	-0.030
-626.463	-93.764	-0.116	-0.033
-625.449	-100.864	-0.112	-0.028
-624.434	2.935	-0.344	-0.255
-623.419	-149.767	-0.053	0.004
-622.405	46.480	0.186	-0.176
-621.390	-187.986	-0.101	0.001
-620.376	-200.000	-0.029	-0.299
-619.361	39.170	0.290	0.265
-618.346	-177.712	-0.193	-0.005
-617.332	379.454	-0.100	-0.210
-616.317	499.406	-0.031	-0.073
-615.303	-200.000	-0.051	-0.239
-614.288	-200.000	0.009	-0.253
-613.273	-164.313	0.130	-0.006
-612.259	-200.000	0.045	-0.215
-611.244	-200.000	-0.009	-0.281
-610.230	182.034	-0.150	0.226
-609.215	61.172	0.216	0.219
-608.201	-200.000	-0.067	0.391
-607.186	-61.659	-0.109	-0.047
-606.171	-118.065	0.418	-0.076
-605.157	-89.766	0.249	0.074
-604.142	-169.205	-0.134	-0.005
-603.128	-58.369	-0.362	-0.161
-602.113	-144.925	-0.540	-0.050
-601.098	198.144	-0.044	-0.069
-600.084	-200.000	-0.007	-0.255
-599.069	108.822	0.252	-0.308
-598.055	-132.473	-0.009	0.001
-597.040	-150.478	0.185	0.015
-596.025	-200.000	-0.031	-0.147
-595.011	560.764	-0.118	0.292
-593.996	-66.165	0.125	0.051
-592.982	34.500	-0.120	-0.107
-591.967	32.870	0.054	-0.048
-590.952	-183.294	-0.033	-0.001
-589.938	113.971	0.176	0.218
-588.923	118.731	-0.123	0.156
-587.909	229.768	0.081	0.135
-586.894	198.900	0.085	-0.134
-585.879	390.394	0.031	0.065
-584.865	-200.000	0.003	0.033
-583.850	-33.369	-0.212	-0.120
-582.836	800.000	-0.063	-0.184
-581.821	-17.040	-0.206	-0.133
-580.806	-200.000	-0.039	0.512
-579.792	-184.092	0.333	-0.006
-578.777	503.624	-0.105	-0.249
-577.763	-130.175	0.018	-0.003
-576.748	-58.098	-0.210	-0.093
-575.733	219.051	-0.076	-0.124
-574.719	535.344	-0.097	0.234
-573.704	326.262	0.082	0.161
-572.690	-200.000	-0.009	-0.174
-571.675	-75.855	0.345	0.125
-570.661	-134.633	0.209	0.026
-569.646	61.902	-0.138	0.140
-568.631	17.849	-0.127	-0.103
-567.617	361.078	-0.052	-0.106
-566.602	-24.193	-0.137	-0.083
-565.588	-200.000	0.001	0.113
-564.573	-200.000	0.135	-0.755
-563.558	-200.000	0.065	-0.335
-562.544	-41.828	0.201	-0.105
-561.529	-191.095	0.138	0.001
-560.515	-200.000	0.077	-0.368
-559.500	87.127	-0.241	0.271
-558.485	439.701	-0.091	-0.202
-557.471	-162.022	0.220	-0.011
-556.456	2.665	0.213	-0.157
-555.442	-200.000	-0.030	-0.169
-554.427	-156.820	-0.260	-0.016
-553.412	-162.839	-0.423	0.021
-552.398	40.707	0.303	-0.279
-551.383	59.735	-0.084	0.084
-550.369	800.000	-0.057	0.172
-549.354	-98.977	0.191	0.049
-548.339	-85.843	0.209	-0.066
-547.325	-33.446	0.173	0.097
-546.310	-3.682	-0.282	-0.200
-545.296	386.998	-0.065	-0.137
-544.281	97.183	0.147	0.172
-543.266	-0.852	-0.128	0.092
-542.252	-200.000	-0.016	-0.074
-541.237	-123.523	-0.171	-0.028
-540.223	800.000	0.063	0.208
-539.208	-42.862	-0.215	0.111
-538.193	124.496	-0.091	0.116
-537.179	-200.000	-0.015	-0.129
-536.164	-29.157	0.211	-0.123
-535.150	294.949	-0.073	0.136
-534.135	-27.065	-0.168	-0.100
-533.121	-129.922	0.433	0.060
-532.106	290.157	-0.165	0.304
-531.091	-97.961	-0.130	0.034
-530.077	174.608	-0.065	-0.096
-529.062	90.168	-0.071	0.081
-528.048	-200.000	-0.025	-0.112
-527.033	-200.000	0.010	0.148
-526.018	-140.510	0.416	0.044
-525.004	-182.346	-0.124	0.002
-523.989	800.000	0.064	0.198
-522.975	-14.680	0.132	0.086
-521.960	29.435	-0.177	0.154
-520.945	-79.667	0.043	0.015
-519.931	109.567	-0.086	0.105
-518.916	92.776	0.149	-0.171
-517.902	-2.108	0.149	-0.107
-516.887	428.799	-0.073	0.162
-515.872	-41.124	0.057	0.030
-514.858	-200.000	0.018	-0.168
-513.843	-200.000	0.001	0.325
-512.829	-89.719	-0.242	-0.072
-511.814	-39.896	-0.278	0.148
-510.799	-12.569	0.140	-0.093
-509.785	725.218	-0.040	-0.110
-508.770	476.550	-0.068	0.157
-507.756	-105.222	0.218	0.051
-506.741	-23.661	0.116	0.071
-505.726	-108.360	0.241	-0.053
-504.712	-99.508	-0.093	0.024
-503.697	243.656	-0.042	0.071
-502.683	-200.000	-0.018	-0.089
-501.668	-17.599	0.091	0.058
-500.653	-104.358	-0.276	0.065
-499.639	32.064	0.126	0.110
-498.624	-200.000	0.006	-0.050
-497.610	28.170	-0.276	-0.237
-496.595	-58.104	0.154	-0.068
-495.581	-41.180	0.398	-0.209
-494.566	800.000	-0.042	-0.124
-493.551	16.486	-0.165	0.133
-492.537	180.401	0.162	0.241
-491.522	-114.883	-0.084	-0.016
-490.508	-6.335	0.134	0.093
-489.493	-200.000	-0.008	-0.372
-488.478	-200.000	-0.012	-0.163
-487.464	36.122	0.168	-0.151
-486.449	-119.077	-0.237	-0.042
-485.435	31.720	-0.086	0.076
-484.420	-54.010	0.194	-0.090
-483.405	-145.922	-0.061	-0.005
-482.391	-131.268	0.322	0.043
-481.376	707.194	0.084	-0.225
-480.362	-200.000	-0.010	0.089
-479.347	670.838	-0.073	-0.192
-478.332	-89.058	0.080	-0.024
-477.318	-64.021	0.320	0.133
-476.303	-200.000	0.066	-0.358
-475.289	-17.005	-0.395	0.254
-474.274	405.756	0.032	0.069
-473.259	65.871	0.105	0.109
-472.245	-73.578	0.212	0.079
-471.230	116.765	0.086	-0.108
-470.216	145.748	0.075	0.102
-469.201	-37.819	0.229	0.124
-468.186	-60.095	0.172	-0.075
-467.172	-101.971	0.349	0.086
-466.157	-87.943	-0.269	-0.082
-465.143	639.776	0.058	0.150
-464.128	-200.000	0.034	0.485
-463.113	-200.000	0.005	0.027
-462.099	-104.981	-0.163	-0.038
-461.084	-36.261	0.358	-0.196
-460.070	-80.817	-0.190	-0.064
-459.055	32.003	0.303	-0.265
-458.040	-200.000	-0.131	-0.768
-457.026	27.876	-0.528	0.452
-456.011	800.000	-0.066	0.225
-454.997	306.209	-0.121	-0.228
-453.982	800.000	0.030	0.116
-452.968	-71.694	-0.257	0.097
-451.953	106.104	-0.091	0.110
-450.938	194.936	0.054	0.083
-449.924	800.000	0.052	-0.175
-448.909	-125.583	0.309	0.048
-447.895	-47.739	0.097	0.048
-446.880	-200.000	0.015	-0.329
-445.865	121.718	0.059	0.075
-444.851	4.004	-0.337	0.250
-443.836	800.000	-0.035	0.129
-442.822	-200.000	-0.012	-0.319
-441.807	127.880	0.070	-0.090
-440.792	17.173	0.361	0.291
-439.778	-5.933	-0.190	-0.132
-438.763	-63.631	-0.255	-0.106
-437.749	-70.397	0.194	0.075
-436.734	800.000	0.036	0.120
-435.719	-200.000	0.008	0.067
-434.705	5.413	-0.152	0.114
-433.690	-79.210	-0.065	-0.022
-432.676	-200.000	-0.006	0.171
-431.661	-40.483	0.041	0.022
-430.646	800.000	0.034	-0.124
-429.632	-149.809	-0.078	0.006
-428.617	335.285	-0.096	0.189
-427.603	-174.941	0.158	-0.004
-426.588	12.258	-0.248	-0.194
-425.573	654.998	0.073	0.191
-424.559	36.739	0.039	0.035
-423.544	747.430	0.111	0.303
-422.530	98.720	-0.312	0.365
-421.515	650.779	0.157	-0.408
-420.500	-200.000	0.002	-0.187
-419.486	-0.039	-0.237	0.171
-418.471	293.375	0.103	-0.191
-417.457	-36.102	0.181	-0.099
-416.442	-56.437	-0.291	-0.131
-415.428	-68.416	0.227	0.089
-414.413	206.917	-0.053	-0.084
-413.398	655.513	0.009	-0.022
-412.384	-117.208	0.236	0.044
-411.369	310.839	0.199	0.377
-410.355	-6.867	0.102	-0.070
-409.340	-40.599	-0.197	-0.104
-408.325	232.565	0.013	0.022
-407.311	-200.000	-0.029	0.238
-406.296	-75.646	-0.166	0.060
-405.282	109.376	0.272	-0.330
-404.267	-106.358	-0.092	0.021
-403.252	74.660	0.241	0.257
-402.238	-18.261	0.178	0.113
-401.223	371.774	0.055	0.114
-400.209	18.934	-0.104	0.085
-399.194	-83.943	0.146	-0.047
-398.179	-90.109	-0.163	-0.048
-397.165	55.305	-0.106	-0.104
-396.150	-100.004	0.154	0.039
-395.136	-157.392	0.191	0.012
-394.121	10.523	0.363	-0.280
-393.106	253.995	-0.144	0.250
-392.092	-33.056	0.132	-0.074
-391.077	-200.000	0.002	0.153
-390.063	36.658	0.155	-0.139
-389.048	-200.000	0.000	-0.155
-388.033	-200.000	0.031	-0.184
-387.019	800.000	0.007	0.030
-386.004	800.000	0.040	-0.122
-384.990	800.000	0.034	0.118
-383.975	-200.000	-0.032	-0.179
-382.960	-4.373	0.287	-0.201
-381.946	122.664	0.237	0.300
-380.931	407.717	0.059	-0.126
-379.917	183.147	0.049	0.073
-378.902	15.173	0.117	0.093
-377.888	-85.430	0.626	-0.198
-376.873	152.455	0.072	0.099
-375.858	121.662	-0.137	0.173
-374.844	590.748	0.075	-0.188
-373.829	-200.000	0.006	0.110
-372.815	-21.617	0.205	-0.126
-371.800	78.898	0.062	-0.067
-370.785	-116.309	-0.062	0.012
-369.771	281.995	-0.147	0.266
-368.756	-143.711	0.313	0.030
-367.742	-24.635	0.214	0.129
-366.727	-200.000	-0.006	0.082
-365.712	800.000	-0.028	0.113
-364.698	127.546	0.041	0.052
-363.683	-200.000	-0.009	0.146
-362.669	-76.254	0.285	0.102
-361.654	-200.000	-0.036	0.213
-360.639	800.000	0.029	0.111
-359.625	84.856	-0.078	-0.087
-358.610	-200.000	0.004	0.113
-357.596	131.728	0.094	0.122
-356.581	-91.223	0.298	0.086
-355.566	275.333	0.170	0.304
-354.552	-58.579	-0.270	0.119
-353.537	-97.591	-0.232	-0.061
-352.523	-53.631	0.036	-0.017
-351.508	52.189	0.151	-0.145
-350.493	-200.000	-0.042	0.234
-349.479	-200.000	-0.016	0.313
-348.464	-122.499	-0.096	0.016
-347.450	800.000	-0.053	-0.207
-346.435	-200.000	0.006	0.035
-345.420	800.000	-0.059	0.189
-344.406	-200.000	0.055	0.254
-343.391	-200.000	0.006	0.170
-342.377	-187.204	0.239	-0.003
-341.362	46.863	-0.108	-0.101
-340.348	800.000	-0.069	0.228
-339.333	232.154	-0.121	-0.200
-338.318	317.675	-0.158	0.302
-337.304	787.839	-0.054	-0.151
-336.289	101.855	-0.126	-0.149
-335.275	-200.000	0.030	-0.216
-334.260	-200.000	-0.028	0.131
-333.245	526.398	-0.088	-0.211
-332.231	-200.000	-0.012	0.170
-331.216	-45.510	-0.131	-0.066
-330.202	800.000	-0.081	-0.257
-329.187	-198.473	-0.104	-0.001
-328.172	-200.000	-0.302	-0.001
-327.158	-41.115	0.196	0.102
-326.143	800.000	0.106	0.359
-325.129	-156.877	0.038	0.002
-324.114	41.530	0.239	-0.219
-323.099	-63.119	0.132	0.055
-322.085	190.032	-0.043	0.065
-321.070	-111.423	-0.249	-0.051
-320.056	519.064	0.068	0.161
-319.041	52.665	-0.315	0.305
-318.026	800.000	-0.062	-0.250
-317.012	5.527	0.120	0.090
-315.997	-200.000	-0.022	0.323
-314.983	-157.288	-0.167	0.010
-313.968	-40.625	-0.038	0.020
-312.953	17.931	0.083	-0.067
-311.939	-163.093	-0.207	-0.010
-310.924	800.000	-0.058	0.191
-309.910	-63.188	-0.163	0.068
-308.895	-67.194	-0.242	0.096
-307.880	-135.265	-0.248	-0.030
-306.866	96.523	0.156	-0.180
-305.851	-125.203	-0.193	-0.030
-304.837	-33.756	0.270	0.150
-303.822	118.081	-0.105	0.130
-302.807	-34.895	-0.178	0.098
-301.793	-88.662	-0.078	0.023
-300.778	12.539	0.393	0.306
-299.764	-200.000	-0.030	-0.441
-298.749	800.000	-0.031	0.120
-297.735	-69.501	-0.472	-0.183
-296.720	191.602	-0.135	0.206
-295.705	164.159	0.078	0.111
-294.691	-132.712	-0.242	-0.031
-293.676	-49.797	0.291	-0.139
-292.662	616.048	0.035	0.089
-291.647	164.552	-0.227	-0.323
-290.632	-24.440	0.045	0.027
-289.618	109.164	0.133	-0.160
-288.603	-95.362	-0.234	-0.063
-287.589	72.025	0.049	-0.051
-286.574	260.380	0.083	-0.144
-285.559	296.139	-0.074	0.136
-284.545	79.285	-0.306	-0.331
-283.530	-200.000	0.030	-0.231
-282.516	-118.471	0.141	-0.025
-281.501	15.202	0.220	0.174
-280.486	15.432	0.184	0.146
-279.472	241.859	-0.164	0.277
-278.457	347.528	0.017	-0.033
-277.443	206.208	-0.037	0.058
-276.428	39.398	0.184	-0.167
-275.413	52.202	0.096	0.092
-274.399	628.037	0.027	-0.070
-273.384	-69.845	0.307	0.118
-272.370	178.558	-0.105	-0.155
-271.355	-103.880	0.169	-0.040
-270.340	116.085	-0.200	-0.247
-269.326	314.325	-0.053	-0.101
-268.311	-200.000	0.000	-0.021
-267.297	120.969	0.148	-0.185
-266.282	181.294	0.092	-0.136
-265.267	-162.913	-0.241	0.012
-264.253	113.861	-0.047	0.057
-263.238	701.198	0.084	-0.224
-262.224	396.056	-0.103	0.217
-261.209	800.000	-0.070	-0.240
-260.195	800.000	-0.013	0.042
-259.180	-90.999	0.339	-0.098
-258.165	-129.156	-0.105	-0.015
-257.151	323.862	0.044	0.084
-256.136	14.950	0.166	0.131
-255.122	58.647	-0.354	0.350
-254.107	-91.719	-0.185	0.053
-253.092	460.901	0.049	-0.109
-252.078	-29.816	-0.124	-0.071
-251.063	-113.514	0.328	0.065
-250.049	35.948	-0.177	-0.157
-249.034	-83.516	0.174	0.056
-248.019	270.850	0.045	-0.081
-247.005	-191.021	-0.011	0.000
-245.990	-69.428	0.156	0.060
-244.976	-87.012	0.173	-0.053
-243.961	-141.825	-0.216	0.022
-242.946	-200.000	0.049	0.251
-241.932	-84.703	-0.176	0.056
-240.917	-1.810	0.183	-0.130
-239.903	-30.954	0.244	0.139
-238.888	105.366	-0.128	-0.152
-237.873	-115.990	0.082	-0.015
-236.859	-200.000	-0.014	0.070
-235.844	-200.000	0.017	-0.297
-234.830	-80.289	-0.165	-0.055
-233.815	-52.685	0.210	-0.098
-232.800	-103.214	-0.217	-0.052
-231.786	-41.396	0.260	-0.135
-230.771	72.134	0.192	-0.201
-229.757	42.675	0.232	0.213
-228.742	-41.103	-0.311	-0.161
-227.727	106.266	-0.141	-0.168
-226.713	227.796	0.062	-0.101
-225.698	8.929	0.142	-0.108
-224.684	76.315	-0.245	0.262
-223.669	-21.179	0.067	0.041
-222.655	46.798	0.177	-0.166
-221.640	179.970	0.169	-0.250
-220.625	-200.000	0.030	0.341
-219.611	136.495	-0.086	0.113
-218.596	111.667	0.082	-0.100
-217.582	-36.823	0.336	-0.181
-216.567	-200.000	0.071	-0.423
-215.552	178.265	-0.048	-0.070
-214.538	-111.143	0.326	0.067
-213.523	715.975	0.135	0.360
-212.509	22.849	0.263	-0.217
-211.494	800.000	-0.018	0.076
-210.479	3.459	0.401	0.294
-209.465	138.730	-0.199	0.262
-208.450	0.148	-0.198	0.142
-207.436	16.072	0.126	0.100
-206.421	28.266	0.010	0.008
-205.406	-200.000	0.043	-0.526
-204.392	-93.452	-0.310	0.086
-203.377	-57.100	-0.316	-0.140
-202.363	74.914	-0.217	0.229
-201.348	-92.821	-0.239	0.067
-200.333	800.000	0.113	-0.410
-199.319	353.929	0.076	-0.151
-198.304	10.458	0.190	-0.146
-197.290	89.341	-0.037	-0.042
-196.275	-200.000	-0.011	-0.105
-195.260	21.280	-0.121	-0.099
-194.246	-174.814	-0.266	0.008
-193.231	-200.000	0.017	0.362
-192.217	288.962	-0.117	-0.213
-191.202	751.993	-0.061	-0.165
-190.187	-72.574	-0.168	-0.062
-189.173	763.805	0.025	0.068
-188.158	-200.000	-0.079	0.582
-187.144	-51.434	-0.078	-0.036
-186.129	-78.112	0.145	0.050
-185.114	-124.440	-0.143	-0.022
-184.100	666.044	0.111	-0.288
-183.085	-84.271	-0.281	-0.090
-182.071	41.621	-0.340	-0.310
-181.056	800.000	-0.050	0.218
-180.042	-41.571	-0.143	-0.074
-179.027	414.290	-0.105	0.224
-178.012	178.623	-0.131	-0.192
-176.998	-200.000	0.019	0.160
-175.983	-62.641	-0.066	-0.027
-174.969	-75.940	-0.279	-0.099
-173.954	203.600	-0.213	-0.330
-172.939	800.000	0.063	0.204
-171.925	-9.472	-0.024	0.016
-170.910	348.261	-0.096	0.189
-169.896	-87.196	0.184	0.056
-168.881	-200.000	-0.041	0.265
-167.866	-118.093	0.096	0.017
-166.852	-80.978	0.196	0.065
-165.837	168.851	-0.152	0.217
-164.823	-200.000	-0.010	0.152
-163.808	202.189	0.053	-0.083
-162.793	30.065	-0.183	0.156
-161.779	-200.000	-0.011	0.136
-160.764	-4.491	0.172	-0.119
-159.750	182.945	-0.052	-0.077
-158.735	-150.373	0.319	-0.025
-157.720	221.544	-0.085	-0.138
-156.706	75.810	0.220	-0.234
-155.691	22.406	-0.120	-0.098
-154.677	144.350	0.226	0.303
-153.662	-20.202	-0.196	-0.121
-152.647	-55.263	-0.301	-0.136
-151.633	-200.000	0.067	-0.352
-150.618	596.031	-0.126	0.314
-149.604	800.000	-0.047	0.193
-148.589	-200.000	-0.027	0.165
-147.574	-200.000	-0.006	-0.169
-146.560	-8.516	-0.291	-0.196
-145.545	13.141	0.011	0.009
-144.531	-200.000	0.002	0.084
-143.516	-65.070	0.254	-0.103
-142.502	-182.862	0.156	-0.003
-141.487	-200.000	-0.005	0.130
-140.472	204.219	-0.050	0.077
-139.458	-131.269	0.176	0.023
-138.443	-200.000	-0.001	0.223
-137.429	-84.590	0.210	0.066
-136.414	55.444	0.276	-0.268
-135.399	800.000	-0.060	-0.237
-134.385	-62.359	-0.218	0.091
-133.370	76.410	0.249	-0.265
-132.356	-200.000	0.014	0.067
-131.341	-44.384	0.166	0.083
-130.326	-72.193	0.208	0.077
-129.312	739.321	-0.075	0.201
-128.297	-70.305	0.178	-0.068
-127.283	89.754	-0.223	0.249
-126.268	34.631	-0.182	0.159
-125.253	42.283	-0.081	0.074
-124.239	35.586	0.056	0.050
-123.224	15.710	-0.454	-0.358
-122.210	117.583	-0.203	0.250
-121.195	-21.620	-0.234	0.143
-120.180	199.882	0.085	0.130
-119.166	18.102	-0.120	-0.096
-118.151	651.878	0.109	0.279
-117.137	179.383	-0.094	-0.137
-116.122	-68.034	0.063	-0.024
-115.107	800.000	-0.125	-0.346
-114.093	-200.000	-0.002	-0.223
-113.078	-200.000	-0.008	-0.226
-112.064	-120.150	0.093	-0.016
-111.049	-158.372	0.288	-0.017
-110.034	-16.729	0.246	-0.156
-109.020	5.458	0.121	0.090
-108.005	800.000	-0.125	0.364
-106.991	307.242	-0.129	-0.241
-105.976	800.000	0.037	-0.106
-104.962	-24.993	-0.110	-0.065
-103.947	-200.000	-0.043	0.371
-102.932	800.000	0.113	0.342
-101.918	800.000	0.008	0.027
-100.903	561.371	0.077	-0.186
-99.889	125.861	-0.149	-0.188
-98.874	129.993	0.174	-0.224
-97.859	-38.355	0.124	-0.066
-96.845	-79.896	-0.361	-0.121
-95.830	327.630	0.235	-0.451
-94.816	-89.053	-0.040	-0.012
-93.801	661.141	-0.084	-0.216
-92.786	-23.758	0.052	0.031
-91.772	-200.000	0.002	-0.207
-90.757	-200.000	-0.104	0.487
-89.743	-2.507	0.130	0.091
-88.728	-115.578	0.185	-0.035
-87.713	-200.000	-0.025	0.292
-86.699	-103.333	-0.268	-0.063
-85.684	-200.000	-0.048	-0.317
-84.670	-200.000	-0.022	-0.297
-83.655	57.757	-0.062	-0.061
-82.640	-200.000	-0.041	0.343
-81.626	800.000	-0.095	-0.321
-80.611	-200.000	0.007	0.151
-79.597	-69.480	0.184	0.071
-78.582	-91.165	-0.233	-0.067
-77.567	-103.897	0.187	-0.044
-76.553	275.457	0.178	0.316
-75.538	-148.587	-0.198	0.016
-74.524	-200.000	0.047	-0.230
-73.509	170.431	-0.087	0.125
-72.494	-74.736	0.288	0.103
-71.480	-5.419	0.084	0.057
-70.465	-138.424	0.327	0.036
-69.451	13.513	-0.188	0.146
-68.436	800.000	-0.071	0.286
-67.422	78.276	-0.103	-0.110
-66.407	109.906	0.274	-0.329
-65.392	289.393	0.106	-0.192
-64.378	68.033	0.160	-0.164
-63.363	-56.164	0.237	-0.106
-62.349	-18.624	-0.093	-0.058
-61.334	193.530	-0.510	-0.771
-60.319	800.000	-0.049	0.175
-59.305	414.901	0.284	-0.604
-58.290	800.000	0.183	0.799
-57.276	475.259	0.645	1.457
-56.261	-200.000	69.624	520.206
-55.246	586.061	1251.841	3078.602
-54.232	140.337	2503.142	3302.934
-53.217	113.017	2356.304	2855.990
-52.203	54.579	1979.013	1907.423
-51.188	48.211	1767.182	1652.845
-50.173	45.228	1719.531	1585.117
-49.159	58.353	1749.485	1715.311
-48.144	65.504	1768.281	1789.344
-47.130	48.165	1733.058	1620.313
-46.115	44.729	1719.939	1581.363
-45.100	44.578	1715.499	1576.052
-44.086	44.572	1712.266	1572.973
-43.071	44.569	1709.827	1570.648
-42.057	44.524	1707.497	1568.097
-41.042	44.616	1704.844	1566.304
-40.027	44.652	1703.195	1565.004
-39.013	44.590	1701.244	1562.677
-37.998	44.703	1699.010	1561.426
-36.984	44.679	1697.760	1560.034
-35.969	44.743	1696.604	1559.397
-34.954	44.749	1694.863	1557.780
-33.940	44.747	1692.639	1555.659
-32.925	44.738	1691.065	1554.087
-31.911	44.792	1689.389	1552.894
-30.896	44.729	1687.487	1550.603
-29.881	44.776	1685.563	1549.131
-28.867	44.764	1684.028	1547.571
-27.852	44.760	1682.526	1546.101
-26.838	44.722	1681.126	1544.462
-25.823	44.788	1679.207	1543.135
-24.809	44.845	1677.791	1542.208
-23.794	44.780	1676.766	1540.712
-22.779	44.840	1674.586	1539.101
-21.765	44.821	1673.176	1537.600
-20.750	44.740	1671.721	1535.587
-19.736	44.857	1669.689	1534.544
-18.721	44.690	1669.046	1532.634
-17.706	44.741	1667.325	1531.380
-16.692	44.715	1664.880	1528.880
-15.677	44.760	1663.925	1528.278
-14.663	44.815	1662.304	1527.136
-13.648	44.761	1661.049	1525.521
-12.633	44.783	1659.199	1523.923
-11.619	44.862	1657.537	1522.927
-10.604	44.790	1655.879	1520.805
-9.590	44.791	1654.630	1519.605
-8.575	44.716	1653.932	1518.344
-7.560	44.688	1652.845	1517.083
-6.546	44.756	1651.026	1515.859
-5.531	44.741	1649.726	1514.489
-4.517	44.731	1648.642	1513.360
-3.502	44.747	1647.724	1512.581
-2.487	44.950	1645.844	1512.295
-1.473	44.737	1635.536	1501.197
-0.458	41.829	1613.405	1459.636
0.556	33.959	1607.744	1409.887
1.571	29.735	1628.133	1395.829
2.586	28.093	1641.274	1394.466
3.600	24.950	1589.426	1327.043
4.615	16.232	1477.168	1172.890
5.629	8.350	1406.028	1063.971
6.644	6.613	1395.616	1044.503
7.659	6.437	1394.476	1042.394
8.673	6.450	1392.872	1041.194
9.688	6.301	1391.361	1038.983
10.702	6.183	1388.894	1036.274
11.717	9.390	1395.078	1061.994
12.731	16.346	1408.238	1118.122
13.746	18.993	1411.515	1138.164
14.761	17.347	1406.513	1123.170
15.775	15.983	1403.706	1111.828
16.790	14.998	1400.818	1102.957
17.804	13.997	1398.523	1094.463
18.819	13.614	1396.977	1090.636
19.834	13.317	1395.443	1087.385
20.848	13.096	1394.155	1084.836
21.863	12.819	1392.772	1081.843
22.877	12.701	1391.431	1079.937
23.892	12.594	1390.556	1078.460
24.907	12.638	1389.687	1077.975
25.921	12.679	1388.475	1077.208
26.936	12.718	1388.013	1077.009
27.950	12.627	1387.137	1075.642
28.965	12.774	1385.873	1075.525
29.980	12.796	1384.796	1074.740
30.994	12.837	1383.411	1073.834
32.009	12.894	1382.725	1073.582
33.023	12.859	1381.414	1072.237
34.038	12.908	1379.651	1071.096
35.053	12.883	1378.502	1069.946
36.067	12.852	1377.300	1068.716
37.082	12.756	1376.337	1067.252
38.096	12.911	1375.143	1067.238
39.111	12.920	1374.359	1066.590
40.126	12.819	1373.449	1065.141
41.140	12.691	1372.586	1063.545
42.155	12.638	1371.909	1062.589
43.169	12.637	1371.585	1062.234
44.184	12.549	1371.732	1061.686
45.199	12.619	1370.983	1061.467
46.213	12.625	1370.614	1061.123
47.228	12.717	1369.902	1061.072
48.242	12.760	1368.137	1059.885
49.257	12.705	1366.811	1058.415
50.271	12.768	1365.355	1057.597
51.286	12.827	1363.651	1056.561
52.301	12.789	1362.604	1055.411
53.315	12.765	1361.561	1054.359
54.330	12.560	1360.486	1052.119
55.344	12.600	1359.672	1051.655
56.359	12.639	1358.314	1050.758
57.374	12.656	1357.154	1049.880
58.388	12.489	1356.681	1048.351
59.403	12.471	1356.280	1047.838
60.417	12.566	1355.659	1047.867
61.432	12.533	1354.593	1046.741
62.447	12.481	1353.592	1045.547
63.461	12.490	1352.437	1044.621
64.476	12.359	1351.363	1042.864
65.490	12.508	1349.891	1042.580
66.505	12.464	1348.501	1041.134
67.520	12.504	1347.381	1040.434
68.534	12.534	1346.017	1039.481
69.549	12.493	1345.041	1038.372
70.563	12.399	1344.365	1037.167
71.578	12.406	1343.308	1036.304
72.593	12.316	1342.359	1034.909
73.607	12.339	1341.225	1034.089
74.622	12.482	1340.044	1033.988
75.636	12.287	1339.907	1032.566
76.651	12.452	1339.159	1032.936
77.666	12.446	1338.365	1032.193
78.680	12.456	1338.094	1031.957
79.695	12.477	1337.440	1031.492
80.709	12.462	1336.393	1030.498
81.724	12.404	1336.003	1029.744
82.739	12.509	1334.774	1029.364
83.753	12.635	1334.030	1029.487
84.768	12.739	1333.013	1029.257
85.782	12.772	1331.681	1028.343
86.797	12.697	1330.699	1027.026
87.812	12.667	1329.027	1025.463
88.826	12.610	1328.193	1024.372
89.841	12.629	1326.905	1023.405
90.855	12.770	1325.830	1023.360
91.870	12.795	1325.338	1023.046
92.884	12.822	1324.634	1022.582
93.899	12.746	1323.720	1021.313
94.914	12.949	1322.849	1021.808
95.928	12.808	1322.075	1020.250
96.943	12.819	1321.024	1019.411
97.957	12.864	1320.308	1019.052
98.972	12.819	1318.887	1017.583
99.987	12.752	1318.270	1016.604
101.001	12.835	1316.708	1015.822
102.016	12.674	1316.222	1014.365
103.030	12.776	1315.464	1014.319
104.045	12.860	1313.976	1013.597
105.060	12.714	1312.851	1011.745
106.074	12.609	1311.682	1010.111
107.089	12.595	1310.187	1008.785
108.103	12.555	1308.471	1007.130
109.118	12.615	1307.232	1006.452
110.133	12.613	1306.314	1005.643
111.147	12.522	1304.982	1003.976
112.162	12.605	1303.485	1003.238
113.176	12.502	1302.900	1002.072
114.191	12.708	1301.812	1002.401
115.206	12.706	1300.583	1001.351
116.220	12.622	1299.220	999.709
117.235	12.694	1298.056	999.157
118.249	12.553	1297.316	997.647
119.264	12.533	1295.965	996.398
120.279	12.649	1294.775	996.095
121.293	12.592	1293.572	994.738
122.308	12.546	1292.736	993.731
123.322	12.455	1292.083	992.591
124.337	12.664	1290.141	992.271
125.352	12.579	1289.243	990.981
126.366	12.521	1288.284	989.805
127.381	12.617	1287.253	989.502
128.395	12.632	1286.354	988.812
129.410	12.573	1285.757	987.912
130.424	12.659	1284.705	987.534
131.439	12.618	1284.266	986.864
132.454	12.653	1282.937	985.966
133.468	12.722	1281.603	985.268
134.483	12.664	1281.360	984.644
135.497	12.735	1280.013	983.943
136.512	12.696	1278.662	982.588
137.527	12.771	1277.446	982.016
138.541	12.760	1276.043	980.785
139.556	12.768	1274.952	979.905
140.570	12.849	1273.914	979.502
141.585	12.857	1272.986	978.750
142.600	12.877	1271.282	977.472
143.614	13.007	1270.363	977.449
144.629	12.884	1269.656	976.089
145.643	12.970	1267.924	975.181
146.658	12.889	1266.797	973.748
147.673	12.852	1265.738	972.632
148.687	12.821	1264.266	971.230
149.702	12.835	1262.814	970.110
150.716	12.756	1261.477	968.533
151.731	12.771	1260.031	967.426
152.746	12.746	1259.573	966.842
153.760	12.782	1258.177	965.894
154.775	12.876	1256.950	965.418
155.789	12.895	1255.956	964.680
156.804	12.899	1254.768	963.707
157.819	12.901	1253.707	962.817
158.833	12.916	1252.917	962.212
159.848	13.001	1251.979	961.907
160.862	12.931	1250.858	960.552
161.877	12.895	1249.611	959.298
162.892	12.721	1249.076	957.788
163.906	12.763	1247.641	956.851
164.921	12.787	1246.820	956.277
165.935	13.054	1245.041	956.372
166.950	12.896	1244.955	955.307
167.964	12.856	1244.543	954.672
168.979	12.927	1243.785	954.417
169.994	12.839	1243.090	953.290
171.008	12.835	1242.056	952.393
172.023	12.994	1241.359	952.691
173.037	12.974	1240.722	952.001
174.052	13.090	1239.280	951.483
175.067	12.992	1238.608	950.319
176.081	12.854	1237.292	948.429
177.096	12.873	1236.711	948.007
178.110	13.017	1235.359	947.719
179.125	12.876	1234.431	946.112
180.140	12.952	1232.913	945.298
181.154	12.997	1231.901	944.697
182.169	12.973	1230.387	943.315
183.183	13.120	1229.387	943.307
184.198	13.190	1228.262	942.760
185.213	13.117	1226.998	941.286
186.227	13.085	1226.325	940.509
187.242	13.167	1225.069	939.926
188.256	13.237	1224.069	939.473
189.271	13.251	1223.276	938.860
190.286	13.135	1221.527	936.780
191.300	12.941	1221.023	935.208
192.315	12.927	1220.650	934.763
193.329	12.933	1220.273	934.422
194.344	12.955	1219.413	933.808
195.359	13.013	1218.754	933.548
196.373	13.178	1218.116	933.907
197.388	13.149	1217.782	933.404
198.402	13.309	1217.507	934.016
199.417	13.387	1216.706	933.759
200.432	13.402	1215.839	933.095
201.446	13.327	1214.989	931.939
202.461	13.520	1213.603	931.878
203.475	13.508	1212.840	931.145
204.490	13.488	1211.514	929.932
205.504	13.364	1210.340	928.253
206.519	13.381	1208.865	927.134
207.534	13.305	1208.490	926.341
208.548	13.382	1207.255	925.738
209.563	13.420	1206.641	925.403
210.577	13.350	1205.665	924.178
211.592	13.510	1204.540	924.131
212.607	13.514	1204.070	923.706
213.621	13.506	1203.088	922.830
214.636	13.539	1201.887	922.009
215.650	13.447	1201.314	920.979
216.665	13.463	1200.252	920.170
217.680	13.680	1199.194	920.480
218.694	13.598	1198.636	919.515
219.709	13.587	1197.786	918.725
220.723	13.678	1197.148	918.654
221.738	13.590	1196.575	917.648
222.753	13.659	1195.461	917.092
223.767	13.644	1194.852	916.465
224.782	13.753	1194.179	916.468
225.796	13.762	1193.404	915.842
226.811	13.747	1192.968	915.345
227.826	13.683	1192.049	914.207
228.840	13.584	1191.616	913.246
229.855	13.707	1190.750	913.180
230.869	13.729	1189.626	912.355
231.884	13.693	1189.016	911.610
232.899	13.641	1187.989	910.458
233.913	13.605	1187.688	909.949
234.928	13.559	1186.764	908.905
235.942	13.737	1185.424	908.777
236.957	13.705	1184.852	908.081
237.972	13.615	1184.156	906.976
238.986	13.736	1183.408	906.986
240.001	13.562	1183.015	905.652
241.015	13.728	1181.856	905.590
242.030	13.821	1180.855	905.252
243.045	13.855	1180.045	904.735
244.059	13.876	1179.395	904.271
245.074	13.846	1178.633	903.441
246.088	13.811	1178.362	902.963
247.103	13.952	1177.083	902.673
248.117	14.024	1176.647	902.649
249.132	14.036	1176.310	902.376
250.147	14.174	1174.989	902.030
251.161	14.261	1174.240	901.847
252.176	14.187	1173.819	901.044
253.190	14.261	1173.057	900.781
254.205	14.221	1172.598	900.132
255.220	14.363	1171.910	900.288
256.234	14.255	1171.542	899.347
257.249	14.274	1170.522	898.584
258.263	14.239	1170.325	898.166
259.278	14.210	1169.312	897.152
260.293	14.405	1168.096	897.188
261.307	14.430	1168.234	897.347
262.322	14.394	1167.553	896.553
263.336	14.547	1166.591	896.556
264.351	14.438	1166.446	895.783
265.366	14.406	1165.813	895.045
266.380	14.452	1164.957	894.553
267.395	14.434	1164.029	893.666
268.409	14.427	1163.048	892.798
269.424	14.502	1161.872	892.215
270.439	14.461	1161.722	891.804
271.453	14.436	1160.732	890.831
272.468	14.397	1160.175	890.118
273.482	14.392	1159.517	889.506
274.497	14.406	1159.151	889.219
275.512	14.430	1158.476	888.751
276.526	14.429	1157.795	888.143
277.541	14.384	1157.076	887.278
278.555	14.345	1156.598	886.621
279.570	14.499	1155.587	886.590
280.585	14.666	1154.453	886.526
281.599	14.657	1153.353	885.554
282.614	14.561	1152.551	884.354
283.628	14.582	1151.474	883.558
284.643	14.433	1150.337	881.820
285.657	14.547	1149.486	881.692
286.672	14.513	1149.059	881.110
287.687	14.563	1147.961	880.453
288.701	14.644	1147.018	880.075
289.716	14.624	1146.806	879.732
290.730	14.611	1145.929	878.910
291.745	14.612	1145.389	878.428
292.760	14.661	1144.466	877.898
293.774	14.731	1143.715	877.614
294.789	14.706	1143.693	877.388
295.803	14.780	1142.639	876.887
296.818	14.725	1141.821	875.896
297.833	14.757	1140.642	875.079
298.847	14.703	1140.443	874.566
299.862	14.699	1139.292	873.587
300.876	14.781	1138.660	873.455
301.891	14.906	1137.940	873.474
302.906	14.814	1137.275	872.410
303.920	14.916	1136.456	872.238
304.935	14.889	1135.643	871.395
305.949	15.069	1135.038	871.787
306.964	15.070	1134.445	871.264
307.979	14.960	1133.662	870.009
308.993	15.014	1132.689	869.467
310.008	15.034	1131.869	868.868
311.022	15.076	1131.457	868.691
312.037	15.001	1130.325	867.358
313.052	14.984	1129.276	866.385
314.066	14.841	1128.797	865.203
315.081	14.837	1127.675	864.247
316.095	14.900	1126.725	863.765
317.110	14.955	1126.064	863.464
318.125	14.864	1125.499	862.488
319.139	14.987	1124.363	862.175
320.154	14.869	1124.019	861.227
321.168	14.968	1123.394	861.182
322.183	14.982	1122.900	860.797
323.197	14.944	1122.628	860.316
324.212	15.013	1121.599	859.810
325.227	14.988	1121.107	859.225
326.241	15.156	1120.207	859.322
327.256	15.055	1119.531	858.208
328.270	15.054	1118.614	857.424
329.285	15.037	1117.457	856.374
330.300	14.876	1117.120	855.220
331.314	15.009	1116.215	855.131
332.329	15.088	1114.930	854.473
333.343	15.041	1114.073	853.502
334.358	15.213	1112.694	853.244
335.373	15.212	1112.756	853.211
336.387	15.211	1111.547	852.204
337.402	15.056	1111.122	851.015
338.416	15.272	1110.273	851.385
339.431	15.277	1109.926	851.069
340.446	15.239	1109.242	850.280
341.460	15.403	1107.814	849.937
342.475	15.537	1107.352	850.189
343.489	15.553	1106.317	849.397
344.504	15.483	1105.786	848.564
345.519	15.607	1104.806	848.361
346.533	15.502	1103.567	846.807
347.548	15.549	1103.284	846.752
348.562	15.582	1102.274	846.067
349.577	15.474	1101.981	845.222
350.592	15.402	1101.015	844.046
351.606	15.369	1100.502	843.413
352.621	15.372	1099.413	842.519
353.635	15.343	1098.642	841.704
354.650	15.379	1097.830	841.191
355.665	15.513	1097.255	841.347
356.679	15.532	1096.707	840.949
357.694	15.576	1096.158	840.669
358.708	15.482	1095.397	839.541
359.723	15.565	1094.734	839.375
360.738	15.548	1094.392	838.956
361.752	15.637	1093.301	838.489
362.767	15.548	1092.764	837.560
363.781	15.607	1092.248	837.384
364.796	15.665	1091.997	837.403
365.810	15.699	1091.461	837.090
366.825	15.820	1090.716	837.045
367.840	15.907	1090.171	836.983
368.854	15.906	1089.513	836.402
369.869	15.968	1088.757	836.057
370.883	15.861	1087.922	834.808
371.898	15.820	1087.305	834.059
372.913	15.763	1086.865	833.362
373.927	15.833	1086.310	833.212
374.942	15.991	1085.861	833.576
375.956	15.969	1084.850	832.618
376.971	15.885	1084.412	831.791
377.986	15.883	1083.707	831.170
379.000	16.020	1083.159	831.349
380.015	16.035	1082.790	831.069
381.029	15.929	1082.180	830.003
382.044	16.128	1081.140	830.113
383.059	16.109	1080.687	829.598
384.073	16.094	1079.686	828.680
385.088	16.147	1078.799	828.188
386.102	16.168	1078.079	827.663
387.117	16.070	1076.997	826.278
388.132	16.028	1076.120	825.330
389.146	15.981	1075.345	824.431
390.161	15.971	1074.749	823.854
391.175	16.018	1073.955	823.403
392.190	16.159	1073.307	823.522
393.205	16.139	1072.897	823.032
394.219	16.125	1072.019	822.222
395.234	16.224	1070.817	821.707
396.248	16.109	1069.799	820.295
397.263	16.171	1068.691	819.676
398.278	16.141	1068.082	818.989
399.292	16.061	1067.493	818.074
400.307	16.046	1066.650	817.286
401.321	16.207	1066.089	817.562
402.336	16.180	1065.153	816.641
403.350	16.163	1064.340	815.864
404.365	16.151	1063.819	815.337
405.380	16.163	1063.167	814.818
406.394	16.218	1062.479	814.485
407.409	16.298	1061.804	814.284
408.423	16.279	1061.329	813.753
409.438	16.486	1060.071	813.716
410.453	16.431	1059.787	813.159
411.467	16.488	1058.929	812.704
412.482	16.488	1058.384	812.212
413.496	16.431	1057.743	811.376
414.511	16.474	1057.067	810.993
415.526	16.643	1056.726	811.471
416.540	16.673	1056.336	811.241
417.555	16.532	1055.739	810.038
418.569	16.496	1055.193	809.372
419.584	16.453	1054.700	808.717
420.599	16.732	1053.760	809.261
421.613	67.766	1264.687	1254.814
422.628	62.275	1295.451	1254.958
