DTS Sentinel unit serial number:	SN413079Multiplexer serial number:	ORYXHardware model number:	OX4-SRSoftware version number:	ORYX F/W v4.00 Oryx Data Collector v3.7.2.0data status	okinstallation	princeton_trtdifferential loss correction	single-endedforward channel	channel 2reverse channel	N/Adate	2019/09/15time	05:51:34forward acquisition time	60.00reverse acquisition time	0.00gamma	496.2192k internal	0.2326k external	0.2326temperature offset calibration	1.0037default loss term (dB/km)	0.3790temperature slope calibration	1.0000multiplexer offset coefficient	1.0000multiplexer slope coefficient	1.0000fibre end	0.00T internal ref (°C)	30.62T ext. ref 1 (°C)	4.85T ext. ref 2 (°C)	25.53length (m)	temperature (°C)	Stokes	anti-Stokes-747.200	-200.000	0.027	0.137
-746.185	50.811	-0.072	-0.069
-745.171	-16.719	0.103	0.066
-744.156	-200.000	0.016	0.339
-743.142	-78.234	0.097	0.033
-742.127	-200.000	0.063	0.537
-741.112	-113.631	0.214	0.042
-740.098	182.327	-0.095	0.141
-739.083	-30.957	0.172	0.098
-738.069	565.985	0.078	0.190
-737.054	-92.069	0.079	0.023
-736.039	-48.357	-0.121	-0.059
-735.025	-109.169	-0.225	-0.048
-734.010	87.179	-0.367	-0.409
-732.996	-170.357	0.103	0.004
-731.981	131.921	0.201	-0.260
-730.966	-29.404	0.457	-0.263
-729.952	-37.745	-0.424	-0.227
-728.937	-27.877	-0.141	-0.082
-727.923	-200.000	0.031	0.150
-726.908	-49.991	-0.113	0.054
-725.894	17.144	-0.279	-0.223
-724.879	407.011	0.180	0.383
-723.864	-36.421	-0.192	-0.104
-722.850	-79.470	-0.178	-0.061
-721.835	-200.000	-0.045	-0.271
-720.821	-98.062	0.190	-0.049
-719.806	800.000	0.047	0.139
-718.791	-140.588	-0.157	0.016
-717.777	80.591	-0.141	-0.153
-716.762	-120.550	-0.327	-0.056
-715.748	-200.000	-0.043	-0.250
-714.733	156.447	-0.065	-0.091
-713.718	800.000	-0.126	0.379
-712.704	-70.275	-0.127	0.048
-711.689	506.483	-0.145	-0.338
-710.675	-147.852	-0.336	-0.028
-709.660	-138.008	0.323	-0.036
-708.645	-48.039	-0.326	0.159
-707.631	91.041	-0.083	-0.093
-706.616	-124.327	-0.225	-0.035
-705.602	-200.000	0.013	0.141
-704.587	68.172	0.088	-0.090
-703.572	72.010	-0.244	0.255
-702.558	-200.000	0.028	-0.461
-701.543	-33.855	-0.100	0.055
-700.529	-167.459	-0.189	-0.008
-699.514	-200.000	-0.018	0.220
-698.499	-5.360	0.030	-0.021
-697.485	5.934	-0.248	0.185
-696.470	-45.899	0.500	-0.248
-695.456	-58.295	-0.156	0.068
-694.441	-32.636	0.336	-0.188
-693.426	-21.741	-0.210	-0.129
-692.412	16.563	-0.116	-0.092
-691.397	-200.000	-0.024	0.184
-690.383	-75.097	-0.354	-0.128
-689.368	-55.073	0.123	0.056
-688.354	-0.713	0.210	0.150
-687.339	-152.041	-0.378	-0.028
-686.324	343.425	0.119	-0.235
-685.310	338.243	0.114	-0.223
-684.295	-35.729	-0.117	0.064
-683.281	699.265	-0.075	0.197
-682.266	407.884	-0.137	-0.291
-681.251	-22.151	-0.235	0.143
-680.237	-76.676	-0.131	-0.046
-679.222	-141.036	0.082	-0.008
-678.208	775.209	0.051	-0.140
-677.193	-7.852	0.214	-0.145
-676.178	628.285	0.035	-0.089
-675.164	-74.834	-0.252	0.091
-674.149	-200.000	-0.001	-0.281
-673.135	-200.000	-0.018	0.109
-672.120	-101.441	0.078	0.019
-671.105	-141.543	-0.349	0.035
-670.091	266.961	0.096	-0.168
-669.076	-17.190	0.169	0.107
-668.062	106.459	0.184	0.219
-667.047	46.951	-0.127	-0.119
-666.032	-168.315	0.400	-0.015
-665.018	-3.040	-0.053	-0.037
-664.003	-147.346	-0.251	0.021
-662.989	-114.642	0.210	-0.040
-661.974	-21.290	-0.190	0.117
-660.959	442.273	0.074	-0.162
-659.945	37.981	-0.110	-0.098
-658.930	267.040	-0.125	-0.220
-657.916	-109.387	0.290	-0.062
-656.901	-51.785	0.274	0.128
-655.886	-90.100	0.302	-0.088
-654.872	172.267	-0.081	0.117
-653.857	8.335	-0.066	-0.050
-652.843	-30.047	-0.219	0.125
-651.828	104.958	-0.362	-0.429
-650.814	-165.783	-0.285	0.012
-649.799	-200.000	0.000	0.022
-648.784	800.000	0.061	-0.188
-647.770	-172.383	-0.345	-0.011
-646.755	-128.801	-0.481	-0.068
-645.741	-37.693	-0.296	0.159
-644.726	30.703	0.069	0.059
-643.711	687.988	-0.100	0.263
-642.697	800.000	0.052	0.213
-641.682	-200.000	-0.006	-0.327
-640.668	-61.628	0.139	-0.058
-639.653	57.343	-0.255	0.250
-638.638	149.991	0.167	0.228
-637.624	75.371	0.118	-0.125
-636.609	-157.041	-0.019	-0.001
-635.595	-103.093	0.245	-0.058
-634.580	69.020	0.146	-0.150
-633.565	-102.912	-0.167	0.040
-632.551	-13.286	-0.096	0.062
-631.536	800.000	-0.093	0.265
-630.522	-170.891	0.103	-0.004
-629.507	-25.738	-0.309	-0.183
-628.492	497.687	0.045	-0.105
-627.478	90.349	-0.180	-0.202
-626.463	800.000	-0.022	-0.071
-625.449	673.603	-0.064	0.167
-624.434	-73.096	-0.025	0.009
-623.419	800.000	-0.063	0.227
-622.405	-163.602	-0.162	-0.008
-621.390	114.285	-0.085	-0.103
-620.376	579.384	0.111	0.272
-619.361	17.148	-0.158	-0.126
-618.346	800.000	0.053	-0.196
-617.332	-27.384	0.197	0.115
-616.317	800.000	-0.096	0.271
-615.303	115.324	-0.233	-0.285
-614.288	-135.466	-0.056	-0.007
-613.273	-200.000	-0.016	-0.085
-612.259	-139.962	-0.465	0.049
-611.244	116.822	-0.272	-0.336
-610.230	76.957	0.129	0.137
-609.215	-35.445	-0.388	-0.212
-608.201	11.092	-0.055	-0.042
-607.186	-200.000	0.011	-0.226
-606.171	363.133	-0.078	0.158
-605.157	95.488	0.214	-0.244
-604.142	-169.141	0.131	-0.005
-603.128	165.900	-0.071	-0.101
-602.113	-200.000	-0.006	-0.226
-601.098	-200.000	-0.001	0.068
-600.084	-46.774	-0.266	-0.131
-599.069	80.301	-0.029	0.032
-598.055	613.796	0.122	-0.307
-597.040	179.295	-0.089	-0.130
-596.025	-35.386	-0.471	-0.257
-595.011	-200.000	0.021	-0.163
-593.996	169.734	-0.165	0.236
-592.982	-89.885	0.180	0.053
-591.967	-200.000	0.030	0.189
-590.952	-148.527	-0.203	-0.017
-589.938	-200.000	-0.064	-0.282
-588.923	70.964	-0.137	0.142
-587.909	18.197	0.104	-0.083
-586.894	-200.000	-0.048	0.227
-585.879	-83.879	0.401	0.128
-584.865	-151.416	-0.441	0.033
-583.850	-125.639	-0.453	-0.069
-582.836	-114.086	-0.365	0.071
-581.821	25.632	0.105	0.088
-580.806	800.000	-0.105	-0.408
-579.792	-52.103	0.257	-0.120
-578.777	-200.000	0.017	0.299
-577.763	-200.000	-0.003	-0.410
-576.748	-189.350	-0.209	0.002
-575.733	58.276	-0.180	0.176
-574.719	-186.765	-0.099	-0.001
-573.704	800.000	-0.074	0.221
-572.690	-17.063	0.141	0.089
-571.675	529.604	-0.069	0.164
-570.661	-117.359	0.151	-0.027
-569.646	-84.272	0.209	-0.066
-568.631	44.955	-0.207	-0.191
-567.617	-200.000	0.014	0.197
-566.602	-40.879	0.154	-0.080
-565.588	-127.313	0.193	-0.028
-564.573	-30.698	-0.113	0.064
-563.558	19.273	0.263	-0.212
-562.544	-4.696	0.249	0.172
-561.529	-42.259	0.179	0.092
-560.515	-84.968	0.060	0.019
-559.500	-200.000	-0.018	-0.209
-558.485	-122.354	-0.226	0.037
-557.471	-135.913	0.029	-0.003
-556.456	-18.612	0.225	0.141
-555.442	-200.000	0.007	-0.140
-554.427	281.549	-0.033	0.060
-553.412	-82.304	0.359	-0.117
-552.398	-200.000	0.019	-0.395
-551.383	800.000	0.054	0.198
-550.369	-28.059	0.118	0.068
-549.354	-120.299	0.115	-0.020
-548.339	-85.179	0.269	-0.084
-547.325	133.871	0.198	-0.256
-546.310	799.949	-0.016	-0.045
-545.296	-200.000	0.063	-0.296
-544.281	-49.981	-0.234	-0.111
-543.266	-107.155	-0.278	-0.061
-542.252	-85.814	-0.353	-0.110
-541.237	35.113	-0.247	-0.217
-540.223	-43.532	0.192	0.097
-539.208	-99.356	-0.133	0.034
-538.193	-49.363	-0.210	-0.100
-537.179	800.000	-0.012	0.044
-536.164	402.377	-0.064	-0.135
-535.150	-147.026	-0.316	-0.027
-534.135	-136.346	0.207	0.024
-533.121	120.033	-0.090	-0.112
-532.106	-200.000	0.017	-0.104
-531.091	166.483	-0.083	-0.117
-530.077	440.049	0.160	0.350
-529.062	-99.200	0.241	0.061
-528.048	287.756	0.035	-0.063
-527.033	-33.349	-0.201	0.111
-526.018	-66.049	0.070	0.028
-525.004	-60.361	-0.194	0.083
-523.989	-200.000	-0.016	-0.271
-522.975	-200.000	-0.042	0.274
-521.960	-45.781	-0.506	0.250
-520.945	-145.271	0.154	0.014
-519.931	-97.521	0.055	0.014
-518.916	-119.206	0.164	-0.029
-517.902	170.145	-0.191	0.273
-516.887	800.000	0.031	0.135
-515.872	-140.446	0.328	-0.034
-514.858	-134.683	-0.238	-0.029
-513.843	-34.084	-0.184	0.101
-512.829	-58.054	0.202	0.088
-511.814	800.000	-0.073	-0.257
-510.799	-200.000	0.058	-0.326
-509.785	147.045	-0.090	0.121
-508.770	355.424	-0.077	0.152
-507.756	-200.000	-0.019	-0.204
-506.741	800.000	-0.034	0.100
-505.726	-22.913	0.207	0.125
-504.712	-119.503	0.123	0.021
-503.697	-200.000	-0.007	0.049
-502.683	113.763	0.213	0.259
-501.668	-178.393	0.341	0.008
-500.653	-1.672	-0.201	-0.141
-499.639	-200.000	0.010	0.356
-498.624	576.426	0.191	0.466
-497.610	-200.000	-0.031	0.310
-496.595	800.000	0.009	0.027
-495.581	399.798	0.064	-0.134
-494.566	0.567	-0.302	-0.216
-493.551	-63.979	0.160	0.065
-492.537	-200.000	0.017	-0.130
-491.522	800.000	-0.150	0.478
-490.508	-200.000	0.004	-0.131
-489.493	10.715	0.284	0.216
-488.478	-95.448	0.245	0.066
-487.464	-200.000	-0.007	-0.112
-486.449	-142.923	-0.046	0.004
-485.435	-45.035	0.280	0.139
-484.420	-200.000	-0.042	0.312
-483.405	103.570	-0.220	0.258
-482.391	51.700	-0.025	0.023
-481.376	169.653	-0.015	-0.022
-480.362	44.814	0.261	0.240
-479.347	-92.917	0.127	0.035
-478.332	-89.577	-0.102	0.030
-477.318	0.200	0.082	0.058
-476.303	800.000	0.037	0.117
-475.289	337.305	-0.085	-0.165
-474.274	-26.101	-0.156	0.092
-473.259	-7.828	-0.327	0.220
-472.245	-200.000	-0.024	0.298
-471.230	-19.686	0.055	-0.034
-470.216	138.047	0.014	0.018
-469.201	800.000	0.098	-0.298
-468.186	-72.410	-0.332	-0.122
-467.172	-44.617	-0.299	-0.149
-466.157	-200.000	0.003	0.249
-465.143	-200.000	0.026	0.208
-464.128	800.000	0.055	0.197
-463.113	82.380	-0.093	0.100
-462.099	-74.046	0.075	-0.027
-461.084	800.000	-0.054	-0.168
-460.070	800.000	-0.062	0.236
-459.055	48.122	-0.051	0.048
-458.040	-114.603	-0.264	-0.051
-457.026	631.958	-0.100	0.251
-456.011	173.571	0.199	0.286
-454.997	534.820	0.161	-0.380
-453.982	-200.000	-0.003	0.041
-452.968	386.525	-0.067	0.137
-451.953	228.669	-0.108	0.176
-450.938	30.560	0.058	0.049
-449.924	-154.701	0.213	0.014
-448.909	-14.844	0.056	0.036
-447.895	116.934	0.117	0.143
-446.880	-46.734	0.136	0.066
-445.865	-200.000	-0.018	-0.110
-444.851	-200.000	0.146	0.000
-443.836	54.059	-0.170	0.163
-442.822	-200.000	0.038	-0.185
-441.807	-106.695	-0.169	0.038
-440.792	800.000	0.047	0.191
-439.778	15.156	0.164	0.128
-438.763	-61.801	0.123	-0.051
-437.749	-139.173	-0.288	-0.031
-436.734	-200.000	0.163	-0.001
-435.719	-83.338	0.076	0.024
-434.705	129.679	-0.064	-0.081
-433.690	-183.444	-0.170	-0.003
-432.676	3.865	-0.118	-0.086
-431.661	-34.270	0.109	0.060
-430.646	800.000	-0.057	0.160
-429.632	9.210	-0.287	0.216
-428.617	-187.014	0.308	0.004
-427.603	345.097	-0.149	0.291
-426.588	-32.153	0.109	-0.061
-425.573	652.507	0.062	-0.158
-424.559	-134.069	-0.076	-0.009
-423.544	5.349	0.105	0.077
-422.530	0.431	-0.188	-0.134
-421.515	91.688	-0.170	0.191
-420.500	-200.000	-0.023	0.108
-419.486	800.000	-0.038	0.132
-418.471	800.000	0.077	0.231
-417.457	-200.000	0.024	-0.115
-416.442	-39.411	-0.130	-0.068
-415.428	-123.753	-0.260	0.041
-414.413	116.355	-0.135	-0.165
-413.398	22.593	0.027	0.022
-412.384	-133.163	0.121	-0.015
-411.369	-146.228	-0.209	0.018
-410.355	-67.537	0.270	-0.106
-409.340	182.371	0.148	0.217
-408.325	-17.319	-0.061	-0.038
-407.311	117.999	-0.097	0.119
-406.296	-3.843	0.133	-0.092
-405.282	-200.000	0.014	-0.210
-404.267	-33.717	-0.214	-0.117
-403.252	-111.748	-0.029	-0.006
-402.238	39.988	0.111	-0.100
-401.223	570.113	-0.140	-0.338
-400.209	56.715	0.064	0.062
-399.194	212.222	-0.172	-0.270
-398.179	-92.249	0.264	0.074
-397.165	85.540	-0.088	-0.096
-396.150	119.619	-0.127	-0.156
-395.136	-125.113	0.279	0.043
-394.121	800.000	0.047	0.167
-393.106	95.204	0.044	0.050
-392.092	-103.918	-0.268	-0.062
-391.077	-21.992	0.223	-0.135
-390.063	800.000	-0.038	0.125
-389.048	-200.000	-0.016	-0.259
-388.033	-58.148	-0.005	0.002
-387.019	-200.000	0.054	0.297
-386.004	97.203	0.071	-0.081
-384.990	72.644	0.136	-0.141
-383.975	-200.000	0.002	0.043
-382.960	65.734	-0.109	0.110
-381.946	324.154	-0.107	0.203
-380.931	307.643	-0.109	-0.202
-379.917	44.153	-0.117	-0.107
-378.902	-93.694	0.075	-0.020
-377.888	-200.000	0.002	0.059
-376.873	324.245	0.183	0.348
-375.858	800.000	0.012	-0.033
-374.844	800.000	-0.033	-0.134
-373.829	-200.000	0.045	0.448
-372.815	-200.000	0.060	0.337
-371.800	84.049	-0.193	0.210
-370.785	-188.970	-0.245	-0.003
-369.771	800.000	-0.040	-0.152
-368.756	138.137	-0.154	-0.200
-367.742	32.825	-0.273	-0.235
-366.727	17.986	-0.201	0.159
-365.712	800.000	0.059	-0.206
-364.698	-200.000	0.042	-0.199
-363.683	-153.733	0.309	-0.021
-362.669	-142.617	-0.188	0.018
-361.654	-14.093	-0.351	0.225
-360.639	-50.810	0.487	0.228
-359.625	-200.000	-0.022	-0.242
-358.610	-154.521	0.101	0.007
-357.596	178.044	0.220	-0.318
-356.581	-70.530	0.136	0.051
-355.566	-19.164	0.126	0.077
-354.552	483.636	-0.042	0.094
-353.537	-200.000	0.019	0.218
-352.523	-165.489	-0.226	0.010
-351.508	12.914	0.168	-0.129
-350.493	-200.000	0.058	-0.350
-349.479	33.367	0.225	0.194
-348.464	26.158	-0.100	-0.083
-347.450	-111.222	-0.144	-0.029
-346.435	-142.919	-0.168	-0.016
-345.420	-90.869	-0.173	-0.049
-344.406	74.452	0.086	-0.090
-343.391	-131.899	-0.239	-0.031
-342.377	-200.000	0.025	-0.112
-341.362	147.235	-0.051	0.068
-340.348	192.085	0.146	-0.218
-339.333	-111.549	0.332	-0.067
-338.318	35.768	-0.327	-0.285
-337.304	134.784	-0.130	-0.168
-336.289	-72.717	-0.300	-0.110
-335.275	-200.000	-0.017	0.159
-334.260	-125.182	-0.079	-0.012
-333.245	453.850	-0.137	-0.301
-332.231	122.264	-0.091	0.113
-331.216	108.626	0.076	0.090
-330.202	-108.690	-0.340	-0.072
-329.187	-190.331	0.486	0.005
-328.172	800.000	0.030	-0.082
-327.158	-200.000	-0.003	-0.011
-326.143	-74.105	0.059	0.021
-325.129	-200.000	0.044	0.332
-324.114	54.881	-0.090	-0.087
-323.099	370.432	0.032	-0.065
-322.085	-200.000	0.020	-0.473
-321.070	-142.659	-0.543	-0.053
-320.056	-36.114	0.204	-0.109
-319.041	54.243	-0.041	-0.039
-318.026	-55.178	0.088	-0.039
-317.012	69.266	-0.027	0.027
-315.997	-200.000	-0.004	0.101
-314.983	-116.617	0.256	0.047
-313.968	-134.994	0.354	0.042
-312.953	-74.444	0.243	0.087
-311.939	6.639	-0.193	0.142
-310.924	-65.146	0.272	0.109
-309.910	800.000	-0.056	0.242
-308.895	800.000	-0.065	0.221
-307.880	-200.000	-0.019	0.116
-306.866	72.684	0.170	0.175
-305.851	6.754	0.182	0.134
-304.837	800.000	-0.055	-0.224
-303.822	-53.002	0.298	0.136
-302.807	292.200	-0.105	0.189
-301.793	96.964	0.381	-0.433
-300.778	-200.000	0.009	-0.060
-299.764	0.393	-0.213	-0.150
-298.749	-62.970	0.089	-0.036
-297.735	21.306	0.077	-0.062
-296.720	-58.705	0.082	0.035
-295.705	-200.000	-0.003	-0.027
-294.691	-62.761	-0.107	-0.044
-293.676	609.153	-0.053	0.132
-292.662	800.000	0.042	0.120
-291.647	-151.200	0.130	-0.010
-290.632	-200.000	0.054	-0.313
-289.618	284.660	0.072	0.128
-288.603	3.475	0.382	-0.276
-287.589	-110.281	-0.338	0.070
-286.574	-129.462	-0.142	-0.019
-285.559	-67.230	-0.172	0.067
-284.545	101.129	0.035	-0.041
-283.530	800.000	0.029	0.080
-282.516	710.995	-0.034	-0.090
-281.501	178.875	0.064	0.092
-280.486	-103.975	0.520	0.120
-279.472	-82.651	-0.201	0.064
-278.457	-200.000	0.041	0.273
-277.443	56.047	-0.114	-0.109
-276.428	133.660	0.108	-0.139
-275.413	-65.296	0.341	-0.136
-274.399	-163.551	-0.128	-0.006
-273.384	190.748	-0.231	0.345
-272.370	-200.000	-0.023	-0.192
-271.355	-80.688	0.121	0.040
-270.340	170.577	-0.252	-0.357
-269.326	-55.904	-0.108	-0.048
-268.311	719.709	0.014	0.036
-267.297	21.545	0.057	0.046
-266.282	800.000	-0.047	0.151
-265.267	-200.000	0.021	-0.102
-264.253	-93.408	0.364	0.100
-263.238	692.316	-0.032	-0.083
-262.224	-39.149	-0.175	-0.091
-261.209	208.156	-0.205	-0.317
-260.195	800.000	0.068	-0.237
-259.180	728.040	-0.107	0.281
-258.165	800.000	0.021	-0.066
-257.151	800.000	-0.020	-0.074
-256.136	-159.241	-0.404	0.022
-255.122	-83.966	-0.194	-0.061
-254.107	-13.056	0.220	-0.142
-253.092	800.000	0.060	-0.235
-252.078	625.458	-0.115	-0.288
-251.063	-174.965	0.471	-0.013
-250.049	800.000	0.065	0.239
-249.034	-132.814	0.265	-0.033
-248.019	125.846	-0.050	0.062
-247.005	-74.099	0.244	-0.087
-245.990	-178.598	-0.074	-0.002
-244.976	-132.813	0.239	-0.030
-243.961	-54.910	0.109	-0.049
-242.946	188.243	-0.046	0.068
-241.932	-108.712	0.074	-0.016
-240.917	9.610	0.152	-0.114
-239.903	-140.897	-0.174	0.018
-238.888	-192.722	0.085	0.001
-237.873	-147.037	0.305	-0.026
-236.859	-200.000	-0.002	0.069
-235.844	-60.655	0.092	-0.039
-234.830	-38.356	-0.057	-0.030
-233.815	-200.000	-0.025	-0.183
-232.800	166.575	-0.063	-0.088
-231.786	377.801	0.123	0.249
-230.771	10.954	-0.153	-0.115
-229.757	613.431	0.162	0.400
-228.742	800.000	0.027	0.106
-227.727	-42.760	-0.065	0.032
-226.713	73.422	0.281	-0.291
-225.698	-47.596	-0.098	0.047
-224.684	141.298	0.082	-0.107
-223.669	51.226	-0.195	-0.182
-222.655	-78.180	0.070	-0.024
-221.640	800.000	0.085	-0.323
-220.625	-72.539	-0.028	-0.010
-219.611	800.000	-0.038	0.147
-218.596	-107.228	0.269	0.059
-217.582	-73.359	0.297	-0.107
-216.567	75.561	0.068	0.071
-215.552	-108.727	-0.330	-0.070
-214.538	-200.000	-0.007	-0.216
-213.523	786.217	-0.064	-0.174
-212.509	-200.000	-0.044	0.234
-211.494	-161.816	0.048	-0.002
-210.479	-107.290	-0.128	0.028
-209.465	800.000	0.019	0.069
-208.450	23.201	-0.112	-0.091
-207.436	139.432	0.140	-0.182
-206.421	800.000	-0.053	-0.192
-205.406	154.910	0.084	-0.114
-204.392	-6.472	-0.341	-0.230
-203.377	800.000	0.047	0.193
-202.363	-76.863	-0.296	-0.102
-201.348	0.716	0.103	0.073
-200.333	82.173	0.292	0.312
-199.319	-200.000	-0.066	0.287
-198.304	29.103	-0.137	0.115
-197.290	-1.275	0.116	0.081
-196.275	-148.759	0.189	-0.015
-195.260	-175.351	0.255	0.007
-194.246	800.000	0.064	0.187
-193.231	-200.000	-0.003	0.080
-192.217	-125.974	0.264	-0.039
-191.202	34.903	-0.265	0.229
-190.187	-141.602	0.399	-0.040
-189.173	217.338	0.265	-0.417
-188.158	-40.437	0.321	0.165
-187.144	165.927	-0.136	-0.189
-186.129	12.893	-0.253	0.193
-185.114	418.420	0.206	-0.434
-184.100	287.873	0.064	-0.113
-183.085	-6.062	-0.075	0.051
-182.071	-45.470	-0.147	-0.072
-181.056	-124.856	0.388	0.059
-180.042	800.000	0.081	-0.278
-179.027	-27.459	0.359	-0.206
-178.012	-103.745	-0.132	0.031
-176.998	39.741	0.165	-0.146
-175.983	11.410	0.136	-0.103
-174.969	-200.000	0.038	-0.236
-173.954	517.288	0.040	0.092
-172.939	-200.000	0.001	-0.225
-171.925	-200.000	-0.007	0.245
-170.910	-200.000	-0.019	0.127
-169.896	455.604	0.100	-0.218
-168.881	-139.051	0.174	0.019
-167.866	-88.262	0.214	-0.063
-166.852	800.000	0.131	0.409
-165.837	-200.000	-0.057	0.254
-164.823	556.972	0.188	0.447
-163.808	800.000	-0.003	-0.011
-162.793	-2.885	-0.071	0.049
-161.779	63.562	-0.379	-0.375
-160.764	-71.176	-0.248	0.092
-159.750	-30.997	0.217	-0.121
-158.735	37.777	-0.129	0.113
-157.720	599.012	0.037	-0.090
-156.706	18.709	-0.299	0.236
-155.691	-55.339	0.233	-0.103
-154.677	23.315	0.240	0.194
-153.662	-6.739	0.126	0.084
-152.647	162.539	-0.062	0.086
-151.633	214.373	-0.096	0.151
-150.618	74.311	-0.100	0.103
-149.604	-74.605	-0.053	0.019
-148.589	503.244	-0.125	-0.284
-147.574	482.591	0.131	0.294
-146.560	-60.856	0.130	-0.054
-145.545	484.374	0.122	-0.273
-144.531	-63.744	0.105	-0.042
-143.516	-50.706	-0.508	0.236
-142.502	800.000	0.052	0.166
-141.487	-101.968	0.289	-0.069
-140.472	24.955	-0.137	-0.112
-139.458	-65.723	0.125	0.049
-138.443	53.287	0.131	-0.124
-137.429	-117.633	-0.458	0.081
-136.414	44.620	0.139	0.126
-135.399	415.205	0.141	-0.297
-134.385	171.161	0.140	0.198
-133.370	-2.253	-0.109	0.075
-132.356	-102.914	0.177	0.041
-131.341	696.660	-0.072	-0.185
-130.326	-63.599	-0.036	0.015
-129.312	430.684	0.049	0.104
-128.297	4.275	0.225	0.162
-127.283	122.450	0.073	0.090
-126.268	-142.098	-0.340	0.033
-125.253	-39.149	-0.254	0.131
-124.239	800.000	-0.081	0.232
-123.224	85.212	-0.166	0.179
-122.210	-100.488	0.129	-0.032
-121.195	-71.986	0.111	0.041
-120.180	-41.692	-0.203	-0.103
-119.166	-200.000	-0.012	0.140
-118.151	-12.029	-0.218	-0.141
-117.137	740.307	0.045	0.119
-116.122	-145.130	0.173	-0.015
-115.107	-200.000	-0.025	-0.161
-114.093	79.177	-0.078	0.082
-113.078	391.625	0.089	0.182
-112.064	-200.000	0.015	0.332
-111.049	139.855	0.118	0.154
-110.034	-152.547	-0.363	0.026
-109.020	-49.531	0.243	-0.114
-108.005	800.000	0.072	-0.206
-106.991	168.576	0.053	0.075
-105.976	691.471	-0.022	-0.057
-104.962	-200.000	-0.041	-0.312
-103.947	216.788	0.171	0.268
-102.932	-73.653	-0.297	0.107
-101.918	133.655	0.259	-0.329
-100.903	-200.000	0.029	-0.274
-99.889	-62.892	0.047	0.019
-98.874	-200.000	0.016	-0.190
-97.859	137.670	-0.114	-0.147
-96.845	-37.362	-0.129	0.068
-95.830	24.319	-0.231	0.188
-94.816	-200.000	-0.018	0.355
-93.801	83.488	-0.239	-0.256
-92.786	-147.801	-0.075	-0.006
-91.772	-131.120	-0.287	-0.038
-90.757	-200.000	0.033	0.157
-89.743	-148.544	-0.028	-0.002
-88.728	12.872	-0.302	-0.229
-87.713	408.563	0.097	0.202
-86.699	348.841	-0.071	0.138
-85.684	-22.702	0.251	-0.149
-84.670	13.439	0.091	0.070
-83.655	-200.000	0.018	-0.076
-82.640	-6.342	0.087	0.058
-81.626	736.483	-0.055	-0.146
-80.611	-200.000	-0.021	0.144
-79.597	-82.369	-0.131	-0.042
-78.582	800.000	-0.052	0.216
-77.567	-88.955	-0.299	-0.087
-76.553	-166.621	0.072	-0.003
-75.538	-200.000	0.043	0.401
-74.524	19.208	-0.323	0.255
-73.509	800.000	-0.048	0.141
-72.494	-200.000	0.026	-0.197
-71.480	-66.256	-0.200	0.078
-70.465	-82.653	-0.173	-0.055
-69.451	-200.000	0.022	-0.326
-68.436	-145.621	-0.209	-0.018
-67.422	-200.000	0.139	-0.000
-66.407	-198.785	-0.386	0.002
-65.392	800.000	-0.063	0.207
-64.378	800.000	0.060	0.186
-63.363	-110.565	-0.124	-0.025
-62.349	-200.000	-0.016	-0.193
-61.334	84.913	-1.214	-1.306
-60.319	226.607	0.431	0.688
-59.305	438.468	-0.500	-1.071
-58.290	107.026	0.794	0.926
-57.276	638.796	0.623	1.555
-56.261	-200.000	102.872	592.146
-55.246	553.049	1435.570	3387.065
-54.232	186.121	2631.567	3842.396
-53.217	109.302	2281.206	2680.930
-52.203	39.886	1897.636	1672.487
-51.188	33.715	1686.631	1439.827
-50.173	31.196	1642.889	1383.785
-49.159	49.503	1694.004	1565.065
-48.144	50.641	1709.694	1588.062
-47.130	33.499	1668.575	1422.564
-46.115	30.825	1653.793	1389.974
-45.100	30.568	1649.917	1384.749
-44.086	30.545	1647.392	1382.405
-43.071	30.565	1644.144	1379.775
-42.057	30.521	1641.697	1377.335
-41.042	30.524	1639.894	1375.791
-40.027	30.643	1637.642	1374.728
-39.013	30.569	1636.103	1372.836
-37.998	30.418	1634.825	1370.594
-36.984	30.450	1633.914	1370.010
-35.969	30.679	1631.675	1369.764
-34.954	30.703	1630.193	1368.644
-33.940	30.659	1628.610	1366.940
-32.925	30.606	1627.137	1365.261
-31.911	30.708	1625.031	1364.189
-30.896	30.602	1623.590	1362.148
-29.881	30.573	1621.869	1360.432
-28.867	30.645	1620.172	1359.486
-27.852	30.649	1618.307	1357.897
-26.838	30.584	1617.349	1356.561
-25.823	30.564	1616.448	1355.608
-24.809	30.591	1614.633	1354.227
-23.794	30.694	1612.672	1353.282
-22.779	30.622	1611.657	1351.850
-21.765	30.619	1610.020	1350.400
-20.750	30.630	1608.391	1349.063
-19.736	30.626	1607.222	1348.000
-18.721	30.636	1605.453	1346.530
-17.706	30.692	1603.780	1345.480
-16.692	30.620	1602.499	1343.833
-15.677	30.682	1601.135	1343.084
-14.663	30.688	1599.511	1341.709
-13.648	30.748	1598.249	1341.034
-12.633	30.671	1597.102	1339.461
-11.619	30.617	1595.744	1337.878
-10.604	30.700	1593.750	1336.754
-9.590	30.696	1592.719	1335.804
-8.575	30.688	1591.329	1334.527
-7.560	30.706	1590.006	1333.494
-6.546	30.593	1589.091	1331.864
-5.531	30.574	1588.053	1330.805
-4.517	30.649	1586.794	1330.233
-3.502	30.720	1585.193	1329.351
-2.487	30.708	1584.447	1328.589
-1.473	30.433	1571.813	1315.987
-0.458	27.709	1552.871	1280.981
0.556	23.605	1554.697	1250.782
1.571	21.376	1579.076	1254.313
2.586	20.878	1591.986	1260.851
3.600	18.641	1538.908	1203.043
4.615	11.588	1432.310	1073.425
5.629	5.807	1371.580	991.364
6.644	4.913	1364.443	980.496
7.659	4.881	1363.144	979.271
8.673	4.770	1362.329	977.906
9.688	4.836	1360.169	976.678
10.702	4.795	1357.445	974.384
11.717	7.483	1362.441	994.744
12.731	14.411	1374.834	1047.390
13.746	18.792	1382.303	1080.608
14.761	18.745	1380.638	1078.914
15.775	17.815	1377.981	1070.911
16.790	16.719	1375.052	1061.669
17.804	15.953	1372.794	1055.036
18.819	15.563	1371.680	1051.649
19.834	15.252	1370.409	1048.631
20.848	15.043	1369.119	1046.249
21.863	14.888	1367.517	1043.965
22.877	14.723	1367.011	1042.453
23.892	14.635	1365.566	1040.711
24.907	14.627	1365.146	1040.250
25.921	14.737	1363.840	1039.846
26.936	14.722	1363.115	1039.108
27.950	14.745	1361.819	1038.174
28.965	14.806	1361.288	1038.056
29.980	14.961	1360.012	1037.952
30.994	14.976	1358.743	1036.984
32.009	14.948	1357.794	1035.998
33.023	15.009	1356.491	1035.289
34.038	14.946	1354.829	1033.537
35.053	14.869	1354.122	1032.428
36.067	14.789	1353.309	1031.228
37.082	14.745	1352.094	1029.937
38.096	14.893	1350.822	1029.787
39.111	14.836	1350.235	1028.902
40.126	14.836	1349.392	1028.166
41.140	14.836	1348.031	1027.035
42.155	14.619	1348.271	1025.793
43.169	14.614	1347.707	1025.248
44.184	14.601	1347.615	1025.004
45.199	14.577	1347.137	1024.406
46.213	14.724	1346.658	1024.851
47.228	14.790	1345.354	1024.173
48.242	14.860	1344.298	1023.708
49.257	14.747	1342.825	1021.803
50.271	14.744	1341.720	1020.854
51.286	14.856	1340.382	1020.429
52.301	14.706	1339.358	1018.645
53.315	14.666	1338.273	1017.484
54.330	14.669	1337.215	1016.606
55.344	14.655	1335.414	1015.067
56.359	14.713	1334.379	1014.542
57.374	14.693	1334.093	1014.111
58.388	14.586	1333.172	1012.673
59.403	14.528	1332.896	1012.023
60.417	14.610	1331.523	1011.383
61.432	14.548	1330.723	1010.315
62.447	14.606	1330.218	1010.192
63.461	14.366	1329.072	1007.779
64.476	14.431	1328.293	1007.496
65.490	14.481	1326.878	1006.630
66.505	14.420	1325.258	1004.950
67.520	14.562	1324.170	1004.892
68.534	14.514	1323.253	1003.814
69.549	14.560	1322.047	1003.086
70.563	14.503	1320.841	1001.743
71.578	14.384	1320.059	1000.343
72.593	14.463	1318.424	999.493
73.607	14.382	1317.937	998.549
74.622	14.426	1317.139	998.122
75.636	14.414	1316.590	997.544
76.651	14.450	1315.929	997.169
77.666	14.423	1315.226	996.386
78.680	14.422	1314.854	996.012
79.695	14.423	1314.277	995.494
80.709	14.495	1313.535	995.274
81.724	14.564	1312.581	994.869
82.739	14.619	1311.942	994.627
83.753	14.802	1310.834	994.787
84.768	14.763	1309.791	993.675
85.782	14.858	1309.326	993.803
86.797	14.807	1307.680	992.163
87.812	14.804	1305.988	990.775
88.826	14.715	1305.203	989.563
89.841	14.715	1304.440	988.895
90.855	14.858	1303.382	988.855
91.870	14.841	1302.138	987.718
92.884	14.898	1301.543	987.517
93.899	14.945	1300.696	987.068
94.914	14.972	1300.030	986.634
95.928	15.000	1298.878	985.834
96.943	14.975	1298.242	985.119
97.957	14.762	1297.172	982.969
98.972	14.928	1295.835	982.842
99.987	14.784	1295.425	981.598
101.001	14.841	1293.840	980.644
102.016	14.888	1293.551	980.615
103.030	14.877	1292.370	979.566
104.045	14.914	1291.130	978.756
105.060	14.828	1289.886	977.228
106.074	14.613	1288.920	975.153
107.089	14.600	1287.043	973.567
108.103	14.548	1286.033	972.418
109.118	14.523	1284.979	971.389
110.133	14.540	1283.460	970.252
111.147	14.607	1282.308	969.682
112.162	14.637	1280.863	968.678
113.176	14.612	1280.475	968.153
114.191	14.702	1279.163	967.602
115.206	14.639	1278.114	966.355
116.220	14.557	1276.874	964.857
117.235	14.704	1275.505	964.587
118.249	14.627	1274.756	963.490
119.264	14.664	1273.433	962.621
120.279	14.598	1272.090	961.136
121.293	14.687	1271.334	960.996
122.308	14.501	1270.567	959.263
123.322	14.567	1269.641	958.855
124.337	14.601	1268.010	957.732
125.352	14.549	1267.300	956.814
126.366	14.569	1265.988	955.852
127.381	14.569	1264.817	954.884
128.395	14.639	1263.968	954.562
129.410	14.612	1263.176	953.724
130.424	14.633	1262.438	953.200
131.439	14.703	1261.384	952.722
132.454	14.719	1260.031	951.709
133.468	14.760	1259.530	951.475
134.483	14.723	1258.680	950.542
135.497	14.669	1257.775	949.463
136.512	14.622	1256.527	948.171
137.527	14.658	1255.117	947.229
138.541	14.764	1253.602	946.602
139.556	14.736	1252.229	945.323
140.570	14.674	1251.888	944.631
141.585	14.869	1250.399	944.524
142.600	14.875	1249.069	943.470
143.614	15.056	1248.107	943.681
144.629	14.975	1247.197	942.457
145.643	14.968	1246.234	941.603
146.658	14.785	1244.824	939.426
147.673	14.790	1243.419	938.311
148.687	14.810	1242.387	937.562
149.702	14.742	1240.683	935.815
150.716	14.680	1239.860	934.762
151.731	14.834	1238.010	934.145
152.746	14.817	1237.052	933.247
153.760	14.839	1236.200	932.640
154.775	14.987	1234.894	932.401
155.789	14.908	1234.370	931.478
156.804	15.040	1232.819	930.964
157.819	15.001	1232.577	930.478
158.833	15.017	1231.768	929.878
159.848	15.065	1230.842	929.362
160.862	15.058	1229.620	928.315
161.877	14.927	1228.498	926.661
162.892	14.886	1227.166	925.348
163.906	14.843	1226.109	924.234
164.921	14.863	1225.317	923.662
165.935	14.999	1224.490	923.710
166.950	14.881	1223.852	922.495
167.964	14.886	1223.255	921.993
168.979	15.050	1222.368	922.146
169.994	14.941	1221.553	920.848
171.008	15.000	1220.806	920.531
172.023	15.014	1220.437	920.248
173.037	15.083	1219.954	920.182
174.052	15.096	1218.611	919.159
175.067	15.042	1217.609	918.023
176.081	15.079	1216.258	917.127
177.096	14.910	1215.742	915.733
178.110	15.037	1214.453	915.373
179.125	14.996	1213.081	914.033
180.140	15.059	1212.131	913.579
181.154	15.113	1210.807	912.799
182.169	15.110	1209.804	911.945
183.183	15.211	1208.646	911.539
184.198	15.286	1207.206	910.782
185.213	15.206	1206.995	910.106
186.227	15.271	1205.245	909.061
187.242	15.303	1204.241	908.394
188.256	15.341	1203.065	907.631
189.271	15.230	1202.813	906.761
190.286	15.202	1201.474	905.521
191.300	15.057	1200.191	903.690
192.315	14.963	1199.383	902.494
193.329	15.043	1198.691	902.326
194.344	15.080	1198.365	902.202
195.359	15.173	1197.984	902.336
196.373	15.314	1197.298	902.494
197.388	15.391	1197.049	902.643
198.402	15.390	1196.717	902.308
199.417	15.510	1195.810	902.190
200.432	15.555	1194.968	901.717
201.446	15.591	1194.326	901.345
202.461	15.724	1193.375	901.259
203.475	15.576	1192.507	899.733
204.490	15.566	1191.088	898.530
205.504	15.396	1190.192	896.862
206.519	15.408	1188.779	895.785
207.534	15.468	1187.723	895.229
208.548	15.467	1186.662	894.346
209.563	15.379	1185.783	893.137
210.577	15.538	1184.856	893.202
211.592	15.585	1184.073	892.783
212.607	15.598	1183.386	892.256
213.621	15.660	1182.607	891.920
214.636	15.582	1181.881	890.876
215.650	15.620	1180.856	890.226
216.665	15.670	1179.691	889.536
217.680	15.700	1178.937	889.048
218.694	15.725	1178.064	888.443
219.709	15.750	1177.098	887.768
220.723	15.690	1176.495	886.917
221.738	15.784	1175.877	886.867
222.753	15.771	1175.156	886.179
223.767	15.838	1174.399	885.880
224.782	15.768	1173.876	885.037
225.796	15.866	1172.934	884.767
226.811	15.940	1172.335	884.623
227.826	15.720	1172.190	883.281
228.840	15.701	1171.275	882.416
229.855	15.854	1170.265	882.378
230.869	15.731	1169.505	881.084
231.884	15.751	1168.582	880.415
232.899	15.709	1167.937	879.632
233.913	15.854	1166.857	879.495
234.928	15.737	1166.182	878.298
235.942	15.714	1165.798	877.812
236.957	15.778	1164.624	877.183
237.972	15.730	1164.115	876.473
238.986	15.720	1163.437	875.830
240.001	15.708	1162.872	875.266
241.015	15.759	1161.734	874.600
242.030	15.857	1161.141	874.587
243.045	15.861	1160.647	874.156
244.059	16.028	1159.569	874.132
245.074	15.859	1158.702	872.523
246.088	15.953	1157.992	872.402
247.103	16.114	1157.138	872.515
248.117	16.053	1156.414	871.575
249.132	16.058	1156.439	871.544
250.147	16.163	1155.575	871.357
251.161	16.287	1154.843	871.368
252.176	16.357	1153.979	871.001
253.190	16.356	1153.248	870.365
254.205	16.437	1152.819	870.383
255.220	16.453	1152.412	870.079
256.234	16.351	1151.962	869.139
257.249	16.347	1151.088	868.382
258.263	16.457	1150.279	868.259
259.278	16.419	1149.617	867.490
260.293	16.449	1149.031	867.122
261.307	16.575	1148.308	867.147
262.322	16.514	1147.804	866.375
263.336	16.679	1146.857	866.429
264.351	16.607	1146.192	865.482
265.366	16.515	1145.583	864.476
266.380	16.550	1144.807	863.993
267.395	16.579	1144.115	863.543
268.409	16.484	1143.085	862.205
269.424	16.453	1142.522	861.543
270.439	16.599	1141.773	861.645
271.453	16.507	1141.120	860.611
272.468	16.466	1140.480	859.843
273.482	16.477	1139.652	859.196
274.497	16.552	1139.134	859.111
275.512	16.581	1138.425	858.647
276.526	16.442	1138.046	857.579
277.541	16.610	1136.975	857.551
278.555	16.533	1136.034	856.374
279.570	16.619	1135.438	856.286
280.585	16.754	1134.886	856.473
281.599	16.637	1134.113	855.224
282.614	16.682	1132.846	854.419
283.628	16.664	1131.540	853.272
284.643	16.632	1131.079	852.686
285.657	16.592	1130.194	851.741
286.672	16.724	1128.985	851.417
287.687	16.748	1127.903	850.647
288.701	16.800	1127.628	850.628
289.716	16.881	1126.431	850.054
290.730	16.835	1126.345	849.685
291.745	16.820	1125.555	848.935
292.760	16.859	1124.977	848.621
293.774	16.851	1124.321	848.013
294.789	16.766	1124.005	847.272
295.803	16.866	1122.970	846.919
296.818	16.990	1121.688	846.494
297.833	16.840	1121.219	845.318
298.847	16.866	1120.799	845.054
299.862	16.889	1119.699	844.264
300.876	17.002	1119.586	844.669
301.891	17.032	1118.231	843.719
302.906	17.127	1117.960	843.915
303.920	17.084	1117.669	843.407
304.935	17.142	1116.733	842.914
305.949	17.170	1116.799	843.025
306.964	17.193	1115.661	842.208
307.979	17.111	1114.724	841.021
308.993	17.231	1113.655	840.732
310.008	17.250	1112.699	840.033
311.022	17.254	1112.055	839.487
312.037	17.220	1111.650	838.940
313.052	17.193	1110.555	837.908
314.066	17.015	1109.751	836.352
315.081	16.993	1108.979	835.585
316.095	16.970	1108.397	834.961
317.110	16.884	1107.787	834.004
318.125	17.128	1106.596	834.231
319.139	17.020	1106.169	833.303
320.154	17.074	1105.516	833.003
321.168	17.069	1104.760	832.336
322.183	17.078	1104.467	832.088
323.197	17.119	1103.889	831.777
324.212	17.145	1103.510	831.546
325.227	17.242	1102.732	831.361
326.241	17.189	1102.448	830.815
327.256	17.216	1101.017	829.795
328.270	17.193	1099.765	828.667
329.285	17.275	1098.563	828.087
330.300	17.306	1097.776	827.573
331.314	17.236	1097.159	826.689
332.329	17.213	1096.134	825.735
333.343	17.143	1095.582	824.904
334.358	17.343	1094.846	825.247
335.373	17.253	1094.360	824.372
336.387	17.410	1093.194	824.183
337.402	17.414	1092.931	823.930
338.416	17.450	1091.953	823.296
339.431	17.416	1091.578	822.776
340.446	17.525	1090.644	822.522
341.460	17.597	1090.444	822.647
342.475	17.619	1089.429	821.915
343.489	17.658	1088.350	821.219
344.504	17.682	1087.228	820.414
345.519	17.764	1086.273	820.013
346.533	17.760	1085.794	819.563
347.548	17.715	1085.519	819.066
348.562	17.792	1084.540	818.621
349.577	17.653	1083.382	817.008
350.592	17.615	1082.820	816.332
351.606	17.573	1082.249	815.631
352.621	17.516	1081.397	814.640
353.635	17.643	1080.722	814.667
354.650	17.552	1079.883	813.529
355.665	17.636	1079.153	813.306
356.679	17.722	1078.383	813.067
357.694	17.661	1078.420	812.728
358.708	17.708	1077.879	812.474
359.723	17.780	1076.981	812.067
360.738	17.792	1076.278	811.522
361.752	17.832	1075.315	810.915
362.767	17.739	1074.749	809.975
363.781	17.780	1074.556	809.952
364.796	17.775	1074.313	809.676
365.810	17.986	1073.328	809.861
366.825	17.971	1072.856	809.361
367.840	18.117	1071.921	809.278
368.854	17.987	1071.983	808.637
369.869	18.150	1071.048	808.630
370.883	18.117	1069.917	807.549
371.898	17.928	1069.267	806.094
372.913	18.006	1068.807	806.046
373.927	17.988	1068.344	805.539
374.942	18.140	1067.752	805.737
375.956	18.061	1067.136	804.828
376.971	18.107	1066.599	804.569
377.986	18.146	1066.109	804.313
379.000	18.182	1065.518	803.965
380.015	18.296	1065.265	804.240
381.029	18.270	1064.155	803.210
382.044	18.290	1063.348	802.620
383.059	18.217	1063.290	802.165
384.073	18.249	1062.265	801.468
385.088	18.343	1061.462	801.231
386.102	18.403	1060.080	800.401
387.117	18.182	1059.015	798.493
388.132	18.266	1058.153	798.164
389.146	18.105	1057.940	797.183
390.161	18.267	1056.810	797.015
391.175	18.165	1056.373	796.138
392.190	18.281	1055.823	796.195
393.205	18.204	1054.740	794.950
394.219	18.297	1054.226	794.923
395.234	18.385	1053.021	794.350
396.248	18.252	1052.092	792.963
397.263	18.228	1051.263	792.161
398.278	18.241	1050.810	791.807
399.292	18.276	1049.583	790.977
400.307	18.221	1049.193	790.355
401.321	18.193	1048.429	789.582
402.336	18.225	1047.412	788.892
403.350	18.362	1046.830	789.019
404.365	18.295	1046.235	788.188
405.380	18.305	1045.994	787.987
406.394	18.337	1044.943	787.269
407.409	18.471	1044.207	787.264
408.423	18.588	1043.446	787.155
409.438	18.656	1042.713	786.847
410.453	18.571	1042.426	786.169
411.467	18.577	1041.780	785.640
412.482	18.859	1040.307	785.750
413.496	18.898	1040.096	785.698
414.511	18.763	1039.733	784.737
415.526	18.780	1039.498	784.570
416.540	18.885	1038.523	784.245
417.555	18.754	1038.565	783.609
418.569	18.803	1037.815	783.196
419.584	18.850	1037.234	782.901
420.599	18.729	1036.802	781.953
421.613	150.513	1402.789	1795.174
422.628	137.493	1456.094	1795.299
