DTS Sentinel unit serial number:	SN413079Multiplexer serial number:	ORYXHardware model number:	OX4-SRSoftware version number:	ORYX F/W v4.00 Oryx Data Collector v3.7.2.0data status	okinstallation	princeton_trtdifferential loss correction	single-endedforward channel	channel 2reverse channel	N/Adate	2019/09/18time	10:19:35forward acquisition time	60.00reverse acquisition time	0.00gamma	496.2192k internal	0.2332k external	0.2332temperature offset calibration	0.9981default loss term (dB/km)	0.3790temperature slope calibration	1.0000multiplexer offset coefficient	1.0000multiplexer slope coefficient	1.0000fibre end	0.00T internal ref (°C)	28.03T ext. ref 1 (°C)	0.33T ext. ref 2 (°C)	24.37length (m)	temperature (°C)	Stokes	anti-Stokes-747.200	-49.810	0.141	-0.067
-746.185	132.269	-0.140	-0.182
-745.171	220.692	0.132	0.212
-744.156	800.000	-0.052	0.192
-743.142	-200.000	0.067	0.578
-742.127	710.830	0.071	0.190
-741.112	-47.345	0.213	-0.104
-740.098	103.594	0.204	0.241
-739.083	-200.000	-0.054	-0.263
-738.069	76.105	-0.345	0.367
-737.054	106.370	0.200	-0.239
-736.039	-138.304	-0.255	-0.028
-735.025	-2.930	0.044	-0.031
-734.010	23.158	-0.077	-0.063
-732.996	56.491	-0.222	-0.218
-731.981	-23.890	-0.330	-0.199
-730.966	280.278	0.123	0.220
-729.952	404.736	-0.193	-0.409
-728.937	124.031	-0.259	-0.327
-727.923	21.338	-0.429	-0.350
-726.908	138.440	0.171	-0.225
-725.894	-94.375	-0.111	-0.030
-724.879	134.228	-0.146	0.190
-723.864	-6.842	-0.122	0.083
-722.850	-126.090	-0.471	0.071
-721.835	-200.000	-0.007	0.079
-720.821	30.057	-0.255	0.218
-719.806	-112.441	0.139	0.028
-718.791	106.882	-0.049	0.059
-717.777	309.346	-0.067	-0.125
-716.762	800.000	-0.092	0.309
-715.748	122.091	-0.138	0.173
-714.733	55.498	0.103	-0.100
-713.718	-98.744	0.043	-0.011
-712.704	245.007	-0.134	-0.226
-711.689	800.000	-0.035	0.141
-710.675	12.228	0.173	0.134
-709.660	-200.000	-0.018	-0.158
-708.645	122.124	0.046	-0.058
-707.631	301.965	-0.098	0.181
-706.616	-118.277	-0.144	-0.026
-705.602	168.786	-0.102	-0.146
-704.587	58.259	-0.292	-0.287
-703.572	-102.823	0.078	-0.019
-702.558	-51.703	-0.391	-0.183
-701.543	-128.431	-0.130	0.019
-700.529	-28.998	-0.211	0.121
-699.514	-107.721	-0.219	-0.048
-698.499	-57.887	0.301	-0.132
-697.485	-14.630	0.127	-0.082
-696.470	-187.358	-0.273	-0.004
-695.456	-200.000	0.041	-0.303
-694.441	154.332	-0.192	0.264
-693.426	326.584	-0.046	0.089
-692.412	40.522	-0.166	-0.150
-691.397	800.000	0.059	-0.182
-690.383	800.000	-0.063	0.191
-689.368	-0.492	0.122	-0.087
-688.354	800.000	-0.103	-0.393
-687.339	94.560	-0.167	-0.191
-686.324	-68.940	-0.021	-0.008
-685.310	84.611	-0.106	0.117
-684.295	-125.830	0.256	0.039
-683.281	450.716	-0.151	-0.335
-682.266	45.927	0.114	-0.106
-681.251	-200.000	-0.038	-0.236
-680.237	800.000	0.112	-0.391
-679.222	-132.686	-0.121	0.016
-678.208	-109.655	-0.098	-0.021
-677.193	425.140	-0.120	0.259
-676.178	167.357	0.159	0.226
-675.164	-200.000	-0.053	-0.232
-674.149	268.559	-0.045	-0.078
-673.135	74.124	-0.114	-0.120
-672.120	131.908	-0.117	0.151
-671.105	-179.680	0.158	-0.003
-670.091	800.000	-0.031	0.099
-669.076	800.000	-0.107	-0.354
-668.062	-28.605	0.101	0.058
-667.047	-178.051	-0.312	-0.007
-666.032	-84.368	0.354	0.112
-665.018	-68.873	-0.132	-0.051
-664.003	-47.309	-0.153	-0.075
-662.989	-200.000	0.030	-0.169
-661.974	-17.278	-0.137	0.087
-660.959	-33.717	0.097	-0.054
-659.945	-121.665	-0.147	-0.024
-658.930	-97.767	-0.118	-0.031
-657.916	793.701	-0.079	-0.217
-656.901	51.030	0.067	-0.064
-655.886	234.677	-0.060	0.100
-654.872	343.528	-0.078	-0.153
-653.857	-200.000	0.030	0.154
-652.843	-200.000	0.005	-0.121
-651.828	58.307	-0.183	-0.180
-650.814	135.165	0.057	-0.074
-649.799	-65.440	0.502	0.202
-648.784	527.907	-0.063	-0.150
-647.770	-200.000	-0.015	0.071
-646.755	-22.492	0.206	-0.125
-645.741	-49.471	-0.215	0.103
-644.726	800.000	0.099	0.280
-643.711	-119.109	-0.274	-0.048
-642.697	-84.339	-0.175	0.055
-641.682	168.990	0.172	-0.246
-640.668	177.673	-0.159	0.232
-639.653	-147.531	-0.342	-0.029
-638.638	-133.413	-0.408	0.051
-637.624	73.412	-0.076	-0.079
-636.609	-119.219	0.206	-0.036
-635.595	-200.000	-0.011	0.210
-634.580	-200.000	-0.014	0.089
-633.565	-200.000	0.031	-0.181
-632.551	598.578	0.110	0.273
-631.536	-200.000	-0.004	0.068
-630.522	-109.921	-0.303	-0.064
-629.507	-200.000	-0.008	0.072
-628.492	-55.128	0.211	-0.095
-627.478	131.158	0.191	0.245
-626.463	-99.197	-0.096	-0.024
-625.449	75.994	0.028	0.030
-624.434	-137.565	0.444	-0.050
-623.419	-49.925	-0.190	0.090
-622.405	-85.804	-0.116	-0.036
-621.390	-181.352	-0.112	-0.002
-620.376	616.315	0.166	-0.417
-619.361	-72.266	-0.198	-0.073
-618.346	-200.000	-0.018	0.305
-617.332	62.789	0.123	-0.124
-616.317	-172.521	-0.286	-0.009
-615.303	800.000	-0.072	0.249
-614.288	222.100	-0.160	-0.258
-613.273	355.909	0.114	-0.228
-612.259	-21.305	-0.174	0.107
-611.244	106.090	-0.093	0.110
-610.230	224.619	-0.167	-0.271
-609.215	-200.000	-0.008	-0.348
-608.201	-164.205	0.049	-0.002
-607.186	236.328	0.282	0.467
-606.171	-60.875	0.604	0.256
-605.157	-49.238	0.269	-0.129
-604.142	-123.974	-0.419	-0.066
-603.128	-63.474	0.284	-0.117
-602.113	40.160	0.039	0.035
-601.098	-32.074	-0.120	-0.067
-600.084	99.494	0.157	-0.182
-599.069	-122.052	-0.401	0.066
-598.055	5.177	0.117	0.086
-597.040	-73.616	-0.191	0.070
-596.025	-113.228	0.124	0.024
-595.011	-200.000	-0.057	0.347
-593.996	-200.000	0.022	-0.247
-592.982	152.368	0.061	0.083
-591.967	-200.000	-0.013	0.265
-590.952	-200.000	0.024	-0.178
-589.938	-200.000	-0.020	-0.103
-588.923	23.150	-0.372	-0.305
-587.909	-17.681	0.330	-0.207
-586.894	-43.522	0.101	0.051
-585.879	-200.000	-0.068	-0.344
-584.865	-152.119	-0.192	-0.014
-583.850	25.782	-0.174	0.145
-582.836	269.122	-0.315	-0.552
-581.821	-115.246	0.120	0.023
-580.806	11.613	-0.295	-0.226
-579.792	25.934	0.105	0.087
-578.777	-7.109	0.355	0.241
-577.763	-200.000	0.010	0.105
-576.748	-110.206	-0.214	-0.045
-575.733	800.000	-0.030	0.126
-574.719	-200.000	-0.029	-0.164
-573.704	800.000	0.088	0.258
-572.690	-175.312	0.363	0.010
-571.675	-170.072	0.360	-0.013
-570.661	113.664	-0.215	-0.261
-569.646	-90.757	0.286	-0.083
-568.631	-80.907	-0.068	0.022
-567.617	-200.000	0.002	-0.151
-566.602	129.314	-0.085	0.108
-565.588	276.373	0.128	-0.226
-564.573	545.671	0.071	-0.169
-563.558	800.000	-0.028	0.118
-562.544	-173.839	0.150	-0.004
-561.529	249.399	-0.173	-0.293
-560.515	479.907	0.076	-0.172
-559.500	24.711	0.393	-0.325
-558.485	-10.753	0.166	0.110
-557.471	-200.000	0.024	0.261
-556.456	9.121	-0.294	-0.222
-555.442	-35.289	-0.285	-0.155
-554.427	228.124	0.025	0.041
-553.412	419.454	0.089	-0.190
-552.398	36.761	-0.180	-0.159
-551.383	-17.968	-0.154	0.096
-550.369	-143.861	-0.148	0.014
-549.354	47.787	-0.092	-0.086
-548.339	800.000	-0.026	0.074
-547.325	-68.682	-0.214	0.083
-546.310	-46.745	-0.316	-0.154
-545.296	-200.000	-0.058	-0.296
-544.281	122.510	-0.038	-0.047
-543.266	-200.000	0.041	-0.341
-542.252	705.512	0.076	0.199
-541.237	-200.000	-0.049	-0.274
-540.223	-137.640	0.017	0.002
-539.208	-36.650	0.308	0.165
-538.193	-177.646	-0.238	-0.006
-537.179	211.729	-0.083	0.130
-536.164	-89.150	0.111	0.033
-535.150	90.083	0.149	-0.166
-534.135	-200.000	-0.016	-0.244
-533.121	67.603	0.363	-0.370
-532.106	-200.000	-0.001	0.426
-531.091	133.234	0.128	-0.164
-530.077	40.305	-0.151	0.135
-529.062	63.726	-0.196	0.196
-528.048	-200.000	-0.011	0.095
-527.033	487.670	0.093	0.211
-526.018	279.890	0.136	0.242
-525.004	-161.210	0.192	-0.010
-523.989	39.706	0.296	-0.264
-522.975	-6.280	-0.170	0.116
-521.960	217.007	-0.167	0.266
-520.945	-200.000	0.006	0.235
-519.931	-19.068	0.227	-0.141
-518.916	-176.990	-0.118	0.003
-517.902	-200.000	-0.068	0.317
-516.887	-200.000	0.011	-0.219
-515.872	341.928	0.158	0.307
-514.858	-80.406	0.090	0.030
-513.843	-59.147	0.213	0.092
-512.829	-14.000	0.151	-0.097
-511.814	101.953	-0.097	-0.113
-510.799	486.914	-0.115	-0.262
-509.785	-7.451	0.305	0.206
-508.770	263.192	0.089	0.154
-507.756	-51.608	-0.297	-0.138
-506.741	-43.612	0.198	0.100
-505.726	800.000	-0.042	0.122
-504.712	-200.000	-0.052	-0.287
-503.697	-139.097	0.153	-0.016
-502.683	130.197	-0.101	0.129
-501.668	-200.000	0.051	-0.306
-500.653	800.000	0.080	0.269
-499.639	-86.982	-0.215	0.065
-498.624	-200.000	-0.023	0.207
-497.610	51.795	-0.146	0.138
-496.595	154.772	0.076	-0.104
-495.581	-74.338	0.406	-0.146
-494.566	-166.532	-0.110	0.005
-493.551	800.000	0.067	0.289
-492.537	-126.634	-0.302	-0.045
-491.522	140.687	-0.133	0.174
-490.508	-200.000	-0.029	-0.316
-489.493	72.446	-0.158	-0.164
-488.478	-38.770	0.196	-0.103
-487.464	225.828	-0.164	-0.265
-486.449	-6.184	0.318	0.216
-485.435	268.650	-0.043	0.075
-484.420	-200.000	-0.006	0.077
-483.405	69.022	0.117	0.120
-482.391	-93.617	-0.068	0.019
-481.376	800.000	-0.064	-0.193
-480.362	-200.000	0.039	0.367
-479.347	-107.956	-0.202	0.044
-478.332	-119.973	0.185	0.032
-477.318	17.167	0.206	0.162
-476.303	168.695	0.114	0.162
-475.289	212.046	0.128	-0.201
-474.274	-75.360	0.179	-0.063
-473.259	144.367	0.075	0.100
-472.245	-200.000	-0.077	0.401
-471.230	-17.615	-0.087	-0.055
-470.216	625.693	-0.044	-0.110
-469.201	-83.791	-0.243	0.077
-468.186	33.231	0.096	0.083
-467.172	-157.400	0.119	-0.007
-466.157	-30.483	-0.351	0.198
-465.143	48.315	0.157	0.146
-464.128	-200.000	0.000	0.026
-463.113	154.413	0.081	-0.111
-462.099	-13.466	-0.395	-0.255
-461.084	800.000	-0.087	-0.343
-460.070	47.323	-0.221	0.205
-459.055	-200.000	0.057	0.313
-458.040	800.000	-0.154	0.465
-457.026	800.000	0.057	0.168
-456.011	436.948	0.079	0.171
-454.997	-200.000	-0.001	0.124
-453.982	-200.000	-0.014	0.187
-452.968	800.000	0.054	0.193
-451.953	-21.562	-0.211	-0.128
-450.938	-109.549	0.365	-0.077
-449.924	-200.000	0.014	0.137
-448.909	-142.346	-0.268	-0.026
-447.895	78.942	-0.123	0.131
-446.880	148.786	-0.130	-0.175
-445.865	-139.730	-0.364	0.038
-444.851	369.087	-0.048	0.097
-443.836	-9.347	0.066	0.044
-442.822	207.510	-0.088	-0.137
-441.807	173.806	-0.124	0.178
-440.792	-121.825	0.132	0.022
-439.778	-11.623	0.307	-0.200
-438.763	800.000	-0.010	-0.040
-437.749	-38.805	0.395	0.207
-436.734	209.181	0.130	-0.203
-435.719	63.932	0.125	0.125
-434.705	112.068	-0.150	-0.180
-433.690	-189.395	0.078	-0.001
-432.676	-24.134	0.134	0.079
-431.661	137.854	-0.386	-0.503
-430.646	-157.809	-0.126	-0.007
-429.632	-65.358	-0.218	-0.087
-428.617	89.677	-0.157	0.174
-427.603	619.498	0.115	-0.288
-426.588	109.390	-0.238	0.283
-425.573	167.970	-0.093	-0.132
-424.559	800.000	0.072	0.242
-423.544	-83.336	0.140	-0.045
-422.530	162.544	-0.145	-0.202
-421.515	-132.372	-0.120	0.015
-420.500	-4.852	0.115	0.079
-419.486	-80.015	-0.143	-0.048
-418.471	800.000	0.064	0.256
-417.457	-99.097	-0.207	0.052
-416.442	15.341	0.159	0.124
-415.428	4.815	0.243	0.178
-414.413	32.745	0.258	0.222
-413.398	-30.141	-0.339	-0.191
-412.384	420.113	-0.114	-0.243
-411.369	53.278	0.203	-0.193
-410.355	586.361	-0.247	-0.603
-409.340	103.460	-0.129	0.150
-408.325	800.000	0.153	-0.434
-407.311	-200.000	0.041	0.182
-406.296	-76.164	0.185	0.065
-405.282	800.000	-0.077	0.250
-404.267	800.000	0.065	0.202
-403.252	-79.310	-0.108	0.036
-402.238	70.338	-0.253	-0.260
-401.223	-151.378	-0.112	0.008
-400.209	-200.000	0.046	0.238
-399.194	-4.832	-0.181	0.124
-398.179	-139.818	0.164	0.017
-397.165	-7.322	0.105	-0.071
-396.150	719.476	0.042	-0.112
-395.136	-161.479	-0.247	-0.013
-394.121	-89.294	0.076	0.022
-393.106	599.952	-0.125	-0.307
-392.092	126.946	-0.186	-0.234
-391.077	210.293	0.062	-0.097
-390.063	40.515	-0.049	0.044
-389.048	-140.882	0.269	0.027
-388.033	-200.000	0.033	-0.305
-387.019	-102.466	-0.144	-0.034
-386.004	-200.000	0.042	-0.296
-384.990	-38.769	0.156	-0.081
-383.975	-157.398	0.201	0.012
-382.960	467.933	-0.070	-0.156
-381.946	-96.069	0.053	-0.014
-380.931	663.239	0.070	0.179
-379.917	-200.000	0.011	-0.083
-378.902	-200.000	-0.031	0.197
-377.888	-70.250	0.065	-0.024
-376.873	-55.083	-0.226	0.101
-375.858	229.486	-0.051	-0.082
-374.844	21.329	-0.042	0.034
-373.829	-90.405	0.433	-0.124
-372.815	142.454	-0.070	-0.092
-371.800	411.419	0.033	-0.070
-370.785	800.000	0.067	0.225
-369.771	4.349	-0.254	-0.185
-368.756	483.728	-0.063	-0.142
-367.742	183.245	0.176	-0.257
-366.727	-200.000	0.008	-0.151
-365.712	-50.855	0.155	-0.072
-364.698	800.000	-0.081	0.325
-363.683	-162.599	0.100	-0.005
-362.669	-114.427	0.217	-0.041
-361.654	289.042	0.158	0.283
-360.639	-200.000	0.008	-0.224
-359.625	-149.220	0.213	-0.017
-358.610	-82.140	-0.606	0.196
-357.596	-89.669	-0.288	0.084
-356.581	-16.969	-0.158	0.099
-355.566	-83.957	0.143	0.045
-354.552	-200.000	-0.059	-0.528
-353.537	-156.318	0.199	0.012
-352.523	62.201	0.159	-0.158
-351.508	-17.554	-0.204	0.127
-350.493	-6.228	-0.126	-0.085
-349.479	85.237	-0.164	-0.178
-348.464	-127.090	0.316	-0.046
-347.450	533.764	-0.066	0.155
-346.435	800.000	0.061	-0.245
-345.420	-200.000	-0.036	0.168
-344.406	431.146	0.041	0.087
-343.391	30.386	0.103	-0.087
-342.377	279.300	0.119	0.211
-341.362	96.295	0.098	0.111
-340.348	-200.000	0.052	0.310
-339.333	-132.396	-0.341	0.043
-338.318	-200.000	0.023	0.233
-337.304	281.021	-0.045	0.080
-336.289	-55.005	0.255	0.114
-335.275	83.948	-0.220	0.238
-334.260	-62.973	0.140	0.057
-333.245	-34.437	0.312	-0.169
-332.231	-59.511	0.222	0.094
-331.216	424.080	0.226	-0.482
-330.202	-59.171	0.255	0.109
-329.187	-146.546	0.264	-0.023
-328.172	-74.511	0.033	-0.012
-327.158	2.559	-0.148	-0.106
-326.143	195.168	-0.131	-0.196
-325.129	800.000	-0.035	0.125
-324.114	-200.000	0.012	0.089
-323.099	800.000	-0.080	-0.285
-322.085	86.678	-0.104	0.114
-321.070	17.266	0.260	-0.204
-320.056	-93.110	0.175	0.048
-319.041	180.250	-0.174	-0.252
-318.026	76.509	0.081	-0.085
-317.012	356.639	0.055	0.108
-315.997	-106.919	0.234	-0.051
-314.983	55.043	-0.214	0.204
-313.968	-200.000	0.004	-0.202
-312.953	-200.000	0.002	0.016
-311.939	288.785	0.119	-0.214
-310.924	97.076	-0.041	0.046
-309.910	377.919	0.160	-0.323
-308.895	-189.855	0.306	0.003
-307.880	-200.000	0.040	0.278
-306.866	-98.604	-0.113	-0.029
-305.851	151.811	-0.110	0.148
-304.837	-200.000	-0.039	0.215
-303.822	37.524	0.165	-0.145
-302.807	-47.796	-0.088	0.042
-301.793	-200.000	0.011	0.318
-300.778	-46.866	-0.312	0.151
-299.764	-118.271	-0.204	0.036
-298.749	167.007	0.090	0.127
-297.735	129.390	0.187	-0.237
-296.720	-200.000	-0.004	-0.072
-295.705	-49.921	0.298	-0.140
-294.691	-42.712	-0.110	0.055
-293.676	262.310	-0.162	0.278
-292.662	60.163	-0.190	-0.186
-291.647	-36.751	-0.064	0.034
-290.632	-58.342	0.275	-0.118
-289.618	-85.997	0.241	0.074
-288.603	71.018	-0.252	-0.258
-287.589	-200.000	-0.032	0.401
-286.574	-200.000	0.023	0.127
-285.559	-200.000	0.025	0.291
-284.545	-41.529	0.141	0.072
-283.530	267.055	0.248	-0.428
-282.516	-200.000	-0.018	-0.123
-281.501	102.427	0.159	0.184
-280.486	800.000	-0.138	-0.583
-279.472	800.000	0.081	-0.329
-278.457	-113.888	-0.267	-0.051
-277.443	-58.239	-0.110	-0.048
-276.428	-200.000	-0.078	0.518
-275.413	789.907	0.092	-0.248
-274.399	-142.089	0.249	-0.024
-273.384	-68.758	0.075	0.028
-272.370	7.720	0.074	0.055
-271.355	-200.000	0.050	-0.227
-270.340	395.792	0.023	-0.046
-269.326	-92.267	-0.189	-0.053
-268.311	61.165	-0.146	0.143
-267.297	-101.852	-0.298	-0.071
-266.282	100.510	-0.191	-0.219
-265.267	-200.000	-0.006	-0.136
-264.253	-79.005	-0.168	0.056
-263.238	-103.782	-0.209	-0.048
-262.224	-181.137	-0.248	-0.005
-261.209	-200.000	0.022	-0.130
-260.195	-79.988	0.281	-0.093
-259.180	-200.000	0.057	-0.326
-258.165	-165.081	-0.220	-0.010
-257.151	-163.743	0.154	-0.007
-256.136	196.096	-0.108	0.162
-255.122	-168.958	-0.369	0.014
-254.107	-84.455	0.232	-0.072
-253.092	-57.218	0.285	0.124
-252.078	-200.000	0.020	0.251
-251.063	89.027	-0.177	0.195
-250.049	-200.000	-0.009	-0.045
-249.034	186.010	-0.034	-0.049
-248.019	-111.737	-0.263	0.053
-247.005	-135.232	0.105	-0.012
-245.990	118.566	-0.126	-0.153
-244.976	-91.979	0.144	0.040
-243.961	-139.990	-0.300	0.031
-242.946	217.676	0.231	0.363
-241.932	-40.912	0.226	-0.115
-240.917	-94.022	-0.254	0.069
-239.903	69.691	0.073	-0.074
-238.888	-133.721	0.201	0.025
-237.873	-40.903	-0.198	0.101
-236.859	-200.000	0.034	-0.164
-235.844	66.510	0.135	0.136
-234.830	-118.304	-0.370	-0.065
-233.815	-167.004	0.103	-0.004
-232.800	800.000	0.074	-0.219
-231.786	266.790	-0.148	0.255
-230.771	-200.000	0.004	0.082
-229.757	-166.124	-0.302	0.013
-228.742	800.000	-0.103	0.291
-227.727	-200.000	-0.001	0.029
-226.713	-200.000	-0.029	-0.154
-225.698	-2.844	0.178	0.122
-224.684	609.131	-0.114	0.281
-223.669	-200.000	0.036	0.179
-222.655	195.155	-0.168	0.252
-221.640	34.082	0.180	0.155
-220.625	23.616	0.143	-0.116
-219.611	-200.000	-0.047	0.323
-218.596	-200.000	0.150	0.000
-217.582	-33.186	0.326	-0.178
-216.567	-72.808	-0.240	0.087
-215.552	52.770	-0.120	0.113
-214.538	94.990	0.114	0.128
-213.523	-176.892	0.120	0.003
-212.509	129.128	-0.241	0.303
-211.494	68.011	-0.166	0.168
-210.479	-76.014	-0.173	0.060
-209.465	800.000	-0.050	-0.177
-208.450	-55.572	0.083	0.037
-207.436	-200.000	0.031	0.216
-206.421	-47.658	-0.252	-0.121
-205.406	125.942	-0.238	-0.296
-204.392	-22.399	-0.181	-0.108
-203.377	800.000	-0.041	0.148
-202.363	-12.399	-0.147	0.095
-201.348	20.134	0.137	0.109
-200.333	-156.781	-0.291	0.018
-199.319	-200.000	-0.025	0.423
-198.304	-57.553	-0.381	0.164
-197.290	30.403	-0.147	-0.124
-196.275	-127.724	0.215	0.031
-195.260	313.287	0.109	0.202
-194.246	-56.072	-0.120	0.053
-193.231	-200.000	-0.012	-0.295
-192.217	83.837	0.070	0.076
-191.202	800.000	-0.032	-0.104
-190.187	8.309	0.343	0.253
-189.173	148.553	-0.137	0.182
-188.158	-200.000	-0.032	-0.146
-187.144	-200.000	-0.070	0.315
-186.129	-200.000	0.003	0.015
-185.114	-163.045	0.406	0.019
-184.100	-126.887	0.137	0.020
-183.085	379.289	-0.063	-0.128
-182.071	-200.000	0.015	-0.389
-181.056	112.072	-0.115	-0.137
-180.042	-70.399	0.240	-0.090
-179.027	-35.801	0.271	-0.144
-178.012	24.068	-0.269	0.219
-176.998	611.575	-0.049	-0.119
-175.983	-98.916	0.280	-0.070
-174.969	334.006	0.087	0.166
-173.954	-188.802	-0.075	-0.001
-172.939	-15.259	-0.140	-0.088
-171.925	-200.000	-0.043	0.241
-170.910	-125.021	0.322	0.049
-169.896	15.986	-0.050	0.039
-168.881	275.229	0.198	0.345
-167.866	591.537	0.080	-0.194
-166.852	800.000	-0.084	-0.313
-165.837	800.000	0.165	-0.480
-164.823	-111.113	0.337	-0.068
-163.808	6.531	-0.302	0.221
-162.793	-171.748	0.215	-0.007
-161.779	-134.715	0.274	0.033
-160.764	-101.125	0.105	-0.025
-159.750	-8.094	-0.180	0.120
-158.735	-41.925	0.057	-0.029
-157.720	37.450	-0.106	0.092
-156.706	-154.442	0.313	-0.021
-155.691	800.000	0.090	-0.274
-154.677	-200.000	0.019	0.202
-153.662	54.689	-0.223	-0.212
-152.647	-147.339	0.102	0.008
-151.633	342.855	-0.125	-0.240
-150.618	-72.962	0.251	-0.091
-149.604	209.810	-0.070	0.107
-148.589	-37.278	0.227	0.119
-147.574	-60.491	0.221	-0.092
-146.560	-129.497	-0.132	-0.018
-145.545	414.912	-0.055	-0.114
-144.531	130.990	-0.079	0.100
-143.516	-89.011	-0.284	0.082
-142.502	472.804	0.120	0.265
-141.487	145.031	0.124	-0.162
-140.472	-64.922	0.138	0.055
-139.458	-70.561	0.151	-0.056
-138.443	-96.113	0.124	-0.032
-137.429	800.000	0.065	-0.179
-136.414	86.147	0.067	-0.073
-135.399	295.806	-0.106	-0.191
-134.385	-111.185	0.246	-0.049
-133.370	154.773	0.142	-0.192
-132.356	197.725	-0.166	-0.249
-131.341	83.341	0.250	0.267
-130.326	552.888	0.100	0.236
-129.312	-52.236	0.271	0.124
-128.297	57.145	-0.053	0.051
-127.283	-200.000	-0.212	0.000
-126.268	-200.000	0.010	-0.138
-125.253	-4.526	0.168	0.114
-124.239	-174.640	-0.505	0.014
-123.224	255.323	0.081	-0.136
-122.210	-200.000	0.027	-0.203
-121.195	142.609	0.067	0.087
-120.180	-96.629	0.405	0.105
-119.166	-161.182	0.304	0.016
-118.151	-200.000	-0.015	0.233
-117.137	-94.308	0.093	0.025
-116.122	78.426	0.218	0.229
-115.107	261.023	-0.173	-0.294
-114.093	-102.118	0.050	0.012
-113.078	-66.702	0.217	-0.084
-112.064	-159.743	-0.205	-0.011
-111.049	-156.070	-0.251	0.016
-110.034	-15.595	0.189	-0.119
-109.020	800.000	-0.050	-0.175
-108.005	-129.614	-0.220	0.030
-106.991	-200.000	-0.006	0.069
-105.976	800.000	0.098	-0.271
-104.962	133.143	-0.151	0.191
-103.947	-22.341	-0.100	0.059
-102.932	-175.003	-0.097	0.003
-101.918	12.068	-0.130	0.098
-100.903	234.818	0.140	0.227
-99.889	65.758	-0.173	0.172
-98.874	800.000	0.050	-0.207
-97.859	377.386	0.122	0.244
-96.845	-109.565	0.081	-0.017
-95.830	-21.293	0.207	-0.124
-94.816	-200.000	0.034	-0.210
-93.801	-109.197	-0.429	-0.089
-92.786	58.529	0.098	0.094
-91.772	-46.080	0.251	-0.121
-90.757	-17.716	-0.294	0.181
-89.743	800.000	0.029	0.087
-88.728	34.581	-0.108	0.093
-87.713	-3.086	0.202	-0.138
-86.699	-180.662	0.363	-0.007
-85.684	-66.057	0.421	0.165
-84.670	689.438	-0.116	0.298
-83.655	129.784	-0.166	0.208
-82.640	26.741	-0.107	0.088
-81.626	384.173	0.128	-0.259
-80.611	800.000	-0.032	-0.135
-79.597	-142.202	0.163	-0.016
-78.582	800.000	-0.125	0.369
-77.567	626.213	-0.039	-0.096
-76.553	-70.283	-0.223	0.083
-75.538	800.000	0.027	0.087
-74.524	800.000	0.031	-0.116
-73.509	-26.189	0.284	-0.164
-72.494	-89.124	-0.094	-0.027
-71.480	-57.818	0.120	-0.052
-70.465	149.730	-0.186	0.247
-69.451	800.000	0.034	0.118
-68.436	152.278	-0.148	0.198
-67.422	-200.000	0.012	0.087
-66.407	-32.590	-0.084	0.046
-65.392	407.722	0.066	0.136
-64.378	-1.874	-0.245	0.169
-63.363	-2.925	0.263	0.180
-62.349	-200.000	0.001	0.279
-61.334	184.674	-0.821	-1.192
-60.319	-8.370	0.610	0.402
-59.305	588.285	-0.573	-1.382
-58.290	138.533	0.926	1.190
-57.276	800.000	0.508	1.485
-56.261	-200.000	109.956	591.036
-55.246	418.736	1525.909	3195.509
-54.232	140.826	2723.887	3524.395
-53.217	95.371	2326.826	2596.761
-52.203	36.970	1928.851	1670.414
-51.188	31.181	1714.303	1440.049
-50.173	28.616	1671.847	1385.003
-49.159	48.739	1725.568	1584.210
-48.144	48.391	1740.039	1594.773
-47.130	30.840	1698.090	1423.597
-46.115	28.170	1683.685	1391.194
-45.100	28.023	1678.318	1385.592
-44.086	27.804	1676.552	1382.419
-43.071	27.822	1673.577	1380.045
-42.057	27.808	1671.478	1378.158
-41.042	27.849	1669.020	1376.387
-40.027	27.876	1666.760	1374.672
-39.013	27.878	1665.004	1373.180
-37.998	27.847	1663.350	1371.534
-36.984	27.926	1662.064	1371.010
-35.969	27.950	1660.638	1369.959
-34.954	28.072	1659.009	1369.476
-33.940	28.004	1657.004	1367.254
-32.925	27.953	1655.683	1365.732
-31.911	27.921	1653.754	1363.847
-30.896	28.022	1652.059	1363.150
-29.881	28.125	1650.037	1362.192
-28.867	28.084	1648.144	1360.269
-27.852	27.928	1647.531	1358.554
-26.838	28.021	1645.562	1357.563
-25.823	28.048	1644.689	1356.992
-24.809	28.049	1642.870	1355.441
-23.794	28.059	1641.881	1354.643
-22.779	28.051	1640.003	1352.987
-21.765	27.999	1638.541	1351.338
-20.750	28.059	1636.869	1350.350
-19.736	28.161	1635.851	1350.212
-18.721	28.150	1634.444	1348.911
-17.706	28.103	1632.801	1347.159
-16.692	28.065	1631.659	1345.880
-15.677	28.128	1630.198	1345.086
-14.663	28.127	1628.686	1343.778
-13.648	28.142	1627.025	1342.467
-12.633	28.043	1625.623	1340.531
-11.619	27.996	1624.064	1338.844
-10.604	27.987	1622.520	1337.455
-9.590	28.101	1621.107	1337.073
-8.575	28.010	1620.119	1335.534
-7.560	28.157	1618.592	1335.300
-6.546	28.057	1617.791	1333.857
-5.531	28.080	1616.581	1332.974
-4.517	28.002	1615.847	1331.745
-3.502	28.138	1614.505	1331.576
-2.487	28.213	1612.705	1330.584
-1.473	27.971	1601.014	1319.140
-0.458	25.593	1582.303	1286.681
0.556	20.785	1584.423	1258.118
1.571	18.648	1608.945	1261.775
2.586	18.095	1622.460	1268.160
3.600	16.486	1568.360	1214.222
4.615	9.100	1457.125	1078.545
5.629	1.827	1392.669	983.912
6.644	0.426	1384.957	969.380
7.659	0.350	1383.260	967.615
8.673	0.305	1382.942	967.018
9.688	0.250	1380.656	964.982
10.702	0.055	1377.363	961.353
11.717	3.467	1382.700	986.854
12.731	11.536	1395.000	1047.473
13.746	16.380	1401.735	1083.580
14.761	16.866	1401.349	1086.297
15.775	16.172	1399.316	1080.183
16.790	15.329	1395.982	1072.133
17.804	14.373	1394.570	1064.845
18.819	14.135	1392.769	1061.852
19.834	13.824	1391.183	1058.568
20.848	13.599	1389.673	1055.893
21.863	13.287	1388.842	1053.182
22.877	13.161	1387.958	1051.613
23.892	13.178	1386.607	1050.608
24.907	13.138	1385.833	1049.674
25.921	13.147	1384.855	1048.893
26.936	13.185	1383.921	1048.333
27.950	13.225	1383.171	1047.929
28.965	13.262	1382.127	1047.282
29.980	13.269	1381.255	1046.569
30.994	13.309	1380.172	1045.911
32.009	13.414	1379.437	1045.923
33.023	13.379	1378.081	1044.586
34.038	13.306	1376.680	1042.967
35.053	13.292	1375.722	1042.060
36.067	13.313	1375.069	1041.606
37.082	13.294	1374.305	1040.819
38.096	13.371	1372.730	1040.019
39.111	13.226	1372.626	1038.934
40.126	13.214	1371.354	1037.804
41.140	13.107	1371.163	1036.892
42.155	13.111	1370.160	1036.070
43.169	13.167	1369.768	1036.032
44.184	13.127	1369.569	1035.543
45.199	13.176	1369.047	1035.359
46.213	13.248	1367.904	1034.859
47.228	13.220	1367.600	1034.357
48.242	13.226	1366.045	1033.131
49.257	13.216	1365.049	1032.222
50.271	13.259	1363.233	1031.023
51.286	13.249	1362.045	1029.973
52.301	13.296	1360.551	1029.043
53.315	13.288	1359.846	1028.371
54.330	13.266	1358.536	1027.152
55.344	13.210	1357.506	1025.937
56.359	13.213	1356.070	1024.777
57.374	13.155	1355.755	1024.088
58.388	13.147	1354.750	1023.192
59.403	13.177	1354.023	1022.739
60.417	13.097	1353.905	1022.062
61.432	13.069	1352.415	1020.676
62.447	13.129	1351.428	1020.212
63.461	13.110	1350.153	1019.036
64.476	13.043	1349.465	1018.016
65.490	13.114	1347.862	1017.151
66.505	13.180	1346.346	1016.327
67.520	13.111	1345.496	1015.168
68.534	13.048	1344.562	1013.989
69.549	13.148	1343.023	1013.351
70.563	13.085	1342.142	1012.211
71.578	13.085	1340.728	1011.057
72.593	13.010	1340.124	1010.053
73.607	13.038	1339.378	1009.569
74.622	12.990	1338.869	1008.804
75.636	13.037	1337.970	1008.323
76.651	13.044	1336.976	1007.531
77.666	13.050	1336.495	1007.117
78.680	13.106	1335.639	1006.722
79.695	13.092	1334.352	1005.578
80.709	13.119	1333.842	1005.266
81.724	13.162	1333.422	1005.124
82.739	13.183	1332.016	1004.102
83.753	13.220	1331.170	1003.603
84.768	13.325	1329.743	1003.075
85.782	13.261	1329.259	1002.231
86.797	13.284	1327.261	1000.778
87.812	13.229	1325.900	999.330
88.826	13.211	1325.231	998.630
89.841	13.159	1324.260	997.496
90.855	13.224	1323.585	997.287
91.870	13.331	1322.450	996.992
92.884	13.344	1321.205	996.045
93.899	13.369	1320.415	995.508
94.914	13.363	1319.811	994.931
95.928	13.358	1318.745	994.011
96.943	13.449	1317.899	993.827
97.957	13.358	1316.965	992.492
98.972	13.337	1316.087	991.614
99.987	13.345	1314.723	990.548
101.001	13.303	1313.972	989.643
102.016	13.247	1313.221	988.655
103.030	13.207	1312.251	987.598
104.045	13.380	1310.693	987.368
105.060	13.275	1309.715	985.920
106.074	13.270	1308.444	984.848
107.089	13.175	1307.006	983.112
108.103	13.217	1305.595	982.215
109.118	13.113	1304.773	980.887
110.133	13.096	1303.483	979.732
111.147	13.190	1301.754	978.902
112.162	13.181	1300.860	978.089
113.176	13.288	1299.026	977.261
114.191	13.230	1298.869	976.708
115.206	13.311	1297.499	976.073
116.220	13.265	1296.495	974.956
117.235	13.316	1295.096	974.124
118.249	13.179	1294.451	972.745
119.264	13.121	1293.692	971.747
120.279	13.243	1292.202	971.255
121.293	13.095	1291.701	969.927
122.308	13.185	1290.020	969.107
123.322	13.180	1289.039	968.255
124.337	13.190	1287.531	967.096
125.352	13.130	1286.729	966.058
126.366	13.202	1285.270	965.292
127.381	13.160	1284.576	964.441
128.395	13.219	1283.561	963.937
129.410	13.268	1282.442	963.301
130.424	13.295	1281.377	962.570
131.439	13.271	1280.297	961.535
132.454	13.227	1279.244	960.402
133.468	13.316	1278.456	960.241
134.483	13.293	1277.804	959.535
135.497	13.210	1277.074	958.419
136.512	13.205	1275.502	957.127
137.527	13.206	1273.980	955.904
138.541	13.237	1272.512	954.903
139.556	13.264	1271.422	954.153
140.570	13.385	1269.521	953.340
141.585	13.380	1268.754	952.651
142.600	13.398	1267.274	951.558
143.614	13.466	1266.406	951.211
144.629	13.418	1265.867	950.450
145.643	13.399	1264.808	949.459
146.658	13.387	1263.049	947.986
147.673	13.369	1261.811	946.870
148.687	13.353	1260.656	945.831
149.702	13.428	1259.540	945.335
150.716	13.386	1257.769	943.683
151.731	13.331	1256.870	942.611
152.746	13.280	1256.056	941.628
153.760	13.478	1254.251	941.320
154.775	13.546	1253.078	940.741
155.789	13.456	1252.361	939.608
156.804	13.457	1251.412	938.816
157.819	13.461	1250.520	938.088
158.833	13.536	1249.467	937.639
159.848	13.545	1248.362	936.778
160.862	13.571	1247.709	936.356
161.877	13.496	1246.073	934.623
162.892	13.473	1244.768	933.429
163.906	13.506	1243.960	932.929
164.921	13.521	1243.073	932.262
165.935	13.541	1242.691	932.004
166.950	13.550	1241.598	931.152
167.964	13.468	1241.478	930.520
168.979	13.476	1240.706	929.906
169.994	13.506	1239.932	929.412
171.008	13.685	1238.469	929.235
172.023	13.699	1237.647	928.618
173.037	13.735	1237.223	928.414
174.052	13.662	1236.132	927.107
175.067	13.629	1235.014	926.005
176.081	13.547	1234.127	924.797
177.096	13.702	1233.187	924.879
178.110	13.556	1232.561	923.512
179.125	13.642	1230.720	922.530
180.140	13.720	1229.419	921.905
181.154	13.728	1228.379	921.089
182.169	13.738	1227.067	920.080
183.183	13.659	1226.284	918.973
184.198	13.741	1225.111	918.464
185.213	13.781	1223.691	917.542
186.227	13.885	1222.957	917.484
187.242	13.791	1221.870	916.070
188.256	13.886	1220.694	915.632
189.271	13.897	1219.321	914.577
190.286	13.819	1218.617	913.539
191.300	13.710	1218.203	912.553
192.315	13.610	1217.304	911.248
193.329	13.656	1216.724	910.983
194.344	13.677	1216.080	910.540
195.359	13.842	1215.155	910.667
196.373	13.872	1214.883	910.552
197.388	13.896	1214.065	909.986
198.402	13.898	1213.952	909.833
199.417	13.953	1213.468	909.693
200.432	14.047	1211.926	908.968
201.446	14.080	1211.126	908.468
202.461	14.059	1210.248	907.616
203.475	14.057	1209.377	906.872
204.490	14.014	1207.990	905.519
205.504	14.027	1206.629	904.484
206.519	14.104	1205.474	903.957
207.534	14.087	1204.248	902.868
208.548	14.069	1203.432	902.079
209.563	14.098	1202.700	901.607
210.577	13.986	1202.015	900.409
211.592	14.070	1201.176	900.152
212.607	14.208	1199.686	899.706
213.621	14.167	1198.883	898.801
214.636	14.084	1198.332	897.860
215.650	14.027	1197.227	896.646
216.665	14.143	1196.362	896.542
217.680	14.324	1195.526	896.810
218.694	14.227	1194.858	895.711
219.709	14.224	1194.225	895.140
220.723	14.291	1193.243	894.686
221.738	14.312	1192.796	894.384
222.753	14.253	1191.981	893.377
223.767	14.296	1190.711	892.572
224.782	14.451	1189.880	892.703
225.796	14.498	1189.605	892.667
226.811	14.439	1188.912	891.757
227.826	14.424	1188.359	891.179
228.840	14.500	1187.738	891.041
229.855	14.392	1186.895	889.755
230.869	14.440	1185.668	889.013
231.884	14.475	1185.058	888.664
232.899	14.385	1184.187	887.453
233.913	14.385	1183.709	887.016
234.928	14.463	1182.583	886.505
235.942	14.320	1182.318	885.471
236.957	14.450	1181.415	885.406
237.972	14.480	1180.529	884.824
238.986	14.437	1180.148	884.233
240.001	14.338	1179.649	883.254
241.015	14.479	1178.283	882.897
242.030	14.531	1177.692	882.654
243.045	14.547	1176.766	881.969
244.059	14.498	1175.949	881.018
245.074	14.631	1175.289	881.146
246.088	14.556	1174.653	880.196
247.103	14.589	1173.389	879.345
248.117	14.615	1172.779	878.948
249.132	14.612	1172.184	878.408
250.147	14.791	1171.344	878.639
251.161	14.707	1170.687	877.631
252.176	14.803	1169.976	877.523
253.190	14.775	1169.430	876.888
254.205	14.827	1168.964	876.734
255.220	14.953	1168.337	876.845
256.234	14.930	1167.465	875.993
257.249	14.831	1166.923	874.991
258.263	14.889	1166.121	874.616
259.278	14.898	1165.956	874.461
260.293	14.934	1165.322	874.100
261.307	14.865	1164.745	873.227
262.322	15.035	1163.961	873.448
263.336	15.011	1162.723	872.316
264.351	14.970	1162.562	871.905
265.366	14.944	1161.939	871.226
266.380	15.023	1161.096	870.931
267.395	15.109	1159.965	870.453
268.409	14.997	1159.511	869.452
269.424	14.877	1159.079	868.427
270.439	14.961	1158.415	868.289
271.453	15.010	1157.535	867.807
272.468	15.131	1156.320	867.447
273.482	15.067	1155.498	866.420
274.497	15.063	1155.040	865.980
275.512	15.163	1154.221	865.807
276.526	15.111	1153.540	864.952
277.541	15.122	1152.815	864.386
278.555	15.128	1152.265	863.927
279.570	15.156	1151.808	863.654
280.585	15.284	1150.714	863.418
281.599	15.312	1149.397	862.498
282.614	15.200	1149.068	861.596
283.628	15.314	1147.473	860.908
284.643	15.276	1147.133	860.382
285.657	15.319	1146.140	859.784
286.672	15.214	1145.306	858.543
287.687	15.374	1144.118	858.396
288.701	15.398	1142.991	857.597
289.716	15.376	1142.523	857.056
290.730	15.355	1142.243	856.665
291.745	15.432	1140.942	856.007
292.760	15.448	1140.566	855.728
293.774	15.407	1140.189	855.162
294.789	15.466	1139.453	854.836
295.803	15.507	1138.646	854.362
296.818	15.372	1137.993	853.110
297.833	15.440	1137.191	852.779
298.847	15.518	1136.597	852.654
299.862	15.635	1135.422	852.290
300.876	15.541	1134.836	851.300
301.891	15.473	1134.158	850.371
302.906	15.439	1133.797	849.852
303.920	15.625	1132.768	849.949
304.935	15.777	1132.367	850.337
305.949	15.638	1131.608	848.991
306.964	15.703	1130.608	848.495
307.979	15.608	1130.392	847.777
308.993	15.642	1129.685	847.344
310.008	15.667	1128.759	846.703
311.022	15.669	1127.797	845.912
312.037	15.711	1126.881	845.365
313.052	15.744	1126.100	844.868
314.066	15.746	1125.138	844.083
315.081	15.735	1124.362	843.369
316.095	15.751	1123.674	842.859
317.110	15.722	1122.996	842.131
318.125	15.800	1121.936	841.652
319.139	15.727	1121.706	841.042
320.154	15.672	1121.013	840.172
321.168	15.737	1120.058	839.703
322.183	15.686	1119.669	839.084
323.197	15.850	1118.572	839.007
324.212	15.777	1118.661	838.636
325.227	15.806	1117.837	838.085
326.241	15.780	1117.025	837.277
327.256	15.726	1116.042	836.197
328.270	15.816	1115.023	835.806
329.285	15.900	1114.081	835.443
330.300	15.849	1113.217	834.465
331.314	15.807	1112.432	833.599
332.329	15.950	1111.373	833.435
333.343	15.895	1110.915	832.748
334.358	15.887	1109.578	831.631
335.373	16.058	1108.928	831.918
336.387	15.969	1108.404	831.011
337.402	15.945	1107.915	830.453
338.416	16.039	1107.234	830.329
339.431	16.003	1106.330	829.403
340.446	16.080	1105.696	829.233
341.460	16.162	1104.994	829.037
342.475	16.105	1104.053	827.977
343.489	16.091	1103.203	827.197
344.504	16.011	1102.721	826.371
345.519	16.163	1101.215	825.914
346.533	16.227	1100.765	825.814
347.548	16.221	1100.251	825.327
348.562	16.377	1098.956	825.047
349.577	16.222	1098.643	823.981
350.592	16.330	1097.359	823.471
351.606	16.188	1097.060	822.483
352.621	16.181	1096.527	821.975
353.635	16.186	1095.761	821.351
354.650	16.258	1094.808	820.914
355.665	16.263	1094.217	820.422
356.679	16.211	1093.703	819.714
357.694	16.384	1092.806	819.807
358.708	16.378	1092.225	819.270
359.723	16.288	1091.936	818.545
360.738	16.316	1091.090	817.973
361.752	16.412	1090.234	817.726
362.767	16.328	1090.174	817.202
363.781	16.389	1089.489	816.910
364.796	16.394	1088.839	816.376
365.810	16.441	1088.042	815.930
366.825	16.567	1087.390	815.980
367.840	16.528	1087.216	815.586
368.854	16.651	1086.401	815.496
369.869	16.668	1085.429	814.777
370.883	16.589	1084.364	813.524
371.898	16.565	1084.080	813.123
372.913	16.627	1083.746	813.102
373.927	16.578	1082.884	812.145
374.942	16.635	1082.280	811.895
375.956	16.660	1081.945	811.692
376.971	16.724	1081.158	811.336
377.986	16.694	1080.413	810.561
379.000	16.672	1080.470	810.428
380.015	16.736	1079.961	810.280
381.029	16.768	1079.080	809.703
382.044	16.866	1078.152	809.402
383.059	16.935	1076.860	808.687
384.073	16.865	1076.372	807.916
385.088	16.795	1075.806	807.088
386.102	16.898	1074.597	806.598
387.117	16.972	1073.741	806.236
388.132	16.799	1072.598	804.487
389.146	16.810	1072.252	804.205
390.161	16.816	1071.632	803.700
391.175	16.894	1070.559	803.192
392.190	16.863	1070.222	802.721
393.205	16.856	1069.263	801.900
394.219	16.912	1068.684	801.658
395.234	16.919	1067.640	800.838
396.248	17.038	1066.325	800.342
397.263	17.024	1065.641	799.693
398.278	16.932	1065.062	798.752
399.292	16.833	1064.781	798.006
400.307	16.879	1064.007	797.570
401.321	16.830	1063.261	796.709
402.336	17.003	1062.426	796.826
403.350	17.018	1061.739	796.313
404.365	17.004	1061.242	795.804
405.380	17.003	1060.293	795.016
406.394	17.039	1059.599	794.593
407.409	17.114	1058.559	794.095
408.423	17.194	1057.864	793.875
409.438	17.196	1057.314	793.402
410.453	17.307	1056.495	793.237
411.467	17.237	1055.718	792.257
412.482	17.265	1055.184	791.914
413.496	17.316	1054.503	791.574
414.511	17.338	1053.957	791.195
415.526	17.296	1053.478	790.570
416.540	17.278	1053.265	790.257
417.555	17.369	1052.478	790.017
418.569	17.355	1051.909	789.455
419.584	17.282	1051.568	788.793
420.599	17.504	1051.243	789.510
421.613	104.567	1326.643	1476.630
422.628	96.244	1366.703	1476.717
