DTS Sentinel unit serial number:	SN413079Multiplexer serial number:	ORYXHardware model number:	OX4-SRSoftware version number:	ORYX F/W v4.00 Oryx Data Collector v3.7.2.0data status	okinstallation	princeton_trtdifferential loss correction	single-endedforward channel	channel 2reverse channel	N/Adate	2019/09/12time	07:37:10forward acquisition time	60.00reverse acquisition time	0.00gamma	496.2192k internal	0.2322k external	0.2322temperature offset calibration	1.0061default loss term (dB/km)	0.3790temperature slope calibration	1.0000multiplexer offset coefficient	1.0000multiplexer slope coefficient	1.0000fibre end	0.00T internal ref (°C)	32.64T ext. ref 1 (°C)	1.64T ext. ref 2 (°C)	29.21length (m)	temperature (°C)	Stokes	anti-Stokes-747.200	-200.000	-0.020	0.231
-746.185	26.726	0.060	0.051
-745.171	-13.897	0.288	-0.188
-744.156	-200.000	0.022	0.264
-743.142	-77.521	0.321	0.113
-742.127	1.242	0.178	0.129
-741.112	-13.885	0.161	0.105
-740.098	-75.452	-0.231	0.083
-739.083	366.524	0.120	0.245
-738.069	101.094	-0.293	0.344
-737.054	782.761	0.103	-0.284
-736.039	-10.167	-0.283	-0.190
-735.025	-200.000	0.015	0.255
-734.010	349.919	-0.229	-0.457
-732.996	-118.419	-0.267	0.048
-731.981	58.559	0.297	-0.295
-730.966	505.151	-0.030	-0.071
-729.952	72.154	-0.216	-0.228
-728.937	-150.538	-0.394	-0.030
-727.923	-168.867	-0.196	0.007
-726.908	800.000	-0.042	0.133
-725.894	242.800	-0.045	0.076
-724.879	-68.474	0.283	-0.111
-723.864	4.580	-0.171	0.126
-722.850	3.456	-0.117	-0.086
-721.835	-200.000	0.033	0.392
-720.821	-119.172	-0.132	-0.023
-719.806	88.298	-0.129	-0.145
-718.791	800.000	-0.091	-0.292
-717.777	-102.122	-0.279	0.068
-716.762	-38.897	-0.060	-0.032
-715.748	7.932	0.410	0.310
-714.733	18.691	-0.192	0.155
-713.718	261.913	-0.174	0.305
-712.704	-135.482	0.045	0.005
-711.689	197.648	-0.183	-0.282
-710.675	-94.718	-0.344	0.094
-709.660	-71.479	0.146	-0.055
-708.645	28.510	-0.143	-0.122
-707.631	11.727	0.110	0.085
-706.616	377.249	-0.082	0.170
-705.602	194.642	0.084	0.129
-704.587	-200.000	0.009	0.045
-703.572	-200.000	-0.002	-0.136
-702.558	-200.000	0.033	-0.163
-701.543	800.000	-0.074	-0.207
-700.529	-200.000	0.002	0.277
-699.514	-69.093	-0.215	-0.083
-698.499	-200.000	-0.047	-0.279
-697.485	800.000	-0.070	0.209
-696.470	-200.000	0.003	-0.189
-695.456	14.664	-0.168	0.133
-694.441	423.664	-0.195	0.422
-693.426	65.784	0.154	-0.157
-692.412	27.518	0.123	-0.104
-691.397	-200.000	0.038	-0.225
-690.383	216.683	0.142	-0.227
-689.368	-34.111	-0.104	-0.058
-688.354	-95.529	0.040	-0.011
-687.339	13.472	-0.146	0.114
-686.324	149.703	-0.246	-0.336
-685.310	263.687	0.090	-0.157
-684.295	1.673	0.293	0.213
-683.281	-59.209	0.137	-0.059
-682.266	553.926	0.159	-0.387
-681.251	-68.780	0.265	0.103
-680.237	432.963	0.055	0.121
-679.222	27.867	-0.099	-0.084
-678.208	-139.749	-0.218	-0.023
-677.193	162.995	0.078	-0.110
-676.178	81.555	-0.010	-0.011
-675.164	364.964	-0.054	0.109
-674.149	-159.184	-0.122	-0.007
-673.135	-200.000	0.029	0.185
-672.120	-1.110	0.344	-0.245
-671.105	11.651	-0.175	0.135
-670.091	178.014	-0.145	0.212
-669.076	155.221	-0.028	-0.038
-668.062	566.617	0.046	-0.113
-667.047	10.913	-0.279	-0.215
-666.032	-124.850	0.235	-0.037
-665.018	-124.812	-0.171	0.027
-664.003	-68.852	-0.125	0.049
-662.989	24.262	0.083	-0.069
-661.974	103.968	-0.260	-0.308
-660.959	196.386	-0.177	0.272
-659.945	-49.242	0.183	0.088
-658.930	51.391	-0.207	0.198
-657.916	-200.000	0.000	0.063
-656.901	-64.945	-0.195	-0.079
-655.886	92.892	-0.098	0.111
-654.872	-84.564	-0.185	-0.059
-653.857	-200.000	-0.045	-0.311
-652.843	-200.000	-0.029	-0.223
-651.828	232.638	-0.189	0.312
-650.814	-134.654	-0.157	-0.019
-649.799	-57.100	0.228	-0.101
-648.784	344.616	0.086	0.171
-647.770	-20.035	0.045	-0.028
-646.755	23.880	-0.095	0.079
-645.741	-105.366	0.284	0.065
-644.726	-147.419	0.325	-0.028
-643.711	-15.903	-0.189	0.121
-642.697	350.789	0.021	0.042
-641.682	-200.000	0.020	0.113
-640.668	-120.904	-0.089	-0.015
-639.653	-159.770	0.218	0.012
-638.638	-77.115	-0.289	-0.101
-637.624	-133.173	0.054	-0.007
-636.609	-200.000	-0.006	-0.564
-635.595	-200.000	0.002	0.183
-634.580	-200.000	-0.017	-0.086
-633.565	-80.504	-0.483	0.162
-632.551	26.489	0.126	0.106
-631.536	544.515	0.021	-0.050
-630.522	1.766	0.156	0.113
-629.507	-162.691	0.190	0.009
-628.492	-200.000	0.038	0.197
-627.478	183.493	-0.204	-0.304
-626.463	-71.212	-0.088	-0.033
-625.449	-200.000	0.023	0.319
-624.434	114.628	-0.085	0.104
-623.419	-121.015	0.196	-0.033
-622.405	602.530	0.097	0.241
-621.390	800.000	0.098	-0.325
-620.376	715.290	0.072	-0.193
-619.361	-25.308	0.137	0.081
-618.346	169.915	0.116	0.166
-617.332	-62.334	0.301	-0.126
-616.317	-12.184	0.182	0.120
-615.303	-101.709	0.100	0.024
-614.288	-156.814	-0.204	-0.013
-613.273	89.051	-0.047	-0.053
-612.259	-22.807	-0.106	-0.064
-611.244	-141.155	-0.068	0.007
-610.230	154.208	0.089	-0.122
-609.215	604.395	-0.043	-0.107
-608.201	-129.560	-0.205	0.028
-607.186	-200.000	0.013	0.327
-606.171	800.000	-0.016	-0.054
-605.157	-105.280	-0.559	0.128
-604.142	23.840	0.213	-0.176
-603.128	22.310	-0.054	0.044
-602.113	-14.684	-0.105	-0.068
-601.098	-86.803	-0.316	-0.097
-600.084	7.003	0.220	0.165
-599.069	676.924	0.125	0.325
-598.055	-6.557	0.384	-0.263
-597.040	800.000	0.166	-0.617
-596.025	-200.000	-0.006	-0.083
-595.011	684.028	-0.116	0.303
-593.996	-200.000	-0.005	-0.255
-592.982	800.000	-0.042	-0.133
-591.967	-114.102	-0.485	0.094
-590.952	-129.582	-0.242	0.034
-589.938	-200.000	-0.009	0.078
-588.923	-140.050	-0.149	0.016
-587.909	68.858	-0.120	0.124
-586.894	-25.809	0.214	0.127
-585.879	-105.905	-0.306	-0.069
-584.865	-67.207	-0.244	-0.096
-583.850	-200.000	0.050	-0.380
-582.836	-96.791	-0.211	-0.056
-581.821	-37.283	0.194	0.104
-580.806	619.990	0.031	0.078
-579.792	123.457	-0.277	0.349
-578.777	45.288	0.066	0.061
-577.763	383.443	-0.098	0.202
-576.748	800.000	-0.065	-0.272
-575.733	-155.719	0.134	0.009
-574.719	-151.060	0.242	0.018
-573.704	-200.000	0.025	-0.201
-572.690	359.242	0.111	-0.223
-571.675	24.120	0.198	-0.164
-570.661	79.741	0.082	0.088
-569.646	11.194	0.058	0.044
-568.631	662.381	-0.094	-0.243
-567.617	-188.358	0.234	-0.003
-566.602	800.000	-0.062	-0.272
-565.588	-61.812	0.276	-0.116
-564.573	81.083	0.120	-0.130
-563.558	-28.627	-0.181	0.105
-562.544	22.403	-0.051	0.041
-561.529	1.921	0.205	0.148
-560.515	-148.116	-0.237	-0.020
-559.500	-137.421	-0.112	0.013
-558.485	-85.949	-0.051	-0.016
-557.471	-51.085	-0.331	-0.156
-556.456	597.868	0.086	0.214
-555.442	800.000	0.086	0.370
-554.427	-81.867	-0.320	0.105
-553.412	50.210	-0.114	0.108
-552.398	-33.670	-0.214	0.119
-551.383	-150.366	0.102	0.008
-550.369	-171.298	0.087	-0.003
-549.354	-200.000	-0.008	-0.374
-548.339	613.054	-0.061	-0.154
-547.325	-91.110	0.289	-0.083
-546.310	-87.337	0.095	-0.029
-545.296	-28.378	-0.090	0.052
-544.281	249.729	0.175	0.298
-543.266	-0.444	0.151	-0.108
-542.252	180.676	-0.278	-0.408
-541.237	780.854	-0.083	0.229
-540.223	24.182	0.237	-0.196
-539.208	-26.620	0.183	0.107
-538.193	72.129	-0.183	0.191
-537.179	-55.214	-0.267	0.120
-536.164	-21.332	-0.020	-0.012
-535.150	97.026	-0.070	-0.080
-534.135	-71.730	0.186	-0.070
-533.121	358.698	0.041	-0.082
-532.106	-200.000	0.030	-0.416
-531.091	-146.622	-0.264	-0.023
-530.077	-188.859	-0.053	0.001
-529.062	-49.643	0.294	-0.140
-528.048	-58.065	0.206	-0.090
-527.033	666.398	-0.124	0.320
-526.018	319.720	0.014	0.027
-525.004	-200.000	0.019	0.164
-523.989	-108.699	0.047	0.010
-522.975	-115.190	-0.347	0.066
-521.960	-130.303	0.159	-0.022
-520.945	800.000	0.096	0.339
-519.931	105.752	-0.229	0.271
-518.916	-106.971	-0.128	-0.028
-517.902	83.792	0.061	-0.067
-516.887	-8.407	0.033	-0.022
-515.872	800.000	-0.047	-0.193
-514.858	-38.974	-0.214	0.113
-513.843	-49.429	-0.248	-0.118
-512.829	163.513	0.130	0.183
-511.814	-52.469	0.105	-0.048
-510.799	652.357	-0.114	-0.292
-509.785	-25.720	-0.189	0.112
-508.770	68.952	0.030	-0.031
-507.756	-56.119	0.051	-0.023
-506.741	738.226	0.036	0.097
-505.726	136.081	-0.039	-0.051
-504.712	-39.658	0.140	0.074
-503.697	215.743	0.304	0.483
-502.683	13.251	0.106	0.082
-501.668	-44.714	0.116	0.058
-500.653	-82.125	-0.257	0.084
-499.639	-50.959	-0.096	0.045
-498.624	-79.134	0.222	0.075
-497.610	-168.339	-0.329	0.013
-496.595	170.675	-0.085	-0.122
-495.581	-100.891	-0.084	-0.021
-494.566	-200.000	-0.004	-0.200
-493.551	99.367	-0.357	0.413
-492.537	-100.469	-0.747	-0.185
-491.522	-87.589	-0.213	-0.064
-490.508	800.000	0.099	0.410
-489.493	800.000	0.042	-0.118
-488.478	-138.775	-0.196	0.021
-487.464	-154.954	0.201	0.013
-486.449	9.917	-0.206	0.156
-485.435	105.590	0.063	0.074
-484.420	-100.034	-0.183	-0.046
-483.405	800.000	-0.049	-0.176
-482.391	-23.816	-0.239	-0.143
-481.376	-2.880	-0.186	-0.130
-480.362	-200.000	-0.023	0.106
-479.347	-89.961	-0.072	-0.021
-478.332	491.809	0.095	-0.217
-477.318	-29.524	0.275	0.157
-476.303	-85.972	-0.279	-0.086
-475.289	-45.131	-0.086	-0.043
-474.274	-4.573	0.078	-0.054
-473.259	-103.084	0.084	-0.020
-472.245	-8.919	0.252	0.169
-471.230	-178.186	-0.017	-0.000
-470.216	-100.773	0.263	0.065
-469.201	-50.777	-0.255	-0.120
-468.186	-86.966	-0.165	0.050
-467.172	-60.266	0.019	0.008
-466.157	271.962	0.069	0.122
-465.143	800.000	-0.147	-0.417
-464.128	-200.000	-0.037	-0.191
-463.113	800.000	-0.077	0.232
-462.099	-200.000	0.000	0.011
-461.084	-200.000	0.001	-0.080
-460.070	45.031	-0.190	-0.175
-459.055	122.652	-0.087	-0.108
-458.040	106.846	-0.262	-0.311
-457.026	-22.510	0.411	-0.248
-456.011	211.542	-0.011	-0.017
-454.997	27.563	0.193	0.162
-453.982	385.410	0.119	0.246
-452.968	-84.129	-0.186	0.059
-451.953	277.917	-0.204	-0.363
-450.938	800.000	0.123	-0.393
-449.924	667.794	-0.072	0.185
-448.909	-52.450	-0.168	0.077
-447.895	2.769	-0.080	-0.058
-446.880	-200.000	0.061	-0.444
-445.865	-200.000	0.023	-0.278
-444.851	-200.000	-0.249	-0.001
-443.836	-39.804	-0.093	0.049
-442.822	-200.000	0.014	0.122
-441.807	-47.532	-0.302	0.146
-440.792	-200.000	0.023	-0.143
-439.778	-160.928	0.135	-0.007
-438.763	800.000	-0.082	-0.284
-437.749	-55.409	0.023	0.010
-436.734	85.843	0.062	0.068
-435.719	-18.460	0.039	0.024
-434.705	-49.410	0.224	-0.106
-433.690	-200.000	0.021	-0.158
-432.676	-25.998	-0.321	0.189
-431.661	-128.791	0.335	0.047
-430.646	401.077	0.059	0.123
-429.632	497.695	-0.058	-0.132
-428.617	67.710	-0.224	-0.229
-427.603	204.806	0.101	0.156
-426.588	137.629	-0.141	-0.185
-425.573	-64.461	-0.126	0.051
-424.559	-122.875	-0.273	0.044
-423.544	87.062	0.227	0.250
-422.530	18.203	0.252	0.200
-421.515	-121.835	-0.350	-0.058
-420.500	54.751	-0.166	-0.160
-419.486	172.920	0.056	-0.081
-418.471	197.247	0.112	0.171
-417.457	-109.553	-0.148	0.031
-416.442	2.298	0.260	-0.188
-415.428	5.978	0.123	0.091
-414.413	391.114	-0.124	0.257
-413.398	-143.496	0.288	0.027
-412.384	-174.152	0.171	-0.005
-411.369	27.085	-0.098	0.082
-410.355	-181.740	-0.167	-0.003
-409.340	99.140	0.141	-0.162
-408.325	-4.178	-0.320	-0.221
-407.311	158.549	-0.134	-0.185
-406.296	-15.954	-0.185	0.118
-405.282	34.026	0.195	-0.170
-404.267	-9.315	0.074	-0.049
-403.252	318.651	0.140	0.265
-402.238	422.976	-0.034	0.072
-401.223	-157.378	-0.138	-0.008
-400.209	-135.988	-0.286	0.034
-399.194	-113.627	0.133	0.026
-398.179	618.125	0.085	-0.212
-397.165	-67.471	0.034	0.013
-396.150	45.339	-0.273	-0.251
-395.136	-72.950	-0.089	-0.032
-394.121	-105.678	0.105	0.024
-393.106	800.000	-0.039	0.125
-392.092	91.469	0.128	0.143
-391.077	-80.395	-0.053	0.018
-390.063	340.107	-0.074	0.144
-389.048	-200.000	0.014	0.069
-388.033	193.661	0.152	0.230
-387.019	-10.045	0.205	-0.136
-386.004	160.856	0.150	0.209
-384.990	-42.926	0.163	-0.082
-383.975	198.780	0.166	0.253
-382.960	-49.799	-0.063	0.030
-381.946	183.027	0.020	-0.029
-380.931	-51.324	0.171	-0.080
-379.917	-200.000	-0.016	-0.112
-378.902	-59.337	0.292	0.125
-377.888	-59.360	-0.078	-0.033
-376.873	645.553	-0.125	0.317
-375.858	-200.000	0.006	0.126
-374.844	479.790	0.086	0.195
-373.829	-76.676	-0.077	0.027
-372.815	-6.639	0.343	-0.233
-371.800	-153.463	-0.078	0.005
-370.785	46.947	-0.198	0.183
-369.771	-14.600	0.221	0.141
-368.756	-150.773	-0.196	0.015
-367.742	-84.445	0.014	0.004
-366.727	34.301	-0.189	-0.164
-365.712	-7.086	-0.157	-0.106
-364.698	358.331	0.127	0.253
-363.683	-38.175	0.318	0.168
-362.669	-200.000	-0.058	0.360
-361.654	197.703	0.090	0.136
-360.639	249.447	0.105	0.177
-359.625	228.319	-0.026	0.042
-358.610	21.674	0.142	-0.115
-357.596	31.320	0.263	0.225
-356.581	-200.000	-0.011	-0.100
-355.566	-80.377	0.267	0.089
-354.552	229.021	-0.175	0.284
-353.537	-16.446	-0.215	-0.136
-352.523	157.632	-0.061	0.084
-351.508	531.454	-0.127	0.300
-350.493	-128.605	0.332	-0.047
-349.479	-200.000	-0.049	0.249
-348.464	-89.179	-0.226	0.066
-347.450	-27.007	0.319	-0.185
-346.435	189.518	0.135	-0.201
-345.420	-200.000	-0.032	-0.351
-344.406	-58.092	0.321	0.139
-343.391	-70.159	-0.282	0.107
-342.377	191.338	0.099	0.148
-341.362	-42.254	-0.079	-0.040
-340.348	-200.000	-0.062	0.319
-339.333	104.490	0.115	0.135
-338.318	-17.364	-0.175	0.110
-337.304	-40.051	-0.133	0.069
-336.289	14.255	-0.181	0.140
-335.275	86.444	0.196	0.215
-334.260	800.000	0.020	0.078
-333.245	380.068	0.092	0.187
-332.231	800.000	-0.035	-0.131
-331.216	163.426	-0.153	0.214
-330.202	74.543	0.130	0.136
-329.187	219.216	0.130	-0.206
-328.172	-50.591	0.113	0.053
-327.158	800.000	-0.096	0.342
-326.143	-200.000	-0.015	-0.284
-325.129	537.579	0.043	-0.101
-324.114	225.223	-0.121	-0.195
-323.099	-200.000	0.027	-0.150
-322.085	3.330	0.213	0.154
-321.070	800.000	-0.064	0.245
-320.056	346.535	-0.045	-0.088
-319.041	-100.720	0.036	0.009
-318.026	-22.287	0.175	0.105
-317.012	-148.833	0.198	-0.016
-315.997	196.163	-0.050	-0.076
-314.983	31.603	-0.350	0.299
-313.968	-200.000	-0.045	-0.235
-312.953	-200.000	0.021	0.157
-311.939	-37.846	-0.136	-0.072
-310.924	-200.000	-0.041	0.226
-309.910	-16.994	-0.241	-0.151
-308.895	-92.331	-0.082	0.023
-307.880	-79.383	0.176	0.059
-306.866	94.377	0.137	0.154
-305.851	-200.000	0.006	0.034
-304.837	90.165	0.128	-0.142
-303.822	125.304	0.143	-0.179
-302.807	-68.803	0.233	0.089
-301.793	-200.000	-0.011	-0.237
-300.778	800.000	0.043	0.151
-299.764	-23.192	-0.146	-0.087
-298.749	81.233	0.155	0.166
-297.735	774.271	-0.095	-0.257
-296.720	-37.574	-0.048	0.026
-295.705	64.567	0.289	-0.290
-294.691	74.916	0.167	-0.174
-293.676	-200.000	-0.018	-0.361
-292.662	-200.000	0.006	0.082
-291.647	465.934	0.078	-0.174
-290.632	800.000	-0.070	0.258
-289.618	-77.198	-0.186	0.064
-288.603	37.088	-0.125	-0.109
-287.589	547.747	-0.071	0.169
-286.574	565.274	-0.032	-0.076
-285.559	-200.000	-0.073	-0.533
-284.545	-200.000	0.019	-0.200
-283.530	46.567	-0.064	-0.059
-282.516	-24.676	0.287	0.170
-281.501	-76.046	-0.185	-0.065
-280.486	-172.788	0.238	-0.007
-279.472	-20.397	0.216	0.132
-278.457	-84.347	-0.078	0.024
-277.443	146.977	0.107	-0.143
-276.428	573.970	0.096	0.233
-275.413	72.711	0.171	-0.177
-274.399	415.598	-0.094	-0.198
-273.384	800.000	-0.068	-0.249
-272.370	55.339	0.329	-0.316
-271.355	800.000	-0.034	0.144
-270.340	-134.416	-0.105	0.013
-269.326	70.801	0.258	-0.265
-268.311	-77.957	-0.208	-0.071
-267.297	-200.000	0.007	-0.070
-266.282	-44.693	0.025	0.012
-265.267	-152.562	0.115	0.008
-264.253	-38.304	0.097	-0.051
-263.238	-14.154	-0.156	0.100
-262.224	-78.263	-0.230	0.078
-261.209	-45.915	-0.221	-0.108
-260.195	184.716	-0.138	0.202
-259.180	47.412	0.295	-0.272
-258.165	243.951	0.105	-0.175
-257.151	-59.128	0.061	0.026
-256.136	-77.954	-0.207	0.071
-255.122	82.006	0.222	-0.238
-254.107	-92.511	-0.347	0.097
-253.092	79.556	0.165	0.176
-252.078	46.933	-0.183	-0.169
-251.063	-200.000	-0.012	0.059
-250.049	-163.336	0.055	-0.003
-249.034	240.384	0.202	-0.334
-248.019	191.232	-0.076	-0.113
-247.005	33.263	-0.095	-0.082
-245.990	212.549	-0.157	0.246
-244.976	78.559	-0.287	0.304
-243.961	138.391	0.128	0.167
-242.946	192.798	0.075	0.112
-241.932	800.000	-0.141	-0.396
-240.917	-62.100	0.094	0.039
-239.903	-18.841	0.371	-0.229
-238.888	-200.000	0.037	-0.386
-237.873	-141.349	0.260	-0.026
-236.859	-117.619	-0.312	-0.056
-235.844	699.125	-0.102	-0.265
-234.830	-100.964	0.271	0.066
-233.815	-200.000	0.048	0.248
-232.800	70.352	0.062	0.064
-231.786	729.387	-0.074	0.195
-230.771	3.310	0.212	0.153
-229.757	-163.717	-0.225	-0.010
-228.742	-200.000	0.009	0.072
-227.727	-71.991	0.138	-0.051
-226.713	132.710	0.204	0.261
-225.698	177.949	0.109	0.158
-224.684	145.781	-0.079	0.105
-223.669	-200.000	0.039	0.253
-222.655	-75.588	-0.067	0.024
-221.640	-38.753	-0.106	-0.055
-220.625	800.000	0.153	0.420
-219.611	-92.359	-0.124	0.034
-218.596	177.572	0.078	-0.113
-217.582	40.861	0.226	0.202
-216.567	106.413	0.105	0.123
-215.552	220.060	-0.109	-0.173
-214.538	-133.179	-0.188	-0.024
-213.523	148.886	0.017	0.023
-212.509	557.311	-0.143	0.342
-211.494	22.328	0.112	0.090
-210.479	159.870	0.175	-0.242
-209.465	76.498	0.046	0.048
-208.450	-76.340	-0.345	-0.120
-207.436	-200.000	-0.041	-0.248
-206.421	-74.856	0.209	-0.074
-205.406	139.866	-0.103	-0.134
-204.392	221.694	-0.052	0.083
-203.377	456.806	-0.131	-0.287
-202.363	-100.262	0.107	-0.026
-201.348	-2.444	0.135	-0.093
-200.333	-74.738	-0.180	0.064
-199.319	-200.000	0.054	0.498
-198.304	-183.351	0.343	-0.006
-197.290	800.000	-0.063	-0.219
-196.275	-200.000	0.024	-0.373
-195.260	9.209	0.066	-0.049
-194.246	-123.925	-0.194	-0.030
-193.231	-85.493	0.234	-0.072
-192.217	747.049	-0.084	-0.224
-191.202	155.007	0.095	-0.129
-190.187	52.026	-0.101	0.096
-189.173	-91.088	0.090	0.026
-188.158	-158.017	-0.191	0.011
-187.144	800.000	-0.094	-0.317
-186.129	-180.815	0.221	-0.004
-185.114	-117.784	-0.085	0.015
-184.100	113.271	0.198	0.237
-183.085	-200.000	-0.019	-0.150
-182.071	90.790	-0.106	-0.118
-181.056	-118.690	-0.126	-0.022
-180.042	148.502	-0.175	-0.233
-179.027	143.441	0.056	-0.073
-178.012	-66.240	0.145	-0.057
-176.998	-120.677	0.434	-0.072
-175.983	800.000	-0.100	0.297
-174.969	99.086	-0.160	0.183
-173.954	800.000	-0.068	0.203
-172.939	-200.000	-0.025	0.315
-171.925	248.464	-0.061	-0.103
-170.910	-157.774	0.492	-0.029
-169.896	-163.737	0.191	-0.009
-168.881	176.838	0.057	-0.083
-167.866	-42.170	-0.104	-0.052
-166.852	800.000	-0.018	0.071
-165.837	-200.000	-0.003	0.102
-164.823	416.596	0.034	0.071
-163.808	-200.000	0.020	-0.105
-162.793	-48.442	0.173	-0.082
-161.779	10.686	-0.221	0.167
-160.764	-39.997	-0.099	0.051
-159.750	800.000	-0.096	0.269
-158.735	-11.384	0.299	-0.194
-157.720	-78.816	-0.029	-0.010
-156.706	-36.267	-0.129	-0.069
-155.691	-134.040	0.109	-0.013
-154.677	-200.000	-0.039	-0.319
-153.662	167.410	-0.177	0.248
-152.647	-78.458	0.221	0.075
-151.633	587.664	-0.058	0.140
-150.618	-200.000	0.028	-0.243
-149.604	62.644	0.182	0.179
-148.589	-84.492	0.067	0.021
-147.574	-116.724	0.294	-0.053
-146.560	-46.310	-0.198	-0.096
-145.545	136.164	0.246	0.317
-144.531	-43.124	0.236	0.118
-143.516	370.835	0.073	-0.145
-142.502	-121.911	0.193	0.031
-141.487	800.000	-0.053	0.151
-140.472	134.739	0.203	0.260
-139.458	86.942	-0.060	-0.065
-138.443	3.065	0.283	0.203
-137.429	800.000	-0.061	0.214
-136.414	104.259	-0.088	-0.103
-135.399	-200.000	0.016	-0.070
-134.385	586.196	0.093	-0.227
-133.370	-200.000	-0.052	0.250
-132.356	-32.539	-0.365	0.200
-131.341	180.076	-0.056	0.080
-130.326	57.244	-0.277	-0.267
-129.312	-84.898	-0.109	-0.034
-128.297	-37.524	-0.118	-0.062
-127.283	-105.864	0.113	0.025
-126.268	20.168	0.324	0.258
-125.253	-200.000	-0.033	0.365
-124.239	-44.737	-0.273	0.135
-123.224	582.097	0.060	0.145
-122.210	-97.411	-0.319	-0.082
-121.195	-68.035	-0.123	0.047
-120.180	-131.299	-0.300	-0.039
-119.166	75.723	-0.043	-0.045
-118.151	-113.758	0.432	0.083
-117.137	-129.693	-0.373	0.051
-116.122	-163.790	0.393	0.018
-115.107	362.359	-0.045	0.090
-114.093	800.000	-0.061	0.196
-113.078	-200.000	0.006	0.027
-112.064	275.394	0.145	0.253
-111.049	69.381	-0.095	0.096
-110.034	-164.683	-0.185	-0.008
-109.020	145.532	0.156	0.205
-108.005	800.000	0.088	-0.248
-106.991	-200.000	0.023	0.110
-105.976	-69.037	0.149	-0.056
-104.962	7.297	0.003	0.003
-103.947	-100.751	-0.160	-0.039
-102.932	-111.570	-0.204	0.041
-101.918	120.446	0.061	-0.075
-100.903	800.000	0.056	-0.188
-99.889	13.175	0.118	-0.090
-98.874	33.119	-0.248	-0.212
-97.859	-200.000	-0.015	-0.228
-96.845	-200.000	0.034	-0.324
-95.830	-46.947	-0.065	-0.031
-94.816	84.682	-0.114	0.123
-93.801	27.577	0.102	0.085
-92.786	-79.277	-0.107	-0.036
-91.772	406.783	0.046	0.095
-90.757	-149.403	0.228	0.018
-89.743	117.785	0.070	-0.085
-88.728	187.219	0.159	0.233
-87.713	676.525	-0.023	0.060
-86.699	-26.710	0.254	-0.146
-85.684	4.631	-0.101	0.073
-84.670	-151.584	0.261	-0.019
-83.655	-151.767	-0.075	0.005
-82.640	180.378	-0.248	-0.358
-81.626	-200.000	0.008	-0.213
-80.611	119.331	0.189	0.231
-79.597	-49.985	0.231	-0.108
-78.582	-90.338	-0.458	0.131
-77.567	-145.323	-0.293	-0.026
-76.553	-58.963	-0.196	-0.083
-75.538	-96.996	0.425	-0.110
-74.524	-200.000	-0.014	0.461
-73.509	-200.000	-0.093	0.609
-72.494	-105.831	-0.103	-0.023
-71.480	-54.825	-0.419	0.186
-70.465	-200.000	-0.009	0.175
-69.451	-136.133	0.186	-0.021
-68.436	-200.000	0.016	-0.153
-67.422	800.000	-0.091	-0.328
-66.407	7.134	-0.218	-0.160
-65.392	-97.038	0.074	0.019
-64.378	-95.741	-0.218	-0.057
-63.363	-58.417	0.418	0.179
-62.349	230.496	-0.070	-0.113
-61.334	-28.081	-1.419	-0.807
-60.319	45.717	0.418	0.380
-59.305	416.335	-0.346	-0.727
-58.290	281.255	0.569	1.001
-57.276	800.000	0.515	1.571
-56.261	-200.000	97.259	588.315
-55.246	547.865	1398.924	3294.082
-54.232	154.820	2592.136	3503.603
-53.217	106.049	2285.355	2660.900
-52.203	41.978	1905.182	1699.985
-51.188	36.045	1694.163	1466.643
-50.173	33.307	1649.518	1407.606
-49.159	50.893	1695.688	1579.858
-48.144	52.578	1712.883	1608.502
-47.130	35.532	1672.765	1444.031
-46.115	32.755	1658.574	1410.981
-45.100	32.570	1653.205	1404.980
-44.086	32.537	1651.040	1402.842
-43.071	32.648	1647.537	1400.630
-42.057	32.471	1645.791	1397.781
-41.042	32.519	1643.685	1396.293
-40.027	32.551	1641.552	1394.662
-39.013	32.536	1639.807	1393.011
-37.998	32.456	1638.342	1391.119
-36.984	32.547	1636.807	1390.429
-35.969	32.637	1635.368	1389.820
-34.954	32.743	1633.692	1389.123
-33.940	32.721	1632.396	1387.801
-32.925	32.593	1630.414	1385.124
-31.911	32.572	1628.760	1383.506
-30.896	32.685	1626.686	1382.519
-29.881	32.710	1625.273	1381.448
-28.867	32.670	1623.376	1379.483
-27.852	32.576	1622.591	1378.075
-26.838	32.735	1620.213	1377.166
-25.823	32.618	1619.084	1375.297
-24.809	32.644	1617.883	1374.406
-23.794	32.764	1615.980	1373.613
-22.779	32.681	1614.297	1371.526
-21.765	32.603	1613.139	1369.915
-20.750	32.599	1612.014	1368.876
-19.736	32.693	1610.424	1368.160
-18.721	32.691	1608.781	1366.695
-17.706	32.646	1607.008	1364.805
-16.692	32.620	1606.394	1364.044
-15.677	32.636	1604.630	1362.607
-14.663	32.656	1603.255	1361.531
-13.648	32.640	1601.972	1360.267
-12.633	32.606	1600.078	1358.363
-11.619	32.653	1598.382	1357.208
-10.604	32.677	1597.253	1356.369
-9.590	32.602	1595.846	1354.582
-8.575	32.748	1594.309	1354.270
-7.560	32.674	1593.604	1353.089
-6.546	32.748	1591.708	1351.952
-5.531	32.647	1591.199	1350.743
-4.517	32.655	1589.532	1349.331
-3.502	32.705	1588.512	1348.774
-2.487	32.742	1586.968	1347.672
-1.473	32.451	1576.426	1336.601
-0.458	30.184	1557.118	1304.249
0.556	26.881	1558.180	1276.019
1.571	24.512	1583.003	1279.280
2.586	24.127	1596.565	1287.342
3.600	21.109	1541.224	1221.521
4.615	11.305	1428.907	1068.462
5.629	3.051	1362.851	967.218
6.644	1.767	1354.504	953.177
7.659	1.659	1353.462	951.683
8.673	1.637	1352.427	950.737
9.688	1.517	1350.313	948.415
10.702	1.335	1347.444	945.183
11.717	4.658	1354.178	970.583
12.731	14.894	1373.592	1048.923
13.746	23.648	1388.388	1115.386
14.761	25.879	1391.823	1132.082
15.775	26.329	1391.818	1134.807
16.790	26.521	1390.556	1134.880
17.804	26.518	1390.033	1134.331
18.819	26.699	1389.933	1135.287
19.834	26.829	1389.329	1135.505
20.848	26.804	1388.831	1134.843
21.863	26.806	1387.975	1134.055
22.877	26.775	1387.050	1133.003
23.892	26.862	1386.395	1132.913
24.907	26.836	1385.381	1131.823
25.921	26.835	1384.507	1131.000
26.936	26.732	1383.771	1129.656
27.950	26.737	1382.646	1128.667
28.965	26.857	1381.371	1128.278
29.980	26.813	1379.657	1126.504
30.994	26.922	1378.272	1125.948
32.009	26.715	1378.320	1124.603
33.023	26.846	1376.874	1124.137
34.038	26.755	1375.854	1122.643
35.053	26.786	1374.919	1121.973
36.067	26.787	1373.683	1120.866
37.082	26.780	1372.595	1119.838
38.096	26.744	1371.992	1119.025
39.111	26.829	1371.199	1118.802
40.126	26.817	1370.240	1117.847
41.140	26.768	1370.101	1117.332
42.155	26.838	1369.333	1117.040
43.169	26.816	1369.513	1116.952
44.184	26.766	1369.386	1116.444
45.199	26.744	1368.839	1115.762
46.213	26.883	1368.320	1116.097
47.228	26.843	1367.310	1114.926
48.242	26.870	1366.228	1114.109
49.257	26.897	1364.365	1112.656
50.271	26.907	1363.016	1111.525
51.286	26.847	1361.884	1110.135
52.301	26.815	1360.781	1108.938
53.315	26.756	1360.053	1107.888
54.330	26.814	1359.104	1107.369
55.344	26.775	1357.591	1105.802
56.359	26.893	1356.200	1105.288
57.374	26.723	1355.790	1103.822
58.388	26.797	1355.347	1103.814
59.403	26.821	1354.899	1103.498
60.417	26.928	1353.928	1103.260
61.432	26.756	1353.798	1102.012
62.447	26.764	1352.893	1101.230
63.461	26.829	1351.363	1100.281
64.476	26.826	1350.586	1099.529
65.490	26.785	1349.573	1098.361
66.505	26.839	1347.988	1097.300
67.520	26.911	1346.582	1096.495
68.534	26.837	1345.943	1095.428
69.549	26.801	1345.240	1094.542
70.563	26.771	1344.321	1093.515
71.578	26.774	1343.075	1092.424
72.593	26.820	1342.094	1091.810
73.607	26.880	1341.370	1091.483
74.622	26.895	1340.787	1090.999
75.636	26.887	1340.035	1090.245
76.651	26.802	1339.395	1089.119
77.666	26.790	1338.827	1088.487
78.680	26.791	1338.271	1087.946
79.695	26.851	1337.134	1087.283
80.709	26.895	1336.503	1086.938
81.724	26.786	1335.795	1085.611
82.739	26.930	1334.781	1085.553
83.753	26.927	1333.346	1084.273
84.768	26.831	1332.517	1082.932
85.782	26.887	1331.727	1082.527
86.797	27.000	1330.233	1081.888
87.812	26.919	1329.175	1080.449
88.826	26.857	1328.618	1079.535
89.841	27.007	1327.006	1079.019
90.855	26.901	1326.440	1077.836
91.870	26.892	1325.867	1077.221
92.884	26.968	1324.935	1076.818
93.899	26.894	1324.198	1075.685
94.914	26.892	1322.871	1074.503
95.928	26.986	1322.379	1074.564
96.943	26.865	1322.422	1073.788
97.957	26.934	1321.157	1073.070
98.972	27.003	1320.241	1072.643
99.987	26.913	1319.433	1071.360
101.001	26.914	1318.409	1070.435
102.016	26.843	1317.598	1069.268
103.030	26.918	1316.597	1068.801
104.045	26.888	1316.095	1068.119
105.060	26.810	1315.143	1066.798
106.074	26.874	1314.240	1066.343
107.089	26.812	1313.166	1065.015
108.103	26.988	1312.041	1065.044
109.118	26.961	1310.585	1063.606
110.133	26.937	1309.786	1062.723
111.147	26.926	1308.662	1061.654
112.162	26.903	1307.568	1060.535
113.176	26.904	1306.774	1059.805
114.191	27.039	1305.656	1059.591
115.206	26.962	1304.909	1058.447
116.220	26.963	1304.071	1057.675
117.235	26.991	1303.008	1056.881
118.249	26.988	1302.054	1055.997
119.264	26.896	1300.886	1054.426
120.279	26.954	1300.453	1054.318
121.293	27.021	1299.239	1053.629
122.308	27.116	1298.441	1053.438
123.322	27.014	1298.084	1052.463
124.337	27.109	1297.082	1052.106
125.352	27.064	1296.321	1051.138
126.366	27.084	1295.526	1050.515
127.381	27.157	1294.562	1050.061
128.395	27.032	1293.841	1048.666
129.410	27.052	1292.999	1048.003
130.424	27.059	1292.233	1047.332
131.439	26.964	1291.659	1046.225
132.454	26.908	1290.908	1045.203
133.468	27.054	1289.713	1044.981
134.483	26.969	1289.871	1044.530
135.497	27.100	1288.392	1043.989
136.512	27.064	1287.456	1042.930
137.527	27.009	1286.577	1041.815
138.541	27.081	1284.814	1040.704
139.556	27.056	1283.861	1039.701
140.570	26.988	1282.878	1038.424
141.585	27.029	1281.457	1037.415
142.600	26.932	1280.852	1036.279
143.614	27.028	1280.182	1036.194
144.629	27.028	1279.215	1035.321
145.643	26.781	1278.689	1033.394
146.658	26.933	1276.977	1032.781
147.673	26.884	1276.114	1031.716
148.687	26.902	1275.508	1031.234
149.702	26.923	1274.228	1030.230
150.716	26.901	1272.912	1028.953
151.731	27.051	1272.138	1029.083
152.746	26.999	1271.525	1028.203
153.760	27.100	1269.875	1027.346
154.775	27.083	1268.960	1026.423
155.789	27.030	1268.093	1025.330
156.804	27.038	1267.502	1024.808
157.819	27.023	1266.624	1023.919
158.833	26.996	1266.261	1023.385
159.848	27.077	1265.287	1022.962
160.862	27.012	1264.929	1022.217
161.877	27.210	1263.216	1021.855
162.892	27.078	1262.650	1020.563
163.906	27.126	1261.938	1020.168
164.921	26.988	1261.956	1019.319
165.935	27.164	1260.529	1019.065
166.950	27.176	1259.911	1018.540
167.964	27.106	1259.467	1017.698
168.979	27.169	1258.698	1017.338
169.994	27.056	1258.413	1016.389
171.008	27.106	1257.328	1015.701
172.023	27.162	1256.718	1015.430
173.037	27.110	1256.000	1014.474
174.052	27.118	1255.219	1013.792
175.067	27.226	1254.224	1013.503
176.081	27.082	1253.967	1012.406
177.096	27.159	1253.335	1012.233
178.110	27.080	1252.248	1010.824
179.125	27.172	1251.062	1010.288
180.140	27.133	1250.375	1009.431
181.154	27.173	1248.929	1008.397
182.169	27.215	1247.356	1007.268
183.183	27.209	1246.957	1006.826
184.198	27.160	1245.854	1005.575
185.213	27.220	1245.043	1005.163
186.227	27.194	1243.987	1004.076
187.242	27.198	1243.434	1003.563
188.256	27.142	1242.922	1002.753
189.271	27.322	1241.431	1002.454
190.286	27.297	1240.782	1001.701
191.300	27.134	1240.881	1000.793
192.315	27.136	1239.940	999.960
193.329	27.246	1239.633	1000.226
194.344	27.238	1239.379	999.891
195.359	27.201	1238.637	999.000
196.373	27.102	1238.389	998.169
197.388	27.167	1237.643	997.834
198.402	27.240	1237.340	997.902
199.417	27.223	1236.765	997.256
200.432	27.249	1236.452	997.060
201.446	27.206	1235.860	996.260
202.461	27.306	1234.530	995.646
203.475	27.154	1234.213	994.472
204.490	27.267	1233.119	994.115
205.504	27.367	1231.805	993.516
206.519	27.248	1231.489	992.524
207.534	27.194	1230.530	991.367
208.548	27.289	1229.516	990.984
209.563	27.221	1228.795	989.941
210.577	27.267	1227.820	989.319
211.592	27.350	1227.167	989.157
212.607	27.335	1226.265	988.262
213.621	27.376	1225.733	987.967
214.636	27.408	1224.934	987.412
215.650	27.316	1224.106	986.159
216.665	27.322	1223.047	985.247
217.680	27.319	1222.153	984.425
218.694	27.365	1221.440	984.015
219.709	27.399	1220.421	983.289
220.723	27.423	1219.919	982.924
221.738	27.300	1219.553	981.879
222.753	27.312	1218.658	981.139
223.767	27.384	1217.852	980.792
224.782	27.437	1217.188	980.454
225.796	27.559	1216.538	980.500
226.811	27.393	1216.409	979.415
227.826	27.482	1215.830	979.341
228.840	27.566	1214.878	978.942
229.855	27.439	1214.586	977.934
230.869	27.468	1213.556	977.177
231.884	27.402	1213.218	976.462
232.899	27.220	1212.691	974.975
233.913	27.315	1211.928	974.788
234.928	27.442	1211.414	974.964
235.942	27.573	1210.152	974.567
236.957	27.539	1209.570	973.829
237.972	27.469	1209.357	973.196
238.986	27.462	1208.826	972.644
240.001	27.573	1207.926	972.427
241.015	27.608	1207.496	972.182
242.030	27.603	1206.237	971.055
243.045	27.601	1205.351	970.244
244.059	27.601	1204.896	969.796
245.074	27.693	1203.971	969.454
246.088	27.618	1203.734	968.777
247.103	27.768	1202.294	968.327
248.117	27.640	1201.725	967.106
249.132	27.694	1201.480	967.110
250.147	27.709	1200.156	966.036
251.161	27.674	1199.752	965.442
252.176	27.671	1199.063	964.789
253.190	27.763	1198.399	964.652
254.205	27.731	1197.734	963.861
255.220	27.866	1197.026	963.919
256.234	27.766	1196.992	963.279
257.249	27.794	1196.308	962.792
258.263	27.758	1195.645	961.984
259.278	27.864	1194.842	961.811
260.293	27.764	1194.197	960.678
261.307	27.708	1193.911	960.073
262.322	27.848	1192.992	959.981
263.336	27.789	1192.543	959.227
264.351	27.746	1192.243	958.674
265.366	27.711	1191.676	957.950
266.380	27.721	1190.893	957.288
267.395	27.800	1189.921	956.837
268.409	27.616	1189.391	955.363
269.424	27.762	1188.864	955.615
270.439	27.802	1188.272	955.264
271.453	27.873	1187.715	955.105
272.468	27.847	1186.737	954.099
273.482	27.776	1186.350	953.334
274.497	27.839	1185.753	953.099
275.512	27.776	1185.289	952.312
276.526	27.860	1184.747	952.231
277.541	27.830	1184.037	951.419
278.555	27.970	1182.995	951.227
279.570	27.914	1182.471	950.428
280.585	27.788	1182.064	949.362
281.599	27.877	1180.807	948.732
282.614	27.733	1180.139	947.363
283.628	27.872	1179.590	947.557
284.643	27.933	1178.467	946.892
285.657	27.932	1177.685	946.171
286.672	27.870	1177.186	945.367
287.687	28.049	1175.819	945.110
288.701	28.090	1175.036	944.607
289.716	28.059	1174.456	943.901
290.730	28.101	1173.833	943.530
291.745	28.006	1173.390	942.602
292.760	27.973	1173.191	942.192
293.774	28.114	1171.905	941.797
294.789	28.179	1171.771	941.944
295.803	28.096	1171.262	941.024
296.818	28.162	1170.166	940.400
297.833	28.110	1169.829	939.780
298.847	28.039	1169.101	938.742
299.862	28.148	1168.488	938.729
300.876	28.086	1167.927	937.876
301.891	28.108	1167.288	937.396
302.906	28.173	1166.562	937.059
303.920	28.181	1165.823	936.424
304.935	28.101	1165.457	935.640
305.949	28.092	1164.621	934.838
306.964	28.282	1164.133	935.337
307.979	28.274	1163.168	934.438
308.993	28.203	1162.951	933.816
310.008	28.284	1162.006	933.389
311.022	28.297	1160.978	932.545
312.037	28.231	1159.995	931.337
313.052	28.263	1159.174	930.758
314.066	28.275	1158.878	930.499
315.081	28.142	1158.289	929.271
316.095	28.163	1157.614	928.754
317.110	28.148	1157.270	928.316
318.125	28.258	1156.424	928.113
319.139	28.220	1155.749	927.297
320.154	28.308	1154.955	927.024
321.168	28.348	1154.428	926.723
322.183	28.221	1154.170	925.791
323.197	28.267	1153.175	925.141
324.212	28.319	1152.569	924.838
325.227	28.327	1152.341	924.615
326.241	28.351	1152.021	924.394
327.256	28.366	1150.759	923.379
328.270	28.341	1150.458	922.927
329.285	28.393	1149.321	922.195
330.300	28.382	1148.562	921.452
331.314	28.426	1147.638	920.850
332.329	28.541	1146.579	920.497
333.343	28.453	1145.940	919.460
334.358	28.471	1145.372	919.010
335.373	28.392	1145.327	918.497
336.387	28.542	1143.898	918.023
337.402	28.458	1143.780	917.424
338.416	28.553	1142.830	917.058
339.431	28.409	1142.460	915.960
340.446	28.468	1141.856	915.691
341.460	28.433	1141.346	915.023
342.475	28.712	1140.314	915.506
343.489	28.619	1139.252	914.109
344.504	28.614	1138.490	913.394
345.519	28.562	1137.841	912.534
346.533	28.625	1137.077	912.155
347.548	28.660	1136.260	911.588
348.562	28.687	1135.439	910.987
349.577	28.729	1134.381	910.266
350.592	28.500	1134.471	909.121
351.606	28.498	1133.406	908.178
352.621	28.677	1133.013	908.669
353.635	28.694	1132.200	908.018
354.650	28.528	1131.742	906.752
355.665	28.685	1131.068	906.904
356.679	28.562	1130.981	906.147
357.694	28.796	1129.847	906.312
358.708	28.639	1129.370	905.079
359.723	28.647	1128.302	904.180
360.738	28.706	1127.576	903.811
361.752	28.609	1127.544	903.228
362.767	28.734	1127.039	903.355
363.781	28.788	1126.371	903.005
364.796	28.789	1125.882	902.539
365.810	28.830	1124.795	901.787
366.825	28.819	1124.447	901.376
367.840	28.813	1124.394	901.225
368.854	28.824	1123.747	900.678
369.869	28.865	1122.379	899.706
370.883	28.981	1121.818	899.743
371.898	29.041	1120.925	899.239
372.913	28.907	1120.562	898.215
373.927	28.909	1120.508	898.104
374.942	29.020	1119.616	897.849
375.956	28.983	1118.961	897.064
376.971	28.979	1118.597	896.672
377.986	29.009	1118.316	896.514
379.000	28.941	1117.577	895.512
380.015	28.997	1117.154	895.365
381.029	28.942	1116.159	894.220
382.044	28.936	1116.298	894.224
383.059	29.050	1115.372	893.961
384.073	29.126	1114.498	893.550
385.088	29.136	1113.463	892.686
386.102	29.060	1112.902	891.791
387.117	29.086	1111.828	890.976
388.132	29.128	1111.022	890.454
389.146	29.194	1110.588	890.349
390.161	29.178	1109.878	889.623
391.175	29.216	1109.117	889.115
392.190	29.116	1108.549	888.098
393.205	29.063	1107.826	887.186
394.219	29.115	1107.140	886.810
395.234	29.050	1106.815	886.160
396.248	29.204	1105.672	885.905
397.263	29.258	1104.734	885.337
398.278	29.239	1104.405	884.902
399.292	29.324	1104.033	884.931
400.307	29.288	1103.034	883.880
401.321	29.219	1102.806	883.288
402.336	29.126	1102.049	882.158
403.350	29.147	1101.261	881.553
404.365	29.266	1100.555	881.476
405.380	29.308	1099.788	880.985
406.394	29.334	1098.874	880.300
407.409	29.418	1098.196	880.078
408.423	29.310	1097.401	878.851
409.438	29.359	1096.849	878.565
410.453	29.428	1096.447	878.494
411.467	29.395	1095.786	877.728
412.482	29.371	1094.843	876.783
413.496	29.400	1094.250	876.368
414.511	29.331	1094.154	875.883
415.526	29.450	1093.410	875.774
416.540	29.505	1093.058	875.676
417.555	29.450	1092.381	874.795
418.569	29.411	1092.123	874.327
419.584	29.473	1091.295	873.879
420.599	29.312	1091.414	873.135
421.613	102.458	1322.041	1455.635
422.628	95.504	1355.612	1455.734
