DTS Sentinel unit serial number:	SN413079Multiplexer serial number:	ORYXHardware model number:	OX4-SRSoftware version number:	ORYX F/W v4.00 Oryx Data Collector v3.7.2.0data status	okinstallation	princeton_trtdifferential loss correction	single-endedforward channel	channel 2reverse channel	N/Adate	2019/09/17time	21:27:35forward acquisition time	60.00reverse acquisition time	0.00gamma	496.2192k internal	0.2341k external	0.2341temperature offset calibration	0.9987default loss term (dB/km)	0.3790temperature slope calibration	1.0000multiplexer offset coefficient	1.0000multiplexer slope coefficient	1.0000fibre end	0.00T internal ref (°C)	27.27T ext. ref 1 (°C)	0.19T ext. ref 2 (°C)	19.31length (m)	temperature (°C)	Stokes	anti-Stokes-747.200	-200.000	-0.040	0.200
-746.185	800.000	0.045	0.143
-745.171	70.267	0.163	-0.169
-744.156	-7.225	-0.256	0.174
-743.142	-106.845	0.178	0.040
-742.127	-200.000	0.006	0.093
-741.112	2.755	0.283	0.205
-740.098	28.020	-0.406	0.344
-739.083	800.000	0.127	0.375
-738.069	-200.000	0.044	0.413
-737.054	-200.000	-0.028	0.129
-736.039	103.739	-0.114	0.134
-735.025	196.608	0.433	0.661
-734.010	265.458	-0.137	-0.239
-732.996	-200.000	-0.005	-0.500
-731.981	284.985	-0.074	-0.133
-730.966	88.350	0.071	-0.079
-729.952	-44.480	-0.489	-0.245
-728.937	16.749	0.280	0.222
-727.923	142.540	-0.235	0.312
-726.908	376.285	0.157	0.321
-725.894	-200.000	-0.021	0.231
-724.879	36.635	-0.341	-0.302
-723.864	259.402	-0.087	-0.151
-722.850	-18.768	-0.054	-0.034
-721.835	-37.778	-0.117	0.062
-720.821	20.057	0.032	0.026
-719.806	-134.397	-0.133	-0.016
-718.791	800.000	0.026	-0.086
-717.777	-107.966	0.278	-0.061
-716.762	259.174	-0.102	0.176
-715.748	-200.000	0.002	-0.210
-714.733	-55.351	-0.207	0.093
-713.718	-200.000	-0.059	0.292
-712.704	37.013	0.300	-0.265
-711.689	345.950	0.087	0.172
-710.675	21.094	-0.423	0.343
-709.660	-200.000	0.005	-0.171
-708.645	-136.741	0.261	-0.030
-707.631	5.923	-0.149	-0.111
-706.616	-34.784	0.155	0.085
-705.602	-115.154	-0.177	0.034
-704.587	-200.000	-0.010	-0.075
-703.572	-15.784	0.080	-0.051
-702.558	-40.951	-0.086	-0.045
-701.543	-39.146	0.229	0.120
-700.529	-200.000	0.024	-0.123
-699.514	-185.632	-0.404	-0.006
-698.499	364.073	-0.047	0.095
-697.485	800.000	0.051	0.157
-696.470	-155.123	0.052	-0.003
-695.456	22.147	0.329	0.269
-694.441	48.631	-0.136	-0.127
-693.426	-200.000	-0.025	-0.142
-692.412	-185.613	-0.236	-0.004
-691.397	-36.255	-0.322	0.174
-690.383	286.541	0.128	-0.230
-689.368	193.861	0.029	0.043
-688.354	-200.000	0.001	-0.192
-687.339	78.546	-0.134	0.143
-686.324	-200.000	-0.022	0.351
-685.310	-36.447	-0.404	0.218
-684.295	-200.000	-0.004	-0.327
-683.281	-26.893	-0.170	0.099
-682.266	-16.071	0.092	-0.059
-681.251	-200.000	-0.052	0.299
-680.237	208.608	0.142	0.222
-679.222	89.270	-0.193	-0.215
-678.208	-86.883	0.126	-0.038
-677.193	-104.083	0.200	0.047
-676.178	19.698	0.200	0.161
-675.164	800.000	0.093	0.258
-674.149	800.000	0.042	-0.163
-673.135	124.716	-0.104	-0.131
-672.120	105.645	0.410	0.484
-671.105	408.588	-0.081	-0.171
-670.091	133.584	-0.248	-0.320
-669.076	6.257	0.161	-0.120
-668.062	229.579	0.048	-0.078
-667.047	-200.000	0.004	-0.132
-666.032	26.772	-0.113	0.095
-665.018	-112.095	-0.098	-0.020
-664.003	-122.710	0.057	-0.009
-662.989	-5.726	-0.194	-0.133
-661.974	59.887	0.079	0.078
-660.959	-72.344	0.182	-0.067
-659.945	-83.542	0.118	-0.038
-658.930	59.365	-0.004	-0.004
-657.916	-3.771	0.035	-0.024
-656.901	59.984	0.115	-0.113
-655.886	-200.000	-0.060	0.320
-654.872	269.782	-0.142	-0.248
-653.857	-138.078	0.522	0.058
-652.843	55.568	0.106	0.103
-651.828	789.378	-0.091	-0.250
-650.814	132.196	0.277	-0.357
-649.799	314.603	0.025	0.047
-648.784	-108.646	0.213	0.046
-647.770	7.948	-0.106	0.079
-646.755	350.458	-0.102	0.200
-645.741	-62.413	-0.102	0.042
-644.726	107.012	-0.066	-0.078
-643.711	22.250	0.344	-0.280
-642.697	528.636	0.099	-0.234
-641.682	25.013	0.214	-0.177
-640.668	96.831	-0.077	0.089
-639.653	281.096	0.216	0.385
-638.638	3.864	-0.344	-0.251
-637.624	-200.000	-0.006	-0.137
-636.609	17.141	-0.149	0.118
-635.595	37.175	0.084	0.075
-634.580	163.931	-0.133	-0.186
-633.565	-38.194	-0.069	-0.037
-632.551	-92.779	0.066	0.018
-631.536	317.182	0.117	0.220
-630.522	169.963	0.172	-0.245
-629.507	97.630	0.044	0.051
-628.492	-200.000	0.084	0.442
-627.478	-200.000	-0.007	-0.231
-626.463	-36.969	0.116	0.062
-625.449	-106.938	-0.072	-0.016
-624.434	-113.255	-0.219	-0.043
-623.419	-200.000	-0.026	-0.383
-622.405	-115.474	-0.173	0.032
-621.390	165.103	0.127	0.179
-620.376	108.558	0.134	-0.160
-619.361	-6.963	-0.185	0.125
-618.346	-39.822	0.184	0.096
-617.332	-135.825	0.116	0.014
-616.317	-200.000	0.025	0.156
-615.303	-104.192	-0.031	0.007
-614.288	427.564	0.116	0.250
-613.273	-97.586	0.242	-0.063
-612.259	-74.623	0.264	-0.095
-611.244	-8.492	0.112	0.075
-610.230	-109.619	-0.468	-0.098
-609.215	-200.000	0.039	-0.285
-608.201	-133.184	-0.251	0.032
-607.186	-108.114	0.197	0.043
-606.171	-200.000	-0.027	-0.204
-605.157	-120.951	-0.189	0.032
-604.142	-100.174	0.211	-0.052
-603.128	392.934	-0.032	0.066
-602.113	-139.415	0.330	0.035
-601.098	51.455	-0.394	0.374
-600.084	-200.000	-0.007	-0.303
-599.069	-14.576	-0.214	-0.137
-598.055	-61.501	-0.256	-0.107
-597.040	26.500	-0.054	-0.045
-596.025	-121.544	-0.019	0.003
-595.011	-10.450	0.190	0.126
-593.996	6.408	0.271	-0.201
-592.982	79.770	-0.131	-0.140
-591.967	21.433	-0.092	-0.075
-590.952	227.790	-0.170	-0.275
-589.938	-102.631	0.199	-0.047
-588.923	-50.488	-0.307	-0.144
-587.909	-73.026	0.091	-0.033
-586.894	136.292	-0.102	0.132
-585.879	469.773	0.113	-0.253
-584.865	-200.000	-0.034	0.168
-583.850	-52.217	-0.315	-0.146
-582.836	-200.000	-0.052	-0.746
-581.821	162.302	-0.121	0.168
-580.806	20.266	-0.176	-0.142
-579.792	23.469	0.155	-0.127
-578.777	379.346	-0.056	0.113
-577.763	43.014	-0.088	-0.080
-576.748	-200.000	-0.029	-0.185
-575.733	-116.737	-0.284	-0.052
-574.719	8.919	0.323	0.243
-573.704	800.000	0.013	-0.039
-572.690	-167.032	0.412	0.017
-571.675	339.439	-0.070	-0.136
-570.661	110.424	0.333	-0.398
-569.646	5.566	0.303	0.223
-568.631	-61.040	0.060	-0.025
-567.617	-72.531	-0.403	-0.148
-566.602	-109.020	-0.121	0.026
-565.588	40.562	0.118	-0.106
-564.573	800.000	0.027	-0.108
-563.558	-200.000	-0.022	-0.353
-562.544	-140.555	0.244	0.025
-561.529	-83.953	-0.388	0.123
-560.515	-92.787	0.451	-0.125
-559.500	299.845	-0.127	-0.233
-558.485	54.804	-0.063	-0.061
-557.471	-200.000	0.057	0.516
-556.456	-9.893	-0.378	-0.250
-555.442	-42.735	0.063	-0.032
-554.427	18.007	0.213	-0.169
-553.412	-30.733	0.156	0.088
-552.398	321.176	0.083	-0.157
-551.383	-126.215	0.209	-0.031
-550.369	-200.000	0.019	0.237
-549.354	-31.636	-0.099	0.055
-548.339	800.000	0.034	0.109
-547.325	244.472	0.057	-0.095
-546.310	127.825	-0.035	-0.044
-545.296	17.703	-0.326	-0.258
-544.281	-200.000	0.012	-0.127
-543.266	95.102	0.241	0.273
-542.252	199.153	-0.149	0.226
-541.237	800.000	0.026	0.087
-540.223	595.334	0.189	0.465
-539.208	-35.283	-0.116	0.063
-538.193	-71.956	0.147	0.054
-537.179	800.000	-0.067	-0.231
-536.164	-88.882	0.271	-0.080
-535.150	-200.000	-0.034	-0.301
-534.135	-111.408	0.323	-0.065
-533.121	-200.000	-0.097	-0.497
-532.106	800.000	0.121	-0.411
-531.091	-200.000	0.016	0.194
-530.077	401.159	-0.084	0.175
-529.062	-198.271	-0.314	-0.002
-528.048	-116.130	-0.061	-0.011
-527.033	10.957	-0.116	0.088
-526.018	-200.000	0.054	-0.273
-525.004	-99.944	0.311	-0.077
-523.989	-107.874	0.061	-0.013
-522.975	272.770	-0.095	0.167
-521.960	172.632	-0.302	-0.432
-520.945	800.000	0.178	-0.555
-519.931	441.087	0.057	0.124
-518.916	135.481	0.265	-0.343
-517.902	-165.987	-0.116	-0.005
-516.887	800.000	-0.021	-0.061
-515.872	-116.737	0.339	-0.062
-514.858	43.969	-0.210	0.191
-513.843	-136.062	-0.312	-0.036
-512.829	-17.819	0.256	0.159
-511.814	-108.559	0.311	0.066
-510.799	-77.493	-0.339	-0.117
-509.785	-200.000	0.026	-0.180
-508.770	-200.000	-0.000	-0.113
-507.756	365.125	-0.130	0.260
-506.741	-116.316	-0.101	0.019
-505.726	57.228	-0.138	-0.134
-504.712	301.847	-0.088	0.162
-503.697	245.326	0.088	-0.147
-502.683	-12.056	0.158	-0.103
-501.668	149.829	0.153	-0.207
-500.653	12.462	-0.160	0.122
-499.639	-83.979	0.309	0.098
-498.624	285.085	-0.033	-0.059
-497.610	425.991	0.063	-0.135
-496.595	-200.000	0.002	-0.025
-495.581	136.829	0.180	-0.233
-494.566	-21.659	-0.300	-0.181
-493.551	-76.429	-0.262	-0.091
-492.537	57.533	-0.063	0.061
-491.522	117.758	0.071	0.086
-490.508	46.393	-0.123	0.113
-489.493	63.118	-0.104	0.104
-488.478	-200.000	0.031	0.158
-487.464	800.000	-0.129	-0.416
-486.449	-200.000	-0.025	0.130
-485.435	-200.000	-0.005	0.103
-484.420	-200.000	0.072	-0.395
-483.405	96.019	0.116	0.132
-482.391	-87.100	0.069	0.021
-481.376	189.903	-0.256	0.381
-480.362	-141.914	-0.143	0.014
-479.347	258.469	-0.109	-0.186
-478.332	64.650	0.174	0.174
-477.318	-200.000	-0.007	0.175
-476.303	92.749	-0.109	0.122
-475.289	-108.092	-0.256	-0.055
-474.274	-200.000	0.037	0.198
-473.259	236.346	0.137	0.224
-472.245	800.000	0.133	-0.389
-471.230	229.606	-0.071	-0.115
-470.216	227.097	0.079	0.127
-469.201	-200.000	0.058	0.293
-468.186	-95.161	0.021	0.006
-467.172	13.092	-0.107	0.082
-466.157	15.246	-0.238	0.185
-465.143	4.860	-0.270	-0.197
-464.128	-101.898	0.308	-0.074
-463.113	340.597	0.122	0.236
-462.099	281.886	-0.080	0.142
-461.084	-196.820	0.389	-0.003
-460.070	76.613	-0.155	-0.163
-459.055	-23.513	0.093	0.055
-458.040	9.310	0.366	0.275
-457.026	800.000	-0.082	0.323
-456.011	800.000	-0.067	-0.190
-454.997	-200.000	0.003	0.059
-453.982	36.212	-0.251	0.219
-452.968	-200.000	0.024	-0.327
-451.953	57.175	-0.131	-0.127
-450.938	65.436	-0.114	-0.114
-449.924	-200.000	0.027	0.401
-448.909	-106.405	0.409	0.091
-447.895	-200.000	0.038	0.272
-446.880	-8.115	0.206	0.137
-445.865	-157.646	-0.138	-0.008
-444.851	-136.528	-0.452	-0.052
-443.836	-138.636	-0.218	0.024
-442.822	-26.349	0.213	0.124
-441.807	800.000	-0.062	0.245
-440.792	-200.000	0.004	0.061
-439.778	129.924	0.155	0.196
-438.763	301.565	-0.175	-0.319
-437.749	-165.060	0.235	0.010
-436.734	-200.000	0.018	0.082
-435.719	-34.076	0.130	0.071
-434.705	-119.789	0.095	0.016
-433.690	-9.257	-0.092	0.061
-432.676	-200.000	0.008	-0.190
-431.661	-200.000	-0.014	-0.111
-430.646	-67.945	0.120	0.046
-429.632	-8.897	0.213	-0.142
-428.617	-122.697	0.107	0.017
-427.603	189.971	-0.019	-0.028
-426.588	-151.335	-0.277	-0.020
-425.573	-137.477	-0.156	0.017
-424.559	-151.769	-0.238	0.017
-423.544	-155.704	0.233	0.015
-422.530	-200.000	0.064	-0.482
-421.515	-108.783	0.197	-0.042
-420.500	800.000	-0.117	-0.362
-419.486	-17.115	0.291	-0.182
-418.471	-153.337	0.180	0.012
-417.457	155.337	-0.135	-0.183
-416.442	13.293	0.067	-0.051
-415.428	-159.475	-0.111	-0.006
-414.413	-200.000	0.021	0.111
-413.398	-200.000	-0.018	-0.119
-412.384	-148.796	-0.185	0.015
-411.369	91.086	0.079	0.087
-410.355	421.692	0.057	0.121
-409.340	-140.136	0.217	0.023
-408.325	-140.921	-0.169	0.017
-407.311	800.000	-0.033	-0.114
-406.296	-178.476	-0.356	-0.008
-405.282	26.396	0.227	0.187
-404.267	196.843	-0.144	-0.217
-403.252	9.105	0.140	-0.105
-402.238	-176.251	-0.167	-0.004
-401.223	-27.663	-0.199	-0.114
-400.209	-200.000	0.039	-0.295
-399.194	-200.000	0.040	-0.249
-398.179	-200.000	0.016	0.230
-397.165	-200.000	-0.052	0.361
-396.150	57.397	0.137	-0.133
-395.136	85.630	-0.212	-0.230
-394.121	23.309	0.293	0.238
-393.106	-134.179	0.357	0.044
-392.092	769.487	0.098	-0.265
-391.077	-71.486	0.103	0.038
-390.063	-200.000	-0.012	-0.253
-389.048	-200.000	0.126	0.000
-388.033	-6.740	0.176	0.118
-387.019	162.933	-0.114	0.158
-386.004	160.193	-0.084	-0.116
-384.990	800.000	-0.080	0.236
-383.975	-200.000	-0.025	0.171
-382.960	-200.000	-0.003	-0.024
-381.946	6.795	0.309	0.227
-380.931	-200.000	0.008	0.282
-379.917	-43.462	-0.018	0.009
-378.902	382.125	0.108	0.220
-377.888	-105.635	-0.071	0.016
-376.873	-108.634	-0.249	-0.053
-375.858	183.262	-0.102	-0.149
-374.844	800.000	0.059	0.235
-373.829	224.300	-0.095	-0.151
-372.815	282.161	-0.047	-0.084
-371.800	-159.681	-0.212	0.012
-370.785	93.506	-0.118	0.132
-369.771	-5.043	-0.075	-0.051
-368.756	-50.238	-0.077	0.036
-367.742	90.572	-0.281	0.311
-366.727	800.000	0.038	0.147
-365.712	-200.000	0.000	0.111
-364.698	286.120	-0.121	-0.216
-363.683	-96.023	0.278	0.073
-362.669	-129.984	0.388	0.052
-361.654	800.000	0.083	0.255
-360.639	-185.089	-0.171	0.003
-359.625	-131.311	0.117	-0.015
-358.610	45.834	0.183	-0.167
-357.596	-61.989	0.140	0.058
-356.581	656.973	-0.100	0.253
-355.566	223.446	-0.109	-0.174
-354.552	-14.330	-0.189	-0.120
-353.537	315.594	-0.194	0.360
-352.523	-17.279	0.105	0.066
-351.508	5.529	0.122	0.089
-350.493	82.888	0.163	0.175
-349.479	-200.000	-0.030	0.194
-348.464	38.216	0.205	0.180
-347.450	-200.000	-0.048	0.248
-346.435	-200.000	0.027	0.267
-345.420	-200.000	-0.031	-0.237
-344.406	210.288	0.181	0.280
-343.391	430.698	0.044	0.095
-342.377	-50.230	0.196	-0.092
-341.362	800.000	0.087	-0.274
-340.348	0.559	0.174	0.123
-339.333	-123.393	0.252	-0.040
-338.318	-200.000	-0.032	-0.204
-337.304	-200.000	0.032	-0.168
-336.289	163.079	-0.081	-0.112
-335.275	-148.921	-0.283	0.023
-334.260	31.432	-0.111	-0.094
-333.245	-84.523	-0.299	0.093
-332.231	800.000	0.123	0.341
-331.216	-27.823	-0.425	0.243
-330.202	-200.000	0.018	-0.177
-329.187	-107.829	-0.253	-0.054
-328.172	-112.436	-0.149	-0.029
-327.158	-32.365	-0.301	-0.166
-326.143	-200.000	0.076	-0.455
-325.129	59.333	-0.098	-0.095
-324.114	-95.761	0.373	0.098
-323.099	-119.538	0.328	0.056
-322.085	-200.000	-0.068	0.316
-321.070	267.790	0.145	0.251
-320.056	-200.000	0.050	0.220
-319.041	-102.690	0.289	0.068
-318.026	205.231	-0.129	0.197
-317.012	679.438	0.036	-0.094
-315.997	800.000	-0.087	-0.281
-314.983	60.772	-0.202	0.198
-313.968	800.000	-0.078	0.277
-312.953	-142.328	-0.174	-0.017
-311.939	138.327	-0.040	0.051
-310.924	-47.556	0.358	0.172
-309.910	800.000	0.111	0.316
-308.895	11.727	-0.049	0.037
-307.880	-114.859	0.389	-0.073
-306.866	-27.227	0.163	-0.093
-305.851	-94.203	-0.221	0.060
-304.837	-124.715	-0.349	0.053
-303.822	-70.207	-0.360	0.135
-302.807	-12.737	0.232	0.149
-301.793	352.362	0.203	0.396
-300.778	-200.000	-0.025	-0.195
-299.764	-3.397	0.188	-0.129
-298.749	-200.000	-0.018	0.193
-297.735	329.592	-0.113	0.215
-296.720	68.821	-0.199	-0.201
-295.705	261.660	0.154	0.263
-294.691	-200.000	0.018	0.132
-293.676	114.943	-0.242	0.291
-292.662	575.732	0.098	0.235
-291.647	-200.000	0.061	0.385
-290.632	19.044	0.244	0.193
-289.618	-86.657	0.295	0.089
-288.603	-200.000	0.034	0.562
-287.589	-200.000	0.036	-0.312
-286.574	800.000	-0.029	-0.109
-285.559	800.000	-0.080	0.312
-284.545	-200.000	-0.016	0.081
-283.530	-90.726	-0.182	0.052
-282.516	31.927	0.136	-0.115
-281.501	119.555	-0.247	-0.302
-280.486	800.000	0.020	0.067
-279.472	-27.682	0.318	0.181
-278.457	335.407	0.091	0.173
-277.443	649.080	-0.063	0.158
-276.428	24.637	-0.234	-0.191
-275.413	-135.236	0.211	0.025
-274.399	-159.267	0.110	-0.006
-273.384	800.000	-0.002	0.005
-272.370	321.468	-0.017	-0.032
-271.355	-18.626	0.072	-0.044
-270.340	68.927	0.040	0.041
-269.326	-119.490	0.034	0.006
-268.311	-200.000	-0.219	-0.000
-267.297	54.397	0.297	-0.282
-266.282	402.278	-0.118	0.244
-265.267	29.564	0.220	-0.184
-264.253	-200.000	0.009	-0.174
-263.238	314.572	0.099	-0.184
-262.224	439.855	-0.102	0.220
-261.209	-200.000	0.029	0.265
-260.195	800.000	0.092	0.251
-259.180	-200.000	-0.056	-0.243
-258.165	46.458	0.243	-0.222
-257.151	-200.000	-0.012	-0.289
-256.136	83.209	-0.019	-0.020
-255.122	-200.000	0.043	-0.226
-254.107	420.685	0.061	-0.128
-253.092	-178.716	-0.113	-0.003
-252.078	800.000	0.087	0.259
-251.063	-22.184	0.175	0.105
-250.049	-200.000	0.008	-0.167
-249.034	-31.083	-0.384	-0.213
-248.019	258.900	-0.089	-0.152
-247.005	604.072	0.063	-0.153
-245.990	582.198	0.070	-0.169
-244.976	443.636	-0.150	-0.323
-243.961	185.430	0.054	0.078
-242.946	-200.000	-0.092	-0.411
-241.932	-119.159	-0.492	0.085
-240.917	-79.801	-0.198	0.065
-239.903	-171.752	-0.395	0.013
-238.888	-34.040	0.070	-0.038
-237.873	-92.142	-0.219	0.061
-236.859	26.444	0.124	-0.102
-235.844	176.791	-0.115	-0.164
-234.830	-49.102	0.175	0.082
-233.815	-28.137	0.024	0.013
-232.800	800.000	0.091	0.250
-231.786	-78.088	0.105	-0.036
-230.771	651.712	-0.040	0.100
-229.757	103.718	-0.091	0.105
-228.742	-153.703	0.108	-0.007
-227.727	-200.000	-0.005	0.377
-226.713	-150.647	-0.294	0.022
-225.698	800.000	0.031	0.129
-224.684	-80.352	-0.117	0.038
-223.669	800.000	-0.043	-0.160
-222.655	800.000	-0.129	0.401
-221.640	800.000	-0.130	0.445
-220.625	-88.833	0.173	-0.050
-219.611	115.621	0.203	0.244
-218.596	-82.910	0.035	-0.011
-217.582	-21.523	-0.228	-0.137
-216.567	-39.256	-0.255	-0.132
-215.552	185.395	-0.121	-0.176
-214.538	141.388	-0.186	0.242
-213.523	691.435	0.096	0.247
-212.509	-49.769	0.157	-0.073
-211.494	3.863	0.107	-0.077
-210.479	397.020	0.145	0.298
-209.465	305.718	0.055	-0.100
-208.450	115.413	-0.130	-0.156
-207.436	-200.000	-0.026	0.129
-206.421	-69.068	-0.349	0.132
-205.406	-58.535	0.244	-0.104
-204.392	141.960	-0.130	0.169
-203.377	-136.465	-0.242	0.028
-202.363	-200.000	0.030	-0.278
-201.348	-148.364	-0.390	-0.031
-200.333	52.560	0.046	0.043
-199.319	-5.805	-0.079	-0.053
-198.304	214.647	0.180	-0.280
-197.290	163.350	-0.157	0.216
-196.275	191.325	-0.041	-0.060
-195.260	-37.250	0.295	0.155
-194.246	-41.655	0.077	-0.039
-193.231	101.733	-0.068	-0.078
-192.217	38.140	0.104	-0.091
-191.202	800.000	-0.057	-0.212
-190.187	800.000	-0.074	-0.262
-189.173	-200.000	-0.016	-0.180
-188.158	199.818	-0.066	0.100
-187.144	-36.232	0.284	0.151
-186.129	-139.812	-0.396	0.041
-185.114	-178.134	0.020	-0.000
-184.100	800.000	-0.031	-0.125
-183.085	-169.535	0.150	-0.005
-182.071	-65.022	-0.260	-0.103
-181.056	-7.384	-0.335	-0.222
-180.042	57.472	0.069	0.066
-179.027	-65.124	-0.304	0.120
-178.012	594.099	-0.075	-0.182
-176.998	-200.000	0.042	0.289
-175.983	393.799	0.037	0.075
-174.969	-200.000	0.042	-0.355
-173.954	-200.000	-0.018	-0.120
-172.939	8.184	0.137	0.101
-171.925	156.466	0.093	0.126
-170.910	-88.454	-0.079	0.023
-169.896	151.529	0.170	-0.227
-168.881	-200.000	0.000	-0.008
-167.866	153.219	-0.160	0.214
-166.852	-95.258	0.130	0.034
-165.837	-88.382	0.265	-0.078
-164.823	-200.000	0.023	-0.365
-163.808	-62.297	0.193	-0.079
-162.793	-12.308	0.373	-0.239
-161.779	29.125	-0.406	0.338
-160.764	-200.000	-0.016	0.083
-159.750	232.148	0.169	-0.271
-158.735	175.890	-0.179	0.254
-157.720	170.332	-0.019	-0.027
-156.706	17.309	0.139	0.108
-155.691	-87.421	-0.266	-0.079
-154.677	-42.944	0.162	0.081
-153.662	-63.587	0.237	0.095
-152.647	-135.713	-0.228	-0.026
-151.633	-200.000	-0.027	-0.292
-150.618	-96.011	-0.232	-0.061
-149.604	-200.000	0.041	-0.238
-148.589	-200.000	-0.003	0.114
-147.574	291.067	0.134	0.239
-146.560	64.841	-0.354	-0.350
-145.545	547.073	0.147	-0.345
-144.531	-200.000	0.009	0.227
-143.516	-132.208	-0.154	0.020
-142.502	261.293	0.112	0.191
-141.487	-62.566	-0.149	0.061
-140.472	-39.438	0.203	-0.104
-139.458	469.812	-0.026	0.056
-138.443	-200.000	0.015	0.182
-137.429	24.265	-0.080	-0.065
-136.414	245.197	-0.047	0.078
-135.399	167.627	-0.083	0.116
-134.385	72.117	0.078	0.079
-133.370	-50.788	0.340	0.157
-132.356	85.244	0.111	-0.119
-131.341	53.289	-0.008	-0.008
-130.326	68.767	0.195	0.196
-129.312	356.793	0.098	0.191
-128.297	-200.000	0.058	0.372
-127.283	128.619	0.306	-0.382
-126.268	-9.365	-0.527	0.344
-125.253	134.170	0.126	0.160
-124.239	66.867	-0.234	0.233
-123.224	102.630	0.141	0.161
-122.210	-53.769	0.067	0.030
-121.195	314.379	-0.028	-0.052
-120.180	399.709	0.192	0.394
-119.166	96.307	0.019	-0.021
-118.151	23.485	-0.122	0.098
-117.137	-57.985	-0.128	-0.055
-116.122	53.724	-0.194	-0.183
-115.107	-32.320	-0.079	0.043
-114.093	-200.000	-0.002	-0.209
-113.078	483.498	0.163	0.363
-112.064	-67.229	0.135	0.052
-111.049	152.223	0.149	0.199
-110.034	-174.627	-0.250	0.007
-109.020	800.000	-0.062	-0.201
-108.005	-200.000	0.005	0.101
-106.991	-200.000	-0.052	-0.327
-105.976	116.986	0.109	0.130
-104.962	39.055	-0.179	0.156
-103.947	23.679	-0.347	0.279
-102.932	210.055	0.201	0.308
-101.918	289.436	0.057	-0.102
-100.903	-15.087	-0.158	-0.099
-99.889	45.722	0.255	-0.230
-98.874	39.292	0.137	0.120
-97.859	252.203	0.089	-0.149
-96.845	76.847	0.169	0.175
-95.830	-157.572	-0.135	-0.008
-94.816	-61.699	-0.152	0.062
-93.801	-200.000	-0.013	-0.111
-92.786	800.000	-0.087	0.315
-91.772	-116.347	0.373	0.067
-90.757	185.424	0.100	-0.146
-89.743	48.881	0.064	-0.059
-88.728	-194.551	0.100	-0.001
-87.713	142.323	-0.078	0.102
-86.699	558.230	-0.070	0.164
-85.684	-181.419	-0.543	-0.010
-84.670	253.482	-0.142	-0.236
-83.655	-200.000	-0.005	0.080
-82.640	277.229	0.146	-0.254
-81.626	-200.000	0.036	0.259
-80.611	-200.000	0.011	-0.165
-79.597	16.551	-0.098	0.076
-78.582	-200.000	-0.029	0.167
-77.567	800.000	0.106	0.321
-76.553	-136.293	0.202	-0.023
-75.538	-142.339	0.305	0.029
-74.524	-81.764	-0.302	-0.097
-73.509	62.132	0.318	0.310
-72.494	552.021	-0.082	0.191
-71.480	62.242	-0.115	-0.112
-70.465	-85.993	-0.220	0.066
-69.451	19.946	-0.094	-0.074
-68.436	-200.000	-0.015	-0.163
-67.422	-51.148	0.311	0.142
-66.407	724.303	0.037	-0.095
-65.392	400.193	-0.089	-0.182
-64.378	-200.000	-0.039	-0.340
-63.363	-8.484	-0.150	-0.098
-62.349	-89.503	-0.253	-0.073
-61.334	216.625	-0.902	-1.401
-60.319	98.130	0.548	0.616
-59.305	-200.000	-0.266	-1.287
-58.290	46.179	0.998	0.902
-57.276	800.000	0.515	1.467
-56.261	-200.000	112.354	623.225
-55.246	471.479	1474.410	3237.081
-54.232	153.093	2642.543	3526.641
-53.217	93.378	2261.348	2496.418
-52.203	35.735	1882.875	1614.472
-51.188	30.485	1680.279	1401.230
-50.173	28.052	1639.911	1349.577
-49.159	46.397	1697.075	1535.101
-48.144	45.728	1710.702	1542.335
-47.130	29.827	1668.487	1386.246
-46.115	27.344	1654.213	1355.860
-45.100	27.166	1649.726	1350.801
-44.086	27.110	1647.009	1348.111
-43.071	27.168	1644.117	1346.117
-42.057	27.104	1642.015	1343.870
-41.042	27.076	1640.340	1342.239
-40.027	27.119	1638.287	1340.828
-39.013	27.105	1636.571	1339.266
-37.998	27.040	1635.372	1337.756
-36.984	27.091	1633.857	1336.832
-35.969	27.284	1631.509	1336.277
-34.954	27.327	1630.150	1335.427
-33.940	27.221	1628.628	1333.349
-32.925	27.348	1626.880	1332.798
-31.911	27.238	1625.395	1330.720
-30.896	27.271	1623.300	1329.195
-29.881	27.221	1621.959	1327.683
-28.867	27.253	1620.367	1326.560
-27.852	27.191	1619.103	1325.018
-26.838	27.361	1617.759	1325.107
-25.823	27.237	1616.850	1323.403
-24.809	27.319	1615.067	1322.488
-23.794	27.356	1613.363	1321.308
-22.779	27.301	1611.923	1319.676
-21.765	27.236	1610.877	1318.299
-20.750	27.279	1608.584	1316.681
-19.736	27.280	1607.215	1315.513
-18.721	27.337	1606.185	1315.034
-17.706	27.289	1604.855	1313.542
-16.692	27.348	1602.892	1312.309
-15.677	27.281	1601.900	1310.962
-14.663	27.368	1600.224	1310.170
-13.648	27.339	1599.167	1309.043
-12.633	27.298	1597.296	1307.165
-11.619	27.308	1595.695	1305.869
-10.604	27.315	1594.261	1304.698
-9.590	27.308	1593.085	1303.633
-8.575	27.214	1592.818	1302.689
-7.560	27.410	1590.604	1302.230
-6.546	27.213	1590.072	1300.335
-5.531	27.287	1588.853	1299.816
-4.517	27.247	1587.440	1298.320
-3.502	27.260	1586.588	1297.666
-2.487	27.383	1584.338	1296.649
-1.473	26.779	1572.396	1282.554
-0.458	23.140	1552.195	1240.562
0.556	17.460	1551.611	1203.523
1.571	14.782	1573.510	1201.174
2.586	14.218	1585.406	1206.059
3.600	12.974	1533.065	1157.417
4.615	7.381	1428.295	1041.584
5.629	1.467	1368.265	960.427
6.644	0.252	1360.692	947.387
7.659	0.154	1359.302	945.719
8.673	0.211	1358.267	945.271
9.688	0.133	1356.278	943.318
10.702	-0.018	1352.892	939.933
11.717	2.813	1356.840	960.329
12.731	10.049	1368.090	1013.721
13.746	15.652	1376.237	1054.927
14.761	16.948	1376.668	1063.296
15.775	16.257	1374.604	1057.279
16.790	15.319	1372.360	1049.595
17.804	14.582	1369.962	1043.059
18.819	14.160	1368.401	1039.144
19.834	13.892	1367.327	1036.565
20.848	13.634	1366.318	1034.096
21.863	13.407	1364.342	1031.097
22.877	13.241	1363.418	1029.272
23.892	13.110	1362.634	1027.778
24.907	13.257	1361.780	1027.953
25.921	13.180	1361.068	1026.850
26.936	13.292	1359.972	1026.623
27.950	13.348	1359.046	1026.182
28.965	13.314	1358.313	1025.325
29.980	13.532	1356.802	1025.447
30.994	13.492	1356.202	1024.653
32.009	13.517	1354.935	1023.759
33.023	13.500	1354.406	1023.167
34.038	13.380	1353.190	1021.419
35.053	13.403	1352.324	1020.817
36.067	13.329	1351.208	1019.425
37.082	13.519	1349.981	1019.580
38.096	13.371	1349.043	1017.869
39.111	13.492	1347.947	1017.694
40.126	13.282	1347.800	1016.203
41.140	13.291	1346.828	1015.437
42.155	13.191	1346.647	1014.596
43.169	13.192	1346.091	1014.097
44.184	13.255	1345.734	1014.120
45.199	13.242	1345.362	1013.674
46.213	13.298	1344.486	1013.264
47.228	13.300	1343.720	1012.608
48.242	13.400	1342.579	1012.274
49.257	13.303	1341.062	1010.446
50.271	13.369	1339.472	1009.566
51.286	13.257	1338.781	1008.271
52.301	13.233	1337.450	1007.030
53.315	13.240	1336.435	1006.224
54.330	13.203	1335.395	1005.126
55.344	13.222	1333.958	1004.069
56.359	13.280	1333.065	1003.658
57.374	13.344	1332.136	1003.260
58.388	13.134	1331.555	1001.458
59.403	13.109	1330.980	1000.785
60.417	13.162	1330.149	1000.395
61.432	13.159	1329.273	999.630
62.447	13.125	1328.311	998.612
63.461	13.118	1327.173	997.623
64.476	13.107	1325.782	996.425
65.490	13.090	1324.503	995.274
66.505	13.198	1322.804	994.559
67.520	13.116	1321.940	993.328
68.534	13.085	1321.284	992.560
69.549	13.205	1319.968	992.209
70.563	13.136	1319.296	991.197
71.578	13.044	1317.792	989.432
72.593	13.061	1316.483	988.464
73.607	13.259	1315.169	988.571
74.622	13.051	1315.377	987.395
75.636	13.063	1314.353	986.613
76.651	13.095	1313.532	986.100
77.666	13.129	1312.963	985.789
78.680	13.149	1312.603	985.547
79.695	13.117	1311.797	984.666
80.709	13.164	1311.034	984.287
81.724	13.147	1310.123	983.417
82.739	13.304	1308.760	983.239
83.753	13.245	1307.908	982.160
84.768	13.290	1307.071	981.710
85.782	13.358	1305.670	980.974
86.797	13.388	1304.601	980.263
87.812	13.240	1303.685	978.612
88.826	13.256	1302.481	977.719
89.841	13.240	1301.692	976.942
90.855	13.335	1300.565	976.570
91.870	13.364	1299.554	975.897
92.884	13.288	1298.993	974.940
93.899	13.356	1298.169	974.639
94.914	13.476	1297.420	974.699
95.928	13.434	1296.023	973.311
96.943	13.390	1295.602	972.651
97.957	13.442	1294.694	972.193
98.972	13.309	1294.047	970.836
99.987	13.349	1292.851	970.091
101.001	13.431	1291.690	969.610
102.016	13.327	1291.014	968.409
103.030	13.396	1289.611	967.675
104.045	13.370	1288.981	966.966
105.060	13.288	1287.814	965.524
106.074	13.388	1286.353	964.925
107.089	13.348	1285.125	963.688
108.103	13.251	1284.045	962.227
109.118	13.152	1282.924	960.730
110.133	13.205	1281.268	959.712
111.147	13.233	1280.218	959.002
112.162	13.244	1278.579	957.751
113.176	13.333	1277.425	957.322
114.191	13.313	1277.104	956.880
115.206	13.276	1275.819	955.616
116.220	13.293	1274.157	954.386
117.235	13.391	1273.169	954.127
118.249	13.393	1272.450	953.513
119.264	13.344	1271.236	952.237
120.279	13.204	1270.662	950.921
121.293	13.330	1269.024	950.332
122.308	13.200	1268.143	948.842
123.322	13.231	1267.378	948.363
124.337	13.276	1266.118	947.592
125.352	13.231	1264.901	946.341
126.366	13.258	1263.651	945.479
127.381	13.220	1262.358	944.208
128.395	13.234	1261.244	943.370
129.410	13.230	1260.885	943.001
130.424	13.291	1259.992	942.596
131.439	13.282	1258.950	941.679
132.454	13.372	1257.564	941.071
133.468	13.355	1257.019	940.488
134.483	13.351	1255.897	939.539
135.497	13.328	1255.063	938.701
136.512	13.339	1253.892	937.807
137.527	13.306	1252.667	936.618
138.541	13.344	1250.996	935.504
139.556	13.356	1250.134	934.842
140.570	13.265	1248.810	933.258
141.585	13.344	1247.389	932.554
142.600	13.368	1246.307	931.800
143.614	13.482	1245.366	931.655
144.629	13.445	1244.196	930.488
145.643	13.570	1242.855	930.106
146.658	13.371	1242.211	928.428
147.673	13.351	1241.070	927.377
148.687	13.366	1239.398	926.132
149.702	13.443	1238.140	925.539
150.716	13.407	1236.944	924.363
151.731	13.388	1235.675	923.226
152.746	13.499	1234.411	922.819
153.760	13.343	1233.572	921.244
154.775	13.500	1232.054	920.899
155.789	13.616	1231.029	920.695
156.804	13.506	1230.324	919.477
157.819	13.374	1229.561	918.095
158.833	13.573	1228.522	918.340
159.848	13.653	1227.221	917.730
160.862	13.736	1226.425	917.514
161.877	13.566	1225.442	915.755
162.892	13.497	1224.630	914.686
163.906	13.528	1223.297	913.780
164.921	13.577	1222.350	913.262
165.935	13.604	1221.541	912.724
166.950	13.535	1220.924	911.808
167.964	13.693	1219.448	911.489
168.979	13.637	1219.143	910.873
169.994	13.655	1218.578	910.469
171.008	13.525	1217.785	909.082
172.023	13.631	1216.506	908.628
173.037	13.742	1215.926	908.726
174.052	13.583	1215.267	907.282
175.067	13.575	1214.170	906.338
176.081	13.580	1212.893	905.333
177.096	13.652	1211.831	904.853
178.110	13.614	1210.804	903.797
179.125	13.605	1209.621	902.787
180.140	13.725	1208.578	902.580
181.154	13.669	1207.459	901.362
182.169	13.705	1206.106	900.465
183.183	13.762	1204.995	899.865
184.198	13.790	1203.722	898.988
185.213	13.848	1202.667	898.432
186.227	13.873	1201.496	897.613
187.242	13.780	1200.572	896.342
188.256	13.765	1199.993	895.751
189.271	13.839	1198.762	895.154
190.286	13.844	1197.916	894.469
191.300	13.639	1197.448	892.932
192.315	13.744	1195.899	892.264
193.329	13.791	1196.039	892.546
194.344	13.850	1194.912	891.939
195.359	13.689	1194.920	891.000
196.373	13.906	1193.685	891.169
197.388	13.997	1193.461	891.411
198.402	13.998	1192.822	890.860
199.417	14.033	1192.191	890.499
200.432	14.016	1191.185	889.574
201.446	14.095	1190.205	889.184
202.461	14.217	1189.324	889.103
203.475	14.149	1188.361	887.938
204.490	14.131	1187.148	886.861
205.504	14.026	1186.304	885.593
206.519	14.071	1184.885	884.695
207.534	13.979	1184.334	883.714
208.548	14.021	1183.033	882.890
209.563	14.059	1182.209	882.398
210.577	14.168	1181.467	882.340
211.592	14.158	1180.476	881.471
212.607	14.231	1179.554	881.090
213.621	14.246	1178.392	880.226
214.636	14.122	1178.011	879.208
215.650	14.163	1177.178	878.723
216.665	14.189	1176.326	878.146
217.680	14.295	1175.293	877.857
218.694	14.334	1174.309	877.252
219.709	14.394	1173.362	876.780
220.723	14.262	1172.839	875.621
221.738	14.312	1172.046	875.214
222.753	14.351	1171.274	874.761
223.767	14.349	1170.887	874.385
224.782	14.370	1169.992	873.750
225.796	14.362	1169.762	873.457
226.811	14.412	1168.904	873.002
227.826	14.378	1168.073	872.125
228.840	14.431	1167.284	871.740
229.855	14.415	1166.687	871.134
230.869	14.425	1165.709	870.376
231.884	14.441	1164.948	869.817
232.899	14.339	1164.412	868.805
233.913	14.360	1163.392	868.076
234.928	14.343	1162.629	867.344
235.942	14.333	1162.207	866.901
236.957	14.359	1160.782	865.894
237.972	14.470	1160.117	865.899
238.986	14.391	1160.046	865.359
240.001	14.394	1158.771	864.345
241.015	14.599	1157.954	864.724
242.030	14.604	1157.475	864.316
243.045	14.530	1156.539	863.158
244.059	14.528	1155.869	862.569
245.074	14.512	1154.974	861.744
246.088	14.554	1154.289	861.374
247.103	14.589	1153.635	860.989
248.117	14.664	1152.455	860.420
249.132	14.685	1151.765	859.937
250.147	14.818	1151.147	860.082
251.161	14.839	1150.444	859.591
252.176	14.782	1149.949	858.852
253.190	14.744	1149.646	858.350
254.205	14.924	1148.807	858.572
255.220	14.811	1148.397	857.611
256.234	15.016	1147.570	857.969
257.249	14.902	1146.983	856.872
258.263	14.986	1146.140	856.595
259.278	14.882	1145.775	855.717
260.293	14.955	1145.117	855.521
261.307	14.951	1144.603	855.039
262.322	15.043	1143.591	854.680
263.336	15.099	1142.955	854.415
264.351	15.026	1142.500	853.623
265.366	15.037	1142.183	853.367
266.380	15.188	1141.019	853.194
267.395	15.085	1140.185	851.970
268.409	15.183	1139.433	851.832
269.424	15.039	1139.030	850.724
270.439	15.020	1138.734	850.331
271.453	15.086	1137.679	849.799
272.468	15.127	1136.839	849.304
273.482	15.023	1136.609	848.534
274.497	15.035	1135.898	847.988
275.512	15.176	1134.780	847.791
276.526	15.109	1133.954	846.760
277.541	15.129	1132.930	846.023
278.555	15.113	1132.729	845.718
279.570	15.239	1132.199	845.879
280.585	15.227	1130.943	844.809
281.599	15.275	1130.185	844.406
282.614	15.336	1128.983	843.740
283.628	15.296	1128.126	842.827
284.643	15.326	1127.390	842.350
285.657	15.274	1126.610	841.433
286.672	15.323	1125.806	841.006
287.687	15.263	1124.978	840.010
288.701	15.357	1123.564	839.350
289.716	15.279	1123.079	838.528
290.730	15.345	1122.392	838.265
291.745	15.399	1121.648	837.908
292.760	15.295	1121.316	837.066
293.774	15.424	1120.345	836.910
294.789	15.505	1119.910	836.914
295.803	15.527	1119.132	836.368
296.818	15.550	1118.482	835.922
297.833	15.433	1117.838	834.789
298.847	15.426	1117.137	834.156
299.862	15.531	1115.982	833.741
300.876	15.537	1116.007	833.715
301.891	15.612	1114.900	833.186
302.906	15.675	1114.139	832.857
303.920	15.636	1113.562	832.159
304.935	15.721	1112.989	832.075
305.949	15.779	1112.217	831.709
306.964	15.772	1111.370	830.972
307.979	15.720	1110.952	830.326
308.993	15.780	1110.062	829.885
310.008	15.806	1109.174	829.277
311.022	15.657	1108.885	828.252
312.037	15.722	1107.666	827.590
313.052	15.817	1106.491	827.105
314.066	15.765	1106.018	826.422
315.081	15.642	1105.233	825.158
316.095	15.679	1104.642	824.824
317.110	15.680	1104.003	824.278
318.125	15.684	1103.448	823.812
319.139	15.759	1102.425	823.342
320.154	15.719	1101.661	822.505
321.168	15.779	1101.425	822.548
322.183	15.738	1100.743	821.768
323.197	15.740	1100.044	821.179
324.212	15.791	1099.608	821.033
325.227	15.906	1099.072	821.122
326.241	15.810	1098.042	819.812
327.256	15.829	1097.404	819.354
328.270	15.898	1096.427	818.885
329.285	15.763	1095.569	817.521
330.300	15.758	1094.754	816.813
331.314	15.874	1093.697	816.514
332.329	15.863	1092.724	815.662
333.343	15.861	1092.214	815.200
334.358	15.874	1091.137	814.385
335.373	15.899	1090.406	813.889
336.387	16.015	1089.357	813.594
337.402	15.893	1088.828	812.540
338.416	16.096	1088.195	812.973
339.431	16.057	1087.635	812.294
340.446	16.080	1086.680	811.624
341.460	16.108	1086.320	811.417
342.475	16.099	1085.435	810.639
343.489	16.118	1084.768	810.160
344.504	16.296	1082.921	809.565
345.519	16.235	1082.618	808.971
346.533	16.276	1081.735	808.440
347.548	16.349	1081.055	808.208
348.562	16.319	1080.561	807.626
349.577	16.308	1079.581	806.767
350.592	16.228	1079.190	806.022
351.606	16.271	1078.076	805.323
352.621	16.179	1077.764	804.581
353.635	16.248	1077.147	804.378
354.650	16.210	1076.115	803.354
355.665	16.254	1075.290	802.879
356.679	16.285	1074.815	802.598
357.694	16.446	1074.073	802.737
358.708	16.408	1073.530	802.083
359.723	16.343	1072.783	801.143
360.738	16.438	1072.270	801.142
361.752	16.483	1071.737	800.884
362.767	16.403	1071.177	800.016
363.781	16.370	1070.713	799.443
364.796	16.573	1069.943	799.758
365.810	16.679	1069.063	799.526
366.825	16.557	1068.929	798.783
367.840	16.615	1068.539	798.694
368.854	16.537	1068.077	797.911
369.869	16.594	1067.043	797.333
370.883	16.591	1066.247	796.655
371.898	16.693	1065.404	796.436
372.913	16.626	1064.881	795.661
373.927	16.541	1064.736	795.078
374.942	16.689	1064.220	795.318
375.956	16.693	1063.692	794.872
376.971	16.706	1062.745	794.157
377.986	16.653	1062.447	793.613
379.000	16.707	1061.614	793.176
380.015	16.815	1061.071	793.207
381.029	16.863	1060.652	793.046
382.044	16.805	1059.909	792.148
383.059	16.889	1059.129	791.888
384.073	16.822	1058.612	791.122
385.088	16.959	1057.090	790.552
386.102	16.788	1056.452	789.206
387.117	16.861	1055.474	788.745
388.132	16.759	1054.674	787.605
389.146	16.843	1053.659	787.167
390.161	16.940	1053.454	787.394
391.175	16.840	1052.438	786.102
392.190	16.900	1051.971	785.963
393.205	16.958	1050.971	785.415
394.219	16.918	1050.779	785.013
395.234	16.974	1049.583	784.311
396.248	16.993	1048.512	783.530
397.263	17.011	1047.532	782.809
398.278	16.986	1046.845	782.114
399.292	16.825	1046.507	781.049
400.307	16.996	1045.274	780.847
401.321	16.924	1044.909	780.174
402.336	16.807	1044.707	779.417
403.350	16.837	1043.806	778.815
404.365	16.954	1042.984	778.668
405.380	16.991	1042.476	778.389
406.394	17.033	1041.641	777.890
407.409	17.181	1040.715	777.808
408.423	17.076	1039.962	776.694
409.438	17.143	1039.442	776.545
410.453	17.209	1038.563	776.119
411.467	17.328	1037.575	775.856
412.482	17.391	1036.829	775.514
413.496	17.289	1036.538	774.763
414.511	17.348	1035.979	774.546
415.526	17.358	1035.770	774.370
416.540	17.317	1034.996	773.537
417.555	17.224	1034.927	772.991
418.569	17.289	1034.173	772.655
419.584	17.443	1033.663	772.906
420.599	17.489	1033.206	772.703
421.613	106.381	1326.344	1479.491
422.628	97.453	1368.989	1479.581
