DTS Sentinel unit serial number:	SN413079Multiplexer serial number:	ORYXHardware model number:	OX4-SRSoftware version number:	ORYX F/W v4.00 Oryx Data Collector v3.7.2.0data status	okinstallation	princeton_trtdifferential loss correction	single-endedforward channel	channel 2reverse channel	N/Adate	2019/09/19time	10:31:35forward acquisition time	60.00reverse acquisition time	0.00gamma	496.2192k internal	0.2342k external	0.2342temperature offset calibration	1.0009default loss term (dB/km)	0.3790temperature slope calibration	1.0000multiplexer offset coefficient	1.0000multiplexer slope coefficient	1.0000fibre end	0.00T internal ref (°C)	24.41T ext. ref 1 (°C)	0.71T ext. ref 2 (°C)	19.80length (m)	temperature (°C)	Stokes	anti-Stokes-747.200	-100.562	0.205	-0.051
-746.185	133.006	-0.177	0.229
-745.171	42.531	-0.223	0.203
-744.156	-200.000	0.032	0.369
-743.142	30.216	0.165	0.141
-742.127	-200.000	-0.015	0.284
-741.112	800.000	-0.071	-0.251
-740.098	138.313	-0.085	0.112
-739.083	800.000	0.063	-0.266
-738.069	368.123	-0.067	0.136
-737.054	207.698	0.105	-0.163
-736.039	800.000	-0.114	-0.349
-735.025	-79.358	0.278	0.094
-734.010	552.624	-0.044	-0.106
-732.996	521.236	-0.134	-0.315
-731.981	-175.168	0.194	-0.005
-730.966	-200.000	-0.023	0.329
-729.952	198.939	0.072	0.110
-728.937	183.224	-0.163	-0.241
-727.923	5.101	-0.309	-0.227
-726.908	794.298	-0.074	0.204
-725.894	-103.013	-0.290	-0.069
-724.879	-181.982	0.054	-0.001
-723.864	681.333	-0.041	0.108
-722.850	-200.000	-0.009	0.061
-721.835	800.000	-0.113	0.366
-720.821	-56.490	-0.446	-0.198
-719.806	-34.891	0.025	0.013
-718.791	230.392	-0.081	-0.133
-717.777	8.754	-0.364	-0.274
-716.762	-200.000	-0.084	-0.557
-715.748	31.180	-0.164	0.141
-714.733	-124.280	0.110	-0.017
-713.718	800.000	-0.066	-0.216
-712.704	79.238	0.276	-0.296
-711.689	-124.545	-0.232	-0.036
-710.675	-51.854	0.301	-0.140
-709.660	272.330	0.061	0.108
-708.645	-105.297	-0.090	-0.021
-707.631	-30.688	0.220	0.125
-706.616	-118.889	-0.269	-0.047
-705.602	-200.000	-0.032	-0.176
-704.587	-72.980	-0.214	0.079
-703.572	140.428	0.234	0.309
-702.558	-200.000	0.015	0.278
-701.543	161.634	0.113	-0.158
-700.529	347.265	-0.112	-0.221
-699.514	223.163	-0.096	-0.154
-698.499	285.681	-0.011	0.021
-697.485	-127.574	0.131	-0.019
-696.470	528.425	0.105	-0.247
-695.456	171.342	-0.085	0.122
-694.441	800.000	-0.077	-0.233
-693.426	-96.728	-0.312	-0.082
-692.412	32.495	0.151	0.130
-691.397	425.453	-0.063	-0.135
-690.383	-200.000	-0.102	0.000
-689.368	3.111	0.102	0.074
-688.354	-67.597	0.118	0.046
-687.339	800.000	0.034	-0.106
-686.324	800.000	-0.082	-0.259
-685.310	-139.195	-0.116	-0.013
-684.295	-146.870	-0.430	0.037
-683.281	396.960	-0.103	0.214
-682.266	-62.128	-0.172	-0.072
-681.251	-21.080	-0.074	-0.045
-680.237	-65.854	-0.404	-0.161
-679.222	-200.000	-0.056	-0.261
-678.208	9.965	-0.352	0.267
-677.193	-91.972	0.101	0.029
-676.178	-23.872	-0.149	-0.089
-675.164	-200.000	0.027	-0.237
-674.149	192.590	-0.180	0.271
-673.135	12.370	0.150	-0.115
-672.120	-200.000	-0.037	-0.292
-671.105	154.885	0.100	-0.137
-670.091	119.271	-0.040	-0.050
-669.076	-97.547	0.096	-0.025
-668.062	-61.037	-0.123	0.052
-667.047	-64.664	0.243	-0.098
-666.032	-28.093	-0.225	0.130
-665.018	-20.563	0.289	-0.177
-664.003	-200.000	-0.015	-0.251
-662.989	84.075	0.320	0.349
-661.974	-200.000	0.020	-0.123
-660.959	538.978	-0.137	-0.326
-659.945	98.967	-0.264	-0.304
-658.930	18.031	-0.092	0.074
-657.916	-200.000	0.030	-0.221
-656.901	-200.000	-0.001	-0.130
-655.886	-24.260	-0.251	0.149
-654.872	-89.525	-0.034	0.010
-653.857	-140.259	0.094	0.010
-652.843	800.000	0.098	-0.325
-651.828	800.000	-0.023	-0.070
-650.814	343.723	0.159	-0.310
-649.799	122.615	0.086	-0.108
-648.784	-200.000	-0.009	-0.161
-647.770	-172.692	-0.214	0.007
-646.755	-78.070	-0.377	-0.130
-645.741	-103.686	0.148	0.035
-644.726	128.187	0.167	0.212
-643.711	-200.000	0.031	0.348
-642.697	641.482	0.141	0.359
-641.682	-85.939	0.243	0.075
-640.668	46.591	0.226	-0.209
-639.653	40.196	0.255	-0.229
-638.638	259.818	0.109	0.188
-637.624	800.000	-0.071	0.205
-636.609	-68.812	-0.581	-0.224
-635.595	800.000	0.044	-0.161
-634.580	82.267	-0.142	-0.154
-633.565	-21.403	0.092	0.056
-632.551	48.469	-0.154	0.143
-631.536	125.097	-0.111	-0.139
-630.522	-1.236	0.217	-0.153
-629.507	-200.000	0.019	0.240
-628.492	39.598	-0.023	0.020
-627.478	-200.000	-0.020	0.141
-626.463	154.599	-0.151	0.207
-625.449	283.860	-0.132	0.237
-624.434	479.194	0.057	0.128
-623.419	-34.495	0.150	0.082
-622.405	-39.689	0.209	-0.109
-621.390	-115.249	0.100	-0.019
-620.376	-23.448	0.170	0.102
-619.361	42.999	0.127	0.115
-618.346	-200.000	-0.050	0.383
-617.332	-112.558	0.313	-0.062
-616.317	-79.770	0.158	0.053
-615.303	-200.000	0.019	0.132
-614.288	47.628	-0.252	-0.235
-613.273	-109.192	0.240	-0.051
-612.259	800.000	-0.119	0.382
-611.244	-124.082	0.315	0.049
-610.230	-200.000	-0.031	-0.236
-609.215	800.000	0.044	0.136
-608.201	561.220	-0.174	-0.420
-607.186	-80.077	0.323	-0.108
-606.171	-200.000	0.027	-0.159
-605.157	-42.820	-0.049	0.025
-604.142	-49.327	-0.243	-0.116
-603.128	-143.802	0.501	-0.047
-602.113	-99.923	0.130	0.032
-601.098	179.191	-0.066	0.096
-600.084	321.086	0.126	-0.239
-599.069	-54.257	0.236	-0.107
-598.055	-132.776	0.192	-0.024
-597.040	-108.546	-0.491	0.105
-596.025	316.717	-0.100	0.189
-595.011	-172.477	0.295	-0.009
-593.996	64.204	0.043	0.043
-592.982	273.423	-0.244	-0.429
-591.967	-200.000	0.004	-0.232
-590.952	112.202	-0.205	-0.247
-589.938	-89.895	-0.152	-0.044
-588.923	-125.544	0.356	0.054
-587.909	-200.000	0.000	0.351
-586.894	-80.586	-0.016	-0.005
-585.879	-27.730	-0.151	-0.087
-584.865	-149.744	-0.137	0.011
-583.850	-200.000	-0.002	0.266
-582.836	-200.000	-0.017	-0.187
-581.821	-150.707	-0.195	0.015
-580.806	-92.475	-0.140	-0.039
-579.792	-44.305	0.086	-0.043
-578.777	-52.328	0.257	0.119
-577.763	-141.298	0.110	-0.011
-576.748	-200.000	-0.009	-0.048
-575.733	-133.889	0.281	0.035
-574.719	-200.000	0.011	0.178
-573.704	-102.667	-0.173	0.041
-572.690	800.000	0.058	-0.209
-571.675	-132.340	-0.350	-0.045
-570.661	80.308	-0.203	0.218
-569.646	-31.538	-0.142	-0.079
-568.631	-83.060	-0.282	0.090
-567.617	-27.615	-0.158	0.091
-566.602	-28.267	0.212	-0.122
-565.588	-200.000	0.027	-0.168
-564.573	-159.617	-0.476	-0.026
-563.558	633.656	-0.059	-0.148
-562.544	8.500	0.293	-0.219
-561.529	-112.764	0.243	0.048
-560.515	480.695	-0.054	-0.122
-559.500	-141.726	0.375	-0.037
-558.485	137.859	0.155	0.202
-557.471	-138.713	-0.159	-0.017
-556.456	-75.079	-0.233	-0.083
-555.442	677.743	-0.144	0.373
-554.427	-94.952	0.109	0.029
-553.412	130.476	-0.103	-0.131
-552.398	91.625	-0.321	-0.359
-551.383	-200.000	-0.022	-0.178
-550.369	800.000	-0.116	-0.468
-549.354	342.746	-0.094	0.182
-548.339	800.000	-0.051	0.158
-547.325	-91.751	0.047	-0.013
-546.310	105.631	-0.148	-0.174
-545.296	624.234	-0.101	-0.252
-544.281	-200.000	0.079	-0.421
-543.266	-200.000	0.018	-0.168
-542.252	-53.264	-0.088	-0.040
-541.237	-118.385	-0.141	0.025
-540.223	85.865	0.115	-0.126
-539.208	362.292	-0.078	0.155
-538.193	-182.340	0.291	0.005
-537.179	-200.000	-0.008	0.267
-536.164	-55.488	-0.240	0.107
-535.150	51.280	0.083	-0.078
-534.135	-200.000	0.029	-0.386
-533.121	451.025	0.080	0.176
-532.106	481.791	-0.103	-0.232
-531.091	-200.000	0.081	-0.465
-530.077	-8.595	-0.165	0.110
-529.062	341.473	-0.105	-0.204
-528.048	-200.000	0.009	0.096
-527.033	-39.417	-0.177	-0.092
-526.018	-200.000	-0.181	0.000
-525.004	127.064	0.082	0.103
-523.989	664.258	-0.052	-0.133
-522.975	-131.889	-0.039	0.005
-521.960	26.199	-0.174	0.144
-520.945	-20.119	0.240	0.147
-519.931	-200.000	0.030	0.133
-518.916	-46.169	-0.352	-0.172
-517.902	-200.000	-0.035	-0.238
-516.887	-49.936	-0.101	0.048
-515.872	800.000	0.046	-0.152
-514.858	-200.000	-0.001	-0.358
-513.843	-200.000	0.007	0.126
-512.829	-200.000	-0.014	-0.135
-511.814	-51.780	-0.246	0.114
-510.799	800.000	-0.115	-0.359
-509.785	800.000	-0.033	-0.116
-508.770	666.370	0.155	-0.397
-507.756	-20.679	-0.262	0.160
-506.741	393.771	0.181	0.373
-505.726	-200.000	0.014	0.174
-504.712	26.784	-0.197	-0.164
-503.697	-73.914	-0.192	-0.069
-502.683	-200.000	0.069	0.337
-501.668	39.213	-0.069	-0.061
-500.653	254.493	0.131	-0.223
-499.639	-200.000	0.002	-0.076
-498.624	-200.000	-0.014	0.108
-497.610	602.891	-0.089	0.219
-496.595	-170.655	-0.183	-0.006
-495.581	23.126	0.235	0.191
-494.566	-44.689	0.335	-0.166
-493.551	-18.518	0.031	0.019
-492.537	-200.000	0.004	0.448
-491.522	-40.005	0.131	0.068
-490.508	4.889	-0.197	-0.144
-489.493	160.809	0.144	-0.200
-488.478	-0.522	0.281	-0.198
-487.464	800.000	-0.073	-0.273
-486.449	-34.935	-0.086	-0.046
-485.435	704.336	-0.115	0.301
-484.420	800.000	0.057	-0.158
-483.405	-78.751	-0.291	-0.098
-482.391	-200.000	-0.033	-0.254
-481.376	65.795	0.165	0.166
-480.362	49.424	0.146	0.137
-479.347	-90.010	-0.362	-0.105
-478.332	379.846	-0.174	0.353
-477.318	-69.296	0.204	-0.078
-476.303	-200.000	0.080	-0.404
-475.289	133.357	-0.131	-0.168
-474.274	505.495	-0.104	0.239
-473.259	-84.280	0.207	0.065
-472.245	103.508	0.336	0.391
-471.230	-66.522	-0.324	-0.128
-470.216	-5.021	0.105	0.071
-469.201	104.138	-0.099	-0.116
-468.186	56.245	0.077	0.074
-467.172	-200.000	0.012	-0.117
-466.157	-200.000	-0.019	-0.325
-465.143	800.000	0.080	0.311
-464.128	-127.976	-0.181	-0.026
-463.113	-80.156	0.179	0.060
-462.099	118.445	0.139	0.170
-461.084	-153.852	-0.114	0.008
-460.070	190.617	0.190	0.283
-459.055	-21.610	0.246	-0.148
-458.040	-77.817	-0.012	0.004
-457.026	116.729	-0.113	0.137
-456.011	116.305	-0.015	0.018
-454.997	-47.712	0.032	0.015
-453.982	532.876	0.148	-0.347
-452.968	29.127	-0.135	-0.113
-451.953	-78.821	0.348	0.118
-450.938	-200.000	-0.001	0.186
-449.924	-200.000	-0.044	0.271
-448.909	419.042	-0.056	-0.118
-447.895	-200.000	0.012	0.078
-446.880	-200.000	-0.065	0.400
-445.865	64.322	-0.158	0.158
-444.851	30.857	-0.185	-0.157
-443.836	-43.598	0.075	0.037
-442.822	800.000	0.032	-0.103
-441.807	-97.391	-0.059	-0.015
-440.792	-64.068	0.189	0.076
-439.778	13.503	-0.433	-0.332
-438.763	4.988	0.149	-0.109
-437.749	-179.860	0.226	-0.005
-436.734	-38.956	0.402	0.210
-435.719	187.975	-0.165	-0.244
-434.705	124.985	-0.109	0.136
-433.690	-200.000	-0.012	0.251
-432.676	-200.000	0.034	-0.154
-431.661	-200.000	-0.016	-0.325
-430.646	255.742	0.061	-0.103
-429.632	-151.746	0.015	-0.001
-428.617	-200.000	-0.009	-0.116
-427.603	-200.000	-0.060	0.292
-426.588	27.855	-0.094	-0.078
-425.573	40.838	0.315	0.281
-424.559	800.000	0.045	-0.128
-423.544	-9.145	-0.088	-0.058
-422.530	73.305	-0.077	0.079
-421.515	20.230	-0.253	-0.202
-420.500	-200.000	-0.016	0.098
-419.486	-200.000	0.019	-0.087
-418.471	-200.000	-0.018	0.121
-417.457	-6.326	0.184	0.124
-416.442	-117.470	-0.045	-0.008
-415.428	-200.000	0.027	0.291
-414.413	-200.000	0.046	-0.216
-413.398	607.950	0.060	-0.148
-412.384	-200.000	0.060	-0.424
-411.369	-127.345	0.085	0.012
-410.355	-49.058	-0.261	-0.123
-409.340	392.749	0.031	0.063
-408.325	-47.377	0.107	0.052
-407.311	-117.993	0.173	0.031
-406.296	-72.749	-0.164	0.060
-405.282	800.000	0.143	-0.419
-404.267	-56.415	-0.099	-0.043
-403.252	5.054	0.087	0.063
-402.238	517.632	-0.088	0.204
-401.223	-43.918	0.141	0.070
-400.209	-200.000	0.021	0.325
-399.194	20.925	-0.222	0.178
-398.179	35.523	0.137	-0.119
-397.165	127.208	0.193	-0.241
-396.150	-200.000	0.035	0.261
-395.136	-77.119	0.115	-0.040
-394.121	800.000	-0.061	0.199
-393.106	-0.079	-0.192	0.135
-392.092	7.563	0.061	-0.045
-391.077	276.975	-0.060	0.106
-390.063	-108.587	0.094	-0.020
-389.048	156.013	0.223	0.303
-388.033	336.247	-0.038	0.073
-387.019	800.000	-0.093	-0.299
-386.004	-96.648	-0.274	-0.071
-384.990	-74.955	0.106	0.037
-383.975	-105.007	-0.090	0.020
-382.960	-200.000	0.019	-0.217
-381.946	49.905	0.185	0.172
-380.931	-200.000	0.002	-0.028
-379.917	-200.000	0.072	-0.428
-378.902	-200.000	-0.016	0.197
-377.888	182.282	-0.012	0.018
-376.873	-83.075	0.192	0.061
-375.858	-200.000	0.013	-0.182
-374.844	-200.000	-0.030	-0.189
-373.829	71.046	-0.088	-0.090
-372.815	-188.443	0.111	-0.001
-371.800	-88.073	-0.353	-0.104
-370.785	37.844	0.176	-0.154
-369.771	-200.000	0.015	-0.164
-368.756	-52.310	0.049	-0.023
-367.742	-84.314	-0.073	0.023
-366.727	-53.694	0.139	-0.063
-365.712	-19.619	0.149	0.091
-364.698	-200.000	-0.024	0.279
-363.683	85.060	0.112	-0.121
-362.669	800.000	-0.097	-0.273
-361.654	-59.675	-0.302	0.128
-360.639	-29.036	0.219	-0.124
-359.625	179.794	0.224	0.323
-358.610	-200.000	-0.055	-0.286
-357.596	-47.679	-0.190	0.091
-356.581	151.768	-0.252	0.339
-355.566	321.619	-0.015	0.028
-354.552	-37.785	-0.382	0.201
-353.537	-195.138	0.216	-0.002
-352.523	-200.000	0.055	-0.259
-351.508	-87.167	0.247	0.074
-350.493	800.000	-0.073	-0.205
-349.479	202.610	-0.145	0.221
-348.464	-69.881	-0.230	0.086
-347.450	-200.000	0.008	0.210
-346.435	-8.861	0.072	-0.047
-345.420	237.217	-0.106	-0.173
-344.406	-200.000	-0.009	0.148
-343.391	-44.577	0.161	0.079
-342.377	800.000	-0.017	-0.051
-341.362	93.683	0.077	0.085
-340.348	63.133	0.046	-0.045
-339.333	-105.267	0.071	-0.016
-338.318	225.888	0.030	0.047
-337.304	-200.000	-0.031	-0.336
-336.289	-99.628	0.133	0.033
-335.275	-200.000	-0.004	0.161
-334.260	-33.052	0.210	0.115
-333.245	-23.450	0.141	-0.084
-332.231	-68.274	-0.110	0.042
-331.216	-200.000	-0.015	0.108
-330.202	61.342	-0.041	-0.040
-329.187	800.000	-0.078	-0.321
-328.172	49.821	-0.291	0.270
-327.158	135.810	0.301	0.386
-326.143	-42.494	0.345	-0.173
-325.129	37.887	0.186	-0.163
-324.114	393.675	0.099	-0.203
-323.099	-200.000	-0.004	0.115
-322.085	800.000	-0.059	-0.196
-321.070	115.863	-0.180	0.218
-320.056	-200.000	-0.015	-0.301
-319.041	703.260	-0.018	-0.046
-318.026	82.357	0.122	0.131
-317.012	-132.745	0.142	0.018
-315.997	-200.000	0.033	0.240
-314.983	-137.709	-0.174	0.019
-313.968	-135.203	0.197	-0.023
-312.953	-84.798	0.082	-0.025
-311.939	248.814	0.164	-0.274
-310.924	191.850	0.136	-0.202
-309.910	-200.000	0.011	0.327
-308.895	-200.000	-0.034	0.537
-307.880	-101.391	0.242	0.058
-306.866	800.000	-0.018	0.061
-305.851	126.865	-0.167	0.209
-304.837	-33.676	0.056	-0.031
-303.822	-147.876	-0.235	-0.019
-302.807	5.654	0.086	-0.063
-301.793	-200.000	-0.041	0.193
-300.778	23.125	-0.080	-0.065
-299.764	46.944	-0.301	0.276
-298.749	81.391	0.026	0.028
-297.735	-134.083	0.320	-0.039
-296.720	800.000	-0.068	0.192
-295.705	-116.464	-0.205	0.037
-294.691	59.270	0.172	0.167
-293.676	-96.325	-0.137	-0.036
-292.662	-4.780	-0.331	-0.224
-291.647	-136.743	-0.428	-0.049
-290.632	800.000	-0.069	0.210
-289.618	-5.659	0.017	-0.012
-288.603	-200.000	-0.043	-0.333
-287.589	299.312	-0.057	-0.104
-286.574	286.431	-0.176	0.312
-285.559	-51.323	0.158	0.073
-284.545	-58.313	0.122	-0.052
-283.530	476.611	-0.127	0.281
-282.516	418.742	-0.044	0.092
-281.501	163.004	-0.118	-0.163
-280.486	80.982	0.215	-0.228
-279.472	-50.344	-0.241	0.112
-278.457	-111.213	-0.234	0.047
-277.443	51.927	-0.284	-0.266
-276.428	349.327	0.050	0.096
-275.413	-167.252	0.193	0.008
-274.399	-11.177	-0.072	-0.047
-273.384	-100.114	-0.217	0.053
-272.370	32.969	-0.170	-0.145
-271.355	-200.000	-0.010	-0.063
-270.340	-200.000	0.022	-0.261
-269.326	800.000	0.112	-0.305
-268.311	347.432	0.213	0.413
-267.297	-84.063	-0.289	-0.090
-266.282	-77.260	0.124	-0.042
-265.267	1.655	-0.066	-0.047
-264.253	162.540	-0.079	-0.109
-263.238	-103.834	-0.336	-0.077
-262.224	-36.324	0.182	0.097
-261.209	51.724	-0.053	0.050
-260.195	-101.139	-0.361	0.087
-259.180	-145.279	0.139	-0.012
-258.165	29.136	-0.366	0.306
-257.151	-123.311	0.300	0.047
-256.136	-200.000	-0.007	0.051
-255.122	87.570	-0.033	0.036
-254.107	8.588	-0.058	-0.043
-253.092	-200.000	0.017	-0.216
-252.078	239.098	-0.034	-0.055
-251.063	18.000	0.173	-0.135
-250.049	-93.051	0.198	0.054
-249.034	800.000	-0.044	0.159
-248.019	-200.000	0.004	-0.434
-247.005	-74.507	0.105	0.037
-245.990	577.401	0.142	0.340
-244.976	-170.724	0.262	0.009
-243.961	-128.521	-0.095	-0.013
-242.946	287.329	0.178	-0.317
-241.932	201.659	-0.193	0.293
-240.917	-27.644	-0.296	-0.169
-239.903	-83.653	0.046	0.015
-238.888	30.679	-0.157	0.132
-237.873	72.192	0.107	0.110
-236.859	-159.489	-0.221	-0.012
-235.844	-200.000	-0.026	0.212
-234.830	800.000	0.101	0.285
-233.815	-200.000	0.047	0.289
-232.800	-200.000	0.052	0.268
-231.786	800.000	-0.111	0.361
-230.771	800.000	-0.055	0.187
-229.757	717.378	-0.075	-0.194
-228.742	-74.630	-0.271	-0.096
-227.727	800.000	-0.022	-0.079
-226.713	5.610	0.226	0.164
-225.698	800.000	0.067	-0.247
-224.684	800.000	0.061	0.167
-223.669	-200.000	-0.015	0.237
-222.655	-59.334	0.266	0.112
-221.640	-74.693	-0.135	0.048
-220.625	-164.759	-0.180	0.008
-219.611	787.302	0.043	0.116
-218.596	-200.000	0.014	0.128
-217.582	-164.705	-0.144	-0.006
-216.567	297.019	-0.101	-0.182
-215.552	-57.399	0.057	-0.025
-214.538	92.530	0.119	0.132
-213.523	-161.658	0.039	0.002
-212.509	-141.685	-0.194	0.019
-211.494	-101.448	0.208	-0.050
-210.479	-71.530	-0.099	0.036
-209.465	800.000	0.062	-0.182
-208.450	43.251	0.267	-0.239
-207.436	653.592	0.048	0.120
-206.421	154.849	0.137	-0.185
-205.406	-27.239	0.282	-0.161
-204.392	149.594	-0.079	0.105
-203.377	-130.645	0.149	-0.020
-202.363	12.995	-0.264	0.200
-201.348	270.759	-0.163	0.281
-200.333	-83.263	-0.195	0.062
-199.319	7.051	-0.088	-0.065
-198.304	-200.000	0.060	0.343
-197.290	-37.060	0.088	-0.046
-196.275	122.273	-0.101	-0.123
-195.260	-200.000	-0.027	0.245
-194.246	-17.971	0.058	-0.036
-193.231	92.282	-0.221	0.244
-192.217	-78.541	0.263	0.088
-191.202	36.108	-0.197	-0.170
-190.187	-7.927	-0.236	0.156
-189.173	800.000	-0.065	-0.187
-188.158	-200.000	-0.004	0.058
-187.144	53.332	-0.079	-0.074
-186.129	-200.000	0.000	-0.028
-185.114	87.471	0.323	-0.350
-184.100	-72.534	0.135	-0.049
-183.085	-20.192	-0.214	0.129
-182.071	800.000	0.070	0.285
-181.056	-200.000	0.018	0.336
-180.042	-200.000	-0.009	0.123
-179.027	-116.860	0.079	0.014
-178.012	-16.526	-0.137	0.085
-176.998	85.151	0.006	-0.007
-175.983	-120.066	-0.265	-0.045
-174.969	-126.524	0.225	-0.033
-173.954	-119.200	-0.202	-0.034
-172.939	54.605	-0.289	-0.273
-171.925	61.594	0.244	-0.238
-170.910	49.067	-0.206	-0.190
-169.896	-141.301	0.302	0.030
-168.881	386.298	0.022	-0.044
-167.866	197.063	0.146	-0.219
-166.852	24.169	-0.165	-0.134
-165.837	-200.000	-0.039	0.291
-164.823	-200.000	-0.006	0.076
-163.808	-131.244	0.298	0.039
-162.793	219.394	0.104	0.162
-161.779	-200.000	0.032	0.255
-160.764	111.375	0.221	-0.260
-159.750	-180.163	0.174	-0.004
-158.735	-116.179	0.027	-0.005
-157.720	97.142	0.200	-0.225
-156.706	-24.902	0.313	-0.182
-155.691	69.418	0.024	-0.024
-154.677	363.229	0.127	-0.250
-153.662	-9.508	0.142	-0.093
-152.647	-134.598	0.160	0.019
-151.633	800.000	0.032	-0.109
-150.618	-200.000	0.010	-0.259
-149.604	-141.020	0.164	0.016
-148.589	36.398	0.176	0.152
-147.574	-168.296	-0.050	0.002
-146.560	-154.454	0.158	-0.010
-145.545	-200.000	0.042	0.280
-144.531	-200.000	-0.003	0.141
-143.516	191.148	0.210	-0.310
-142.502	-68.429	0.487	-0.185
-141.487	800.000	-0.171	0.468
-140.472	-18.847	0.137	-0.084
-139.458	-13.519	0.210	-0.133
-138.443	-44.822	-0.178	-0.087
-137.429	-91.933	0.357	-0.099
-136.414	-101.998	0.191	0.045
-135.399	34.082	-0.029	-0.025
-134.385	364.243	0.034	0.067
-133.370	-27.012	0.095	0.054
-132.356	-10.029	0.375	0.243
-131.341	-200.000	0.016	-0.299
-130.326	625.438	-0.045	-0.110
-129.312	-111.593	0.077	-0.015
-128.297	47.264	0.106	0.096
-127.283	-98.909	0.160	0.040
-126.268	245.120	-0.079	-0.129
-125.253	89.383	0.130	0.141
-124.239	-200.000	0.089	0.499
-123.224	652.450	-0.097	0.244
-122.210	-119.646	-0.156	0.026
-121.195	41.965	0.107	0.095
-120.180	-200.000	0.041	0.207
-119.166	-26.285	-0.262	-0.150
-118.151	-29.447	-0.177	-0.099
-117.137	-200.000	-0.054	0.253
-116.122	-200.000	-0.074	-0.366
-115.107	459.954	-0.056	-0.122
-114.093	-200.000	0.000	-0.082
-113.078	-200.000	-0.001	-0.004
-112.064	-9.471	0.166	-0.108
-111.049	-68.624	0.268	0.101
-110.034	-200.000	-0.006	0.066
-109.020	590.717	-0.090	0.216
-108.005	-141.664	0.262	-0.026
-106.991	-150.563	0.119	0.009
-105.976	758.922	0.052	0.138
-104.962	-91.100	-0.541	0.152
-103.947	660.248	-0.070	0.176
-102.932	469.842	0.080	0.177
-101.918	800.000	0.011	-0.032
-100.903	690.061	0.061	-0.155
-99.889	25.895	0.184	0.150
-98.874	800.000	-0.025	-0.079
-97.859	-200.000	0.017	0.312
-96.845	122.674	0.258	0.316
-95.830	-39.532	-0.303	0.155
-94.816	594.022	-0.050	0.122
-93.801	-95.263	-0.076	0.020
-92.786	14.044	0.080	-0.061
-91.772	-111.807	-0.247	-0.049
-90.757	530.513	0.105	0.241
-89.743	-88.530	-0.174	0.051
-88.728	-138.649	-0.057	0.006
-87.713	-28.903	0.117	-0.066
-86.699	-16.827	-0.398	0.246
-85.684	-200.000	0.084	-0.384
-84.670	31.954	0.109	0.092
-83.655	800.000	-0.062	0.169
-82.640	453.162	0.043	-0.093
-81.626	-39.641	0.221	-0.113
-80.611	-36.764	-0.226	0.119
-79.597	800.000	-0.070	0.210
-78.582	34.663	0.163	0.139
-77.567	-200.000	0.027	0.154
-76.553	503.029	-0.071	-0.161
-75.538	40.722	0.183	-0.161
-74.524	-27.532	0.267	0.152
-73.509	-200.000	0.006	0.034
-72.494	-80.053	0.351	-0.115
-71.480	33.450	0.124	-0.105
-70.465	57.131	-0.172	0.164
-69.451	-134.070	-0.275	-0.033
-68.436	800.000	-0.122	-0.358
-67.422	22.555	-0.110	0.088
-66.407	800.000	-0.070	0.212
-65.392	86.452	-0.120	-0.129
-64.378	18.651	-0.065	0.051
-63.363	573.898	-0.121	0.288
-62.349	-127.454	-0.137	-0.019
-61.334	400.520	-0.544	-1.112
-60.319	9.115	0.815	0.601
-59.305	446.148	-0.538	-1.152
-58.290	482.683	0.659	1.461
-57.276	209.069	0.879	1.341
-56.261	-200.000	122.048	623.265
-55.246	384.982	1579.277	3174.277
-54.232	138.569	2760.546	3533.349
-53.217	88.975	2327.642	2525.831
-52.203	33.287	1929.167	1631.898
-51.188	27.409	1720.759	1410.170
-50.173	25.098	1680.342	1359.489
-49.159	44.968	1746.110	1567.348
-48.144	43.494	1758.703	1567.170
-47.130	26.972	1710.195	1397.924
-46.115	24.480	1695.276	1366.624
-45.100	24.386	1690.172	1361.739
-44.086	24.248	1687.537	1358.509
-43.071	24.163	1685.528	1356.194
-42.057	24.188	1682.406	1353.822
-41.042	24.291	1680.284	1352.837
-40.027	24.239	1678.955	1351.322
-39.013	24.235	1677.004	1349.667
-37.998	24.213	1675.124	1347.937
-36.984	24.229	1674.072	1347.157
-35.969	24.371	1672.173	1346.643
-34.954	24.444	1670.451	1345.759
-33.940	24.453	1669.008	1344.606
-32.925	24.405	1667.684	1343.124
-31.911	24.409	1665.992	1341.740
-30.896	24.361	1664.209	1339.888
-29.881	24.415	1662.696	1339.023
-28.867	24.452	1660.871	1337.782
-27.852	24.379	1659.627	1336.174
-26.838	24.304	1658.727	1334.841
-25.823	24.452	1656.704	1334.265
-24.809	24.461	1655.453	1333.269
-23.794	24.456	1653.859	1331.897
-22.779	24.457	1652.517	1330.768
-21.765	24.419	1651.348	1329.494
-20.750	24.295	1649.974	1327.408
-19.736	24.507	1647.776	1327.163
-18.721	24.418	1646.972	1325.808
-17.706	24.455	1644.673	1324.178
-16.692	24.434	1643.541	1323.057
-15.677	24.479	1641.868	1321.990
-14.663	24.452	1641.125	1321.137
-13.648	24.378	1639.879	1319.540
-12.633	24.457	1637.506	1318.162
-11.619	24.421	1635.861	1316.513
-10.604	24.411	1634.972	1315.678
-9.590	24.590	1632.959	1315.324
-8.575	24.430	1632.214	1313.489
-7.560	24.493	1631.025	1312.945
-6.546	24.421	1630.089	1311.614
-5.531	24.492	1628.782	1311.027
-4.517	24.451	1627.741	1309.841
-3.502	24.404	1626.900	1308.760
-2.487	24.530	1624.677	1307.845
-1.473	24.215	1612.961	1296.073
-0.458	21.627	1593.571	1261.816
0.556	16.953	1596.384	1230.967
1.571	14.755	1620.181	1232.994
2.586	14.402	1632.335	1239.512
3.600	13.362	1577.689	1190.427
4.615	7.660	1468.709	1069.809
5.629	1.896	1408.774	988.760
6.644	0.729	1401.393	975.959
7.659	0.716	1400.268	975.006
8.673	0.696	1399.542	974.285
9.688	0.700	1397.230	972.614
10.702	0.511	1393.737	968.883
11.717	3.407	1397.897	990.316
12.731	10.327	1407.231	1041.473
13.746	15.553	1415.191	1080.987
14.761	17.091	1417.524	1092.583
15.775	16.605	1415.564	1087.850
16.790	15.648	1412.733	1079.434
17.804	14.898	1410.356	1072.716
18.819	14.510	1409.550	1069.514
19.834	14.288	1407.724	1066.616
20.848	13.961	1407.017	1063.893
21.863	13.778	1404.992	1061.096
22.877	13.508	1404.229	1058.701
23.892	13.524	1402.888	1057.698
24.907	13.516	1402.246	1057.071
25.921	13.440	1401.644	1056.037
26.936	13.566	1400.236	1055.682
27.950	13.596	1399.186	1054.992
28.965	13.697	1398.201	1054.799
29.980	13.747	1397.328	1054.362
30.994	13.679	1396.601	1053.292
32.009	13.777	1395.542	1053.021
33.023	13.731	1394.201	1051.620
34.038	13.663	1393.198	1050.346
35.053	13.686	1391.882	1049.405
36.067	13.638	1391.148	1048.456
37.082	13.710	1389.727	1047.746
38.096	13.757	1388.517	1047.039
39.111	13.777	1387.771	1046.507
40.126	13.697	1387.140	1045.433
41.140	13.657	1386.290	1044.452
42.155	13.469	1386.031	1042.978
43.169	13.520	1385.941	1043.139
44.184	13.560	1385.432	1042.912
45.199	13.569	1385.116	1042.643
46.213	13.608	1383.957	1041.923
47.228	13.569	1383.634	1041.342
48.242	13.672	1381.750	1040.481
49.257	13.571	1380.435	1038.760
50.271	13.656	1378.958	1038.089
51.286	13.630	1377.861	1037.010
52.301	13.610	1376.355	1035.660
53.315	13.700	1375.761	1035.682
54.330	13.557	1374.275	1033.580
55.344	13.564	1373.208	1032.734
56.359	13.560	1372.467	1032.056
57.374	13.557	1371.534	1031.245
58.388	13.549	1370.884	1030.618
59.403	13.497	1370.002	1029.536
60.417	13.475	1369.334	1028.809
61.432	13.559	1368.415	1028.548
62.447	13.418	1367.433	1026.848
63.461	13.423	1366.717	1026.245
64.476	13.502	1365.019	1025.372
65.490	13.396	1363.879	1023.770
66.505	13.467	1361.965	1022.678
67.520	13.500	1361.139	1022.172
68.534	13.454	1359.731	1020.745
69.549	13.528	1358.712	1020.340
70.563	13.581	1357.108	1019.371
71.578	13.560	1356.083	1018.386
72.593	13.561	1355.429	1017.807
73.607	13.470	1354.525	1016.482
74.622	13.394	1353.662	1015.275
75.636	13.413	1353.572	1015.234
76.651	13.462	1352.557	1014.688
77.666	13.381	1351.797	1013.531
78.680	13.466	1351.336	1013.616
79.695	13.451	1350.324	1012.672
80.709	13.397	1349.399	1011.563
81.724	13.504	1348.833	1011.700
82.739	13.412	1348.205	1010.580
83.753	13.548	1347.079	1010.476
84.768	13.498	1345.992	1009.263
85.782	13.626	1344.978	1009.195
86.797	13.620	1343.511	1007.966
87.812	13.516	1341.990	1006.107
88.826	13.514	1341.015	1005.275
89.841	13.609	1339.729	1004.798
90.855	13.614	1338.522	1003.831
91.870	13.645	1338.043	1003.575
92.884	13.673	1336.799	1002.721
93.899	13.745	1335.872	1002.371
94.914	13.697	1335.446	1001.676
95.928	13.686	1334.652	1000.920
96.943	13.694	1333.697	1000.167
97.957	13.663	1332.423	998.933
98.972	13.692	1331.233	998.132
99.987	13.661	1330.227	997.099
101.001	13.663	1329.303	996.331
102.016	13.736	1327.912	995.641
103.030	13.763	1327.337	995.282
104.045	13.607	1326.693	993.775
105.060	13.642	1324.993	992.627
106.074	13.540	1323.930	991.130
107.089	13.577	1322.629	990.291
108.103	13.547	1321.645	989.283
109.118	13.586	1319.894	988.117
110.133	13.497	1318.754	986.647
111.147	13.576	1317.412	986.030
112.162	13.546	1316.114	984.789
113.176	13.638	1315.205	984.572
114.191	13.648	1314.042	983.671
115.206	13.591	1313.169	982.595
116.220	13.652	1311.599	981.694
117.235	13.573	1310.611	980.399
118.249	13.648	1309.295	979.773
119.264	13.683	1308.047	978.958
120.279	13.658	1307.272	978.142
121.293	13.561	1306.422	976.849
122.308	13.499	1305.973	976.058
123.322	13.557	1304.317	975.076
124.337	13.510	1303.571	974.161
125.352	13.562	1302.136	973.304
126.366	13.651	1300.779	972.730
127.381	13.552	1299.845	971.363
128.395	13.665	1298.514	970.946
129.410	13.544	1298.019	969.780
130.424	13.658	1296.851	969.487
131.439	13.598	1295.893	968.336
132.454	13.558	1295.293	967.568
133.468	13.605	1294.419	967.100
134.483	13.660	1293.188	966.417
135.497	13.677	1292.148	965.654
136.512	13.686	1290.531	964.411
137.527	13.691	1289.172	963.342
138.541	13.626	1287.961	961.973
139.556	13.693	1286.490	961.179
140.570	13.746	1285.381	960.571
141.585	13.765	1284.404	959.866
142.600	13.736	1283.705	959.089
143.614	13.717	1282.308	957.853
144.629	13.725	1281.281	957.050
145.643	13.804	1279.914	956.399
146.658	13.825	1278.373	955.279
147.673	13.735	1277.526	954.047
148.687	13.758	1276.448	953.289
149.702	13.716	1274.914	951.818
150.716	13.725	1273.634	950.832
151.731	13.716	1272.636	949.951
152.746	13.710	1271.535	949.012
153.760	13.775	1269.769	947.982
154.775	13.819	1268.748	947.383
155.789	13.829	1267.592	946.493
156.804	13.751	1266.922	945.467
157.819	13.978	1265.383	945.526
158.833	13.884	1264.970	944.597
159.848	13.894	1263.809	943.704
160.862	13.972	1262.660	943.205
161.877	13.798	1261.406	941.200
162.892	13.677	1260.739	939.930
163.906	13.811	1259.580	939.746
164.921	13.764	1258.685	938.725
165.935	13.902	1257.747	938.726
166.950	13.887	1256.993	937.992
167.964	13.992	1255.931	937.711
168.979	13.978	1255.006	936.858
169.994	13.951	1254.246	936.058
171.008	13.924	1253.661	935.384
172.023	13.965	1252.938	934.993
173.037	14.050	1252.102	934.764
174.052	14.010	1251.039	933.664
175.067	14.060	1249.662	932.831
176.081	13.952	1249.044	931.681
177.096	14.004	1248.289	931.328
178.110	14.075	1246.585	930.375
179.125	14.062	1245.779	929.619
180.140	14.033	1244.321	928.285
181.154	14.065	1243.303	927.623
182.169	14.113	1241.999	926.834
183.183	14.089	1241.023	925.892
184.198	14.175	1240.120	925.612
185.213	14.068	1238.762	923.921
186.227	14.146	1237.655	923.450
187.242	14.248	1236.421	923.013
188.256	14.193	1235.874	922.218
189.271	14.141	1234.823	921.061
190.286	14.066	1233.829	919.826
191.300	14.123	1232.475	919.051
192.315	14.004	1231.841	917.836
193.329	13.968	1231.642	917.412
194.344	14.093	1231.076	917.596
195.359	14.202	1230.241	917.494
196.373	14.225	1229.416	916.923
197.388	14.252	1229.569	917.107
198.402	14.369	1228.426	916.817
199.417	14.324	1228.084	916.232
200.432	14.414	1226.776	915.673
201.446	14.363	1226.097	914.806
202.461	14.458	1224.700	914.199
203.475	14.405	1224.018	913.318
204.490	14.458	1223.036	912.798
205.504	14.253	1222.243	911.002
206.519	14.442	1220.727	910.827
207.534	14.381	1219.516	909.510
208.548	14.409	1218.523	908.838
209.563	14.354	1217.822	907.938
210.577	14.456	1216.915	907.737
211.592	14.569	1215.916	907.524
212.607	14.572	1214.946	906.736
213.621	14.547	1214.131	905.910
214.636	14.497	1212.782	904.555
215.650	14.488	1212.484	904.203
216.665	14.561	1211.307	903.643
217.680	14.731	1210.016	903.520
218.694	14.640	1209.470	902.540
219.709	14.648	1208.962	902.120
220.723	14.726	1207.681	901.510
221.738	14.658	1207.021	900.566
222.753	14.642	1206.348	899.902
223.767	14.693	1205.514	899.476
224.782	14.608	1205.217	898.713
225.796	14.785	1204.331	898.927
226.811	14.778	1203.665	898.313
227.826	14.788	1202.988	897.781
228.840	14.858	1201.940	897.294
229.855	14.740	1201.204	896.033
230.869	14.827	1200.519	895.911
231.884	14.843	1199.498	895.154
232.899	14.780	1198.524	894.010
233.913	14.758	1198.277	893.632
234.928	14.712	1197.796	892.947
235.942	14.689	1197.036	892.177
236.957	14.614	1196.479	891.283
237.972	14.779	1195.096	891.055
238.986	14.753	1194.243	890.200
240.001	14.883	1193.415	890.196
241.015	14.887	1192.255	889.275
242.030	14.844	1191.955	888.745
243.045	14.887	1191.128	888.275
244.059	14.979	1190.108	887.923
245.074	14.934	1189.420	887.093
246.088	14.934	1188.437	886.283
247.103	14.939	1187.991	885.898
248.117	14.941	1186.818	884.954
249.132	15.174	1186.050	885.538
250.147	15.048	1185.723	884.548
251.161	15.138	1184.723	884.197
252.176	15.214	1184.002	883.983
253.190	15.120	1183.441	882.993
254.205	15.190	1183.242	883.133
255.220	15.234	1182.199	882.508
256.234	15.242	1181.512	881.958
257.249	15.282	1180.718	881.499
258.263	15.249	1180.174	880.841
259.278	15.270	1179.342	880.251
260.293	15.359	1178.480	879.999
261.307	15.414	1178.397	880.150
262.322	15.235	1178.113	878.922
263.336	15.335	1176.948	878.494
264.351	15.386	1176.338	878.230
265.366	15.398	1175.654	877.707
266.380	15.445	1174.920	877.324
267.395	15.398	1174.101	876.389
268.409	15.446	1172.732	875.542
269.424	15.332	1172.466	874.669
270.439	15.372	1172.404	874.754
271.453	15.332	1171.466	873.770
272.468	15.438	1170.506	873.530
273.482	15.277	1169.971	872.213
274.497	15.400	1169.560	872.472
275.512	15.440	1168.539	871.840
276.526	15.448	1167.441	870.983
277.541	15.386	1167.202	870.405
278.555	15.396	1166.621	869.950
279.570	15.600	1165.345	869.977
280.585	15.591	1164.645	869.328
281.599	15.611	1163.646	868.609
282.614	15.656	1162.944	868.244
283.628	15.540	1161.968	866.836
284.643	15.606	1160.770	866.208
285.657	15.571	1160.079	865.434
286.672	15.645	1158.834	864.810
287.687	15.630	1158.064	864.084
288.701	15.686	1157.192	863.641
289.716	15.648	1156.533	862.880
290.730	15.743	1155.789	862.734
291.745	15.666	1155.289	861.892
292.760	15.767	1154.162	861.491
293.774	15.646	1153.974	860.655
294.789	15.787	1153.272	860.779
295.803	15.919	1152.593	860.867
296.818	15.802	1151.749	859.563
297.833	15.795	1150.734	858.693
298.847	15.962	1149.848	858.812
299.862	15.911	1149.439	858.169
300.876	15.901	1148.633	857.440
301.891	15.828	1148.172	856.648
302.906	16.001	1147.229	856.748
303.920	15.916	1146.793	855.914
304.935	15.975	1146.085	855.612
305.949	16.014	1145.596	855.370
306.964	15.990	1144.832	854.600
307.979	16.088	1143.827	854.270
308.993	16.076	1143.165	853.640
310.008	16.049	1142.301	852.782
311.022	16.101	1141.350	852.261
312.037	16.151	1140.317	851.664
313.052	16.055	1139.388	850.415
314.066	16.053	1138.697	849.814
315.081	15.975	1138.116	848.912
316.095	16.039	1137.114	848.409
317.110	16.056	1136.358	847.855
318.125	16.068	1135.475	847.183
319.139	16.036	1135.212	846.751
320.154	16.129	1134.444	846.572
321.168	16.042	1133.929	845.672
322.183	16.117	1133.399	845.579
323.197	16.134	1132.781	845.130
324.212	16.253	1131.994	845.063
325.227	16.144	1131.297	843.920
326.241	16.171	1130.637	843.491
327.256	16.248	1129.620	843.040
328.270	16.064	1129.140	841.690
329.285	16.216	1128.074	841.578
330.300	16.190	1126.875	840.479
331.314	16.172	1126.297	839.884
332.329	16.223	1125.307	839.329
333.343	16.200	1124.067	838.212
334.358	16.201	1123.541	837.751
335.373	16.242	1122.878	837.389
336.387	16.349	1121.928	837.134
337.402	16.390	1120.979	836.556
338.416	16.313	1120.641	835.847
339.431	16.355	1120.053	835.544
340.446	16.379	1119.290	835.017
341.460	16.460	1118.656	834.872
342.475	16.554	1117.642	834.506
343.489	16.587	1116.883	834.026
344.504	16.606	1115.557	833.055
345.519	16.556	1115.118	832.409
346.533	16.731	1114.283	832.571
347.548	16.671	1113.383	831.530
348.562	16.588	1113.198	830.913
349.577	16.538	1111.897	829.623
350.592	16.542	1111.175	829.030
351.606	16.597	1110.669	828.849
352.621	16.581	1109.853	828.086
353.635	16.636	1109.209	827.802
354.650	16.629	1108.178	826.928
355.665	16.516	1107.697	825.943
356.679	16.621	1107.267	826.060
357.694	16.608	1106.473	825.332
358.708	16.686	1105.817	825.149
359.723	16.833	1104.934	825.134
360.738	16.753	1104.559	824.391
361.752	16.587	1104.533	823.493
362.767	16.711	1103.622	823.343
363.781	16.811	1102.818	823.158
364.796	16.892	1102.114	822.950
365.810	16.834	1101.629	822.237
366.825	16.919	1100.604	821.808
367.840	16.969	1100.162	821.650
368.854	17.104	1099.877	822.016
369.869	16.976	1099.195	820.817
370.883	16.880	1098.167	819.511
371.898	16.894	1097.323	818.876
372.913	16.933	1096.784	818.588
373.927	16.944	1096.263	818.181
374.942	16.964	1095.945	817.967
375.956	16.909	1095.601	817.373
376.971	16.875	1095.109	816.768
377.986	17.010	1094.169	816.648
379.000	17.098	1093.362	816.394
380.015	17.083	1092.906	815.910
381.029	17.249	1092.186	816.098
382.044	17.217	1091.289	815.201
383.059	17.148	1090.944	814.541
384.073	17.224	1090.118	814.217
385.088	17.228	1088.932	813.278
386.102	17.198	1087.876	812.275
387.117	17.206	1086.870	811.488
388.132	17.106	1086.420	810.604
389.146	17.192	1085.353	810.147
390.161	17.193	1084.584	809.504
391.175	17.266	1084.331	809.594
392.190	17.372	1083.292	809.250
393.205	17.335	1082.317	808.276
394.219	17.250	1081.937	807.516
395.234	17.392	1080.556	807.087
396.248	17.375	1079.443	806.104
397.263	17.275	1078.449	804.814
398.278	17.290	1078.108	804.559
399.292	17.313	1077.518	804.159
400.307	17.346	1077.167	803.979
401.321	17.319	1076.412	803.219
402.336	17.321	1075.593	802.544
403.350	17.262	1075.080	801.813
404.365	17.272	1074.303	801.209
405.380	17.315	1073.323	800.610
406.394	17.496	1072.677	800.908
407.409	17.480	1072.082	800.319
408.423	17.508	1071.424	799.891
409.438	17.549	1070.496	799.316
410.453	17.525	1069.590	798.457
411.467	17.671	1069.038	798.659
412.482	17.544	1068.071	797.273
413.496	17.552	1067.547	796.847
414.511	17.565	1067.330	796.678
415.526	17.566	1066.767	796.190
416.540	17.846	1065.946	796.815
417.555	17.741	1065.622	796.014
418.569	17.755	1064.812	795.403
419.584	17.634	1064.519	794.546
420.599	17.685	1063.828	794.201
421.613	107.659	1330.270	1486.048
422.628	99.487	1369.045	1486.148
