DTS Sentinel unit serial number:	SN413079Multiplexer serial number:	ORYXHardware model number:	OX4-SRSoftware version number:	ORYX F/W v4.00 Oryx Data Collector v3.7.2.0data status	okinstallation	princeton_trtdifferential loss correction	single-endedforward channel	channel 2reverse channel	N/Adate	2019/09/18time	13:15:35forward acquisition time	60.00reverse acquisition time	0.00gamma	496.2192k internal	0.2319k external	0.2319temperature offset calibration	0.9992default loss term (dB/km)	0.3790temperature slope calibration	1.0000multiplexer offset coefficient	1.0000multiplexer slope coefficient	1.0000fibre end	0.00T internal ref (°C)	34.00T ext. ref 1 (°C)	0.59T ext. ref 2 (°C)	30.64length (m)	temperature (°C)	Stokes	anti-Stokes-747.200	-187.913	0.153	-0.002
-746.185	-200.000	0.012	0.236
-745.171	28.696	-0.096	0.082
-744.156	246.204	-0.148	0.252
-743.142	38.977	0.137	0.124
-742.127	314.953	0.090	0.172
-741.112	13.222	0.127	-0.100
-740.098	618.184	-0.108	0.275
-739.083	227.014	0.095	0.156
-738.069	-200.000	-0.023	0.412
-737.054	-200.000	-0.018	-0.221
-736.039	795.798	0.054	0.150
-735.025	-200.000	0.017	0.135
-734.010	135.337	-0.060	-0.078
-732.996	-128.622	-0.133	-0.019
-731.981	-200.000	-0.037	-0.196
-730.966	541.642	0.063	-0.151
-729.952	-200.000	0.014	-0.114
-728.937	20.370	-0.247	0.202
-727.923	245.997	0.102	0.174
-726.908	536.647	0.144	-0.345
-725.894	-52.089	-0.205	-0.096
-724.879	-115.225	0.092	0.018
-723.864	-171.233	-0.157	0.005
-722.850	159.211	-0.152	-0.214
-721.835	277.957	0.152	-0.274
-720.821	-77.434	-0.266	0.093
-719.806	380.238	-0.080	-0.166
-718.791	-23.783	-0.150	0.091
-717.777	800.000	0.060	0.174
-716.762	-113.062	0.144	-0.029
-715.748	259.872	0.300	-0.523
-714.733	-200.000	0.002	0.388
-713.718	800.000	0.040	-0.145
-712.704	-101.095	-0.168	0.042
-711.689	-53.990	-0.126	0.058
-710.675	-142.370	-0.211	0.021
-709.660	609.362	-0.196	-0.494
-708.645	-1.630	0.149	-0.106
-707.631	257.073	-0.053	-0.092
-706.616	235.254	0.106	-0.177
-705.602	-80.763	0.010	0.003
-704.587	174.783	0.146	-0.213
-703.572	119.229	0.206	-0.258
-702.558	-200.000	-0.029	-0.237
-701.543	7.235	-0.350	0.264
-700.529	800.000	-0.156	-0.519
-699.514	-67.660	0.199	-0.079
-698.499	99.410	0.200	-0.234
-697.485	-80.219	-0.570	0.193
-696.470	187.122	-0.164	0.247
-695.456	449.671	0.120	0.267
-694.441	800.000	0.061	0.207
-693.426	-90.146	-0.230	-0.068
-692.412	15.365	-0.140	0.111
-691.397	16.756	-0.290	-0.231
-690.383	-28.910	-0.109	0.063
-689.368	199.252	0.166	-0.257
-688.354	-200.000	0.060	0.000
-687.339	-178.653	-0.058	0.001
-686.324	249.140	-0.234	-0.401
-685.310	456.475	-0.072	-0.161
-684.295	4.775	-0.066	-0.049
-683.281	660.191	0.048	-0.124
-682.266	81.714	0.252	-0.275
-681.251	800.000	-0.043	-0.119
-680.237	-200.000	-0.002	-0.195
-679.222	-30.008	0.438	-0.252
-678.208	-155.786	-0.232	-0.015
-677.193	540.597	-0.061	0.146
-676.178	471.118	-0.083	0.188
-675.164	65.105	-0.148	0.151
-674.149	-200.000	0.028	-0.141
-673.135	800.000	-0.082	-0.260
-672.120	-112.867	-0.077	-0.015
-671.105	800.000	0.082	-0.246
-670.091	800.000	0.126	0.467
-669.076	-18.258	0.173	0.109
-668.062	-200.000	0.008	-0.249
-667.047	48.491	0.098	0.093
-666.032	-200.000	-0.006	0.305
-665.018	66.091	-0.205	0.210
-664.003	-39.293	0.234	0.124
-662.989	128.708	0.027	0.034
-661.974	182.468	-0.034	0.051
-660.959	-19.512	0.108	-0.068
-659.945	800.000	-0.022	0.073
-658.930	-53.102	0.278	-0.129
-657.916	-200.000	0.026	0.142
-656.901	800.000	0.080	0.274
-655.886	-148.713	0.164	0.013
-654.872	126.297	0.132	-0.169
-653.857	-200.000	-0.028	0.240
-652.843	481.897	-0.138	0.316
-651.828	282.192	-0.225	-0.407
-650.814	499.731	0.077	-0.179
-649.799	-42.344	0.097	0.050
-648.784	-39.657	0.113	0.059
-647.770	-38.237	0.113	-0.061
-646.755	-200.000	0.032	-0.498
-645.741	82.292	-0.249	-0.273
-644.726	-171.003	-0.190	0.007
-643.711	183.294	-0.217	-0.323
-642.697	-28.546	-0.071	-0.041
-641.682	800.000	-0.057	-0.213
-640.668	-136.037	0.275	-0.033
-639.653	324.481	-0.152	-0.293
-638.638	491.515	0.101	0.232
-637.624	-71.254	-0.284	0.107
-636.609	160.530	0.110	0.155
-635.595	372.757	0.108	0.221
-634.580	593.785	-0.020	0.050
-633.565	29.747	0.191	-0.164
-632.551	15.550	-0.214	0.170
-631.536	-200.000	-0.098	-0.471
-630.522	12.035	-0.150	0.116
-629.507	-200.000	0.025	-0.113
-628.492	17.002	0.233	0.186
-627.478	-23.151	0.256	0.155
-626.463	-75.539	-0.142	0.051
-625.449	-124.940	0.187	0.029
-624.434	800.000	-0.124	-0.395
-623.419	17.962	0.193	0.155
-622.405	-18.464	0.087	0.055
-621.390	800.000	-0.034	-0.107
-620.376	800.000	0.037	0.116
-619.361	-200.000	0.016	-0.157
-618.346	69.115	-0.206	-0.214
-617.332	800.000	-0.116	-0.360
-616.317	800.000	-0.100	-0.327
-615.303	-28.421	0.115	0.067
-614.288	-200.000	-0.002	-0.115
-613.273	-120.564	-0.152	-0.026
-612.259	-200.000	-0.045	0.296
-611.244	21.262	-0.060	-0.049
-610.230	-108.863	-0.211	0.045
-609.215	77.435	0.117	-0.125
-608.201	185.075	0.165	0.246
-607.186	-80.148	0.201	0.068
-606.171	-200.000	-0.036	-0.362
-605.157	-147.460	-0.156	-0.013
-604.142	-132.297	0.154	0.020
-603.128	-200.000	0.020	0.101
-602.113	-108.116	-0.118	0.026
-601.098	49.299	-0.216	-0.204
-600.084	174.066	0.080	-0.116
-599.069	-90.506	-0.084	0.025
-598.055	88.590	-0.204	0.229
-597.040	-153.830	-0.199	0.014
-596.025	-200.000	-0.045	-0.351
-595.011	107.495	0.102	-0.122
-593.996	800.000	-0.035	-0.125
-592.982	186.707	0.034	-0.050
-591.967	33.137	-0.120	0.105
-590.952	227.723	0.107	0.175
-589.938	800.000	-0.068	0.284
-588.923	190.931	0.106	0.161
-587.909	316.523	-0.118	-0.224
-586.894	105.323	0.053	-0.063
-585.879	11.766	0.187	0.144
-584.865	-135.248	0.442	-0.053
-583.850	-131.025	0.211	0.028
-582.836	379.477	-0.099	-0.204
-581.821	-21.288	-0.221	-0.136
-580.806	800.000	0.121	-0.347
-579.792	-200.000	0.008	0.076
-578.777	-19.472	0.141	0.088
-577.763	-184.290	0.251	-0.004
-576.748	203.474	0.261	-0.406
-575.733	-1.766	0.079	-0.056
-574.719	119.372	-0.176	0.219
-573.704	800.000	-0.017	-0.063
-572.690	800.000	-0.051	-0.220
-571.675	439.687	0.060	-0.132
-570.661	800.000	-0.098	0.329
-569.646	-74.116	-0.500	-0.182
-568.631	-71.693	-0.116	-0.044
-567.617	-61.777	0.122	0.052
-566.602	-200.000	-0.039	-0.332
-565.588	480.132	0.090	-0.204
-564.573	-96.149	-0.089	-0.024
-563.558	-18.718	0.222	0.139
-562.544	120.920	-0.354	0.442
-561.529	746.216	0.062	0.168
-560.515	-200.000	0.031	-0.447
-559.500	-145.750	-0.209	-0.019
-558.485	-73.204	0.174	0.064
-557.471	381.155	-0.097	0.199
-556.456	-116.210	-0.330	0.062
-555.442	315.553	-0.130	-0.247
-554.427	98.577	-0.187	0.216
-553.412	108.053	0.190	0.228
-552.398	-75.919	0.026	-0.009
-551.383	-122.780	0.285	0.046
-550.369	-80.420	-0.146	0.049
-549.354	-115.763	-0.228	-0.043
-548.339	36.451	-0.158	-0.140
-547.325	800.000	0.133	0.489
-546.310	439.590	-0.075	-0.165
-545.296	-200.000	-0.030	-0.256
-544.281	133.927	0.240	-0.312
-543.266	-200.000	-0.005	0.347
-542.252	71.576	-0.239	-0.250
-541.237	-200.000	0.063	0.411
-540.223	20.285	0.272	0.221
-539.208	119.810	0.039	0.049
-538.193	-37.524	-0.316	0.169
-537.179	87.673	-0.131	-0.146
-536.164	-23.281	0.049	-0.029
-535.150	-27.799	-0.394	0.229
-534.135	-80.754	0.140	0.047
-533.121	-147.933	-0.279	0.023
-532.106	57.932	0.353	-0.346
-531.091	172.354	-0.233	-0.337
-530.077	31.508	-0.103	-0.089
-529.062	-200.000	-0.051	0.292
-528.048	-81.896	-0.295	-0.097
-527.033	-101.926	0.132	-0.032
-526.018	-200.000	0.033	0.197
-525.004	-99.166	-0.156	-0.040
-523.989	-200.000	-0.016	-0.308
-522.975	122.350	0.123	-0.154
-521.960	57.546	-0.271	0.266
-520.945	193.761	0.214	0.325
-519.931	70.189	0.139	0.144
-518.916	-200.000	-0.013	0.078
-517.902	-22.956	-0.278	0.168
-516.887	240.609	-0.047	-0.078
-515.872	-200.000	0.049	0.222
-514.858	800.000	-0.080	-0.242
-513.843	-46.018	0.025	-0.012
-512.829	181.644	0.137	0.202
-511.814	54.783	-0.038	-0.037
-510.799	-38.604	-0.074	0.039
-509.785	-200.000	-0.006	-0.051
-508.770	344.802	0.027	-0.054
-507.756	-200.000	-0.008	-0.111
-506.741	-71.696	0.182	0.068
-505.726	-75.760	-0.240	0.085
-504.712	509.877	0.054	0.125
-503.697	-108.349	0.201	-0.043
-502.683	800.000	-0.146	0.410
-501.668	800.000	-0.064	-0.182
-500.653	800.000	-0.062	-0.262
-499.639	800.000	0.095	-0.265
-498.624	-15.982	-0.269	-0.171
-497.610	-75.007	-0.300	0.108
-496.595	5.481	0.138	-0.102
-495.581	-169.974	-0.214	-0.008
-494.566	0.752	-0.184	0.132
-493.551	-162.893	-0.209	-0.010
-492.537	-116.316	0.130	-0.024
-491.522	261.554	-0.166	0.288
-490.508	-24.506	0.330	-0.197
-489.493	-148.011	0.240	-0.020
-488.478	-105.375	-0.149	0.034
-487.464	-200.000	0.021	0.208
-486.449	-200.000	-0.033	-0.433
-485.435	25.827	-0.051	-0.042
-484.420	136.107	-0.065	0.085
-483.405	-34.309	0.139	0.077
-482.391	-84.512	0.196	-0.062
-481.376	-200.000	-0.007	-0.119
-480.362	64.846	-0.230	-0.233
-479.347	800.000	0.021	0.071
-478.332	640.135	0.063	-0.160
-477.318	215.930	0.091	-0.145
-476.303	-157.177	-0.176	-0.011
-475.289	41.250	-0.121	-0.110
-474.274	-29.680	0.068	0.039
-473.259	194.087	-0.139	0.211
-472.245	-55.744	-0.402	0.180
-471.230	-32.833	0.269	0.150
-470.216	-200.000	0.028	0.150
-469.201	-27.945	-0.294	0.170
-468.186	-200.000	0.012	0.081
-467.172	-89.588	0.193	-0.057
-466.157	-123.223	-0.344	-0.055
-465.143	800.000	0.026	-0.106
-464.128	-78.831	0.270	0.092
-463.113	-140.001	0.168	-0.018
-462.099	224.166	-0.127	-0.205
-461.084	590.471	0.081	-0.200
-460.070	626.551	-0.124	0.313
-459.055	-41.836	-0.204	0.105
-458.040	-37.150	0.012	-0.006
-457.026	68.626	0.105	-0.108
-456.011	-200.000	-0.006	-0.371
-454.997	131.907	-0.175	-0.225
-453.982	-65.623	-0.463	0.186
-452.968	-84.805	0.138	0.043
-451.953	-98.147	0.235	-0.060
-450.938	-109.790	0.184	-0.039
-449.924	-102.616	0.213	0.051
-448.909	-31.234	-0.132	0.074
-447.895	-200.000	-0.003	-0.108
-446.880	129.458	-0.154	0.197
-445.865	172.829	-0.162	-0.233
-444.851	-43.737	0.180	-0.091
-443.836	-127.876	-0.210	-0.030
-442.822	-200.000	-0.008	0.099
-441.807	30.729	0.198	-0.170
-440.792	800.000	-0.032	-0.099
-439.778	-200.000	-0.005	0.127
-438.763	-86.969	-0.197	0.060
-437.749	-104.157	-0.240	0.056
-436.734	-200.000	-0.056	-0.303
-435.719	385.992	-0.165	-0.340
-434.705	-200.000	0.011	0.181
-433.690	244.020	0.052	0.087
-432.676	240.878	-0.288	0.480
-431.661	800.000	0.017	-0.064
-430.646	800.000	-0.049	0.170
-429.632	-125.247	-0.158	-0.024
-428.617	-40.011	0.218	-0.114
-427.603	-95.474	-0.224	0.060
-426.588	12.550	0.268	0.207
-425.573	190.748	-0.152	0.229
-424.559	-20.064	-0.134	0.083
-423.544	48.317	-0.223	0.209
-422.530	-200.000	0.018	-0.084
-421.515	267.371	-0.217	0.379
-420.500	-96.662	0.157	-0.041
-419.486	-118.000	0.194	-0.035
-418.471	-200.000	-0.009	0.210
-417.457	-200.000	-0.023	-0.223
-416.442	-103.318	-0.269	0.063
-415.428	207.915	-0.178	0.277
-414.413	-200.000	-0.006	0.311
-413.398	734.545	-0.058	-0.155
-412.384	-39.707	0.333	0.174
-411.369	-11.133	0.212	0.139
-410.355	-141.561	0.142	0.014
-409.340	270.243	0.106	-0.187
-408.325	8.794	-0.108	0.081
-407.311	-22.150	0.089	-0.054
-406.296	-200.000	-0.197	0.001
-405.282	-200.000	-0.017	0.125
-404.267	180.126	0.207	0.303
-403.252	-157.341	0.096	-0.006
-402.238	339.499	-0.149	-0.290
-401.223	36.045	-0.062	-0.054
-400.209	395.608	-0.111	-0.231
-399.194	-200.000	0.014	-0.119
-398.179	-200.000	-0.003	0.089
-397.165	-70.358	-0.229	-0.087
-396.150	31.856	0.147	0.127
-395.136	337.313	0.125	-0.243
-394.121	-67.298	0.301	0.118
-393.106	-200.000	0.031	0.310
-392.092	41.498	0.144	0.130
-391.077	-199.481	0.258	-0.001
-390.063	-75.530	0.232	0.082
-389.048	-200.000	-0.024	-0.118
-388.033	-94.634	-0.338	0.092
-387.019	800.000	0.024	-0.100
-386.004	103.301	0.073	0.085
-384.990	-200.000	0.005	0.189
-383.975	800.000	0.174	0.582
-382.960	461.426	-0.165	0.367
-381.946	351.279	-0.055	0.108
-380.931	-188.991	0.124	-0.001
-379.917	282.164	-0.115	-0.206
-378.902	134.021	0.120	0.155
-377.888	800.000	-0.103	0.353
-376.873	-28.130	0.307	-0.177
-375.858	27.539	-0.202	-0.170
-374.844	-200.000	-0.006	0.294
-373.829	800.000	0.178	0.593
-372.815	64.440	-0.240	0.241
-371.800	-200.000	0.015	0.187
-370.785	-138.317	-0.220	0.024
-369.771	-19.019	-0.317	-0.196
-368.756	-200.000	0.011	-0.233
-367.742	-200.000	0.049	-0.232
-366.727	9.429	0.330	0.249
-365.712	157.235	-0.105	-0.145
-364.698	297.719	-0.030	-0.055
-363.683	-96.422	0.268	0.071
-362.669	-168.288	-0.120	0.005
-361.654	-141.052	0.133	0.014
-360.639	10.885	0.156	0.118
-359.625	291.781	-0.124	-0.225
-358.610	93.192	0.259	-0.292
-357.596	-31.843	0.385	-0.215
-356.581	8.886	-0.217	0.163
-355.566	-135.142	0.375	0.045
-354.552	399.302	-0.131	0.273
-353.537	-200.000	-0.001	-0.111
-352.523	-56.617	0.255	0.113
-351.508	-22.939	-0.304	-0.183
-350.493	-134.288	0.152	0.019
-349.479	-90.299	0.211	0.061
-348.464	-37.332	-0.146	0.078
-347.450	-200.000	-0.080	-0.388
-346.435	800.000	0.045	-0.176
-345.420	-121.995	-0.241	0.039
-344.406	800.000	0.082	-0.275
-343.391	800.000	0.078	-0.293
-342.377	228.220	-0.022	-0.035
-341.362	-61.176	-0.285	-0.119
-340.348	16.229	0.110	-0.086
-339.333	-200.000	0.242	-0.000
-338.318	-158.822	0.128	0.007
-337.304	-200.000	-0.041	0.267
-336.289	8.021	0.114	-0.085
-335.275	-29.819	0.152	0.086
-334.260	41.828	0.318	-0.287
-333.245	88.270	0.131	-0.144
-332.231	-155.193	-0.418	0.027
-331.216	-200.000	0.001	-0.052
-330.202	-200.000	-0.037	-0.169
-329.187	-40.464	0.075	-0.039
-328.172	201.663	-0.177	-0.272
-327.158	127.757	0.211	0.267
-326.143	-27.062	-0.351	-0.204
-325.129	280.432	-0.162	-0.289
-324.114	132.033	0.080	0.102
-323.099	502.518	-0.073	0.168
-322.085	-200.000	-0.018	-0.140
-321.070	439.398	0.123	0.267
-320.056	-53.650	0.333	0.151
-319.041	314.438	0.070	0.131
-318.026	-38.103	0.201	-0.106
-317.012	114.443	0.061	0.073
-315.997	-114.312	-0.088	-0.017
-314.983	160.076	-0.176	0.244
-313.968	800.000	0.061	0.266
-312.953	56.322	-0.016	0.015
-311.939	-103.216	0.436	0.102
-310.924	-77.535	0.033	-0.011
-309.910	-165.597	-0.076	-0.003
-308.895	303.693	-0.143	-0.263
-307.880	747.187	0.093	-0.250
-306.866	7.677	-0.183	0.136
-305.851	351.566	0.086	-0.170
-304.837	-188.426	-0.172	0.002
-303.822	-200.000	0.003	-0.212
-302.807	800.000	0.021	0.075
-301.793	-200.000	-0.037	0.239
-300.778	-45.090	0.134	-0.066
-299.764	571.846	-0.045	0.109
-298.749	-200.000	0.005	-0.208
-297.735	235.329	-0.074	-0.122
-296.720	111.883	-0.060	-0.072
-295.705	170.894	-0.201	0.286
-294.691	168.592	0.065	0.092
-293.676	-130.915	-0.240	-0.032
-292.662	138.006	-0.173	-0.226
-291.647	232.967	0.023	-0.038
-290.632	87.585	0.302	0.333
-289.618	-122.548	0.201	0.033
-288.603	-13.873	-0.215	0.138
-287.589	149.804	0.206	-0.277
-286.574	62.135	-0.108	-0.107
-285.559	73.049	0.272	0.283
-284.545	-16.550	-0.273	0.172
-283.530	-200.000	-0.013	0.380
-282.516	79.695	-0.204	-0.217
-281.501	506.504	0.032	0.074
-280.486	8.762	0.362	-0.271
-279.472	252.591	0.061	0.103
-278.457	-171.298	0.288	-0.010
-277.443	13.411	-0.189	-0.145
-276.428	364.367	-0.035	-0.070
-275.413	168.179	0.081	0.114
-274.399	-6.961	-0.045	0.031
-273.384	-133.348	0.094	0.012
-272.370	25.685	-0.095	0.078
-271.355	800.000	0.056	-0.224
-270.340	-200.000	0.017	-0.122
-269.326	415.788	-0.119	-0.252
-268.311	800.000	0.032	0.133
-267.297	132.905	0.251	0.322
-266.282	174.259	-0.043	-0.062
-265.267	17.879	0.176	-0.139
-264.253	-74.741	-0.075	0.027
-263.238	-110.926	0.343	-0.070
-262.224	-200.000	-0.015	0.191
-261.209	-24.011	0.224	0.133
-260.195	105.285	-0.174	-0.204
-259.180	153.289	0.106	-0.144
-258.165	-200.000	0.002	0.066
-257.151	-71.674	-0.059	-0.022
-256.136	800.000	0.057	-0.181
-255.122	-150.476	0.142	0.011
-254.107	-72.425	-0.255	-0.094
-253.092	5.673	0.121	0.088
-252.078	-57.995	0.201	-0.087
-251.063	563.033	-0.072	-0.172
-250.049	156.701	-0.237	0.324
-249.034	46.374	0.237	0.218
-248.019	-97.352	-0.144	0.037
-247.005	-147.273	-0.348	0.029
-245.990	-57.034	-0.175	0.077
-244.976	-61.290	-0.232	-0.097
-243.961	-121.810	-0.267	0.044
-242.946	758.349	0.079	0.212
-241.932	-166.951	0.363	0.015
-240.917	531.033	-0.031	0.073
-239.903	-84.270	-0.151	0.048
-238.888	251.060	0.151	0.255
-237.873	-200.000	0.002	0.217
-236.859	435.504	-0.102	-0.220
-235.844	-200.000	-0.022	0.403
-234.830	-84.010	0.239	0.075
-233.815	95.737	0.348	0.394
-232.800	-109.968	-0.029	-0.006
-231.786	350.949	0.095	-0.187
-230.771	60.141	0.064	-0.063
-229.757	-162.536	0.283	0.014
-228.742	21.356	-0.072	0.058
-227.727	-64.190	-0.051	0.021
-226.713	-200.000	0.007	0.052
-225.698	221.648	-0.061	0.097
-224.684	-200.000	-0.051	0.356
-223.669	31.281	0.132	0.112
-222.655	-200.000	-0.009	-0.229
-221.640	800.000	0.097	0.271
-220.625	-157.538	-0.410	-0.024
-219.611	-149.587	0.299	0.023
-218.596	-107.710	-0.246	-0.053
-217.582	93.983	-0.107	0.120
-216.567	-52.336	0.104	-0.048
-215.552	11.697	0.217	0.165
-214.538	800.000	0.126	-0.422
-213.523	-200.000	0.047	-0.217
-212.509	38.247	0.107	0.094
-211.494	-60.354	-0.410	0.173
-210.479	402.049	-0.161	0.336
-209.465	-30.266	0.171	0.096
-208.450	-71.401	0.220	-0.082
-207.436	221.498	0.134	0.213
-206.421	58.274	0.204	0.198
-205.406	-200.000	-0.039	-0.301
-204.392	-104.303	0.103	0.024
-203.377	83.663	0.293	-0.317
-202.363	-142.455	-0.084	0.008
-201.348	24.990	0.064	-0.053
-200.333	-152.705	0.345	-0.024
-199.319	-77.241	-0.098	0.034
-198.304	172.618	0.059	-0.084
-197.290	162.494	-0.188	0.261
-196.275	-66.503	-0.173	0.068
-195.260	15.218	0.159	0.123
-194.246	-15.400	-0.114	-0.072
-193.231	312.503	-0.054	0.101
-192.217	255.847	-0.040	-0.068
-191.202	294.926	0.117	-0.213
-190.187	222.604	0.036	0.057
-189.173	-82.973	0.519	-0.166
-188.158	-141.614	0.131	-0.013
-187.144	257.968	-0.159	-0.271
-186.129	310.205	0.020	0.037
-185.114	-3.261	0.181	0.125
-184.100	-109.829	0.174	-0.036
-183.085	173.544	-0.180	-0.257
-182.071	-136.918	-0.260	-0.030
-181.056	301.454	0.193	-0.353
-180.042	164.935	0.175	-0.245
-179.027	-64.012	0.237	-0.096
-178.012	-0.528	0.110	0.077
-176.998	-98.210	-0.211	0.054
-175.983	-175.404	0.263	0.007
-174.969	64.625	-0.090	-0.089
-173.954	795.560	-0.070	0.192
-172.939	-105.946	-0.196	0.044
-171.925	-125.108	-0.324	0.049
-170.910	372.851	-0.065	-0.130
-169.896	788.118	-0.017	0.046
-168.881	6.425	-0.418	0.307
-167.866	14.403	0.212	-0.163
-166.852	90.676	0.119	0.132
-165.837	-93.010	-0.034	-0.009
-164.823	-112.143	0.245	-0.049
-163.808	531.086	-0.099	-0.231
-162.793	-92.558	0.307	0.085
-161.779	-38.123	-0.032	-0.017
-160.764	-200.000	-0.003	-0.126
-159.750	-200.000	0.012	-0.106
-158.735	-39.312	0.078	0.040
-157.720	117.656	-0.077	-0.094
-156.706	-200.000	0.004	0.078
-155.691	-200.000	-0.014	-0.132
-154.677	-48.447	-0.163	-0.078
-153.662	-139.009	-0.161	-0.017
-152.647	647.868	0.046	-0.117
-151.633	80.794	0.202	-0.215
-150.618	115.286	-0.259	-0.313
-149.604	158.961	-0.278	-0.382
-148.589	279.068	-0.045	0.079
-147.574	146.521	0.100	-0.133
-146.560	65.176	0.209	-0.208
-145.545	-158.575	0.104	-0.006
-144.531	800.000	0.050	0.167
-143.516	46.564	-0.117	0.108
-142.502	-200.000	-0.083	0.383
-141.487	96.929	0.146	0.165
-140.472	306.826	0.015	0.028
-139.458	-125.191	-0.204	0.031
-138.443	800.000	-0.062	-0.245
-137.429	64.479	-0.219	-0.218
-136.414	-96.011	0.352	-0.093
-135.399	-61.103	0.208	-0.087
-134.385	-40.071	-0.300	-0.155
-133.370	-67.220	-0.120	-0.047
-132.356	-200.000	-0.025	-0.258
-131.341	-200.000	-0.007	0.303
-130.326	-200.000	-0.018	0.264
-129.312	214.898	-0.153	-0.240
-128.297	260.905	0.102	-0.174
-127.283	601.000	0.060	-0.148
-126.268	-66.823	0.318	0.124
-125.253	135.568	0.376	0.484
-124.239	127.271	0.119	0.149
-123.224	46.319	-0.097	0.089
-122.210	-200.000	-0.021	0.230
-121.195	-140.904	0.259	0.026
-120.180	-200.000	-0.015	0.106
-119.166	196.762	-0.212	0.319
-118.151	-43.802	-0.147	-0.073
-117.137	-38.257	0.124	-0.065
-116.122	363.731	0.139	0.276
-115.107	-50.818	-0.012	0.005
-114.093	171.245	0.230	0.325
-113.078	206.012	-0.146	-0.224
-112.064	87.922	-0.162	0.177
-111.049	-30.658	0.185	-0.104
-110.034	-53.110	-0.450	0.204
-109.020	66.023	-0.189	0.189
-108.005	220.072	0.050	0.079
-106.991	-200.000	-0.045	0.206
-105.976	136.745	-0.179	0.231
-104.962	-129.073	-0.479	-0.066
-103.947	136.904	0.141	-0.182
-102.932	97.773	0.237	0.269
-101.918	-30.293	-0.085	-0.048
-100.903	-45.639	-0.191	0.093
-99.889	158.976	0.049	-0.068
-98.874	519.712	0.099	0.228
-97.859	-19.357	-0.088	-0.054
-96.845	48.465	-0.081	0.075
-95.830	156.380	0.179	0.244
-94.816	-157.189	0.174	-0.010
-93.801	-200.000	0.060	-0.361
-92.786	710.338	0.098	-0.255
-91.772	31.534	-0.181	-0.153
-90.757	190.708	0.052	-0.078
-89.743	-118.753	0.230	-0.040
-88.728	162.144	-0.163	0.225
-87.713	352.740	-0.094	-0.184
-86.699	139.185	0.234	-0.303
-85.684	151.700	0.115	-0.154
-84.670	92.905	0.100	-0.111
-83.655	266.229	0.090	-0.155
-82.640	34.725	0.170	-0.147
-81.626	721.126	0.096	0.251
-80.611	-110.968	-0.374	-0.076
-79.597	265.886	0.074	-0.126
-78.582	-72.619	0.172	-0.063
-77.567	136.864	-0.051	0.066
-76.553	139.392	0.142	0.184
-75.538	41.685	-0.063	-0.056
-74.524	800.000	0.040	-0.153
-73.509	267.522	0.063	-0.108
-72.494	75.025	0.153	0.159
-71.480	398.504	0.063	0.129
-70.465	-200.000	-0.029	-0.251
-69.451	-29.781	-0.318	-0.179
-68.436	-200.000	0.028	0.181
-67.422	-174.491	0.345	-0.010
-66.407	104.387	0.044	0.051
-65.392	227.047	-0.063	0.100
-64.378	-26.063	-0.206	-0.120
-63.363	-200.000	-0.001	-0.417
-62.349	211.310	0.059	0.091
-61.334	135.308	-0.645	-0.826
-60.319	34.688	0.370	0.319
-59.305	255.365	-0.552	-0.931
-58.290	63.310	0.739	0.730
-57.276	242.714	0.859	1.417
-56.261	-200.000	95.745	539.993
-55.246	494.280	1428.184	3228.047
-54.232	143.793	2662.750	3494.725
-53.217	103.262	2356.531	2720.721
-52.203	43.130	1961.919	1762.889
-51.188	37.145	1746.960	1522.883
-50.173	34.387	1702.613	1463.034
-49.159	50.071	1749.772	1625.939
-48.144	52.652	1766.579	1661.579
-47.130	36.904	1723.608	1500.421
-46.115	34.102	1708.755	1465.878
-45.100	33.912	1703.845	1460.153
-44.086	33.934	1701.282	1458.064
-43.071	33.899	1698.389	1455.263
-42.057	33.855	1695.973	1452.794
-41.042	33.825	1694.135	1450.937
-40.027	33.954	1691.875	1449.929
-39.013	33.926	1689.510	1447.626
-37.998	33.838	1688.478	1446.020
-36.984	33.914	1686.663	1444.982
-35.969	33.977	1685.444	1444.356
-34.954	34.033	1683.404	1442.979
-33.940	34.040	1681.411	1441.266
-32.925	33.990	1679.878	1439.519
-31.911	34.021	1677.563	1437.710
-30.896	33.951	1676.415	1436.138
-29.881	33.910	1674.714	1434.315
-28.867	33.990	1672.864	1433.275
-27.852	34.033	1671.153	1432.081
-26.838	33.974	1669.590	1430.241
-25.823	33.971	1668.761	1429.452
-24.809	34.106	1666.826	1428.752
-23.794	34.024	1665.471	1426.915
-22.779	34.035	1663.907	1425.603
-21.765	33.996	1662.322	1423.896
-20.750	34.004	1660.381	1422.234
-19.736	34.032	1659.562	1421.686
-18.721	34.125	1657.322	1420.408
-17.706	33.918	1656.780	1418.340
-16.692	34.031	1654.694	1417.343
-15.677	34.033	1652.962	1415.816
-14.663	34.046	1651.777	1414.843
-13.648	34.008	1650.440	1413.356
-12.633	34.066	1648.442	1412.023
-11.619	34.003	1647.342	1410.556
-10.604	34.121	1645.270	1409.600
-9.590	34.084	1644.291	1408.433
-8.575	34.063	1643.399	1407.455
-7.560	33.980	1642.207	1405.766
-6.546	34.070	1640.649	1405.040
-5.531	33.944	1639.978	1403.478
-4.517	34.054	1638.101	1402.630
-3.502	34.126	1636.955	1402.125
-2.487	34.091	1635.535	1400.591
-1.473	33.971	1624.376	1390.102
-0.458	31.421	1603.682	1353.903
0.556	25.998	1603.133	1317.058
1.571	22.897	1626.614	1313.215
2.586	21.558	1638.650	1312.777
3.600	19.091	1584.559	1251.421
4.615	10.807	1470.181	1104.877
5.629	2.448	1401.506	998.806
6.644	0.779	1392.377	981.388
7.659	0.645	1391.213	979.611
8.673	0.523	1390.453	978.197
9.688	0.423	1388.109	975.814
10.702	0.351	1384.928	973.026
11.717	3.903	1391.695	1000.701
12.731	12.483	1405.288	1066.234
13.746	17.298	1411.371	1102.042
14.761	17.219	1409.948	1100.327
15.775	16.491	1407.502	1093.609
16.790	15.451	1405.029	1084.875
17.804	14.609	1403.166	1077.902
18.819	14.354	1400.882	1074.405
19.834	13.979	1400.061	1071.263
20.848	13.716	1398.642	1068.388
21.863	13.423	1397.233	1065.333
22.877	13.391	1395.843	1063.978
23.892	13.116	1395.514	1061.861
24.907	13.239	1394.457	1061.751
25.921	13.304	1393.501	1061.348
26.936	13.284	1392.026	1060.001
27.950	13.328	1391.337	1059.664
28.965	13.419	1390.364	1059.415
29.980	13.497	1389.380	1059.067
30.994	13.458	1388.165	1057.801
32.009	13.554	1387.448	1057.773
33.023	13.475	1386.377	1056.362
34.038	13.489	1385.265	1055.508
35.053	13.440	1383.851	1054.027
36.067	13.449	1382.877	1053.246
37.082	13.448	1382.094	1052.554
38.096	13.444	1381.060	1051.643
39.111	13.519	1379.948	1051.185
40.126	13.342	1379.556	1049.670
41.140	13.374	1378.547	1049.008
42.155	13.308	1377.750	1047.892
43.169	13.304	1377.983	1047.953
44.184	13.191	1377.985	1047.143
45.199	13.348	1377.219	1047.462
46.213	13.279	1376.625	1046.485
47.228	13.439	1375.398	1046.470
48.242	13.425	1374.214	1045.386
49.257	13.365	1373.031	1044.018
50.271	13.364	1371.333	1042.623
51.286	13.398	1370.219	1041.899
52.301	13.442	1368.578	1040.839
53.315	13.321	1367.593	1039.236
54.330	13.237	1366.945	1038.126
55.344	13.374	1365.499	1037.795
56.359	13.242	1364.726	1036.289
57.374	13.339	1363.206	1035.647
58.388	13.210	1362.774	1034.423
59.403	13.156	1362.201	1033.556
60.417	13.242	1360.866	1032.992
61.432	13.266	1360.372	1032.676
62.447	13.210	1359.522	1031.588
63.461	13.247	1357.974	1030.551
64.476	13.201	1357.359	1029.704
65.490	13.214	1356.046	1028.700
66.505	13.224	1354.436	1027.449
67.520	13.232	1353.530	1026.725
68.534	13.251	1352.161	1025.713
69.549	13.261	1350.853	1024.692
70.563	13.186	1350.097	1023.559
71.578	13.243	1348.509	1022.618
72.593	13.186	1347.400	1021.335
73.607	13.172	1347.262	1021.052
74.622	13.126	1346.158	1019.845
75.636	13.164	1345.484	1019.479
76.651	13.134	1344.683	1018.594
77.666	13.092	1344.390	1018.026
78.680	13.227	1343.287	1017.932
79.695	13.190	1342.305	1016.865
80.709	13.220	1341.904	1016.662
81.724	13.286	1340.916	1016.229
82.739	13.238	1340.152	1015.263
83.753	13.236	1339.150	1014.399
84.768	13.140	1338.463	1013.204
85.782	13.413	1336.774	1013.504
86.797	13.429	1335.136	1012.273
87.812	13.350	1334.087	1010.904
88.826	13.334	1333.218	1010.059
89.841	13.331	1332.276	1009.238
90.855	13.352	1330.889	1008.223
91.870	13.358	1330.271	1007.708
92.884	13.461	1329.148	1007.393
93.899	13.541	1328.169	1007.048
94.914	13.466	1327.471	1005.972
95.928	13.534	1326.620	1005.652
96.943	13.522	1325.822	1004.886
97.957	13.386	1324.745	1003.154
98.972	13.452	1323.756	1002.721
99.987	13.454	1322.188	1001.450
101.001	13.321	1322.012	1000.430
102.016	13.466	1320.924	1000.391
103.030	13.474	1320.080	999.710
104.045	13.369	1319.208	998.328
105.060	13.343	1317.892	997.088
106.074	13.412	1316.723	996.530
107.089	13.345	1315.380	995.022
108.103	13.305	1313.925	993.594
109.118	13.205	1312.851	992.094
110.133	13.279	1311.540	991.461
111.147	13.346	1309.674	990.361
112.162	13.366	1308.832	989.757
113.176	13.370	1307.915	989.000
114.191	13.370	1306.810	988.080
115.206	13.314	1305.811	986.900
116.220	13.309	1304.117	985.502
117.235	13.327	1303.258	984.874
118.249	13.414	1301.943	984.311
119.264	13.293	1301.329	983.041
120.279	13.339	1299.935	982.174
121.293	13.274	1299.074	981.053
122.308	13.268	1297.792	979.958
123.322	13.302	1296.902	979.402
124.337	13.271	1295.893	978.373
125.352	13.272	1294.464	977.211
126.366	13.323	1293.299	976.544
127.381	13.220	1292.169	974.998
128.395	13.311	1290.956	974.536
129.410	13.287	1289.817	973.448
130.424	13.405	1289.471	973.794
131.439	13.275	1288.733	972.386
132.454	13.429	1287.013	971.906
133.468	13.343	1286.552	970.965
134.483	13.346	1286.008	970.488
135.497	13.297	1284.825	969.224
136.512	13.392	1283.146	968.429
137.527	13.284	1282.164	966.971
138.541	13.361	1280.852	966.343
139.556	13.388	1279.267	965.222
140.570	13.375	1278.432	964.425
141.585	13.431	1276.701	963.365
142.600	13.455	1275.836	962.765
143.614	13.493	1274.778	962.104
144.629	13.558	1273.705	961.584
145.643	13.584	1272.282	960.573
146.658	13.476	1271.492	959.267
147.673	13.512	1269.842	958.146
148.687	13.447	1268.699	956.822
149.702	13.403	1267.606	955.660
150.716	13.482	1265.902	954.748
151.731	13.372	1264.855	953.241
152.746	13.407	1263.582	952.400
153.760	13.467	1262.619	951.929
154.775	13.587	1261.023	951.336
155.789	13.604	1260.241	950.756
156.804	13.590	1259.110	949.737
157.819	13.659	1257.907	949.142
158.833	13.680	1256.873	948.400
159.848	13.695	1256.210	947.900
160.862	13.653	1255.409	946.971
161.877	13.615	1254.269	945.814
162.892	13.555	1253.365	944.704
163.906	13.511	1252.660	943.841
164.921	13.505	1251.355	942.738
165.935	13.571	1250.477	942.367
166.950	13.524	1250.032	941.682
167.964	13.750	1248.781	941.939
168.979	13.691	1247.952	940.899
169.994	13.594	1247.522	939.941
171.008	13.686	1246.611	939.693
172.023	13.582	1245.950	938.518
173.037	13.653	1245.258	938.317
174.052	13.847	1243.797	938.230
175.067	13.717	1243.083	936.874
176.081	13.613	1242.441	935.719
177.096	13.699	1241.482	935.403
178.110	13.678	1240.199	934.232
179.125	13.634	1238.964	932.975
180.140	13.660	1237.682	932.074
181.154	13.849	1236.282	931.997
182.169	13.869	1235.150	931.174
183.183	13.809	1233.984	929.873
184.198	13.830	1232.735	928.969
185.213	13.919	1231.733	928.629
186.227	13.902	1230.590	927.593
187.242	13.905	1229.785	926.918
188.256	14.004	1228.499	926.417
189.271	13.866	1227.757	925.008
190.286	13.949	1226.324	924.306
191.300	13.767	1225.680	922.730
192.315	13.695	1225.267	921.937
193.329	13.750	1224.467	921.560
194.344	13.809	1223.813	921.314
195.359	13.863	1223.131	921.015
196.373	13.872	1222.620	920.602
197.388	13.892	1222.253	920.353
198.402	14.015	1221.359	920.278
199.417	14.086	1220.282	919.777
200.432	14.102	1219.774	919.406
201.446	14.071	1218.778	918.398
202.461	14.087	1218.367	918.099
203.475	14.041	1217.449	917.071
204.490	14.165	1215.993	916.576
205.504	14.145	1214.888	915.554
206.519	14.082	1213.751	914.266
207.534	14.166	1212.353	913.595
208.548	14.088	1211.765	912.645
209.563	14.079	1210.887	911.853
210.577	14.149	1209.830	911.360
211.592	14.205	1208.857	910.855
212.607	14.231	1208.160	910.386
213.621	14.169	1207.286	909.313
214.636	14.197	1206.356	908.685
215.650	14.270	1205.546	908.391
216.665	14.335	1204.550	907.911
217.680	14.321	1203.458	906.937
218.694	14.407	1202.319	906.465
219.709	14.385	1201.671	905.778
220.723	14.389	1201.110	905.294
221.738	14.377	1200.326	904.558
222.753	14.308	1199.652	903.593
223.767	14.480	1198.563	903.630
224.782	14.471	1198.119	903.164
225.796	14.488	1197.242	902.514
226.811	14.524	1196.519	902.084
227.826	14.507	1195.839	901.402
228.840	14.557	1195.332	901.209
229.855	14.498	1194.562	900.229
230.869	14.505	1193.331	899.261
231.884	14.363	1192.980	898.148
232.899	14.411	1192.403	897.896
233.913	14.454	1191.306	897.220
234.928	14.423	1190.834	896.620
235.942	14.445	1190.170	896.160
236.957	14.447	1189.132	895.308
237.972	14.531	1188.179	894.965
238.986	14.377	1188.034	893.949
240.001	14.431	1187.088	893.448
241.015	14.529	1185.967	893.046
242.030	14.577	1185.219	892.661
243.045	14.567	1184.212	891.772
244.059	14.640	1183.699	891.695
245.074	14.546	1182.664	890.339
246.088	14.681	1181.759	890.296
247.103	14.659	1181.089	889.596
248.117	14.635	1180.383	888.855
249.132	14.682	1179.937	888.691
250.147	14.806	1178.884	888.483
251.161	14.804	1178.276	887.935
252.176	14.961	1177.487	888.093
253.190	14.895	1176.648	887.034
254.205	14.901	1176.208	886.651
255.220	14.850	1175.596	885.843
256.234	14.883	1174.876	885.397
257.249	14.942	1174.598	885.423
258.263	14.854	1174.185	884.565
259.278	14.949	1172.813	883.955
260.293	15.043	1172.181	883.901
261.307	15.017	1172.012	883.554
262.322	15.094	1171.111	883.205
263.336	15.069	1170.253	882.345
264.351	15.086	1169.902	882.094
265.366	15.177	1168.638	881.541
266.380	15.103	1168.162	880.715
267.395	15.168	1167.362	880.377
268.409	15.095	1167.006	879.645
269.424	15.163	1166.126	879.261
270.439	15.133	1165.613	878.642
271.453	15.140	1164.864	878.033
272.468	15.062	1163.970	876.876
273.482	15.118	1163.182	876.497
274.497	15.060	1162.588	875.669
275.512	15.149	1161.679	875.369
276.526	15.175	1161.409	875.225
277.541	15.186	1160.346	874.405
278.555	15.178	1160.021	874.038
279.570	15.281	1159.243	873.915
280.585	15.242	1158.161	872.817
281.599	15.351	1157.266	872.633
282.614	15.299	1156.237	871.512
283.628	15.326	1155.209	870.798
284.643	15.322	1153.819	869.652
285.657	15.279	1153.628	869.210
286.672	15.347	1152.637	868.735
287.687	15.285	1151.658	867.604
288.701	15.480	1150.395	867.584
289.716	15.452	1149.746	866.871
290.730	15.405	1149.361	866.259
291.745	15.423	1148.794	865.850
292.760	15.542	1147.903	865.717
293.774	15.410	1147.522	864.672
294.789	15.518	1147.084	864.822
295.803	15.528	1146.300	864.204
296.818	15.510	1145.275	863.265
297.833	15.386	1145.340	862.599
298.847	15.424	1144.338	861.962
299.862	15.492	1143.332	861.477
300.876	15.639	1142.233	861.326
301.891	15.611	1141.823	860.798
302.906	15.670	1140.872	860.308
303.920	15.642	1140.515	859.819
304.935	15.819	1139.721	860.050
305.949	15.711	1139.392	859.171
306.964	15.698	1138.383	858.269
307.979	15.742	1137.522	857.767
308.993	15.831	1136.841	857.632
310.008	15.815	1136.167	856.968
311.022	15.813	1135.046	856.033
312.037	15.824	1134.364	855.502
313.052	15.761	1133.547	854.489
314.066	15.775	1132.380	853.606
315.081	15.769	1131.538	852.865
316.095	15.762	1130.923	852.291
317.110	15.806	1130.411	852.051
318.125	15.811	1129.749	851.502
319.139	15.699	1128.737	850.097
320.154	15.794	1128.133	850.045
321.168	15.801	1127.626	849.627
322.183	15.818	1126.784	849.002
323.197	15.768	1126.247	848.270
324.212	15.866	1125.395	848.045
325.227	15.772	1125.413	847.513
326.241	15.793	1124.213	846.637
327.256	15.798	1123.664	846.175
328.270	15.882	1122.863	845.919
329.285	15.855	1121.652	844.797
330.300	15.939	1120.543	844.308
331.314	16.000	1119.645	843.864
332.329	15.922	1118.808	842.764
333.343	15.982	1117.985	842.370
334.358	15.989	1117.256	841.781
335.373	16.001	1116.447	841.160
336.387	16.033	1116.005	840.912
337.402	16.006	1114.869	839.847
338.416	15.973	1114.405	839.259
339.431	16.155	1113.269	839.236
340.446	16.133	1112.887	838.763
341.460	16.248	1111.921	838.532
342.475	16.283	1111.043	837.968
343.489	16.272	1109.993	837.046
344.504	16.259	1109.178	836.296
345.519	16.357	1108.207	835.972
346.533	16.335	1108.017	835.649
347.548	16.380	1106.847	834.913
348.562	16.298	1106.494	834.167
349.577	16.270	1105.294	833.050
350.592	16.370	1104.485	832.861
351.606	16.238	1103.966	831.745
352.621	16.253	1103.365	831.296
353.635	16.221	1102.786	830.628
354.650	16.190	1101.971	829.784
355.665	16.352	1100.602	829.477
356.679	16.306	1100.497	829.097
357.694	16.318	1099.832	828.585
358.708	16.480	1099.045	828.712
359.723	16.358	1098.475	827.612
360.738	16.403	1097.910	827.333
361.752	16.412	1097.451	826.957
362.767	16.416	1096.976	826.545
363.781	16.354	1096.462	825.783
364.796	16.536	1095.683	826.014
365.810	16.463	1095.157	825.187
366.825	16.605	1094.723	825.477
367.840	16.625	1093.988	824.946
368.854	16.729	1093.114	824.723
369.869	16.634	1092.548	823.759
370.883	16.624	1091.742	823.030
371.898	16.613	1090.989	822.336
372.913	16.628	1090.378	821.877
373.927	16.729	1089.359	821.524
374.942	16.824	1088.798	821.491
375.956	16.816	1088.545	821.189
376.971	16.835	1087.760	820.617
377.986	16.715	1087.497	819.763
379.000	16.771	1086.730	819.383
380.015	16.780	1086.337	819.057
381.029	16.859	1085.962	819.085
382.044	16.909	1084.740	818.334
383.059	16.951	1084.020	817.921
384.073	16.862	1083.307	816.879
385.088	16.863	1082.807	816.436
386.102	16.855	1082.036	815.745
387.117	16.787	1081.031	814.586
388.132	16.921	1079.669	814.130
389.146	16.812	1079.043	813.063
390.161	16.880	1078.288	812.751
391.175	16.912	1077.631	812.337
392.190	16.965	1076.593	811.736
393.205	16.953	1076.145	811.268
394.219	17.117	1075.277	811.328
395.234	16.963	1074.479	809.915
396.248	16.981	1073.471	809.173
397.263	16.955	1072.419	808.180
398.278	17.036	1071.783	808.016
399.292	17.070	1070.969	807.495
400.307	17.009	1070.302	806.631
401.321	17.030	1069.611	806.137
402.336	16.984	1068.841	805.268
403.350	17.074	1068.242	805.170
404.365	16.993	1067.603	804.234
405.380	17.203	1067.038	804.733
406.394	17.043	1066.495	803.493
407.409	17.174	1065.418	803.230
408.423	17.195	1064.480	802.552
409.438	17.279	1063.969	802.493
410.453	17.216	1063.365	801.670
411.467	17.307	1062.454	801.343
412.482	17.266	1062.591	801.178
413.496	17.214	1061.473	800.020
414.511	17.397	1060.200	799.850
415.526	17.367	1059.875	799.394
416.540	17.311	1059.885	799.070
417.555	17.344	1059.199	798.634
418.569	17.351	1058.912	798.381
419.584	17.326	1058.508	797.888
420.599	17.495	1058.022	798.242
421.613	99.468	1317.201	1446.680
422.628	91.775	1354.933	1446.795
