DTS Sentinel unit serial number:	SN413079Multiplexer serial number:	ORYXHardware model number:	OX4-SRSoftware version number:	ORYX F/W v4.00 Oryx Data Collector v3.7.2.0data status	okinstallation	princeton_trtdifferential loss correction	single-endedforward channel	channel 2reverse channel	N/Adate	2019/09/13time	15:11:35forward acquisition time	60.00reverse acquisition time	0.00gamma	496.2192k internal	0.2315k external	0.2315temperature offset calibration	1.0214default loss term (dB/km)	0.3790temperature slope calibration	1.0000multiplexer offset coefficient	1.0000multiplexer slope coefficient	1.0000fibre end	0.00T internal ref (°C)	35.56T ext. ref 1 (°C)	4.73T ext. ref 2 (°C)	30.65length (m)	temperature (°C)	Stokes	anti-Stokes-747.200	158.642	-0.170	0.240
-746.185	-73.194	0.324	0.120
-745.171	90.497	0.165	0.187
-744.156	800.000	-0.087	0.272
-743.142	393.236	0.117	-0.247
-742.127	115.606	-0.178	0.220
-741.112	22.548	-0.166	0.138
-740.098	202.871	-0.193	0.301
-739.083	-75.430	0.224	-0.081
-738.069	76.424	0.103	-0.111
-737.054	219.089	-0.138	0.223
-736.039	105.093	-0.271	-0.324
-735.025	-189.693	0.326	-0.004
-734.010	-12.812	-0.084	-0.055
-732.996	22.432	0.031	-0.026
-731.981	-14.248	-0.292	0.191
-730.966	37.144	0.095	-0.085
-729.952	-200.000	-0.011	-0.289
-728.937	128.926	-0.012	-0.016
-727.923	-62.815	-0.060	-0.025
-726.908	-81.527	-0.219	-0.073
-725.894	-32.524	0.105	0.059
-724.879	-5.651	-0.264	-0.183
-723.864	-145.049	0.319	0.029
-722.850	800.000	0.009	0.037
-721.835	-200.000	0.036	-0.275
-720.821	251.885	-0.121	-0.209
-719.806	-18.448	0.329	0.208
-718.791	58.907	-0.173	-0.172
-717.777	0.015	0.259	0.187
-716.762	-9.005	0.052	-0.035
-715.748	-12.514	0.136	-0.090
-714.733	476.098	0.057	-0.130
-713.718	-200.000	0.061	-0.293
-712.704	-14.721	-0.115	0.075
-711.689	277.101	-0.056	0.100
-710.675	800.000	0.053	0.166
-709.660	389.896	-0.072	0.151
-708.645	49.806	-0.137	0.131
-707.631	-24.345	-0.161	0.097
-706.616	394.490	-0.079	-0.166
-705.602	-42.299	0.196	0.101
-704.587	-200.000	-0.041	-0.256
-703.572	800.000	-0.056	-0.157
-702.558	-145.416	0.138	-0.013
-701.543	515.758	-0.205	-0.484
-700.529	107.783	0.052	0.063
-699.514	542.135	-0.134	0.324
-698.499	582.459	-0.086	0.213
-697.485	-77.609	-0.380	-0.133
-696.470	107.553	-0.203	0.245
-695.456	257.773	0.044	0.077
-694.441	-29.068	-0.047	-0.027
-693.426	-74.142	-0.360	-0.132
-692.412	316.237	-0.022	-0.042
-691.397	84.359	0.119	-0.132
-690.383	29.201	-0.256	-0.220
-689.368	800.000	-0.059	0.226
-688.354	-41.143	-0.299	-0.156
-687.339	-86.982	0.058	-0.018
-686.324	-38.823	-0.099	0.053
-685.310	-43.824	-0.366	-0.186
-684.295	80.420	0.269	-0.293
-683.281	100.538	-0.181	0.212
-682.266	800.000	-0.136	-0.494
-681.251	535.447	-0.152	-0.364
-680.237	-23.394	0.173	-0.105
-679.222	-200.000	-0.009	0.233
-678.208	66.323	-0.063	0.065
-677.193	-200.000	-0.010	-0.424
-676.178	549.631	0.101	-0.244
-675.164	-156.021	-0.045	0.003
-674.149	800.000	-0.106	-0.466
-673.135	-200.000	0.010	0.209
-672.120	623.463	0.104	-0.265
-671.105	-15.942	0.053	0.034
-670.091	4.236	0.254	-0.188
-669.076	800.000	-0.111	-0.374
-668.062	-8.730	-0.069	-0.047
-667.047	-152.551	-0.046	0.003
-666.032	206.327	-0.055	0.087
-665.018	-186.625	-0.159	0.002
-664.003	-200.000	0.013	-0.183
-662.989	-200.000	0.046	0.260
-661.974	-105.407	0.178	0.041
-660.959	-63.767	-0.284	-0.118
-659.945	-200.000	-0.032	0.000
-658.930	-28.042	-0.035	-0.021
-657.916	-35.721	-0.427	0.234
-656.901	-59.589	-0.148	0.064
-655.886	-200.000	0.001	0.130
-654.872	77.971	-0.290	0.312
-653.857	711.282	-0.078	-0.208
-652.843	87.021	-0.074	-0.082
-651.828	126.715	0.050	-0.064
-650.814	-200.000	0.009	0.243
-649.799	-117.697	-0.226	-0.041
-648.784	73.352	0.074	-0.078
-647.770	-192.832	0.201	0.002
-646.755	121.948	0.281	0.354
-645.741	47.850	-0.092	-0.087
-644.726	-102.431	0.083	0.020
-643.711	-68.402	-0.163	0.064
-642.697	-198.106	0.492	-0.003
-641.682	-172.808	0.389	0.012
-640.668	800.000	0.037	0.115
-639.653	58.893	0.085	0.085
-638.638	264.610	0.088	-0.154
-637.624	-200.000	-0.002	-0.010
-636.609	-200.000	0.010	0.176
-635.595	358.490	-0.129	0.260
-634.580	-81.625	0.146	0.048
-633.565	800.000	-0.119	0.376
-632.551	288.245	0.189	0.345
-631.536	-200.000	-0.020	0.157
-630.522	94.743	0.051	-0.059
-629.507	581.179	-0.115	-0.283
-628.492	-48.492	-0.233	0.113
-627.478	-79.319	-0.110	-0.038
-626.463	-200.000	0.017	-0.190
-625.449	-113.032	-0.178	-0.035
-624.434	205.074	-0.066	0.103
-623.419	-99.587	-0.332	0.084
-622.405	-136.403	-0.204	-0.024
-621.390	235.680	0.073	0.122
-620.376	-121.099	-0.077	0.013
-619.361	89.995	0.235	0.264
-618.346	-199.484	-0.133	-0.001
-617.332	-200.000	-0.003	-0.142
-616.317	19.577	0.329	0.267
-615.303	-70.316	-0.113	-0.043
-614.288	-82.666	0.148	-0.048
-613.273	256.964	-0.158	-0.273
-612.259	-103.594	-0.301	0.071
-611.244	425.966	-0.098	0.212
-610.230	-200.000	-0.001	-0.224
-609.215	-90.279	-0.167	0.049
-608.201	34.510	-0.130	0.115
-607.186	210.944	0.045	0.071
-606.171	114.433	-0.161	-0.198
-605.157	68.943	0.040	0.041
-604.142	-198.495	-0.137	0.001
-603.128	-111.869	0.146	-0.030
-602.113	49.808	-0.135	-0.128
-601.098	-140.269	-0.261	-0.028
-600.084	143.904	-0.018	-0.025
-599.069	-97.951	0.429	0.111
-598.055	378.494	-0.147	-0.303
-597.040	800.000	-0.070	-0.278
-596.025	-36.809	0.291	0.157
-595.011	-200.000	-0.021	-0.145
-593.996	-136.023	-0.231	-0.027
-592.982	-8.212	-0.233	-0.158
-591.967	730.146	-0.030	-0.082
-590.952	17.845	-0.191	0.153
-589.938	252.862	0.284	-0.488
-588.923	-116.790	0.178	0.033
-587.909	-96.557	-0.282	-0.075
-586.894	-54.170	-0.188	0.086
-585.879	-200.000	-0.000	-0.106
-584.865	-200.000	-0.023	0.185
-583.850	358.296	-0.192	-0.386
-582.836	52.898	0.155	-0.149
-581.821	79.863	0.105	-0.114
-580.806	800.000	0.091	-0.269
-579.792	800.000	0.056	0.207
-578.777	338.045	0.099	0.193
-577.763	-156.500	-0.366	-0.023
-576.748	-167.806	-0.170	0.007
-575.733	-26.406	0.149	-0.088
-574.719	-136.626	0.318	0.037
-573.704	-96.817	0.201	0.053
-572.690	800.000	-0.054	0.173
-571.675	-56.302	-0.359	0.160
-570.661	451.880	0.076	0.170
-569.646	25.451	0.092	0.077
-568.631	-36.567	-0.093	-0.051
-567.617	-144.376	0.148	0.014
-566.602	-28.407	0.209	-0.121
-565.588	-133.376	-0.015	-0.002
-564.573	-111.616	-0.252	0.051
-563.558	-48.915	0.130	0.062
-562.544	-88.608	-0.265	0.079
-561.529	-27.448	0.203	-0.119
-560.515	30.631	-0.117	-0.100
-559.500	-87.142	-0.219	-0.067
-558.485	-42.424	0.204	-0.105
-557.471	-158.288	-0.138	-0.008
-556.456	-200.000	0.006	-0.113
-555.442	-122.791	-0.179	-0.029
-554.427	156.760	0.043	-0.060
-553.412	-107.063	0.161	-0.036
-552.398	-38.794	0.284	-0.150
-551.383	-85.540	0.302	0.095
-550.369	-43.320	0.145	0.074
-549.354	-119.030	0.168	0.030
-548.339	23.067	-0.090	-0.075
-547.325	-200.000	-0.042	0.474
-546.310	-200.000	-0.033	-0.166
-545.296	800.000	-0.075	-0.214
-544.281	-38.337	-0.240	0.128
-543.266	-131.087	-0.151	0.020
-542.252	-29.282	0.267	-0.154
-541.237	78.047	-0.098	0.105
-540.223	401.272	-0.147	-0.310
-539.208	-47.915	0.264	0.129
-538.193	-12.470	-0.128	-0.084
-537.179	272.196	0.160	-0.284
-536.164	-200.000	-0.007	0.033
-535.150	-78.473	-0.298	-0.103
-534.135	-200.000	-0.003	-0.072
-533.121	-200.000	0.057	-0.289
-532.106	-150.145	-0.290	0.023
-531.091	-28.601	0.196	-0.114
-530.077	1.961	-0.183	-0.133
-529.062	-121.687	-0.280	-0.047
-528.048	-56.637	-0.022	-0.010
-527.033	-72.498	0.127	0.047
-526.018	-143.059	0.206	-0.020
-525.004	-200.000	0.006	-0.053
-523.989	-75.855	0.054	-0.019
-522.975	-123.451	0.168	-0.027
-521.960	800.000	0.032	0.120
-520.945	26.860	-0.125	-0.106
-519.931	-200.000	-0.007	0.176
-518.916	800.000	0.067	-0.219
-517.902	52.956	0.116	-0.111
-516.887	384.864	-0.089	-0.184
-515.872	27.181	-0.227	-0.192
-514.858	-200.000	0.003	0.113
-513.843	89.093	0.199	0.222
-512.829	-98.406	0.195	0.050
-511.814	-33.825	0.227	-0.126
-510.799	800.000	0.038	0.155
-509.785	158.793	-0.020	-0.028
-508.770	-93.622	-0.153	0.042
-507.756	-144.039	0.251	-0.024
-506.741	140.916	-0.081	-0.107
-505.726	-135.198	-0.211	-0.025
-504.712	800.000	0.044	-0.150
-503.697	-126.196	0.127	0.019
-502.683	-151.211	-0.149	-0.011
-501.668	-47.723	0.062	0.030
-500.653	-34.540	0.103	-0.056
-499.639	-47.659	-0.109	0.053
-498.624	-165.466	0.168	-0.007
-497.610	-134.438	-0.015	-0.002
-496.595	-32.134	0.036	-0.020
-495.581	54.531	-0.070	0.068
-494.566	-200.000	-0.018	-0.107
-493.551	-0.899	-0.130	-0.093
-492.537	382.316	0.177	-0.366
-491.522	-138.665	0.255	-0.028
-490.508	-104.130	-0.106	-0.025
-489.493	97.698	-0.072	-0.083
-488.478	57.784	-0.061	-0.060
-487.464	800.000	-0.009	-0.035
-486.449	421.996	0.035	0.075
-485.435	-200.000	-0.018	-0.228
-484.420	-200.000	0.017	0.221
-483.405	800.000	-0.120	-0.390
-482.391	286.593	0.039	0.071
-481.376	52.871	0.151	0.145
-480.362	578.975	0.058	0.143
-479.347	27.807	0.350	0.295
-478.332	-115.978	-0.147	-0.028
-477.318	253.833	-0.158	0.271
-476.303	235.625	-0.064	0.106
-475.289	-200.000	-0.004	0.287
-474.274	800.000	-0.162	-0.477
-473.259	87.134	0.187	-0.207
-472.245	14.692	0.123	0.096
-471.230	-43.707	-0.296	0.150
-470.216	800.000	-0.069	0.244
-469.201	355.566	0.071	-0.141
-468.186	-200.000	-0.003	0.020
-467.172	-49.278	0.118	-0.056
-466.157	182.550	-0.135	0.199
-465.143	-200.000	-0.021	-0.199
-464.128	304.920	-0.169	-0.314
-463.113	-143.806	0.156	0.015
-462.099	-72.606	0.273	-0.101
-461.084	522.559	-0.074	-0.174
-460.070	-94.612	-0.025	-0.007
-459.055	-4.006	0.201	0.140
-458.040	42.327	0.186	-0.169
-457.026	-166.657	0.269	0.011
-456.011	-48.844	-0.102	0.049
-454.997	193.682	-0.126	-0.191
-453.982	-200.000	-0.027	0.264
-452.968	-2.503	0.101	0.071
-451.953	-97.022	-0.182	-0.048
-450.938	169.485	-0.152	0.217
-449.924	188.683	-0.104	-0.156
-448.909	-62.946	-0.439	0.182
-447.895	-139.315	-0.200	0.022
-446.880	-3.472	0.368	-0.257
-445.865	153.999	0.032	0.045
-444.851	17.977	-0.091	0.072
-443.836	800.000	-0.055	0.186
-442.822	140.410	0.174	0.229
-441.807	-11.138	-0.253	-0.167
-440.792	-75.396	-0.468	0.167
-439.778	-200.000	0.078	0.396
-438.763	800.000	-0.056	0.161
-437.749	-68.039	-0.204	-0.080
-436.734	-128.562	-0.186	-0.026
-435.719	-156.405	-0.203	-0.013
-434.705	-85.770	0.115	-0.036
-433.690	-118.807	-0.181	0.032
-432.676	-200.000	0.008	0.250
-431.661	-82.438	0.184	-0.060
-430.646	347.034	0.128	-0.251
-429.632	58.428	0.082	-0.080
-428.617	4.756	-0.439	0.323
-427.603	-133.578	0.287	0.036
-426.588	-53.627	-0.075	-0.034
-425.573	-200.000	-0.075	0.364
-424.559	-68.342	0.181	-0.070
-423.544	-11.290	-0.378	0.249
-422.530	-157.044	-0.050	0.003
-421.515	-73.307	0.141	-0.052
-420.500	296.932	-0.051	0.094
-419.486	-143.338	0.182	-0.017
-418.471	121.757	0.061	-0.077
-417.457	800.000	-0.053	0.225
-416.442	-200.000	0.003	0.169
-415.428	69.607	0.115	0.118
-414.413	-156.384	-0.139	-0.009
-413.398	-34.115	-0.143	0.079
-412.384	800.000	0.043	0.156
-411.369	-122.140	-0.262	-0.043
-410.355	100.839	-0.097	0.113
-409.340	800.000	-0.049	-0.140
-408.325	81.331	-0.129	0.140
-407.311	449.920	0.056	-0.123
-406.296	-106.639	-0.108	0.024
-405.282	13.170	-0.280	0.217
-404.267	299.053	0.084	0.155
-403.252	191.678	-0.075	0.112
-402.238	13.526	-0.091	0.071
-401.223	103.578	-0.099	-0.117
-400.209	10.341	0.126	-0.096
-399.194	-27.169	0.240	0.140
-398.179	800.000	0.098	0.292
-397.165	-200.000	0.051	-0.243
-396.150	-43.849	0.071	0.036
-395.136	-200.000	0.001	-0.120
-394.121	-136.002	-0.350	0.041
-393.106	-100.197	-0.468	-0.116
-392.092	16.752	0.194	0.153
-391.077	192.666	0.231	0.349
-390.063	-96.727	-0.117	0.031
-389.048	-200.000	0.004	0.192
-388.033	111.261	-0.094	-0.113
-387.019	-62.636	-0.185	0.077
-386.004	323.890	0.109	0.208
-384.990	22.498	0.117	-0.095
-383.975	-17.677	-0.071	-0.045
-382.960	-147.151	-0.033	-0.003
-381.946	-15.661	-0.157	0.100
-380.931	229.785	0.085	0.138
-379.917	-87.101	0.132	0.040
-378.902	-69.551	0.205	-0.079
-377.888	12.307	0.183	-0.141
-376.873	-19.069	-0.125	-0.077
-375.858	-200.000	0.001	0.044
-374.844	-117.366	-0.111	0.020
-373.829	800.000	0.019	-0.056
-372.815	-200.000	0.023	0.172
-371.800	206.185	0.059	0.092
-370.785	-73.125	0.154	0.056
-369.771	-46.051	0.443	0.218
-368.756	-45.608	-0.176	0.087
-367.742	-115.090	-0.167	-0.032
-366.727	-70.404	0.255	-0.096
-365.712	31.158	0.060	0.052
-364.698	-80.704	0.028	0.009
-363.683	-158.128	-0.151	0.009
-362.669	646.901	-0.049	0.126
-361.654	-200.000	0.012	0.149
-360.639	187.004	-0.107	-0.159
-359.625	-200.000	-0.021	-0.178
-358.610	800.000	-0.062	-0.200
-357.596	-53.383	0.250	-0.114
-356.581	-98.020	0.181	-0.047
-355.566	375.191	-0.167	0.339
-354.552	-49.939	0.224	-0.106
-353.537	631.723	0.053	-0.134
-352.523	6.373	-0.078	-0.058
-351.508	800.000	0.063	0.209
-350.493	141.923	-0.124	0.165
-349.479	180.359	-0.103	0.150
-348.464	-97.334	0.158	0.041
-347.450	77.202	-0.158	0.167
-346.435	-200.000	-0.021	-0.269
-345.420	211.135	-0.070	0.109
-344.406	-114.172	-0.061	0.012
-343.391	-22.053	-0.372	-0.225
-342.377	4.322	0.271	-0.198
-341.362	210.589	-0.071	0.111
-340.348	115.062	0.106	0.128
-339.333	340.745	-0.092	0.179
-338.318	-188.634	0.454	-0.006
-337.304	625.847	0.078	0.196
-336.289	730.130	0.008	0.022
-335.275	-68.527	0.405	-0.157
-334.260	-151.800	-0.117	-0.009
-333.245	-88.823	0.053	-0.016
-332.231	271.318	0.075	0.132
-331.216	-40.587	0.167	0.087
-330.202	-127.797	0.189	-0.027
-329.187	-200.000	0.017	0.108
-328.172	-25.683	-0.276	0.162
-327.158	108.777	-0.320	-0.382
-326.143	234.085	0.154	-0.252
-325.129	800.000	0.071	-0.197
-324.114	217.523	0.215	0.341
-323.099	-200.000	0.036	-0.301
-322.085	102.487	0.090	-0.105
-321.070	-200.000	-0.060	-0.315
-320.056	668.991	0.063	0.163
-319.041	-124.740	-0.161	0.025
-318.026	-48.491	-0.203	-0.098
-317.012	90.164	0.115	0.128
-315.997	-18.094	-0.263	0.164
-314.983	334.117	0.175	0.338
-313.968	10.435	-0.297	-0.226
-312.953	-200.000	-0.002	-0.365
-311.939	-200.000	-0.008	0.068
-310.924	3.973	0.196	0.143
-309.910	800.000	-0.024	0.087
-308.895	-200.000	0.006	-0.095
-307.880	-43.356	-0.267	0.135
-306.866	358.718	-0.115	0.228
-305.851	800.000	0.041	0.152
-304.837	800.000	-0.079	-0.255
-303.822	-200.000	-0.032	0.195
-302.807	128.027	-0.044	-0.056
-301.793	-71.078	0.254	0.095
-300.778	-200.000	0.068	-0.315
-299.764	-14.973	0.256	-0.163
-298.749	218.287	0.152	-0.241
-297.735	-50.761	0.116	-0.054
-296.720	326.213	0.067	0.128
-295.705	85.927	0.194	0.212
-294.691	-119.355	-0.270	-0.047
-293.676	315.834	0.072	-0.134
-292.662	-200.000	0.193	0.000
-291.647	283.133	-0.115	0.205
-290.632	-82.876	-0.097	-0.031
-289.618	24.648	0.129	-0.106
-288.603	-166.522	0.309	0.013
-287.589	-200.000	-0.002	0.215
-286.574	-79.675	0.054	0.018
-285.559	-64.256	-0.314	-0.127
-284.545	-70.027	-0.077	0.029
-283.530	-200.000	0.036	0.173
-282.516	-162.517	-0.240	-0.012
-281.501	63.993	0.012	-0.012
-280.486	-62.669	-0.466	-0.192
-279.472	-32.805	0.072	0.040
-278.457	-61.675	0.076	0.032
-277.443	800.000	-0.054	-0.220
-276.428	-200.000	0.009	0.164
-275.413	-94.942	0.323	0.087
-274.399	64.766	-0.289	0.290
-273.384	1.651	0.197	-0.141
-272.370	318.741	0.104	-0.195
-271.355	-200.000	0.047	-0.224
-270.340	-9.469	-0.201	0.134
-269.326	800.000	0.061	-0.208
-268.311	-135.479	0.175	-0.021
-267.297	533.672	-0.080	-0.188
-266.282	-81.517	-0.210	-0.069
-265.267	-200.000	-0.066	-0.347
-264.253	54.379	0.163	-0.156
-263.238	800.000	-0.131	0.374
-262.224	-145.420	-0.059	0.005
-261.209	800.000	-0.035	-0.144
-260.195	385.651	0.192	-0.395
-259.180	800.000	0.141	-0.470
-258.165	-110.902	0.196	0.040
-257.151	-200.000	-0.031	0.180
-256.136	73.065	0.090	-0.093
-255.122	4.812	-0.009	0.007
-254.107	800.000	-0.026	-0.110
-253.092	179.723	-0.074	-0.107
-252.078	-40.378	-0.250	-0.129
-251.063	-136.391	0.217	0.025
-250.049	-17.071	0.140	0.088
-249.034	-94.128	0.355	-0.097
-248.019	-200.000	-0.004	-0.064
-247.005	-151.202	0.368	-0.027
-245.990	-200.000	0.024	-0.155
-244.976	-33.623	0.110	-0.060
-243.961	-85.093	0.050	0.016
-242.946	-200.000	0.027	0.216
-241.932	385.499	-0.034	0.070
-240.917	-129.968	-0.057	0.008
-239.903	-151.813	0.255	0.019
-238.888	262.342	-0.094	-0.162
-237.873	781.375	-0.023	-0.063
-236.859	-141.949	-0.294	-0.029
-235.844	-200.000	-0.028	0.262
-234.830	-152.219	0.212	-0.015
-233.815	-85.519	-0.070	-0.022
-232.800	-200.000	0.000	-0.056
-231.786	133.117	-0.253	-0.324
-230.771	-33.871	-0.117	-0.064
-229.757	-200.000	0.002	-0.193
-228.742	60.975	0.112	-0.110
-227.727	-200.000	-0.056	-0.311
-226.713	-86.018	-0.444	0.136
-225.698	734.824	0.144	0.383
-224.684	-156.337	-0.030	-0.002
-223.669	46.770	0.043	-0.040
-222.655	16.089	-0.142	-0.111
-221.640	24.428	-0.219	-0.180
-220.625	-22.219	0.335	-0.201
-219.611	84.918	0.085	-0.093
-218.596	-41.934	-0.087	-0.044
-217.582	-37.864	-0.247	0.131
-216.567	-200.000	-0.002	0.046
-215.552	153.974	-0.094	-0.128
-214.538	28.264	-0.095	0.079
-213.523	-38.344	0.184	-0.096
-212.509	230.609	-0.064	-0.104
-211.494	-200.000	-0.002	-0.287
-210.479	-4.485	0.265	0.182
-209.465	21.558	-0.193	-0.156
-208.450	204.584	-0.165	0.255
-207.436	-200.000	0.077	0.348
-206.421	91.127	-0.245	-0.273
-205.406	65.126	0.249	0.250
-204.392	17.182	-0.159	0.125
-203.377	143.779	0.140	0.185
-202.363	-94.185	-0.284	0.077
-201.348	261.687	0.064	0.110
-200.333	3.866	-0.110	0.080
-199.319	-188.828	0.141	0.002
-198.304	35.543	0.082	-0.071
-197.290	34.270	-0.187	-0.162
-196.275	220.474	0.174	0.278
-195.260	-69.146	0.069	0.026
-194.246	-95.883	0.325	0.086
-193.231	-200.000	-0.046	-0.288
-192.217	800.000	0.116	0.442
-191.202	-163.961	0.323	-0.015
-190.187	554.095	-0.101	0.241
-189.173	556.907	-0.039	-0.093
-188.158	800.000	0.069	0.251
-187.144	321.440	-0.081	-0.153
-186.129	672.152	0.068	-0.175
-185.114	182.591	0.060	-0.088
-184.100	-171.370	-0.288	0.010
-183.085	122.883	-0.136	-0.169
-182.071	-109.238	-0.123	0.026
-181.056	213.988	0.016	0.026
-180.042	-108.999	-0.412	-0.087
-179.027	20.111	0.341	0.273
-178.012	-200.000	0.031	0.198
-176.998	800.000	0.068	-0.279
-175.983	31.349	0.165	0.140
-174.969	-67.785	0.195	0.075
-173.954	-94.828	0.309	0.083
-172.939	-82.851	0.336	-0.108
-171.925	17.134	0.243	0.191
-170.910	800.000	0.070	0.245
-169.896	417.798	0.076	0.161
-168.881	-200.000	0.007	-0.086
-167.866	9.753	-0.219	-0.164
-166.852	-200.000	-0.013	0.141
-165.837	302.097	0.072	-0.132
-164.823	-141.816	0.415	-0.041
-163.808	394.420	-0.114	-0.235
-162.793	-50.619	-0.370	0.173
-161.779	-200.000	0.137	-0.000
-160.764	-178.508	-0.178	-0.004
-159.750	1.333	-0.156	-0.111
-158.735	-122.402	-0.104	0.017
-157.720	-190.830	-0.387	0.004
-156.706	-25.712	0.252	0.147
-155.691	-200.000	-0.016	0.090
-154.677	-30.737	0.208	-0.117
-153.662	-89.722	0.121	-0.035
-152.647	-31.117	-0.140	0.078
-151.633	800.000	-0.065	-0.231
-150.618	101.848	0.060	0.069
-149.604	-62.407	-0.145	0.060
-148.589	16.267	-0.195	0.152
-147.574	732.892	0.083	0.221
-146.560	78.446	0.146	0.154
-145.545	-67.078	0.150	-0.058
-144.531	-2.503	-0.268	0.186
-143.516	-3.381	-0.131	-0.090
-142.502	43.033	-0.141	0.127
-141.487	-43.540	0.038	-0.019
-140.472	262.430	-0.117	-0.200
-139.458	25.292	-0.204	-0.168
-138.443	-29.542	-0.344	0.194
-137.429	-92.008	0.358	-0.100
-136.414	-77.124	-0.268	-0.092
-135.399	-111.912	-0.333	0.066
-134.385	-103.686	-0.367	-0.085
-133.370	800.000	0.097	-0.335
-132.356	-200.000	0.015	-0.088
-131.341	116.366	0.259	-0.314
-130.326	-50.210	-0.276	-0.129
-129.312	-81.207	-0.159	-0.052
-128.297	800.000	0.076	-0.232
-127.283	-108.241	0.096	-0.021
-126.268	-200.000	-0.041	-0.205
-125.253	-140.735	-0.216	-0.022
-124.239	-109.019	0.164	-0.035
-123.224	-5.296	0.090	0.061
-122.210	800.000	0.145	-0.407
-121.195	-105.614	-0.199	0.045
-120.180	-200.000	0.028	-0.169
-119.166	-70.221	0.153	0.058
-118.151	228.974	-0.071	-0.115
-117.137	-184.387	-0.181	-0.003
-116.122	-79.480	-0.153	-0.051
-115.107	159.273	-0.132	0.182
-114.093	-200.000	-0.018	-0.131
-113.078	-49.149	0.074	0.035
-112.064	-72.016	-0.247	-0.091
-111.049	125.879	0.086	-0.108
-110.034	-85.022	-0.421	0.131
-109.020	-200.000	0.019	-0.151
-108.005	146.694	-0.240	0.318
-106.991	12.196	-0.256	0.195
-105.976	-200.000	0.006	-0.025
-104.962	19.255	0.086	0.069
-103.947	6.195	-0.362	0.266
-102.932	-22.031	0.081	-0.049
-101.918	-91.491	0.122	0.034
-100.903	-200.000	0.104	0.504
-99.889	-58.509	-0.150	-0.064
-98.874	-5.865	-0.413	-0.279
-97.859	-200.000	0.172	-0.001
-96.845	-200.000	0.006	-0.364
-95.830	-51.082	-0.156	-0.072
-94.816	26.062	0.107	-0.088
-93.801	-54.372	0.218	0.098
-92.786	256.456	0.137	-0.232
-91.772	-200.000	0.079	-0.515
-90.757	172.437	0.187	-0.265
-89.743	102.783	-0.292	0.338
-88.728	-96.943	-0.277	0.072
-87.713	-2.224	-0.113	-0.079
-86.699	-4.052	0.368	0.252
-85.684	6.115	-0.105	-0.077
-84.670	179.898	0.107	0.155
-83.655	800.000	0.080	0.224
-82.640	-200.000	0.034	0.196
-81.626	-0.536	0.173	-0.121
-80.611	-58.358	0.115	0.050
-79.597	-66.802	0.144	0.056
-78.582	127.650	0.034	0.043
-77.567	-136.750	0.196	-0.022
-76.553	-58.230	0.233	-0.100
-75.538	21.329	0.151	0.121
-74.524	800.000	-0.041	0.160
-73.509	-98.702	0.124	-0.031
-72.494	51.270	-0.115	0.108
-71.480	3.463	0.160	0.115
-70.465	-165.207	0.465	-0.020
-69.451	57.069	-0.108	0.104
-68.436	763.881	-0.106	0.285
-67.422	800.000	0.037	0.157
-66.407	70.715	-0.257	0.263
-65.392	-172.856	0.195	0.006
-64.378	112.210	-0.065	-0.077
-63.363	773.142	-0.073	0.196
-62.349	-200.000	0.013	-0.064
-61.334	-49.713	-0.869	-0.408
-60.319	-13.664	0.526	0.336
-59.305	-200.000	-0.112	-1.042
-58.290	620.139	0.331	0.821
-57.276	692.908	0.554	1.433
-56.261	-200.000	93.988	554.286
-55.246	626.099	1384.068	3444.937
-54.232	186.819	2609.543	3834.428
-53.217	116.829	2320.020	2808.817
-52.203	45.367	1931.733	1757.845
-51.188	38.936	1717.558	1513.507
-50.173	36.117	1672.115	1452.206
-49.159	52.925	1719.608	1622.158
-48.144	56.282	1737.481	1664.567
-47.130	38.657	1694.511	1490.838
-46.115	35.655	1679.320	1454.732
-45.100	35.551	1674.207	1449.460
-44.086	35.472	1671.913	1446.824
-43.071	35.412	1668.936	1443.739
-42.057	35.401	1667.485	1442.348
-41.042	35.410	1665.234	1440.410
-40.027	35.405	1663.683	1438.970
-39.013	35.439	1661.516	1437.294
-37.998	35.458	1659.887	1435.972
-36.984	35.369	1658.992	1434.477
-35.969	35.509	1657.143	1433.867
-34.954	35.630	1655.050	1432.897
-33.940	35.477	1653.896	1430.705
-32.925	35.490	1652.008	1429.112
-31.911	35.645	1650.097	1428.553
-30.896	35.569	1648.284	1426.359
-29.881	35.597	1646.353	1424.844
-28.867	35.518	1644.855	1422.904
-27.852	35.560	1643.557	1422.033
-26.838	35.529	1642.086	1420.473
-25.823	35.582	1640.572	1419.501
-24.809	35.596	1639.297	1418.446
-23.794	35.512	1637.978	1416.632
-22.779	35.658	1636.150	1416.068
-21.765	35.554	1634.527	1413.843
-20.750	35.530	1633.153	1412.422
-19.736	35.622	1631.534	1411.636
-18.721	35.665	1630.018	1410.590
-17.706	35.619	1628.748	1409.092
-16.692	35.581	1627.047	1407.292
-15.677	35.629	1625.331	1406.099
-14.663	35.596	1624.122	1404.757
-13.648	35.591	1622.939	1403.643
-12.633	35.568	1621.386	1402.077
-11.619	35.625	1619.367	1400.686
-10.604	35.631	1617.858	1399.374
-9.590	35.660	1616.903	1398.700
-8.575	35.593	1615.870	1397.264
-7.560	35.598	1614.338	1395.921
-6.546	35.613	1613.278	1395.059
-5.531	35.554	1612.350	1393.769
-4.517	35.511	1610.954	1392.202
-3.502	35.549	1609.719	1391.353
-2.487	35.740	1608.421	1391.559
-1.473	35.364	1597.180	1379.074
-0.458	32.339	1576.026	1339.251
0.556	30.542	1573.611	1298.572
1.571	27.441	1596.993	1295.725
2.586	26.093	1609.175	1295.824
3.600	22.844	1555.453	1229.858
4.615	14.109	1444.839	1085.525
5.629	6.223	1378.978	986.649
6.644	4.779	1369.774	970.978
7.659	4.638	1368.757	969.289
8.673	4.730	1367.775	969.083
9.688	4.763	1366.517	968.310
10.702	4.867	1363.809	966.951
11.717	8.456	1370.712	994.118
12.731	17.058	1386.585	1059.459
13.746	22.401	1395.071	1099.310
14.761	22.706	1393.963	1100.240
15.775	21.931	1391.396	1093.290
16.790	20.869	1388.768	1084.519
17.804	19.982	1386.733	1077.321
18.819	19.609	1385.799	1074.180
19.834	19.493	1384.597	1072.432
20.848	19.455	1382.756	1070.677
21.863	19.144	1382.232	1068.246
22.877	19.039	1381.287	1066.771
23.892	19.043	1380.184	1065.849
24.907	18.994	1378.943	1064.495
25.921	19.064	1378.170	1064.234
26.936	19.078	1377.240	1063.512
27.950	19.193	1376.008	1063.172
28.965	19.230	1375.424	1062.858
29.980	19.334	1373.862	1062.199
30.994	19.294	1373.273	1061.401
32.009	19.420	1371.931	1061.048
33.023	19.388	1370.286	1059.484
34.038	19.276	1369.609	1058.179
35.053	19.252	1367.955	1056.659
36.067	19.181	1367.214	1055.555
37.082	19.268	1365.800	1054.905
38.096	19.403	1364.803	1054.868
39.111	19.417	1364.010	1054.249
40.126	19.178	1363.358	1052.189
41.140	18.870	1362.636	1049.660
42.155	18.693	1362.239	1048.176
43.169	18.745	1361.597	1047.906
44.184	18.793	1361.333	1047.907
45.199	18.817	1361.053	1047.744
46.213	19.005	1360.753	1048.566
47.228	19.082	1360.040	1048.393
48.242	19.100	1359.121	1047.702
49.257	19.163	1357.343	1046.620
50.271	19.199	1355.597	1045.404
51.286	19.192	1354.358	1044.311
52.301	19.151	1353.126	1043.018
53.315	19.010	1352.055	1041.248
54.330	18.931	1350.966	1039.838
55.344	18.897	1349.396	1038.336
56.359	18.914	1348.493	1037.649
57.374	18.844	1347.953	1036.723
58.388	18.814	1347.267	1035.922
59.403	18.685	1346.836	1034.721
60.417	18.717	1345.861	1034.071
61.432	18.609	1344.926	1032.610
62.447	18.519	1343.777	1031.098
63.461	18.548	1342.613	1030.287
64.476	18.480	1341.623	1029.029
65.490	18.432	1340.742	1027.974
66.505	18.545	1338.858	1027.114
67.520	18.649	1337.142	1026.330
68.534	18.654	1336.501	1025.776
69.549	18.629	1335.196	1024.534
70.563	18.472	1334.884	1023.269
71.578	18.456	1333.557	1022.064
72.593	18.372	1332.645	1020.772
73.607	18.419	1331.676	1020.222
74.622	18.398	1331.275	1019.702
75.636	18.504	1330.069	1019.315
76.651	18.396	1329.720	1018.313
77.666	18.539	1328.954	1018.491
78.680	18.592	1328.720	1018.536
79.695	18.683	1327.469	1018.027
80.709	18.777	1327.278	1018.347
81.724	18.823	1326.280	1017.762
82.739	18.857	1325.856	1017.549
83.753	19.067	1324.876	1017.949
84.768	19.143	1324.193	1017.784
85.782	19.282	1323.215	1017.764
86.797	19.374	1321.710	1017.054
87.812	19.202	1320.563	1015.070
88.826	19.118	1319.540	1013.698
89.841	19.227	1318.375	1013.357
90.855	19.228	1317.775	1012.810
91.870	19.271	1316.805	1012.229
92.884	19.253	1316.081	1011.478
93.899	19.352	1315.183	1011.281
94.914	19.466	1314.394	1011.252
95.928	19.378	1313.888	1010.253
96.943	19.362	1312.628	1009.101
97.957	19.333	1311.720	1008.147
98.972	19.260	1310.805	1006.929
99.987	19.304	1309.603	1006.174
101.001	19.187	1309.190	1005.082
102.016	19.248	1308.047	1004.475
103.030	19.258	1306.779	1003.468
104.045	19.208	1306.020	1002.507
105.060	19.025	1305.114	1000.656
106.074	18.937	1303.528	998.842
107.089	18.702	1301.806	996.072
108.103	18.614	1300.395	994.391
109.118	18.562	1299.389	993.237
110.133	18.632	1297.796	992.333
111.147	18.684	1296.426	991.499
112.162	18.744	1294.985	990.656
113.176	18.686	1294.294	989.701
114.191	18.802	1293.324	989.541
115.206	18.796	1292.137	988.512
116.220	18.643	1291.074	986.730
117.235	18.781	1289.640	986.341
118.249	18.730	1289.293	985.695
119.264	18.621	1288.113	984.083
120.279	18.588	1286.766	982.775
121.293	18.618	1285.615	981.980
122.308	18.460	1284.532	980.164
123.322	18.444	1283.386	979.109
124.337	18.497	1282.210	978.430
125.352	18.438	1281.191	977.230
126.366	18.395	1280.250	976.182
127.381	18.465	1279.517	975.934
128.395	18.420	1278.286	974.651
129.410	18.546	1277.193	974.448
130.424	18.615	1276.689	974.371
131.439	18.631	1275.970	973.828
132.454	18.713	1275.367	973.743
133.468	18.849	1274.432	973.714
134.483	18.888	1273.652	973.252
135.497	18.859	1272.511	972.130
136.512	18.838	1271.273	970.980
137.527	18.878	1269.681	969.903
138.541	18.969	1268.416	969.365
139.556	18.943	1267.285	968.272
140.570	19.056	1266.538	968.249
141.585	19.179	1265.516	968.072
142.600	19.243	1264.383	967.482
143.614	19.212	1263.320	966.409
144.629	19.425	1262.392	966.805
145.643	19.233	1261.723	965.131
146.658	19.161	1260.267	963.533
147.673	19.006	1258.479	961.211
148.687	18.875	1257.267	959.471
149.702	18.792	1256.397	958.258
150.716	18.759	1254.869	956.827
151.731	18.782	1253.557	955.866
152.746	18.929	1252.085	955.479
153.760	18.888	1251.356	954.612
154.775	18.929	1250.432	954.047
155.789	19.103	1249.677	954.352
156.804	19.097	1248.425	953.280
157.819	19.037	1247.281	951.991
158.833	19.226	1246.390	952.267
159.848	19.308	1246.144	952.450
160.862	19.225	1245.144	951.141
161.877	19.025	1243.582	948.761
162.892	18.861	1242.078	946.629
163.906	18.888	1241.189	946.016
164.921	18.879	1240.233	945.153
165.935	19.023	1239.256	945.115
166.950	19.186	1238.795	945.580
167.964	18.971	1238.536	944.114
168.979	19.112	1237.189	943.777
169.994	18.973	1236.533	942.432
171.008	19.084	1235.644	942.278
172.023	19.232	1235.045	942.552
173.037	19.169	1234.904	942.013
174.052	19.235	1233.452	941.184
175.067	19.054	1232.206	939.161
176.081	18.872	1231.504	937.548
177.096	18.956	1230.402	937.086
178.110	19.029	1228.989	936.322
179.125	18.988	1228.293	935.488
180.140	19.088	1226.591	934.650
181.154	19.223	1226.000	934.854
182.169	19.226	1224.461	933.610
183.183	19.309	1223.933	933.576
184.198	19.470	1222.192	933.034
185.213	19.292	1221.697	931.617
186.227	19.309	1220.455	930.678
187.242	19.492	1219.621	930.947
188.256	19.536	1218.850	930.511
189.271	19.571	1217.474	929.568
190.286	19.396	1216.001	927.419
191.300	18.981	1215.259	924.543
192.315	18.865	1214.212	923.038
193.329	18.897	1213.940	922.924
194.344	19.007	1213.699	923.247
195.359	19.195	1212.859	923.534
196.373	19.148	1212.820	923.172
197.388	19.396	1211.875	923.698
198.402	19.523	1211.973	924.375
199.417	19.608	1211.472	924.365
200.432	19.696	1210.974	924.373
201.446	19.847	1210.050	924.394
202.461	19.925	1209.138	924.032
203.475	19.790	1208.505	922.745
204.490	19.624	1206.814	920.487
205.504	19.480	1205.663	918.763
206.519	19.521	1204.533	918.036
207.534	19.406	1202.960	916.147
208.548	19.439	1202.600	915.966
209.563	19.358	1201.606	914.696
210.577	19.555	1200.298	914.666
211.592	19.567	1199.853	914.309
212.607	19.729	1199.123	914.529
213.621	19.690	1198.253	913.578
214.636	19.651	1197.420	912.655
215.650	19.638	1196.634	911.908
216.665	19.762	1195.840	911.874
217.680	19.869	1194.893	911.639
218.694	20.015	1194.094	911.716
219.709	19.906	1193.206	910.385
220.723	19.887	1192.282	909.497
221.738	19.890	1191.593	908.906
222.753	19.741	1191.061	907.642
223.767	19.803	1190.257	907.273
224.782	19.925	1189.919	907.576
225.796	20.009	1189.154	907.348
226.811	20.095	1188.205	906.996
227.826	19.955	1187.303	905.495
228.840	19.809	1186.817	904.280
229.855	19.821	1186.178	903.778
230.869	19.879	1184.858	902.991
231.884	19.737	1184.058	901.561
232.899	19.555	1183.418	900.050
233.913	19.526	1182.756	899.314
234.928	19.592	1182.005	899.007
235.942	19.552	1181.137	898.056
236.957	19.548	1180.246	897.280
237.972	19.570	1179.253	896.560
238.986	19.529	1178.897	895.995
240.001	19.538	1178.535	895.688
241.015	19.722	1177.443	895.735
242.030	19.693	1176.763	894.990
243.045	19.746	1175.962	894.572
244.059	19.783	1175.649	894.447
245.074	19.861	1174.609	893.980
246.088	19.928	1173.777	893.615
247.103	20.001	1172.926	893.264
248.117	20.144	1172.489	893.587
249.132	20.345	1171.863	894.066
250.147	20.449	1171.569	894.300
251.161	20.514	1171.044	894.157
252.176	20.597	1169.987	893.695
253.190	20.709	1169.412	893.752
254.205	20.615	1169.201	893.029
255.220	20.800	1168.378	893.268
256.234	20.726	1167.391	892.059
257.249	20.684	1167.281	891.678
258.263	20.759	1166.153	891.124
259.278	20.711	1165.648	890.410
260.293	20.785	1164.775	890.045
261.307	20.731	1164.713	889.641
262.322	20.813	1163.963	889.411
263.336	20.844	1163.390	889.054
264.351	20.863	1162.391	888.308
265.366	20.852	1161.771	887.699
266.380	20.782	1160.994	886.669
267.395	20.768	1160.371	886.046
268.409	20.781	1159.660	885.490
269.424	20.624	1158.821	883.973
270.439	20.562	1158.180	883.088
271.453	20.624	1157.377	882.712
272.468	20.474	1156.485	881.194
273.482	20.450	1155.875	880.530
274.497	20.430	1155.431	880.015
275.512	20.554	1154.150	879.585
276.526	20.651	1153.295	879.348
277.541	20.567	1152.986	878.609
278.555	20.605	1152.386	878.265
279.570	20.771	1151.644	878.459
280.585	20.891	1151.048	878.534
281.599	20.964	1150.065	878.075
282.614	20.719	1149.178	876.087
283.628	20.631	1147.707	874.443
284.643	20.651	1146.900	873.850
285.657	20.757	1146.102	873.700
286.672	20.694	1145.018	872.477
287.687	20.783	1144.203	872.227
288.701	20.805	1143.442	871.680
289.716	20.730	1142.938	870.845
290.730	20.787	1141.938	870.291
291.745	20.760	1141.662	869.866
292.760	20.764	1140.844	869.186
293.774	21.071	1140.283	870.213
294.789	21.092	1139.833	869.900
295.803	20.982	1139.294	868.864
296.818	20.866	1138.300	867.447
297.833	20.834	1137.390	866.520
298.847	20.847	1136.308	865.685
299.862	20.909	1135.474	865.283
300.876	20.845	1135.200	864.678
301.891	20.998	1134.867	865.104
302.906	21.042	1134.078	864.645
303.920	21.188	1133.557	864.894
304.935	21.337	1132.900	865.054
305.949	21.423	1132.343	864.976
306.964	21.346	1131.571	863.932
307.979	21.306	1130.583	862.906
308.993	21.197	1129.942	861.801
310.008	21.202	1129.436	861.361
311.022	21.275	1128.485	860.923
312.037	21.360	1127.707	860.670
313.052	21.243	1126.413	859.031
314.066	21.031	1125.489	857.206
315.081	20.779	1124.800	855.371
316.095	20.788	1124.063	854.777
317.110	20.770	1123.018	853.821
318.125	20.894	1122.524	853.976
319.139	20.989	1121.451	853.551
320.154	20.919	1121.112	852.872
321.168	20.860	1120.311	851.898
322.183	21.091	1119.793	852.558
323.197	21.090	1119.248	852.064
324.212	21.171	1118.833	852.068
325.227	21.070	1118.107	850.947
326.241	21.077	1117.532	850.470
327.256	21.010	1116.929	849.607
328.270	20.886	1116.016	848.233
329.285	20.960	1114.981	847.731
330.300	21.070	1113.836	847.321
331.314	20.917	1113.187	846.011
332.329	20.986	1112.077	845.428
333.343	21.135	1111.232	845.430
334.358	21.252	1110.432	845.315
335.373	21.233	1110.141	844.927
336.387	21.125	1109.235	843.640
337.402	21.352	1108.358	843.994
338.416	21.403	1107.912	843.825
339.431	21.428	1107.663	843.683
340.446	21.513	1106.771	843.338
341.460	21.673	1106.213	843.610
342.475	21.831	1104.697	843.139
343.489	21.663	1104.454	842.068
344.504	21.862	1103.554	842.266
345.519	21.902	1102.546	841.612
346.533	21.839	1102.201	840.975
347.548	22.070	1101.125	841.184
348.562	21.836	1100.666	839.637
349.577	21.703	1099.623	838.132
350.592	21.633	1098.383	836.777
351.606	21.481	1097.400	835.228
352.621	21.324	1097.172	834.235
353.635	21.342	1096.036	833.380
354.650	21.399	1095.424	833.114
355.665	21.453	1094.902	832.901
356.679	21.461	1094.295	832.403
357.694	21.556	1094.205	832.715
358.708	21.718	1092.806	832.342
359.723	21.818	1092.506	832.519
360.738	21.640	1091.992	831.204
361.752	21.687	1091.305	830.834
362.767	21.779	1090.620	830.673
363.781	21.722	1090.544	830.273
364.796	21.926	1089.709	830.529
365.810	21.964	1089.611	830.562
366.825	22.161	1088.426	830.517
367.840	22.049	1088.664	830.091
368.854	22.224	1088.047	830.378
369.869	22.298	1087.061	829.900
370.883	22.243	1085.628	828.472
371.898	22.036	1084.831	826.818
372.913	22.051	1084.309	826.417
373.927	22.075	1083.734	826.020
374.942	22.176	1083.534	826.265
375.956	22.246	1082.944	826.075
376.971	22.127	1082.721	825.274
377.986	22.252	1081.776	825.065
379.000	22.304	1081.779	825.237
380.015	22.392	1081.156	825.099
381.029	22.400	1080.547	824.601
382.044	22.509	1079.340	824.117
383.059	22.383	1078.727	822.986
384.073	22.308	1078.131	822.110
385.088	22.471	1076.887	821.847
386.102	22.389	1076.068	820.769
387.117	22.269	1075.461	819.672
388.132	22.046	1074.336	817.705
389.146	22.103	1073.309	817.117
390.161	22.080	1072.219	816.106
391.175	22.077	1072.211	816.014
392.190	22.183	1071.601	815.972
393.205	22.338	1070.588	815.844
394.219	22.378	1069.991	815.504
395.234	22.266	1068.990	814.150
396.248	22.227	1067.765	812.964
397.263	22.004	1066.887	811.194
398.278	21.947	1066.423	810.507
399.292	21.996	1065.424	809.903
400.307	21.898	1064.690	808.820
401.321	21.931	1063.938	808.329
402.336	22.009	1062.995	807.903
403.350	22.083	1062.295	807.639
404.365	21.914	1062.277	806.776
405.380	22.076	1061.449	806.819
406.394	22.239	1060.763	806.974
407.409	22.361	1059.923	806.824
408.423	22.448	1059.249	806.636
409.438	22.671	1058.354	806.903
410.453	22.601	1058.426	806.569
411.467	22.596	1057.836	806.027
412.482	22.707	1056.951	805.786
413.496	22.785	1056.276	805.554
414.511	22.736	1056.056	805.094
415.526	22.948	1055.302	805.415
416.540	22.955	1055.108	805.225
417.555	22.895	1054.511	804.427
418.569	22.769	1053.590	803.079
419.584	22.882	1053.195	803.220
420.599	22.824	1052.744	802.543
421.613	154.128	1400.255	1786.768
422.628	141.503	1450.872	1786.878
