DTS Sentinel unit serial number:	SN413079Multiplexer serial number:	ORYXHardware model number:	OX4-SRSoftware version number:	ORYX F/W v4.00 Oryx Data Collector v3.7.2.0data status	okinstallation	princeton_trtdifferential loss correction	single-endedforward channel	channel 2reverse channel	N/Adate	2019/09/18time	21:43:35forward acquisition time	60.00reverse acquisition time	0.00gamma	496.2192k internal	0.2347k external	0.2347temperature offset calibration	1.0018default loss term (dB/km)	0.3790temperature slope calibration	1.0000multiplexer offset coefficient	1.0000multiplexer slope coefficient	1.0000fibre end	0.00T internal ref (°C)	24.89T ext. ref 1 (°C)	0.81T ext. ref 2 (°C)	18.24length (m)	temperature (°C)	Stokes	anti-Stokes-747.200	-200.000	-0.022	0.357
-746.185	57.866	-0.252	0.247
-745.171	-200.000	-0.034	0.315
-744.156	20.229	0.368	0.297
-743.142	-18.341	0.288	0.180
-742.127	-200.000	0.013	0.122
-741.112	160.568	0.174	0.243
-740.098	38.472	0.255	0.227
-739.083	-200.000	0.009	0.283
-738.069	-106.699	0.216	-0.048
-737.054	-200.000	-0.032	0.197
-736.039	104.292	-0.184	0.216
-735.025	-1.871	0.054	-0.038
-734.010	274.696	0.104	-0.184
-732.996	133.170	-0.195	-0.251
-731.981	800.000	0.011	-0.039
-730.966	-86.722	-0.072	0.022
-729.952	-2.462	-0.409	0.286
-728.937	-200.000	-0.086	-0.424
-727.923	800.000	0.063	-0.196
-726.908	-200.000	-0.018	0.145
-725.894	-200.000	0.000	-0.195
-724.879	377.555	-0.075	-0.153
-723.864	-84.094	0.222	-0.070
-722.850	300.534	-0.030	-0.056
-721.835	-100.208	0.164	-0.041
-720.821	-164.757	-0.441	0.020
-719.806	-155.755	0.168	-0.011
-718.791	-9.031	-0.227	-0.151
-717.777	739.873	0.125	-0.335
-716.762	800.000	0.057	-0.209
-715.748	51.584	-0.107	-0.101
-714.733	-76.449	-0.101	-0.035
-713.718	105.532	-0.039	0.046
-712.704	85.134	0.126	-0.138
-711.689	110.504	0.080	0.096
-710.675	-78.639	-0.240	-0.082
-709.660	196.200	0.244	-0.370
-708.645	161.798	-0.071	0.100
-707.631	147.964	-0.195	-0.263
-706.616	-118.049	0.203	0.036
-705.602	800.000	0.069	0.236
-704.587	-73.031	0.123	0.045
-703.572	-90.021	-0.080	0.023
-702.558	-200.000	-0.045	-0.423
-701.543	-200.000	-0.004	-0.035
-700.529	-135.688	-0.275	0.033
-699.514	586.311	0.072	-0.177
-698.499	-111.009	-0.251	-0.051
-697.485	25.912	-0.198	-0.165
-696.470	800.000	-0.115	-0.331
-695.456	-2.252	-0.313	-0.219
-694.441	-103.796	0.039	-0.009
-693.426	-200.000	-0.047	0.207
-692.412	110.502	0.179	-0.215
-691.397	150.707	-0.043	0.059
-690.383	-200.000	0.002	0.224
-689.368	169.603	0.198	-0.282
-688.354	-200.000	0.007	-0.378
-687.339	-102.514	0.084	0.020
-686.324	-50.539	-0.325	-0.153
-685.310	-148.042	0.110	-0.009
-684.295	-85.593	-0.340	-0.105
-683.281	-135.577	-0.543	0.064
-682.266	-114.452	-0.223	0.043
-681.251	92.163	0.100	0.113
-680.237	-157.050	0.180	0.011
-679.222	-121.686	0.289	-0.048
-678.208	-99.943	-0.132	-0.033
-677.193	-20.247	-0.208	-0.128
-676.178	-128.584	-0.392	-0.055
-675.164	-24.353	-0.166	0.099
-674.149	-200.000	0.086	-0.507
-673.135	-146.470	-0.292	-0.025
-672.120	172.710	-0.107	-0.153
-671.105	153.723	0.227	-0.311
-670.091	-100.601	-0.142	0.035
-669.076	42.812	-0.136	-0.124
-668.062	-24.064	0.064	0.038
-667.047	-200.000	0.000	-0.139
-666.032	441.935	0.165	-0.359
-665.018	174.162	0.217	0.312
-664.003	116.318	-0.034	0.041
-662.989	-131.772	-0.239	0.031
-661.974	-42.106	0.108	0.055
-660.959	800.000	0.035	0.106
-659.945	10.637	0.022	-0.017
-658.930	-200.000	-0.068	-0.372
-657.916	-200.000	0.022	0.301
-656.901	-9.921	0.089	0.059
-655.886	-12.978	0.129	0.084
-654.872	800.000	-0.031	0.108
-653.857	-37.483	-0.153	-0.081
-652.843	160.923	-0.065	-0.091
-651.828	22.285	-0.129	-0.105
-650.814	5.147	0.046	-0.034
-649.799	79.513	-0.207	-0.221
-648.784	-200.000	-0.005	-0.145
-647.770	726.530	0.065	0.172
-646.755	-200.000	-0.003	-0.103
-645.741	327.767	-0.038	-0.073
-644.726	-117.321	-0.421	0.076
-643.711	133.497	-0.075	-0.096
-642.697	800.000	-0.162	0.480
-641.682	301.487	0.169	0.311
-640.668	-200.000	0.004	-0.028
-639.653	-14.443	-0.219	-0.140
-638.638	229.938	0.177	-0.288
-637.624	64.865	0.057	-0.057
-636.609	16.869	0.162	-0.128
-635.595	-200.000	0.019	0.149
-634.580	-200.000	-0.064	0.406
-633.565	94.882	-0.194	0.219
-632.551	-200.000	0.038	0.216
-631.536	-26.860	-0.355	0.206
-630.522	333.647	-0.173	0.333
-629.507	800.000	0.016	0.064
-628.492	800.000	-0.057	-0.193
-627.478	-200.000	-0.004	-0.254
-626.463	-200.000	0.007	0.213
-625.449	271.751	-0.105	0.184
-624.434	472.727	-0.050	-0.111
-623.419	322.797	0.139	-0.263
-622.405	280.626	-0.064	0.113
-621.390	800.000	-0.041	0.152
-620.376	566.919	-0.119	-0.287
-619.361	-66.910	0.183	0.072
-618.346	-10.240	0.229	0.151
-617.332	-42.398	-0.238	0.121
-616.317	-200.000	0.060	0.309
-615.303	-200.000	-0.023	0.175
-614.288	30.864	0.295	-0.251
-613.273	81.361	0.196	-0.210
-612.259	-155.329	0.173	-0.011
-611.244	240.399	0.186	0.308
-610.230	98.367	0.093	0.107
-609.215	12.275	-0.187	-0.143
-608.201	-125.611	-0.443	-0.067
-607.186	-119.745	-0.152	-0.026
-606.171	4.737	0.158	-0.115
-605.157	800.000	-0.086	-0.321
-604.142	800.000	-0.078	-0.225
-603.128	-200.000	0.023	0.180
-602.113	81.684	0.176	-0.189
-601.098	112.613	0.093	0.112
-600.084	800.000	-0.086	-0.243
-599.069	-200.000	0.009	-0.119
-598.055	-88.007	-0.184	0.055
-597.040	-36.409	-0.385	-0.206
-596.025	25.696	-0.038	0.031
-595.011	752.884	0.065	-0.174
-593.996	463.157	-0.112	0.248
-592.982	800.000	-0.082	-0.247
-591.967	21.239	0.089	0.072
-590.952	65.203	0.144	0.145
-589.938	-200.000	-0.053	-0.262
-588.923	487.781	0.094	-0.214
-587.909	595.489	0.009	0.022
-586.894	800.000	0.068	0.232
-585.879	-105.767	0.030	-0.007
-584.865	-16.043	0.072	0.045
-583.850	800.000	-0.020	0.055
-582.836	-71.225	0.103	-0.038
-581.821	262.539	0.076	0.130
-580.806	-200.000	-0.024	0.179
-579.792	301.740	0.150	-0.276
-578.777	147.004	-0.103	-0.138
-577.763	-56.258	0.171	-0.076
-576.748	128.097	-0.044	-0.055
-575.733	-29.938	0.240	0.136
-574.719	-200.000	0.001	-0.167
-573.704	72.901	-0.118	-0.122
-572.690	800.000	0.048	0.146
-571.675	-200.000	0.023	0.141
-570.661	-147.065	0.356	-0.030
-569.646	120.076	-0.222	0.274
-568.631	-31.145	-0.141	-0.079
-567.617	-142.866	0.093	0.009
-566.602	23.190	-0.107	-0.087
-565.588	78.226	-0.138	-0.146
-564.573	-200.000	-0.021	-0.117
-563.558	-110.267	-0.183	0.038
-562.544	339.938	0.138	-0.267
-561.529	-110.986	0.111	-0.023
-560.515	684.168	-0.123	-0.320
-559.500	53.239	-0.348	-0.331
-558.485	-154.227	0.233	-0.016
-557.471	258.137	-0.119	-0.203
-556.456	-200.000	0.031	0.211
-555.442	87.036	0.128	-0.140
-554.427	800.000	-0.119	-0.399
-553.412	127.634	-0.075	-0.095
-552.398	-136.286	-0.337	-0.039
-551.383	-27.983	0.291	0.167
-550.369	-91.031	-0.198	-0.057
-549.354	800.000	0.040	0.157
-548.339	406.762	0.043	-0.090
-547.325	68.215	-0.272	0.277
-546.310	-200.000	0.049	-0.231
-545.296	-131.093	0.206	-0.027
-544.281	-27.012	-0.250	-0.145
-543.266	109.897	0.025	0.030
-542.252	-200.000	0.052	-0.241
-541.237	800.000	0.062	0.232
-540.223	-140.368	0.144	0.015
-539.208	22.345	-0.023	0.019
-538.193	-32.458	0.166	0.092
-537.179	273.663	0.155	-0.272
-536.164	800.000	-0.092	0.290
-535.150	-93.539	-0.201	-0.055
-534.135	800.000	-0.078	-0.226
-533.121	385.989	0.047	-0.096
-532.106	392.156	-0.147	-0.303
-531.091	124.009	0.041	0.051
-530.077	47.823	-0.213	0.197
-529.062	531.790	-0.064	-0.149
-528.048	345.861	-0.090	0.176
-527.033	-25.912	-0.187	-0.109
-526.018	-124.859	0.374	0.057
-525.004	56.457	-0.116	-0.112
-523.989	-25.020	0.342	-0.201
-522.975	-7.846	0.166	0.111
-521.960	800.000	-0.074	0.293
-520.945	234.541	-0.066	-0.108
-519.931	57.662	0.302	0.293
-518.916	-200.000	0.044	-0.256
-517.902	-200.000	0.033	-0.189
-516.887	-200.000	0.022	0.310
-515.872	22.932	-0.558	0.453
-514.858	-98.749	-0.099	-0.025
-513.843	259.963	0.005	-0.009
-512.829	17.407	-0.264	0.208
-511.814	19.741	0.159	-0.127
-510.799	-108.720	-0.138	-0.029
-509.785	328.683	0.135	-0.257
-508.770	33.101	-0.195	0.167
-507.756	194.118	-0.209	0.313
-506.741	418.037	0.099	0.210
-505.726	800.000	-0.095	0.293
-504.712	-200.000	0.044	0.206
-503.697	21.253	0.222	-0.179
-502.683	52.967	0.193	0.183
-501.668	75.258	-0.027	0.028
-500.653	1.511	-0.403	-0.287
-499.639	49.781	0.049	-0.046
-498.624	-1.052	0.137	-0.096
-497.610	-122.974	0.292	-0.047
-496.595	-70.936	0.271	-0.101
-495.581	43.788	-0.165	-0.150
-494.566	544.757	-0.128	-0.302
-493.551	-97.634	-0.091	0.023
-492.537	319.504	-0.148	0.279
-491.522	389.249	-0.093	0.190
-490.508	-149.990	0.497	0.038
-489.493	-49.796	-0.279	0.131
-488.478	-200.000	-0.028	0.122
-487.464	-103.391	0.038	-0.009
-486.449	-200.000	0.002	-0.026
-485.435	800.000	0.117	0.407
-484.420	-52.715	-0.150	-0.069
-483.405	29.384	-0.189	-0.159
-482.391	0.814	0.060	-0.043
-481.376	-27.856	0.289	0.166
-480.362	800.000	-0.116	-0.411
-479.347	800.000	0.024	0.083
-478.332	-200.000	-0.006	0.088
-477.318	-48.187	-0.047	-0.022
-476.303	-67.739	-0.395	0.153
-475.289	-200.000	0.007	-0.207
-474.274	371.465	0.054	-0.109
-473.259	-143.550	-0.036	0.003
-472.245	-0.270	-0.255	0.180
-471.230	-114.337	-0.255	0.049
-470.216	-200.000	-0.079	-0.349
-469.201	163.119	-0.040	-0.055
-468.186	-93.360	-0.450	0.123
-467.172	-200.000	-0.018	0.122
-466.157	-102.829	-0.047	-0.011
-465.143	-9.880	-0.088	-0.058
-464.128	25.129	0.198	0.163
-463.113	276.938	-0.167	0.294
-462.099	-200.000	-0.031	-0.369
-461.084	-17.118	-0.185	-0.115
-460.070	-8.440	0.164	-0.109
-459.055	-200.000	0.002	-0.284
-458.040	-71.648	-0.134	0.049
-457.026	31.891	-0.206	-0.175
-456.011	72.452	0.160	-0.165
-454.997	800.000	-0.084	0.306
-453.982	-200.000	-0.016	0.095
-452.968	81.310	0.083	-0.088
-451.953	-65.806	-0.148	-0.058
-450.938	-200.000	0.016	-0.188
-449.924	105.681	0.191	0.223
-448.909	-71.734	-0.112	0.041
-447.895	443.133	0.024	0.053
-446.880	72.147	0.219	0.225
-445.865	-81.495	0.197	0.064
-444.851	-146.540	-0.185	-0.016
-443.836	491.192	0.107	0.241
-442.822	301.663	0.060	0.110
-441.807	31.555	0.158	0.134
-440.792	222.271	-0.150	-0.238
-439.778	751.332	-0.100	0.267
-438.763	20.691	-0.209	0.167
-437.749	800.000	-0.165	0.554
-436.734	60.131	-0.125	0.122
-435.719	103.871	0.227	-0.264
-434.705	-200.000	0.015	0.282
-433.690	22.338	-0.013	-0.011
-432.676	-109.524	-0.321	0.067
-431.661	-104.356	0.071	-0.016
-430.646	-200.000	0.045	-0.217
-429.632	794.902	0.014	0.039
-428.617	397.516	0.035	0.071
-427.603	-200.000	-0.004	-0.253
-426.588	-98.688	0.059	0.015
-425.573	-106.358	0.132	0.029
-424.559	-95.695	-0.205	-0.054
-423.544	10.094	0.056	0.042
-422.530	170.669	0.079	0.112
-421.515	124.947	0.208	0.259
-420.500	211.995	-0.146	-0.227
-419.486	-200.000	0.007	0.163
-418.471	-29.069	0.288	0.163
-417.457	122.270	-0.045	-0.055
-416.442	-55.087	0.209	-0.093
-415.428	-200.000	-0.012	0.149
-414.413	-200.000	-0.051	-0.350
-413.398	-68.625	0.195	0.074
-412.384	103.203	0.050	-0.058
-411.369	172.739	0.074	-0.106
-410.355	-200.000	-0.001	-0.280
-409.340	385.259	-0.036	0.073
-408.325	800.000	-0.123	0.352
-407.311	800.000	0.038	0.115
-406.296	-101.308	-0.091	-0.022
-405.282	-186.234	0.226	0.003
-404.267	60.376	0.119	-0.117
-403.252	-200.000	0.078	-0.401
-402.238	-3.760	-0.201	-0.138
-401.223	129.426	-0.205	0.258
-400.209	-1.465	-0.068	0.047
-399.194	131.299	0.097	0.123
-398.179	-22.736	0.064	0.038
-397.165	-200.000	-0.025	-0.349
-396.150	102.460	0.087	0.100
-395.136	449.343	0.030	0.065
-394.121	97.489	-0.086	-0.097
-393.106	-18.465	0.167	-0.103
-392.092	239.287	-0.111	0.182
-391.077	108.790	-0.330	0.389
-390.063	227.163	0.092	0.147
-389.048	-169.083	-0.322	0.012
-388.033	-42.122	-0.138	-0.070
-387.019	128.609	0.231	0.291
-386.004	-74.590	0.131	0.046
-384.990	-200.000	-0.012	0.132
-383.975	-72.109	-0.270	-0.099
-382.960	-200.000	-0.036	-0.283
-381.946	800.000	0.107	-0.388
-380.931	543.104	0.087	-0.205
-379.917	43.816	0.214	0.193
-378.902	-95.597	-0.116	0.031
-377.888	-53.892	0.404	-0.181
-376.873	-16.359	-0.297	-0.185
-375.858	144.716	0.163	-0.214
-374.844	111.215	0.106	-0.126
-373.829	-88.233	0.126	-0.037
-372.815	-111.653	-0.157	0.031
-371.800	-84.025	0.299	-0.094
-370.785	-75.065	-0.268	-0.094
-369.771	-79.579	0.219	-0.073
-368.756	-200.000	-0.013	0.108
-367.742	434.500	-0.145	0.310
-366.727	-73.994	-0.167	0.060
-365.712	-138.567	0.063	0.007
-364.698	-200.000	0.004	0.144
-363.683	-171.836	0.335	0.011
-362.669	-200.000	0.066	-0.354
-361.654	28.343	0.087	0.072
-360.639	157.184	-0.072	0.098
-359.625	-152.154	0.042	-0.003
-358.610	-92.529	-0.136	0.038
-357.596	-200.000	0.017	0.096
-356.581	-147.275	-0.149	-0.012
-355.566	-200.000	0.011	0.316
-354.552	180.289	0.205	0.295
-353.537	309.263	-0.020	-0.038
-352.523	-200.000	0.015	0.088
-351.508	125.773	0.172	-0.214
-350.493	-200.000	0.011	0.283
-349.479	-200.000	-0.009	0.223
-348.464	800.000	-0.130	0.404
-347.450	-49.471	0.225	0.106
-346.435	-151.180	-0.388	0.029
-345.420	111.249	-0.248	-0.295
-344.406	-158.935	0.434	0.024
-343.391	315.048	0.072	-0.134
-342.377	-57.382	-0.381	0.165
-341.362	-200.000	-0.007	0.179
-340.348	110.852	0.127	0.150
-339.333	-1.938	0.129	0.089
-338.318	276.821	0.039	-0.068
-337.304	74.696	-0.108	-0.112
-336.289	136.303	-0.108	-0.139
-335.275	-74.583	0.244	0.086
-334.260	22.800	0.068	0.055
-333.245	-13.846	0.160	0.102
-332.231	574.632	-0.124	-0.297
-331.216	-200.000	-0.058	0.303
-330.202	-12.379	-0.173	0.111
-329.187	80.240	-0.134	-0.142
-328.172	230.976	0.013	0.021
-327.158	-200.000	0.036	-0.280
-326.143	-200.000	0.023	-0.154
-325.129	-200.000	0.019	0.187
-324.114	-200.000	0.026	0.313
-323.099	36.660	-0.133	0.115
-322.085	-200.000	-0.017	0.281
-321.070	-200.000	-0.018	0.129
-320.056	-200.000	-0.021	0.252
-319.041	-200.000	0.026	0.155
-318.026	-102.288	0.110	-0.026
-317.012	-56.075	0.103	-0.045
-315.997	-109.219	-0.252	-0.053
-314.983	800.000	-0.058	0.209
-313.968	58.305	0.299	-0.289
-312.953	-58.092	-0.194	0.083
-311.939	289.894	0.097	0.174
-310.924	87.024	-0.251	-0.273
-309.910	800.000	-0.041	-0.153
-308.895	-29.192	-0.250	0.141
-307.880	-200.000	0.070	-0.340
-306.866	-200.000	-0.029	0.199
-305.851	12.877	-0.244	0.185
-304.837	12.165	0.353	0.267
-303.822	26.466	-0.295	0.243
-302.807	-119.171	0.107	-0.018
-301.793	-200.000	0.013	0.071
-300.778	-45.905	0.034	-0.016
-299.764	-34.668	-0.212	-0.114
-298.749	-94.572	-0.165	0.044
-297.735	-77.132	-0.147	-0.050
-296.720	800.000	-0.023	-0.085
-295.705	-83.890	-0.296	-0.092
-294.691	4.692	0.257	-0.186
-293.676	-200.000	-0.010	0.158
-292.662	133.526	-0.068	0.086
-291.647	-127.110	-0.073	-0.011
-290.632	264.775	0.047	0.080
-289.618	313.514	-0.106	-0.195
-288.603	118.359	0.205	-0.249
-287.589	-84.505	0.415	0.129
-286.574	-70.045	-0.202	-0.075
-285.559	-78.340	0.130	-0.044
-284.545	800.000	0.017	-0.058
-283.530	439.417	-0.176	0.376
-282.516	-200.000	-0.034	-0.197
-281.501	9.135	0.216	0.160
-280.486	-70.680	0.176	-0.065
-279.472	-200.000	-0.027	-0.187
-278.457	335.085	0.065	0.124
-277.443	-34.247	-0.186	-0.100
-276.428	-200.000	-0.016	0.098
-275.413	-36.162	0.135	0.071
-274.399	421.722	0.083	0.175
-273.384	-200.000	-0.030	0.265
-272.370	-46.946	-0.062	-0.030
-271.355	343.724	0.027	0.051
-270.340	-119.317	0.114	0.020
-269.326	560.607	0.098	-0.232
-268.311	-200.000	-0.015	0.236
-267.297	-117.265	0.301	0.054
-266.282	190.302	0.038	-0.056
-265.267	-10.767	-0.137	-0.089
-264.253	-200.000	-0.025	0.174
-263.238	2.670	0.267	-0.190
-262.224	171.690	-0.113	0.160
-261.209	-36.921	0.200	0.105
-260.195	555.830	0.070	0.165
-259.180	-200.000	-0.042	-0.302
-258.165	360.280	-0.085	-0.167
-257.151	800.000	-0.207	-0.566
-256.136	-6.680	-0.209	-0.139
-255.122	13.890	-0.181	0.138
-254.107	-109.791	-0.070	0.014
-253.092	-200.000	-0.011	0.269
-252.078	17.218	0.146	0.114
-251.063	-34.854	0.488	0.261
-250.049	-200.000	0.446	-0.000
-249.034	-200.000	0.008	-0.300
-248.019	655.632	0.049	0.123
-247.005	-22.371	-0.252	-0.150
-245.990	234.510	0.031	-0.051
-244.976	36.741	0.104	0.090
-243.961	51.606	0.238	-0.222
-242.946	-159.437	0.269	-0.015
-241.932	-96.238	-0.226	-0.059
-240.917	-200.000	-0.043	-0.349
-239.903	-88.526	-0.095	0.028
-238.888	2.755	0.101	-0.072
-237.873	473.330	-0.169	0.374
-236.859	62.889	0.212	0.207
-235.844	-46.780	-0.193	-0.092
-234.830	800.000	0.090	0.329
-233.815	-200.000	0.017	0.102
-232.800	148.430	0.061	-0.081
-231.786	-200.000	0.013	0.303
-230.771	549.574	0.037	-0.088
-229.757	-26.370	-0.180	-0.104
-228.742	51.514	0.202	-0.188
-227.727	-168.671	-0.179	0.007
-226.713	21.300	0.050	0.040
-225.698	-11.629	0.169	-0.109
-224.684	800.000	0.047	-0.163
-223.669	-5.198	0.126	0.085
-222.655	106.531	0.049	0.057
-221.640	626.805	-0.145	-0.358
-220.625	-138.716	0.164	-0.018
-219.611	-67.013	0.129	0.050
-218.596	-19.076	-0.106	-0.065
-217.582	800.000	0.089	-0.350
-216.567	-200.000	-0.023	0.137
-215.552	24.819	-0.224	0.182
-214.538	800.000	-0.056	0.176
-213.523	-129.555	0.202	0.027
-212.509	-200.000	0.003	-0.396
-211.494	-200.000	-0.006	0.173
-210.479	-43.375	0.202	-0.100
-209.465	-132.187	-0.329	-0.042
-208.450	114.822	0.098	0.117
-207.436	309.512	0.137	0.251
-206.421	-200.000	0.015	-0.116
-205.406	328.806	-0.074	0.139
-204.392	800.000	-0.092	-0.342
-203.377	-200.000	0.165	0.001
-202.363	-76.519	0.218	0.075
-201.348	-200.000	0.000	0.083
-200.333	800.000	-0.077	-0.285
-199.319	323.577	0.017	0.031
-198.304	113.674	0.229	-0.272
-197.290	-17.860	0.222	-0.136
-196.275	800.000	-0.112	-0.320
-195.260	-25.246	0.244	0.142
-194.246	-66.123	0.221	-0.086
-193.231	-110.811	-0.225	-0.045
-192.217	-98.317	0.460	0.115
-191.202	800.000	-0.068	0.265
-190.187	-17.696	-0.231	-0.142
-189.173	371.651	-0.091	-0.181
-188.158	-193.738	-0.147	-0.001
-187.144	-200.000	0.077	-0.412
-186.129	-200.000	0.048	0.396
-185.114	101.227	-0.158	-0.180
-184.100	50.001	0.037	0.035
-183.085	476.723	-0.079	0.175
-182.071	-200.000	0.023	0.415
-181.056	416.553	0.187	0.389
-180.042	29.773	0.025	0.021
-179.027	-200.000	0.020	-0.198
-178.012	173.265	-0.105	-0.148
-176.998	133.450	-0.151	-0.191
-175.983	8.290	0.278	0.204
-174.969	107.832	0.104	0.121
-173.954	-50.044	-0.126	-0.058
-172.939	-200.000	-0.004	-0.135
-171.925	109.665	-0.110	-0.129
-170.910	-183.026	0.300	-0.005
-169.896	246.872	-0.239	-0.394
-168.881	-200.000	-0.056	-0.378
-167.866	0.190	-0.171	-0.119
-166.852	-164.451	-0.217	-0.010
-165.837	-42.743	-0.198	0.098
-164.823	-40.473	-0.108	0.055
-163.808	-70.222	0.365	0.136
-162.793	531.101	0.097	0.223
-161.779	-149.238	0.447	-0.035
-160.764	800.000	0.091	-0.302
-159.750	-51.077	-0.191	-0.087
-158.735	-113.182	0.233	-0.045
-157.720	-200.000	-0.009	-0.054
-156.706	-200.000	-0.051	-0.279
-155.691	-82.599	0.147	0.047
-154.677	-145.202	0.215	-0.019
-153.662	800.000	0.142	-0.392
-152.647	37.115	0.148	-0.128
-151.633	-26.929	-0.168	-0.096
-150.618	353.541	0.195	-0.378
-149.604	296.093	0.135	-0.242
-148.589	70.696	-0.391	0.395
-147.574	-200.000	0.033	-0.146
-146.560	-182.078	-0.389	-0.007
-145.545	41.018	0.305	0.269
-144.531	800.000	-0.084	0.232
-143.516	-88.771	-0.143	0.041
-142.502	-200.000	-0.005	0.070
-141.487	-91.890	-0.187	0.052
-140.472	784.062	-0.061	-0.163
-139.458	-38.164	-0.238	0.123
-138.443	-134.219	0.359	0.043
-137.429	800.000	-0.035	-0.135
-136.414	-200.000	-0.018	0.341
-135.399	25.733	-0.073	-0.060
-134.385	-114.601	0.095	0.018
-133.370	110.955	0.139	0.163
-132.356	239.674	-0.091	0.148
-131.341	-55.427	0.342	-0.150
-130.326	-60.529	0.166	0.069
-129.312	-75.362	-0.070	0.024
-128.297	800.000	0.051	0.173
-127.283	800.000	0.044	0.149
-126.268	-105.848	-0.149	-0.033
-125.253	6.204	-0.020	-0.015
-124.239	85.990	0.411	0.442
-123.224	304.617	-0.128	-0.232
-122.210	109.439	-0.205	0.240
-121.195	-126.558	-0.032	0.005
-120.180	-200.000	-0.033	-0.256
-119.166	-158.590	0.182	0.010
-118.151	-166.919	0.290	-0.012
-117.137	-55.273	-0.117	-0.051
-116.122	-200.000	-0.055	0.412
-115.107	-200.000	0.039	-0.186
-114.093	-94.582	0.117	-0.031
-113.078	680.241	-0.130	-0.330
-112.064	-200.000	-0.015	-0.351
-111.049	-200.000	-0.006	-0.142
-110.034	-200.000	-0.007	-0.148
-109.020	800.000	0.128	0.413
-108.005	-53.605	0.224	0.100
-106.991	-66.187	-0.089	-0.034
-105.976	106.095	-0.049	-0.056
-104.962	162.935	0.169	0.231
-103.947	-39.866	-0.260	0.132
-102.932	-106.131	-0.207	-0.045
-101.918	-200.000	0.052	-0.344
-100.903	-36.809	0.189	-0.099
-99.889	-152.525	0.085	-0.006
-98.874	316.837	0.078	0.143
-97.859	-99.351	0.109	-0.027
-96.845	-149.942	-0.071	-0.005
-95.830	800.000	0.048	0.168
-94.816	800.000	-0.029	0.101
-93.801	147.724	0.131	-0.171
-92.786	-30.376	0.108	-0.060
-91.772	33.820	-0.130	0.110
-90.757	-145.996	0.216	0.019
-89.743	-127.275	-0.217	0.031
-88.728	-106.374	0.197	0.043
-87.713	-14.218	0.126	-0.079
-86.699	-200.000	-0.001	-0.101
-85.684	62.971	-0.101	0.099
-84.670	-48.170	-0.133	-0.063
-83.655	144.985	0.030	-0.039
-82.640	29.937	0.098	-0.081
-81.626	404.629	-0.100	0.206
-80.611	341.256	0.207	-0.394
-79.597	73.893	0.096	-0.098
-78.582	254.432	0.087	0.145
-77.567	49.237	0.077	0.070
-76.553	800.000	-0.070	-0.284
-75.538	-200.000	-0.008	-0.292
-74.524	-2.251	-0.165	-0.112
-73.509	-18.548	0.240	0.146
-72.494	-200.000	0.042	-0.298
-71.480	214.100	0.055	0.085
-70.465	12.690	0.194	0.146
-69.451	-36.187	0.227	-0.119
-68.436	448.256	-0.128	0.274
-67.422	30.506	-0.085	0.071
-66.407	-200.000	0.024	-0.158
-65.392	-200.000	0.048	0.207
-64.378	-37.516	-0.311	-0.162
-63.363	343.153	0.042	-0.080
-62.349	-200.000	0.029	0.177
-61.334	26.727	-1.144	-0.933
-60.319	217.367	0.516	0.801
-59.305	515.847	-0.505	-1.148
-58.290	740.650	0.619	1.618
-57.276	638.235	0.669	1.654
-56.261	-200.000	119.745	627.347
-55.246	425.548	1530.831	3208.173
-54.232	148.643	2689.460	3535.823
-53.217	92.957	2267.482	2492.522
-52.203	33.610	1884.975	1594.051
-51.188	27.949	1682.044	1379.775
-50.173	25.718	1642.935	1331.163
-49.159	45.765	1709.177	1537.122
-48.144	43.965	1721.887	1534.869
-47.130	27.455	1674.063	1369.297
-46.115	25.001	1659.081	1338.680
-45.100	24.742	1654.250	1332.794
-44.086	24.739	1651.572	1330.560
-43.071	24.777	1648.906	1328.643
-42.057	24.708	1647.075	1326.604
-41.042	24.785	1644.865	1325.344
-40.027	24.838	1642.951	1324.141
-39.013	24.838	1640.805	1322.359
-37.998	24.681	1640.007	1320.504
-36.984	24.756	1638.285	1319.619
-35.969	24.916	1636.735	1319.491
-34.954	24.937	1635.122	1318.297
-33.940	24.876	1633.351	1316.371
-32.925	24.864	1632.073	1315.198
-31.911	24.950	1630.219	1314.283
-30.896	24.856	1628.959	1312.526
-29.881	24.955	1626.899	1311.535
-28.867	24.879	1625.861	1310.091
-27.852	24.911	1623.914	1308.707
-26.838	24.883	1623.105	1307.797
-25.823	24.876	1621.614	1306.494
-24.809	24.919	1619.958	1305.421
-23.794	24.855	1618.883	1304.035
-22.779	24.921	1617.125	1303.051
-21.765	24.836	1616.139	1301.583
-20.750	24.882	1614.443	1300.498
-19.736	24.976	1612.642	1299.683
-18.721	24.862	1611.443	1297.840
-17.706	24.884	1610.083	1296.847
-16.692	24.916	1608.632	1295.863
-15.677	24.933	1606.729	1294.402
-14.663	24.858	1605.686	1292.963
-13.648	24.934	1604.142	1292.218
-12.633	24.999	1602.998	1291.714
-11.619	24.934	1601.293	1289.821
-10.604	24.988	1599.471	1288.694
-9.590	24.891	1598.903	1287.484
-8.575	24.932	1597.170	1286.332
-7.560	24.882	1596.196	1285.137
-6.546	24.951	1595.212	1284.791
-5.531	24.989	1593.646	1283.752
-4.517	24.898	1593.048	1282.563
-3.502	24.918	1591.878	1281.717
-2.487	24.978	1589.857	1280.465
-1.473	24.495	1577.285	1266.863
-0.458	21.253	1558.049	1228.604
0.556	16.381	1559.439	1194.902
1.571	14.003	1581.734	1194.799
2.586	13.796	1594.122	1202.548
3.600	12.869	1541.539	1156.283
4.615	7.546	1436.125	1042.255
5.629	1.909	1376.927	963.652
6.644	0.923	1369.481	952.154
7.659	0.754	1369.099	950.742
8.673	0.800	1368.075	950.237
9.688	0.754	1365.751	948.252
10.702	0.637	1362.138	944.927
11.717	3.348	1365.989	964.505
12.731	10.143	1376.333	1014.463
13.746	15.840	1384.739	1056.423
14.761	17.325	1386.007	1066.620
15.775	16.686	1384.324	1061.229
16.790	15.789	1381.105	1053.056
17.804	15.052	1378.948	1046.705
18.819	14.561	1377.838	1042.706
19.834	14.348	1376.502	1040.273
20.848	14.097	1375.227	1037.649
21.863	13.925	1373.426	1035.124
22.877	13.760	1372.553	1033.353
23.892	13.666	1371.525	1031.901
24.907	13.665	1370.705	1031.184
25.921	13.756	1369.650	1030.864
26.936	13.701	1369.336	1030.197
27.950	13.706	1368.158	1029.251
28.965	13.723	1367.399	1028.696
29.980	13.832	1365.866	1028.126
30.994	13.799	1365.058	1027.221
32.009	13.966	1364.289	1027.584
33.023	13.911	1363.145	1026.290
34.038	13.804	1362.483	1025.042
35.053	13.842	1360.818	1023.931
36.067	13.811	1359.864	1022.932
37.082	13.790	1359.386	1022.353
38.096	13.898	1357.846	1021.769
39.111	13.843	1357.144	1020.812
40.126	13.871	1355.958	1020.004
41.140	13.750	1355.430	1018.774
42.155	13.586	1355.380	1017.637
43.169	13.723	1355.116	1018.191
44.184	13.666	1354.979	1017.645
45.199	13.664	1354.344	1017.070
46.213	13.720	1354.091	1017.134
47.228	13.760	1352.698	1016.238
48.242	13.759	1351.504	1015.249
49.257	13.796	1350.415	1014.565
50.271	13.802	1349.081	1013.509
51.286	13.878	1347.356	1012.590
52.301	13.775	1346.413	1011.160
53.315	13.705	1345.794	1010.180
54.330	13.714	1344.618	1009.261
55.344	13.736	1342.637	1007.819
56.359	13.746	1341.949	1007.275
57.374	13.652	1341.520	1006.295
58.388	13.752	1340.292	1005.890
59.403	13.584	1339.943	1004.523
60.417	13.600	1338.782	1003.657
61.432	13.562	1338.470	1003.108
62.447	13.527	1337.258	1001.899
63.461	13.552	1335.545	1000.674
64.476	13.584	1334.954	1000.340
65.490	13.652	1333.738	999.750
66.505	13.669	1331.859	998.355
67.520	13.664	1330.913	997.525
68.534	13.665	1329.586	996.448
69.549	13.667	1328.576	995.620
70.563	13.624	1327.349	994.352
71.578	13.614	1326.619	993.659
72.593	13.654	1325.516	992.983
73.607	13.574	1324.873	991.936
74.622	13.471	1324.473	990.931
75.636	13.541	1323.268	990.359
76.651	13.595	1322.370	989.922
77.666	13.499	1322.275	989.192
78.680	13.527	1321.590	988.757
79.695	13.607	1320.462	988.304
80.709	13.452	1319.861	986.842
81.724	13.631	1318.906	987.109
82.739	13.651	1318.063	986.507
83.753	13.694	1316.980	985.862
84.768	13.753	1315.834	985.273
85.782	13.776	1315.187	984.835
86.797	13.781	1312.932	983.086
87.812	13.706	1312.344	982.118
88.826	13.672	1311.162	980.948
89.841	13.696	1309.831	980.007
90.855	13.750	1308.943	979.572
91.870	13.809	1308.217	979.292
92.884	13.788	1307.309	978.399
93.899	13.799	1306.464	977.748
94.914	13.907	1305.510	977.583
95.928	13.868	1304.782	976.719
96.943	13.847	1303.901	975.853
97.957	13.839	1303.083	975.105
98.972	13.848	1301.831	974.137
99.987	13.775	1300.749	972.811
101.001	13.671	1300.025	971.572
102.016	13.820	1299.081	971.653
103.030	13.857	1298.184	971.114
104.045	13.835	1296.995	970.013
105.060	13.826	1295.676	968.885
106.074	13.742	1294.761	967.628
107.089	13.696	1293.475	966.309
108.103	13.761	1291.678	965.264
109.118	13.757	1290.826	964.519
110.133	13.763	1289.234	963.280
111.147	13.727	1288.034	962.087
112.162	13.737	1286.590	960.979
113.176	13.844	1285.512	960.706
114.191	13.810	1284.999	960.042
115.206	13.764	1283.526	958.592
116.220	13.708	1282.585	957.482
117.235	13.807	1281.038	956.811
118.249	13.724	1280.423	955.792
119.264	13.683	1279.259	954.600
120.279	13.659	1278.446	953.771
121.293	13.628	1277.885	953.088
122.308	13.704	1275.984	952.026
123.322	13.656	1275.036	950.960
124.337	13.710	1274.498	950.782
125.352	13.695	1273.415	949.802
126.366	13.598	1271.964	948.081
127.381	13.654	1270.735	947.404
128.395	13.667	1269.190	946.244
129.410	13.756	1268.840	946.404
130.424	13.765	1268.088	945.812
131.439	13.861	1266.841	945.346
132.454	13.784	1266.366	944.470
133.468	13.730	1265.395	943.354
134.483	13.786	1264.558	942.962
135.497	13.803	1263.216	941.975
136.512	13.729	1262.527	940.962
137.527	13.716	1261.046	939.702
138.541	13.831	1259.134	938.841
139.556	13.856	1257.972	938.033
140.570	13.794	1257.197	937.024
141.585	13.698	1256.219	935.672
142.600	13.894	1254.390	935.329
143.614	13.888	1253.510	934.558
144.629	13.849	1252.968	933.852
145.643	13.881	1251.762	933.049
146.658	13.832	1250.492	931.745
147.673	13.883	1248.896	930.760
148.687	13.879	1247.964	929.959
149.702	13.873	1246.460	928.721
150.716	13.865	1244.808	927.367
151.731	13.835	1244.561	926.934
152.746	13.923	1242.932	926.125
153.760	13.917	1241.657	925.060
154.775	14.038	1240.490	924.785
155.789	13.988	1239.401	923.613
156.804	13.974	1238.222	922.576
157.819	13.968	1237.124	921.638
158.833	14.033	1236.644	921.560
159.848	14.058	1235.390	920.685
160.862	14.029	1234.861	920.050
161.877	14.007	1233.272	918.661
162.892	13.994	1232.194	917.705
163.906	13.978	1231.343	916.903
164.921	13.926	1230.650	916.016
165.935	13.991	1229.606	915.518
166.950	14.075	1228.985	915.437
167.964	14.035	1228.517	914.784
168.979	14.142	1227.301	914.388
169.994	14.110	1226.895	913.831
171.008	14.139	1225.832	913.117
172.023	14.030	1225.390	912.110
173.037	14.157	1224.569	912.110
174.052	14.128	1223.083	910.764
175.067	14.149	1222.345	910.249
176.081	14.122	1221.347	909.277
177.096	14.205	1220.174	908.777
178.110	14.106	1219.382	907.568
179.125	14.129	1218.111	906.670
180.140	14.254	1216.525	906.085
181.154	14.156	1215.623	904.803
182.169	14.165	1214.671	904.065
183.183	14.181	1213.582	903.260
184.198	14.218	1212.450	902.540
185.213	14.288	1211.150	901.868
186.227	14.305	1210.295	901.245
187.242	14.299	1209.284	900.382
188.256	14.426	1208.168	900.153
189.271	14.497	1206.618	899.302
190.286	14.241	1206.010	897.392
191.300	14.176	1205.740	896.759
192.315	14.083	1204.979	895.614
193.329	14.174	1204.296	895.518
194.344	14.289	1203.203	895.241
195.359	14.291	1202.673	894.778
196.373	14.374	1202.124	894.740
197.388	14.348	1201.847	894.311
198.402	14.438	1200.707	893.870
199.417	14.437	1200.257	893.447
200.432	14.487	1199.588	893.137
201.446	14.416	1198.986	892.235
202.461	14.620	1197.522	892.154
203.475	14.616	1196.948	891.625
204.490	14.638	1195.621	890.675
205.504	14.574	1194.246	889.231
206.519	14.553	1193.117	888.203
207.534	14.581	1191.969	887.418
208.548	14.570	1191.122	886.651
209.563	14.547	1190.376	885.895
210.577	14.619	1189.316	885.411
211.592	14.609	1188.763	884.868
212.607	14.538	1188.069	883.896
213.621	14.636	1187.076	883.595
214.636	14.705	1186.096	883.152
215.650	14.658	1184.973	881.993
216.665	14.644	1184.516	881.499
217.680	14.813	1183.063	881.231
218.694	14.771	1182.502	880.512
219.709	14.749	1181.796	879.792
220.723	14.832	1180.910	879.494
221.738	14.740	1179.884	878.169
222.753	14.748	1179.231	877.647
223.767	14.864	1178.667	877.760
224.782	14.874	1177.711	877.020
225.796	14.907	1177.388	876.877
226.811	14.950	1176.718	876.526
227.826	14.884	1175.959	875.535
228.840	14.901	1175.393	875.128
229.855	14.854	1174.724	874.307
230.869	14.917	1173.547	873.679
231.884	15.019	1173.017	873.741
232.899	14.888	1172.357	872.491
233.913	14.829	1171.565	871.516
234.928	14.938	1170.545	871.246
235.942	14.879	1169.908	870.390
236.957	14.870	1169.217	869.750
237.972	14.849	1168.679	869.161
238.986	14.913	1167.713	868.700
240.001	14.923	1166.931	868.095
241.015	14.966	1166.055	867.588
242.030	15.029	1165.470	867.405
243.045	15.021	1164.361	866.460
244.059	15.085	1163.869	866.348
245.074	15.143	1162.944	865.885
246.088	15.006	1162.553	864.805
247.103	15.058	1161.504	864.220
248.117	15.034	1160.964	863.617
249.132	15.184	1159.866	863.498
250.147	15.231	1159.179	863.152
251.161	15.320	1157.967	862.632
252.176	15.272	1157.516	861.971
253.190	15.329	1157.005	861.808
254.205	15.274	1156.792	861.291
255.220	15.288	1156.161	860.817
256.234	15.305	1155.750	860.522
257.249	15.399	1154.598	860.068
258.263	15.397	1153.968	859.511
259.278	15.376	1153.615	859.067
260.293	15.492	1152.915	859.065
261.307	15.465	1152.277	858.375
262.322	15.426	1151.569	857.568
263.336	15.458	1150.790	857.077
264.351	15.477	1150.665	857.004
265.366	15.481	1149.673	856.213
266.380	15.552	1148.827	855.867
267.395	15.556	1148.140	855.299
268.409	15.498	1147.131	854.176
269.424	15.581	1146.433	854.006
270.439	15.501	1146.307	853.427
271.453	15.455	1145.534	852.542
272.468	15.453	1144.513	851.697
273.482	15.637	1143.896	852.095
274.497	15.598	1143.168	851.284
275.512	15.575	1142.590	850.659
276.526	15.581	1141.655	849.918
277.541	15.594	1140.814	849.282
278.555	15.705	1140.014	849.174
279.570	15.741	1139.337	848.774
280.585	15.796	1138.366	848.252
281.599	15.803	1137.720	847.734
282.614	15.780	1136.891	846.922
283.628	15.678	1135.920	845.613
284.643	15.735	1134.942	845.097
285.657	15.734	1134.332	844.563
286.672	15.816	1133.304	844.135
287.687	15.848	1132.350	843.510
288.701	15.884	1131.388	842.899
289.716	15.794	1130.721	841.876
290.730	15.813	1130.009	841.368
291.745	15.909	1129.400	841.320
292.760	15.882	1128.976	840.795
293.774	16.022	1128.136	840.793
294.789	16.027	1127.529	840.290
295.803	16.028	1127.072	839.881
296.818	16.106	1125.943	839.352
297.833	15.945	1125.445	838.105
298.847	15.892	1124.822	837.302
299.862	16.038	1123.306	836.828
300.876	16.009	1123.361	836.650
301.891	16.090	1122.696	836.482
302.906	16.100	1121.729	835.737
303.920	16.155	1120.937	835.344
304.935	16.149	1120.443	834.875
305.949	16.117	1119.777	834.145
306.964	16.153	1119.170	833.797
307.979	16.305	1118.095	833.673
308.993	16.359	1117.582	833.483
310.008	16.179	1117.170	832.215
311.022	16.249	1115.867	831.514
312.037	16.258	1115.249	831.024
313.052	16.307	1114.293	830.481
314.066	16.221	1113.542	829.423
315.081	16.160	1113.061	828.693
316.095	16.286	1111.804	828.303
317.110	16.294	1111.131	827.766
318.125	16.268	1110.625	827.188
319.139	16.258	1109.925	826.544
320.154	16.216	1109.083	825.640
321.168	16.257	1108.702	825.486
322.183	16.241	1108.338	825.064
323.197	16.383	1107.335	824.934
324.212	16.258	1106.773	823.833
325.227	16.321	1106.456	823.835
326.241	16.339	1105.582	823.194
327.256	16.344	1104.692	822.484
328.270	16.347	1103.517	821.552
329.285	16.172	1103.179	820.376
330.300	16.259	1102.144	819.956
331.314	16.389	1101.156	819.779
332.329	16.470	1099.946	819.202
333.343	16.395	1099.013	818.067
334.358	16.543	1098.297	818.178
335.373	16.401	1097.927	817.145
336.387	16.424	1097.148	816.606
337.402	16.539	1096.317	816.471
338.416	16.591	1095.455	816.007
339.431	16.479	1095.628	815.524
340.446	16.654	1094.346	815.338
341.460	16.530	1093.901	814.340
342.475	16.626	1092.674	813.815
343.489	16.741	1091.425	813.363
344.504	16.740	1090.671	812.726
345.519	16.678	1090.002	811.858
346.533	16.705	1089.193	811.314
347.548	16.644	1088.996	810.804
348.562	16.630	1087.717	809.711
349.577	16.749	1087.043	809.707
350.592	16.718	1086.585	809.148
351.606	16.783	1085.674	808.704
352.621	16.748	1084.847	807.853
353.635	16.730	1084.363	807.334
354.650	16.720	1083.338	806.453
355.665	16.702	1083.073	806.098
356.679	16.835	1082.250	806.047
357.694	16.872	1081.671	805.721
358.708	16.814	1081.467	805.220
359.723	16.898	1080.750	805.012
360.738	16.905	1079.746	804.226
361.752	16.884	1079.463	803.847
362.767	17.011	1078.517	803.673
363.781	16.927	1077.959	802.790
364.796	17.031	1077.365	802.767
365.810	16.928	1077.327	802.178
366.825	17.034	1076.200	801.772
367.840	17.011	1076.169	801.570
368.854	17.121	1075.255	801.334
369.869	17.093	1074.630	800.665
370.883	17.057	1073.834	799.834
371.898	17.040	1072.866	798.963
372.913	16.988	1072.637	798.474
373.927	17.181	1071.951	798.803
374.942	17.298	1071.083	798.633
375.956	17.214	1070.765	797.934
376.971	17.252	1070.288	797.682
377.986	17.172	1069.993	797.017
379.000	17.281	1069.032	796.741
380.015	17.289	1068.493	796.308
381.029	17.287	1067.970	795.840
382.044	17.294	1067.154	795.191
383.059	17.222	1066.756	794.490
384.073	17.470	1065.446	794.601
385.088	17.430	1064.765	793.837
386.102	17.317	1064.015	792.679
387.117	17.386	1062.639	791.907
388.132	17.315	1061.967	791.007
389.146	17.230	1061.518	790.207
390.161	17.356	1060.411	789.898
391.175	17.491	1059.583	789.836
392.190	17.339	1059.529	789.023
393.205	17.405	1058.587	788.557
394.219	17.455	1057.817	788.145
395.234	17.445	1056.711	787.203
396.248	17.414	1055.648	786.198
397.263	17.511	1054.611	785.805
398.278	17.496	1054.062	785.256
399.292	17.361	1053.674	784.274
400.307	17.449	1052.719	783.903
401.321	17.417	1051.913	783.084
402.336	17.484	1051.407	782.948
403.350	17.513	1050.711	782.491
404.365	17.437	1050.294	781.763
405.380	17.603	1049.640	781.971
406.394	17.601	1048.691	781.185
407.409	17.596	1047.583	780.267
408.423	17.663	1047.197	780.217
409.438	17.675	1046.449	779.646
410.453	17.702	1045.929	779.312
411.467	17.684	1045.538	778.868
412.482	17.610	1044.969	778.040
413.496	17.819	1044.292	778.418
414.511	17.843	1043.403	777.797
415.526	17.936	1042.603	777.556
416.540	17.855	1042.664	777.162
417.555	17.796	1042.067	776.381
418.569	17.841	1041.215	775.884
419.584	17.861	1040.850	775.632
420.599	17.793	1040.265	774.819
421.613	109.451	1328.308	1488.561
422.628	100.531	1370.254	1488.625
