DTS Sentinel unit serial number:	SN413079Multiplexer serial number:	ORYXHardware model number:	OX4-SRSoftware version number:	ORYX F/W v4.00 Oryx Data Collector v3.7.2.0data status	okinstallation	princeton_trtdifferential loss correction	single-endedforward channel	channel 2reverse channel	N/Adate	2019/09/16time	21:39:35forward acquisition time	60.00reverse acquisition time	0.00gamma	496.2192k internal	0.2329k external	0.2329temperature offset calibration	0.9966default loss term (dB/km)	0.3790temperature slope calibration	1.0000multiplexer offset coefficient	1.0000multiplexer slope coefficient	1.0000fibre end	0.00T internal ref (°C)	31.37T ext. ref 1 (°C)	0.05T ext. ref 2 (°C)	25.61length (m)	temperature (°C)	Stokes	anti-Stokes-747.200	-134.213	-0.232	0.029
-746.185	800.000	0.072	0.308
-745.171	-200.000	0.052	-0.321
-744.156	-33.348	0.075	0.042
-743.142	800.000	0.068	0.204
-742.127	-19.794	-0.067	0.042
-741.112	67.326	0.079	0.081
-740.098	179.745	-0.088	0.129
-739.083	800.000	0.032	0.112
-738.069	243.300	-0.052	0.089
-737.054	-7.530	-0.268	0.183
-736.039	480.933	0.140	-0.319
-735.025	54.095	-0.180	0.174
-734.010	-55.339	-0.324	-0.146
-732.996	-200.000	-0.012	0.241
-731.981	-200.000	-0.011	0.143
-730.966	-168.084	-0.440	-0.017
-729.952	122.005	-0.150	0.189
-728.937	-200.000	0.003	0.231
-727.923	-33.877	0.326	-0.181
-726.908	-27.014	-0.285	-0.167
-725.894	-66.575	-0.205	-0.082
-724.879	-123.020	-0.148	0.024
-723.864	120.542	-0.146	0.182
-722.850	800.000	0.024	-0.093
-721.835	-200.000	-0.007	-0.268
-720.821	5.384	-0.156	0.116
-719.806	800.000	-0.087	0.268
-718.791	800.000	-0.144	-0.602
-717.777	-12.990	0.097	-0.064
-716.762	-50.571	-0.160	0.076
-715.748	-200.000	-0.038	0.198
-714.733	-152.232	0.125	-0.009
-713.718	-131.345	0.044	0.006
-712.704	27.058	-0.128	-0.108
-711.689	-161.208	-0.426	0.022
-710.675	574.077	-0.081	-0.199
-709.660	-200.000	0.020	-0.301
-708.645	206.450	0.070	0.109
-707.631	-80.097	0.220	-0.074
-706.616	159.363	0.087	0.122
-705.602	53.416	-0.202	-0.195
-704.587	-129.625	-0.096	0.013
-703.572	-96.776	0.275	-0.073
-702.558	66.655	-0.211	0.216
-701.543	-93.274	0.240	-0.067
-700.529	-49.224	0.097	0.047
-699.514	-200.000	0.027	-0.205
-698.499	-129.312	-0.244	0.034
-697.485	-81.914	-0.196	0.065
-696.470	-188.168	-0.195	0.003
-695.456	61.295	-0.085	-0.085
-694.441	55.232	0.167	0.162
-693.426	-58.511	0.165	0.072
-692.412	800.000	0.030	-0.108
-691.397	-78.447	-0.290	-0.100
-690.383	131.266	-0.131	0.169
-689.368	644.622	-0.094	-0.241
-688.354	-200.000	0.008	-0.202
-687.339	122.061	0.143	-0.180
-686.324	91.541	-0.199	0.225
-685.310	800.000	0.019	0.069
-684.295	-72.217	-0.276	0.103
-683.281	-70.108	-0.116	0.044
-682.266	412.605	-0.087	0.185
-681.251	-200.000	0.007	0.105
-680.237	-200.000	-0.018	0.233
-679.222	-86.462	-0.110	-0.034
-678.208	5.627	0.266	-0.197
-677.193	-54.588	-0.327	-0.149
-676.178	-95.574	-0.082	0.022
-675.164	800.000	-0.110	-0.306
-674.149	-200.000	0.080	0.356
-673.135	-111.830	-0.099	-0.020
-672.120	-111.260	0.405	-0.083
-671.105	-200.000	0.019	0.129
-670.091	-200.000	-0.004	-0.083
-669.076	744.292	-0.013	0.035
-668.062	-59.839	-0.331	0.142
-667.047	-41.427	-0.193	0.100
-666.032	-122.266	0.374	0.061
-665.018	-95.621	0.438	0.118
-664.003	-200.000	-0.066	-0.338
-662.989	-200.000	0.003	0.023
-661.974	223.211	-0.048	-0.077
-660.959	800.000	-0.036	-0.116
-659.945	22.978	0.143	-0.118
-658.930	-200.000	-0.085	-0.391
-657.916	216.292	0.099	0.158
-656.901	-200.000	0.001	0.007
-655.886	262.244	0.052	0.091
-654.872	-200.000	0.017	-0.174
-653.857	-188.139	-0.407	-0.005
-652.843	136.882	0.104	-0.136
-651.828	561.521	-0.116	0.281
-650.814	-24.317	0.047	0.028
-649.799	466.056	-0.068	0.154
-648.784	-200.000	0.038	-0.211
-647.770	800.000	-0.059	-0.213
-646.755	-60.235	0.314	0.134
-645.741	-56.699	-0.176	0.078
-644.726	202.765	0.221	-0.343
-643.711	-127.538	-0.349	0.051
-642.697	-90.251	0.137	-0.040
-641.682	8.098	-0.095	-0.072
-640.668	-19.178	-0.147	-0.091
-639.653	470.933	0.025	-0.057
-638.638	-64.961	-0.171	-0.069
-637.624	79.988	0.095	-0.102
-636.609	-70.895	0.100	-0.038
-635.595	-1.932	-0.048	-0.034
-634.580	88.569	-0.221	0.247
-633.565	-52.681	0.196	-0.091
-632.551	800.000	0.040	0.154
-631.536	-53.957	0.213	-0.097
-630.522	-182.985	-0.271	-0.005
-629.507	2.519	-0.151	-0.109
-628.492	-42.443	-0.346	-0.177
-627.478	-200.000	0.024	-0.163
-626.463	-200.000	0.003	0.079
-625.449	-163.036	0.074	-0.004
-624.434	-107.507	-0.148	0.033
-623.419	-92.314	-0.145	-0.041
-622.405	-66.787	0.129	0.051
-621.390	83.809	0.085	0.093
-620.376	800.000	-0.017	0.067
-619.361	88.606	0.201	-0.224
-618.346	178.559	0.100	0.146
-617.332	-52.923	-0.189	0.087
-616.317	-200.000	-0.005	0.037
-615.303	800.000	-0.025	0.074
-614.288	-79.695	0.288	0.097
-613.273	68.709	0.120	-0.123
-612.259	-143.056	0.196	-0.019
-611.244	353.641	-0.066	-0.131
-610.230	174.786	-0.037	0.054
-609.215	183.375	0.061	0.090
-608.201	-141.765	0.236	-0.024
-607.186	28.308	0.139	-0.118
-606.171	79.693	0.257	0.277
-605.157	136.249	-0.164	-0.214
-604.142	-3.844	-0.143	-0.099
-603.128	286.088	0.055	0.100
-602.113	11.896	0.063	0.048
-601.098	-200.000	-0.003	0.057
-600.084	-41.462	-0.130	-0.067
-599.069	-105.375	-0.096	-0.022
-598.055	659.063	-0.046	-0.118
-597.040	200.349	0.112	-0.173
-596.025	-49.809	-0.103	0.049
-595.011	55.088	-0.428	0.414
-593.996	-94.950	0.214	-0.058
-592.982	-103.774	0.056	-0.013
-591.967	-21.244	0.225	-0.138
-590.952	-80.972	-0.107	0.036
-589.938	-200.000	0.069	0.470
-588.923	66.253	0.182	0.186
-587.909	-127.440	0.171	0.025
-586.894	98.129	-0.116	-0.134
-585.879	800.000	0.103	0.291
-584.865	800.000	0.143	0.462
-583.850	800.000	-0.070	0.260
-582.836	-56.224	-0.212	0.094
-581.821	-70.980	-0.084	-0.032
-580.806	-92.999	0.110	-0.031
-579.792	-106.781	-0.342	0.076
-578.777	800.000	0.065	-0.185
-577.763	36.721	-0.186	-0.165
-576.748	-145.634	0.283	0.025
-575.733	-162.244	0.123	0.006
-574.719	55.514	-0.251	-0.244
-573.704	168.868	0.082	0.117
-572.690	497.265	-0.130	0.298
-571.675	-154.915	0.133	0.009
-570.661	500.021	-0.065	-0.150
-569.646	-6.867	-0.120	0.081
-568.631	-40.673	-0.107	0.055
-567.617	-200.000	0.149	-0.000
-566.602	-200.000	-0.020	-0.114
-565.588	-71.894	0.263	-0.098
-564.573	444.529	-0.083	-0.182
-563.558	800.000	-0.032	-0.119
-562.544	-120.953	0.176	-0.030
-561.529	-148.778	-0.031	-0.002
-560.515	-142.329	-0.247	-0.024
-559.500	-200.000	-0.005	-0.223
-558.485	-150.908	-0.035	0.003
-557.471	-200.000	0.002	0.030
-556.456	73.465	0.149	-0.156
-555.442	-200.000	-0.024	0.118
-554.427	-142.550	0.274	0.027
-553.412	-94.271	0.202	0.055
-552.398	116.194	-0.151	0.184
-551.383	71.079	0.261	-0.270
-550.369	-135.315	-0.013	-0.002
-549.354	800.000	-0.102	0.394
-548.339	350.985	0.131	0.260
-547.325	-102.722	0.236	0.056
-546.310	297.703	-0.107	-0.196
-545.296	393.925	-0.125	0.261
-544.281	-65.519	-0.185	0.074
-543.266	35.409	-0.239	0.210
-542.252	-200.000	-0.017	0.162
-541.237	9.476	0.099	0.075
-540.223	271.412	-0.129	-0.227
-539.208	473.417	0.115	-0.259
-538.193	-200.000	-0.035	-0.209
-537.179	-200.000	-0.029	0.277
-536.164	307.489	0.141	-0.262
-535.150	-91.445	-0.218	0.062
-534.135	-59.265	-0.172	-0.074
-533.121	250.920	0.098	0.166
-532.106	-31.511	-0.132	-0.074
-531.091	-200.000	0.013	0.125
-530.077	22.366	-0.276	-0.225
-529.062	-200.000	-0.019	-0.186
-528.048	-88.462	0.075	-0.022
-527.033	252.250	-0.115	-0.196
-526.018	135.303	-0.189	-0.245
-525.004	620.190	0.115	0.288
-523.989	-68.262	-0.261	-0.101
-522.975	-108.668	-0.115	0.025
-521.960	-200.000	-0.026	-0.328
-520.945	-110.678	0.321	-0.066
-519.931	-78.584	0.238	-0.081
-518.916	295.224	0.225	-0.410
-517.902	-125.643	0.471	0.071
-516.887	800.000	0.058	-0.240
-515.872	-69.481	0.200	-0.076
-514.858	213.065	-0.013	0.020
-513.843	29.261	-0.071	-0.060
-512.829	46.234	0.147	-0.136
-511.814	41.332	0.202	0.183
-510.799	142.313	-0.052	0.068
-509.785	-200.000	-0.020	0.149
-508.770	-123.828	0.236	0.037
-507.756	172.255	0.107	0.153
-506.741	748.262	-0.029	-0.077
-505.726	123.855	0.121	-0.152
-504.712	6.572	-0.145	-0.108
-503.697	-85.686	-0.349	-0.108
-502.683	-200.000	-0.030	0.273
-501.668	18.065	-0.168	-0.133
-500.653	120.568	0.080	0.099
-499.639	-62.303	-0.253	0.105
-498.624	800.000	-0.066	0.211
-497.610	-191.774	-0.194	0.002
-496.595	68.508	0.384	0.392
-495.581	253.872	0.070	0.119
-494.566	231.099	0.127	-0.207
-493.551	-200.000	0.045	-0.200
-492.537	-143.147	0.396	0.038
-491.522	-132.534	-0.336	-0.043
-490.508	450.004	0.079	-0.174
-489.493	-120.713	0.011	-0.002
-488.478	19.588	0.169	0.136
-487.464	701.821	-0.109	0.286
-486.449	499.229	-0.022	0.050
-485.435	592.268	0.106	-0.262
-484.420	28.664	-0.208	0.176
-483.405	6.573	-0.077	-0.057
-482.391	-84.469	0.256	0.081
-481.376	-90.053	-0.331	0.096
-480.362	-82.372	0.079	-0.026
-479.347	36.578	0.277	0.243
-478.332	114.243	0.082	0.100
-477.318	-75.403	0.094	0.033
-476.303	65.573	-0.214	-0.216
-475.289	-32.421	0.037	0.020
-474.274	98.728	0.202	-0.232
-473.259	-68.882	0.270	0.104
-472.245	180.893	-0.135	-0.197
-471.230	-81.513	-0.364	0.119
-470.216	-46.877	0.042	0.021
-469.201	81.846	-0.127	0.137
-468.186	93.449	-0.066	0.075
-467.172	800.000	0.045	0.180
-466.157	174.301	-0.226	0.325
-465.143	113.026	0.309	-0.373
-464.128	67.591	-0.088	-0.090
-463.113	-25.694	-0.126	-0.074
-462.099	276.404	-0.054	-0.095
-461.084	-139.043	-0.054	-0.006
-460.070	51.149	-0.250	-0.236
-459.055	-0.267	-0.041	0.029
-458.040	800.000	-0.055	-0.237
-457.026	74.984	-0.216	0.227
-456.011	-57.760	-0.353	0.154
-454.997	-127.067	0.135	0.020
-453.982	800.000	0.037	-0.144
-452.968	-200.000	0.028	-0.136
-451.953	-96.213	-0.293	0.077
-450.938	42.079	-0.172	0.155
-449.924	-34.250	-0.115	-0.063
-448.909	83.899	0.011	0.012
-447.895	-200.000	-0.080	-0.401
-446.880	-44.688	0.021	-0.011
-445.865	84.511	0.205	0.223
-444.851	-27.018	0.096	-0.056
-443.836	147.721	-0.329	-0.441
-442.822	-200.000	0.002	-0.084
-441.807	-83.723	0.233	-0.074
-440.792	377.942	-0.109	0.221
-439.778	-41.217	-0.277	-0.142
-438.763	2.458	-0.315	-0.227
-437.749	-125.316	-0.287	-0.044
-436.734	145.499	-0.211	-0.282
-435.719	-109.470	-0.067	0.014
-434.705	-200.000	-0.060	-0.377
-433.690	-89.210	0.115	-0.034
-432.676	-47.577	0.117	0.057
-431.661	589.057	-0.080	-0.197
-430.646	-41.027	-0.280	-0.144
-429.632	800.000	0.097	-0.297
-428.617	350.149	-0.111	0.218
-427.603	800.000	-0.075	-0.230
-426.588	258.918	0.154	-0.263
-425.573	-200.000	0.016	0.215
-424.559	-112.730	-0.281	0.056
-423.544	-189.854	-0.404	-0.005
-422.530	-99.895	-0.167	-0.041
-421.515	-51.210	-0.148	-0.069
-420.500	29.042	-0.282	-0.238
-419.486	-200.000	-0.048	-0.244
-418.471	-117.423	0.275	-0.049
-417.457	-57.523	0.441	0.193
-416.442	-57.673	-0.049	0.021
-415.428	301.011	0.165	-0.303
-414.413	1.637	-0.113	-0.081
-413.398	-24.161	0.073	0.044
-412.384	108.916	-0.212	0.252
-411.369	693.452	-0.087	-0.228
-410.355	-45.066	-0.240	0.119
-409.340	-57.500	-0.086	-0.038
-408.325	367.662	0.117	0.235
-407.311	-141.980	0.197	-0.020
-406.296	-63.725	0.381	-0.155
-405.282	2.201	0.291	-0.209
-404.267	7.419	-0.065	0.048
-403.252	184.265	-0.048	-0.071
-402.238	583.710	0.150	0.367
-401.223	-134.277	-0.372	-0.046
-400.209	281.854	0.090	0.160
-399.194	-200.000	0.046	0.271
-398.179	-19.198	-0.245	-0.151
-397.165	145.771	-0.214	-0.286
-396.150	-76.713	0.187	-0.065
-395.136	-200.000	0.027	0.186
-394.121	350.878	0.219	0.431
-393.106	-200.000	0.025	-0.111
-392.092	264.856	-0.035	0.060
-391.077	-200.000	0.014	0.095
-390.063	-200.000	0.006	0.211
-389.048	-184.005	-0.131	-0.002
-388.033	61.168	-0.145	0.144
-387.019	800.000	-0.077	-0.278
-386.004	64.346	-0.083	-0.083
-384.990	-114.231	0.259	-0.050
-383.975	-200.000	-0.041	-0.307
-382.960	344.135	-0.060	0.117
-381.946	124.263	0.133	-0.166
-380.931	-200.000	0.051	-0.251
-379.917	-63.843	-0.170	-0.069
-378.902	215.253	0.079	0.124
-377.888	-4.742	-0.080	0.055
-376.873	800.000	-0.107	0.368
-375.858	-200.000	-0.029	-0.167
-374.844	346.098	0.067	0.130
-373.829	321.847	-0.265	0.500
-372.815	163.329	-0.186	0.260
-371.800	128.939	-0.032	0.040
-370.785	250.569	-0.053	-0.089
-369.771	19.148	-0.203	-0.162
-368.756	64.869	-0.039	-0.039
-367.742	-46.631	0.461	-0.224
-366.727	623.770	0.075	-0.187
-365.712	-200.000	0.011	-0.264
-364.698	-200.000	0.001	0.365
-363.683	-200.000	0.049	0.361
-362.669	-200.000	0.073	0.381
-361.654	-172.738	0.192	-0.006
-360.639	-67.581	0.062	-0.024
-359.625	-55.916	0.229	0.102
-358.610	31.783	-0.225	0.192
-357.596	800.000	0.099	-0.295
-356.581	386.531	0.106	-0.217
-355.566	-115.311	0.169	-0.032
-354.552	262.090	0.075	-0.129
-353.537	-200.000	-0.061	0.332
-352.523	443.276	0.045	-0.098
-351.508	233.044	0.147	0.240
-350.493	-156.022	-0.199	0.013
-349.479	-51.952	0.023	-0.010
-348.464	-188.867	-0.484	0.006
-347.450	-200.000	-0.013	-0.059
-346.435	-110.314	0.321	-0.066
-345.420	-41.762	-0.218	-0.111
-344.406	800.000	0.017	-0.060
-343.391	-20.215	0.264	-0.161
-342.377	259.569	0.080	-0.137
-341.362	-200.000	0.009	-0.182
-340.348	-106.363	-0.209	0.046
-339.333	-200.000	0.050	-0.345
-338.318	-200.000	-0.032	0.258
-337.304	-124.363	-0.136	-0.021
-336.289	76.862	-0.099	0.105
-335.275	-99.671	-0.155	0.039
-334.260	-200.000	-0.037	-0.267
-333.245	-137.426	0.276	0.031
-332.231	-138.513	-0.386	0.042
-331.216	800.000	-0.010	-0.040
-330.202	176.305	0.230	0.331
-329.187	-129.218	0.264	-0.037
-328.172	56.824	0.069	-0.067
-327.158	61.605	0.237	-0.234
-326.143	-200.000	-0.014	-0.096
-325.129	-200.000	0.019	0.129
-324.114	-200.000	-0.014	-0.208
-323.099	103.367	-0.160	0.186
-322.085	-152.271	0.211	-0.015
-321.070	768.656	0.029	-0.078
-320.056	-200.000	0.014	-0.100
-319.041	55.712	0.113	0.108
-318.026	-124.224	-0.114	0.018
-317.012	800.000	0.088	0.302
-315.997	-78.822	-0.400	0.135
-314.983	50.211	-0.404	0.378
-313.968	98.153	-0.060	0.069
-312.953	-95.779	0.136	0.036
-311.939	-156.245	-0.311	0.019
-310.924	77.150	0.177	0.186
-309.910	-96.849	0.328	-0.085
-308.895	-200.000	-0.021	-0.322
-307.880	42.685	0.198	-0.179
-306.866	-69.312	-0.320	0.122
-305.851	800.000	0.028	-0.096
-304.837	-53.329	-0.486	0.220
-303.822	800.000	0.055	0.220
-302.807	-78.840	-0.138	0.047
-301.793	-179.951	0.149	0.003
-300.778	600.431	0.073	0.179
-299.764	800.000	-0.088	-0.320
-298.749	302.163	0.174	0.319
-297.735	800.000	0.059	0.206
-296.720	110.473	0.156	0.186
-295.705	280.750	0.077	-0.136
-294.691	488.778	-0.163	-0.368
-293.676	40.572	-0.160	-0.142
-292.662	-99.011	-0.220	-0.055
-291.647	-151.369	-0.120	-0.009
-290.632	243.887	0.044	0.072
-289.618	-126.444	0.446	-0.066
-288.603	80.563	0.116	0.124
-287.589	494.232	-0.057	-0.129
-286.574	-98.826	-0.188	0.047
-285.559	-81.912	0.154	0.050
-284.545	59.272	-0.203	0.198
-283.530	-63.757	-0.068	-0.028
-282.516	211.704	-0.217	0.338
-281.501	147.107	0.155	-0.206
-280.486	268.821	0.181	-0.313
-279.472	171.166	0.025	0.035
-278.457	800.000	0.029	0.098
-277.443	-50.130	-0.450	-0.211
-276.428	-200.000	-0.016	-0.288
-275.413	-90.366	-0.227	0.065
-274.399	800.000	-0.073	0.219
-273.384	-131.797	0.200	0.026
-272.370	-54.909	-0.105	0.047
-271.355	800.000	0.094	0.289
-270.340	243.301	0.073	0.120
-269.326	12.052	0.131	-0.100
-268.311	-24.233	0.076	0.045
-267.297	-48.468	-0.061	0.029
-266.282	-21.734	0.082	-0.050
-265.267	160.674	0.061	0.084
-264.253	-200.000	0.054	0.345
-263.238	142.126	-0.042	0.056
-262.224	267.506	-0.115	0.199
-261.209	-86.766	-0.204	0.062
-260.195	-200.000	0.006	-0.221
-259.180	632.870	0.084	-0.211
-258.165	-116.016	0.319	-0.059
-257.151	344.987	0.047	-0.092
-256.136	-200.000	0.006	-0.164
-255.122	185.268	-0.101	0.148
-254.107	-200.000	-0.036	-0.179
-253.092	55.992	0.255	0.244
-252.078	-148.381	0.227	-0.018
-251.063	170.324	0.060	0.084
-250.049	-200.000	-0.003	0.219
-249.034	800.000	0.018	0.058
-248.019	-200.000	0.067	-0.325
-247.005	800.000	-0.102	-0.356
-245.990	-143.576	-0.078	-0.007
-244.976	353.329	-0.030	0.059
-243.961	-101.145	0.219	-0.053
-242.946	-19.787	0.098	-0.060
-241.932	467.468	-0.035	0.078
-240.917	-47.507	-0.332	0.159
-239.903	0.661	-0.112	-0.079
-238.888	-200.000	-0.036	-0.260
-237.873	273.120	0.160	0.280
-236.859	-200.000	-0.057	0.306
-235.844	198.088	-0.161	0.243
-234.830	8.035	-0.089	-0.066
-233.815	-200.000	0.006	-0.191
-232.800	19.364	-0.146	-0.116
-231.786	53.931	-0.169	0.160
-230.771	31.694	-0.237	-0.202
-229.757	-200.000	-0.036	-0.177
-228.742	-54.311	-0.201	0.090
-227.727	95.057	0.126	0.142
-226.713	-200.000	-0.005	0.050
-225.698	-200.000	-0.037	0.275
-224.684	48.038	-0.199	-0.183
-223.669	135.336	0.161	-0.207
-222.655	-27.725	0.081	-0.047
-221.640	-111.747	0.083	-0.017
-220.625	-65.195	-0.104	-0.041
-219.611	73.242	-0.083	0.085
-218.596	-120.168	0.380	0.064
-217.582	141.496	0.169	-0.221
-216.567	180.587	-0.179	-0.259
-215.552	-200.000	-0.014	0.106
-214.538	0.358	-0.253	0.178
-213.523	-15.701	0.124	-0.078
-212.509	-68.915	-0.116	0.044
-211.494	-200.000	-0.009	0.114
-210.479	-99.180	-0.216	0.054
-209.465	211.603	-0.039	-0.060
-208.450	-59.315	0.198	0.084
-207.436	36.159	0.212	0.184
-206.421	612.691	0.046	0.114
-205.406	-135.448	-0.175	0.021
-204.392	685.963	0.075	0.194
-203.377	-9.808	-0.045	0.030
-202.363	800.000	-0.019	0.067
-201.348	-200.000	0.044	0.194
-200.333	-154.993	-0.469	-0.030
-199.319	-75.229	0.421	0.148
-198.304	169.669	-0.192	0.271
-197.290	-98.328	0.399	-0.101
-196.275	-200.000	0.021	0.405
-195.260	344.549	0.087	0.169
-194.246	-200.000	-0.000	0.082
-193.231	157.281	0.052	0.070
-192.217	63.224	-0.235	0.233
-191.202	-104.709	0.232	-0.053
-190.187	203.341	-0.139	-0.211
-189.173	-200.000	0.038	-0.223
-188.158	800.000	0.070	-0.270
-187.144	-200.000	0.043	-0.250
-186.129	-69.044	0.147	0.056
-185.114	-80.682	-0.121	-0.040
-184.100	-180.585	0.200	0.004
-183.085	491.140	0.063	0.142
-182.071	-142.637	0.074	0.007
-181.056	-167.389	0.206	0.008
-180.042	36.260	0.297	0.258
-179.027	-16.770	0.293	-0.182
-178.012	5.124	-0.191	-0.138
-176.998	53.752	0.081	0.076
-175.983	-200.000	0.019	-0.231
-174.969	800.000	0.063	0.251
-173.954	-5.529	0.060	0.040
-172.939	423.719	-0.176	0.374
-171.925	-146.302	0.159	0.014
-170.910	-200.000	-0.032	-0.149
-169.896	161.717	0.428	0.590
-168.881	151.593	0.210	-0.281
-167.866	800.000	-0.028	0.083
-166.852	-200.000	-0.048	-0.258
-165.837	257.532	0.048	0.082
-164.823	-187.852	0.160	0.002
-163.808	433.558	0.052	-0.110
-162.793	44.699	-0.209	0.190
-161.779	41.002	0.135	0.120
-160.764	-200.000	0.000	-0.247
-159.750	-0.592	0.146	-0.102
-158.735	16.338	0.339	-0.263
-157.720	-106.689	0.304	0.067
-156.706	97.551	0.175	-0.199
-155.691	-200.000	-0.052	-0.326
-154.677	-3.531	0.091	0.062
-153.662	-4.749	-0.226	0.154
-152.647	704.367	0.104	0.271
-151.633	120.284	0.169	-0.207
-150.618	-101.384	-0.364	0.087
-149.604	-200.000	-0.016	-0.172
-148.589	-184.742	0.313	-0.005
-147.574	-53.602	-0.154	0.069
-146.560	-76.752	-0.395	-0.136
-145.545	-88.244	0.271	-0.080
-144.531	-108.709	-0.465	-0.098
-143.516	-64.025	0.385	0.155
-142.502	-38.133	-0.080	0.042
-141.487	-200.000	0.024	-0.106
-140.472	454.467	-0.054	-0.118
-139.458	109.780	0.312	0.368
-138.443	-122.284	0.288	0.046
-137.429	-112.170	-0.347	0.068
-136.414	-38.672	0.058	-0.030
-135.399	-32.758	0.186	-0.101
-134.385	-79.935	0.097	0.032
-133.370	-200.000	-0.023	-0.149
-132.356	-172.818	-0.164	0.005
-131.341	-64.962	-0.442	0.176
-130.326	-126.115	-0.271	0.040
-129.312	800.000	-0.037	-0.152
-128.297	-200.000	-0.025	-0.274
-127.283	209.470	0.180	-0.278
-126.268	85.760	-0.077	0.083
-125.253	443.230	0.184	-0.396
-124.239	188.713	0.048	0.071
-123.224	-72.752	0.342	0.124
-122.210	-200.000	0.015	-0.118
-121.195	800.000	-0.042	0.120
-120.180	800.000	0.063	0.217
-119.166	282.349	0.273	0.481
-118.151	-86.364	-0.249	0.075
-117.137	-200.000	0.046	-0.539
-116.122	-59.874	0.458	-0.193
-115.107	424.261	0.137	-0.289
-114.093	255.726	0.197	-0.332
-113.078	31.308	-0.351	0.296
-112.064	40.984	-0.309	-0.274
-111.049	-6.051	-0.094	-0.063
-110.034	-101.796	0.337	0.080
-109.020	800.000	0.019	0.078
-108.005	-107.426	0.386	-0.083
-106.991	130.900	-0.219	-0.277
-105.976	750.613	0.103	-0.274
-104.962	-136.633	0.051	-0.006
-103.947	22.925	-0.073	0.059
-102.932	-161.015	0.051	-0.003
-101.918	24.170	0.050	0.040
-100.903	16.653	0.119	0.092
-99.889	330.417	-0.116	-0.219
-98.874	12.595	0.266	0.202
-97.859	-39.615	0.176	0.091
-96.845	73.324	-0.384	-0.395
-95.830	99.278	-0.141	-0.160
-94.816	-165.728	0.247	-0.010
-93.801	56.686	-0.172	0.164
-92.786	800.000	-0.043	0.123
-91.772	-31.882	-0.349	-0.192
-90.757	0.290	-0.295	0.207
-89.743	207.117	0.108	0.165
-88.728	800.000	-0.080	-0.263
-87.713	-151.017	-0.365	-0.027
-86.699	-200.000	-0.028	0.409
-85.684	-108.978	0.163	-0.034
-84.670	-172.199	-0.251	0.008
-83.655	499.316	-0.130	-0.295
-82.640	800.000	-0.186	-0.510
-81.626	800.000	0.050	-0.147
-80.611	-65.247	0.411	-0.163
-79.597	800.000	0.025	0.086
-78.582	800.000	0.212	0.595
-77.567	-200.000	0.001	-0.216
-76.553	-69.384	-0.199	-0.075
-75.538	212.871	0.115	0.179
-74.524	408.210	-0.139	0.288
-73.509	-133.226	0.266	-0.033
-72.494	128.065	-0.121	0.152
-71.480	300.545	0.212	0.383
-70.465	-62.731	0.151	0.061
-69.451	-64.226	0.187	0.075
-68.436	-74.938	-0.212	0.075
-67.422	209.992	0.205	0.316
-66.407	-200.000	0.007	-0.186
-65.392	216.493	-0.079	-0.122
-64.378	-135.449	0.236	0.028
-63.363	-44.274	-0.309	-0.152
-62.349	-6.385	-0.374	0.250
-61.334	131.653	-0.804	-1.014
-60.319	101.124	0.254	0.289
-59.305	299.580	-0.590	-1.066
-58.290	146.713	0.641	0.844
-57.276	546.990	0.580	1.362
-56.261	-200.000	98.567	590.413
-55.246	524.408	1397.466	3223.108
-54.232	159.122	2575.586	3511.219
-53.217	105.479	2267.027	2626.568
-52.203	40.571	1892.204	1671.564
-51.188	34.600	1683.023	1441.781
-50.173	31.952	1639.229	1384.697
-49.159	50.212	1688.357	1563.319
-48.144	51.491	1705.093	1588.332
-47.130	34.172	1665.160	1423.055
-46.115	31.565	1650.311	1390.960
-45.100	31.309	1646.070	1385.435
-44.086	31.291	1643.778	1383.316
-43.071	31.338	1640.723	1381.041
-42.057	31.228	1638.546	1378.339
-41.042	31.268	1636.677	1377.007
-40.027	31.262	1634.729	1375.270
-39.013	31.221	1632.822	1373.310
-37.998	31.203	1631.085	1371.661
-36.984	31.270	1630.039	1371.215
-35.969	31.456	1627.896	1370.722
-34.954	31.315	1627.211	1369.060
-33.940	31.442	1624.921	1368.005
-32.925	31.349	1623.404	1366.000
-31.911	31.360	1621.727	1364.609
-30.896	31.367	1619.951	1363.117
-29.881	31.340	1618.702	1361.810
-28.867	31.393	1617.041	1360.747
-27.852	31.307	1615.687	1358.926
-26.838	31.333	1613.786	1357.461
-25.823	31.308	1612.861	1356.454
-24.809	31.349	1611.470	1355.526
-23.794	31.338	1610.244	1354.357
-22.779	31.459	1608.033	1353.325
-21.765	31.413	1606.660	1351.778
-20.750	31.351	1604.748	1349.673
-19.736	31.405	1603.875	1349.271
-18.721	31.444	1602.415	1348.275
-17.706	31.424	1601.041	1346.917
-16.692	31.379	1599.217	1345.006
-15.677	31.396	1597.838	1343.915
-14.663	31.470	1596.813	1343.528
-13.648	31.376	1595.670	1341.840
-12.633	31.449	1593.861	1340.791
-11.619	31.421	1592.587	1339.465
-10.604	31.554	1590.199	1338.359
-9.590	31.464	1589.652	1337.202
-8.575	31.413	1588.320	1335.661
-7.560	31.394	1587.274	1334.594
-6.546	31.492	1585.945	1334.118
-5.531	31.350	1585.340	1332.547
-4.517	31.382	1583.922	1331.527
-3.502	31.391	1583.332	1331.042
-2.487	31.487	1580.687	1329.454
-1.473	31.083	1569.718	1317.319
-0.458	28.284	1550.325	1281.437
0.556	22.851	1550.730	1249.770
1.571	20.454	1574.957	1251.930
2.586	20.071	1587.784	1259.233
3.600	18.397	1535.227	1205.670
4.615	10.212	1425.347	1065.578
5.629	1.927	1359.018	963.711
6.644	0.179	1350.899	946.877
7.659	0.108	1348.805	944.881
8.673	0.000	1348.441	943.869
9.688	-0.087	1346.814	942.099
10.702	-0.302	1343.535	938.374
11.717	3.637	1350.068	967.575
12.731	12.416	1363.951	1032.825
13.746	17.567	1370.601	1070.216
14.761	17.321	1368.199	1066.703
15.775	16.190	1365.508	1057.425
16.790	15.208	1363.019	1049.258
17.804	14.444	1360.371	1042.349
18.819	13.882	1359.565	1038.131
19.834	13.740	1357.671	1035.702
20.848	13.531	1356.563	1033.460
21.863	13.263	1355.682	1031.027
22.877	13.115	1354.698	1029.268
23.892	13.048	1353.766	1028.049
24.907	13.030	1352.901	1027.189
25.921	13.056	1351.867	1026.476
26.936	13.057	1351.025	1025.754
27.950	13.147	1350.229	1025.618
28.965	13.172	1349.226	1024.921
29.980	13.268	1348.172	1024.623
30.994	13.295	1347.283	1024.025
32.009	13.395	1346.255	1023.770
33.023	13.280	1344.946	1021.973
34.038	13.311	1343.781	1021.188
35.053	13.281	1342.908	1020.249
36.067	13.225	1342.299	1019.349
37.082	13.163	1341.252	1018.083
38.096	13.185	1340.388	1017.477
39.111	13.188	1339.729	1016.901
40.126	13.167	1338.591	1015.821
41.140	13.145	1337.845	1015.026
42.155	13.060	1337.625	1014.252
43.169	13.116	1337.175	1014.162
44.184	13.097	1336.657	1013.562
45.199	13.006	1336.658	1012.916
46.213	13.046	1335.919	1012.511
47.228	13.099	1334.854	1011.937
48.242	13.213	1333.554	1011.562
49.257	13.188	1332.116	1010.227
50.271	13.169	1330.744	1008.982
51.286	13.186	1329.660	1008.177
52.301	13.185	1328.318	1007.061
53.315	13.081	1327.132	1005.438
54.330	13.055	1326.674	1004.845
55.344	13.056	1325.310	1003.730
56.359	13.147	1323.865	1003.103
57.374	13.179	1323.278	1002.762
58.388	13.017	1322.371	1000.999
59.403	12.996	1322.085	1000.572
60.417	12.887	1321.184	999.141
61.432	12.969	1320.121	998.742
62.447	13.030	1319.209	998.332
63.461	12.861	1318.265	996.512
64.476	13.011	1316.814	996.228
65.490	12.958	1315.347	994.715
66.505	12.986	1314.365	994.053
67.520	12.982	1312.972	992.887
68.534	13.043	1311.796	992.274
69.549	13.067	1310.565	991.397
70.563	13.012	1309.749	990.366
71.578	12.855	1309.146	988.880
72.593	12.867	1307.850	987.885
73.607	12.936	1306.944	987.529
74.622	12.918	1306.283	986.833
75.636	12.899	1305.227	985.831
76.651	12.903	1304.523	985.241
77.666	12.895	1304.214	984.868
78.680	12.907	1303.529	984.340
79.695	12.894	1302.778	983.607
80.709	12.866	1301.953	982.731
81.724	13.005	1301.290	982.969
82.739	13.011	1300.499	982.322
83.753	13.101	1299.621	982.105
84.768	13.204	1298.111	981.487
85.782	13.239	1297.006	980.777
86.797	13.232	1295.441	979.463
87.812	13.154	1294.583	978.268
88.826	13.175	1293.647	977.596
89.841	13.117	1292.479	976.283
90.855	13.213	1291.234	975.824
91.870	13.203	1290.682	975.261
92.884	13.208	1290.255	974.880
93.899	13.166	1289.529	973.999
94.914	13.306	1288.535	973.986
95.928	13.314	1287.557	973.210
96.943	13.261	1286.640	972.115
97.957	13.242	1285.631	971.159
98.972	13.208	1284.642	970.125
99.987	13.254	1283.858	969.717
101.001	13.204	1282.632	968.413
102.016	13.190	1281.918	967.707
103.030	13.169	1281.048	966.840
104.045	13.249	1280.037	966.461
105.060	13.206	1278.572	965.016
106.074	13.088	1277.681	963.573
107.089	13.052	1275.943	961.967
108.103	12.971	1274.836	960.574
109.118	12.980	1273.791	959.757
110.133	13.034	1272.380	958.922
111.147	13.069	1270.831	957.868
112.162	13.062	1270.078	957.178
113.176	13.157	1268.360	956.349
114.191	13.134	1268.178	955.995
115.206	13.151	1267.094	955.191
116.220	13.157	1265.477	953.919
117.235	13.158	1264.452	953.071
118.249	13.145	1263.400	952.115
119.264	13.137	1262.450	951.273
120.279	13.073	1261.570	950.154
121.293	13.081	1260.405	949.242
122.308	13.088	1259.459	948.484
123.322	12.971	1258.709	947.161
124.337	13.144	1257.608	947.241
125.352	12.986	1256.201	945.195
126.366	13.133	1255.279	945.257
127.381	13.079	1254.062	943.952
128.395	13.082	1253.046	943.117
129.410	13.047	1252.853	942.693
130.424	13.009	1251.475	941.352
131.439	13.164	1250.373	941.324
132.454	13.181	1249.201	940.456
133.468	13.138	1248.294	939.445
134.483	13.166	1247.600	938.998
135.497	13.180	1246.617	938.255
136.512	13.088	1245.536	936.836
137.527	13.138	1244.125	935.978
138.541	13.142	1243.120	935.158
139.556	13.151	1241.635	934.009
140.570	13.270	1240.476	933.731
141.585	13.132	1239.649	932.247
142.600	13.321	1238.234	932.163
143.614	13.317	1237.600	931.579
144.629	13.259	1236.591	930.411
145.643	13.305	1235.373	929.675
146.658	13.250	1233.947	928.208
147.673	13.154	1232.934	926.824
148.687	13.169	1231.587	925.816
149.702	13.219	1230.585	925.262
150.716	13.184	1228.655	923.532
151.731	13.152	1228.269	922.978
152.746	13.315	1226.448	922.441
153.760	13.281	1225.377	921.362
154.775	13.293	1224.644	920.798
155.789	13.403	1223.146	920.204
156.804	13.473	1222.225	919.816
157.819	13.310	1221.571	918.341
158.833	13.461	1220.569	918.338
159.848	13.507	1219.766	917.910
160.862	13.616	1218.634	917.578
161.877	13.409	1217.548	915.538
162.892	13.230	1216.530	913.702
163.906	13.322	1215.463	913.327
164.921	13.327	1215.075	912.981
165.935	13.361	1214.332	912.530
166.950	13.315	1213.484	911.562
167.964	13.420	1212.756	911.510
168.979	13.429	1211.969	910.888
169.994	13.437	1210.907	910.050
171.008	13.482	1210.473	909.893
172.023	13.429	1209.604	908.870
173.037	13.520	1208.953	908.799
174.052	13.556	1207.978	908.181
175.067	13.503	1206.306	906.556
176.081	13.421	1205.609	905.502
177.096	13.537	1204.656	905.341
178.110	13.480	1203.730	904.251
179.125	13.580	1202.653	903.910
180.140	13.571	1201.196	902.687
181.154	13.544	1200.226	901.729
182.169	13.545	1199.145	900.843
183.183	13.609	1197.949	900.210
184.198	13.829	1196.072	899.917
185.213	13.692	1195.543	898.695
186.227	13.720	1194.768	898.183
187.242	13.665	1193.767	897.053
188.256	13.754	1192.880	896.791
189.271	13.751	1192.033	896.060
190.286	13.618	1190.555	894.150
191.300	13.515	1189.911	893.034
192.315	13.538	1189.127	892.492
193.329	13.505	1188.747	891.949
194.344	13.593	1188.086	891.848
195.359	13.640	1187.598	891.655
196.373	13.675	1187.333	891.566
197.388	13.750	1186.506	891.267
198.402	13.953	1186.068	891.948
199.417	13.932	1185.317	891.195
200.432	13.967	1184.445	890.647
201.446	13.916	1183.665	889.704
202.461	14.005	1182.805	889.457
203.475	13.889	1181.927	888.099
204.490	13.893	1180.767	887.171
205.504	13.894	1179.351	886.035
206.519	13.843	1178.674	885.172
207.534	13.898	1177.306	884.364
208.548	13.980	1176.225	883.906
209.563	14.006	1175.699	883.575
210.577	13.925	1174.974	882.520
211.592	13.981	1174.170	882.135
212.607	14.065	1173.072	881.679
213.621	14.019	1172.349	880.814
214.636	14.006	1171.476	880.011
215.650	14.038	1170.771	879.569
216.665	14.134	1169.725	879.213
217.680	14.206	1168.840	878.851
218.694	14.150	1168.032	877.869
219.709	14.166	1167.115	877.190
220.723	14.079	1166.666	876.314
221.738	14.218	1165.742	876.277
222.753	14.186	1164.956	875.437
223.767	14.382	1163.964	875.647
224.782	14.357	1163.335	874.964
225.796	14.257	1162.989	874.104
226.811	14.246	1162.397	873.519
227.826	14.259	1161.445	872.799
228.840	14.324	1160.807	872.580
229.855	14.217	1160.325	871.581
230.869	14.251	1159.632	871.159
231.884	14.250	1158.927	870.552
232.899	14.312	1157.886	870.015
233.913	14.217	1156.983	868.761
234.928	14.249	1156.399	868.415
235.942	14.259	1155.577	867.774
236.957	14.230	1154.953	867.074
237.972	14.203	1154.231	866.316
238.986	14.221	1153.812	866.017
240.001	14.264	1152.813	865.414
241.015	14.255	1152.150	864.795
242.030	14.289	1151.380	864.320
243.045	14.331	1150.675	863.928
244.059	14.257	1149.953	862.925
245.074	14.471	1148.574	862.925
246.088	14.434	1148.388	862.517
247.103	14.349	1147.668	861.459
248.117	14.471	1146.586	861.200
249.132	14.552	1145.723	860.895
250.147	14.584	1145.812	861.053
251.161	14.619	1144.766	860.371
252.176	14.801	1143.830	860.529
253.190	14.825	1143.174	860.079
254.205	14.888	1142.743	860.007
255.220	14.782	1142.177	858.957
256.234	14.760	1141.801	858.487
257.249	14.811	1140.753	857.884
258.263	14.772	1140.238	857.222
259.278	14.888	1139.153	856.924
260.293	14.951	1138.858	856.949
261.307	14.964	1138.476	856.652
262.322	14.934	1137.681	855.824
263.336	14.862	1136.934	854.820
264.351	14.994	1136.587	855.158
265.366	14.966	1135.831	854.366
266.380	15.072	1134.703	853.988
267.395	15.041	1133.980	853.207
268.409	15.011	1133.284	852.454
269.424	14.893	1132.311	851.050
270.439	14.931	1132.106	851.014
271.453	14.887	1131.922	850.577
272.468	15.056	1130.268	850.113
273.482	14.972	1129.922	849.351
274.497	14.883	1129.552	848.547
275.512	14.981	1128.157	847.921
276.526	15.015	1127.646	847.636
277.541	14.984	1127.083	846.977
278.555	15.134	1125.731	846.649
279.570	15.222	1125.413	846.776
280.585	15.235	1124.935	846.408
281.599	15.158	1124.058	845.285
282.614	15.099	1122.665	843.866
283.628	15.069	1121.901	843.066
284.643	15.154	1120.729	842.536
285.657	15.200	1120.161	842.266
286.672	15.187	1119.432	841.581
287.687	15.213	1118.236	840.739
288.701	15.184	1117.820	840.202
289.716	15.188	1116.966	839.507
290.730	15.312	1116.020	839.343
291.745	15.325	1115.384	838.855
292.760	15.294	1114.928	838.281
293.774	15.245	1114.775	837.851
294.789	15.396	1113.890	837.862
295.803	15.390	1112.939	837.046
296.818	15.351	1112.217	836.231
297.833	15.375	1111.687	835.878
298.847	15.375	1110.711	835.071
299.862	15.418	1109.801	834.528
300.876	15.357	1109.535	833.953
301.891	15.489	1108.809	833.988
302.906	15.401	1108.430	833.192
303.920	15.496	1107.575	832.947
304.935	15.615	1107.054	833.068
305.949	15.586	1105.812	831.918
306.964	15.655	1105.188	831.718
307.979	15.575	1104.174	830.484
308.993	15.584	1103.482	829.936
310.008	15.526	1103.519	829.605
311.022	15.611	1102.402	829.111
312.037	15.671	1101.565	828.701
313.052	15.672	1100.817	828.073
314.066	15.567	1099.723	826.659
315.081	15.506	1099.223	825.910
316.095	15.611	1098.296	825.658
317.110	15.539	1097.694	824.776
318.125	15.484	1097.112	823.994
319.139	15.569	1096.001	823.507
320.154	15.622	1095.554	823.359
321.168	15.581	1095.221	822.833
322.183	15.550	1094.689	822.210
323.197	15.769	1093.319	822.176
324.212	15.717	1093.281	821.824
325.227	15.589	1093.158	821.030
326.241	15.689	1092.285	820.789
327.256	15.676	1091.038	819.720
328.270	15.813	1089.947	819.492
329.285	15.633	1089.753	818.400
330.300	15.624	1088.575	817.399
331.314	15.615	1087.893	816.771
332.329	15.753	1086.385	816.236
333.343	15.709	1085.869	815.563
334.358	15.774	1085.485	815.514
335.373	15.675	1084.620	814.317
336.387	15.827	1083.978	814.496
337.402	15.871	1083.408	814.211
338.416	15.826	1082.312	813.094
339.431	15.953	1081.770	813.227
340.446	15.874	1081.363	812.470
341.460	16.019	1080.357	812.342
342.475	15.966	1079.616	811.458
343.489	16.003	1078.639	810.830
344.504	16.037	1077.859	810.335
345.519	16.147	1077.088	810.211
346.533	16.140	1076.350	809.549
347.548	16.266	1075.276	809.274
348.562	16.169	1074.379	808.065
349.577	16.093	1073.934	807.293
350.592	16.113	1072.891	806.535
351.606	16.157	1072.350	806.267
352.621	15.985	1072.000	805.112
353.635	16.019	1071.403	804.752
354.650	16.079	1070.644	804.398
355.665	16.073	1070.160	803.937
356.679	16.208	1068.686	803.399
357.694	16.133	1068.594	802.902
358.708	16.160	1068.152	802.627
359.723	16.145	1067.608	802.076
360.738	16.220	1066.736	801.706
361.752	16.227	1066.280	801.324
362.767	16.240	1065.573	800.784
363.781	16.249	1065.033	800.353
364.796	16.275	1064.464	799.974
365.810	16.390	1064.006	800.106
366.825	16.397	1063.482	799.673
367.840	16.459	1062.912	799.468
368.854	16.473	1062.208	798.935
369.869	16.573	1061.278	798.635
370.883	16.437	1060.504	797.341
371.898	16.433	1060.053	796.912
372.913	16.487	1059.490	796.673
373.927	16.523	1058.893	796.322
374.942	16.529	1058.115	795.698
375.956	16.507	1057.732	795.235
376.971	16.572	1057.081	794.978
377.986	16.631	1056.644	794.858
379.000	16.626	1056.353	794.544
380.015	16.731	1055.220	794.116
381.029	16.749	1054.654	793.702
382.044	16.660	1054.483	793.089
383.059	16.646	1053.486	792.204
384.073	16.690	1052.393	791.516
385.088	16.771	1051.321	791.018
386.102	16.682	1050.958	790.258
387.117	16.628	1049.929	789.164
388.132	16.670	1048.954	788.558
389.146	16.740	1048.218	788.259
390.161	16.730	1047.589	787.669
391.175	16.607	1047.346	786.848
392.190	16.681	1046.241	786.290
393.205	16.819	1045.221	786.096
394.219	16.924	1044.232	785.769
395.234	16.804	1043.995	784.963
396.248	16.793	1042.866	783.992
397.263	16.622	1042.082	782.547
398.278	16.616	1041.681	782.148
399.292	16.735	1040.266	781.563
400.307	16.774	1039.728	781.269
401.321	16.830	1039.231	781.086
402.336	16.636	1039.100	780.025
403.350	16.685	1037.968	779.333
404.365	16.754	1037.414	779.164
405.380	16.840	1036.648	778.914
406.394	16.999	1035.329	778.583
407.409	16.937	1035.050	778.022
408.423	16.994	1034.658	777.919
409.438	16.928	1034.007	777.057
410.453	16.990	1033.147	776.630
411.467	16.971	1032.529	776.006
412.482	16.967	1031.944	775.482
413.496	17.123	1031.174	775.548
414.511	17.129	1030.803	775.226
415.526	17.219	1030.411	775.274
416.540	17.178	1029.711	774.492
417.555	17.300	1028.788	774.284
418.569	17.271	1028.529	773.888
419.584	17.147	1028.107	772.937
420.599	17.204	1027.853	772.936
421.613	102.572	1319.796	1463.258
422.628	93.804	1362.309	1463.344
