DTS Sentinel unit serial number:	SN413079Multiplexer serial number:	ORYXHardware model number:	OX4-SRSoftware version number:	ORYX F/W v4.00 Oryx Data Collector v3.7.2.0data status	okinstallation	princeton_trtdifferential loss correction	single-endedforward channel	channel 2reverse channel	N/Adate	2019/09/18time	22:55:35forward acquisition time	60.00reverse acquisition time	0.00gamma	496.2192k internal	0.2349k external	0.2349temperature offset calibration	1.0019default loss term (dB/km)	0.3790temperature slope calibration	1.0000multiplexer offset coefficient	1.0000multiplexer slope coefficient	1.0000fibre end	0.00T internal ref (°C)	24.06T ext. ref 1 (°C)	0.78T ext. ref 2 (°C)	17.99length (m)	temperature (°C)	Stokes	anti-Stokes-747.200	-125.998	0.160	-0.024
-746.185	-166.209	-0.286	0.012
-745.171	283.796	-0.078	0.139
-744.156	-169.766	-0.167	0.006
-743.142	-92.011	0.095	-0.027
-742.127	17.822	-0.262	0.208
-741.112	140.287	-0.130	-0.171
-740.098	230.338	0.132	0.215
-739.083	-89.669	-0.253	-0.074
-738.069	-120.561	-0.181	0.031
-737.054	-200.000	0.047	0.307
-736.039	317.669	-0.073	-0.138
-735.025	-64.684	0.399	-0.161
-734.010	150.489	-0.173	-0.235
-732.996	-94.610	-0.083	0.022
-731.981	-200.000	-0.063	-0.348
-730.966	-159.401	0.113	0.006
-729.952	38.211	0.258	-0.230
-728.937	327.701	-0.102	-0.196
-727.923	492.267	-0.066	0.150
-726.908	-200.000	-0.010	-0.156
-725.894	800.000	-0.103	-0.319
-724.879	-200.000	0.008	-0.205
-723.864	229.262	-0.145	0.236
-722.850	800.000	0.057	-0.229
-721.835	-114.150	-0.071	-0.014
-720.821	411.869	0.010	-0.022
-719.806	-152.165	-0.173	-0.013
-718.791	42.184	0.145	-0.132
-717.777	-79.061	-0.117	0.040
-716.762	-44.480	0.169	0.085
-715.748	-45.726	-0.187	-0.092
-714.733	201.801	-0.206	0.316
-713.718	800.000	0.058	-0.183
-712.704	800.000	-0.056	0.204
-711.689	-115.921	0.098	-0.018
-710.675	51.163	-0.175	-0.166
-709.660	237.418	0.201	0.332
-708.645	-10.085	0.068	0.045
-707.631	-75.997	-0.261	-0.092
-706.616	-200.000	-0.039	-0.393
-705.602	-20.668	0.315	-0.193
-704.587	-4.352	0.162	-0.112
-703.572	-136.018	0.131	-0.015
-702.558	92.788	-0.117	0.132
-701.543	333.639	0.130	-0.251
-700.529	429.190	0.061	-0.132
-699.514	-37.952	0.120	-0.064
-698.499	-200.000	0.043	-0.275
-697.485	75.893	0.027	0.028
-696.470	-19.049	-0.084	-0.052
-695.456	3.573	0.147	0.107
-694.441	274.268	0.114	-0.202
-693.426	-89.410	-0.175	0.051
-692.412	-22.204	-0.144	0.087
-691.397	800.000	-0.049	0.158
-690.383	-146.387	0.356	0.031
-689.368	-200.000	0.006	-0.108
-688.354	-96.590	-0.210	0.055
-687.339	154.769	-0.293	0.402
-686.324	299.278	-0.127	0.232
-685.310	316.134	0.042	-0.080
-684.295	451.001	0.056	-0.124
-683.281	-200.000	-0.016	-0.300
-682.266	-13.530	-0.064	0.042
-681.251	-147.002	-0.074	0.006
-680.237	170.344	0.043	-0.061
-679.222	589.409	0.068	-0.166
-678.208	-27.329	0.124	-0.072
-677.193	746.781	0.056	-0.149
-676.178	330.528	-0.124	0.237
-675.164	544.355	-0.034	-0.080
-674.149	-200.000	0.065	0.377
-673.135	-22.429	-0.332	0.200
-672.120	-133.284	0.325	0.041
-671.105	253.481	-0.092	-0.157
-670.091	-200.000	0.001	-0.028
-669.076	-55.449	0.150	-0.067
-668.062	-200.000	-0.067	-0.502
-667.047	265.773	-0.016	0.027
-666.032	-200.000	-0.044	-0.281
-665.018	-88.862	-0.052	-0.015
-664.003	-26.308	0.145	0.085
-662.989	229.191	0.109	-0.177
-661.974	800.000	0.065	0.208
-660.959	158.724	-0.120	-0.166
-659.945	-28.556	-0.164	-0.094
-658.930	-200.000	0.061	0.271
-657.916	515.422	-0.031	0.072
-656.901	156.220	-0.064	-0.088
-655.886	-120.640	0.194	0.033
-654.872	-42.088	0.293	-0.149
-653.857	-200.000	0.032	0.223
-652.843	-200.000	0.011	-0.174
-651.828	287.006	0.101	-0.182
-650.814	-156.850	0.130	-0.008
-649.799	-109.962	-0.277	-0.058
-648.784	-200.000	-0.000	-0.141
-647.770	12.758	-0.189	-0.145
-646.755	-115.616	-0.304	-0.057
-645.741	-108.105	-0.248	0.053
-644.726	-89.337	0.172	0.050
-643.711	-77.171	-0.247	0.085
-642.697	-133.269	0.135	-0.017
-641.682	-200.000	-0.057	0.439
-640.668	177.048	0.118	-0.170
-639.653	-139.665	-0.327	-0.035
-638.638	-200.000	-0.002	0.010
-637.624	83.593	-0.234	0.254
-636.609	114.820	0.233	-0.283
-635.595	800.000	-0.092	-0.309
-634.580	110.333	-0.069	0.082
-633.565	-61.981	0.105	-0.044
-632.551	-200.000	0.023	0.184
-631.536	-126.757	-0.449	-0.066
-630.522	-32.205	0.234	0.130
-629.507	-33.780	-0.184	0.101
-628.492	63.757	0.255	-0.254
-627.478	585.226	0.151	-0.369
-626.463	-106.205	-0.389	0.087
-625.449	246.155	-0.216	0.362
-624.434	-30.388	0.026	-0.014
-623.419	-200.000	0.117	-0.554
-622.405	8.523	0.127	0.095
-621.390	-96.991	0.150	-0.039
-620.376	159.722	-0.098	-0.136
-619.361	800.000	-0.084	0.329
-618.346	631.837	-0.177	0.444
-617.332	800.000	-0.020	-0.058
-616.317	119.600	-0.047	-0.058
-615.303	-200.000	-0.021	0.240
-614.288	522.382	-0.089	-0.208
-613.273	-46.771	0.044	0.021
-612.259	-63.585	-0.161	0.066
-611.244	-10.770	0.173	0.114
-610.230	-1.232	-0.147	0.103
-609.215	43.167	-0.133	0.121
-608.201	-44.515	0.204	-0.101
-607.186	11.701	-0.233	0.177
-606.171	-155.839	0.036	0.002
-605.157	-16.286	-0.189	0.119
-604.142	-200.000	-0.024	0.118
-603.128	-200.000	0.020	0.117
-602.113	-13.739	-0.033	-0.021
-601.098	-200.000	-0.308	0.001
-600.084	4.980	-0.111	0.081
-599.069	-60.571	-0.119	0.050
-598.055	800.000	-0.125	0.408
-597.040	132.824	-0.165	-0.211
-596.025	-176.699	0.119	-0.003
-595.011	70.261	0.183	0.188
-593.996	100.180	-0.136	-0.157
-592.982	-140.502	-0.274	-0.028
-591.967	211.192	-0.075	-0.117
-590.952	-200.000	0.033	0.230
-589.938	-67.886	-0.126	-0.049
-588.923	-200.000	-0.053	-0.245
-587.909	-200.000	-0.062	0.276
-586.894	-156.596	-0.100	-0.006
-585.879	-143.641	0.171	0.016
-584.865	-86.275	-0.248	0.076
-583.850	213.670	-0.130	0.205
-582.836	195.375	0.029	-0.044
-581.821	403.631	0.027	-0.056
-580.806	28.408	-0.188	-0.158
-579.792	239.841	-0.160	-0.265
-578.777	-200.000	0.002	0.170
-577.763	-200.000	0.135	-0.001
-576.748	89.804	0.041	-0.046
-575.733	-113.995	-0.269	0.052
-574.719	57.267	-0.018	0.018
-573.704	-131.422	0.477	0.063
-572.690	36.068	-0.383	0.334
-571.675	-87.850	0.039	0.012
-570.661	36.510	-0.199	-0.174
-569.646	-75.265	-0.147	0.052
-568.631	-26.897	0.175	0.101
-567.617	-19.143	-0.167	-0.103
-566.602	-96.709	-0.304	0.079
-565.588	-104.783	-0.132	0.030
-564.573	-128.939	0.086	-0.012
-563.558	-70.010	-0.236	0.089
-562.544	-158.651	0.193	0.011
-561.529	505.422	-0.129	-0.297
-560.515	-63.349	0.220	-0.090
-559.500	2.975	-0.165	0.119
-558.485	-200.000	0.014	0.131
-557.471	-190.487	-0.075	-0.001
-556.456	-200.000	-0.003	0.052
-555.442	-18.331	0.282	0.175
-554.427	-77.779	0.162	-0.056
-553.412	-26.352	0.274	0.159
-552.398	-130.834	-0.111	0.015
-551.383	255.711	0.047	0.080
-550.369	800.000	-0.054	-0.218
-549.354	-97.472	0.303	0.078
-548.339	-88.662	-0.301	-0.089
-547.325	-144.326	-0.329	0.030
-546.310	-200.000	-0.019	-0.179
-545.296	800.000	-0.070	0.198
-544.281	-200.000	-0.042	-0.387
-543.266	-200.000	-0.011	0.059
-542.252	225.740	-0.030	0.048
-541.237	134.761	-0.098	0.126
-540.223	800.000	-0.010	-0.030
-539.208	36.085	-0.171	0.150
-538.193	-0.542	0.147	-0.104
-537.179	175.660	0.101	0.145
-536.164	64.176	-0.167	-0.167
-535.150	-34.116	-0.042	0.023
-534.135	11.423	0.346	0.262
-533.121	341.315	-0.128	-0.248
-532.106	-48.173	0.248	0.119
-531.091	-200.000	-0.003	-0.097
-530.077	72.016	-0.241	-0.248
-529.062	166.573	0.242	0.340
-528.048	155.411	0.206	0.281
-527.033	-49.405	-0.182	0.086
-526.018	564.510	-0.114	0.273
-525.004	599.354	-0.181	-0.445
-523.989	-200.000	-0.058	-0.339
-522.975	-157.285	-0.306	-0.018
-521.960	-96.064	0.394	0.104
-520.945	-200.000	0.061	0.267
-519.931	800.000	-0.042	-0.155
-518.916	256.859	0.037	-0.063
-517.902	-56.401	0.079	-0.035
-516.887	-76.519	-0.363	0.126
-515.872	-200.000	-0.011	-0.062
-514.858	594.367	-0.025	-0.060
-513.843	800.000	0.023	-0.099
-512.829	800.000	0.063	0.177
-511.814	-155.320	0.068	0.004
-510.799	-200.000	0.058	-0.000
-509.785	800.000	0.074	-0.227
-508.770	-19.427	-0.110	-0.068
-507.756	166.545	0.097	0.136
-506.741	9.335	0.080	-0.060
-505.726	-115.962	-0.246	0.045
-504.712	442.845	0.073	-0.159
-503.697	-129.222	0.248	0.034
-502.683	534.569	0.130	0.304
-501.668	-56.200	-0.288	-0.127
-500.653	-97.718	0.036	-0.009
-499.639	-32.525	0.433	-0.239
-498.624	-59.053	0.053	0.023
-497.610	800.000	0.163	-0.477
-496.595	-200.000	-0.017	-0.279
-495.581	-35.234	0.270	-0.146
-494.566	-78.554	-0.172	0.058
-493.551	254.666	0.135	-0.229
-492.537	-42.246	0.159	-0.080
-491.522	-200.000	-0.018	-0.103
-490.508	-200.000	0.003	-0.061
-489.493	-41.236	-0.100	0.051
-488.478	-39.779	0.086	0.044
-487.464	-200.000	-0.037	-0.330
-486.449	-54.302	-0.198	-0.089
-485.435	-200.000	-0.073	-0.337
-484.420	25.676	0.123	-0.102
-483.405	733.488	-0.138	-0.364
-482.391	-15.382	0.076	0.048
-481.376	406.379	0.101	0.210
-480.362	176.167	0.170	-0.244
-479.347	-200.000	-0.034	-0.227
-478.332	-106.889	-0.294	-0.064
-477.318	-130.577	-0.098	0.013
-476.303	-71.674	0.243	0.090
-475.289	-75.074	-0.121	0.043
-474.274	189.702	0.133	-0.198
-473.259	-41.904	0.044	0.022
-472.245	-150.488	-0.297	0.022
-471.230	800.000	-0.054	0.231
-470.216	-108.649	-0.410	-0.087
-469.201	136.002	0.070	-0.090
-468.186	98.869	0.259	-0.296
-467.172	-9.618	-0.198	0.130
-466.157	264.257	0.017	-0.030
-465.143	-200.000	-0.023	0.242
-464.128	-160.682	-0.146	0.008
-463.113	68.271	0.037	-0.037
-462.099	-79.775	-0.295	-0.098
-461.084	147.923	-0.189	0.251
-460.070	120.214	-0.147	0.181
-459.055	40.426	-0.076	0.068
-458.040	-84.393	0.261	-0.081
-457.026	-170.331	-0.076	-0.003
-456.011	13.025	-0.224	0.171
-454.997	51.777	0.277	-0.260
-453.982	800.000	-0.031	0.131
-452.968	-200.000	0.019	0.197
-451.953	30.601	-0.027	-0.023
-450.938	7.756	-0.397	0.293
-449.924	-64.659	0.126	0.050
-448.909	-81.520	0.296	0.096
-447.895	141.878	-0.071	-0.093
-446.880	42.926	-0.201	0.181
-445.865	19.677	0.183	-0.146
-444.851	79.450	0.102	0.108
-443.836	-32.336	0.202	0.111
-442.822	82.175	0.198	0.212
-441.807	205.559	0.142	-0.218
-440.792	-200.000	-0.002	0.342
-439.778	335.486	0.166	-0.318
-438.763	571.017	0.019	0.046
-437.749	708.329	0.125	-0.325
-436.734	800.000	0.020	-0.080
-435.719	-113.794	-0.325	-0.062
-434.705	-31.129	-0.152	-0.084
-433.690	723.421	-0.019	0.050
-432.676	50.499	-0.080	0.074
-431.661	9.011	-0.354	-0.264
-430.646	-77.390	-0.164	-0.056
-429.632	800.000	0.049	0.168
-428.617	-200.000	0.008	-0.237
-427.603	67.997	-0.149	-0.151
-426.588	98.180	0.248	-0.282
-425.573	-200.000	0.017	-0.300
-424.559	64.877	-0.164	0.164
-423.544	352.456	-0.088	0.173
-422.530	-44.789	-0.254	-0.125
-421.515	132.675	0.233	-0.296
-420.500	-200.000	0.026	0.215
-419.486	-87.229	0.314	0.094
-418.471	-123.913	-0.128	0.020
-417.457	-200.000	-0.035	0.194
-416.442	800.000	0.056	0.242
-415.428	534.163	-0.045	-0.105
-414.413	-84.702	-0.194	-0.060
-413.398	800.000	0.093	-0.260
-412.384	99.925	0.236	0.270
-411.369	-91.700	-0.191	-0.054
-410.355	-200.000	0.000	0.184
-409.340	10.123	0.177	0.133
-408.325	-146.676	-0.170	-0.014
-407.311	-118.611	-0.270	-0.047
-406.296	46.807	0.141	-0.129
-405.282	-42.368	0.266	0.134
-404.267	-154.348	-0.313	-0.021
-403.252	-63.039	0.154	0.063
-402.238	241.434	0.047	-0.078
-401.223	800.000	0.089	-0.319
-400.209	279.814	-0.016	-0.028
-399.194	-200.000	-0.049	-0.273
-398.179	73.552	0.087	0.089
-397.165	-41.466	0.174	0.088
-396.150	731.607	-0.044	0.116
-395.136	-42.429	-0.019	-0.010
-394.121	800.000	-0.081	0.280
-393.106	-200.000	-0.014	0.384
-392.092	-57.549	0.288	0.124
-391.077	800.000	-0.071	0.240
-390.063	89.184	-0.100	-0.110
-389.048	-76.856	-0.325	-0.112
-388.033	391.793	-0.046	-0.094
-387.019	800.000	0.045	0.176
-386.004	-44.438	-0.234	0.115
-384.990	-123.559	-0.178	-0.028
-383.975	-64.397	0.187	-0.075
-382.960	-200.000	-0.003	0.113
-381.946	-200.000	-0.017	0.212
-380.931	-200.000	-0.042	0.349
-379.917	800.000	0.057	0.207
-378.902	13.211	0.123	-0.093
-377.888	374.134	-0.086	-0.172
-376.873	192.075	0.031	-0.045
-375.858	455.128	-0.048	0.105
-374.844	94.231	-0.242	-0.270
-373.829	800.000	0.061	-0.189
-372.815	-34.254	0.205	0.111
-371.800	426.521	0.129	-0.274
-370.785	-200.000	-0.035	0.268
-369.771	38.590	0.242	0.212
-368.756	65.000	0.154	-0.153
-367.742	-114.613	-0.280	0.053
-366.727	68.265	-0.173	-0.174
-365.712	107.114	0.087	-0.101
-364.698	128.283	0.361	0.452
-363.683	664.546	0.172	0.437
-362.669	-124.263	0.238	-0.037
-361.654	117.798	0.052	0.062
-360.639	-12.656	-0.066	0.043
-359.625	12.858	-0.212	-0.161
-358.610	-43.339	0.112	-0.056
-357.596	-46.538	0.238	0.115
-356.581	115.589	-0.068	-0.082
-355.566	800.000	-0.046	0.136
-354.552	800.000	-0.053	0.163
-353.537	402.939	0.114	0.236
-352.523	-28.165	0.137	0.078
-351.508	-139.458	-0.316	0.033
-350.493	-177.387	-0.120	0.003
-349.479	800.000	0.013	0.040
-348.464	479.416	0.138	-0.307
-347.450	22.605	0.154	-0.124
-346.435	158.754	-0.179	0.244
-345.420	-108.017	-0.423	-0.090
-344.406	99.195	0.023	0.026
-343.391	-108.995	0.194	-0.041
-342.377	262.887	0.116	0.198
-341.362	301.684	-0.045	-0.082
-340.348	-200.000	0.064	-0.279
-339.333	-200.000	0.004	0.067
-338.318	-157.650	0.327	-0.019
-337.304	69.820	-0.245	0.248
-336.289	-110.761	-0.299	-0.061
-335.275	725.367	0.052	-0.135
-334.260	-164.803	0.106	0.005
-333.245	-119.458	0.301	-0.051
-332.231	800.000	-0.075	-0.300
-331.216	-134.171	-0.085	-0.010
-330.202	411.467	-0.062	-0.130
-329.187	253.623	0.238	-0.400
-328.172	-199.830	0.316	0.002
-327.158	161.602	0.102	-0.141
-326.143	73.959	-0.297	-0.306
-325.129	266.890	-0.153	-0.263
-324.114	258.774	-0.206	-0.348
-323.099	227.597	-0.097	0.155
-322.085	-35.581	0.048	0.026
-321.070	-51.923	-0.317	-0.145
-320.056	21.896	-0.042	0.034
-319.041	208.366	-0.141	-0.217
-318.026	346.769	-0.099	0.191
-317.012	249.565	0.071	0.119
-315.997	800.000	0.086	0.241
-314.983	-23.682	0.235	-0.139
-313.968	-86.604	-0.246	-0.074
-312.953	42.754	0.213	-0.191
-311.939	-100.890	-0.015	-0.004
-310.924	90.265	0.045	0.049
-309.910	800.000	-0.078	0.286
-308.895	-21.507	-0.099	-0.059
-307.880	-168.009	0.184	0.007
-306.866	800.000	-0.084	-0.293
-305.851	-200.000	-0.020	-0.166
-304.837	212.977	-0.086	0.134
-303.822	-200.000	0.006	0.270
-302.807	-103.518	0.362	-0.083
-301.793	800.000	-0.093	-0.303
-300.778	49.059	0.207	-0.191
-299.764	-147.318	0.079	0.007
-298.749	-15.022	0.434	0.273
-297.735	71.537	-0.096	0.097
-296.720	-74.908	0.236	-0.083
-295.705	621.860	0.092	-0.228
-294.691	182.129	0.274	-0.396
-293.676	44.048	0.139	0.125
-292.662	-200.000	0.025	-0.218
-291.647	-200.000	-0.008	0.134
-290.632	-200.000	0.016	-0.185
-289.618	184.310	-0.049	-0.070
-288.603	800.000	-0.027	0.083
-287.589	-87.486	0.168	0.050
-286.574	-122.859	-0.123	-0.020
-285.559	-200.000	0.015	-0.198
-284.545	-200.000	0.010	0.252
-283.530	-200.000	0.016	0.073
-282.516	578.942	0.101	0.243
-281.501	-1.604	-0.342	0.236
-280.486	-42.076	0.273	-0.137
-279.472	-15.156	-0.325	0.204
-278.457	-200.000	-0.040	0.261
-277.443	-200.000	-0.012	0.281
-276.428	800.000	0.135	-0.459
-275.413	195.044	-0.160	0.238
-274.399	800.000	0.070	0.238
-273.384	-86.334	0.065	-0.019
-272.370	14.887	0.278	0.213
-271.355	21.346	0.120	-0.095
-270.340	800.000	-0.071	0.220
-269.326	-55.301	0.300	0.132
-268.311	-54.133	0.155	-0.069
-267.297	-121.189	0.315	0.052
-266.282	-83.794	0.295	-0.092
-265.267	-200.000	0.013	-0.390
-264.253	781.189	-0.131	0.352
-263.238	178.269	0.153	0.218
-262.224	570.315	-0.032	0.077
-261.209	800.000	-0.070	-0.265
-260.195	-200.000	0.001	-0.110
-259.180	129.743	0.286	-0.358
-258.165	59.281	-0.114	0.110
-257.151	-133.337	-0.103	-0.013
-256.136	4.024	-0.066	0.047
-255.122	-18.387	0.230	-0.141
-254.107	147.801	0.116	-0.153
-253.092	-98.933	-0.187	-0.046
-252.078	-200.000	0.016	0.068
-251.063	-200.000	0.065	0.426
-250.049	104.229	-0.161	-0.186
-249.034	-200.000	0.033	-0.227
-248.019	-71.585	0.067	-0.025
-247.005	-162.715	0.329	-0.016
-245.990	-151.619	-0.206	-0.015
-244.976	-16.201	0.198	0.123
-243.961	25.871	-0.094	-0.077
-242.946	800.000	0.030	-0.086
-241.932	58.442	0.160	0.154
-240.917	79.917	-0.242	0.255
-239.903	-101.648	0.213	-0.051
-238.888	-134.895	0.496	0.059
-237.873	-47.512	0.175	-0.083
-236.859	-200.000	0.065	-0.312
-235.844	800.000	0.123	0.392
-234.830	-16.550	0.217	-0.135
-233.815	-138.750	-0.209	0.022
-232.800	576.092	-0.121	-0.290
-231.786	184.172	-0.118	-0.172
-230.771	-200.000	0.028	0.179
-229.757	-52.629	0.352	-0.159
-228.742	60.995	-0.210	-0.204
-227.727	-56.509	0.466	0.202
-226.713	800.000	-0.125	-0.341
-225.698	-200.000	0.009	-0.088
-224.684	26.471	0.073	-0.060
-223.669	800.000	0.156	-0.438
-222.655	-69.832	-0.242	-0.090
-221.640	800.000	-0.041	0.114
-220.625	-141.364	0.256	-0.025
-219.611	35.713	0.092	0.080
-218.596	-79.097	0.217	-0.072
-217.582	-75.576	0.022	-0.008
-216.567	800.000	0.013	-0.052
-215.552	-147.399	0.081	0.007
-214.538	-188.508	-0.163	-0.002
-213.523	390.594	-0.040	0.081
-212.509	30.851	0.206	0.172
-211.494	-200.000	-0.061	0.281
-210.479	-200.000	0.023	-0.104
-209.465	-119.707	0.334	-0.056
-208.450	800.000	0.157	0.429
-207.436	287.366	-0.301	0.532
-206.421	180.062	0.123	0.176
-205.406	-43.745	-0.158	-0.078
-204.392	32.499	-0.277	0.234
-203.377	-57.436	0.349	0.150
-202.363	-200.000	-0.060	0.407
-201.348	-46.556	-0.154	0.074
-200.333	560.520	-0.047	-0.112
-199.319	-133.955	0.167	-0.020
-198.304	-200.000	-0.331	-0.001
-197.290	624.624	0.047	-0.115
-196.275	60.894	-0.131	-0.127
-195.260	-200.000	0.010	0.162
-194.246	179.995	0.156	0.224
-193.231	341.124	0.091	-0.174
-192.217	-200.000	-0.068	-0.410
-191.202	553.965	0.052	0.121
-190.187	-156.326	-0.212	0.013
-189.173	-78.843	0.116	-0.039
-188.158	-200.000	-0.055	0.262
-187.144	-200.000	-0.013	0.087
-186.129	9.290	-0.292	-0.216
-185.114	248.969	0.062	-0.103
-184.100	232.224	0.059	-0.095
-183.085	800.000	0.029	-0.119
-182.071	37.485	0.090	-0.078
-181.056	-200.000	0.022	-0.115
-180.042	98.852	-0.068	0.076
-179.027	612.082	0.034	0.084
-178.012	279.224	-0.047	-0.081
-176.998	-141.358	-0.038	0.004
-175.983	-38.779	0.153	-0.079
-174.969	-200.000	-0.012	0.193
-173.954	103.612	0.248	0.284
-172.939	137.415	-0.185	0.236
-171.925	-133.261	0.193	-0.024
-170.910	21.820	-0.164	-0.131
-169.896	-200.000	-0.002	0.163
-168.881	-200.000	-0.009	0.140
-167.866	-18.365	-0.235	0.143
-166.852	89.249	0.100	0.109
-165.837	99.584	-0.073	0.083
-164.823	197.493	-0.085	0.127
-163.808	-194.429	0.236	-0.002
-162.793	135.741	-0.040	-0.051
-161.779	266.975	-0.141	0.241
-160.764	156.425	0.380	-0.512
-159.750	-24.282	-0.206	0.120
-158.735	51.184	-0.336	-0.311
-157.720	75.653	0.128	-0.132
-156.706	-154.934	0.167	0.011
-155.691	102.257	0.191	0.218
-154.677	-56.676	-0.168	-0.072
-153.662	226.958	-0.104	-0.164
-152.647	-18.452	0.251	-0.153
-151.633	-133.926	0.374	0.045
-150.618	-106.745	0.312	-0.068
-149.604	74.742	0.149	0.153
-148.589	144.765	-0.042	0.055
-147.574	407.600	-0.088	-0.182
-146.560	15.197	0.111	0.085
-145.545	86.087	-0.121	0.130
-144.531	-108.717	-0.204	-0.043
-143.516	-94.832	0.068	0.018
-142.502	-93.065	0.148	0.040
-141.487	-6.683	0.177	-0.117
-140.472	-200.000	0.027	-0.169
-139.458	326.802	-0.060	-0.112
-138.443	550.148	-0.105	-0.246
-137.429	-200.000	-0.055	0.246
-136.414	-143.874	-0.132	-0.012
-135.399	186.835	0.165	-0.240
-134.385	-200.000	-0.027	0.202
-133.370	-146.029	-0.078	-0.007
-132.356	-109.288	0.244	-0.051
-131.341	18.985	-0.223	0.174
-130.326	233.618	-0.168	0.270
-129.312	-146.828	0.195	-0.016
-128.297	-62.805	0.161	0.065
-127.283	567.864	-0.063	-0.149
-126.268	-40.919	0.230	0.116
-125.253	144.430	0.028	0.037
-124.239	-16.308	0.188	0.116
-123.224	362.406	-0.084	0.165
-122.210	800.000	0.076	0.300
-121.195	-19.600	0.160	0.097
-120.180	549.412	0.230	0.536
-119.166	190.643	-0.075	-0.110
-118.151	77.237	0.235	-0.243
-117.137	-68.147	0.268	0.102
-116.122	-5.795	0.211	-0.141
-115.107	-49.474	0.224	0.104
-114.093	-200.000	-0.002	0.154
-113.078	540.659	0.133	0.307
-112.064	-137.656	-0.103	0.011
-111.049	595.377	0.162	0.392
-110.034	-157.850	0.387	-0.022
-109.020	-200.000	0.040	0.170
-108.005	-74.412	0.317	0.111
-106.991	800.000	0.051	0.164
-105.976	800.000	0.115	-0.312
-104.962	-200.000	0.027	0.129
-103.947	-52.329	-0.141	-0.063
-102.932	-91.127	0.403	0.113
-101.918	-80.459	-0.183	0.060
-100.903	17.697	0.103	0.080
-99.889	800.000	-0.023	-0.085
-98.874	214.853	0.109	-0.168
-97.859	260.491	0.141	0.238
-96.845	21.274	0.138	-0.109
-95.830	-200.000	0.015	0.079
-94.816	-51.404	0.023	-0.010
-93.801	-20.435	0.297	0.178
-92.786	7.774	0.104	-0.076
-91.772	166.652	0.189	0.260
-90.757	-146.328	-0.107	0.009
-89.743	-80.284	0.176	0.057
-88.728	45.381	-0.241	0.217
-87.713	-200.000	0.043	0.200
-86.699	-152.319	0.240	0.017
-85.684	52.606	0.154	-0.143
-84.670	-200.000	0.060	-0.285
-83.655	-200.000	0.021	0.092
-82.640	-200.000	-0.002	0.023
-81.626	800.000	0.078	-0.300
-80.611	313.512	0.119	-0.217
-79.597	-27.622	0.128	0.072
-78.582	1.101	0.125	-0.088
-77.567	-46.927	0.203	-0.097
-76.553	-80.332	0.133	0.043
-75.538	-5.548	0.259	-0.173
-74.524	-114.207	-0.252	0.047
-73.509	-45.705	0.134	-0.064
-72.494	107.393	0.141	-0.164
-71.480	-184.056	0.222	0.004
-70.465	-10.844	0.112	-0.072
-69.451	-58.057	0.144	0.061
-68.436	144.970	-0.064	0.083
-67.422	-91.607	0.283	-0.078
-66.407	-200.000	-0.031	-0.147
-65.392	454.522	0.114	0.246
-64.378	-200.000	-0.017	-0.200
-63.363	-200.000	0.024	-0.249
-62.349	208.560	-0.140	0.214
-61.334	175.118	-0.917	-1.291
-60.319	26.004	0.912	0.740
-59.305	800.000	-0.399	-1.309
-58.290	155.968	1.018	1.365
-57.276	289.245	0.644	1.135
-56.261	-200.000	122.189	646.183
-55.246	436.629	1542.892	3266.171
-54.232	146.990	2704.918	3536.110
-53.217	92.241	2282.579	2499.909
-52.203	33.074	1897.454	1598.440
-51.188	27.129	1694.409	1382.267
-50.173	24.919	1655.630	1334.134
-49.159	45.824	1723.763	1549.105
-48.144	44.004	1735.510	1545.740
-47.130	26.724	1686.492	1372.526
-46.115	24.122	1671.797	1340.948
-45.100	23.914	1667.073	1335.546
-44.086	24.048	1664.115	1334.127
-43.071	23.900	1662.457	1331.636
-42.057	23.878	1660.250	1329.647
-41.042	23.929	1657.906	1328.098
-40.027	23.973	1656.048	1326.887
-39.013	23.882	1654.521	1324.935
-37.998	23.904	1652.606	1323.509
-36.984	23.955	1651.089	1322.618
-35.969	24.017	1649.817	1322.011
-34.954	24.052	1648.090	1320.832
-33.940	24.050	1646.871	1319.793
-32.925	24.001	1645.228	1318.057
-31.911	24.086	1643.099	1316.929
-30.896	24.106	1641.485	1315.730
-29.881	24.059	1640.219	1314.319
-28.867	24.059	1638.701	1313.046
-27.852	24.063	1637.228	1311.843
-26.838	23.982	1635.594	1309.885
-25.823	24.154	1633.984	1309.810
-24.809	24.069	1632.811	1308.191
-23.794	24.094	1631.708	1307.443
-22.779	24.139	1630.534	1306.782
-21.765	24.166	1628.544	1305.328
-20.750	24.100	1626.860	1303.445
-19.736	24.109	1625.751	1302.569
-18.721	24.160	1624.433	1301.837
-17.706	24.040	1622.887	1299.673
-16.692	24.002	1621.501	1298.235
-15.677	24.055	1620.158	1297.493
-14.663	24.118	1618.553	1296.613
-13.648	24.146	1617.276	1295.745
-12.633	24.055	1615.717	1293.779
-11.619	24.139	1614.138	1293.072
-10.604	24.018	1613.218	1291.407
-9.590	24.128	1611.262	1290.591
-8.575	24.127	1609.794	1289.352
-7.560	24.139	1608.765	1288.564
-6.546	24.062	1608.171	1287.481
-5.531	24.115	1606.812	1286.727
-4.517	24.142	1605.316	1285.669
-3.502	24.130	1604.408	1284.804
-2.487	24.074	1602.962	1283.190
-1.473	23.743	1590.548	1270.836
-0.458	20.773	1571.301	1234.385
0.556	16.365	1572.960	1203.862
1.571	14.099	1596.384	1205.272
2.586	13.929	1608.362	1212.967
3.600	12.873	1553.746	1164.218
4.615	7.389	1447.222	1048.152
5.629	1.800	1387.938	969.625
6.644	0.806	1380.528	958.069
7.659	0.753	1379.830	957.166
8.673	0.813	1378.720	956.690
9.688	0.749	1376.605	954.731
10.702	0.563	1373.472	951.307
11.717	3.282	1376.745	970.640
12.731	10.155	1387.358	1021.575
13.746	15.760	1395.324	1062.856
14.761	17.392	1396.921	1074.297
15.775	16.739	1394.891	1068.521
16.790	15.723	1392.133	1059.909
17.804	15.050	1389.509	1053.584
18.819	14.596	1388.659	1049.992
19.834	14.379	1387.132	1047.377
20.848	14.162	1385.897	1044.991
21.863	13.923	1384.862	1042.618
22.877	13.654	1384.089	1040.255
23.892	13.675	1382.885	1039.393
24.907	13.653	1381.990	1038.487
25.921	13.670	1381.077	1037.819
26.936	13.762	1380.044	1037.527
27.950	13.697	1379.361	1036.512
28.965	13.808	1378.022	1036.106
29.980	13.877	1376.999	1035.677
30.994	13.915	1376.021	1035.086
32.009	13.889	1375.229	1034.235
33.023	13.931	1373.764	1033.306
34.038	13.872	1372.614	1031.983
35.053	13.814	1371.763	1030.892
36.067	13.785	1370.557	1029.712
37.082	13.850	1369.558	1029.278
38.096	13.818	1368.890	1028.484
39.111	13.848	1367.651	1027.648
40.126	13.870	1366.974	1027.186
41.140	13.803	1366.160	1026.067
42.155	13.747	1365.793	1025.358
43.169	13.599	1365.922	1024.447
44.184	13.621	1365.373	1024.082
45.199	13.783	1364.348	1024.220
46.213	13.677	1363.975	1023.196
47.228	13.792	1363.110	1023.163
48.242	13.760	1361.740	1021.847
49.257	13.695	1360.247	1020.242
50.271	13.824	1358.759	1019.823
51.286	13.793	1357.505	1018.603
52.301	13.850	1356.113	1017.821
53.315	13.829	1355.285	1016.978
54.330	13.666	1354.549	1015.335
55.344	13.745	1352.865	1014.471
56.359	13.720	1351.990	1013.571
57.374	13.715	1351.004	1012.708
58.388	13.610	1350.489	1011.591
59.403	13.675	1349.801	1011.386
60.417	13.629	1348.872	1010.317
61.432	13.683	1347.637	1009.637
62.447	13.600	1347.515	1008.948
63.461	13.512	1346.326	1007.433
64.476	13.578	1344.734	1006.557
65.490	13.458	1344.010	1005.197
66.505	13.543	1342.250	1004.303
67.520	13.571	1341.116	1003.539
68.534	13.655	1340.151	1003.232
69.549	13.712	1338.590	1002.325
70.563	13.528	1337.779	1000.515
71.578	13.584	1336.505	999.813
72.593	13.596	1335.769	999.247
73.607	13.441	1335.502	998.025
74.622	13.384	1334.206	996.620
75.636	13.597	1333.303	997.140
76.651	13.508	1332.642	996.021
77.666	13.476	1332.367	995.539
78.680	13.475	1331.990	995.163
79.695	13.560	1330.465	994.444
80.709	13.560	1329.886	993.925
81.724	13.616	1328.902	993.437
82.739	13.673	1327.951	992.977
83.753	13.694	1326.909	992.238
84.768	13.700	1325.943	991.461
85.782	13.625	1325.083	990.282
86.797	13.732	1323.194	989.425
87.812	13.724	1322.124	988.484
88.826	13.757	1320.974	987.735
89.841	13.739	1319.405	986.368
90.855	13.809	1318.816	986.256
91.870	13.766	1317.970	985.284
92.884	13.826	1316.888	984.744
93.899	13.895	1315.918	984.338
94.914	13.882	1314.867	983.389
95.928	13.862	1314.525	982.928
96.943	13.777	1314.133	982.041
97.957	13.785	1312.742	980.962
98.972	13.758	1311.781	980.002
99.987	13.855	1310.451	979.492
101.001	13.770	1309.564	978.240
102.016	13.721	1308.966	977.420
103.030	13.814	1307.767	976.983
104.045	13.743	1307.079	975.965
105.060	13.740	1305.587	974.749
106.074	13.663	1304.340	973.280
107.089	13.607	1302.892	971.782
108.103	13.699	1301.529	971.220
109.118	13.620	1300.095	969.600
110.133	13.631	1298.999	968.766
111.147	13.640	1297.510	967.623
112.162	13.769	1296.069	967.210
113.176	13.734	1295.145	966.235
114.191	13.826	1294.086	965.893
115.206	13.769	1293.018	964.679
116.220	13.768	1291.431	963.404
117.235	13.767	1290.741	962.801
118.249	13.627	1289.988	961.337
119.264	13.760	1288.690	961.061
120.279	13.768	1287.241	959.938
121.293	13.657	1286.806	958.885
122.308	13.691	1285.473	958.004
123.322	13.600	1284.654	956.784
124.337	13.730	1283.376	956.498
125.352	13.761	1281.949	955.526
126.366	13.671	1281.476	954.571
127.381	13.730	1279.933	953.679
128.395	13.706	1278.829	952.633
129.410	13.726	1278.023	952.066
130.424	13.731	1277.007	951.251
131.439	13.743	1276.555	950.898
132.454	13.720	1275.174	949.656
133.468	13.766	1274.476	949.317
134.483	13.766	1273.531	948.529
135.497	13.733	1272.841	947.740
136.512	13.793	1271.337	946.876
137.527	13.733	1270.252	945.647
138.541	13.762	1268.659	944.540
139.556	13.826	1266.820	943.449
140.570	13.734	1266.277	942.438
141.585	13.809	1264.336	941.336
142.600	13.867	1263.395	940.882
143.614	13.844	1262.854	940.266
144.629	13.843	1261.741	939.348
145.643	13.872	1260.655	938.624
146.658	13.924	1258.803	937.454
147.673	13.817	1258.022	936.184
148.687	13.786	1256.888	935.084
149.702	13.837	1255.545	934.289
150.716	13.727	1254.349	932.695
151.731	13.905	1253.026	932.629
152.746	13.906	1251.640	931.525
153.760	13.959	1249.994	930.513
154.775	13.969	1249.331	929.995
155.789	14.015	1248.114	929.264
156.804	13.884	1247.243	927.800
157.819	13.913	1246.161	927.074
158.833	14.001	1245.028	926.642
159.848	14.029	1244.643	926.425
160.862	14.072	1243.259	925.557
161.877	14.091	1241.643	924.375
162.892	13.952	1241.159	923.159
163.906	13.837	1240.462	921.925
164.921	13.955	1239.417	921.716
165.935	13.959	1238.796	921.199
166.950	13.973	1238.081	920.661
167.964	14.039	1237.302	920.364
168.979	14.060	1236.276	919.640
169.994	14.046	1235.460	918.871
171.008	14.099	1234.769	918.569
172.023	14.193	1233.610	918.143
173.037	14.115	1233.297	917.403
174.052	14.174	1232.588	917.115
175.067	14.188	1231.085	915.994
176.081	14.161	1230.111	915.040
177.096	14.149	1229.278	914.273
178.110	14.176	1228.193	913.534
179.125	14.203	1226.641	912.448
180.140	14.120	1226.212	911.591
181.154	14.178	1224.467	910.532
182.169	14.226	1223.427	909.941
183.183	14.284	1222.054	909.155
184.198	14.267	1220.762	908.023
185.213	14.303	1219.421	907.139
186.227	14.336	1218.603	906.633
187.242	14.260	1217.970	905.667
188.256	14.243	1216.985	904.762
189.271	14.367	1215.425	904.196
190.286	14.266	1214.593	902.949
191.300	14.156	1213.928	901.775
192.315	14.128	1213.671	901.356
193.329	14.178	1212.829	900.919
194.344	14.293	1211.928	900.791
195.359	14.398	1211.369	900.865
196.373	14.341	1210.729	900.004
197.388	14.344	1210.770	899.968
198.402	14.341	1210.034	899.328
199.417	14.589	1209.295	900.036
200.432	14.572	1208.316	899.138
201.446	14.484	1207.813	898.208
202.461	14.622	1206.341	897.778
203.475	14.634	1205.491	897.126
204.490	14.609	1204.275	896.009
205.504	14.591	1202.755	894.705
206.519	14.622	1201.654	893.970
207.534	14.452	1200.972	892.475
208.548	14.647	1199.484	892.333
209.563	14.560	1199.322	891.670
210.577	14.564	1198.097	890.701
211.592	14.634	1197.392	890.471
212.607	14.726	1196.356	890.112
213.621	14.650	1195.285	888.832
214.636	14.759	1194.768	888.946
215.650	14.720	1193.992	888.084
216.665	14.641	1193.134	886.950
217.680	14.799	1192.060	886.912
218.694	14.785	1191.396	886.261
219.709	14.737	1190.166	885.015
220.723	14.856	1189.465	885.044
221.738	14.804	1188.821	884.214
222.753	14.777	1188.195	883.527
223.767	14.803	1187.444	883.026
224.782	14.831	1186.853	882.655
225.796	14.954	1185.996	882.593
226.811	14.870	1185.158	881.446
227.826	14.857	1184.355	880.703
228.840	14.904	1183.704	880.390
229.855	14.921	1183.140	879.978
230.869	14.839	1182.429	878.941
231.884	14.898	1181.223	878.277
232.899	14.872	1180.939	877.855
233.913	14.859	1180.178	877.142
234.928	14.780	1179.833	876.394
235.942	14.785	1178.736	875.528
236.957	14.880	1177.841	875.282
237.972	14.897	1177.284	874.879
238.986	14.903	1176.561	874.294
240.001	14.965	1175.611	873.837
241.015	15.069	1174.163	873.224
242.030	15.076	1173.787	872.907
243.045	14.999	1172.919	871.781
244.059	14.951	1172.844	871.397
245.074	14.913	1171.616	870.212
246.088	15.093	1170.656	870.358
247.103	15.063	1169.804	869.489
248.117	15.061	1169.295	869.027
249.132	15.176	1168.335	868.829
250.147	15.131	1167.883	868.183
251.161	15.119	1167.141	867.494
252.176	15.329	1166.212	867.816
253.190	15.360	1165.271	867.195
254.205	15.358	1164.956	866.878
255.220	15.362	1164.607	866.560
256.234	15.357	1163.863	865.902
257.249	15.325	1162.912	864.953
258.263	15.443	1162.308	865.035
259.278	15.486	1161.314	864.440
260.293	15.435	1160.767	863.696
261.307	15.406	1160.824	863.513
262.322	15.366	1160.115	862.705
263.336	15.533	1159.138	862.758
264.351	15.514	1158.505	862.111
265.366	15.561	1157.802	861.756
266.380	15.488	1157.052	860.748
267.395	15.444	1156.722	860.198
268.409	15.631	1155.454	860.137
269.424	15.591	1155.059	859.561
270.439	15.583	1154.515	859.038
271.453	15.552	1153.482	858.035
272.468	15.506	1152.903	857.295
273.482	15.688	1151.889	857.394
274.497	15.581	1151.346	856.370
275.512	15.575	1151.199	856.153
276.526	15.547	1150.247	855.227
277.541	15.614	1149.651	855.051
278.555	15.644	1148.876	854.551
279.570	15.527	1148.338	853.477
280.585	15.716	1147.024	853.387
281.599	15.766	1145.983	852.790
282.614	15.759	1144.843	851.832
283.628	15.740	1143.990	851.025
284.643	15.811	1143.058	850.614
285.657	15.814	1142.376	850.047
286.672	15.796	1141.508	849.237
287.687	15.740	1140.593	848.196
288.701	15.795	1140.213	848.116
289.716	15.784	1138.969	847.062
290.730	15.923	1138.330	847.210
291.745	15.849	1137.543	846.175
292.760	15.963	1137.088	846.335
293.774	15.996	1136.226	845.786
294.789	15.963	1135.969	845.353
295.803	15.961	1135.083	844.609
296.818	15.996	1134.253	844.092
297.833	16.025	1133.774	843.807
298.847	15.892	1133.114	842.575
299.862	15.925	1132.182	841.971
300.876	16.043	1131.315	841.841
301.891	16.137	1130.385	841.543
302.906	16.083	1130.324	841.156
303.920	16.185	1129.280	840.815
304.935	16.135	1128.634	840.006
305.949	16.088	1128.270	839.430
306.964	16.300	1127.382	839.747
307.979	16.290	1126.389	838.884
308.993	16.257	1125.708	838.139
310.008	16.268	1125.022	837.609
311.022	16.212	1124.280	836.706
312.037	16.278	1123.665	836.502
313.052	16.250	1122.448	835.381
314.066	16.217	1121.438	834.395
315.081	16.139	1121.146	833.716
316.095	16.182	1119.950	832.966
317.110	16.232	1119.387	832.722
318.125	16.169	1118.964	832.021
319.139	16.163	1117.873	831.108
320.154	16.161	1117.765	830.941
321.168	16.177	1117.045	830.412
322.183	16.338	1116.091	830.421
323.197	16.339	1115.465	829.889
324.212	16.248	1114.808	828.880
325.227	16.178	1114.563	828.278
326.241	16.379	1113.536	828.431
327.256	16.196	1112.854	826.949
328.270	16.244	1111.637	826.212
329.285	16.386	1110.735	826.162
330.300	16.300	1109.751	824.933
331.314	16.226	1109.339	824.196
332.329	16.357	1108.139	823.871
333.343	16.337	1107.495	823.220
334.358	16.451	1105.771	822.418
335.373	16.447	1105.597	822.200
336.387	16.596	1104.511	822.041
337.402	16.597	1103.537	821.251
338.416	16.671	1102.974	821.115
339.431	16.585	1102.424	820.219
340.446	16.585	1101.691	819.600
341.460	16.587	1101.313	819.257
342.475	16.712	1100.123	818.902
343.489	16.589	1099.259	817.595
344.504	16.682	1098.605	817.485
345.519	16.845	1097.127	817.097
346.533	16.820	1096.768	816.636
347.548	16.901	1096.226	816.552
348.562	16.741	1095.793	815.388
349.577	16.694	1094.610	814.205
350.592	16.768	1093.739	813.843
351.606	16.607	1093.415	812.758
352.621	16.783	1092.690	812.989
353.635	16.797	1092.045	812.505
354.650	16.738	1090.978	811.357
355.665	16.720	1090.354	810.735
356.679	16.714	1089.956	810.337
357.694	16.884	1088.949	810.329
358.708	16.870	1088.604	809.937
359.723	16.899	1088.027	809.573
360.738	16.887	1087.467	809.029
361.752	16.808	1086.904	808.163
362.767	16.920	1085.994	807.946
363.781	16.998	1085.442	807.837
364.796	16.971	1085.263	807.501
365.810	17.111	1084.321	807.396
366.825	16.965	1084.214	806.548
367.840	17.067	1083.338	806.312
368.854	17.082	1082.634	805.787
369.869	16.977	1082.154	804.862
370.883	17.161	1080.939	804.757
371.898	17.106	1080.233	803.899
372.913	17.165	1079.726	803.731
373.927	16.985	1079.490	802.635
374.942	17.110	1078.775	802.620
375.956	17.219	1078.301	802.713
376.971	17.107	1078.027	801.911
377.986	17.233	1076.977	801.650
379.000	17.189	1076.583	801.081
380.015	17.424	1075.692	801.455
381.029	17.264	1075.247	800.298
382.044	17.351	1074.354	799.970
383.059	17.321	1073.951	799.460
384.073	17.322	1073.162	798.804
385.088	17.308	1071.732	797.603
386.102	17.294	1071.302	797.149
387.117	17.375	1070.315	796.722
388.132	17.336	1069.347	795.750
389.146	17.360	1068.725	795.329
390.161	17.359	1067.815	794.574
391.175	17.391	1066.819	793.914
392.190	17.548	1066.382	794.252
393.205	17.483	1065.894	793.516
394.219	17.418	1064.808	792.331
395.234	17.311	1064.216	791.324
396.248	17.242	1063.338	790.279
397.263	17.468	1061.857	790.161
398.278	17.526	1061.046	789.755
399.292	17.543	1060.564	789.403
400.307	17.478	1060.082	788.674
401.321	17.498	1059.290	788.107
402.336	17.407	1058.952	787.365
403.350	17.501	1057.939	786.976
404.365	17.529	1057.322	786.577
405.380	17.510	1056.702	785.958
406.394	17.561	1055.889	785.523
407.409	17.698	1055.109	785.502
408.423	17.657	1054.355	784.684
409.438	17.693	1053.580	784.203
410.453	17.728	1052.895	783.785
411.467	17.717	1052.223	783.165
412.482	17.731	1051.647	782.728
413.496	17.707	1051.061	782.117
414.511	17.744	1050.476	781.782
415.526	17.929	1049.996	782.203
416.540	17.787	1049.696	781.256
417.555	17.959	1048.595	781.157
418.569	17.910	1048.321	780.657
419.584	17.839	1047.855	779.920
420.599	17.937	1047.232	779.833
421.613	109.673	1328.953	1488.809
422.628	100.947	1369.936	1488.886
