DTS Sentinel unit serial number:	SN413079Multiplexer serial number:	ORYXHardware model number:	OX4-SRSoftware version number:	ORYX F/W v4.00 Oryx Data Collector v3.7.2.0data status	okinstallation	princeton_trtdifferential loss correction	single-endedforward channel	channel 2reverse channel	N/Adate	2019/09/15time	01:59:35forward acquisition time	60.00reverse acquisition time	0.00gamma	496.2192k internal	0.2325k external	0.2325temperature offset calibration	1.0031default loss term (dB/km)	0.3790temperature slope calibration	1.0000multiplexer offset coefficient	1.0000multiplexer slope coefficient	1.0000fibre end	0.00T internal ref (°C)	31.75T ext. ref 1 (°C)	4.51T ext. ref 2 (°C)	26.56length (m)	temperature (°C)	Stokes	anti-Stokes-747.200	800.000	0.039	-0.115
-746.185	-137.248	-0.217	-0.025
-745.171	511.276	-0.103	-0.241
-744.156	-133.552	-0.119	0.015
-743.142	-25.145	-0.134	0.080
-742.127	-200.000	0.021	0.110
-741.112	382.238	0.056	-0.116
-740.098	-200.000	-0.042	-0.219
-739.083	-9.206	-0.152	-0.102
-738.069	142.898	-0.213	0.285
-737.054	66.608	0.059	0.060
-736.039	-61.828	-0.307	-0.130
-735.025	47.871	0.173	0.163
-734.010	187.386	-0.189	-0.284
-732.996	659.034	-0.117	-0.303
-731.981	-200.000	0.017	-0.183
-730.966	-24.035	-0.208	0.125
-729.952	-3.289	-0.371	-0.261
-728.937	-45.545	0.063	-0.032
-727.923	-7.772	-0.315	-0.215
-726.908	-42.407	-0.378	-0.194
-725.894	267.505	-0.030	-0.053
-724.879	65.752	-0.313	-0.320
-723.864	-81.134	0.278	-0.092
-722.850	352.911	0.035	0.071
-721.835	147.902	0.129	0.176
-720.821	80.735	-0.290	0.315
-719.806	-155.274	0.222	0.015
-718.791	-168.838	-0.178	0.007
-717.777	-48.215	-0.042	-0.020
-716.762	-151.477	-0.166	0.012
-715.748	-200.000	0.020	0.192
-714.733	531.552	0.086	-0.206
-713.718	-93.169	-0.082	-0.023
-712.704	-20.827	-0.060	-0.037
-711.689	-57.589	0.100	0.044
-710.675	7.812	-0.153	0.115
-709.660	800.000	-0.043	0.133
-708.645	9.263	-0.341	0.260
-707.631	39.412	0.404	-0.365
-706.616	-100.862	-0.332	-0.082
-705.602	-200.000	0.013	0.139
-704.587	2.882	-0.299	-0.218
-703.572	211.022	0.256	-0.405
-702.558	121.932	-0.049	-0.062
-701.543	82.533	0.097	0.106
-700.529	243.832	-0.133	-0.224
-699.514	-37.901	0.320	-0.172
-698.499	800.000	0.070	0.285
-697.485	800.000	-0.065	0.228
-696.470	-200.000	0.046	0.460
-695.456	249.092	-0.136	-0.232
-694.441	-134.007	-0.273	-0.034
-693.426	97.702	-0.167	0.194
-692.412	-140.993	0.307	0.032
-691.397	800.000	-0.084	-0.369
-690.383	-127.703	-0.219	0.032
-689.368	-200.000	-0.001	-0.314
-688.354	-157.921	-0.190	-0.011
-687.339	-200.000	-0.034	0.336
-686.324	-24.815	0.032	0.019
-685.310	27.578	0.164	-0.139
-684.295	-162.526	-0.115	-0.006
-683.281	-47.103	0.190	-0.093
-682.266	-200.000	-0.047	0.237
-681.251	-26.294	0.141	-0.083
-680.237	-173.760	-0.052	-0.002
-679.222	58.508	-0.212	-0.209
-678.208	-131.510	-0.177	-0.023
-677.193	178.081	0.158	0.231
-676.178	-152.550	0.306	0.022
-675.164	226.951	-0.184	-0.301
-674.149	126.805	0.034	0.043
-673.135	48.549	-0.196	-0.185
-672.120	800.000	-0.102	-0.361
-671.105	-117.141	-0.304	0.056
-670.091	-83.803	-0.217	-0.070
-669.076	-200.000	-0.062	0.438
-668.062	-56.648	0.189	0.084
-667.047	-87.502	-0.423	-0.129
-666.032	657.797	0.132	0.343
-665.018	-69.416	-0.234	-0.090
-664.003	89.792	0.218	0.245
-662.989	11.405	-0.144	0.111
-661.974	-54.400	-0.049	-0.022
-660.959	-97.687	-0.207	-0.054
-659.945	-92.486	-0.320	-0.091
-658.930	101.173	-0.160	-0.187
-657.916	-79.600	0.403	-0.137
-656.901	-200.000	-0.006	-0.092
-655.886	-147.857	0.156	0.013
-654.872	-134.830	-0.249	-0.030
-653.857	128.012	-0.003	-0.004
-652.843	272.853	0.138	-0.244
-651.828	422.112	0.077	0.166
-650.814	-82.547	0.150	0.049
-649.799	40.232	-0.125	0.113
-648.784	-137.186	-0.155	-0.018
-647.770	-59.763	-0.354	-0.152
-646.755	399.764	-0.081	-0.170
-645.741	-111.333	-0.319	-0.065
-644.726	-102.972	0.184	0.044
-643.711	-90.218	-0.262	0.077
-642.697	90.909	-0.176	0.199
-641.682	166.196	0.030	-0.043
-640.668	-107.064	-0.350	-0.078
-639.653	-200.000	0.026	-0.387
-638.638	-60.395	-0.163	-0.070
-637.624	-78.412	0.185	0.064
-636.609	-185.329	-0.184	0.003
-635.595	60.414	-0.411	-0.409
-634.580	-90.095	-0.247	-0.072
-633.565	6.064	0.051	0.038
-632.551	181.101	-0.075	0.110
-631.536	-200.000	-0.002	-0.142
-630.522	-200.000	0.003	0.324
-629.507	-152.375	-0.307	0.022
-628.492	118.925	-0.117	0.145
-627.478	244.796	-0.076	0.129
-626.463	278.259	0.107	-0.192
-625.449	-159.102	0.111	-0.006
-624.434	-99.841	-0.289	0.073
-623.419	-200.000	-0.049	-0.270
-622.405	-43.516	-0.223	0.113
-621.390	548.808	-0.073	0.176
-620.376	91.294	-0.214	0.241
-619.361	-101.957	0.088	0.021
-618.346	-200.000	0.128	0.000
-617.332	-200.000	0.003	-0.084
-616.317	190.670	-0.084	0.126
-615.303	5.456	0.065	0.048
-614.288	-200.000	0.069	-0.374
-613.273	-4.235	-0.164	0.114
-612.259	-200.000	0.056	-0.265
-611.244	-200.000	0.001	0.080
-610.230	-128.265	-0.339	0.049
-609.215	800.000	-0.060	0.180
-608.201	-163.384	0.059	0.003
-607.186	-84.120	0.191	-0.061
-606.171	-171.890	-0.223	0.007
-605.157	-122.519	-0.238	-0.039
-604.142	220.825	-0.137	0.220
-603.128	25.989	-0.233	-0.195
-602.113	491.958	0.139	-0.319
-601.098	128.239	-0.109	0.139
-600.084	123.402	0.092	0.116
-599.069	-70.866	0.138	0.052
-598.055	-113.157	0.451	-0.089
-597.040	222.931	-0.019	0.031
-596.025	800.000	-0.066	-0.282
-595.011	-200.000	-0.022	-0.125
-593.996	244.635	0.022	0.037
-592.982	212.597	-0.124	0.197
-591.967	23.896	-0.149	-0.123
-590.952	6.173	-0.091	0.068
-589.938	800.000	0.049	-0.178
-588.923	800.000	-0.040	-0.129
-587.909	-158.625	0.313	-0.018
-586.894	-200.000	0.027	-0.368
-585.879	-130.000	0.414	0.057
-584.865	-45.993	0.233	-0.115
-583.850	198.230	-0.252	0.387
-582.836	108.001	0.048	-0.057
-581.821	-27.729	0.179	-0.104
-580.806	45.674	-0.177	0.164
-579.792	99.686	0.319	-0.371
-578.777	183.366	-0.031	0.046
-577.763	82.017	-0.125	0.136
-576.748	196.695	0.156	0.239
-575.733	800.000	-0.049	0.172
-574.719	-87.081	0.137	-0.042
-573.704	-20.022	-0.224	-0.139
-572.690	-39.708	0.297	0.156
-571.675	-119.951	0.381	-0.066
-570.661	614.390	0.074	0.185
-569.646	-108.316	0.285	0.062
-568.631	-118.079	0.277	-0.050
-567.617	-60.270	0.282	-0.121
-566.602	131.235	0.126	-0.162
-565.588	-58.087	-0.114	0.050
-564.573	91.119	-0.124	0.139
-563.558	-200.000	0.028	0.341
-562.544	-122.307	0.297	-0.049
-561.529	-94.956	0.174	-0.047
-560.515	-20.463	0.180	0.111
-559.500	-165.298	-0.598	-0.026
-558.485	-125.835	0.253	-0.038
-557.471	-135.474	0.117	0.014
-556.456	184.773	-0.147	0.218
-555.442	-160.054	-0.217	-0.012
-554.427	527.362	-0.097	0.229
-553.412	800.000	0.068	-0.203
-552.398	112.677	0.094	-0.114
-551.383	-78.675	-0.023	0.008
-550.369	295.805	-0.067	0.123
-549.354	-59.222	-0.221	0.096
-548.339	219.462	0.164	0.263
-547.325	113.933	0.138	0.168
-546.310	-23.775	-0.112	-0.067
-545.296	-200.000	0.021	0.212
-544.281	-75.362	0.366	0.131
-543.266	238.333	-0.088	-0.146
-542.252	-35.035	-0.138	0.076
-541.237	-104.283	0.307	-0.071
-540.223	800.000	-0.039	0.132
-539.208	-58.940	-0.081	0.035
-538.193	-31.240	-0.271	-0.153
-537.179	186.435	-0.118	-0.176
-536.164	770.585	-0.059	-0.162
-535.150	-200.000	0.205	-0.001
-534.135	19.295	-0.119	-0.095
-533.121	-141.637	0.307	-0.031
-532.106	800.000	-0.033	0.093
-531.091	-200.000	-0.062	-0.530
-530.077	257.534	0.171	-0.295
-529.062	-22.546	-0.225	0.136
-528.048	190.108	0.158	0.238
-527.033	27.555	-0.071	0.060
-526.018	77.406	-0.168	0.179
-525.004	156.250	-0.146	0.201
-523.989	5.042	-0.148	-0.109
-522.975	76.652	0.103	-0.109
-521.960	-93.873	-0.090	-0.025
-520.945	-6.546	0.259	0.177
-519.931	800.000	-0.035	-0.135
-518.916	85.355	0.137	0.151
-517.902	-200.000	-0.016	0.183
-516.887	800.000	-0.128	-0.376
-515.872	-82.249	0.222	0.072
-514.858	408.668	-0.084	0.177
-513.843	-96.133	-0.376	0.100
-512.829	-142.190	-0.092	0.009
-511.814	497.136	0.076	0.175
-510.799	183.499	-0.250	0.370
-509.785	-200.000	-0.055	0.242
-508.770	-7.409	0.222	-0.150
-507.756	800.000	-0.049	-0.180
-506.741	-21.465	-0.286	-0.174
-505.726	-200.000	0.008	-0.256
-504.712	-200.000	0.024	0.338
-503.697	-200.000	-0.088	0.406
-502.683	-152.738	0.089	-0.006
-501.668	127.407	0.237	-0.300
-500.653	-200.000	0.008	-0.096
-499.639	800.000	0.018	-0.068
-498.624	-27.677	0.102	-0.059
-497.610	-19.771	0.172	-0.106
-496.595	418.887	-0.066	-0.141
-495.581	103.174	0.245	0.287
-494.566	131.836	0.269	-0.346
-493.551	86.367	-0.173	-0.190
-492.537	-200.000	0.050	0.219
-491.522	800.000	-0.048	0.185
-490.508	800.000	0.080	-0.269
-489.493	-200.000	-0.008	-0.098
-488.478	279.844	0.084	-0.150
-487.464	162.708	-0.210	-0.295
-486.449	-159.945	-0.138	-0.008
-485.435	-99.560	0.309	-0.077
-484.420	800.000	0.070	-0.219
-483.405	-14.002	0.101	-0.065
-482.391	183.005	0.106	0.156
-481.376	37.000	-0.198	-0.175
-480.362	-200.000	0.046	-0.206
-479.347	-48.595	0.112	0.054
-478.332	533.218	0.128	-0.303
-477.318	20.931	0.172	0.139
-476.303	800.000	-0.098	-0.365
-475.289	279.337	-0.105	-0.186
-474.274	-200.000	-0.014	-0.286
-473.259	-200.000	0.034	0.182
-472.245	-200.000	-0.041	0.212
-471.230	209.722	0.269	0.422
-470.216	800.000	-0.041	-0.136
-469.201	453.555	-0.165	-0.365
-468.186	396.352	-0.055	0.115
-467.172	-180.784	-0.171	-0.003
-466.157	800.000	-0.067	-0.283
-465.143	800.000	-0.037	-0.116
-464.128	-99.832	0.253	-0.063
-463.113	633.513	0.040	-0.102
-462.099	-43.006	0.096	-0.048
-461.084	-48.830	-0.061	0.029
-460.070	-200.000	0.016	-0.151
-459.055	96.863	-0.114	-0.131
-458.040	33.080	-0.214	-0.185
-457.026	-200.000	0.017	-0.152
-456.011	-200.000	-0.055	-0.404
-454.997	-167.219	0.208	0.008
-453.982	-47.368	-0.417	0.202
-452.968	-119.588	-0.135	-0.023
-451.953	166.717	0.175	-0.247
-450.938	171.510	-0.022	-0.031
-449.924	-155.671	0.141	-0.009
-448.909	-131.078	-0.304	0.040
-447.895	145.247	0.169	-0.225
-446.880	62.076	-0.114	-0.114
-445.865	0.865	0.251	0.179
-444.851	-41.591	-0.160	-0.082
-443.836	-200.000	-0.074	0.423
-442.822	-110.416	-0.215	0.045
-441.807	-200.000	-0.034	0.279
-440.792	-25.916	0.381	0.224
-439.778	-30.509	0.172	-0.097
-438.763	39.392	-0.244	-0.218
-437.749	800.000	-0.161	0.450
-436.734	603.963	0.054	-0.134
-435.719	-200.000	-0.003	-0.123
-434.705	-179.807	-0.203	-0.004
-433.690	9.634	0.093	-0.070
-432.676	800.000	-0.181	0.548
-431.661	-63.412	-0.273	-0.112
-430.646	114.258	-0.120	0.145
-429.632	-82.846	0.065	0.021
-428.617	-131.743	0.150	-0.020
-427.603	-200.000	-0.008	-0.127
-426.588	-14.945	0.175	0.112
-425.573	800.000	0.033	0.106
-424.559	10.238	0.151	0.115
-423.544	168.569	0.128	-0.181
-422.530	-175.005	-0.226	-0.006
-421.515	788.483	0.114	-0.313
-420.500	-156.604	-0.145	0.009
-419.486	148.553	-0.275	-0.370
-418.471	800.000	-0.035	-0.128
-417.457	128.849	0.243	0.308
-416.442	-29.746	0.166	-0.094
-415.428	-200.000	-0.031	0.232
-414.413	-200.000	0.027	-0.243
-413.398	800.000	-0.078	0.278
-412.384	709.807	0.046	-0.122
-411.369	-200.000	-0.014	0.168
-410.355	125.754	-0.148	0.187
-409.340	-182.192	-0.304	0.006
-408.325	153.952	0.138	0.189
-407.311	-56.887	0.047	-0.021
-406.296	800.000	0.077	-0.311
-405.282	800.000	0.068	-0.297
-404.267	-94.177	-0.096	-0.026
-403.252	106.875	-0.179	-0.211
-402.238	-200.000	0.020	-0.382
-401.223	231.695	-0.173	-0.283
-400.209	22.124	-0.193	0.157
-399.194	-54.883	-0.093	-0.042
-398.179	-30.235	0.226	-0.128
-397.165	245.216	0.179	0.300
-396.150	235.325	0.130	0.214
-395.136	-200.000	-0.029	-0.139
-394.121	134.900	-0.088	0.114
-393.106	-163.645	0.282	0.013
-392.092	-200.000	0.026	0.224
-391.077	-185.780	-0.118	-0.002
-390.063	108.212	0.197	0.234
-389.048	330.743	0.013	-0.025
-388.033	603.552	0.101	0.251
-387.019	71.014	-0.128	0.132
-386.004	14.531	0.191	0.149
-384.990	-200.000	-0.017	0.152
-383.975	-86.951	0.061	-0.019
-382.960	105.942	-0.036	0.042
-381.946	-200.000	-0.022	-0.099
-380.931	132.252	0.117	0.149
-379.917	-64.837	0.190	0.077
-378.902	-200.000	-0.004	-0.112
-377.888	17.438	-0.083	0.065
-376.873	44.251	0.324	-0.296
-375.858	-94.937	-0.541	0.146
-374.844	-123.484	0.251	0.040
-373.829	-200.000	0.015	-0.069
-372.815	88.119	0.038	-0.041
-371.800	-80.824	0.140	-0.046
-370.785	-19.493	0.282	0.174
-369.771	-200.000	0.010	-0.246
-368.756	-134.539	0.360	-0.044
-367.742	800.000	-0.037	-0.162
-366.727	-200.000	-0.017	-0.273
-365.712	270.192	0.108	-0.189
-364.698	207.782	0.077	0.120
-363.683	-200.000	-0.026	-0.125
-362.669	-99.350	0.116	0.029
-361.654	-64.572	0.199	0.080
-360.639	506.282	-0.271	-0.625
-359.625	449.289	-0.085	-0.185
-358.610	-4.289	0.151	0.104
-357.596	-40.922	0.045	-0.023
-356.581	-68.884	-0.347	-0.133
-355.566	800.000	0.042	0.180
-354.552	146.887	0.089	0.119
-353.537	-200.000	0.022	0.170
-352.523	254.822	0.094	0.160
-351.508	295.432	-0.233	-0.424
-350.493	43.472	0.146	0.133
-349.479	-10.576	0.066	0.044
-348.464	-200.000	0.022	0.120
-347.450	-44.101	0.033	-0.016
-346.435	-52.864	0.097	0.044
-345.420	-200.000	0.011	0.161
-344.406	10.761	0.041	0.031
-343.391	-28.359	-0.317	-0.182
-342.377	-69.625	0.360	-0.137
-341.362	-200.000	0.004	-0.289
-340.348	-43.126	-0.258	-0.130
-339.333	800.000	-0.098	0.336
-338.318	-200.000	0.016	0.226
-337.304	-170.884	-0.277	-0.009
-336.289	-200.000	-0.012	-0.498
-335.275	414.776	0.116	-0.245
-334.260	180.227	0.104	0.152
-333.245	15.075	-0.109	0.085
-332.231	-85.986	0.225	0.069
-331.216	758.151	0.044	-0.117
-330.202	-14.817	-0.347	0.221
-329.187	-19.478	0.090	-0.056
-328.172	-105.916	-0.062	0.014
-327.158	619.385	-0.081	0.203
-326.143	104.393	-0.174	0.203
-325.129	182.716	0.050	-0.074
-324.114	78.893	-0.090	0.096
-323.099	-73.786	-0.159	-0.057
-322.085	268.649	-0.191	0.333
-321.070	-162.230	0.169	-0.008
-320.056	135.506	-0.177	0.228
-319.041	-15.411	0.130	0.083
-318.026	-42.388	-0.121	-0.062
-317.012	-200.000	0.029	-0.138
-315.997	10.640	-0.116	0.088
-314.983	155.141	-0.156	0.213
-313.968	-157.561	0.170	0.010
-312.953	800.000	0.039	0.167
-311.939	227.509	0.197	0.318
-310.924	-25.729	-0.138	0.081
-309.910	-200.000	-0.021	0.121
-308.895	62.166	-0.103	-0.101
-307.880	-113.072	-0.223	0.044
-306.866	-106.307	0.092	-0.021
-305.851	-173.394	0.280	-0.008
-304.837	-31.909	-0.232	0.129
-303.822	40.822	-0.213	-0.191
-302.807	-14.363	-0.094	-0.060
-301.793	-3.866	0.191	-0.131
-300.778	12.142	-0.168	0.128
-299.764	754.506	-0.170	-0.456
-298.749	-200.000	-0.040	-0.255
-297.735	800.000	0.073	-0.228
-296.720	800.000	0.110	-0.393
-295.705	-63.531	0.393	0.160
-294.691	-131.404	0.087	0.011
-293.676	143.616	0.062	0.082
-292.662	800.000	0.050	0.213
-291.647	-81.012	0.157	-0.052
-290.632	-93.853	-0.083	-0.023
-289.618	754.920	-0.031	-0.084
-288.603	-200.000	0.045	-0.210
-287.589	800.000	-0.019	-0.076
-286.574	-108.492	-0.300	0.064
-285.559	-63.719	0.257	0.104
-284.545	-200.000	-0.024	0.383
-283.530	-200.000	-0.005	-0.197
-282.516	-116.431	0.282	-0.052
-281.501	-200.000	0.045	-0.247
-280.486	-25.220	-0.156	0.092
-279.472	-64.774	-0.098	0.039
-278.457	-71.173	0.315	-0.117
-277.443	-32.089	-0.142	-0.078
-276.428	-141.312	-0.267	0.027
-275.413	120.092	-0.247	0.303
-274.399	363.705	0.142	-0.283
-273.384	125.211	-0.247	0.309
-272.370	795.621	0.129	0.353
-271.355	265.603	-0.086	0.149
-270.340	5.697	0.265	-0.194
-269.326	171.946	-0.162	-0.230
-268.311	103.271	-0.086	0.100
-267.297	71.691	-0.208	0.214
-266.282	-81.150	-0.201	-0.066
-265.267	196.406	0.206	0.311
-264.253	800.000	-0.015	-0.045
-263.238	-62.325	-0.159	-0.065
-262.224	178.444	-0.046	0.067
-261.209	246.573	0.133	0.222
-260.195	-81.692	0.240	-0.078
-259.180	-200.000	-0.004	-0.560
-258.165	-200.000	0.042	0.180
-257.151	-200.000	-0.023	-0.164
-256.136	-87.046	0.101	-0.030
-255.122	205.763	0.062	0.095
-254.107	-200.000	0.004	-0.479
-253.092	-200.000	0.028	0.212
-252.078	520.597	0.013	-0.030
-251.063	350.592	-0.159	-0.311
-250.049	800.000	-0.105	0.287
-249.034	-200.000	-0.011	0.403
-248.019	-37.495	-0.267	0.141
-247.005	15.967	-0.078	0.061
-245.990	42.745	0.129	-0.116
-244.976	800.000	-0.060	0.260
-243.961	321.226	0.079	0.148
-242.946	-115.226	0.022	-0.004
-241.932	141.671	-0.103	-0.135
-240.917	-200.000	0.006	-0.031
-239.903	-89.268	-0.235	-0.068
-238.888	512.929	-0.109	-0.251
-237.873	800.000	0.108	-0.383
-236.859	48.225	-0.261	0.241
-235.844	-142.885	-0.089	-0.009
-234.830	491.050	-0.072	-0.163
-233.815	-121.981	0.097	0.016
-232.800	8.021	0.081	-0.060
-231.786	-93.502	-0.095	0.026
-230.771	45.075	0.089	0.081
-229.757	480.552	-0.131	0.295
-228.742	800.000	-0.052	-0.188
-227.727	-200.000	0.070	-0.345
-226.713	-59.853	0.068	0.029
-225.698	-103.140	0.177	-0.041
-224.684	-133.328	0.268	0.033
-223.669	203.242	0.147	-0.225
-222.655	-40.158	0.103	0.053
-221.640	299.808	-0.031	0.057
-220.625	800.000	0.033	0.136
-219.611	-65.855	0.119	-0.047
-218.596	176.763	-0.307	0.441
-217.582	61.277	0.172	0.169
-216.567	-70.697	0.127	0.047
-215.552	239.684	-0.139	0.229
-214.538	781.395	-0.092	0.250
-213.523	365.613	0.022	-0.044
-212.509	800.000	0.096	-0.400
-211.494	122.773	-0.051	0.064
-210.479	38.219	-0.146	0.128
-209.465	73.039	0.555	-0.574
-208.450	-200.000	-0.010	-0.066
-207.436	19.475	0.202	0.161
-206.421	-70.753	0.210	0.078
-205.406	291.610	0.089	0.160
-204.392	266.734	0.094	0.163
-203.377	-200.000	0.018	-0.280
-202.363	79.643	-0.189	0.200
-201.348	-123.914	0.315	-0.049
-200.333	397.719	-0.136	-0.281
-199.319	-200.000	0.034	0.205
-198.304	143.417	-0.072	0.095
-197.290	-200.000	-0.018	-0.092
-196.275	-47.279	-0.269	0.129
-195.260	800.000	-0.006	-0.020
-194.246	470.080	-0.005	-0.011
-193.231	800.000	0.063	0.233
-192.217	800.000	0.044	0.183
-191.202	-200.000	0.002	-0.166
-190.187	-87.836	-0.339	-0.101
-189.173	192.139	0.063	-0.093
-188.158	-2.692	0.359	0.248
-187.144	-70.360	0.309	-0.116
-186.129	800.000	0.065	0.277
-185.114	144.760	-0.158	0.208
-184.100	530.262	0.083	0.192
-183.085	-200.000	-0.068	0.318
-182.071	800.000	0.055	-0.154
-181.056	-54.726	0.290	0.129
-180.042	-86.885	-0.260	-0.078
-179.027	-200.000	0.011	0.197
-178.012	-200.000	-0.014	0.171
-176.998	-48.161	-0.231	0.110
-175.983	-120.981	0.341	-0.056
-174.969	-133.006	0.075	0.009
-173.954	0.937	0.222	0.157
-172.939	58.044	-0.234	-0.226
-171.925	-63.984	0.018	-0.007
-170.910	-63.948	0.288	0.116
-169.896	-200.000	0.110	0.478
-168.881	-68.286	-0.110	0.042
-167.866	72.973	-0.114	-0.117
-166.852	-200.000	-0.022	0.204
-165.837	800.000	-0.093	-0.343
-164.823	-200.000	-0.030	0.252
-163.808	-200.000	-0.006	0.113
-162.793	224.558	0.075	-0.120
-161.779	-79.076	0.329	-0.110
-160.764	-73.161	0.067	-0.024
-159.750	-200.000	0.015	0.201
-158.735	-200.000	-0.009	0.052
-157.720	-21.095	0.002	-0.001
-156.706	4.184	-0.094	0.068
-155.691	-32.712	-0.121	0.066
-154.677	-39.085	0.170	-0.088
-153.662	348.278	-0.140	-0.272
-152.647	56.910	0.116	0.111
-151.633	487.439	0.098	0.220
-150.618	5.340	0.101	0.074
-149.604	800.000	-0.089	-0.360
-148.589	184.430	0.021	-0.031
-147.574	451.909	0.054	0.117
-146.560	-200.000	-0.009	0.140
-145.545	800.000	-0.066	0.280
-144.531	-200.000	-0.020	0.149
-143.516	23.220	0.231	0.187
-142.502	180.115	-0.137	0.198
-141.487	-81.591	0.213	0.069
-140.472	166.885	0.142	0.198
-139.458	-129.477	-0.381	-0.052
-138.443	-81.736	0.160	-0.052
-137.429	423.840	0.193	0.408
-136.414	-200.000	-0.027	-0.189
-135.399	800.000	0.093	-0.277
-134.385	58.602	0.235	0.227
-133.370	-24.752	0.120	-0.071
-132.356	-127.207	0.212	0.030
-131.341	175.189	0.165	0.236
-130.326	114.208	0.173	0.208
-129.312	-200.000	-0.027	0.215
-128.297	-200.000	-0.020	0.114
-127.283	-50.771	0.253	-0.117
-126.268	-101.965	-0.197	0.047
-125.253	-79.569	-0.276	0.092
-124.239	-200.000	-0.047	0.239
-123.224	-82.727	0.118	0.038
-122.210	-200.000	-0.059	-0.406
-121.195	-75.761	-0.261	-0.091
-120.180	235.661	-0.172	-0.279
-119.166	-200.000	-0.025	0.128
-118.151	117.746	0.265	0.321
-117.137	60.816	-0.166	-0.162
-116.122	94.755	-0.090	0.101
-115.107	-43.983	0.133	0.066
-114.093	-200.000	0.001	0.072
-113.078	3.646	-0.235	-0.169
-112.064	-73.901	-0.152	0.054
-111.049	-200.000	0.020	0.262
-110.034	800.000	-0.145	0.442
-109.020	-200.000	0.033	-0.315
-108.005	-64.708	0.381	-0.152
-106.991	-108.212	0.308	-0.066
-105.976	21.277	0.104	-0.083
-104.962	-33.807	-0.319	0.173
-103.947	0.041	0.271	0.190
-102.932	800.000	0.073	0.209
-101.918	22.272	0.084	0.067
-100.903	461.932	0.080	-0.176
-99.889	-12.635	-0.363	-0.233
-98.874	-200.000	0.011	0.197
-97.859	-200.000	-0.095	0.000
-96.845	174.808	-0.026	-0.037
-95.830	-84.827	0.089	0.028
-94.816	58.439	0.233	-0.225
-93.801	-102.237	0.236	-0.056
-92.786	155.848	0.094	-0.127
-91.772	3.567	0.226	-0.162
-90.757	135.965	0.043	-0.055
-89.743	800.000	-0.061	0.180
-88.728	149.008	0.124	-0.165
-87.713	-51.322	-0.117	-0.054
-86.699	263.724	-0.104	0.178
-85.684	-5.928	-0.275	-0.185
-84.670	30.335	0.325	-0.273
-83.655	800.000	-0.087	-0.302
-82.640	354.837	0.074	-0.144
-81.626	800.000	0.026	-0.087
-80.611	151.653	0.225	-0.301
-79.597	346.215	-0.073	0.140
-78.582	-200.000	0.035	-0.174
-77.567	306.248	-0.075	-0.136
-76.553	440.515	0.088	0.188
-75.538	184.062	-0.106	0.155
-74.524	-23.630	0.054	0.032
-73.509	-180.220	0.103	-0.002
-72.494	168.230	-0.089	0.125
-71.480	-8.490	-0.317	-0.209
-70.465	-65.529	-0.222	0.088
-69.451	-200.000	0.006	-0.086
-68.436	148.920	-0.183	0.243
-67.422	92.154	-0.455	0.504
-66.407	-132.017	0.057	-0.007
-65.392	-98.197	0.091	0.023
-64.378	26.727	0.255	0.210
-63.363	-85.271	-0.171	0.053
-62.349	-68.562	0.119	0.045
-61.334	5.851	-1.027	-0.747
-60.319	380.377	0.309	0.622
-59.305	372.306	-0.465	-0.928
-58.290	137.617	0.803	1.033
-57.276	220.508	0.773	1.217
-56.261	-200.000	96.963	602.718
-55.246	649.359	1377.952	3462.863
-54.232	197.245	2563.774	3841.804
-53.217	114.076	2268.812	2710.424
-52.203	41.373	1896.313	1684.557
-51.188	35.034	1685.959	1449.814
-50.173	32.313	1642.429	1392.215
-49.159	50.049	1689.260	1565.356
-48.144	51.839	1705.103	1593.393
-47.130	34.728	1666.376	1430.456
-46.115	31.971	1652.295	1397.804
-45.100	31.714	1647.274	1391.591
-44.086	31.693	1644.853	1389.342
-43.071	31.727	1642.287	1387.366
-42.057	31.618	1639.959	1384.540
-41.042	31.718	1637.747	1383.357
-40.027	31.676	1636.056	1381.567
-39.013	31.548	1634.114	1378.926
-37.998	31.635	1632.461	1378.113
-36.984	31.547	1631.398	1376.515
-35.969	31.738	1629.598	1376.343
-34.954	31.817	1627.776	1375.330
-33.940	31.731	1626.365	1373.452
-32.925	31.775	1624.516	1372.164
-31.911	31.801	1622.745	1370.803
-30.896	31.756	1620.656	1368.654
-29.881	31.688	1619.144	1366.825
-28.867	31.695	1617.631	1365.547
-27.852	31.750	1616.590	1365.015
-26.838	31.665	1614.655	1362.710
-25.823	31.712	1613.728	1362.216
-24.809	31.849	1611.676	1361.423
-23.794	31.832	1610.216	1360.008
-22.779	31.737	1609.191	1358.401
-21.765	31.827	1607.116	1357.245
-20.750	31.750	1605.816	1355.538
-19.736	31.712	1604.791	1354.348
-18.721	31.852	1603.109	1353.881
-17.706	31.824	1601.482	1352.254
-16.692	31.818	1600.058	1350.955
-15.677	31.838	1599.018	1350.169
-14.663	31.831	1597.692	1348.945
-13.648	31.759	1596.069	1347.003
-12.633	31.800	1594.208	1345.671
-11.619	31.801	1592.983	1344.595
-10.604	31.746	1592.050	1343.357
-9.590	31.749	1590.361	1341.898
-8.575	31.727	1589.254	1340.757
-7.560	31.807	1587.856	1340.094
-6.546	31.813	1586.863	1339.248
-5.531	31.824	1585.742	1338.327
-4.517	31.766	1584.477	1336.794
-3.502	31.764	1583.085	1335.549
-2.487	31.810	1581.982	1334.894
-1.473	31.575	1569.743	1322.850
-0.458	28.702	1550.755	1286.700
0.556	24.500	1551.102	1255.483
1.571	22.260	1574.286	1258.131
2.586	21.619	1587.050	1263.598
3.600	19.275	1533.038	1204.129
4.615	11.657	1426.312	1070.489
5.629	5.440	1365.035	985.348
6.644	4.670	1356.883	974.555
7.659	4.421	1356.100	972.341
8.673	4.443	1355.239	971.779
9.688	4.526	1353.208	970.754
10.702	4.447	1350.069	967.923
11.717	7.291	1355.356	989.404
12.731	14.484	1368.260	1043.918
13.746	19.053	1375.076	1077.710
14.761	18.729	1373.999	1074.744
15.775	17.809	1371.036	1066.579
16.790	16.754	1368.609	1058.010
17.804	15.867	1366.581	1050.814
18.819	15.559	1364.994	1047.580
19.834	15.292	1363.844	1044.946
20.848	15.007	1362.249	1041.853
21.863	14.786	1361.185	1039.571
22.877	14.628	1360.265	1037.799
23.892	14.644	1358.935	1036.787
24.907	14.559	1358.622	1035.934
25.921	14.661	1357.411	1035.546
26.936	14.661	1356.619	1034.850
27.950	14.628	1355.942	1034.039
28.965	14.708	1354.619	1033.436
29.980	14.897	1353.544	1033.691
30.994	15.000	1352.411	1033.372
32.009	15.031	1351.086	1032.461
33.023	14.872	1349.821	1030.419
34.038	14.920	1348.254	1029.428
35.053	14.755	1347.148	1027.481
36.067	14.741	1346.255	1026.622
37.082	14.854	1345.100	1026.343
38.096	14.890	1344.118	1025.724
39.111	14.860	1343.307	1024.829
40.126	14.845	1342.434	1023.982
41.140	14.598	1342.295	1022.272
42.155	14.649	1340.941	1021.462
43.169	14.553	1341.329	1021.079
44.184	14.627	1340.634	1020.911
45.199	14.656	1340.158	1020.636
46.213	14.718	1339.510	1020.433
47.228	14.748	1338.719	1019.922
48.242	14.785	1337.266	1018.949
49.257	14.833	1336.073	1018.242
50.271	14.767	1334.844	1016.818
51.286	14.762	1333.567	1015.725
52.301	14.885	1331.982	1015.171
53.315	14.652	1331.617	1013.393
54.330	14.637	1330.309	1012.217
55.344	14.622	1328.691	1010.804
56.359	14.654	1327.946	1010.342
57.374	14.654	1327.108	1009.615
58.388	14.505	1326.163	1007.903
59.403	14.469	1326.353	1007.741
60.417	14.513	1325.005	1006.897
61.432	14.579	1323.909	1006.371
62.447	14.455	1323.329	1005.090
63.461	14.381	1322.158	1003.672
64.476	14.628	1320.574	1003.863
65.490	14.513	1319.712	1002.427
66.505	14.530	1317.950	1001.101
67.520	14.468	1317.057	999.967
68.534	14.465	1316.003	999.057
69.549	14.619	1314.989	999.124
70.563	14.526	1314.027	997.743
71.578	14.444	1313.112	996.475
72.593	14.347	1311.856	994.850
73.607	14.317	1311.608	994.395
74.622	14.277	1310.678	993.368
75.636	14.363	1309.763	993.098
76.651	14.367	1309.055	992.497
77.666	14.441	1308.646	992.539
78.680	14.411	1308.000	991.780
79.695	14.448	1307.497	991.533
80.709	14.596	1306.468	991.543
81.724	14.598	1305.843	990.995
82.739	14.606	1305.383	990.606
83.753	14.668	1304.110	989.921
84.768	14.738	1303.505	989.785
85.782	14.856	1301.899	989.176
86.797	14.867	1300.434	988.044
87.812	14.784	1299.355	986.649
88.826	14.757	1298.281	985.581
89.841	14.814	1297.262	985.058
90.855	14.953	1296.130	984.933
91.870	14.867	1295.330	983.732
92.884	14.807	1294.694	982.807
93.899	14.948	1293.712	982.801
94.914	14.916	1293.397	982.289
95.928	14.929	1292.230	981.390
96.943	15.007	1290.816	980.687
97.957	14.928	1290.416	979.837
98.972	14.902	1289.032	978.542
99.987	14.819	1288.689	977.713
101.001	14.899	1287.055	976.856
102.016	14.862	1286.415	976.068
103.030	14.857	1285.823	975.502
104.045	14.757	1284.713	973.989
105.060	14.772	1283.216	972.854
106.074	14.695	1281.854	971.287
107.089	14.560	1280.304	969.243
108.103	14.529	1279.162	968.112
109.118	14.548	1277.856	967.153
110.133	14.546	1276.406	965.956
111.147	14.502	1275.262	964.749
112.162	14.525	1274.059	963.886
113.176	14.568	1273.467	963.602
114.191	14.695	1271.994	963.135
115.206	14.692	1270.565	961.949
116.220	14.587	1269.274	960.286
117.235	14.665	1268.457	960.028
118.249	14.659	1267.372	959.088
119.264	14.579	1266.564	957.935
120.279	14.485	1265.483	956.492
121.293	14.460	1264.585	955.585
122.308	14.491	1263.104	954.561
123.322	14.507	1262.231	953.906
124.337	14.415	1261.353	952.630
125.352	14.386	1259.934	951.313
126.366	14.450	1258.923	950.827
127.381	14.481	1257.719	950.011
128.395	14.473	1256.836	949.215
129.410	14.587	1255.953	949.115
130.424	14.595	1254.927	948.301
131.439	14.555	1254.256	947.479
132.454	14.541	1253.254	946.558
133.468	14.652	1252.554	946.578
134.483	14.561	1251.578	945.238
135.497	14.566	1250.556	944.415
136.512	14.673	1249.567	944.186
137.527	14.755	1248.144	943.493
138.541	14.725	1247.020	942.392
139.556	14.710	1245.278	940.903
140.570	14.746	1244.430	940.382
141.585	14.839	1243.455	940.090
142.600	14.847	1242.029	938.974
143.614	14.886	1241.482	938.694
144.629	14.955	1240.397	938.177
145.643	14.944	1239.200	937.125
146.658	14.872	1237.612	935.441
147.673	14.817	1236.111	933.915
148.687	14.747	1235.339	932.857
149.702	14.676	1234.146	931.481
150.716	14.603	1232.973	930.104
151.731	14.802	1231.235	929.821
152.746	14.788	1230.238	928.909
153.760	14.859	1229.234	928.459
154.775	14.795	1228.523	927.487
155.789	14.929	1227.147	927.108
156.804	14.897	1226.516	926.371
157.819	14.972	1225.257	925.755
158.833	14.926	1224.619	924.935
159.848	15.045	1223.541	924.700
160.862	14.980	1222.547	923.506
161.877	14.911	1221.467	922.227
162.892	14.884	1219.915	920.823
163.906	14.738	1219.379	919.535
164.921	14.814	1218.498	919.209
165.935	14.870	1217.577	918.741
166.950	14.839	1216.997	918.048
167.964	14.946	1216.006	917.811
168.979	14.861	1215.533	916.906
169.994	14.867	1214.454	916.040
171.008	14.840	1213.907	915.402
172.023	14.981	1212.901	915.330
173.037	14.953	1212.354	914.684
174.052	15.075	1211.031	914.270
175.067	14.928	1210.121	912.701
176.081	14.842	1208.910	911.240
177.096	14.891	1208.661	911.241
178.110	14.950	1207.236	910.403
179.125	15.003	1206.103	909.757
180.140	14.911	1204.985	908.335
181.154	15.205	1203.110	908.434
182.169	15.051	1202.311	906.916
183.183	15.146	1201.216	906.524
184.198	15.155	1200.593	906.025
185.213	15.138	1199.417	904.962
186.227	15.174	1198.111	904.093
187.242	15.312	1196.861	903.811
188.256	15.314	1196.473	903.451
189.271	15.238	1195.633	902.330
190.286	15.180	1193.860	900.599
191.300	14.942	1193.853	899.234
192.315	14.811	1192.633	897.532
193.329	14.921	1192.287	897.780
194.344	14.999	1190.837	897.027
195.359	15.046	1190.740	897.126
196.373	15.191	1190.499	897.646
197.388	15.260	1189.979	897.545
198.402	15.368	1189.516	897.692
199.417	15.495	1188.611	897.608
200.432	15.564	1187.712	897.217
201.446	15.474	1187.308	896.352
202.461	15.659	1186.173	896.405
203.475	15.548	1185.419	895.165
204.490	15.455	1183.701	893.291
205.504	15.466	1183.003	892.745
206.519	15.340	1181.511	890.871
207.534	15.319	1180.720	890.082
208.548	15.443	1179.412	889.675
209.563	15.271	1178.945	888.337
210.577	15.449	1177.793	888.329
211.592	15.453	1177.271	887.876
212.607	15.530	1176.179	887.386
213.621	15.565	1175.500	886.975
214.636	15.568	1174.408	886.088
215.650	15.574	1173.473	885.340
216.665	15.709	1172.398	885.160
217.680	15.661	1171.687	884.294
218.694	15.722	1171.007	884.019
219.709	15.617	1170.588	883.074
220.723	15.713	1169.374	882.582
221.738	15.710	1168.517	881.845
222.753	15.511	1168.058	880.376
223.767	15.718	1167.049	880.625
224.782	15.790	1166.921	880.825
225.796	15.867	1166.080	880.516
226.811	15.837	1165.447	879.800
227.826	15.709	1165.011	878.728
228.840	15.731	1163.883	877.913
229.855	15.713	1163.401	877.379
230.869	15.764	1162.478	876.868
231.884	15.665	1161.506	875.543
232.899	15.597	1160.952	874.692
233.913	15.630	1160.096	874.143
234.928	15.693	1159.353	873.834
235.942	15.631	1158.756	872.982
236.957	15.666	1157.634	872.245
237.972	15.577	1157.214	871.387
238.986	15.617	1156.472	870.959
240.001	15.649	1155.880	870.602
241.015	15.705	1154.837	870.029
242.030	15.674	1154.389	869.455
243.045	15.726	1153.484	868.966
244.059	15.756	1153.033	868.702
245.074	15.858	1151.883	868.286
246.088	15.967	1150.963	868.075
247.103	15.957	1150.469	867.578
248.117	15.947	1149.510	866.725
249.132	16.041	1149.372	867.029
250.147	16.125	1148.471	866.701
251.161	16.248	1147.898	866.825
252.176	16.222	1147.006	865.944
253.190	16.305	1146.470	865.887
254.205	16.384	1145.850	865.748
255.220	16.344	1145.286	865.040
256.234	16.326	1144.357	864.170
257.249	16.344	1143.920	863.854
258.263	16.396	1143.441	863.680
259.278	16.440	1142.677	863.255
260.293	16.333	1142.578	862.555
261.307	16.498	1141.572	862.564
262.322	16.506	1140.902	862.022
263.336	16.531	1140.135	861.491
264.351	16.533	1139.249	860.757
265.366	16.444	1139.119	860.127
266.380	16.408	1138.455	859.367
267.395	16.438	1137.697	858.871
268.409	16.466	1136.425	857.977
269.424	16.427	1136.056	857.426
270.439	16.465	1135.153	856.859
271.453	16.456	1134.762	856.445
272.468	16.394	1133.518	855.116
273.482	16.414	1132.721	854.542
274.497	16.481	1132.293	854.481
275.512	16.484	1131.486	853.810
276.526	16.479	1130.727	853.136
277.541	16.371	1130.132	852.068
278.555	16.540	1129.557	852.413
279.570	16.614	1128.631	852.008
280.585	16.580	1128.058	851.332
281.599	16.693	1126.894	850.948
282.614	16.599	1125.845	849.604
283.628	16.561	1125.006	848.705
284.643	16.598	1124.169	848.186
285.657	16.698	1123.207	847.884
286.672	16.623	1122.320	846.766
287.687	16.655	1121.491	846.223
288.701	16.625	1120.687	845.394
289.716	16.730	1119.697	845.098
290.730	16.706	1119.203	844.527
291.745	16.681	1118.365	843.696
292.760	16.659	1118.068	843.291
293.774	16.716	1117.808	843.300
294.789	16.878	1117.049	843.459
295.803	16.867	1116.365	842.815
296.818	16.697	1115.375	841.150
297.833	16.742	1114.682	840.774
298.847	16.801	1113.781	840.312
299.862	16.805	1113.011	839.677
300.876	16.743	1112.981	839.274
301.891	16.857	1111.987	839.013
302.906	16.955	1111.059	838.725
303.920	17.102	1110.553	838.996
304.935	17.043	1110.069	838.266
305.949	17.128	1109.414	838.115
306.964	16.999	1109.270	837.293
307.979	17.038	1107.949	836.416
308.993	16.966	1107.417	835.584
310.008	17.046	1106.318	835.074
311.022	17.073	1105.540	834.549
312.037	17.034	1105.281	834.085
313.052	17.020	1104.126	833.071
314.066	16.908	1103.284	831.813
315.081	16.901	1102.354	831.004
316.095	16.947	1101.573	830.568
317.110	17.005	1100.456	829.934
318.125	16.917	1099.879	828.996
319.139	16.981	1098.928	828.519
320.154	16.975	1098.451	828.058
321.168	16.974	1098.163	827.764
322.183	17.072	1097.421	827.606
323.197	17.103	1096.542	827.021
324.212	17.095	1096.190	826.647
325.227	17.127	1095.720	826.371
326.241	17.040	1095.046	825.367
327.256	17.139	1094.025	825.009
328.270	17.023	1092.919	823.539
329.285	17.054	1092.162	823.044
330.300	17.126	1091.154	822.559
331.314	17.157	1090.141	821.876
332.329	17.062	1089.798	821.081
333.343	17.188	1088.826	820.886
334.358	17.175	1087.808	819.986
335.373	17.361	1087.300	820.426
336.387	17.219	1086.535	819.093
337.402	17.230	1085.909	818.602
338.416	17.352	1085.121	818.520
339.431	17.423	1084.581	818.382
340.446	17.485	1084.204	818.325
341.460	17.530	1083.001	817.560
342.475	17.610	1082.371	817.395
343.489	17.569	1081.729	816.640
344.504	17.664	1080.562	816.143
345.519	17.602	1079.704	815.128
346.533	17.753	1078.527	814.887
347.548	17.778	1078.634	815.016
348.562	17.628	1077.936	813.701
349.577	17.538	1076.876	812.396
350.592	17.512	1076.015	811.554
351.606	17.468	1075.329	810.754
352.621	17.425	1074.772	810.059
353.635	17.492	1073.686	809.484
354.650	17.551	1072.976	809.159
355.665	17.503	1072.518	808.515
356.679	17.500	1072.282	808.249
357.694	17.565	1071.591	807.967
358.708	17.591	1070.852	807.463
359.723	17.528	1070.155	806.568
360.738	17.603	1069.594	806.429
361.752	17.699	1069.079	806.422
362.767	17.632	1068.400	805.520
363.781	17.757	1067.803	805.590
364.796	17.818	1067.395	805.500
365.810	17.788	1067.014	805.000
366.825	17.833	1066.125	804.469
367.840	17.972	1065.634	804.680
368.854	18.077	1065.107	804.708
369.869	18.052	1064.187	803.824
370.883	17.961	1063.168	802.553
371.898	17.873	1062.314	801.425
372.913	18.038	1062.004	801.898
373.927	17.942	1061.638	801.097
374.942	17.944	1061.040	800.588
375.956	17.893	1060.579	799.930
376.971	17.926	1060.216	799.738
377.986	18.003	1059.243	799.292
379.000	18.213	1058.693	799.790
380.015	18.100	1058.615	799.131
381.029	18.198	1057.610	798.761
382.044	18.221	1057.164	798.458
383.059	18.202	1056.078	797.482
384.073	18.260	1055.630	797.344
385.088	18.274	1054.171	796.236
386.102	18.266	1053.581	795.679
387.117	18.228	1052.844	794.875
388.132	18.072	1051.598	793.144
389.146	18.066	1051.124	792.686
390.161	18.111	1050.101	792.053
391.175	18.072	1049.774	791.555
392.190	18.163	1048.852	791.211
393.205	18.242	1048.206	791.018
394.219	18.207	1047.639	790.363
395.234	18.286	1046.662	789.919
396.248	18.132	1045.724	788.431
397.263	18.120	1044.630	787.479
398.278	18.153	1044.188	787.231
399.292	18.086	1043.293	786.179
400.307	18.170	1042.382	785.805
401.321	18.171	1041.798	785.301
402.336	18.174	1041.080	784.705
403.350	18.104	1040.453	783.840
404.365	18.179	1039.793	783.618
405.380	18.257	1039.028	783.332
406.394	18.204	1038.437	782.573
407.409	18.358	1037.463	782.473
408.423	18.400	1036.884	782.157
409.438	18.374	1036.339	781.558
410.453	18.593	1035.598	781.932
411.467	18.609	1034.985	781.473
412.482	18.625	1034.348	780.993
413.496	18.644	1033.802	780.600
414.511	18.591	1033.385	779.974
415.526	18.736	1033.023	780.293
416.540	18.792	1032.333	779.954
417.555	18.586	1032.113	778.786
418.569	18.650	1031.342	778.423
419.584	18.707	1030.719	778.142
420.599	18.818	1030.381	778.324
421.613	150.502	1400.783	1794.409
422.628	137.304	1454.736	1794.489
