DTS Sentinel unit serial number:	SN413079Multiplexer serial number:	ORYXHardware model number:	OX4-SRSoftware version number:	ORYX F/W v4.00 Oryx Data Collector v3.7.2.0data status	okinstallation	princeton_trtdifferential loss correction	single-endedforward channel	channel 2reverse channel	N/Adate	2019/09/15time	19:39:35forward acquisition time	60.00reverse acquisition time	0.00gamma	496.2192k internal	0.2320k external	0.2320temperature offset calibration	0.9932default loss term (dB/km)	0.3790temperature slope calibration	1.0000multiplexer offset coefficient	1.0000multiplexer slope coefficient	1.0000fibre end	0.00T internal ref (°C)	37.72T ext. ref 1 (°C)	7.39T ext. ref 2 (°C)	27.53length (m)	temperature (°C)	Stokes	anti-Stokes-747.200	228.596	0.107	0.177
-746.185	800.000	0.080	0.295
-745.171	34.933	0.386	0.342
-744.156	-200.000	-0.085	0.438
-743.142	-96.635	-0.195	-0.052
-742.127	644.167	0.187	0.482
-741.112	-8.224	-0.250	-0.170
-740.098	-200.000	0.032	-0.181
-739.083	-2.116	-0.185	0.131
-738.069	-200.000	-0.008	0.497
-737.054	-200.000	0.009	-0.098
-736.039	-200.000	-0.014	0.269
-735.025	99.177	-0.065	-0.076
-734.010	-11.050	0.170	-0.114
-732.996	-189.600	-0.180	-0.002
-731.981	46.349	0.094	-0.088
-730.966	117.110	-0.139	0.173
-729.952	800.000	-0.085	0.240
-728.937	-200.000	0.069	-0.349
-727.923	22.813	-0.183	-0.152
-726.908	229.153	-0.101	0.167
-725.894	-73.436	-0.453	-0.167
-724.879	-131.499	0.247	-0.033
-723.864	-21.359	-0.137	-0.085
-722.850	93.512	0.113	-0.129
-721.835	-200.000	-0.015	0.097
-720.821	-200.000	0.014	0.065
-719.806	-23.077	0.455	0.277
-718.791	-101.506	-0.373	-0.092
-717.777	-200.000	0.001	-0.027
-716.762	-10.935	0.155	0.103
-715.748	-85.545	0.055	0.017
-714.733	-200.000	-0.008	-0.197
-713.718	202.104	0.138	-0.215
-712.704	-105.453	0.195	0.045
-711.689	-103.549	-0.219	-0.052
-710.675	382.084	0.154	-0.319
-709.660	-16.939	-0.311	0.199
-708.645	-24.276	0.102	-0.061
-707.631	134.601	0.061	-0.080
-706.616	-12.661	0.312	0.206
-705.602	-200.000	-0.021	-0.102
-704.587	-51.004	-0.138	0.065
-703.572	-200.000	0.038	-0.247
-702.558	-157.656	-0.207	0.012
-701.543	328.150	-0.234	-0.453
-700.529	222.036	-0.116	0.189
-699.514	515.556	-0.143	0.336
-698.499	-123.080	0.062	0.010
-697.485	-89.903	-0.132	-0.039
-696.470	-128.143	-0.667	0.096
-695.456	215.496	0.143	0.229
-694.441	-87.905	-0.136	0.041
-693.426	-200.000	-0.017	0.306
-692.412	-62.033	0.343	-0.144
-691.397	70.387	0.145	-0.152
-690.383	31.469	-0.149	0.129
-689.368	-200.000	0.012	-0.210
-688.354	-170.150	-0.124	0.004
-687.339	-85.953	0.403	0.126
-686.324	-18.950	-0.222	0.139
-685.310	738.179	0.078	0.211
-684.295	-132.671	0.225	-0.029
-683.281	588.201	0.025	-0.063
-682.266	-200.000	0.011	-0.146
-681.251	-200.000	0.028	-0.390
-680.237	800.000	-0.009	0.032
-679.222	-89.780	0.248	-0.073
-678.208	10.576	0.234	-0.180
-677.193	-46.424	0.162	0.080
-676.178	-200.000	0.013	-0.205
-675.164	-200.000	-0.024	0.206
-674.149	-135.871	-0.297	0.035
-673.135	-117.524	0.419	-0.076
-672.120	800.000	0.066	0.204
-671.105	-200.000	-0.035	0.220
-670.091	53.047	0.147	-0.142
-669.076	-59.622	0.067	-0.029
-668.062	-200.000	-0.009	0.127
-667.047	-56.621	0.125	-0.056
-666.032	293.457	-0.056	-0.103
-665.018	800.000	0.161	0.560
-664.003	-52.384	-0.392	0.183
-662.989	800.000	0.082	-0.247
-661.974	139.295	0.187	-0.248
-660.959	36.628	-0.293	-0.261
-659.945	-57.471	0.329	0.145
-658.930	-33.396	-0.297	-0.165
-657.916	-128.554	0.383	0.055
-656.901	8.048	0.301	-0.228
-655.886	-137.262	-0.255	0.029
-654.872	-42.828	-0.211	0.108
-653.857	800.000	-0.047	0.146
-652.843	-115.420	0.123	-0.023
-651.828	72.515	0.136	-0.143
-650.814	409.858	0.082	0.176
-649.799	432.805	-0.080	-0.174
-648.784	124.014	0.070	0.088
-647.770	19.218	0.231	-0.187
-646.755	-37.818	-0.071	0.038
-645.741	-185.499	0.066	0.001
-644.726	636.796	-0.040	0.102
-643.711	317.851	-0.101	0.192
-642.697	800.000	-0.031	-0.098
-641.682	108.008	-0.120	0.144
-640.668	800.000	-0.064	-0.199
-639.653	44.962	-0.186	-0.173
-638.638	13.313	-0.152	0.119
-637.624	800.000	-0.055	-0.208
-636.609	191.705	-0.120	-0.183
-635.595	178.513	-0.071	0.104
-634.580	800.000	-0.081	-0.230
-633.565	-28.121	-0.161	0.094
-632.551	800.000	-0.056	-0.189
-631.536	-48.101	0.160	-0.078
-630.522	800.000	0.040	-0.122
-629.507	-200.000	-0.003	0.082
-628.492	-200.000	0.048	-0.214
-627.478	-88.938	0.187	-0.056
-626.463	-21.958	0.055	-0.034
-625.449	40.920	-0.323	0.294
-624.434	-101.664	-0.275	-0.067
-623.419	679.891	0.061	0.159
-622.405	-135.518	0.375	-0.045
-621.390	258.234	-0.223	-0.386
-620.376	-32.439	-0.201	-0.113
-619.361	269.245	0.100	-0.176
-618.346	-184.860	-0.305	-0.005
-617.332	677.662	-0.031	0.081
-616.317	-200.000	0.239	-0.001
-615.303	-9.915	0.095	-0.063
-614.288	-200.000	0.046	0.234
-613.273	800.000	0.054	-0.157
-612.259	-129.205	0.160	-0.022
-611.244	-200.000	0.063	-0.523
-610.230	90.272	-0.189	-0.213
-609.215	-91.245	0.469	0.135
-608.201	438.098	-0.105	0.230
-607.186	500.331	-0.092	-0.214
-606.171	-68.044	0.194	0.076
-605.157	190.834	-0.018	0.027
-604.142	-200.000	0.005	-0.233
-603.128	-200.000	0.052	-0.346
-602.113	264.413	0.133	-0.233
-601.098	-120.016	0.115	-0.020
-600.084	-49.753	0.370	-0.177
-599.069	62.904	0.145	0.146
-598.055	-200.000	0.042	0.201
-597.040	-200.000	-0.014	0.216
-596.025	-32.163	-0.229	0.129
-595.011	43.950	0.140	-0.129
-593.996	-200.000	0.044	0.198
-592.982	-125.167	0.285	0.044
-591.967	8.451	0.217	-0.164
-590.952	-200.000	-0.033	0.311
-589.938	288.346	-0.090	-0.163
-588.923	-200.000	0.079	-0.349
-587.909	-43.905	-0.110	0.055
-586.894	296.585	0.147	-0.271
-585.879	-25.405	-0.309	0.184
-584.865	14.040	-0.124	0.097
-583.850	-68.572	-0.269	-0.105
-582.836	124.123	-0.192	-0.243
-581.821	-200.000	0.007	0.296
-580.806	714.057	-0.050	0.134
-579.792	-154.439	0.252	0.017
-578.777	-200.000	-0.001	-0.264
-577.763	-187.499	0.323	0.004
-576.748	-200.000	-0.029	-0.153
-575.733	41.992	-0.193	0.176
-574.719	301.288	-0.090	-0.166
-573.704	800.000	0.035	-0.110
-572.690	-200.000	0.007	-0.379
-571.675	15.839	0.056	0.044
-570.661	-200.000	0.002	-0.350
-569.646	193.775	0.096	-0.145
-568.631	470.138	0.078	0.175
-567.617	-13.672	0.211	0.137
-566.602	652.767	0.026	0.067
-565.588	-86.439	-0.256	-0.079
-564.573	263.967	0.082	-0.144
-563.558	-180.481	0.087	0.002
-562.544	353.359	-0.311	0.621
-561.529	490.671	0.104	-0.240
-560.515	800.000	-0.096	-0.330
-559.500	-200.000	0.038	-0.198
-558.485	800.000	0.080	-0.286
-557.471	-200.000	0.008	-0.201
-556.456	-72.962	-0.185	0.068
-555.442	-17.186	0.296	0.187
-554.427	-16.931	-0.185	-0.118
-553.412	-140.818	0.096	-0.010
-552.398	-106.310	-0.290	-0.065
-551.383	800.000	-0.062	-0.216
-550.369	800.000	-0.019	0.067
-549.354	-200.000	-0.007	0.129
-548.339	-200.000	0.028	0.356
-547.325	61.948	0.158	-0.158
-546.310	-200.000	0.005	-0.277
-545.296	-15.002	0.214	0.138
-544.281	800.000	-0.040	-0.161
-543.266	-146.856	-0.208	0.018
-542.252	-129.009	-0.198	0.028
-541.237	-200.000	-0.015	0.265
-540.223	-200.000	-0.029	0.252
-539.208	-2.058	-0.164	0.116
-538.193	-98.882	0.037	-0.009
-537.179	-32.163	0.239	0.134
-536.164	-155.500	-0.234	0.015
-535.150	-166.905	-0.141	0.006
-534.135	-200.000	0.019	-0.228
-533.121	800.000	0.021	-0.073
-532.106	-94.150	0.297	0.081
-531.091	142.453	-0.137	0.182
-530.077	200.252	0.146	0.226
-529.062	800.000	0.080	-0.346
-528.048	800.000	0.049	-0.171
-527.033	305.345	0.047	0.088
-526.018	607.284	-0.097	0.241
-525.004	692.156	-0.148	-0.390
-523.989	-200.000	-0.030	0.218
-522.975	517.297	0.093	0.218
-521.960	525.248	0.106	0.250
-520.945	-168.337	0.516	0.020
-519.931	-156.069	-0.429	-0.027
-518.916	98.341	-0.190	-0.220
-517.902	800.000	-0.088	-0.292
-516.887	-169.734	0.194	0.007
-515.872	-200.000	0.030	-0.344
-514.858	54.999	0.148	-0.143
-513.843	-20.543	0.198	-0.122
-512.829	800.000	-0.055	0.161
-511.814	41.443	-0.198	0.180
-510.799	-24.119	0.238	-0.142
-509.785	64.413	-0.135	0.137
-508.770	44.849	0.275	0.254
-507.756	-101.251	0.150	-0.037
-506.741	137.173	0.107	-0.140
-505.726	259.949	-0.027	-0.047
-504.712	-200.000	-0.045	-0.321
-503.697	295.872	0.073	0.133
-502.683	-111.347	0.083	-0.017
-501.668	-162.334	-0.006	0.000
-500.653	-4.159	0.218	-0.151
-499.639	7.243	0.236	-0.177
-498.624	-14.752	-0.071	0.046
-497.610	-0.976	-0.089	-0.063
-496.595	42.670	-0.130	0.118
-495.581	-112.282	-0.165	0.033
-494.566	-111.981	0.288	-0.058
-493.551	-34.599	-0.365	-0.200
-492.537	309.617	-0.107	-0.200
-491.522	-200.000	-0.019	0.289
-490.508	-75.925	-0.080	-0.028
-489.493	147.786	0.039	0.052
-488.478	-200.000	-0.034	-0.177
-487.464	-5.687	-0.199	-0.136
-486.449	140.000	0.147	0.194
-485.435	-200.000	-0.030	0.313
-484.420	-101.502	-0.146	0.036
-483.405	-200.000	-0.003	0.080
-482.391	26.753	0.231	-0.193
-481.376	-4.217	0.166	0.115
-480.362	229.477	0.045	-0.073
-479.347	357.591	-0.118	0.236
-478.332	7.915	0.131	-0.098
-477.318	-200.000	0.004	0.142
-476.303	270.400	-0.100	0.176
-475.289	284.054	0.099	-0.179
-474.274	-30.243	0.069	0.039
-473.259	71.937	0.100	-0.104
-472.245	188.614	0.135	0.202
-471.230	-200.000	-0.017	-0.200
-470.216	-21.440	-0.424	-0.259
-469.201	84.423	-0.099	-0.108
-468.186	409.739	-0.161	0.342
-467.172	-179.744	-0.020	0.000
-466.157	-151.196	0.379	0.028
-465.143	-70.476	0.042	0.016
-464.128	-82.401	0.472	0.153
-463.113	-68.114	0.348	-0.136
-462.099	800.000	0.028	0.102
-461.084	-200.000	-0.019	-0.128
-460.070	133.551	0.152	-0.197
-459.055	-52.851	-0.384	0.177
-458.040	-76.540	-0.259	0.091
-457.026	250.407	-0.065	-0.110
-456.011	-161.149	-0.187	-0.010
-454.997	53.426	0.167	-0.160
-453.982	-200.000	-0.030	-0.138
-452.968	-135.888	0.176	-0.021
-451.953	-52.799	-0.102	0.047
-450.938	402.061	-0.056	-0.117
-449.924	-139.901	-0.108	0.011
-448.909	-87.836	-0.085	-0.026
-447.895	79.632	0.160	0.171
-446.880	-200.000	-0.008	0.075
-445.865	-60.470	0.265	0.112
-444.851	-200.000	-0.007	0.254
-443.836	763.702	0.057	0.153
-442.822	76.627	-0.121	-0.129
-441.807	-109.072	0.084	-0.018
-440.792	52.268	0.141	-0.134
-439.778	-200.000	0.007	-0.417
-438.763	-88.512	0.505	-0.150
-437.749	250.870	0.018	0.031
-436.734	-152.053	0.183	0.013
-435.719	-172.718	0.385	0.012
-434.705	-200.000	-0.090	0.665
-433.690	160.199	-0.151	-0.210
-432.676	-200.000	0.002	0.012
-431.661	-42.151	-0.387	0.198
-430.646	-39.429	0.554	0.290
-429.632	-119.034	-0.436	0.076
-428.617	-200.000	-0.033	0.179
-427.603	57.040	0.026	0.025
-426.588	53.579	0.130	-0.125
-425.573	96.554	-0.097	-0.111
-424.559	-67.750	-0.140	-0.055
-423.544	800.000	0.037	0.152
-422.530	-124.461	-0.195	0.030
-421.515	89.176	-0.216	-0.241
-420.500	800.000	-0.046	0.187
-419.486	-37.435	-0.357	-0.190
-418.471	156.947	-0.157	-0.217
-417.457	-83.797	0.438	0.139
-416.442	407.059	-0.069	-0.145
-415.428	-84.380	-0.271	0.086
-414.413	-200.000	0.049	0.315
-413.398	-200.000	-0.062	0.300
-412.384	-0.885	-0.171	-0.121
-411.369	-60.946	0.210	-0.089
-410.355	-200.000	-0.001	-0.231
-409.340	-105.905	-0.370	-0.083
-408.325	-200.000	0.088	-0.417
-407.311	-200.000	-0.004	0.256
-406.296	184.474	0.158	-0.234
-405.282	-200.000	0.041	0.604
-404.267	-138.112	-0.134	-0.015
-403.252	786.231	-0.072	0.198
-402.238	699.961	-0.010	0.027
-401.223	-200.000	0.024	-0.152
-400.209	129.555	-0.382	0.486
-399.194	-30.203	0.079	0.045
-398.179	-200.000	-0.006	0.177
-397.165	-200.000	-0.028	0.145
-396.150	179.257	-0.096	-0.140
-395.136	-200.000	0.063	-0.314
-394.121	174.153	-0.063	-0.090
-393.106	33.932	0.297	0.258
-392.092	-9.174	-0.171	0.114
-391.077	800.000	-0.108	0.359
-390.063	-11.769	0.197	-0.129
-389.048	41.237	0.101	-0.091
-388.033	413.288	0.079	0.168
-387.019	-200.000	0.013	0.114
-386.004	-80.285	-0.177	0.059
-384.990	-48.729	-0.191	-0.091
-383.975	-34.698	-0.121	-0.066
-382.960	51.058	-0.101	0.095
-381.946	65.518	0.329	-0.332
-380.931	-86.366	-0.209	-0.064
-379.917	34.034	-0.172	0.149
-378.902	800.000	-0.125	-0.367
-377.888	-200.000	0.038	0.185
-376.873	277.322	0.058	0.104
-375.858	114.171	-0.049	-0.059
-374.844	138.545	-0.092	-0.121
-373.829	7.354	-0.343	0.255
-372.815	-48.892	0.048	0.023
-371.800	10.347	-0.042	-0.032
-370.785	627.561	0.064	0.161
-369.771	58.163	-0.141	0.138
-368.756	-200.000	0.014	0.136
-367.742	-59.524	0.207	-0.089
-366.727	-45.739	0.170	-0.084
-365.712	-200.000	-0.071	-0.430
-364.698	-200.000	-0.002	-0.226
-363.683	-50.952	-0.272	0.127
-362.669	15.647	-0.105	0.082
-361.654	-54.081	0.223	0.101
-360.639	800.000	-0.122	0.433
-359.625	308.501	0.226	0.420
-358.610	119.738	-0.227	0.280
-357.596	-57.223	0.248	0.109
-356.581	-64.927	0.084	0.034
-355.566	-131.041	-0.071	-0.009
-354.552	580.249	0.108	-0.265
-353.537	-56.834	0.350	-0.154
-352.523	-200.000	0.042	-0.247
-351.508	-126.265	0.208	-0.031
-350.493	800.000	-0.043	0.157
-349.479	33.844	0.169	0.146
-348.464	-50.077	0.121	-0.057
-347.450	95.740	-0.043	0.049
-346.435	117.667	0.239	0.292
-345.420	-200.000	-0.004	-0.054
-344.406	-10.317	-0.349	0.230
-343.391	800.000	0.061	0.187
-342.377	93.958	-0.130	-0.146
-341.362	-182.850	-0.242	-0.004
-340.348	-34.898	-0.292	-0.159
-339.333	0.308	0.042	0.030
-338.318	-200.000	-0.011	-0.080
-337.304	800.000	-0.084	-0.309
-336.289	-108.811	0.201	-0.043
-335.275	-193.122	-0.271	-0.002
-334.260	278.137	-0.078	0.138
-333.245	800.000	-0.102	0.352
-332.231	800.000	-0.014	-0.039
-331.216	151.221	0.119	0.161
-330.202	-79.164	0.328	0.111
-329.187	-200.000	-0.022	-0.226
-328.172	-200.000	0.003	-0.143
-327.158	-46.767	0.031	-0.015
-326.143	70.405	0.116	-0.119
-325.129	250.757	0.160	0.270
-324.114	-200.000	0.007	0.214
-323.099	-200.000	0.014	0.121
-322.085	66.295	-0.392	0.396
-321.070	746.725	0.026	-0.071
-320.056	-154.760	-0.291	0.019
-319.041	440.120	0.069	-0.150
-318.026	233.376	-0.233	-0.381
-317.012	15.623	0.098	-0.077
-315.997	252.097	0.032	0.055
-314.983	800.000	0.100	0.389
-313.968	205.098	0.221	0.342
-312.953	179.572	0.215	-0.313
-311.939	-98.527	-0.123	0.031
-310.924	-200.000	-0.050	0.241
-309.910	-20.673	0.158	-0.096
-308.895	-43.097	0.231	0.116
-307.880	-200.000	-0.330	-0.001
-306.866	159.621	0.156	-0.216
-305.851	-34.960	0.219	-0.119
-304.837	98.728	-0.170	0.195
-303.822	217.930	0.064	0.101
-302.807	80.377	0.265	0.284
-301.793	-94.706	0.157	-0.042
-300.778	-200.000	-0.019	0.239
-299.764	800.000	0.114	0.456
-298.749	800.000	-0.056	-0.159
-297.735	-200.000	-0.002	0.030
-296.720	-56.667	-0.032	-0.014
-295.705	-73.712	0.271	0.098
-294.691	-91.614	-0.104	0.029
-293.676	130.577	0.177	-0.225
-292.662	371.119	0.154	-0.310
-291.647	-145.126	-0.112	-0.010
-290.632	-162.826	0.187	-0.009
-289.618	-103.824	-0.073	-0.017
-288.603	322.310	0.071	0.134
-287.589	171.495	0.151	-0.215
-286.574	-127.538	-0.317	0.046
-285.559	69.025	-0.285	-0.291
-284.545	87.593	0.067	0.074
-283.530	-0.715	0.156	-0.110
-282.516	-165.930	-0.109	-0.005
-281.501	-200.000	-0.030	-0.292
-280.486	-26.457	0.167	-0.097
-279.472	-5.303	-0.272	-0.185
-278.457	-63.312	0.219	-0.090
-277.443	92.298	-0.207	-0.231
-276.428	22.893	0.186	-0.151
-275.413	94.959	0.088	0.100
-274.399	800.000	-0.012	0.034
-273.384	-79.163	0.163	0.055
-272.370	800.000	0.108	0.312
-271.355	800.000	0.046	0.125
-270.340	153.329	-0.142	-0.192
-269.326	171.278	-0.229	0.326
-268.311	-200.000	0.006	-0.084
-267.297	29.124	0.112	0.095
-266.282	800.000	0.057	0.192
-265.267	99.325	0.189	-0.217
-264.253	-45.064	-0.236	-0.116
-263.238	800.000	0.032	0.109
-262.224	-143.610	0.441	-0.042
-261.209	-54.310	-0.273	0.123
-260.195	-129.167	-0.246	-0.034
-259.180	-200.000	0.016	-0.073
-258.165	-200.000	-0.007	-0.131
-257.151	-1.477	0.371	-0.259
-256.136	1.838	-0.204	0.146
-255.122	-59.528	0.279	-0.119
-254.107	-163.777	0.063	0.003
-253.092	800.000	0.111	-0.310
-252.078	-108.237	0.244	-0.052
-251.063	191.633	-0.091	-0.136
-250.049	-200.000	0.045	-0.384
-249.034	193.321	-0.061	-0.091
-248.019	220.997	0.116	0.185
-247.005	224.413	0.164	-0.263
-245.990	-20.347	-0.226	0.138
-244.976	-200.000	0.030	0.429
-243.961	58.197	0.220	0.214
-242.946	-114.917	0.371	0.070
-241.932	636.147	-0.049	0.123
-240.917	336.712	0.061	-0.118
-239.903	5.317	-0.103	-0.075
-238.888	-81.270	-0.213	0.070
-237.873	-189.004	-0.288	-0.003
-236.859	-125.833	-0.226	0.034
-235.844	-38.144	0.118	0.062
-234.830	-30.924	-0.083	-0.047
-233.815	800.000	0.099	-0.338
-232.800	-116.196	-0.065	-0.012
-231.786	-89.600	0.246	-0.072
-230.771	83.445	-0.217	0.235
-229.757	337.922	-0.084	0.161
-228.742	800.000	-0.078	-0.311
-227.727	-200.000	-0.019	0.170
-226.713	-142.604	-0.350	-0.034
-225.698	0.119	-0.162	-0.114
-224.684	-93.529	0.270	0.074
-223.669	-200.000	0.010	-0.081
-222.655	103.119	-0.167	-0.194
-221.640	328.548	0.215	-0.408
-220.625	800.000	0.056	-0.225
-219.611	94.392	-0.055	0.062
-218.596	25.043	-0.367	-0.302
-217.582	-134.937	-0.199	-0.024
-216.567	62.282	-0.162	-0.160
-215.552	-83.938	-0.201	0.063
-214.538	719.341	-0.088	-0.233
-213.523	-200.000	-0.015	0.121
-212.509	-119.568	0.228	0.039
-211.494	-200.000	0.010	0.176
-210.479	296.642	0.026	-0.047
-209.465	-61.552	0.272	0.113
-208.450	43.285	0.141	-0.128
-207.436	-7.775	-0.309	0.206
-206.421	2.485	-0.234	0.168
-205.406	800.000	-0.086	0.347
-204.392	-200.000	-0.019	0.231
-203.377	-67.873	0.061	0.024
-202.363	-51.552	-0.158	-0.073
-201.348	-156.359	-0.362	0.022
-200.333	-200.000	-0.010	-0.072
-199.319	419.694	-0.069	0.146
-198.304	205.485	0.067	-0.103
-197.290	-132.515	0.155	0.020
-196.275	-116.179	0.164	0.030
-195.260	106.692	0.210	0.247
-194.246	800.000	-0.125	0.377
-193.231	274.262	-0.112	-0.196
-192.217	-200.000	0.004	0.031
-191.202	-76.154	-0.327	-0.114
-190.187	-200.000	-0.022	0.193
-189.173	-100.570	0.251	-0.061
-188.158	800.000	0.050	-0.155
-187.144	-16.988	0.354	-0.221
-186.129	-41.042	-0.250	-0.128
-185.114	27.784	0.240	0.200
-184.100	-200.000	0.025	0.307
-183.085	-48.739	-0.253	0.120
-182.071	156.148	0.129	0.175
-181.056	359.353	0.142	-0.282
-180.042	-78.544	-0.263	-0.089
-179.027	123.613	0.219	0.272
-178.012	462.625	-0.109	0.241
-176.998	392.421	0.070	0.144
-175.983	22.770	-0.173	-0.140
-174.969	-42.780	-0.247	-0.124
-173.954	170.660	0.146	0.206
-172.939	100.805	-0.100	0.115
-171.925	-159.506	0.214	0.012
-170.910	137.996	-0.195	-0.253
-169.896	-71.958	0.192	-0.071
-168.881	-88.363	-0.254	0.075
-167.866	-117.745	-0.301	-0.054
-166.852	-200.000	-0.064	0.445
-165.837	-13.644	-0.091	0.058
-164.823	-200.000	0.006	0.038
-163.808	199.387	0.044	0.066
-162.793	-109.703	-0.094	-0.020
-161.779	-75.435	-0.348	0.122
-160.764	800.000	-0.107	-0.314
-159.750	3.278	0.176	-0.126
-158.735	-140.171	0.070	-0.007
-157.720	679.719	0.077	0.199
-156.706	170.904	-0.088	0.125
-155.691	-200.000	0.046	0.443
-154.677	-200.000	0.433	0.001
-153.662	-200.000	-0.002	0.094
-152.647	-45.287	-0.227	-0.111
-151.633	532.843	-0.035	0.083
-150.618	375.950	-0.051	0.103
-149.604	303.742	0.137	0.251
-148.589	189.051	-0.263	0.390
-147.574	-23.488	0.200	0.118
-146.560	-200.000	-0.013	-0.115
-145.545	-67.696	0.041	-0.016
-144.531	-200.000	0.039	-0.325
-143.516	-68.955	0.054	0.021
-142.502	-200.000	-0.013	-0.092
-141.487	281.435	-0.202	0.357
-140.472	119.417	0.042	0.051
-139.458	-94.780	-0.199	-0.053
-138.443	-113.010	-0.234	0.046
-137.429	104.292	-0.170	0.198
-136.414	416.065	0.065	0.137
-135.399	-200.000	-0.022	0.343
-134.385	459.055	-0.033	0.073
-133.370	-24.053	0.142	0.084
-132.356	-114.146	-0.343	-0.065
-131.341	-171.054	-0.129	0.004
-130.326	27.497	-0.181	0.150
-129.312	-200.000	0.002	-0.170
-128.297	-200.000	-0.015	0.095
-127.283	-200.000	-0.071	-0.338
-126.268	800.000	-0.077	0.279
-125.253	20.197	-0.226	0.180
-124.239	0.634	-0.187	-0.132
-123.224	-200.000	0.023	0.353
-122.210	-78.315	0.294	0.100
-121.195	398.766	0.168	0.347
-120.180	689.107	-0.083	0.214
-119.166	110.783	-0.143	0.169
-118.151	621.360	0.019	-0.046
-117.137	-200.000	0.042	0.326
-116.122	-200.000	-0.021	0.254
-115.107	42.190	0.203	-0.182
-114.093	203.146	-0.200	-0.304
-113.078	-88.491	0.333	0.098
-112.064	-200.000	0.005	-0.210
-111.049	-121.411	0.230	0.038
-110.034	267.729	-0.113	-0.195
-109.020	-200.000	-0.032	-0.141
-108.005	-85.807	-0.023	0.007
-106.991	-200.000	-0.002	0.206
-105.976	-9.501	-0.098	-0.064
-104.962	88.899	-0.077	-0.085
-103.947	-120.240	-0.111	-0.019
-102.932	107.136	0.140	-0.164
-101.918	-193.308	0.513	0.004
-100.903	-51.136	-0.184	-0.085
-99.889	-200.000	0.098	0.554
-98.874	16.837	0.270	-0.211
-97.859	-68.711	0.552	0.210
-96.845	44.535	0.150	-0.136
-95.830	-99.917	-0.407	0.100
-94.816	800.000	0.063	-0.218
-93.801	119.111	0.184	0.224
-92.786	-62.768	-0.180	-0.073
-91.772	-80.278	-0.132	-0.043
-90.757	180.699	0.188	-0.272
-89.743	-200.000	0.035	-0.197
-88.728	12.271	-0.207	-0.157
-87.713	747.242	-0.021	-0.055
-86.699	-200.000	0.053	-0.339
-85.684	83.553	0.179	-0.192
-84.670	800.000	-0.008	0.031
-83.655	232.335	0.177	-0.287
-82.640	-97.903	-0.389	-0.099
-81.626	215.306	-0.136	0.213
-80.611	-64.514	0.073	-0.029
-79.597	71.438	0.197	0.201
-78.582	-21.339	0.212	0.128
-77.567	115.306	-0.052	0.062
-76.553	-200.000	-0.004	-0.129
-75.538	1.544	0.136	0.096
-74.524	-103.015	0.479	0.112
-73.509	-49.934	-0.122	0.057
-72.494	-105.000	0.283	-0.064
-71.480	-44.493	0.111	0.055
-70.465	-200.000	-0.015	0.224
-69.451	158.275	-0.063	0.086
-68.436	-15.842	0.161	-0.101
-67.422	96.289	0.246	-0.277
-66.407	208.125	0.163	0.251
-65.392	74.715	-0.039	0.041
-64.378	4.377	-0.333	-0.240
-63.363	-1.995	-0.096	0.066
-62.349	115.965	-0.130	0.157
-61.334	87.149	-0.854	-0.930
-60.319	505.797	0.187	0.427
-59.305	-200.000	-0.141	-0.786
-58.290	53.317	0.741	0.699
-57.276	800.000	0.491	1.534
-56.261	-200.000	90.603	529.579
-55.246	525.376	1362.630	3156.875
-54.232	154.922	2565.268	3470.896
-53.217	112.238	2299.864	2736.758
-52.203	47.496	1921.364	1762.863
-51.188	41.113	1712.498	1522.551
-50.173	38.075	1668.983	1461.109
-49.159	54.757	1715.187	1628.367
-48.144	58.405	1732.792	1672.630
-47.130	40.845	1690.668	1500.877
-46.115	37.890	1675.334	1465.042
-45.100	37.635	1670.836	1459.144
-44.086	37.599	1667.777	1456.139
-43.071	37.547	1665.357	1453.581
-42.057	37.587	1662.859	1451.644
-41.042	37.493	1661.445	1449.653
-40.027	37.613	1659.438	1448.736
-39.013	37.575	1657.232	1446.469
-37.998	37.552	1655.537	1444.762
-36.984	37.612	1654.240	1444.021
-35.969	37.694	1652.425	1442.983
-34.954	37.699	1651.138	1441.839
-33.940	37.766	1648.568	1440.036
-32.925	37.673	1647.482	1438.343
-31.911	37.819	1645.433	1437.576
-30.896	37.774	1643.725	1435.695
-29.881	37.727	1642.218	1433.975
-28.867	37.716	1640.953	1432.727
-27.852	37.732	1639.724	1431.721
-26.838	37.729	1637.919	1430.063
-25.823	37.677	1636.651	1428.521
-24.809	37.733	1635.512	1427.876
-23.794	37.755	1633.722	1426.419
-22.779	37.726	1632.260	1424.877
-21.765	37.774	1630.622	1423.738
-20.750	37.701	1629.472	1422.147
-19.736	37.726	1627.789	1420.805
-18.721	37.750	1626.252	1419.581
-17.706	37.756	1625.487	1418.897
-16.692	37.711	1623.238	1416.550
-15.677	37.756	1622.031	1415.769
-14.663	37.787	1620.707	1414.780
-13.648	37.845	1619.584	1414.165
-12.633	37.756	1617.805	1411.911
-11.619	37.743	1616.190	1410.355
-10.604	37.673	1614.827	1408.604
-9.590	37.818	1613.551	1408.482
-8.575	37.774	1612.257	1406.978
-7.560	37.726	1610.922	1405.410
-6.546	37.776	1609.600	1404.564
-5.531	37.656	1608.652	1402.815
-4.517	37.729	1607.308	1402.112
-3.502	37.624	1606.696	1400.766
-2.487	37.743	1605.177	1400.240
-1.473	36.990	1592.169	1383.464
-0.458	32.561	1568.420	1331.553
0.556	24.527	1564.490	1281.878
1.571	21.109	1585.198	1273.829
2.586	20.022	1598.084	1276.063
3.600	18.267	1548.118	1223.523
4.615	13.366	1445.454	1109.491
5.629	8.545	1383.274	1030.665
6.644	7.491	1375.031	1017.673
7.659	7.370	1373.838	1015.925
8.673	7.393	1372.586	1015.057
9.688	7.287	1370.723	1012.915
10.702	6.969	1368.089	1008.851
11.717	9.219	1371.947	1025.987
12.731	14.254	1380.182	1064.321
13.746	17.095	1384.980	1086.130
14.761	16.894	1383.322	1083.444
15.775	15.922	1380.554	1074.980
16.790	14.864	1377.656	1065.885
17.804	13.971	1375.691	1058.583
18.819	13.611	1373.784	1054.731
19.834	13.235	1373.061	1051.695
20.848	13.023	1371.605	1049.138
21.863	12.856	1370.094	1046.830
22.877	12.667	1368.951	1044.661
23.892	12.629	1368.127	1043.701
24.907	12.578	1367.820	1043.050
25.921	12.626	1366.732	1042.430
26.936	12.650	1365.711	1041.711
27.950	12.638	1364.762	1040.822
28.965	12.714	1363.721	1040.413
29.980	12.774	1362.175	1039.525
30.994	12.922	1361.061	1039.514
32.009	13.002	1359.200	1038.504
33.023	12.926	1358.564	1037.451
34.038	12.795	1357.739	1035.900
35.053	12.728	1356.500	1034.444
36.067	12.795	1355.033	1033.653
37.082	12.864	1353.707	1032.984
38.096	12.791	1352.741	1031.702
39.111	12.882	1352.233	1031.787
40.126	12.843	1351.324	1030.762
41.140	12.612	1350.664	1028.724
42.155	12.557	1350.036	1027.810
43.169	12.554	1349.851	1027.559
44.184	12.559	1349.196	1027.000
45.199	12.554	1349.003	1026.729
46.213	12.571	1348.641	1026.472
47.228	12.753	1347.088	1026.332
48.242	12.672	1346.205	1025.063
49.257	12.673	1344.667	1023.809
50.271	12.802	1342.588	1022.937
51.286	12.732	1341.810	1021.816
52.301	12.753	1340.819	1021.101
53.315	12.678	1339.669	1019.676
54.330	12.597	1338.605	1018.270
55.344	12.534	1337.541	1016.983
56.359	12.623	1336.164	1016.398
57.374	12.583	1335.396	1015.477
58.388	12.582	1335.013	1015.086
59.403	12.477	1334.869	1014.238
60.417	12.481	1333.742	1013.319
61.432	12.500	1332.733	1012.581
62.447	12.507	1331.938	1011.930
63.461	12.464	1330.480	1010.470
64.476	12.365	1329.880	1009.313
65.490	12.370	1328.677	1008.345
66.505	12.591	1326.062	1007.621
67.520	12.504	1325.261	1006.391
68.534	12.544	1324.551	1006.009
69.549	12.484	1323.664	1004.882
70.563	12.554	1322.553	1004.377
71.578	12.445	1321.315	1002.679
72.593	12.385	1320.470	1001.584
73.607	12.324	1319.554	1000.430
74.622	12.330	1318.645	999.691
75.636	12.351	1318.493	999.613
76.651	12.432	1317.847	999.526
77.666	12.403	1317.169	998.750
78.680	12.419	1316.543	998.283
79.695	12.467	1315.823	997.937
80.709	12.561	1315.017	997.813
81.724	12.520	1314.195	996.849
82.739	12.593	1313.052	996.335
83.753	12.619	1312.558	996.030
84.768	12.684	1311.051	995.195
85.782	12.788	1310.269	995.140
86.797	12.786	1309.071	994.130
87.812	12.680	1307.855	992.476
88.826	12.661	1306.890	991.543
89.841	12.721	1305.547	990.800
90.855	12.803	1304.942	990.747
91.870	12.680	1304.254	989.396
92.884	12.810	1303.254	989.330
93.899	12.836	1302.172	988.574
94.914	12.886	1301.340	988.159
95.928	12.931	1300.924	988.021
96.943	12.869	1300.023	986.882
97.957	12.750	1299.030	985.325
98.972	12.793	1298.192	984.862
99.987	12.737	1297.469	983.892
101.001	12.799	1295.534	982.708
102.016	12.739	1294.710	981.636
103.030	12.725	1293.714	980.714
104.045	12.795	1292.753	980.316
105.060	12.756	1291.646	979.156
106.074	12.547	1290.597	977.034
107.089	12.489	1288.769	975.216
108.103	12.535	1287.597	974.519
109.118	12.552	1286.309	973.555
110.133	12.569	1285.030	972.606
111.147	12.521	1283.770	971.279
112.162	12.549	1282.358	970.291
113.176	12.730	1281.182	970.383
114.191	12.628	1280.658	969.299
115.206	12.722	1279.166	968.637
116.220	12.506	1278.039	966.430
117.235	12.631	1276.803	966.142
118.249	12.623	1275.829	965.271
119.264	12.526	1275.234	964.169
120.279	12.442	1273.900	962.582
121.293	12.564	1272.946	962.493
122.308	12.527	1271.516	961.109
123.322	12.549	1270.464	960.357
124.337	12.494	1269.491	959.215
125.352	12.572	1268.078	958.516
126.366	12.508	1267.414	957.557
127.381	12.410	1266.166	955.959
128.395	12.618	1265.010	956.211
129.410	12.530	1264.292	955.071
130.424	12.651	1263.176	954.848
131.439	12.533	1262.502	953.571
132.454	12.671	1261.477	953.513
133.468	12.779	1260.205	953.086
134.483	12.666	1259.666	951.944
135.497	12.760	1258.631	951.621
136.512	12.621	1257.801	950.109
137.527	12.615	1256.156	948.746
138.541	12.742	1254.620	948.230
139.556	12.777	1253.094	947.197
140.570	12.798	1252.199	946.556
141.585	12.847	1251.247	946.033
142.600	12.798	1250.000	944.728
143.614	12.828	1249.453	944.404
144.629	12.887	1248.222	943.726
145.643	12.841	1247.021	942.470
146.658	12.922	1245.400	941.624
147.673	12.783	1243.945	939.646
148.687	12.676	1243.241	938.425
149.702	12.673	1241.655	937.124
150.716	12.691	1240.257	936.092
151.731	12.772	1239.067	935.569
152.746	12.715	1238.061	934.403
153.760	12.797	1236.608	933.691
154.775	12.849	1235.611	933.148
155.789	12.765	1234.855	932.018
156.804	12.837	1233.901	931.623
157.819	12.916	1232.678	931.065
158.833	12.961	1231.794	930.569
159.848	13.024	1231.373	930.524
160.862	12.981	1230.257	929.356
161.877	12.803	1229.185	927.460
162.892	12.784	1227.781	926.212
163.906	12.757	1227.082	925.453
164.921	12.744	1225.940	924.436
165.935	12.860	1225.176	924.428
166.950	12.950	1224.493	924.335
167.964	12.895	1223.929	923.522
168.979	12.884	1223.421	922.993
169.994	12.929	1222.116	922.180
171.008	12.852	1221.891	921.500
172.023	13.002	1220.905	921.509
173.037	13.006	1220.387	921.059
174.052	12.976	1219.365	920.040
175.067	12.956	1218.232	918.994
176.081	12.812	1217.322	917.424
177.096	12.804	1216.742	916.859
178.110	12.836	1215.646	916.129
179.125	13.066	1213.993	916.082
180.140	12.986	1213.277	915.018
181.154	13.039	1211.562	913.935
182.169	13.156	1210.392	913.617
183.183	13.040	1209.515	912.232
184.198	13.070	1208.337	911.433
185.213	13.107	1207.450	910.888
186.227	13.200	1205.807	910.079
187.242	13.203	1205.115	909.493
188.256	13.195	1204.372	908.805
189.271	13.196	1203.255	907.885
190.286	13.107	1202.064	906.421
191.300	12.970	1201.282	905.001
192.315	12.844	1200.858	903.912
193.329	12.935	1200.088	903.751
194.344	12.961	1199.449	903.327
195.359	13.048	1198.958	903.358
196.373	13.183	1198.254	903.486
197.388	13.120	1197.748	902.678
198.402	13.284	1197.175	903.064
199.417	13.358	1196.310	902.734
200.432	13.332	1195.702	902.054
201.446	13.409	1195.054	901.905
202.461	13.390	1194.310	901.159
203.475	13.394	1193.336	900.367
204.490	13.357	1191.976	899.058
205.504	13.403	1190.314	897.977
206.519	13.362	1189.427	897.005
207.534	13.308	1188.227	895.727
208.548	13.385	1187.263	895.340
209.563	13.326	1186.476	894.348
210.577	13.382	1185.611	893.917
211.592	13.390	1184.966	893.398
212.607	13.504	1183.936	893.154
213.621	13.495	1182.886	892.235
214.636	13.546	1181.678	891.519
215.650	13.528	1181.022	890.848
216.665	13.523	1180.437	890.305
217.680	13.546	1179.501	889.642
218.694	13.589	1178.549	889.074
219.709	13.603	1177.714	888.445
220.723	13.540	1176.725	887.279
221.738	13.617	1176.448	887.405
222.753	13.710	1175.153	886.845
223.767	13.636	1174.730	886.056
224.782	13.694	1174.041	885.764
225.796	13.772	1173.653	885.812
226.811	13.800	1172.437	884.966
227.826	13.699	1172.181	884.156
228.840	13.724	1171.225	883.486
229.855	13.535	1170.827	882.101
230.869	13.726	1169.682	882.179
231.884	13.674	1168.647	881.044
232.899	13.723	1167.577	880.419
233.913	13.754	1167.046	880.103
234.928	13.657	1166.698	879.251
235.942	13.611	1166.150	878.513
236.957	13.655	1164.930	877.751
237.972	13.531	1164.504	876.696
238.986	13.556	1164.211	876.530
240.001	13.732	1163.187	876.614
241.015	13.742	1161.885	875.608
242.030	13.826	1161.367	875.580
243.045	13.679	1160.780	874.285
244.059	13.777	1159.411	873.694
245.074	13.842	1159.171	873.779
246.088	13.993	1158.027	873.631
247.103	13.899	1157.451	872.626
248.117	13.957	1156.804	872.368
249.132	13.940	1156.411	871.905
250.147	14.108	1155.763	872.219
251.161	14.155	1154.784	871.652
252.176	14.208	1154.131	871.357
253.190	14.164	1153.816	870.813
254.205	14.218	1153.099	870.474
255.220	14.282	1152.407	870.210
256.234	14.270	1151.556	869.430
257.249	14.214	1151.120	868.728
258.263	14.280	1150.083	868.215
259.278	14.256	1149.821	867.813
260.293	14.320	1149.159	867.571
261.307	14.370	1148.608	867.340
262.322	14.370	1148.194	866.949
263.336	14.376	1147.243	866.186
264.351	14.302	1146.609	865.245
265.366	14.382	1146.315	865.366
266.380	14.429	1145.124	864.631
267.395	14.430	1144.162	863.834
268.409	14.332	1143.836	863.003
269.424	14.337	1143.273	862.531
270.439	14.483	1142.008	862.252
271.453	14.395	1141.577	861.396
272.468	14.263	1140.681	859.964
273.482	14.221	1140.146	859.266
274.497	14.420	1139.077	859.414
275.512	14.351	1138.515	858.556
276.526	14.440	1137.814	858.412
277.541	14.438	1137.160	857.832
278.555	14.528	1136.381	857.629
279.570	14.457	1135.797	856.747
280.585	14.645	1134.746	856.842
281.599	14.600	1133.881	855.883
282.614	14.552	1132.834	854.774
283.628	14.543	1131.551	853.681
284.643	14.604	1130.055	852.791
285.657	14.668	1129.704	852.779
286.672	14.560	1129.140	851.724
287.687	14.538	1128.068	850.730
288.701	14.644	1127.457	850.735
289.716	14.680	1126.274	849.947
290.730	14.699	1125.934	849.711
291.745	14.656	1125.583	849.152
292.760	14.571	1124.707	847.987
293.774	14.782	1123.888	848.366
294.789	14.730	1123.873	848.012
295.803	14.842	1122.672	847.600
296.818	14.726	1122.313	846.668
297.833	14.769	1121.089	845.889
298.847	14.753	1120.594	845.358
299.862	14.712	1119.467	844.226
300.876	14.761	1119.207	844.204
301.891	14.936	1118.515	844.488
302.906	14.881	1117.922	843.690
303.920	14.893	1117.216	843.141
304.935	14.940	1116.663	842.888
305.949	14.884	1116.335	842.280
306.964	14.958	1115.443	841.906
307.979	14.943	1114.248	840.857
308.993	14.970	1113.607	840.432
310.008	15.058	1112.622	840.055
311.022	14.991	1112.098	839.253
312.037	15.081	1110.933	838.747
313.052	14.989	1110.029	837.531
314.066	14.906	1109.208	836.424
315.081	14.912	1108.309	835.699
316.095	14.939	1107.933	835.477
317.110	14.797	1107.205	834.148
318.125	14.943	1106.189	834.033
319.139	14.889	1105.775	833.382
320.154	14.913	1105.051	832.882
321.168	15.007	1104.307	832.712
322.183	15.037	1103.887	832.472
323.197	14.935	1103.325	831.470
324.212	15.129	1102.338	831.613
325.227	15.146	1101.787	831.209
326.241	15.078	1101.443	830.540
327.256	15.035	1100.742	829.725
328.270	15.037	1099.731	828.897
329.285	15.111	1099.044	828.672
330.300	14.993	1097.997	827.224
331.314	15.072	1096.902	826.721
332.329	15.030	1095.982	825.744
333.343	15.165	1094.923	825.537
334.358	15.147	1094.486	825.048
335.373	15.171	1093.535	824.377
336.387	15.242	1092.910	824.183
337.402	15.182	1092.340	823.383
338.416	15.209	1091.710	822.967
339.431	15.368	1090.992	823.135
340.446	15.415	1089.905	822.473
341.460	15.395	1089.373	821.898
342.475	15.406	1088.911	821.534
343.489	15.414	1087.702	820.587
344.504	15.532	1086.793	820.403
345.519	15.502	1086.254	819.779
346.533	15.439	1085.729	819.003
347.548	15.640	1084.719	819.150
348.562	15.632	1083.847	818.380
349.577	15.496	1082.985	816.994
350.592	15.519	1081.752	816.103
351.606	15.453	1081.591	815.589
352.621	15.330	1081.097	814.546
353.635	15.410	1080.478	814.396
354.650	15.444	1079.248	813.561
355.665	15.484	1078.900	813.420
356.679	15.428	1078.281	812.612
357.694	15.472	1077.778	812.375
358.708	15.575	1077.017	812.225
359.723	15.581	1076.172	811.546
360.738	15.633	1075.703	811.372
361.752	15.576	1075.364	810.768
362.767	15.643	1074.438	810.322
363.781	15.685	1074.296	810.347
364.796	15.686	1073.721	809.845
365.810	15.824	1073.105	809.972
366.825	15.811	1072.152	809.120
367.840	15.804	1071.745	808.706
368.854	15.847	1071.185	808.420
369.869	15.899	1070.345	807.965
370.883	15.864	1069.140	806.814
371.898	15.782	1068.965	806.217
372.913	15.783	1067.880	805.336
373.927	15.808	1067.871	805.376
374.942	15.986	1067.311	805.734
375.956	15.822	1067.016	804.655
376.971	16.020	1065.820	804.626
377.986	15.961	1065.334	803.909
379.000	15.935	1064.893	803.378
380.015	16.108	1063.912	803.393
381.029	16.134	1063.407	803.065
382.044	16.045	1063.369	802.543
383.059	16.064	1062.190	801.672
384.073	16.135	1061.452	801.378
385.088	16.193	1060.334	800.742
386.102	16.254	1059.497	800.328
387.117	16.082	1058.282	798.524
388.132	16.007	1057.829	797.755
389.146	16.043	1057.056	797.273
390.161	16.024	1056.365	796.592
391.175	16.016	1055.585	795.892
392.190	15.938	1055.243	795.197
393.205	16.062	1054.809	795.387
394.219	16.201	1053.526	795.003
395.234	16.203	1052.564	794.214
396.248	16.238	1051.101	793.208
397.263	16.110	1050.465	792.053
398.278	16.205	1049.571	791.758
399.292	16.080	1049.250	790.857
400.307	16.110	1048.692	790.508
401.321	16.071	1047.980	789.720
402.336	16.068	1047.628	789.371
403.350	16.130	1046.786	788.957
404.365	16.113	1046.107	788.294
405.380	16.248	1044.867	787.922
406.394	16.087	1044.675	786.954
407.409	16.255	1043.825	787.030
408.423	16.459	1042.929	787.231
409.438	16.315	1042.473	786.150
410.453	16.538	1041.780	786.592
411.467	16.478	1041.201	785.806
412.482	16.465	1040.505	785.152
413.496	16.473	1039.682	784.498
414.511	16.676	1038.955	784.821
415.526	16.546	1038.846	784.067
416.540	16.535	1038.375	783.591
417.555	16.634	1037.781	783.533
418.569	16.581	1037.277	782.837
419.584	16.567	1036.841	782.373
420.599	16.635	1036.225	782.154
421.613	95.034	1309.206	1422.860
422.628	87.080	1348.972	1422.964
