DTS Sentinel unit serial number:	SN413079Multiplexer serial number:	ORYXHardware model number:	OX4-SRSoftware version number:	ORYX F/W v4.00 Oryx Data Collector v3.7.2.0data status	okinstallation	princeton_trtdifferential loss correction	single-endedforward channel	channel 2reverse channel	N/Adate	2019/09/16time	07:31:35forward acquisition time	60.00reverse acquisition time	0.00gamma	496.2192k internal	0.2334k external	0.2334temperature offset calibration	0.9977default loss term (dB/km)	0.3790temperature slope calibration	1.0000multiplexer offset coefficient	1.0000multiplexer slope coefficient	1.0000fibre end	0.00T internal ref (°C)	27.62T ext. ref 1 (°C)	11.64T ext. ref 2 (°C)	23.95length (m)	temperature (°C)	Stokes	anti-Stokes-747.200	-119.598	-0.225	0.039
-746.185	37.199	-0.178	0.158
-745.171	-200.000	-0.035	0.272
-744.156	-20.702	0.190	0.117
-743.142	-200.000	-0.027	-0.454
-742.127	-200.000	-0.013	-0.160
-741.112	-200.000	-0.001	0.172
-740.098	-118.718	-0.189	-0.033
-739.083	91.711	-0.170	0.192
-738.069	20.362	0.126	0.103
-737.054	-7.432	-0.054	-0.037
-736.039	-53.694	-0.319	0.146
-735.025	548.693	-0.032	0.076
-734.010	72.505	-0.141	0.148
-732.996	-177.097	-0.365	0.009
-731.981	205.949	0.246	-0.384
-730.966	-108.988	-0.305	0.065
-729.952	-69.715	0.244	-0.094
-728.937	-98.839	-0.230	0.059
-727.923	-123.858	0.169	0.027
-726.908	-115.520	0.091	0.017
-725.894	-130.270	-0.259	-0.035
-724.879	-200.000	-0.031	-0.201
-723.864	-92.602	0.135	-0.038
-722.850	-188.342	-0.291	0.004
-721.835	800.000	-0.067	0.279
-720.821	-47.451	0.198	0.097
-719.806	141.191	0.053	0.071
-718.791	-31.268	-0.311	0.176
-717.777	-92.027	0.081	-0.023
-716.762	-126.771	-0.238	0.035
-715.748	-91.567	-0.071	0.020
-714.733	121.485	0.210	0.262
-713.718	-200.000	-0.002	0.353
-712.704	-111.402	-0.194	-0.040
-711.689	-11.965	-0.241	0.158
-710.675	-200.000	0.017	-0.173
-709.660	-116.597	0.303	0.056
-708.645	-20.681	0.304	-0.187
-707.631	235.616	0.137	0.227
-706.616	-39.433	-0.138	-0.073
-705.602	156.131	-0.172	0.238
-704.587	20.583	-0.032	-0.026
-703.572	-53.569	0.450	0.206
-702.558	-143.106	-0.179	0.017
-701.543	404.020	0.010	0.022
-700.529	-200.000	0.021	0.150
-699.514	-44.595	-0.223	-0.112
-698.499	323.328	-0.083	-0.159
-697.485	-67.828	0.195	-0.077
-696.470	85.704	-0.096	-0.106
-695.456	24.906	0.023	0.019
-694.441	-132.496	0.284	0.037
-693.426	267.255	0.113	0.198
-692.412	381.925	-0.089	-0.183
-691.397	-200.000	0.070	-0.326
-690.383	-38.216	-0.259	-0.138
-689.368	216.336	0.061	-0.098
-688.354	247.451	-0.086	-0.145
-687.339	-119.547	-0.094	0.016
-686.324	-109.629	-0.278	0.059
-685.310	-94.997	-0.059	-0.016
-684.295	-200.000	-0.004	-0.266
-683.281	-147.756	0.130	-0.011
-682.266	-36.464	-0.214	0.115
-681.251	-176.359	0.076	0.002
-680.237	-12.467	0.252	-0.165
-679.222	-200.000	0.031	0.185
-678.208	106.767	-0.071	-0.084
-677.193	-200.000	0.010	-0.209
-676.178	-154.849	0.150	0.010
-675.164	104.157	0.183	-0.216
-674.149	30.178	-0.303	-0.259
-673.135	-200.000	-0.057	0.259
-672.120	61.924	0.142	0.142
-671.105	189.076	0.202	-0.304
-670.091	71.063	-0.131	0.137
-669.076	600.044	0.110	0.274
-668.062	504.995	-0.111	-0.258
-667.047	5.563	-0.085	0.063
-666.032	67.019	-0.244	-0.250
-665.018	-200.000	0.043	0.232
-664.003	-21.415	-0.265	0.162
-662.989	133.337	-0.098	-0.127
-661.974	-200.000	-0.045	-0.282
-660.959	-200.000	0.013	0.097
-659.945	86.282	0.051	-0.056
-658.930	-130.822	-0.308	-0.041
-657.916	-51.341	0.289	0.136
-656.901	-89.077	0.127	-0.038
-655.886	57.716	-0.370	0.362
-654.872	-200.000	0.010	-0.360
-653.857	-0.543	-0.251	0.178
-652.843	-16.519	-0.280	-0.178
-651.828	-200.000	-0.024	-0.132
-650.814	-200.000	0.006	-0.243
-649.799	-200.000	-0.053	0.238
-648.784	52.137	-0.142	0.136
-647.770	136.914	-0.043	-0.056
-646.755	205.027	-0.193	0.300
-645.741	-98.394	0.245	-0.063
-644.726	-12.868	-0.181	-0.118
-643.711	469.122	0.083	-0.187
-642.697	46.535	-0.208	-0.193
-641.682	-129.853	0.230	0.032
-640.668	177.468	-0.118	0.172
-639.653	-46.094	-0.303	0.149
-638.638	-200.000	-0.000	0.008
-637.624	53.606	0.174	0.167
-636.609	493.126	0.115	0.264
-635.595	117.460	-0.079	-0.097
-634.580	800.000	0.021	0.060
-633.565	-200.000	-0.032	0.207
-632.551	800.000	-0.193	0.602
-631.536	-15.719	-0.093	-0.060
-630.522	58.329	0.213	-0.209
-629.507	114.194	0.214	0.260
-628.492	97.263	-0.039	-0.045
-627.478	73.712	0.122	0.128
-626.463	-123.281	-0.242	-0.039
-625.449	-98.308	-0.200	0.051
-624.434	25.996	-0.311	0.259
-623.419	71.858	0.199	-0.207
-622.405	160.216	-0.066	-0.093
-621.390	-131.982	-0.121	-0.016
-620.376	-76.335	0.161	0.057
-619.361	488.688	-0.083	0.189
-618.346	361.370	-0.077	0.154
-617.332	512.821	0.096	0.225
-616.317	800.000	0.089	0.281
-615.303	-113.714	-0.365	0.071
-614.288	800.000	0.019	-0.053
-613.273	125.911	-0.092	-0.116
-612.259	-79.835	0.122	0.041
-611.244	352.079	-0.067	-0.133
-610.230	-118.666	0.156	-0.028
-609.215	-21.964	-0.150	-0.091
-608.201	224.727	0.112	-0.182
-607.186	237.326	-0.188	-0.312
-606.171	309.596	0.079	0.147
-605.157	-200.000	-0.008	0.314
-604.142	-24.973	-0.122	-0.072
-603.128	5.037	0.159	0.117
-602.113	235.024	-0.076	-0.126
-601.098	-136.472	0.098	0.011
-600.084	-42.531	-0.013	-0.006
-599.069	-9.512	-0.008	-0.006
-598.055	-200.000	0.009	0.354
-597.040	-200.000	-0.054	-0.387
-596.025	-137.908	0.204	-0.023
-595.011	217.500	-0.071	0.113
-593.996	37.702	0.131	-0.116
-592.982	-116.794	0.228	0.042
-591.967	322.144	0.122	0.232
-590.952	161.202	0.031	0.044
-589.938	296.015	0.146	-0.266
-588.923	761.421	-0.114	-0.309
-587.909	-152.432	0.185	-0.013
-586.894	-2.889	-0.084	-0.058
-585.879	284.947	0.122	0.220
-584.865	583.870	-0.037	-0.090
-583.850	-28.658	-0.437	0.251
-582.836	-200.000	-0.093	-0.518
-581.821	-125.508	0.278	-0.042
-580.806	201.557	-0.179	0.276
-579.792	253.917	-0.100	-0.171
-578.777	-158.982	0.224	0.013
-577.763	65.470	-0.230	-0.233
-576.748	-53.929	-0.234	0.106
-575.733	800.000	0.080	-0.228
-574.719	-200.000	-0.032	0.255
-573.704	-200.000	0.018	0.152
-572.690	-200.000	0.001	0.128
-571.675	-71.272	-0.161	-0.060
-570.661	-104.675	-0.164	0.038
-569.646	260.209	-0.155	0.268
-568.631	-135.903	-0.088	-0.010
-567.617	-16.985	0.170	-0.107
-566.602	-91.009	-0.145	0.041
-565.588	-0.752	-0.122	0.087
-564.573	-60.046	0.248	0.106
-563.558	-138.142	0.058	-0.006
-562.544	151.244	0.271	-0.369
-561.529	133.523	-0.127	-0.164
-560.515	43.355	0.088	-0.081
-559.500	800.000	-0.066	0.209
-558.485	800.000	0.014	0.051
-557.471	-200.000	0.013	0.216
-556.456	35.405	0.089	-0.078
-555.442	-81.650	0.036	-0.012
-554.427	22.127	-0.111	0.090
-553.412	577.911	0.087	0.212
-552.398	-200.000	0.027	-0.240
-551.383	207.205	0.190	0.296
-550.369	-59.757	-0.316	-0.135
-549.354	263.851	0.113	0.196
-548.339	-153.936	-0.361	0.025
-547.325	39.542	-0.137	-0.123
-546.310	-93.249	-0.089	-0.025
-545.296	128.180	-0.176	-0.223
-544.281	-200.000	-0.064	-0.319
-543.266	103.639	0.143	-0.167
-542.252	-39.443	0.180	-0.094
-541.237	-77.627	0.188	-0.065
-540.223	-200.000	-0.029	-0.251
-539.208	3.792	-0.136	-0.099
-538.193	-182.285	-0.398	0.007
-537.179	-122.589	0.098	-0.016
-536.164	59.951	-0.328	-0.323
-535.150	-71.308	0.117	-0.044
-534.135	113.576	-0.082	-0.100
-533.121	-200.000	-0.006	0.105
-532.106	-200.000	0.025	0.133
-531.091	-87.697	-0.124	0.037
-530.077	-150.431	0.157	-0.012
-529.062	-66.165	0.066	-0.026
-528.048	356.251	-0.130	0.259
-527.033	667.080	0.057	0.146
-526.018	-45.577	-0.280	0.138
-525.004	-102.832	-0.158	-0.037
-523.989	-6.428	-0.080	0.055
-522.975	-156.569	-0.166	0.010
-521.960	-200.000	0.009	-0.068
-520.945	-200.000	-0.005	-0.094
-519.931	800.000	0.076	0.266
-518.916	545.095	0.028	0.068
-517.902	44.233	0.176	-0.161
-516.887	174.342	0.222	0.320
-515.872	93.078	-0.035	0.039
-514.858	800.000	-0.034	0.142
-513.843	-70.814	0.308	0.116
-512.829	-83.943	-0.265	-0.084
-511.814	-86.909	0.363	0.110
-510.799	-130.169	0.183	-0.025
-509.785	-200.000	-0.002	0.022
-508.770	-184.451	0.226	-0.004
-507.756	800.000	-0.070	-0.263
-506.741	-8.867	-0.140	-0.093
-505.726	-149.951	-0.271	0.021
-504.712	-200.000	-0.033	-0.257
-503.697	-189.032	0.357	0.004
-502.683	-8.989	-0.091	0.061
-501.668	-200.000	0.026	-0.176
-500.653	77.633	-0.080	0.085
-499.639	-44.596	0.075	-0.037
-498.624	800.000	0.070	-0.221
-497.610	-151.222	-0.155	0.012
-496.595	46.839	-0.195	0.181
-495.581	-8.462	0.216	-0.145
-494.566	-115.806	-0.494	-0.092
-493.551	698.435	0.068	-0.178
-492.537	441.157	0.119	0.260
-491.522	51.933	-0.018	0.017
-490.508	800.000	0.072	-0.258
-489.493	-200.000	0.047	0.421
-488.478	-200.000	-0.015	0.177
-487.464	752.975	0.117	0.313
-486.449	-200.000	0.030	0.161
-485.435	-124.146	-0.229	0.036
-484.420	143.774	-0.169	-0.225
-483.405	265.145	0.081	0.141
-482.391	-151.121	0.069	-0.005
-481.376	-94.007	-0.279	-0.076
-480.362	-117.032	-0.008	0.002
-479.347	-115.305	0.326	-0.061
-478.332	-200.000	-0.005	0.393
-477.318	-200.000	-0.045	-0.317
-476.303	-200.000	0.024	-0.208
-475.289	800.000	-0.009	0.038
-474.274	-165.744	0.379	-0.016
-473.259	-36.678	0.128	0.069
-472.245	-200.000	-0.022	-0.170
-471.230	-200.000	-0.001	-0.031
-470.216	293.615	-0.072	-0.131
-469.201	104.898	-0.089	0.104
-468.186	-200.000	-0.066	0.308
-467.172	-61.181	0.090	-0.038
-466.157	-109.263	-0.118	-0.025
-465.143	-200.000	0.020	0.369
-464.128	-135.231	-0.128	-0.015
-463.113	800.000	-0.119	0.460
-462.099	800.000	0.117	0.474
-461.084	-91.936	0.406	-0.114
-460.070	124.686	-0.047	-0.058
-459.055	68.649	-0.170	-0.173
-458.040	-124.696	-0.228	0.035
-457.026	-113.477	-0.383	0.075
-456.011	-200.000	0.040	-0.281
-454.997	-12.090	0.107	0.070
-453.982	800.000	-0.059	0.214
-452.968	-200.000	-0.066	0.308
-451.953	-83.528	0.372	-0.118
-450.938	85.318	-0.161	0.175
-449.924	-76.558	-0.102	-0.036
-448.909	147.870	0.079	-0.106
-447.895	-77.524	0.179	0.062
-446.880	39.970	-0.287	-0.256
-445.865	133.058	0.212	-0.272
-444.851	-40.068	0.131	-0.068
-443.836	213.236	-0.110	-0.172
-442.822	-200.000	-0.006	-0.197
-441.807	-74.386	-0.165	0.059
-440.792	-200.000	0.029	-0.249
-439.778	202.419	-0.099	0.151
-438.763	21.882	-0.147	-0.119
-437.749	-43.705	-0.315	-0.158
-436.734	118.390	0.111	-0.136
-435.719	-200.000	0.082	-0.531
-434.705	-200.000	0.067	-0.430
-433.690	45.111	-0.087	0.079
-432.676	-200.000	-0.020	0.458
-431.661	-55.926	0.194	0.086
-430.646	428.895	0.096	-0.206
-429.632	-200.000	0.032	-0.255
-428.617	48.811	-0.354	0.330
-427.603	-126.796	-0.233	-0.034
-426.588	-65.744	-0.147	-0.058
-425.573	-88.157	0.127	-0.038
-424.559	-142.082	0.120	0.012
-423.544	80.274	0.105	-0.112
-422.530	-200.000	0.006	-0.079
-421.515	-200.000	0.000	0.101
-420.500	315.004	0.071	0.133
-419.486	-98.435	-0.191	-0.048
-418.471	-200.000	-0.005	-0.145
-417.457	-89.638	0.238	0.069
-416.442	-200.000	0.006	0.074
-415.428	-80.971	-0.382	-0.126
-414.413	2.645	0.077	-0.055
-413.398	-123.187	0.282	-0.045
-412.384	-200.000	-0.007	-0.085
-411.369	-60.523	-0.318	-0.134
-410.355	17.412	-0.100	0.079
-409.340	-200.000	-0.003	-0.178
-408.325	-132.988	0.315	-0.040
-407.311	69.548	-0.336	0.344
-406.296	-64.445	0.311	0.125
-405.282	-81.424	-0.111	0.036
-404.267	269.771	0.072	0.125
-403.252	-200.000	0.168	0.000
-402.238	-75.639	-0.169	-0.060
-401.223	7.579	0.061	-0.045
-400.209	-93.991	-0.427	0.116
-399.194	6.310	0.205	-0.151
-398.179	28.627	0.136	-0.114
-397.165	95.261	0.361	-0.408
-396.150	800.000	0.065	0.283
-395.136	349.601	0.046	-0.090
-394.121	-62.861	-0.081	-0.033
-393.106	-200.000	-0.009	-0.268
-392.092	33.247	0.237	-0.204
-391.077	-3.718	-0.144	-0.099
-390.063	239.812	0.126	-0.208
-389.048	475.849	0.093	0.209
-388.033	415.143	0.062	-0.130
-387.019	-151.794	-0.549	0.040
-386.004	623.620	-0.088	0.219
-384.990	-200.000	0.015	-0.280
-383.975	-200.000	0.044	0.236
-382.960	24.284	-0.113	-0.093
-381.946	-124.807	-0.479	-0.073
-380.931	-107.686	0.219	0.047
-379.917	3.846	-0.262	0.190
-378.902	-45.822	0.407	0.199
-377.888	-200.000	-0.016	-0.097
-376.873	158.368	-0.140	-0.192
-375.858	-164.573	-0.294	-0.013
-374.844	70.090	-0.233	-0.238
-373.829	110.122	0.089	0.106
-372.815	-69.604	0.258	0.098
-371.800	-200.000	-0.011	-0.297
-370.785	51.858	0.245	0.231
-369.771	1.442	-0.170	0.121
-368.756	264.815	0.089	0.154
-367.742	201.916	0.044	-0.067
-366.727	256.856	-0.171	0.291
-365.712	504.922	-0.016	-0.038
-364.698	-25.840	-0.204	0.119
-363.683	-200.000	0.042	0.374
-362.669	-200.000	-0.003	0.082
-361.654	161.781	0.271	0.376
-360.639	-42.438	0.485	-0.245
-359.625	267.552	0.185	-0.320
-358.610	-200.000	-0.030	-0.134
-357.596	-33.433	0.121	-0.066
-356.581	311.256	0.130	-0.241
-355.566	800.000	-0.055	0.160
-354.552	-51.163	0.311	-0.144
-353.537	-200.000	0.003	-0.248
-352.523	324.184	-0.199	0.376
-351.508	528.662	-0.030	0.069
-350.493	29.880	0.089	0.075
-349.479	7.335	0.234	-0.173
-348.464	444.307	0.163	-0.354
-347.450	-200.000	0.009	0.350
-346.435	-17.686	-0.054	0.033
-345.420	-200.000	-0.028	0.369
-344.406	114.266	-0.105	0.127
-343.391	-73.465	0.153	-0.055
-342.377	5.862	0.284	-0.208
-341.362	148.384	-0.320	-0.427
-340.348	-152.754	-0.043	0.003
-339.333	29.852	0.181	0.153
-338.318	-78.224	-0.299	-0.102
-337.304	-179.093	0.449	-0.010
-336.289	12.368	0.295	0.225
-335.275	227.497	-0.191	-0.307
-334.260	-200.000	0.011	-0.102
-333.245	-102.086	-0.253	-0.060
-332.231	-200.000	0.004	-0.195
-331.216	276.712	-0.142	0.250
-330.202	-111.526	0.161	0.032
-329.187	-200.000	0.041	-0.353
-328.172	-41.392	0.090	0.046
-327.158	202.693	-0.102	0.156
-326.143	-2.356	-0.394	-0.273
-325.129	544.798	0.099	-0.234
-324.114	7.329	-0.202	-0.149
-323.099	26.503	0.169	0.140
-322.085	434.269	0.098	-0.211
-321.070	-200.000	0.039	-0.188
-320.056	-114.989	-0.048	0.009
-319.041	485.842	0.127	-0.287
-318.026	-54.300	-0.075	0.034
-317.012	29.682	0.116	-0.097
-315.997	-36.795	0.082	-0.044
-314.983	86.805	-0.092	-0.101
-313.968	-55.291	0.225	0.100
-312.953	-142.513	0.143	0.014
-311.939	800.000	0.047	-0.178
-310.924	645.113	-0.153	0.387
-309.910	38.268	0.312	0.274
-308.895	-141.404	0.245	-0.024
-307.880	266.160	-0.076	0.132
-306.866	-6.377	-0.074	-0.050
-305.851	-200.000	0.042	0.309
-304.837	136.545	-0.134	-0.173
-303.822	-98.234	0.148	0.038
-302.807	638.842	0.069	0.173
-301.793	-200.000	0.003	-0.144
-300.778	-68.754	0.260	-0.099
-299.764	242.148	-0.173	0.286
-298.749	-44.191	0.290	0.144
-297.735	308.149	-0.118	0.217
-296.720	-59.372	0.121	-0.051
-295.705	126.425	0.090	-0.113
-294.691	-175.623	0.105	0.003
-293.676	348.335	0.100	0.194
-292.662	-200.000	-0.004	0.036
-291.647	793.120	0.051	-0.138
-290.632	800.000	0.059	0.236
-289.618	-200.000	0.006	0.160
-288.603	141.227	0.201	0.262
-287.589	-63.060	0.176	0.072
-286.574	-200.000	-0.047	-0.227
-285.559	26.302	0.323	-0.267
-284.545	-66.863	-0.287	0.112
-283.530	71.118	0.122	-0.125
-282.516	-84.812	0.134	-0.042
-281.501	265.493	0.115	-0.197
-280.486	-153.292	-0.132	-0.009
-279.472	447.257	-0.102	-0.221
-278.457	800.000	-0.076	-0.265
-277.443	126.882	0.198	0.248
-276.428	-33.324	0.187	0.102
-275.413	-200.000	0.004	0.255
-274.399	285.398	0.039	-0.070
-273.384	-128.453	0.290	0.041
-272.370	-200.000	0.080	0.426
-271.355	-85.097	-0.414	0.128
-270.340	-61.832	-0.161	-0.067
-269.326	80.951	-0.200	0.213
-268.311	-49.144	0.129	0.061
-267.297	-200.000	0.209	-0.001
-266.282	493.484	0.106	-0.241
-265.267	502.248	-0.033	0.075
-264.253	-53.133	-0.409	-0.185
-263.238	191.582	0.157	-0.233
-262.224	-58.602	-0.270	0.115
-261.209	39.525	0.134	-0.118
-260.195	-55.378	-0.227	0.101
-259.180	318.266	-0.095	-0.178
-258.165	-80.967	0.231	0.075
-257.151	-45.166	-0.337	-0.165
-256.136	-18.710	-0.162	0.099
-255.122	97.089	-0.164	-0.185
-254.107	5.273	-0.085	0.062
-253.092	-123.445	-0.051	0.008
-252.078	-7.696	-0.221	0.147
-251.063	176.402	-0.141	0.202
-250.049	-25.905	0.137	0.079
-249.034	66.632	0.221	-0.222
-248.019	-200.000	-0.031	0.352
-247.005	172.619	0.123	0.175
-245.990	22.265	-0.165	-0.133
-244.976	-86.093	-0.213	-0.065
-243.961	-103.884	0.094	-0.022
-242.946	-200.000	0.027	0.130
-241.932	800.000	0.095	-0.282
-240.917	-112.567	-0.316	0.062
-239.903	716.216	0.069	0.181
-238.888	767.539	0.052	0.140
-237.873	-35.729	0.089	0.047
-236.859	-200.000	0.048	-0.370
-235.844	377.343	0.114	-0.230
-234.830	-200.000	0.010	-0.255
-233.815	-200.000	0.021	-0.163
-232.800	617.622	0.092	-0.228
-231.786	102.937	0.159	-0.184
-230.771	-200.000	0.069	0.308
-229.757	19.622	0.058	-0.046
-228.742	-1.976	-0.155	-0.108
-227.727	192.957	0.039	-0.058
-226.713	-200.000	-0.066	0.310
-225.698	-52.625	0.204	0.093
-224.684	-20.013	0.211	0.128
-223.669	72.813	-0.107	0.110
-222.655	-200.000	0.015	-0.083
-221.640	334.585	0.154	-0.295
-220.625	-66.659	-0.199	0.078
-219.611	-22.262	-0.265	0.158
-218.596	415.922	-0.045	0.096
-217.582	-7.255	0.209	0.140
-216.567	-78.114	-0.215	0.073
-215.552	-200.000	0.036	0.238
-214.538	-3.008	-0.142	0.097
-213.523	-200.000	-0.023	0.259
-212.509	800.000	0.068	0.202
-211.494	800.000	-0.063	0.206
-210.479	-147.623	0.069	-0.006
-209.465	369.826	0.226	-0.451
-208.450	86.228	0.032	0.034
-207.436	-200.000	-0.064	0.404
-206.421	162.403	0.078	0.107
-205.406	800.000	-0.091	0.263
-204.392	-106.379	0.082	0.018
-203.377	85.869	0.075	0.082
-202.363	800.000	0.043	-0.178
-201.348	132.005	-0.146	-0.185
-200.333	553.090	-0.157	-0.372
-199.319	366.238	0.169	0.335
-198.304	31.686	-0.266	0.226
-197.290	154.736	-0.080	-0.109
-196.275	800.000	0.054	0.230
-195.260	-110.900	0.121	-0.024
-194.246	-114.537	-0.291	-0.055
-193.231	-16.338	0.214	-0.133
-192.217	198.151	-0.123	-0.185
-191.202	87.408	0.105	-0.114
-190.187	-66.433	0.295	-0.115
-189.173	800.000	-0.027	0.115
-188.158	-68.181	-0.228	-0.087
-187.144	33.613	0.043	-0.036
-186.129	-126.110	0.098	-0.014
-185.114	-9.960	-0.247	-0.162
-184.100	90.452	-0.143	0.158
-183.085	800.000	-0.046	0.164
-182.071	800.000	0.107	-0.405
-181.056	-165.078	0.162	0.007
-180.042	-26.118	-0.287	0.166
-179.027	51.450	0.206	-0.193
-178.012	706.186	0.018	-0.047
-176.998	-200.000	-0.034	-0.235
-175.983	57.464	0.298	-0.286
-174.969	412.487	0.117	0.244
-173.954	800.000	-0.072	-0.285
-172.939	-200.000	-0.027	-0.175
-171.925	-40.397	-0.121	0.062
-170.910	368.015	-0.026	-0.051
-169.896	292.131	0.017	0.031
-168.881	672.593	0.109	-0.278
-167.866	167.920	0.099	0.139
-166.852	108.356	-0.152	-0.178
-165.837	-200.000	0.017	-0.169
-164.823	72.978	-0.097	0.100
-163.808	-111.178	0.084	0.017
-162.793	-138.165	0.033	-0.004
-161.779	-88.357	0.203	-0.060
-160.764	-171.673	0.143	-0.005
-159.750	-52.802	-0.125	-0.057
-158.735	-200.000	0.045	-0.215
-157.720	800.000	0.060	0.236
-156.706	-28.341	-0.068	-0.038
-155.691	128.727	-0.183	0.229
-154.677	-147.409	-0.261	-0.022
-153.662	-153.513	0.324	-0.022
-152.647	800.000	-0.067	0.191
-151.633	-77.380	0.118	-0.040
-150.618	180.363	0.065	0.094
-149.604	-114.987	0.313	0.058
-148.589	-200.000	-0.014	0.357
-147.574	-200.000	0.037	0.210
-146.560	-14.726	-0.033	0.021
-145.545	789.316	-0.085	0.229
-144.531	91.067	0.267	0.294
-143.516	308.606	0.116	0.213
-142.502	-44.748	-0.108	0.053
-141.487	252.003	0.180	-0.300
-140.472	-145.853	-0.229	0.020
-139.458	53.666	0.148	-0.140
-138.443	-71.178	0.216	0.080
-137.429	-92.260	-0.095	-0.026
-136.414	-96.407	0.156	0.041
-135.399	338.930	-0.081	-0.154
-134.385	50.475	0.123	-0.114
-133.370	92.471	0.392	0.434
-132.356	145.876	0.201	-0.265
-131.341	58.919	0.074	-0.072
-130.326	-200.000	-0.014	0.177
-129.312	-161.041	0.475	-0.024
-128.297	-157.966	-0.502	0.029
-127.283	-200.000	0.027	0.190
-126.268	213.840	-0.169	0.262
-125.253	-70.066	-0.120	-0.045
-124.239	-21.355	0.395	0.237
-123.224	-200.000	0.027	-0.193
-122.210	432.066	0.049	-0.103
-121.195	1.229	-0.166	-0.117
-120.180	-200.000	-0.009	-0.339
-119.166	-73.626	-0.287	-0.103
-118.151	326.281	0.119	-0.223
-117.137	-200.000	-0.037	0.289
-116.122	-148.602	0.010	-0.001
-115.107	-200.000	0.033	-0.218
-114.093	800.000	0.028	-0.078
-113.078	209.476	0.334	0.513
-112.064	465.302	0.103	-0.227
-111.049	800.000	-0.014	0.053
-110.034	-90.854	0.153	-0.043
-109.020	-200.000	-0.027	0.122
-108.005	-47.959	0.319	0.151
-106.991	109.740	0.130	-0.153
-105.976	255.751	0.134	0.225
-104.962	379.709	-0.176	0.353
-103.947	473.874	0.177	0.392
-102.932	-136.730	-0.227	0.026
-101.918	800.000	0.026	-0.110
-100.903	61.973	0.172	-0.168
-99.889	351.818	-0.031	-0.061
-98.874	31.585	0.233	0.197
-97.859	800.000	-0.045	-0.146
-96.845	-25.658	-0.101	0.058
-95.830	-98.277	0.412	-0.104
-94.816	-200.000	0.074	-0.329
-93.801	-116.515	-0.219	0.040
-92.786	136.476	0.216	0.276
-91.772	-7.819	-0.149	-0.098
-90.757	401.861	0.076	-0.157
-89.743	-56.150	-0.087	-0.038
-88.728	-129.179	0.156	0.021
-87.713	-200.000	0.034	-0.210
-86.699	-200.000	0.017	0.089
-85.684	800.000	0.048	0.193
-84.670	14.307	-0.014	-0.011
-83.655	800.000	0.013	-0.040
-82.640	186.625	-0.232	0.338
-81.626	-106.375	0.139	-0.030
-80.611	800.000	0.012	-0.041
-79.597	205.292	-0.132	0.200
-78.582	-79.123	-0.048	-0.016
-77.567	800.000	-0.011	0.043
-76.553	318.874	-0.037	0.069
-75.538	-200.000	0.006	0.140
-74.524	-200.000	0.006	-0.337
-73.509	-134.363	0.258	0.031
-72.494	35.207	-0.257	0.221
-71.480	-99.495	-0.147	-0.036
-70.465	183.923	0.041	0.059
-69.451	-200.000	0.014	-0.167
-68.436	363.236	-0.114	0.224
-67.422	80.380	-0.111	0.117
-66.407	-114.050	-0.147	-0.028
-65.392	101.948	0.101	0.115
-64.378	87.001	-0.073	-0.079
-63.363	-119.040	0.425	-0.073
-62.349	-110.747	0.092	-0.018
-61.334	123.770	-0.962	-1.182
-60.319	34.007	0.227	0.194
-59.305	800.000	-0.304	-1.185
-58.290	263.321	0.806	1.371
-57.276	626.680	0.772	1.908
-56.261	-200.000	112.286	632.033
-55.246	465.746	1510.248	3308.553
-54.232	145.738	2687.963	3525.201
-53.217	98.173	2296.533	2587.710
-52.203	36.802	1906.521	1648.738
-51.188	30.803	1695.129	1420.278
-50.173	28.382	1652.336	1366.344
-49.159	49.140	1707.229	1569.525
-48.144	48.582	1721.775	1578.611
-47.130	30.330	1680.713	1404.396
-46.115	27.735	1665.810	1372.401
-45.100	27.554	1660.736	1366.809
-44.086	27.520	1657.889	1364.157
-43.071	27.491	1655.728	1362.106
-42.057	27.456	1653.101	1359.631
-41.042	27.476	1650.888	1357.906
-40.027	27.562	1648.677	1356.671
-39.013	27.522	1646.726	1354.716
-37.998	27.455	1645.753	1353.361
-36.984	27.515	1644.098	1352.395
-35.969	27.590	1642.615	1351.676
-34.954	27.651	1641.091	1350.823
-33.940	27.655	1638.894	1348.992
-32.925	27.594	1637.309	1347.179
-31.911	27.663	1635.157	1345.866
-30.896	27.604	1633.814	1344.269
-29.881	27.623	1631.893	1342.775
-28.867	27.560	1630.467	1341.086
-27.852	27.620	1629.029	1340.294
-26.838	27.507	1627.918	1338.492
-25.823	27.550	1626.397	1337.508
-24.809	27.695	1625.041	1337.399
-23.794	27.605	1623.775	1335.645
-22.779	27.758	1622.072	1335.314
-21.765	27.645	1620.570	1333.197
-20.750	27.626	1619.016	1331.728
-19.736	27.624	1618.143	1330.943
-18.721	27.745	1615.767	1329.819
-17.706	27.646	1614.832	1328.271
-16.692	27.644	1613.075	1326.760
-15.677	27.625	1612.366	1325.988
-14.663	27.682	1610.136	1324.515
-13.648	27.732	1608.977	1323.873
-12.633	27.675	1607.471	1322.169
-11.619	27.675	1605.975	1320.883
-10.604	27.739	1604.381	1319.986
-9.590	27.607	1603.049	1317.877
-8.575	27.592	1602.100	1316.942
-7.560	27.668	1600.676	1316.266
-6.546	27.750	1599.688	1315.991
-5.531	27.656	1598.894	1314.608
-4.517	27.650	1597.897	1313.695
-3.502	27.641	1596.614	1312.523
-2.487	27.678	1594.818	1311.263
-1.473	27.484	1583.681	1300.664
-0.458	25.164	1564.931	1268.826
0.556	20.398	1567.268	1241.551
1.571	18.466	1591.993	1246.984
2.586	18.217	1605.040	1255.262
3.600	17.634	1554.794	1211.719
4.615	14.933	1456.277	1116.827
5.629	12.177	1401.155	1056.731
6.644	11.655	1394.298	1048.117
7.659	11.622	1393.116	1046.926
8.673	11.607	1391.932	1045.846
9.688	11.666	1389.501	1044.303
10.702	11.532	1386.708	1041.260
11.717	12.767	1388.453	1050.351
12.731	15.823	1393.251	1073.414
13.746	17.697	1396.404	1087.715
14.761	17.685	1394.832	1086.315
15.775	16.693	1392.373	1077.991
16.790	15.643	1389.649	1069.113
17.804	14.902	1387.202	1062.431
18.819	14.331	1386.098	1057.864
19.834	14.071	1384.314	1054.763
20.848	13.789	1383.394	1052.175
21.863	13.696	1381.491	1050.047
22.877	13.423	1380.480	1047.462
23.892	13.387	1380.033	1046.801
24.907	13.316	1379.088	1045.543
25.921	13.501	1377.378	1045.320
26.936	13.382	1377.489	1044.560
27.950	13.439	1376.486	1044.070
28.965	13.476	1375.234	1043.261
29.980	13.676	1373.406	1043.037
30.994	13.638	1372.149	1041.755
32.009	13.732	1371.168	1041.507
33.023	13.670	1370.283	1040.355
34.038	13.514	1368.777	1038.136
35.053	13.523	1367.795	1037.362
36.067	13.552	1366.228	1036.260
37.082	13.599	1365.625	1036.006
38.096	13.636	1364.165	1035.035
39.111	13.553	1363.440	1033.879
40.126	13.626	1362.497	1033.528
41.140	13.448	1361.843	1031.831
42.155	13.339	1361.326	1030.669
43.169	13.362	1361.097	1030.548
44.184	13.285	1361.336	1030.155
45.199	13.273	1360.368	1029.260
46.213	13.421	1360.176	1029.939
47.228	13.564	1358.862	1029.743
48.242	13.472	1357.916	1028.364
49.257	13.471	1356.063	1026.862
50.271	13.471	1354.649	1025.704
51.286	13.525	1352.967	1024.675
52.301	13.488	1351.810	1023.477
53.315	13.530	1350.224	1022.445
54.330	13.461	1349.777	1021.588
55.344	13.443	1348.176	1020.175
56.359	13.497	1347.511	1019.917
57.374	13.389	1346.619	1018.489
58.388	13.374	1345.717	1017.624
59.403	13.284	1345.355	1016.703
60.417	13.290	1344.897	1016.303
61.432	13.316	1343.833	1015.568
62.447	13.301	1342.660	1014.503
63.461	13.215	1341.505	1013.010
64.476	13.216	1340.511	1012.178
65.490	13.227	1338.948	1010.978
66.505	13.268	1337.536	1010.074
67.520	13.295	1336.399	1009.290
68.534	13.289	1335.436	1008.436
69.549	13.337	1334.566	1007.979
70.563	13.315	1333.497	1006.950
71.578	13.154	1332.340	1005.010
72.593	13.248	1331.448	1004.818
73.607	13.059	1330.854	1003.130
74.622	13.182	1329.650	1002.884
75.636	13.126	1329.284	1002.180
76.651	13.155	1328.874	1001.956
77.666	13.111	1328.541	1001.352
78.680	13.260	1327.810	1001.615
79.695	13.187	1326.612	1000.181
80.709	13.297	1325.896	1000.218
81.724	13.244	1325.298	999.357
82.739	13.311	1324.001	998.693
83.753	13.350	1323.492	998.460
84.768	13.565	1321.762	998.359
85.782	13.630	1320.498	997.706
86.797	13.503	1319.467	996.080
87.812	13.436	1318.309	994.711
88.826	13.429	1317.474	993.953
89.841	13.518	1316.354	993.552
90.855	13.504	1315.171	992.489
91.870	13.471	1314.507	991.699
92.884	13.497	1313.789	991.229
93.899	13.568	1312.786	990.809
94.914	13.657	1312.053	990.698
95.928	13.611	1311.416	989.854
96.943	13.548	1310.078	988.382
97.957	13.591	1309.653	988.233
98.972	13.567	1308.493	987.124
99.987	13.543	1307.180	985.907
101.001	13.554	1306.080	985.052
102.016	13.452	1305.235	983.722
103.030	13.592	1304.089	983.601
104.045	13.606	1303.107	982.857
105.060	13.449	1302.037	981.033
106.074	13.441	1300.443	979.699
107.089	13.342	1299.113	978.022
108.103	13.294	1298.050	976.852
109.118	13.333	1296.657	975.950
110.133	13.348	1295.212	974.867
111.147	13.312	1294.327	973.900
112.162	13.361	1292.441	972.682
113.176	13.478	1291.507	972.582
114.191	13.391	1290.763	971.423
115.206	13.424	1289.417	970.521
116.220	13.370	1288.058	969.092
117.235	13.389	1287.110	968.405
118.249	13.370	1286.348	967.634
119.264	13.320	1285.133	966.344
120.279	13.331	1284.215	965.630
121.293	13.348	1282.699	964.509
122.308	13.351	1281.906	963.844
123.322	13.303	1281.292	963.013
124.337	13.263	1279.767	961.550
125.352	13.279	1278.930	960.931
126.366	13.273	1277.572	959.793
127.381	13.329	1276.523	959.244
128.395	13.371	1275.276	958.461
129.410	13.382	1274.580	957.918
130.424	13.292	1274.111	956.959
131.439	13.392	1272.702	956.400
132.454	13.454	1272.008	956.147
133.468	13.408	1271.239	955.223
134.483	13.402	1270.550	954.582
135.497	13.507	1269.174	954.069
136.512	13.446	1268.083	952.814
137.527	13.464	1266.457	951.614
138.541	13.475	1265.381	950.783
139.556	13.371	1264.013	949.072
140.570	13.496	1262.973	948.928
141.585	13.502	1261.933	948.097
142.600	13.509	1260.561	947.020
143.614	13.622	1259.812	947.018
144.629	13.562	1258.571	945.660
145.643	13.562	1257.705	944.929
146.658	13.588	1256.268	943.908
147.673	13.446	1255.223	942.232
148.687	13.427	1253.722	940.914
149.702	13.482	1252.305	940.082
150.716	13.466	1250.902	938.853
151.731	13.500	1250.199	938.437
152.746	13.481	1248.831	937.217
153.760	13.546	1247.702	936.655
154.775	13.700	1245.919	936.106
155.789	13.631	1245.328	935.188
156.804	13.700	1244.185	934.637
157.819	13.723	1242.785	933.631
158.833	13.843	1241.874	933.541
159.848	13.795	1241.146	932.642
160.862	13.755	1240.242	931.655
161.877	13.671	1238.967	930.141
162.892	13.662	1237.914	929.219
163.906	13.731	1236.888	928.751
164.921	13.673	1236.001	927.677
165.935	13.703	1234.882	926.928
166.950	13.640	1234.866	926.480
167.964	13.753	1233.610	926.085
168.979	13.786	1233.075	925.788
169.994	13.724	1232.499	924.926
171.008	13.725	1231.913	924.412
172.023	13.736	1231.088	923.773
173.037	13.746	1230.341	923.183
174.052	13.828	1229.245	922.733
175.067	13.787	1228.063	921.540
176.081	13.677	1227.481	920.408
177.096	13.745	1226.118	919.686
178.110	13.768	1225.119	918.980
179.125	13.845	1223.709	918.266
180.140	13.795	1222.896	917.301
181.154	13.923	1221.662	917.002
182.169	13.795	1220.695	915.489
183.183	13.842	1219.455	914.734
184.198	13.934	1218.126	914.161
185.213	13.905	1217.387	913.370
186.227	13.907	1216.356	912.523
187.242	14.014	1214.985	912.002
188.256	14.100	1213.832	911.528
189.271	14.058	1212.842	910.476
190.286	13.971	1211.807	909.143
191.300	13.845	1210.858	907.657
192.315	13.743	1210.494	906.749
193.329	13.764	1209.715	906.198
194.344	13.899	1209.060	906.365
195.359	13.891	1208.590	905.889
196.373	13.931	1208.051	905.625
197.388	14.060	1207.463	905.808
198.402	14.060	1207.416	905.691
199.417	14.191	1206.624	905.727
200.432	14.202	1206.056	905.283
201.446	14.295	1205.139	905.018
202.461	14.330	1203.710	904.057
203.475	14.189	1203.063	902.724
204.490	14.354	1201.463	902.337
205.504	14.130	1200.567	900.373
206.519	14.192	1199.239	899.634
207.534	14.142	1198.198	898.504
208.548	14.208	1197.107	897.960
209.563	14.089	1196.503	896.787
210.577	14.253	1195.461	896.813
211.592	14.246	1194.859	896.243
212.607	14.360	1193.820	895.997
213.621	14.332	1192.794	894.995
214.636	14.327	1192.090	894.362
215.650	14.284	1191.304	893.463
216.665	14.433	1189.939	893.157
217.680	14.561	1189.042	893.090
218.694	14.503	1188.379	892.202
219.709	14.481	1187.710	891.505
220.723	14.450	1187.109	890.809
221.738	14.514	1186.101	890.315
222.753	14.467	1185.243	889.343
223.767	14.477	1184.988	889.124
224.782	14.601	1184.186	889.106
225.796	14.505	1183.937	888.328
226.811	14.687	1182.726	888.309
227.826	14.614	1182.158	887.417
228.840	14.589	1181.521	886.729
229.855	14.496	1181.098	885.834
230.869	14.515	1179.892	884.957
231.884	14.498	1179.284	884.330
232.899	14.434	1178.437	883.278
233.913	14.460	1177.472	882.612
234.928	14.530	1176.837	882.429
235.942	14.450	1175.912	881.235
236.957	14.465	1175.036	880.581
237.972	14.450	1174.573	880.079
238.986	14.507	1173.664	879.618
240.001	14.593	1173.096	879.566
241.015	14.530	1172.246	878.524
242.030	14.571	1171.164	877.847
243.045	14.524	1170.734	877.199
244.059	14.596	1169.960	876.920
245.074	14.710	1169.158	876.839
246.088	14.671	1168.163	875.815
247.103	14.751	1167.439	875.613
248.117	14.853	1166.555	875.408
249.132	14.851	1165.945	874.860
250.147	14.929	1165.520	874.874
251.161	14.930	1164.817	874.272
252.176	15.048	1163.701	873.972
253.190	15.036	1163.555	873.723
254.205	15.170	1162.417	873.490
255.220	15.176	1162.261	873.325
256.234	15.201	1161.183	872.572
257.249	15.168	1160.582	871.872
258.263	15.070	1160.539	871.253
259.278	15.111	1159.331	870.478
260.293	15.133	1158.965	870.242
261.307	15.200	1158.421	870.104
262.322	15.239	1157.797	869.763
263.336	15.235	1156.468	868.668
264.351	15.088	1156.256	867.666
265.366	15.286	1155.276	867.879
266.380	15.210	1155.068	867.255
267.395	15.263	1153.923	866.592
268.409	15.311	1153.288	866.288
269.424	15.248	1152.353	865.181
270.439	15.157	1151.764	864.196
271.453	15.134	1151.184	863.565
272.468	15.337	1149.846	863.530
273.482	15.306	1149.461	863.003
274.497	15.306	1148.985	862.571
275.512	15.226	1148.375	861.624
276.526	15.218	1147.635	860.953
277.541	15.282	1147.031	860.752
278.555	15.260	1146.209	859.943
279.570	15.380	1145.287	859.792
280.585	15.429	1144.281	859.210
281.599	15.468	1143.531	858.771
282.614	15.342	1142.968	857.630
283.628	15.376	1141.720	856.791
284.643	15.343	1140.766	855.830
285.657	15.551	1139.523	855.883
286.672	15.414	1138.946	854.675
287.687	15.434	1137.573	853.669
288.701	15.517	1137.148	853.700
289.716	15.556	1136.239	853.141
290.730	15.480	1135.986	852.486
291.745	15.506	1135.215	851.963
292.760	15.534	1134.610	851.580
293.774	15.609	1133.991	851.417
294.789	15.693	1133.096	851.097
295.803	15.596	1133.133	850.556
296.818	15.619	1131.993	849.740
297.833	15.603	1131.153	848.958
298.847	15.568	1130.426	848.157
299.862	15.632	1129.512	847.720
300.876	15.732	1128.895	847.685
301.891	15.650	1128.651	847.015
302.906	15.828	1127.539	847.001
303.920	15.748	1127.220	846.287
304.935	15.864	1126.033	845.900
305.949	15.759	1126.170	845.399
306.964	16.056	1124.853	845.830
307.979	15.801	1124.045	843.869
308.993	15.811	1123.488	843.424
310.008	15.850	1123.032	843.205
311.022	15.948	1121.738	842.646
312.037	16.002	1121.089	842.355
313.052	15.841	1120.183	840.797
314.066	15.869	1119.210	840.133
315.081	15.726	1118.714	838.971
316.095	15.785	1117.812	838.513
317.110	15.778	1117.257	837.988
318.125	15.830	1116.040	837.259
319.139	15.917	1115.245	837.024
320.154	15.880	1115.135	836.683
321.168	15.818	1114.364	835.722
322.183	15.930	1113.387	835.470
323.197	15.934	1113.077	835.182
324.212	15.915	1112.643	834.688
325.227	15.828	1112.266	833.905
326.241	15.977	1111.307	833.848
327.256	15.940	1110.543	833.016
328.270	15.970	1109.579	832.369
329.285	15.869	1108.695	831.133
330.300	15.937	1107.578	830.559
331.314	15.982	1106.787	830.111
332.329	16.011	1105.296	829.065
333.343	16.097	1104.758	829.013
334.358	16.152	1103.613	828.347
335.373	16.100	1103.114	827.646
336.387	16.073	1102.663	827.098
337.402	16.163	1101.690	826.738
338.416	16.134	1101.088	826.069
339.431	16.242	1100.268	825.914
340.446	16.309	1099.381	825.501
341.460	16.301	1099.106	825.182
342.475	16.348	1098.460	824.855
343.489	16.379	1097.575	824.266
344.504	16.475	1096.522	823.873
345.519	16.354	1095.596	822.515
346.533	16.415	1095.095	822.359
347.548	16.541	1094.222	822.248
348.562	16.421	1093.575	821.102
349.577	16.423	1092.297	820.081
350.592	16.376	1091.760	819.375
351.606	16.355	1091.019	818.648
352.621	16.121	1090.987	817.415
353.635	16.292	1089.946	817.395
354.650	16.427	1088.753	817.080
355.665	16.326	1088.476	816.307
356.679	16.420	1087.977	816.317
357.694	16.388	1087.155	815.473
358.708	16.412	1086.720	815.190
359.723	16.435	1086.024	814.709
360.738	16.576	1085.226	814.715
361.752	16.570	1084.739	814.252
362.767	16.540	1084.372	813.758
363.781	16.508	1083.699	813.026
364.796	16.471	1083.214	812.414
365.810	16.632	1082.478	812.564
366.825	16.659	1082.086	812.324
367.840	16.813	1081.167	812.302
368.854	16.826	1080.523	811.810
369.869	16.778	1079.651	810.852
370.883	16.671	1079.075	809.837
371.898	16.675	1078.400	809.278
372.913	16.767	1077.459	808.938
373.927	16.719	1077.371	808.573
374.942	16.819	1077.028	808.720
375.956	16.803	1076.519	808.190
376.971	16.772	1075.758	807.400
377.986	16.768	1075.443	807.070
379.000	17.021	1074.431	807.444
380.015	16.907	1073.992	806.501
381.029	17.105	1073.183	806.763
382.044	16.957	1072.936	805.806
383.059	17.038	1072.075	805.471
384.073	17.123	1070.858	804.889
385.088	17.088	1070.074	804.060
386.102	16.847	1069.562	802.465
387.117	17.059	1068.158	802.341
388.132	16.870	1067.528	800.907
389.146	16.958	1066.668	800.605
390.161	16.933	1065.858	799.810
391.175	16.981	1065.406	799.625
392.190	17.132	1064.306	799.439
393.205	17.105	1063.524	798.653
394.219	17.025	1062.925	797.758
395.234	17.069	1062.250	797.387
396.248	17.099	1061.028	796.540
397.263	17.019	1060.388	795.613
398.278	17.079	1059.443	795.115
399.292	17.006	1058.956	794.335
400.307	17.062	1058.508	794.192
401.321	16.948	1057.617	792.924
402.336	17.068	1056.967	792.924
403.350	17.055	1055.855	791.959
404.365	17.092	1055.430	791.745
405.380	17.037	1054.886	791.011
406.394	17.141	1053.830	790.629
407.409	17.174	1053.541	790.497
408.423	17.232	1052.720	790.082
409.438	17.257	1052.103	789.666
410.453	17.353	1051.292	789.433
411.467	17.444	1050.254	789.004
412.482	17.346	1049.810	788.147
413.496	17.369	1049.114	787.663
414.511	17.599	1048.440	788.150
415.526	17.447	1048.188	787.185
416.540	17.451	1047.866	786.893
417.555	17.515	1047.399	786.770
418.569	17.559	1046.937	786.556
419.584	17.472	1046.012	785.390
420.599	17.407	1046.269	785.216
421.613	105.024	1325.358	1477.336
422.628	96.564	1365.969	1477.435
