DTS Sentinel unit serial number:	SN413079Multiplexer serial number:	ORYXHardware model number:	OX4-SRSoftware version number:	ORYX F/W v4.00 Oryx Data Collector v3.7.2.0data status	okinstallation	princeton_trtdifferential loss correction	single-endedforward channel	channel 2reverse channel	N/Adate	2019/09/13time	11:27:34forward acquisition time	60.00reverse acquisition time	0.00gamma	496.2192k internal	0.2320k external	0.2320temperature offset calibration	1.0193default loss term (dB/km)	0.3790temperature slope calibration	1.0000multiplexer offset coefficient	1.0000multiplexer slope coefficient	1.0000fibre end	0.00T internal ref (°C)	32.64T ext. ref 1 (°C)	4.35T ext. ref 2 (°C)	30.04length (m)	temperature (°C)	Stokes	anti-Stokes-747.200	-200.000	-0.041	-0.213
-746.185	800.000	-0.086	0.351
-745.171	-146.216	-0.095	0.008
-744.156	-200.000	-0.009	0.169
-743.142	-85.907	-0.388	0.122
-742.127	-200.000	-0.003	0.024
-741.112	-100.691	0.298	0.074
-740.098	800.000	-0.116	0.375
-739.083	-160.533	-0.233	0.013
-738.069	676.763	-0.084	0.221
-737.054	-200.000	-0.015	-0.331
-736.039	-115.951	0.220	0.041
-735.025	-62.729	0.378	0.158
-734.010	-18.310	-0.117	-0.074
-732.996	-117.912	-0.224	-0.041
-731.981	217.938	-0.120	-0.193
-730.966	447.902	0.096	0.214
-729.952	800.000	-0.047	0.189
-728.937	156.385	-0.054	-0.075
-727.923	696.954	0.029	-0.076
-726.908	-200.000	0.003	-0.108
-725.894	-200.000	-0.028	0.369
-724.879	-200.000	0.038	-0.299
-723.864	-200.000	-0.003	-0.360
-722.850	447.750	0.046	-0.102
-721.835	67.500	-0.139	-0.144
-720.821	-200.000	-0.048	-0.320
-719.806	563.724	0.095	0.232
-718.791	198.514	-0.138	-0.213
-717.777	20.086	-0.233	-0.190
-716.762	-200.000	-0.014	-0.350
-715.748	-57.896	-0.321	-0.142
-714.733	139.599	0.082	0.109
-713.718	-158.754	0.210	-0.012
-712.704	323.471	-0.123	0.237
-711.689	4.675	0.259	-0.192
-710.675	-200.000	-0.017	-0.131
-709.660	-29.364	0.170	0.098
-708.645	-3.697	0.148	0.104
-707.631	-110.981	0.044	0.009
-706.616	342.004	-0.054	0.106
-705.602	31.098	-0.352	0.305
-704.587	47.189	-0.213	-0.200
-703.572	-51.920	0.154	0.072
-702.558	-133.708	0.288	0.036
-701.543	22.448	-0.311	-0.257
-700.529	178.018	-0.053	0.079
-699.514	-114.138	0.183	0.036
-698.499	294.087	-0.115	-0.212
-697.485	800.000	0.040	0.177
-696.470	-20.241	-0.161	-0.100
-695.456	-70.000	0.085	0.033
-694.441	304.844	-0.124	0.232
-693.426	-4.387	-0.182	-0.127
-692.412	-144.823	-0.271	-0.025
-691.397	94.782	0.075	-0.086
-690.383	-200.000	-0.069	-0.353
-689.368	-200.000	-0.005	0.153
-688.354	-29.944	0.064	0.037
-687.339	87.709	0.067	-0.075
-686.324	-30.847	-0.076	0.043
-685.310	13.614	-0.126	-0.099
-684.295	60.131	0.294	-0.293
-683.281	14.095	-0.423	-0.332
-682.266	256.907	-0.065	-0.113
-681.251	-159.036	-0.278	0.016
-680.237	800.000	0.077	-0.265
-679.222	247.478	-0.113	-0.193
-678.208	800.000	-0.071	-0.208
-677.193	-11.135	0.094	-0.063
-676.178	-90.043	-0.210	-0.062
-675.164	-77.653	-0.334	0.116
-674.149	-152.190	-0.384	-0.028
-673.135	270.851	-0.198	0.351
-672.120	-200.000	0.006	-0.300
-671.105	-200.000	0.049	0.246
-670.091	800.000	0.065	-0.273
-669.076	243.451	0.069	-0.117
-668.062	90.600	-0.073	-0.083
-667.047	7.154	-0.094	-0.071
-666.032	800.000	0.049	0.207
-665.018	366.513	0.047	0.096
-664.003	800.000	0.065	0.191
-662.989	-24.558	-0.257	-0.154
-661.974	308.031	-0.076	0.143
-660.959	123.018	-0.039	0.049
-659.945	-120.725	-0.406	0.069
-658.930	389.419	0.033	0.069
-657.916	-200.000	0.049	-0.376
-656.901	-200.000	0.007	0.082
-655.886	-200.000	0.047	0.216
-654.872	253.845	-0.146	0.252
-653.857	-200.000	0.008	0.186
-652.843	192.011	-0.238	0.362
-651.828	100.050	-0.047	0.055
-650.814	-21.082	0.167	-0.103
-649.799	-140.808	-0.080	0.008
-648.784	517.714	0.107	0.252
-647.770	-200.000	-0.049	-0.394
-646.755	-48.836	0.111	-0.054
-645.741	789.587	-0.042	-0.117
-644.726	126.415	0.175	0.223
-643.711	-146.055	-0.463	0.041
-642.697	236.710	-0.199	-0.331
-641.682	-164.165	-0.205	-0.010
-640.668	29.490	0.125	-0.107
-639.653	198.124	-0.137	-0.210
-638.638	46.965	-0.187	-0.176
-637.624	800.000	0.057	-0.231
-636.609	225.072	0.058	0.094
-635.595	-86.227	-0.236	0.073
-634.580	121.194	0.046	-0.058
-633.565	-42.935	0.135	0.069
-632.551	57.176	0.113	0.111
-631.536	427.455	-0.152	0.330
-630.522	94.612	-0.024	0.027
-629.507	-98.856	0.156	0.040
-628.492	191.718	0.156	-0.237
-627.478	-200.000	0.072	0.364
-626.463	800.000	0.078	-0.273
-625.449	-200.000	-0.004	0.061
-624.434	448.917	-0.032	-0.071
-623.419	207.156	0.112	0.176
-622.405	800.000	-0.004	-0.016
-621.390	-200.000	-0.027	-0.167
-620.376	16.293	-0.329	-0.261
-619.361	-200.000	-0.010	0.062
-618.346	244.892	-0.119	0.202
-617.332	170.351	-0.120	-0.173
-616.317	511.353	-0.113	-0.265
-615.303	28.782	0.326	-0.278
-614.288	-11.121	-0.277	-0.184
-613.273	-63.859	0.051	0.021
-612.259	-20.318	-0.227	-0.141
-611.244	-103.893	0.323	0.076
-610.230	-119.551	0.125	0.022
-609.215	56.855	0.105	-0.103
-608.201	-88.424	0.084	0.025
-607.186	501.956	0.045	-0.104
-606.171	-200.000	0.048	-0.300
-605.157	24.422	-0.213	-0.177
-604.142	-86.307	0.102	-0.032
-603.128	800.000	-0.060	0.200
-602.113	-200.000	-0.052	0.312
-601.098	-200.000	-0.032	-0.164
-600.084	-153.062	-0.541	-0.038
-599.069	177.610	0.136	0.200
-598.055	-62.367	0.149	-0.062
-597.040	190.986	-0.102	-0.154
-596.025	-30.435	-0.186	0.106
-595.011	-106.734	-0.232	-0.052
-593.996	-40.021	0.076	-0.040
-592.982	-149.032	-0.131	-0.011
-591.967	566.499	0.053	0.129
-590.952	50.964	-0.267	-0.255
-589.938	-9.606	0.085	-0.057
-588.923	13.383	-0.258	0.201
-587.909	-109.171	0.055	0.012
-586.894	8.212	-0.121	0.092
-585.879	165.917	0.110	0.157
-584.865	800.000	-0.018	-0.060
-583.850	-200.000	0.005	-0.124
-582.836	3.284	0.405	-0.296
-581.821	-90.681	-0.125	-0.036
-580.806	-57.821	0.283	-0.124
-579.792	26.716	0.292	0.246
-578.777	242.532	-0.168	0.282
-577.763	-105.299	-0.126	0.029
-576.748	407.403	-0.046	-0.098
-575.733	-164.185	0.169	-0.008
-574.719	-200.000	0.002	-0.191
-573.704	309.678	0.164	0.308
-572.690	-200.000	0.031	0.309
-571.675	-103.050	0.336	-0.080
-570.661	-200.000	-0.016	0.182
-569.646	164.711	-0.068	-0.096
-568.631	93.433	0.278	0.316
-567.617	-54.210	-0.254	0.116
-566.602	-155.318	0.069	-0.004
-565.588	-200.000	-0.048	-0.253
-564.573	80.220	-0.095	-0.103
-563.558	200.379	0.075	0.115
-562.544	31.593	0.097	0.084
-561.529	-62.701	-0.211	-0.088
-560.515	800.000	0.090	0.337
-559.500	-200.000	0.019	-0.154
-558.485	304.410	0.041	0.077
-557.471	74.130	0.075	-0.079
-556.456	276.049	-0.112	-0.200
-555.442	800.000	-0.020	-0.074
-554.427	-36.541	-0.287	-0.155
-553.412	293.730	-0.084	-0.154
-552.398	-200.000	-0.039	-0.217
-551.383	206.056	-0.077	0.120
-550.369	231.172	0.020	0.032
-549.354	-69.523	-0.471	-0.181
-548.339	138.330	-0.113	0.148
-547.325	-135.429	-0.144	0.017
-546.310	147.045	-0.062	0.084
-545.296	800.000	0.052	0.178
-544.281	-200.000	-0.012	0.104
-543.266	-200.000	0.021	0.185
-542.252	26.473	-0.059	0.049
-541.237	33.304	0.058	-0.051
-540.223	-60.610	0.244	0.104
-539.208	134.644	-0.132	-0.172
-538.193	-124.896	-0.274	-0.042
-537.179	-57.503	0.128	0.056
-536.164	-21.894	0.174	0.106
-535.150	800.000	-0.033	0.099
-534.135	-200.000	-0.036	0.202
-533.121	396.261	-0.079	0.165
-532.106	800.000	0.044	-0.181
-531.091	-200.000	-0.020	0.160
-530.077	-108.434	0.129	0.028
-529.062	-126.564	0.120	-0.018
-528.048	197.437	0.131	-0.200
-527.033	-94.758	-0.204	0.055
-526.018	-83.944	0.045	-0.014
-525.004	800.000	0.115	0.346
-523.989	-11.328	0.193	-0.127
-522.975	-114.395	0.219	-0.042
-521.960	-156.156	-0.031	-0.002
-520.945	42.025	-0.231	-0.210
-519.931	125.592	-0.121	0.153
-518.916	-113.664	-0.359	-0.070
-517.902	143.365	0.085	-0.114
-516.887	17.668	0.415	-0.331
-515.872	79.378	0.236	-0.253
-514.858	-20.764	-0.361	-0.222
-513.843	-200.000	-0.024	0.161
-512.829	-36.858	-0.014	0.008
-511.814	204.085	0.209	0.324
-510.799	611.125	-0.099	-0.247
-509.785	667.814	-0.037	-0.097
-508.770	-200.000	0.121	-0.000
-507.756	627.006	-0.090	-0.228
-506.741	-80.600	0.123	-0.041
-505.726	30.162	-0.119	-0.102
-504.712	105.267	0.127	0.150
-503.697	-40.087	-0.044	0.023
-502.683	-25.261	-0.162	0.096
-501.668	611.123	0.020	0.051
-500.653	77.708	0.315	-0.336
-499.639	-116.024	-0.534	-0.100
-498.624	-52.744	0.199	0.092
-497.610	-9.645	-0.095	-0.063
-496.595	-55.002	-0.106	-0.048
-495.581	-200.000	-0.014	0.193
-494.566	136.258	-0.245	0.320
-493.551	-47.602	-0.181	0.088
-492.537	-200.000	-0.035	-0.176
-491.522	-200.000	-0.008	-0.045
-490.508	-92.747	0.495	0.139
-489.493	109.654	0.190	-0.228
-488.478	-200.000	0.031	-0.270
-487.464	576.304	0.029	0.070
-486.449	147.636	-0.143	0.193
-485.435	800.000	-0.021	-0.065
-484.420	347.229	-0.136	-0.268
-483.405	-200.000	-0.009	0.083
-482.391	800.000	0.115	0.335
-481.376	5.563	-0.171	-0.127
-480.362	497.728	-0.097	-0.223
-479.347	36.124	-0.117	-0.103
-478.332	291.545	-0.021	-0.039
-477.318	-200.000	0.048	-0.313
-476.303	-65.788	-0.088	-0.035
-475.289	-36.639	0.213	-0.115
-474.274	126.286	0.107	-0.135
-473.259	358.720	-0.021	0.042
-472.245	387.035	0.058	-0.119
-471.230	-81.867	0.127	0.042
-470.216	-60.274	0.216	-0.092
-469.201	-32.124	0.061	-0.034
-468.186	800.000	-0.061	-0.190
-467.172	800.000	-0.138	-0.404
-466.157	122.585	-0.134	0.167
-465.143	41.786	-0.026	0.024
-464.128	-200.000	-0.020	0.370
-463.113	-85.115	-0.151	0.047
-462.099	136.085	-0.124	0.162
-461.084	-119.907	-0.059	0.010
-460.070	-147.037	0.015	-0.001
-459.055	800.000	0.037	-0.152
-458.040	259.828	0.056	0.096
-457.026	800.000	-0.066	-0.242
-456.011	-42.961	-0.242	0.123
-454.997	109.570	-0.190	0.228
-453.982	-200.000	0.074	-0.632
-452.968	-104.308	-0.205	-0.048
-451.953	-200.000	0.016	0.077
-450.938	312.496	0.058	-0.108
-449.924	41.907	-0.227	0.206
-448.909	-106.064	-0.142	-0.032
-447.895	-46.380	0.125	-0.062
-446.880	-199.771	0.376	0.002
-445.865	466.351	0.079	0.176
-444.851	-71.140	0.114	-0.043
-443.836	47.751	0.134	0.125
-442.822	68.811	-0.076	0.078
-441.807	-200.000	0.019	-0.278
-440.792	-24.856	0.170	-0.101
-439.778	-39.232	-0.088	-0.046
-438.763	374.823	0.083	0.168
-437.749	546.203	-0.151	-0.362
-436.734	800.000	-0.072	-0.246
-435.719	800.000	0.048	-0.149
-434.705	-200.000	0.015	0.230
-433.690	-40.130	0.082	0.043
-432.676	-200.000	0.045	-0.273
-431.661	16.485	0.246	0.194
-430.646	191.090	-0.005	0.007
-429.632	354.760	-0.085	0.169
-428.617	-5.345	-0.553	0.379
-427.603	-92.075	0.144	0.041
-426.588	-104.953	0.250	-0.057
-425.573	61.852	-0.213	-0.212
-424.559	636.110	0.016	-0.042
-423.544	153.473	0.114	-0.156
-422.530	-97.978	-0.234	-0.060
-421.515	21.135	-0.255	-0.207
-420.500	-200.000	-0.056	0.386
-419.486	800.000	0.072	0.292
-418.471	-200.000	0.041	-0.275
-417.457	-117.827	0.154	0.028
-416.442	800.000	-0.042	0.128
-415.428	243.083	-0.093	-0.155
-414.413	-71.352	0.293	0.109
-413.398	-66.935	0.169	0.066
-412.384	-200.000	-0.023	-0.216
-411.369	-93.765	-0.261	0.072
-410.355	-132.652	-0.134	0.017
-409.340	-59.828	0.155	-0.066
-408.325	-108.226	-0.433	0.093
-407.311	-102.625	-0.170	-0.040
-406.296	-142.304	-0.126	0.012
-405.282	638.862	-0.056	0.142
-404.267	270.700	-0.022	-0.038
-403.252	46.446	0.268	0.248
-402.238	236.255	0.113	-0.186
-401.223	800.000	0.016	0.059
-400.209	-164.512	0.133	0.006
-399.194	64.182	-0.109	0.110
-398.179	-200.000	-0.021	-0.094
-397.165	-145.794	0.087	0.008
-396.150	-153.628	0.200	0.014
-395.136	800.000	0.061	0.241
-394.121	-152.356	-0.326	0.023
-393.106	-200.000	-0.006	0.195
-392.092	-148.707	0.316	0.026
-391.077	-46.490	-0.195	0.095
-390.063	-32.025	0.338	0.189
-389.048	69.193	-0.033	-0.033
-388.033	75.691	0.163	-0.171
-387.019	747.129	0.073	-0.196
-386.004	158.816	-0.140	0.194
-384.990	189.038	-0.172	-0.257
-383.975	-200.000	0.040	0.212
-382.960	-142.344	-0.146	-0.014
-381.946	179.532	-0.075	0.109
-380.931	-200.000	0.003	0.199
-379.917	-67.598	0.264	0.103
-378.902	-48.692	-0.222	-0.106
-377.888	800.000	-0.086	-0.272
-376.873	-51.132	-0.124	0.058
-375.858	-92.631	0.335	0.094
-374.844	-34.290	0.129	0.070
-373.829	20.674	0.048	-0.039
-372.815	-182.155	-0.247	0.005
-371.800	-200.000	-0.014	0.282
-370.785	134.514	0.291	0.376
-369.771	182.838	-0.144	-0.212
-368.756	208.033	-0.072	-0.112
-367.742	16.691	-0.102	-0.080
-366.727	-51.818	0.152	-0.071
-365.712	-24.118	0.169	0.101
-364.698	800.000	0.004	0.015
-363.683	-82.342	0.318	-0.103
-362.669	-88.537	-0.109	0.033
-361.654	221.710	0.200	-0.320
-360.639	33.773	0.110	0.095
-359.625	-200.000	-0.014	-0.251
-358.610	-98.042	0.222	-0.057
-357.596	129.940	0.201	0.257
-356.581	-97.241	-0.130	0.034
-355.566	-82.388	0.082	-0.027
-354.552	-86.330	-0.056	0.017
-353.537	-200.000	-0.023	0.201
-352.523	-92.870	0.029	0.008
-351.508	-49.331	-0.194	0.092
-350.493	248.710	0.074	-0.124
-349.479	272.345	0.040	-0.069
-348.464	-93.344	0.018	-0.005
-347.450	800.000	-0.037	-0.135
-346.435	223.000	0.090	-0.145
-345.420	-133.507	0.675	-0.084
-344.406	99.166	0.208	0.240
-343.391	-200.000	-0.024	-0.259
-342.377	-165.242	0.374	-0.016
-341.362	800.000	0.046	0.151
-340.348	-58.513	-0.113	0.049
-339.333	-88.143	0.557	-0.166
-338.318	-18.524	-0.264	-0.164
-337.304	119.891	0.045	-0.056
-336.289	157.246	0.169	-0.233
-335.275	800.000	-0.046	0.172
-334.260	-73.644	-0.426	-0.154
-333.245	699.148	0.126	-0.331
-332.231	-32.757	-0.363	-0.201
-331.216	-34.573	0.354	0.193
-330.202	-108.181	-0.139	-0.030
-329.187	-115.127	-0.184	0.035
-328.172	197.579	-0.066	-0.100
-327.158	-54.573	-0.235	0.106
-326.143	-27.428	0.168	0.097
-325.129	218.763	0.132	0.210
-324.114	-200.000	-0.022	-0.244
-323.099	-200.000	0.005	0.233
-322.085	126.770	0.230	0.290
-321.070	12.215	-0.124	0.095
-320.056	-50.496	0.088	0.041
-319.041	51.830	0.091	0.086
-318.026	-7.119	-0.263	-0.177
-317.012	-45.022	-0.114	0.057
-315.997	-124.242	0.105	-0.016
-314.983	265.204	0.093	-0.161
-313.968	-121.224	0.268	-0.045
-312.953	99.694	-0.021	-0.024
-311.939	-95.868	-0.236	0.063
-310.924	25.404	-0.052	-0.043
-309.910	800.000	0.058	0.167
-308.895	-11.135	0.162	-0.106
-307.880	159.822	0.109	0.150
-306.866	-29.913	-0.298	0.169
-305.851	-17.233	0.292	0.183
-304.837	-29.122	-0.189	-0.108
-303.822	800.000	-0.060	-0.185
-302.807	59.952	-0.262	-0.258
-301.793	-200.000	-0.020	-0.154
-300.778	14.833	0.150	0.117
-299.764	70.190	0.217	0.223
-298.749	189.842	-0.268	-0.399
-297.735	200.518	-0.157	0.240
-296.720	2.590	0.107	-0.077
-295.705	0.437	0.187	0.133
-294.691	125.907	0.087	0.110
-293.676	312.579	-0.101	0.188
-292.662	-134.148	-0.062	-0.008
-291.647	-200.000	-0.005	-0.109
-290.632	-5.524	0.287	-0.196
-289.618	99.650	-0.182	0.209
-288.603	-17.282	-0.043	-0.027
-287.589	591.224	0.113	0.278
-286.574	800.000	-0.127	0.441
-285.559	-71.361	-0.181	0.068
-284.545	-62.968	-0.232	0.095
-283.530	-101.548	-0.331	0.080
-282.516	440.418	-0.193	-0.419
-281.501	11.582	0.060	-0.046
-280.486	276.494	0.167	-0.295
-279.472	83.387	-0.157	-0.170
-278.457	-114.694	-0.312	0.059
-277.443	-122.362	0.113	0.018
-276.428	272.257	0.231	0.405
-275.413	19.073	0.157	-0.125
-274.399	16.402	0.139	-0.109
-273.384	-131.248	0.147	-0.019
-272.370	-24.720	0.135	-0.080
-271.355	-51.379	-0.200	-0.093
-270.340	-163.606	-0.086	-0.004
-269.326	-66.844	-0.175	-0.069
-268.311	-129.178	-0.148	-0.020
-267.297	-13.413	-0.382	0.246
-266.282	60.483	0.194	0.191
-265.267	-106.564	-0.292	-0.064
-264.253	-200.000	0.023	-0.102
-263.238	-200.000	0.002	0.418
-262.224	-110.436	-0.073	0.015
-261.209	-190.477	0.397	-0.004
-260.195	265.857	-0.092	0.160
-259.180	-200.000	-0.054	0.271
-258.165	82.282	-0.145	-0.156
-257.151	295.974	0.191	-0.347
-256.136	-51.599	0.096	-0.045
-255.122	121.808	0.126	-0.155
-254.107	-68.805	-0.224	-0.086
-253.092	-128.283	0.139	0.020
-252.078	-86.323	-0.251	-0.077
-251.063	-200.000	-0.039	0.202
-250.049	689.992	-0.024	0.063
-249.034	149.484	-0.088	-0.118
-248.019	-22.848	-0.109	-0.065
-247.005	-200.000	-0.076	-0.348
-245.990	800.000	0.070	0.269
-244.976	-103.320	-0.204	0.048
-243.961	-200.000	-0.002	-0.025
-242.946	-200.000	0.045	-0.236
-241.932	-48.474	0.137	-0.066
-240.917	-200.000	0.008	-0.189
-239.903	-200.000	-0.001	0.277
-238.888	65.405	-0.047	0.047
-237.873	52.079	0.172	-0.163
-236.859	74.877	0.075	-0.078
-235.844	800.000	-0.029	-0.119
-234.830	-107.494	0.302	0.066
-233.815	49.696	-0.133	-0.124
-232.800	-46.044	-0.353	0.172
-231.786	83.844	-0.099	0.107
-230.771	100.694	0.169	-0.195
-229.757	93.457	0.056	0.063
-228.742	309.844	0.161	0.298
-227.727	-57.277	0.115	-0.050
-226.713	-1.878	0.246	0.171
-225.698	22.206	0.068	-0.055
-224.684	20.840	-0.194	-0.155
-223.669	-47.910	0.232	0.111
-222.655	113.958	0.108	0.130
-221.640	-145.633	-0.139	-0.012
-220.625	-200.000	0.048	-0.242
-219.611	-172.048	-0.314	0.010
-218.596	-13.888	-0.207	0.132
-217.582	52.593	-0.125	-0.118
-216.567	800.000	0.118	0.342
-215.552	333.146	-0.198	0.379
-214.538	-108.663	0.234	-0.050
-213.523	800.000	-0.076	0.226
-212.509	180.520	-0.115	0.167
-211.494	-109.659	0.119	-0.025
-210.479	-45.231	-0.115	-0.057
-209.465	-200.000	0.027	0.223
-208.450	295.408	0.068	-0.123
-207.436	-49.535	0.141	0.066
-206.421	-141.243	0.041	-0.004
-205.406	-9.579	-0.050	0.033
-204.392	20.644	0.141	-0.113
-203.377	18.575	0.178	0.141
-202.363	-139.555	0.107	0.011
-201.348	-200.000	-0.050	0.349
-200.333	-200.000	0.049	0.320
-199.319	123.477	0.132	0.164
-198.304	102.671	0.050	0.058
-197.290	-165.754	-0.205	-0.009
-196.275	-67.902	0.136	0.052
-195.260	-200.000	-0.017	0.266
-194.246	60.443	0.143	0.140
-193.231	-87.177	-0.169	-0.051
-192.217	-103.929	0.173	-0.040
-191.202	-200.000	-0.002	-0.104
-190.187	-200.000	0.061	0.309
-189.173	-32.563	0.330	-0.182
-188.158	800.000	0.025	0.079
-187.144	800.000	-0.025	-0.083
-186.129	133.296	-0.032	0.041
-185.114	-99.918	-0.158	0.039
-184.100	800.000	-0.078	-0.301
-183.085	-9.827	0.183	-0.121
-182.071	-68.092	0.380	0.147
-181.056	-64.132	0.398	0.161
-180.042	183.296	-0.079	-0.115
-179.027	-55.068	-0.312	-0.139
-178.012	800.000	0.047	0.141
-176.998	-144.070	0.202	-0.019
-175.983	-200.000	-0.038	-0.284
-174.969	-200.000	-0.020	-0.103
-173.954	-2.499	0.205	-0.142
-172.939	-103.875	-0.104	0.024
-171.925	8.988	-0.129	0.096
-170.910	800.000	0.015	0.050
-169.896	-200.000	-0.030	-0.197
-168.881	690.068	0.095	0.245
-167.866	2.091	0.260	0.186
-166.852	-128.270	0.139	-0.020
-165.837	62.287	-0.082	-0.081
-164.823	113.319	-0.211	0.254
-163.808	-200.000	-0.001	0.099
-162.793	135.420	-0.165	0.212
-161.779	-83.731	-0.176	-0.055
-160.764	-8.991	0.117	0.078
-159.750	176.526	0.199	-0.286
-158.735	282.124	0.106	-0.187
-157.720	122.470	-0.212	0.262
-156.706	-113.102	-0.244	0.048
-155.691	281.991	-0.073	-0.129
-154.677	-28.590	0.149	-0.085
-153.662	182.311	-0.072	0.105
-152.647	-11.536	0.080	0.052
-151.633	-200.000	0.044	0.203
-150.618	-58.886	0.199	-0.085
-149.604	34.718	0.187	-0.162
-148.589	-200.000	0.017	-0.152
-147.574	-38.347	-0.207	-0.109
-146.560	800.000	-0.023	0.098
-145.545	199.818	0.127	0.192
-144.531	800.000	0.126	-0.455
-143.516	-200.000	0.048	0.292
-142.502	-190.334	-0.135	0.001
-141.487	220.514	-0.049	-0.077
-140.472	-200.000	0.038	-0.186
-139.458	-61.096	0.154	0.064
-138.443	-98.508	-0.118	0.030
-137.429	247.850	0.049	-0.081
-136.414	24.233	0.179	-0.146
-135.399	-57.124	-0.058	0.025
-134.385	-85.594	0.214	-0.066
-133.370	800.000	-0.149	0.433
-132.356	-200.000	-0.524	-0.002
-131.341	-77.224	0.267	-0.092
-130.326	-14.489	-0.048	0.030
-129.312	24.472	0.038	0.031
-128.297	400.319	-0.055	-0.115
-127.283	-200.000	0.053	-0.261
-126.268	-126.347	0.040	0.006
-125.253	-70.955	0.021	-0.008
-124.239	46.931	-0.105	-0.096
-123.224	-200.000	0.024	0.214
-122.210	800.000	-0.042	-0.162
-121.195	108.428	0.162	-0.191
-120.180	-64.643	-0.123	-0.049
-119.166	-131.920	0.355	0.046
-118.151	152.146	-0.083	0.111
-117.137	-162.224	-0.165	-0.008
-116.122	-41.051	0.170	0.087
-115.107	526.051	-0.104	0.242
-114.093	-158.159	0.383	-0.022
-113.078	299.569	-0.073	0.133
-112.064	-197.533	0.126	-0.001
-111.049	-200.000	0.036	-0.185
-110.034	172.445	-0.072	-0.102
-109.020	203.531	0.132	-0.201
-108.005	800.000	-0.055	-0.163
-106.991	51.735	0.106	-0.099
-105.976	-37.188	-0.301	0.159
-104.962	-200.000	0.003	0.059
-103.947	800.000	-0.106	0.333
-102.932	29.746	0.469	0.394
-101.918	620.220	0.019	-0.046
-100.903	129.699	-0.161	-0.203
-99.889	-41.074	-0.328	-0.167
-98.874	-17.350	0.114	0.071
-97.859	26.456	0.172	-0.142
-96.845	-200.000	0.021	-0.108
-95.830	337.206	0.146	-0.280
-94.816	493.095	0.126	-0.285
-93.801	-75.909	0.088	0.031
-92.786	-15.588	-0.443	0.278
-91.772	-111.729	0.126	0.025
-90.757	-21.784	0.059	0.035
-89.743	327.781	0.080	-0.152
-88.728	-76.267	-0.131	-0.046
-87.713	-0.354	0.302	-0.211
-86.699	102.546	-0.232	0.268
-85.684	389.178	-0.155	-0.317
-84.670	-37.350	0.350	0.184
-83.655	214.805	0.128	0.199
-82.640	-13.739	0.141	0.090
-81.626	-171.996	0.084	-0.003
-80.611	800.000	0.110	0.415
-79.597	-200.000	0.009	0.270
-78.582	203.514	0.111	-0.169
-77.567	108.483	0.075	-0.088
-76.553	-20.142	0.163	0.099
-75.538	235.219	-0.106	-0.173
-74.524	-65.095	0.215	-0.085
-73.509	-42.954	-0.101	-0.051
-72.494	-117.079	-0.135	-0.024
-71.480	-88.778	-0.271	-0.079
-70.465	-112.428	0.045	0.009
-69.451	800.000	-0.048	0.140
-68.436	251.287	-0.085	0.142
-67.422	-200.000	-0.032	-0.152
-66.407	-162.378	0.410	0.020
-65.392	-200.000	-0.001	0.373
-64.378	-53.521	0.089	0.040
-63.363	800.000	0.035	0.098
-62.349	49.136	-0.117	0.108
-61.334	240.032	-0.614	-1.007
-60.319	-200.000	0.120	0.590
-59.305	800.000	-0.283	-1.103
-58.290	221.258	0.511	0.808
-57.276	800.000	0.531	1.670
-56.261	-200.000	97.113	592.603
-55.246	620.320	1425.296	3527.417
-54.232	184.708	2631.596	3839.480
-53.217	113.195	2313.208	2761.391
-52.203	42.214	1927.007	1722.776
-51.188	35.933	1715.137	1485.049
-50.173	33.152	1671.338	1426.132
-49.159	50.882	1717.794	1601.573
-48.144	52.917	1733.538	1631.703
-47.130	35.572	1693.887	1463.670
-46.115	32.795	1679.538	1430.191
-45.100	32.639	1674.878	1424.987
-44.086	32.525	1671.867	1421.513
-43.071	32.542	1668.892	1419.049
-42.057	32.487	1666.573	1416.607
-41.042	32.468	1664.869	1414.959
-40.027	32.530	1662.903	1413.704
-39.013	32.473	1661.199	1411.765
-37.998	32.443	1659.214	1409.801
-36.984	32.618	1657.840	1409.889
-35.969	32.604	1656.912	1408.937
-34.954	32.705	1654.469	1407.556
-33.940	32.672	1652.622	1405.687
-32.925	32.607	1651.250	1403.976
-31.911	32.570	1649.579	1402.230
-30.896	32.615	1647.507	1400.744
-29.881	32.621	1645.815	1399.294
-28.867	32.602	1644.537	1398.013
-27.852	32.586	1642.648	1396.229
-26.838	32.697	1641.452	1395.981
-25.823	32.686	1639.765	1394.409
-24.809	32.640	1638.588	1393.014
-23.794	32.708	1636.873	1392.002
-22.779	32.662	1635.310	1390.280
-21.765	32.583	1633.747	1388.316
-20.750	32.631	1631.803	1386.956
-19.736	32.613	1630.882	1385.988
-18.721	32.624	1629.307	1384.677
-17.706	32.738	1627.603	1384.009
-16.692	32.677	1626.189	1382.305
-15.677	32.633	1625.201	1381.084
-14.663	32.725	1623.717	1380.449
-13.648	32.712	1622.189	1378.994
-12.633	32.658	1620.734	1377.307
-11.619	32.648	1619.348	1376.005
-10.604	32.692	1617.579	1374.766
-9.590	32.752	1616.178	1373.957
-8.575	32.678	1615.172	1372.510
-7.560	32.758	1613.556	1371.665
-6.546	32.699	1612.183	1370.015
-5.531	32.707	1611.321	1369.287
-4.517	32.649	1610.476	1368.093
-3.502	32.649	1608.974	1366.759
-2.487	32.633	1608.071	1365.829
-1.473	32.621	1596.060	1355.481
-0.458	30.176	1577.116	1321.933
0.556	28.847	1576.843	1289.354
1.571	26.356	1601.869	1291.921
2.586	25.430	1614.308	1295.166
3.600	22.148	1559.246	1227.985
4.615	13.355	1447.500	1082.588
5.629	5.614	1382.855	985.583
6.644	4.319	1374.292	971.294
7.659	4.306	1373.021	970.224
8.673	4.319	1372.047	969.536
9.688	4.446	1370.348	969.041
10.702	4.344	1367.567	966.351
11.717	7.929	1374.622	993.660
12.731	16.679	1390.274	1059.897
13.746	22.099	1399.306	1100.748
14.761	22.440	1398.645	1102.262
15.775	21.749	1396.334	1096.022
16.790	20.794	1393.956	1088.094
17.804	20.105	1391.413	1081.718
18.819	19.686	1390.545	1078.330
19.834	19.603	1389.284	1076.739
20.848	19.401	1388.242	1074.577
21.863	19.191	1387.543	1072.638
22.877	19.152	1385.816	1070.961
23.892	19.109	1384.790	1069.811
24.907	18.964	1384.631	1068.693
25.921	19.105	1382.681	1067.964
26.936	19.065	1382.543	1067.516
27.950	19.088	1381.400	1066.684
28.965	19.185	1380.364	1066.388
29.980	19.325	1379.662	1066.615
30.994	19.364	1378.381	1065.773
32.009	19.357	1377.476	1064.939
33.023	19.398	1376.066	1064.004
34.038	19.441	1374.390	1062.883
35.053	19.332	1372.881	1060.950
36.067	19.181	1372.649	1059.746
37.082	19.301	1370.980	1059.099
38.096	19.396	1369.702	1058.605
39.111	19.377	1369.355	1058.123
40.126	19.254	1368.422	1056.556
41.140	18.911	1367.611	1053.734
42.155	18.776	1366.840	1052.218
43.169	18.741	1366.590	1051.720
44.184	18.746	1366.230	1051.383
45.199	18.823	1365.676	1051.335
46.213	19.020	1365.610	1052.395
47.228	19.152	1364.810	1052.490
48.242	19.170	1363.812	1051.739
49.257	19.103	1362.398	1050.146
50.271	19.200	1360.467	1049.158
51.286	19.211	1359.158	1048.119
52.301	19.177	1357.872	1046.826
53.315	18.925	1357.271	1044.744
54.330	18.913	1355.910	1043.530
55.344	18.888	1354.618	1042.288
56.359	18.895	1353.500	1041.378
57.374	18.828	1352.874	1040.402
58.388	18.770	1351.947	1039.246
59.403	18.646	1351.775	1038.269
60.417	18.702	1350.562	1037.587
61.432	18.598	1349.585	1036.114
62.447	18.624	1348.401	1035.274
63.461	18.512	1347.439	1033.765
64.476	18.585	1346.406	1033.322
65.490	18.530	1344.854	1031.711
66.505	18.579	1343.466	1030.846
67.520	18.574	1342.572	1030.041
68.534	18.678	1340.734	1029.159
69.549	18.487	1340.465	1027.719
70.563	18.404	1339.213	1026.170
71.578	18.385	1337.859	1024.932
72.593	18.261	1337.309	1023.673
73.607	18.328	1336.380	1023.276
74.622	18.375	1335.600	1022.864
75.636	18.329	1335.542	1022.456
76.651	18.415	1334.178	1021.838
77.666	18.420	1334.168	1021.768
78.680	18.542	1333.806	1022.127
79.695	18.600	1332.734	1021.561
80.709	18.779	1332.108	1022.054
81.724	18.744	1331.621	1021.382
82.739	18.868	1330.403	1021.094
83.753	19.113	1329.441	1021.722
84.768	19.238	1328.601	1021.726
85.782	19.430	1327.499	1021.929
86.797	19.358	1326.576	1020.700
87.812	19.107	1325.428	1018.239
88.826	19.215	1323.968	1017.667
89.841	19.271	1322.820	1017.025
90.855	19.276	1322.421	1016.659
91.870	19.400	1321.063	1016.256
92.884	19.387	1321.037	1016.070
93.899	19.380	1319.783	1014.971
94.914	19.497	1319.154	1015.088
95.928	19.491	1317.930	1014.023
96.943	19.427	1317.129	1012.940
97.957	19.353	1316.397	1011.854
98.972	19.264	1315.412	1010.484
99.987	19.328	1314.514	1010.078
101.001	19.313	1313.291	1008.961
102.016	19.359	1312.067	1008.201
103.030	19.388	1311.556	1007.888
104.045	19.401	1310.397	1006.986
105.060	19.087	1309.558	1004.421
106.074	18.869	1307.581	1001.544
107.089	18.641	1305.985	998.903
108.103	18.542	1304.708	997.265
109.118	18.653	1303.202	996.671
110.133	18.565	1302.198	995.301
111.147	18.688	1300.537	994.661
112.162	18.694	1299.488	993.802
113.176	18.780	1298.389	993.374
114.191	18.709	1298.011	992.585
115.206	18.839	1296.281	991.927
116.220	18.738	1295.185	990.413
117.235	18.812	1293.957	989.818
118.249	18.779	1292.912	988.739
119.264	18.685	1292.039	987.444
120.279	18.524	1290.655	985.375
121.293	18.519	1289.501	984.373
122.308	18.469	1288.589	983.307
123.322	18.490	1287.184	982.266
124.337	18.435	1286.121	981.053
125.352	18.336	1285.322	979.793
126.366	18.449	1284.272	979.552
127.381	18.387	1283.219	978.307
128.395	18.352	1282.109	977.174
129.410	18.542	1280.938	977.279
130.424	18.545	1280.677	977.006
131.439	18.633	1279.703	976.680
132.454	18.634	1279.257	976.256
133.468	18.819	1277.955	976.233
134.483	18.711	1277.454	975.150
135.497	18.763	1276.504	974.633
136.512	18.802	1274.881	973.526
137.527	18.798	1273.531	972.385
138.541	18.990	1272.216	972.381
139.556	19.026	1271.045	971.604
140.570	19.020	1270.251	970.880
141.585	19.109	1269.135	970.442
142.600	19.308	1267.839	970.484
143.614	19.260	1267.274	969.699
144.629	19.336	1266.426	969.388
145.643	19.294	1265.266	968.178
146.658	19.142	1263.455	965.858
147.673	18.954	1262.197	963.758
148.687	18.871	1261.046	962.323
149.702	18.702	1259.706	960.274
150.716	18.684	1258.185	958.928
151.731	18.796	1256.733	958.361
152.746	18.718	1256.166	957.408
153.760	18.935	1254.763	957.463
154.775	19.009	1253.587	956.895
155.789	19.029	1252.823	956.338
156.804	19.092	1251.949	955.932
157.819	19.160	1250.955	955.467
158.833	19.189	1250.006	954.818
159.848	19.450	1249.045	955.450
160.862	19.212	1248.712	953.790
161.877	19.021	1247.257	951.538
162.892	18.828	1245.524	949.066
163.906	18.823	1244.532	948.201
164.921	18.873	1243.629	947.700
165.935	18.931	1243.191	947.605
166.950	19.005	1242.529	947.426
167.964	19.013	1241.745	946.784
168.979	18.859	1241.228	945.460
169.994	19.010	1239.752	945.083
171.008	18.986	1238.971	944.273
172.023	19.003	1238.782	944.138
173.037	19.259	1238.010	944.868
174.052	19.335	1236.603	944.126
175.067	19.125	1235.212	941.835
176.081	18.936	1234.319	940.035
177.096	18.798	1233.610	938.659
178.110	18.834	1232.928	938.252
179.125	18.958	1231.043	937.412
180.140	19.021	1230.349	937.147
181.154	19.185	1229.301	937.155
182.169	19.128	1228.370	936.051
183.183	19.390	1227.421	936.672
184.198	19.420	1226.159	935.785
185.213	19.306	1224.907	934.132
186.227	19.410	1223.800	933.765
187.242	19.371	1223.489	933.234
188.256	19.429	1222.343	932.591
189.271	19.577	1221.872	932.952
190.286	19.378	1219.940	930.321
191.300	19.038	1218.569	927.360
192.315	18.785	1218.041	925.513
193.329	18.806	1217.373	925.039
194.344	18.999	1216.704	925.487
195.359	19.035	1216.601	925.518
196.373	19.069	1216.175	925.296
197.388	19.356	1215.861	926.515
198.402	19.567	1215.694	927.438
199.417	19.691	1215.541	927.906
200.432	19.815	1214.736	927.875
201.446	19.880	1213.691	927.347
202.461	20.002	1212.677	927.139
203.475	19.874	1211.776	925.683
204.490	19.719	1210.111	923.500
205.504	19.573	1208.876	921.701
206.519	19.427	1207.670	919.922
207.534	19.435	1206.470	918.966
208.548	19.323	1205.968	917.909
209.563	19.518	1204.540	917.775
210.577	19.530	1203.690	917.113
211.592	19.503	1203.322	916.605
212.607	19.559	1203.105	916.657
213.621	19.721	1201.697	916.362
214.636	19.554	1201.005	914.868
215.650	19.597	1200.183	914.390
216.665	19.770	1199.157	914.442
217.680	19.866	1198.576	914.427
218.694	19.943	1197.698	914.082
219.709	19.849	1196.588	912.654
220.723	19.799	1196.028	911.886
221.738	19.696	1195.445	910.816
222.753	19.754	1194.276	910.152
223.767	19.835	1193.638	910.012
224.782	20.008	1193.271	910.559
225.796	20.060	1192.820	910.407
226.811	20.055	1191.932	909.624
227.826	19.829	1190.812	907.506
228.840	19.792	1189.965	906.582
229.855	19.780	1189.159	905.827
230.869	19.802	1188.667	905.490
231.884	19.732	1187.724	904.322
232.899	19.572	1186.875	902.759
233.913	19.596	1186.336	902.394
234.928	19.506	1185.249	901.020
235.942	19.474	1184.686	900.342
236.957	19.488	1183.818	899.676
237.972	19.550	1183.079	899.360
238.986	19.647	1182.193	899.111
240.001	19.562	1181.658	898.184
241.015	19.584	1181.075	897.774
242.030	19.572	1180.569	897.249
243.045	19.820	1179.668	897.772
244.059	19.744	1178.890	896.706
245.074	19.851	1177.598	896.199
246.088	19.920	1177.219	896.184
247.103	20.034	1176.649	896.264
248.117	20.212	1175.701	896.383
249.132	20.277	1175.482	896.474
250.147	20.592	1174.400	897.192
251.161	20.750	1173.802	897.474
252.176	20.534	1173.975	896.411
253.190	20.651	1173.345	896.452
254.205	20.819	1172.271	896.419
255.220	20.758	1172.001	895.821
256.234	20.682	1171.471	894.942
257.249	20.730	1170.746	894.556
258.263	20.620	1170.385	893.634
259.278	20.624	1169.264	892.720
260.293	20.726	1168.443	892.537
261.307	20.764	1167.855	892.207
262.322	20.801	1167.845	892.309
263.336	20.852	1167.131	891.943
264.351	20.836	1166.002	890.920
265.366	20.954	1164.995	890.679
266.380	20.869	1164.637	889.890
267.395	20.753	1163.663	888.473
268.409	20.553	1163.154	886.989
269.424	20.682	1162.121	886.781
270.439	20.669	1162.148	886.656
271.453	20.654	1161.135	885.725
272.468	20.587	1159.567	884.112
273.482	20.509	1158.737	883.006
274.497	20.386	1158.658	882.239
275.512	20.530	1157.783	882.226
276.526	20.490	1157.383	881.641
277.541	20.558	1156.295	881.079
278.555	20.603	1155.559	880.666
279.570	20.739	1155.535	881.262
280.585	20.902	1154.643	881.325
281.599	20.881	1153.790	880.493
282.614	20.672	1152.110	878.077
283.628	20.631	1151.324	877.195
284.643	20.545	1150.505	876.059
285.657	20.676	1149.462	875.848
286.672	20.541	1148.967	874.713
287.687	20.745	1147.987	874.912
288.701	20.796	1146.489	873.954
289.716	20.776	1146.123	873.495
290.730	20.755	1145.648	872.953
291.745	20.858	1144.476	872.498
292.760	20.794	1144.003	871.740
293.774	20.964	1143.714	872.291
294.789	21.065	1142.999	872.176
295.803	21.006	1142.472	871.400
296.818	20.839	1141.719	869.915
297.833	20.745	1140.678	868.577
298.847	20.752	1139.920	867.958
299.862	20.870	1139.123	867.860
300.876	20.860	1138.568	867.311
301.891	20.936	1138.358	867.453
302.906	20.999	1137.805	867.270
303.920	21.075	1137.114	867.044
304.935	21.211	1136.427	867.119
305.949	21.316	1135.966	867.211
306.964	21.268	1135.211	866.320
307.979	21.164	1134.039	864.830
308.993	21.172	1133.751	864.577
310.008	21.224	1132.990	864.177
311.022	21.275	1132.162	863.720
312.037	21.296	1131.001	862.863
313.052	21.088	1129.962	860.965
314.066	21.062	1128.984	860.017
315.081	20.888	1127.517	857.967
316.095	20.887	1127.043	857.527
317.110	20.796	1126.440	856.542
318.125	20.797	1125.779	855.970
319.139	20.773	1125.179	855.318
320.154	20.844	1124.257	854.889
321.168	20.873	1123.766	854.582
322.183	20.909	1123.206	854.261
323.197	20.869	1122.695	853.600
324.212	20.936	1122.174	853.457
325.227	20.975	1121.706	853.217
326.241	21.108	1120.915	853.187
327.256	20.993	1119.920	851.795
328.270	20.942	1118.918	850.707
329.285	21.000	1117.712	849.999
330.300	21.027	1117.172	849.645
331.314	20.942	1116.204	848.417
332.329	20.854	1115.542	847.411
333.343	20.902	1114.460	846.747
334.358	21.200	1113.882	847.681
335.373	21.151	1113.400	847.001
336.387	21.142	1112.606	846.282
337.402	21.203	1111.811	845.895
338.416	21.325	1111.396	846.094
339.431	21.434	1110.541	845.899
340.446	21.639	1110.066	846.453
341.460	21.708	1109.294	846.121
342.475	21.821	1108.656	846.107
343.489	21.743	1107.683	844.912
344.504	21.814	1106.768	844.479
345.519	21.852	1106.285	844.221
346.533	21.858	1105.272	843.402
347.548	21.923	1104.683	843.189
348.562	21.953	1103.659	842.480
349.577	21.749	1102.804	840.769
350.592	21.533	1101.767	838.872
351.606	21.446	1100.842	837.675
352.621	21.347	1100.270	836.691
353.635	21.246	1099.567	835.601
354.650	21.320	1099.109	835.532
355.665	21.415	1098.297	835.294
356.679	21.488	1097.884	835.258
357.694	21.422	1097.431	834.522
358.708	21.528	1096.780	834.459
359.723	21.448	1096.310	833.647
360.738	21.510	1095.472	833.230
361.752	21.665	1094.744	833.342
362.767	21.600	1094.192	832.540
363.781	21.599	1093.693	832.082
364.796	21.878	1093.136	832.909
365.810	22.050	1092.606	833.245
366.825	22.059	1092.219	832.920
367.840	22.143	1091.895	832.996
368.854	22.200	1091.115	832.600
369.869	22.136	1090.195	831.521
370.883	22.157	1089.222	830.805
371.898	21.978	1088.307	829.186
372.913	22.136	1087.407	829.171
373.927	22.025	1087.766	828.848
374.942	22.108	1087.351	828.851
375.956	22.189	1086.466	828.486
376.971	22.132	1085.991	827.781
377.986	22.165	1085.623	827.583
379.000	22.239	1085.248	827.573
380.015	22.442	1084.382	827.794
381.029	22.417	1083.785	827.145
382.044	22.291	1083.454	826.231
383.059	22.422	1082.341	825.920
384.073	22.419	1081.221	824.978
385.088	22.217	1080.768	823.614
386.102	22.244	1080.017	823.095
387.117	22.194	1078.310	821.488
388.132	21.979	1077.490	819.789
389.146	21.972	1076.561	818.978
390.161	21.902	1076.186	818.289
391.175	22.047	1075.308	818.225
392.190	22.086	1074.828	817.971
393.205	22.328	1073.989	818.388
394.219	22.275	1073.307	817.549
395.234	22.159	1071.989	815.934
396.248	22.142	1071.022	815.046
397.263	22.069	1070.138	813.964
398.278	21.970	1069.246	812.754
399.292	21.885	1068.560	811.765
400.307	21.823	1067.856	810.874
401.321	21.897	1067.265	810.696
402.336	21.776	1066.628	809.582
403.350	21.918	1065.908	809.619
404.365	21.907	1065.404	809.112
405.380	22.072	1064.778	809.325
406.394	22.213	1063.868	809.214
407.409	22.351	1063.405	809.425
408.423	22.434	1062.848	809.308
409.438	22.472	1062.089	808.834
410.453	22.526	1061.799	808.787
411.467	22.687	1060.908	808.778
412.482	22.677	1060.584	808.412
413.496	22.777	1059.418	807.912
414.511	22.749	1059.213	807.555
415.526	22.974	1058.800	808.195
416.540	22.900	1058.339	807.437
417.555	22.807	1058.127	806.777
418.569	22.712	1057.533	805.818
419.584	22.736	1056.959	805.420
420.599	22.773	1056.172	804.920
421.613	155.019	1401.114	1792.178
422.628	142.435	1451.364	1792.276
