DTS Sentinel unit serial number:	SN413079Multiplexer serial number:	ORYXHardware model number:	OX4-SRSoftware version number:	ORYX F/W v4.00 Oryx Data Collector v3.7.2.0data status	okinstallation	princeton_trtdifferential loss correction	single-endedforward channel	channel 2reverse channel	N/Adate	2019/09/16time	10:51:35forward acquisition time	60.00reverse acquisition time	0.00gamma	496.2192k internal	0.2315k external	0.2315temperature offset calibration	0.9956default loss term (dB/km)	0.3790temperature slope calibration	1.0000multiplexer offset coefficient	1.0000multiplexer slope coefficient	1.0000fibre end	0.00T internal ref (°C)	36.41T ext. ref 1 (°C)	12.71T ext. ref 2 (°C)	34.33length (m)	temperature (°C)	Stokes	anti-Stokes-747.200	-70.888	0.172	0.066
-746.185	51.121	-0.473	-0.455
-745.171	480.302	-0.038	-0.088
-744.156	-200.000	0.062	0.366
-743.142	-80.232	0.330	-0.112
-742.127	249.658	-0.055	-0.095
-741.112	49.630	-0.122	0.116
-740.098	-200.000	0.070	0.392
-739.083	-200.000	0.002	-0.075
-738.069	-200.000	0.058	0.335
-737.054	125.891	0.030	-0.038
-736.039	-151.061	0.236	0.018
-735.025	15.817	0.176	0.140
-734.010	285.448	-0.029	0.052
-732.996	-127.782	-0.261	-0.038
-731.981	292.971	0.023	0.043
-730.966	-200.000	0.004	0.412
-729.952	800.000	0.120	0.339
-728.937	-200.000	0.053	0.355
-727.923	800.000	-0.130	-0.391
-726.908	15.340	0.268	-0.213
-725.894	395.214	0.132	0.279
-724.879	-200.000	0.005	-0.213
-723.864	-5.008	-0.186	-0.130
-722.850	-62.131	-0.182	-0.077
-721.835	117.653	-0.251	0.313
-720.821	800.000	-0.138	0.444
-719.806	16.348	-0.036	0.028
-718.791	308.328	0.049	0.092
-717.777	-20.379	-0.263	-0.164
-716.762	-130.772	0.327	0.044
-715.748	-127.579	0.091	0.013
-714.733	114.530	-0.074	0.091
-713.718	-14.960	0.254	0.165
-712.704	-147.163	0.292	0.025
-711.689	771.355	-0.103	-0.283
-710.675	-98.168	-0.045	-0.012
-709.660	800.000	-0.031	0.125
-708.645	582.599	0.062	-0.155
-707.631	-2.479	-0.241	0.171
-706.616	-128.887	0.201	-0.029
-705.602	12.179	-0.121	-0.094
-704.587	257.295	-0.072	0.125
-703.572	-144.548	0.139	0.013
-702.558	-146.360	-0.266	-0.024
-701.543	-75.560	-0.196	-0.071
-700.529	-78.325	-0.252	0.087
-699.514	-122.799	0.442	-0.072
-698.499	-200.000	0.021	-0.174
-697.485	-96.760	0.080	-0.021
-696.470	-54.220	-0.279	0.128
-695.456	571.399	-0.159	0.391
-694.441	-35.553	-0.133	0.073
-693.426	-164.654	0.340	-0.016
-692.412	-82.979	-0.216	0.071
-691.397	-200.000	-0.014	-0.228
-690.383	11.248	-0.043	-0.033
-689.368	-92.382	0.483	-0.138
-688.354	-90.729	0.460	-0.134
-687.339	800.000	-0.021	0.060
-686.324	-4.795	0.074	-0.051
-685.310	-110.825	-0.193	-0.040
-684.295	-2.245	-0.211	-0.150
-683.281	151.655	0.171	-0.236
-682.266	244.616	-0.069	-0.118
-681.251	16.030	0.108	0.086
-680.237	19.529	0.137	-0.111
-679.222	86.533	-0.079	0.088
-678.208	-200.000	-0.005	0.046
-677.193	36.324	0.100	0.089
-676.178	0.818	-0.192	-0.139
-675.164	800.000	-0.026	0.077
-674.149	-200.000	0.002	0.325
-673.135	-200.000	-0.057	0.270
-672.120	-125.353	0.148	-0.023
-671.105	-185.249	-0.535	0.008
-670.091	282.320	0.208	0.377
-669.076	318.328	0.047	0.091
-668.062	315.573	0.150	0.286
-667.047	717.906	0.174	0.467
-666.032	317.016	0.044	-0.084
-665.018	-200.000	-0.023	-0.134
-664.003	232.437	-0.064	-0.106
-662.989	-79.752	-0.158	-0.054
-661.974	-200.000	0.011	-0.143
-660.959	800.000	0.062	-0.212
-659.945	-8.078	-0.123	-0.084
-658.930	-88.133	0.110	0.033
-657.916	305.896	-0.034	0.064
-656.901	-146.776	-0.183	0.016
-655.886	213.910	-0.014	-0.022
-654.872	-145.274	0.225	0.021
-653.857	197.676	-0.086	0.132
-652.843	425.282	-0.056	-0.122
-651.828	800.000	0.052	-0.220
-650.814	-174.928	-0.277	-0.008
-649.799	34.727	-0.173	0.153
-648.784	761.800	0.041	0.113
-647.770	11.991	-0.221	0.171
-646.755	-200.000	0.001	0.217
-645.741	-83.754	-0.444	0.143
-644.726	-200.000	0.031	-0.599
-643.711	16.436	0.013	0.010
-642.697	616.506	0.058	-0.147
-641.682	-12.038	-0.269	-0.178
-640.668	-58.657	-0.163	-0.071
-639.653	160.193	-0.044	-0.062
-638.638	-83.660	-0.100	-0.032
-637.624	-200.000	0.011	-0.175
-636.609	-166.468	0.406	0.017
-635.595	-200.000	-0.020	0.153
-634.580	-81.914	0.115	0.038
-633.565	-115.895	-0.083	0.016
-632.551	78.271	-0.158	0.170
-631.536	-14.222	0.363	-0.236
-630.522	-97.885	-0.083	-0.021
-629.507	-23.369	0.227	0.137
-628.492	119.021	-0.049	0.061
-627.478	174.718	-0.146	-0.213
-626.463	342.319	-0.062	-0.123
-625.449	-113.700	-0.166	-0.033
-624.434	-47.821	-0.096	0.047
-623.419	-94.760	0.174	0.048
-622.405	0.716	0.177	-0.128
-621.390	-200.000	0.023	-0.106
-620.376	241.216	0.091	0.152
-619.361	210.755	-0.138	0.218
-618.346	55.417	0.170	-0.166
-617.332	-82.106	-0.112	-0.037
-616.317	58.693	-0.301	-0.298
-615.303	-117.861	-0.184	0.033
-614.288	130.615	0.073	-0.094
-613.273	208.197	-0.227	-0.357
-612.259	800.000	-0.050	0.158
-611.244	-42.382	0.166	0.086
-610.230	165.409	0.223	0.317
-609.215	53.083	-0.107	-0.103
-608.201	69.051	-0.283	-0.294
-607.186	-130.812	0.231	-0.031
-606.171	800.000	-0.061	-0.180
-605.157	-169.128	-0.079	0.003
-604.142	25.281	-0.310	0.260
-603.128	-200.000	0.034	-0.230
-602.113	-95.021	-0.435	-0.118
-601.098	800.000	-0.042	0.124
-600.084	496.195	0.121	0.281
-599.069	176.206	-0.155	-0.227
-598.055	-119.485	0.384	0.067
-597.040	99.943	-0.077	-0.090
-596.025	71.253	0.070	-0.073
-595.011	-139.168	0.353	-0.038
-593.996	149.964	0.165	0.225
-592.982	-36.607	-0.136	0.074
-591.967	-59.364	0.139	0.060
-590.952	-50.240	-0.116	0.055
-589.938	-85.717	-0.087	0.027
-588.923	197.101	-0.036	0.055
-587.909	800.000	-0.115	-0.320
-586.894	-19.350	0.177	0.111
-585.879	-4.479	0.032	-0.022
-584.865	-153.940	-0.173	-0.012
-583.850	-171.911	0.069	0.002
-582.836	-30.515	0.150	-0.086
-581.821	110.913	-0.055	0.066
-580.806	-200.000	0.026	0.164
-579.792	-103.195	-0.226	0.054
-578.777	800.000	0.051	-0.163
-577.763	800.000	-0.023	-0.099
-576.748	-200.000	-0.018	0.173
-575.733	-200.000	0.025	0.283
-574.719	-107.224	-0.090	-0.020
-573.704	800.000	0.013	-0.039
-572.690	310.040	0.098	0.185
-571.675	-200.000	-0.084	-0.387
-570.661	-92.541	0.263	0.074
-569.646	-47.462	0.146	-0.071
-568.631	23.981	-0.045	0.037
-567.617	56.256	-0.170	-0.166
-566.602	-129.871	0.093	0.013
-565.588	-19.912	0.167	-0.104
-564.573	-39.681	0.215	0.113
-563.558	-200.000	0.078	0.388
-562.544	78.100	-0.122	0.131
-561.529	-117.547	-0.578	0.105
-560.515	131.565	0.114	0.148
-559.500	-109.164	-0.396	-0.085
-558.485	156.574	-0.091	0.126
-557.471	-200.000	-0.020	-0.100
-556.456	151.059	-0.111	0.152
-555.442	-40.670	0.118	-0.061
-554.427	-200.000	0.015	0.195
-553.412	-128.711	0.131	-0.019
-552.398	-35.035	0.110	-0.060
-551.383	74.072	-0.425	-0.448
-550.369	114.243	-0.110	-0.135
-549.354	746.245	-0.087	0.236
-548.339	-200.000	0.011	-0.085
-547.325	-57.114	0.147	0.065
-546.310	21.959	0.268	0.220
-545.296	658.232	-0.119	0.308
-544.281	745.750	0.035	0.096
-543.266	800.000	0.135	-0.508
-542.252	800.000	0.022	0.094
-541.237	-200.000	-0.046	0.204
-540.223	615.355	0.199	-0.501
-539.208	69.088	0.117	-0.121
-538.193	-115.786	-0.470	0.088
-537.179	577.560	0.030	-0.075
-536.164	-11.410	0.100	-0.066
-535.150	299.857	0.032	-0.058
-534.135	207.635	-0.024	-0.038
-533.121	86.405	0.027	0.030
-532.106	-69.120	-0.373	0.144
-531.091	-37.955	0.169	0.090
-530.077	-49.723	0.253	0.121
-529.062	-200.000	-0.019	0.300
-528.048	329.874	-0.139	-0.270
-527.033	-95.318	0.248	-0.067
-526.018	173.814	0.044	-0.064
-525.004	-58.186	0.154	0.067
-523.989	-34.185	0.221	-0.122
-522.975	659.428	-0.115	-0.298
-521.960	-89.924	0.422	-0.124
-520.945	-43.732	-0.073	-0.037
-519.931	-57.739	0.182	0.080
-518.916	-49.475	0.125	0.060
-517.902	800.000	0.068	0.272
-516.887	-85.003	-0.223	-0.070
-515.872	775.662	-0.107	-0.295
-514.858	99.115	-0.038	-0.044
-513.843	-200.000	0.035	0.437
-512.829	163.773	0.103	0.146
-511.814	-16.926	-0.210	0.133
-510.799	79.760	-0.237	0.256
-509.785	-79.827	0.234	-0.079
-508.770	70.894	-0.068	-0.071
-507.756	-56.554	0.185	-0.082
-506.741	61.603	-0.158	0.158
-505.726	168.803	0.107	0.153
-504.712	606.824	0.108	-0.271
-503.697	800.000	0.055	0.224
-502.683	-30.205	-0.325	0.185
-501.668	-200.000	-0.009	0.111
-500.653	800.000	-0.100	-0.329
-499.639	-26.289	-0.227	0.134
-498.624	-109.972	0.246	0.052
-497.610	678.809	-0.099	0.258
-496.595	703.597	-0.050	-0.133
-495.581	-51.715	-0.098	0.046
-494.566	-68.610	-0.155	-0.060
-493.551	77.223	0.072	0.077
-492.537	132.709	0.056	0.073
-491.522	-104.590	0.123	0.028
-490.508	-200.000	-0.005	-0.121
-489.493	800.000	-0.033	-0.139
-488.478	506.140	0.096	-0.223
-487.464	800.000	-0.036	0.134
-486.449	180.097	-0.123	0.181
-485.435	-200.000	-0.001	0.145
-484.420	-84.486	0.440	0.139
-483.405	-177.245	-0.156	-0.004
-482.391	-200.000	0.016	0.309
-481.376	32.501	-0.095	0.083
-480.362	7.407	-0.135	0.101
-479.347	-125.630	0.413	-0.063
-478.332	-124.678	0.339	0.053
-477.318	420.148	0.043	0.092
-476.303	-200.000	-0.022	0.361
-475.289	800.000	0.047	0.135
-474.274	-5.267	-0.217	-0.149
-473.259	-200.000	-0.049	-0.283
-472.245	-95.728	-0.265	-0.071
-471.230	69.894	-0.152	-0.158
-470.216	-112.810	0.217	0.043
-469.201	85.221	-0.264	0.290
-468.186	58.029	0.192	-0.189
-467.172	-200.000	-0.006	0.048
-466.157	-42.343	0.411	0.210
-465.143	224.915	0.129	-0.209
-464.128	179.452	-0.078	0.115
-463.113	-29.471	0.097	0.055
-462.099	151.969	0.062	-0.085
-461.084	-131.147	-0.072	-0.010
-460.070	194.992	0.080	-0.121
-459.055	-0.006	0.135	-0.096
-458.040	800.000	0.057	0.171
-457.026	31.838	0.161	0.139
-456.011	97.902	-0.040	-0.046
-454.997	-200.000	-0.027	-0.148
-453.982	-140.345	0.024	-0.002
-452.968	-45.533	0.178	-0.088
-451.953	-132.273	0.052	0.007
-450.938	178.111	-0.206	0.300
-449.924	-48.762	-0.096	0.046
-448.909	325.635	-0.065	-0.124
-447.895	-200.000	-0.031	-0.145
-446.880	800.000	-0.028	-0.092
-445.865	-65.390	-0.302	-0.122
-444.851	219.952	0.164	0.263
-443.836	62.348	-0.085	0.085
-442.822	302.729	0.062	-0.115
-441.807	305.578	-0.204	0.380
-440.792	-200.000	-0.047	-0.307
-439.778	10.889	0.041	-0.031
-438.763	303.808	0.082	-0.152
-437.749	800.000	-0.137	-0.558
-436.734	16.600	0.163	-0.129
-435.719	355.512	0.120	-0.238
-434.705	-11.128	0.058	0.039
-433.690	12.449	0.079	-0.061
-432.676	185.010	0.080	-0.119
-431.661	-166.141	0.113	0.005
-430.646	-23.848	0.108	-0.065
-429.632	350.700	-0.091	0.180
-428.617	-58.951	0.255	0.110
-427.603	190.243	-0.028	-0.042
-426.588	66.344	-0.120	0.122
-425.573	-152.227	0.242	-0.017
-424.559	800.000	0.077	-0.324
-423.544	36.690	-0.218	-0.193
-422.530	300.637	-0.129	0.239
-421.515	-38.931	0.257	0.135
-420.500	628.591	0.087	-0.220
-419.486	-200.000	0.022	-0.366
-418.471	-5.995	-0.351	0.240
-417.457	-113.474	0.228	-0.045
-416.442	624.658	0.072	-0.182
-415.428	417.297	0.127	0.271
-414.413	174.510	0.101	-0.146
-413.398	7.814	-0.152	-0.114
-412.384	-59.825	-0.059	0.025
-411.369	245.902	0.175	-0.295
-410.355	-128.994	0.134	0.019
-409.340	-14.871	-0.233	0.150
-408.325	-63.757	-0.108	0.044
-407.311	474.327	0.174	0.392
-406.296	-49.740	-0.192	0.091
-405.282	-1.681	0.126	0.089
-404.267	-200.000	0.008	0.165
-403.252	-112.319	0.224	0.045
-402.238	11.513	0.158	-0.121
-401.223	800.000	-0.050	-0.143
-400.209	-200.000	-0.166	-0.001
-399.194	-130.903	-0.095	-0.013
-398.179	178.132	0.157	-0.229
-397.165	145.380	-0.314	0.421
-396.150	-51.575	-0.520	0.243
-395.136	74.027	-0.211	-0.221
-394.121	17.157	0.046	-0.037
-393.106	125.958	-0.239	-0.301
-392.092	78.748	0.184	-0.197
-391.077	800.000	0.119	-0.391
-390.063	-30.021	0.245	0.139
-389.048	347.095	0.094	0.185
-388.033	379.172	0.054	0.110
-387.019	-178.089	-0.146	0.003
-386.004	80.613	0.283	0.305
-384.990	-200.000	-0.014	-0.559
-383.975	-200.000	0.020	-0.475
-382.960	-122.551	0.137	-0.022
-381.946	-13.462	0.252	0.163
-380.931	-22.253	0.046	-0.028
-379.917	331.330	0.122	-0.236
-378.902	-75.334	-0.330	0.118
-377.888	800.000	-0.069	0.227
-376.873	-200.000	0.016	0.170
-375.858	-24.321	-0.221	-0.132
-374.844	-137.964	0.287	0.032
-373.829	-154.322	0.202	-0.014
-372.815	-68.769	0.190	0.073
-371.800	38.944	0.247	0.220
-370.785	-200.000	-0.003	-0.033
-369.771	252.860	-0.089	0.151
-368.756	121.593	0.093	0.115
-367.742	-142.126	0.098	-0.010
-366.727	800.000	0.043	-0.172
-365.712	122.142	-0.145	-0.181
-364.698	-166.971	-0.250	-0.010
-363.683	-200.000	0.003	0.139
-362.669	256.721	0.110	-0.189
-361.654	42.066	-0.179	-0.162
-360.639	9.663	0.126	-0.095
-359.625	33.170	-0.318	0.275
-358.610	-48.426	-0.068	0.033
-357.596	-125.064	-0.252	-0.039
-356.581	539.216	0.034	-0.082
-355.566	-200.000	-0.082	-0.395
-354.552	116.480	-0.212	0.259
-353.537	-200.000	0.039	0.218
-352.523	155.019	-0.260	0.357
-351.508	-48.563	-0.250	0.120
-350.493	274.447	0.126	-0.223
-349.479	2.348	0.242	-0.175
-348.464	800.000	0.099	-0.401
-347.450	102.920	-0.172	-0.201
-346.435	513.937	-0.048	0.111
-345.420	-56.821	-0.217	0.096
-344.406	612.331	0.073	-0.183
-343.391	-51.743	-0.533	-0.248
-342.377	-143.937	0.216	0.020
-341.362	56.567	-0.058	0.056
-340.348	211.157	-0.141	-0.221
-339.333	235.050	0.058	-0.096
-338.318	253.177	-0.086	-0.147
-337.304	42.768	-0.114	-0.103
-336.289	284.531	0.224	0.402
-335.275	-24.324	-0.181	-0.108
-334.260	387.072	0.069	0.143
-333.245	-153.447	-0.090	0.006
-332.231	800.000	0.125	0.410
-331.216	-78.449	0.366	0.125
-330.202	-200.000	-0.058	-0.298
-329.187	-96.471	0.304	-0.080
-328.172	-200.000	0.005	-0.118
-327.158	-31.392	-0.211	-0.118
-326.143	82.757	-0.157	0.170
-325.129	203.111	0.078	-0.120
-324.114	-148.681	0.372	-0.030
-323.099	146.471	0.202	0.271
-322.085	1.302	0.145	-0.104
-321.070	-13.204	0.368	-0.238
-320.056	7.071	-0.155	-0.115
-319.041	-200.000	0.010	-0.145
-318.026	27.380	0.270	0.226
-317.012	-157.549	-0.239	0.014
-315.997	800.000	0.062	-0.196
-314.983	-200.000	-0.010	0.205
-313.968	-200.000	0.053	-0.243
-312.953	299.412	-0.069	0.127
-311.939	-26.968	0.297	0.173
-310.924	-152.253	-0.275	-0.020
-309.910	84.305	0.145	0.158
-308.895	-181.077	-0.289	0.006
-307.880	487.149	-0.020	-0.044
-306.866	-163.111	-0.165	-0.008
-305.851	-86.145	0.107	-0.033
-304.837	42.787	-0.160	0.145
-303.822	-68.109	0.123	-0.048
-302.807	20.331	0.142	-0.114
-301.793	121.771	-0.128	-0.159
-300.778	9.913	-0.114	0.086
-299.764	78.554	-0.056	-0.060
-298.749	800.000	-0.094	0.306
-297.735	-200.000	0.077	-0.000
-296.720	-71.790	0.492	-0.182
-295.705	296.266	-0.033	0.060
-294.691	174.971	-0.276	-0.398
-293.676	-200.000	0.015	0.224
-292.662	-48.287	-0.242	-0.116
-291.647	22.522	-0.187	0.152
-290.632	607.382	-0.133	0.330
-289.618	-127.972	0.070	-0.010
-288.603	37.459	0.273	0.241
-287.589	-92.906	-0.221	-0.061
-286.574	-200.000	-0.001	0.026
-285.559	-10.683	0.359	0.237
-284.545	4.333	0.056	-0.041
-283.530	-31.151	-0.014	0.008
-282.516	-200.000	-0.024	0.153
-281.501	-93.819	0.444	-0.122
-280.486	800.000	-0.045	0.186
-279.472	-200.000	0.038	0.255
-278.457	-14.158	0.091	-0.058
-277.443	332.183	0.030	0.057
-276.428	-200.000	-0.007	0.031
-275.413	-139.085	0.120	-0.013
-274.399	-1.973	-0.241	0.168
-273.384	-200.000	-0.003	0.085
-272.370	74.677	0.186	0.195
-271.355	55.350	-0.133	-0.128
-270.340	267.845	0.187	-0.325
-269.326	67.433	0.057	0.057
-268.311	14.473	-0.292	0.227
-267.297	-43.370	-0.106	-0.053
-266.282	101.986	0.210	-0.244
-265.267	125.784	0.219	0.275
-264.253	-91.905	-0.017	0.005
-263.238	-149.376	-0.093	-0.007
-262.224	45.734	0.209	0.192
-261.209	-47.918	-0.315	0.152
-260.195	-75.704	0.154	0.054
-259.180	610.104	-0.109	-0.271
-258.165	-77.699	0.159	-0.055
-257.151	800.000	-0.078	0.308
-256.136	800.000	-0.104	0.442
-255.122	158.130	-0.139	-0.192
-254.107	763.767	-0.102	-0.276
-253.092	66.869	0.158	0.159
-252.078	-111.290	0.160	-0.033
-251.063	-200.000	0.044	0.480
-250.049	55.587	0.173	0.167
-249.034	192.938	-0.059	0.088
-248.019	800.000	-0.070	0.269
-247.005	-175.584	0.123	0.003
-245.990	204.149	0.135	0.208
-244.976	800.000	0.032	0.094
-243.961	800.000	0.059	0.238
-242.946	-82.085	0.315	0.102
-241.932	-200.000	0.010	-0.153
-240.917	145.311	-0.040	0.054
-239.903	-63.856	-0.424	-0.172
-238.888	800.000	-0.070	-0.191
-237.873	800.000	-0.028	-0.081
-236.859	67.906	-0.096	-0.097
-235.844	-200.000	-0.014	0.113
-234.830	-200.000	-0.014	0.202
-233.815	280.558	0.100	0.177
-232.800	81.574	-0.270	0.290
-231.786	800.000	-0.067	0.183
-230.771	32.073	-0.126	-0.108
-229.757	27.458	0.265	-0.221
-228.742	257.735	0.125	0.214
-227.727	-200.000	-0.182	0.000
-226.713	109.767	-0.123	0.147
-225.698	19.716	0.176	-0.140
-224.684	129.473	-0.040	0.051
-223.669	-146.076	0.117	-0.010
-222.655	3.625	0.149	0.108
-221.640	-102.087	0.174	-0.042
-220.625	-82.359	-0.120	0.039
-219.611	-200.000	-0.016	-0.369
-218.596	800.000	0.075	0.220
-217.582	179.632	0.159	0.231
-216.567	196.023	-0.111	0.167
-215.552	67.549	-0.086	-0.087
-214.538	553.065	0.046	-0.110
-213.523	238.250	-0.099	-0.162
-212.509	-144.295	-0.099	-0.009
-211.494	-200.000	-0.041	0.318
-210.479	800.000	0.029	-0.079
-209.465	31.152	-0.166	-0.141
-208.450	471.467	0.049	0.109
-207.436	-76.205	0.194	0.068
-206.421	85.376	0.215	-0.234
-205.406	272.324	0.008	0.014
-204.392	-172.381	0.173	-0.005
-203.377	800.000	-0.129	-0.390
-202.363	710.980	-0.024	-0.064
-201.348	166.300	0.132	0.186
-200.333	-200.000	0.021	-0.158
-199.319	-40.116	-0.320	0.165
-198.304	153.433	0.052	0.070
-197.290	800.000	0.115	-0.354
-196.275	-73.620	-0.234	-0.085
-195.260	91.662	0.065	0.072
-194.246	-200.000	0.021	-0.149
-193.231	-124.180	0.433	0.067
-192.217	-200.000	0.014	-0.076
-191.202	74.206	0.312	-0.325
-190.187	-92.003	-0.173	0.048
-189.173	-200.000	0.038	-0.185
-188.158	800.000	0.085	0.244
-187.144	-2.674	-0.336	0.233
-186.129	498.197	-0.104	-0.237
-185.114	-163.154	-0.337	-0.016
-184.100	-200.000	-0.017	0.095
-183.085	800.000	-0.066	0.211
-182.071	92.757	-0.070	0.078
-181.056	1.916	-0.159	-0.113
-180.042	59.901	-0.141	0.138
-179.027	48.980	-0.315	-0.293
-178.012	532.236	-0.136	-0.319
-176.998	-36.594	0.446	-0.238
-175.983	-73.859	-0.237	0.085
-174.969	800.000	-0.059	-0.184
-173.954	245.387	0.086	-0.144
-172.939	-19.425	-0.216	0.133
-171.925	-39.168	0.219	0.114
-170.910	188.268	-0.140	-0.207
-169.896	-200.000	-0.022	-0.151
-168.881	-191.963	0.152	0.001
-167.866	84.042	0.053	-0.057
-166.852	-24.997	0.100	0.059
-165.837	177.345	-0.128	-0.185
-164.823	-200.000	0.028	-0.397
-163.808	213.483	-0.169	-0.265
-162.793	121.024	0.174	0.215
-161.779	-200.000	0.024	-0.180
-160.764	-46.009	-0.139	-0.068
-159.750	20.175	-0.138	0.110
-158.735	800.000	0.092	-0.275
-157.720	-200.000	-0.066	0.383
-156.706	42.508	-0.083	0.075
-155.691	-74.173	-0.352	0.126
-154.677	103.896	-0.075	-0.088
-153.662	-119.109	0.113	0.020
-152.647	2.549	0.105	-0.076
-151.633	-163.168	0.146	-0.007
-150.618	257.063	0.006	-0.011
-149.604	-75.274	0.046	0.016
-148.589	91.332	0.044	0.049
-147.574	51.388	0.211	0.199
-146.560	-116.914	0.343	-0.062
-145.545	-46.683	0.519	-0.252
-144.531	-55.304	-0.167	0.074
-143.516	-200.000	0.006	0.027
-142.502	410.202	-0.138	0.290
-141.487	649.420	-0.031	0.078
-140.472	800.000	0.118	-0.337
-139.458	-69.532	0.340	0.129
-138.443	-129.738	0.351	-0.048
-137.429	181.970	-0.156	-0.227
-136.414	-13.550	0.057	0.037
-135.399	-120.363	0.087	0.015
-134.385	-66.175	0.377	0.149
-133.370	800.000	0.078	-0.220
-132.356	190.399	0.194	-0.289
-131.341	109.902	0.160	0.190
-130.326	-157.273	-0.342	0.020
-129.312	-23.471	0.114	0.068
-128.297	-25.342	0.039	0.023
-127.283	800.000	-0.122	0.360
-126.268	-50.284	0.081	-0.038
-125.253	-141.002	-0.260	-0.026
-124.239	166.994	0.034	0.048
-123.224	-145.102	-0.239	-0.021
-122.210	-19.673	-0.128	-0.078
-121.195	224.725	0.107	0.171
-120.180	-1.347	-0.176	0.123
-119.166	-112.060	-0.090	0.018
-118.151	243.595	0.074	0.123
-117.137	-166.149	-0.426	0.018
-116.122	-157.316	0.330	0.020
-115.107	68.794	0.217	0.221
-114.093	166.883	0.133	0.186
-113.078	-46.403	-0.164	-0.080
-112.064	777.937	0.094	0.254
-111.049	-11.712	-0.370	-0.240
-110.034	-200.000	0.024	-0.111
-109.020	-16.605	0.280	-0.175
-108.005	-48.582	0.165	0.078
-106.991	257.745	-0.010	-0.017
-105.976	-200.000	0.349	-0.001
-104.962	-200.000	-0.008	-0.079
-103.947	-51.271	0.151	-0.070
-102.932	17.508	-0.160	-0.125
-101.918	300.032	0.140	-0.255
-100.903	-119.125	0.353	-0.061
-99.889	-200.000	0.034	-0.523
-98.874	-47.733	0.224	-0.107
-97.859	-61.479	0.252	0.105
-96.845	-94.840	-0.179	-0.048
-95.830	-104.419	-0.327	0.075
-94.816	-200.000	0.038	0.181
-93.801	44.282	0.121	-0.110
-92.786	8.096	0.259	0.192
-91.772	800.000	0.034	-0.094
-90.757	644.273	-0.262	-0.661
-89.743	-200.000	0.079	0.399
-88.728	800.000	-0.052	0.151
-87.713	-200.000	-0.013	0.118
-86.699	-83.311	0.325	0.103
-85.684	-179.391	0.470	0.010
-84.670	-186.863	-0.295	0.004
-83.655	101.200	-0.137	0.157
-82.640	418.648	-0.061	0.128
-81.626	-102.624	-0.196	-0.046
-80.611	691.125	0.060	-0.154
-79.597	507.737	0.135	0.309
-78.582	800.000	-0.072	0.275
-77.567	-11.821	-0.053	-0.034
-76.553	-17.961	0.238	0.147
-75.538	-74.865	-0.141	-0.050
-74.524	-24.155	0.294	-0.173
-73.509	-115.439	-0.234	0.044
-72.494	-108.562	-0.071	-0.015
-71.480	186.901	0.242	0.356
-70.465	95.184	-0.158	0.177
-69.451	800.000	0.055	-0.160
-68.436	-70.334	-0.544	-0.204
-67.422	223.239	0.120	-0.190
-66.407	39.619	0.355	-0.314
-65.392	-104.662	0.190	-0.043
-64.378	44.495	-0.169	0.153
-63.363	-114.468	-0.274	-0.052
-62.349	-169.465	-0.246	-0.009
-61.334	73.941	-0.700	-0.724
-60.319	-72.916	0.276	0.100
-59.305	375.919	-0.418	-0.841
-58.290	433.449	0.603	1.292
-57.276	777.586	0.650	1.753
-56.261	-200.000	89.004	505.555
-55.246	441.856	1430.015	3087.219
-54.232	142.375	2652.707	3472.708
-53.217	104.263	2372.554	2752.994
-52.203	45.306	1974.633	1796.167
-51.188	39.462	1759.247	1554.240
-50.173	36.746	1714.373	1493.611
-49.159	51.969	1758.200	1650.989
-48.144	55.203	1776.559	1693.433
-47.130	39.401	1735.009	1532.111
-46.115	36.440	1719.695	1495.643
-45.100	36.293	1715.705	1490.975
-44.086	36.239	1712.524	1487.733
-43.071	36.299	1710.044	1485.986
-42.057	36.190	1708.329	1483.598
-41.042	36.305	1705.655	1482.097
-40.027	36.187	1704.411	1480.053
-39.013	36.231	1701.882	1478.139
-37.998	36.179	1700.576	1476.547
-36.984	36.268	1699.372	1476.122
-35.969	36.471	1697.196	1475.720
-34.954	36.479	1695.241	1474.027
-33.940	36.480	1693.134	1472.141
-32.925	36.426	1691.811	1470.523
-31.911	36.410	1690.349	1469.074
-30.896	36.357	1688.426	1466.939
-29.881	36.477	1686.465	1466.088
-28.867	36.374	1685.076	1464.044
-27.852	36.424	1683.690	1463.159
-26.838	36.411	1682.333	1461.824
-25.823	36.450	1680.441	1460.420
-24.809	36.401	1679.233	1458.941
-23.794	36.452	1677.843	1458.061
-22.779	36.422	1676.169	1456.318
-21.765	36.415	1674.315	1454.601
-20.750	36.398	1672.656	1452.968
-19.736	36.480	1671.614	1452.627
-18.721	36.461	1669.644	1450.712
-17.706	36.375	1668.652	1449.146
-16.692	36.390	1666.335	1447.187
-15.677	36.485	1664.996	1446.680
-14.663	36.403	1664.316	1445.422
-13.648	36.471	1662.643	1444.419
-12.633	36.446	1660.985	1442.731
-11.619	36.460	1659.645	1441.618
-10.604	36.445	1657.606	1439.675
-9.590	36.456	1656.624	1438.849
-8.575	36.446	1655.686	1437.900
-7.560	36.453	1654.235	1436.634
-6.546	36.364	1653.038	1434.876
-5.531	36.405	1651.770	1434.030
-4.517	36.381	1650.467	1432.657
-3.502	36.335	1650.162	1431.996
-2.487	36.465	1648.092	1431.110
-1.473	36.465	1637.570	1421.916
-0.458	34.343	1618.187	1389.571
0.556	28.957	1618.559	1358.494
1.571	26.657	1643.486	1362.018
2.586	25.760	1657.555	1366.752
3.600	23.711	1606.161	1309.170
4.615	18.581	1499.003	1186.331
5.629	13.691	1435.720	1103.675
6.644	12.760	1427.206	1090.872
7.659	12.749	1425.470	1089.377
8.673	12.726	1424.257	1088.197
9.688	12.605	1422.234	1085.758
10.702	12.495	1419.553	1082.889
11.717	14.830	1423.700	1101.362
12.731	19.143	1431.289	1135.647
13.746	19.726	1430.610	1138.849
14.761	17.746	1426.156	1122.190
15.775	16.451	1423.140	1111.209
16.790	15.518	1419.806	1102.384
17.804	14.561	1417.667	1094.353
18.819	14.074	1416.059	1089.821
19.834	13.812	1414.475	1086.790
20.848	13.499	1413.205	1083.670
21.863	13.323	1411.796	1081.344
22.877	13.070	1410.851	1078.872
23.892	13.053	1410.041	1078.043
24.907	13.050	1408.953	1077.099
25.921	13.057	1408.026	1076.341
26.936	13.162	1406.991	1076.136
27.950	13.124	1406.313	1075.277
28.965	13.116	1405.264	1074.324
29.980	13.230	1403.974	1073.987
30.994	13.354	1401.972	1073.165
32.009	13.382	1401.122	1072.599
33.023	13.285	1400.346	1071.281
34.038	13.284	1399.340	1070.410
35.053	13.230	1397.823	1068.805
36.067	13.248	1396.383	1067.726
37.082	13.266	1394.988	1066.682
38.096	13.301	1394.106	1066.142
39.111	13.272	1393.299	1065.239
40.126	13.304	1392.343	1064.621
41.140	13.120	1391.956	1063.046
42.155	13.073	1391.021	1061.938
43.169	13.028	1391.041	1061.571
44.184	13.079	1390.669	1061.521
45.199	13.129	1390.022	1061.250
46.213	13.075	1389.764	1060.617
47.228	13.126	1388.699	1060.032
48.242	13.217	1387.245	1059.415
49.257	13.198	1385.851	1058.134
50.271	13.220	1384.256	1056.965
51.286	13.182	1383.256	1055.864
52.301	13.188	1381.309	1054.324
53.315	13.147	1380.453	1053.312
54.330	13.047	1379.721	1052.027
55.344	12.941	1378.420	1050.263
56.359	13.079	1376.737	1049.770
57.374	13.032	1376.265	1049.016
58.388	13.007	1375.492	1048.175
59.403	12.972	1375.443	1047.824
60.417	12.963	1374.122	1046.670
61.432	12.932	1373.279	1045.735
62.447	12.903	1372.191	1044.630
63.461	12.872	1371.172	1043.565
64.476	12.879	1370.281	1042.839
65.490	12.856	1368.663	1041.372
66.505	12.849	1367.048	1040.005
67.520	12.941	1366.471	1040.055
68.534	12.978	1364.685	1038.840
69.549	12.996	1363.577	1038.013
70.563	12.979	1362.591	1037.065
71.578	12.811	1361.912	1035.404
72.593	12.799	1360.843	1034.423
73.607	12.878	1360.015	1034.196
74.622	12.775	1359.201	1032.842
75.636	12.831	1358.561	1032.612
76.651	12.905	1357.887	1032.475
77.666	12.795	1357.374	1031.304
78.680	12.840	1357.019	1031.226
79.695	12.873	1355.856	1030.458
80.709	12.866	1355.233	1029.845
81.724	12.963	1354.434	1029.753
82.739	13.148	1352.683	1029.484
83.753	13.043	1352.263	1028.420
84.768	13.026	1351.470	1027.622
85.782	13.156	1350.016	1027.230
86.797	13.253	1348.512	1026.599
87.812	13.149	1347.048	1024.751
88.826	13.112	1345.998	1023.633
89.841	13.109	1345.487	1023.134
90.855	13.198	1344.111	1022.548
91.870	13.247	1343.146	1022.025
92.884	13.135	1342.741	1020.935
93.899	13.264	1341.218	1020.485
94.914	13.230	1341.054	1020.056
95.928	13.298	1340.040	1019.617
96.943	13.218	1339.262	1018.441
97.957	13.186	1338.288	1017.411
98.972	13.158	1337.466	1016.524
99.987	13.228	1336.561	1016.179
101.001	13.215	1335.107	1014.902
102.016	13.215	1334.051	1014.010
103.030	13.157	1333.519	1013.157
104.045	13.184	1332.505	1012.466
105.060	13.175	1331.073	1011.231
106.074	13.077	1329.619	1009.440
107.089	12.989	1328.193	1007.727
108.103	12.987	1326.710	1006.503
109.118	12.934	1325.505	1005.175
110.133	13.002	1323.952	1004.324
111.147	12.967	1322.601	1002.999
112.162	13.023	1321.300	1002.262
113.176	13.039	1319.892	1001.206
114.191	13.097	1319.310	1001.026
115.206	13.064	1318.301	999.970
116.220	12.925	1317.073	998.107
117.235	13.048	1315.804	997.803
118.249	12.997	1315.094	996.869
119.264	13.054	1313.598	995.988
120.279	12.929	1313.014	994.703
121.293	13.024	1311.101	993.739
122.308	12.971	1310.186	992.642
123.322	12.907	1309.545	991.679
124.337	12.948	1307.993	990.663
125.352	12.927	1307.019	989.716
126.366	13.018	1305.411	988.953
127.381	13.008	1305.036	988.521
128.395	13.039	1303.849	987.724
129.410	12.912	1303.259	986.429
130.424	13.040	1302.367	986.428
131.439	13.034	1301.420	985.591
132.454	13.075	1300.440	985.008
133.468	13.099	1299.344	984.232
134.483	13.175	1298.324	983.821
135.497	13.034	1297.693	982.418
136.512	13.071	1296.344	981.533
137.527	13.137	1294.773	980.647
138.541	13.085	1293.513	979.297
139.556	13.097	1292.006	978.138
140.570	13.121	1291.287	977.652
141.585	13.267	1289.739	977.255
142.600	13.231	1288.740	976.199
143.614	13.297	1287.435	975.517
144.629	13.229	1286.624	974.413
145.643	13.155	1285.940	973.373
146.658	13.304	1283.727	972.486
147.673	13.162	1282.630	970.734
148.687	13.047	1281.770	969.326
149.702	13.096	1279.987	968.179
150.716	13.086	1278.303	966.758
151.731	13.171	1277.075	966.244
152.746	13.074	1276.213	964.939
153.760	13.046	1275.368	964.049
154.775	13.205	1273.755	963.676
155.789	13.177	1273.059	962.895
156.804	13.276	1271.805	962.438
157.819	13.261	1271.153	961.773
158.833	13.279	1270.194	961.071
159.848	13.298	1269.142	960.297
160.862	13.313	1268.108	959.517
161.877	13.280	1267.201	958.555
162.892	13.185	1265.744	956.817
163.906	13.258	1264.613	956.302
164.921	13.193	1263.940	955.334
165.935	13.355	1262.463	955.063
166.950	13.349	1262.131	954.695
167.964	13.348	1261.285	953.966
168.979	13.320	1260.547	953.163
169.994	13.338	1259.709	952.546
171.008	13.335	1259.182	952.049
172.023	13.284	1258.477	951.136
173.037	13.406	1257.821	951.257
174.052	13.500	1256.518	950.731
175.067	13.297	1255.385	948.622
176.081	13.208	1254.661	947.482
177.096	13.322	1253.753	947.367
178.110	13.410	1251.825	946.326
179.125	13.331	1251.105	945.250
180.140	13.361	1249.954	944.464
181.154	13.363	1249.097	943.744
182.169	13.426	1247.392	942.734
183.183	13.473	1246.022	941.880
184.198	13.496	1244.884	941.071
185.213	13.504	1243.870	940.267
186.227	13.587	1242.619	939.709
187.242	13.603	1241.493	938.866
188.256	13.568	1240.933	938.160
189.271	13.673	1239.971	937.943
190.286	13.587	1238.507	936.267
191.300	13.420	1237.803	934.708
192.315	13.258	1237.527	933.500
193.329	13.363	1236.497	933.234
194.344	13.328	1235.954	932.544
195.359	13.494	1235.574	933.108
196.373	13.522	1234.841	932.631
197.388	13.595	1234.423	932.643
198.402	13.628	1234.010	932.436
199.417	13.840	1232.940	932.734
200.432	13.805	1232.177	931.882
201.446	13.747	1231.851	931.227
202.461	13.901	1230.180	930.745
203.475	13.883	1229.485	930.037
204.490	13.758	1228.230	928.302
205.504	13.656	1227.074	926.775
206.519	13.758	1225.907	926.384
207.534	13.738	1224.541	925.159
208.548	13.799	1223.242	924.433
209.563	13.862	1222.502	924.145
210.577	13.812	1221.802	923.255
211.592	13.795	1220.908	922.402
212.607	13.881	1220.075	922.170
213.621	13.980	1218.778	921.659
214.636	13.876	1218.179	920.544
215.650	13.974	1216.930	920.063
216.665	14.058	1216.254	919.935
217.680	13.955	1215.532	918.739
218.694	13.953	1214.776	918.077
219.709	14.028	1214.109	917.903
220.723	14.140	1212.829	917.470
221.738	14.007	1212.302	916.259
222.753	14.098	1211.564	916.124
223.767	14.128	1210.938	915.734
224.782	14.176	1210.624	915.680
225.796	14.252	1209.525	915.184
226.811	14.113	1208.911	913.877
227.826	14.193	1208.218	913.708
228.840	14.120	1207.348	912.567
229.855	14.094	1206.570	911.759
230.869	14.130	1205.821	911.312
231.884	14.093	1205.374	910.691
232.899	14.146	1204.160	909.979
233.913	14.086	1203.438	909.026
234.928	14.040	1202.802	908.216
235.942	14.005	1201.794	907.183
236.957	14.044	1201.169	906.844
237.972	14.089	1200.346	906.386
238.986	14.077	1199.409	905.533
240.001	14.109	1198.721	905.110
241.015	14.113	1198.038	904.532
242.030	14.152	1197.113	903.968
243.045	14.263	1196.035	903.678
244.059	14.231	1195.648	903.132
245.074	14.266	1194.664	902.499
246.088	14.330	1193.663	902.007
247.103	14.314	1193.088	901.407
248.117	14.322	1192.407	900.854
249.132	14.442	1191.817	900.977
250.147	14.552	1190.371	900.398
251.161	14.570	1190.155	900.256
252.176	14.504	1189.585	899.386
253.190	14.594	1188.870	899.250
254.205	14.632	1188.272	898.927
255.220	14.693	1187.571	898.646
256.234	14.614	1187.228	897.877
257.249	14.624	1186.657	897.419
258.263	14.742	1185.631	897.202
259.278	14.824	1184.660	896.824
260.293	14.730	1183.941	895.700
261.307	14.838	1183.417	895.799
262.322	14.710	1183.150	894.833
263.336	14.756	1182.323	894.376
264.351	14.769	1181.744	893.927
265.366	14.880	1180.614	893.587
266.380	15.020	1179.941	893.746
267.395	14.832	1179.431	892.278
268.409	14.809	1178.685	891.511
269.424	14.865	1177.665	890.959
270.439	14.772	1177.344	890.142
271.453	14.803	1176.457	889.559
272.468	14.767	1175.374	888.470
273.482	14.706	1175.313	888.017
274.497	14.762	1174.661	887.747
275.512	14.811	1173.888	887.343
276.526	14.883	1172.656	886.715
277.541	14.902	1171.615	885.950
278.555	14.782	1171.605	885.227
279.570	14.894	1170.833	885.158
280.585	15.005	1169.710	884.820
281.599	15.046	1168.666	884.171
282.614	14.981	1167.637	882.971
283.628	14.995	1166.916	882.417
284.643	15.003	1166.032	881.716
285.657	14.952	1164.720	880.376
286.672	14.952	1164.074	879.808
287.687	15.078	1163.373	879.865
288.701	15.001	1162.657	878.841
289.716	15.089	1161.797	878.577
290.730	15.018	1161.044	877.553
291.745	15.074	1160.380	877.272
292.760	15.100	1159.259	876.482
293.774	15.212	1158.900	876.717
294.789	15.259	1158.650	876.699
295.803	15.197	1157.928	875.750
296.818	15.134	1156.899	874.566
297.833	15.164	1156.183	874.104
298.847	15.199	1155.330	873.563
299.862	15.196	1154.540	872.872
300.876	15.361	1153.568	872.921
301.891	15.317	1153.078	872.243
302.906	15.359	1152.407	871.875
303.920	15.296	1151.867	871.060
304.935	15.388	1151.130	870.906
305.949	15.343	1150.591	870.189
306.964	15.422	1149.810	869.929
307.979	15.472	1148.667	869.246
308.993	15.483	1147.798	868.570
310.008	15.413	1147.315	867.766
311.022	15.488	1146.604	867.537
312.037	15.451	1145.955	866.779
313.052	15.397	1145.040	865.730
314.066	15.477	1143.578	864.963
315.081	15.357	1143.180	863.967
316.095	15.351	1142.301	863.192
317.110	15.373	1141.540	862.653
318.125	15.370	1140.771	861.981
319.139	15.372	1140.507	861.716
320.154	15.333	1139.468	860.653
321.168	15.402	1138.877	860.488
322.183	15.375	1138.230	859.785
323.197	15.474	1137.906	859.970
324.212	15.460	1136.979	859.123
325.227	15.549	1136.456	859.108
326.241	15.495	1136.179	858.543
327.256	15.522	1134.778	857.547
328.270	15.488	1133.880	856.618
329.285	15.405	1133.032	855.479
330.300	15.504	1132.009	855.135
331.314	15.499	1131.281	854.486
332.329	15.560	1130.230	853.928
333.343	15.591	1129.355	853.347
334.358	15.634	1128.698	852.994
335.373	15.712	1127.614	852.494
336.387	15.675	1127.196	851.916
337.402	15.724	1126.258	851.377
338.416	15.623	1125.781	850.430
339.431	15.828	1125.142	850.913
340.446	15.793	1124.622	850.266
341.460	15.825	1123.613	849.588
342.475	15.869	1122.556	848.938
343.489	15.896	1121.737	848.376
344.504	15.922	1120.812	847.733
345.519	15.832	1120.082	846.656
346.533	15.929	1119.332	846.500
347.548	16.067	1118.537	846.518
348.562	15.973	1118.067	845.612
349.577	15.905	1117.014	844.402
350.592	15.880	1115.933	843.382
351.606	15.883	1115.369	842.897
352.621	16.034	1114.348	842.810
353.635	15.907	1114.199	841.985
354.650	15.862	1113.722	841.328
355.665	15.947	1112.391	840.668
356.679	16.007	1111.879	840.509
357.694	16.007	1111.244	839.954
358.708	15.999	1110.957	839.622
359.723	16.074	1109.931	839.146
360.738	15.977	1109.364	838.161
361.752	16.099	1108.967	838.393
362.767	16.005	1108.575	837.556
363.781	15.952	1107.982	836.773
364.796	16.189	1106.792	836.972
365.810	16.164	1106.609	836.636
366.825	16.198	1105.803	836.121
367.840	16.232	1105.466	835.963
368.854	16.380	1104.362	835.787
369.869	16.359	1103.953	835.297
370.883	16.239	1102.991	833.905
371.898	16.307	1102.008	833.422
372.913	16.297	1101.825	833.159
373.927	16.341	1101.247	832.866
374.942	16.344	1100.637	832.347
375.956	16.354	1100.176	831.973
376.971	16.387	1099.492	831.545
377.986	16.273	1099.144	830.646
379.000	16.451	1098.117	830.672
380.015	16.464	1097.849	830.460
381.029	16.497	1096.847	829.791
382.044	16.475	1096.206	829.126
383.059	16.549	1095.523	828.899
384.073	16.557	1094.714	828.251
385.088	16.495	1093.704	827.111
386.102	16.558	1092.528	826.455
387.117	16.653	1091.575	826.126
388.132	16.463	1090.795	824.536
389.146	16.495	1090.191	824.162
390.161	16.546	1089.106	823.517
391.175	16.613	1088.552	823.349
392.190	16.607	1088.132	822.929
393.205	16.603	1087.188	822.126
394.219	16.619	1086.215	821.393
395.234	16.564	1085.592	820.581
396.248	16.600	1084.384	819.770
397.263	16.563	1083.313	818.711
398.278	16.494	1082.743	817.874
399.292	16.556	1082.006	817.544
400.307	16.454	1081.774	816.803
401.321	16.560	1080.874	816.565
402.336	16.529	1080.018	815.695
403.350	16.615	1078.950	815.233
404.365	16.593	1078.503	814.716
405.380	16.654	1077.873	814.460
406.394	16.654	1077.027	813.750
407.409	16.766	1076.637	813.922
408.423	16.672	1076.139	813.022
409.438	16.710	1075.335	812.525
410.453	16.824	1074.503	812.369
411.467	16.826	1073.613	811.635
412.482	16.886	1072.874	811.292
413.496	16.959	1072.272	811.112
414.511	16.843	1071.816	810.144
415.526	16.994	1071.246	810.361
416.540	16.991	1070.989	810.078
417.555	16.978	1070.528	809.598
418.569	16.960	1069.861	808.935
419.584	17.100	1069.051	808.919
420.599	17.109	1068.512	808.482
421.613	94.552	1313.707	1424.700
422.628	87.431	1349.423	1424.822
