DTS Sentinel unit serial number:	SN413079Multiplexer serial number:	ORYXHardware model number:	OX4-SRSoftware version number:	ORYX F/W v4.00 Oryx Data Collector v3.7.2.0data status	okinstallation	princeton_trtdifferential loss correction	single-endedforward channel	channel 2reverse channel	N/Adate	2019/09/13time	17:07:35forward acquisition time	60.00reverse acquisition time	0.00gamma	496.2192k internal	0.2310k external	0.2310temperature offset calibration	1.0200default loss term (dB/km)	0.3790temperature slope calibration	1.0000multiplexer offset coefficient	1.0000multiplexer slope coefficient	1.0000fibre end	0.00T internal ref (°C)	35.23T ext. ref 1 (°C)	4.82T ext. ref 2 (°C)	35.11length (m)	temperature (°C)	Stokes	anti-Stokes-747.200	-64.307	0.121	-0.050
-746.185	800.000	-0.066	0.225
-745.171	-8.376	0.349	0.238
-744.156	-10.982	0.065	0.044
-743.142	218.842	-0.159	0.258
-742.127	525.583	-0.151	0.362
-741.112	115.928	-0.375	0.466
-740.098	317.916	0.045	-0.087
-739.083	23.767	-0.170	-0.142
-738.069	19.555	-0.287	0.234
-737.054	532.324	-0.157	-0.378
-736.039	-200.000	0.026	-0.119
-735.025	-46.847	-0.267	-0.133
-734.010	-39.567	-0.120	-0.064
-732.996	-200.000	-0.045	-0.439
-731.981	800.000	-0.067	-0.273
-730.966	-47.915	-0.306	0.150
-729.952	-138.930	-0.316	-0.035
-728.937	67.544	0.017	-0.018
-727.923	-94.043	-0.278	0.077
-726.908	73.964	-0.211	-0.224
-725.894	-4.831	0.211	-0.148
-724.879	-200.000	-0.039	-0.318
-723.864	-200.000	0.033	-0.228
-722.850	-200.000	-0.063	-0.356
-721.835	800.000	0.056	-0.218
-720.821	-200.000	-0.027	-0.254
-719.806	-94.543	0.173	0.048
-718.791	800.000	0.132	-0.395
-717.777	-168.157	-0.237	-0.009
-716.762	-104.206	-0.229	-0.054
-715.748	-200.000	-0.018	-0.384
-714.733	24.524	-0.278	-0.233
-713.718	-34.957	0.221	-0.122
-712.704	-200.000	-0.007	-0.165
-711.689	-133.156	-0.126	0.016
-710.675	327.893	0.053	-0.103
-709.660	127.657	-0.228	0.293
-708.645	-100.503	-0.121	0.030
-707.631	-53.495	0.041	-0.019
-706.616	-64.873	0.164	0.067
-705.602	38.526	-0.367	0.332
-704.587	800.000	0.022	0.074
-703.572	400.528	-0.057	0.121
-702.558	-194.392	0.010	0.000
-701.543	-200.000	0.032	-0.222
-700.529	800.000	-0.051	-0.169
-699.514	800.000	-0.091	-0.278
-698.499	56.519	-0.247	0.244
-697.485	-200.000	0.009	0.117
-696.470	800.000	0.037	0.136
-695.456	95.954	0.333	-0.386
-694.441	751.747	-0.051	0.140
-693.426	-200.000	-0.034	-0.230
-692.412	-47.577	-0.062	-0.031
-691.397	357.787	-0.085	-0.172
-690.383	144.637	0.091	0.123
-689.368	-200.000	-0.009	0.239
-688.354	-200.000	0.056	-0.440
-687.339	95.876	-0.060	-0.070
-686.324	182.050	0.152	0.227
-685.310	-200.000	-0.053	0.347
-684.295	800.000	0.074	-0.223
-683.281	800.000	-0.079	0.228
-682.266	-72.456	-0.324	0.122
-681.251	-175.334	0.112	-0.003
-680.237	59.844	0.078	0.078
-679.222	17.547	0.243	0.196
-678.208	-200.000	-0.060	-0.275
-677.193	373.608	-0.039	-0.080
-676.178	-23.695	-0.177	-0.107
-675.164	-12.814	-0.065	0.043
-674.149	-200.000	-0.038	0.316
-673.135	-40.234	-0.309	-0.163
-672.120	6.637	-0.100	0.075
-671.105	229.566	-0.110	-0.183
-670.091	-58.550	0.195	0.086
-669.076	-156.304	-0.143	-0.009
-668.062	-112.205	-0.273	-0.056
-667.047	-68.463	0.083	0.033
-666.032	33.715	0.238	-0.210
-665.018	30.628	-0.164	-0.142
-664.003	-39.996	-0.136	-0.072
-662.989	-200.000	0.006	-0.034
-661.974	800.000	-0.048	-0.195
-660.959	-89.281	-0.342	0.102
-659.945	-200.000	-0.047	-0.237
-658.930	-200.000	-0.050	-0.273
-657.916	-126.262	-0.177	0.027
-656.901	-9.103	-0.089	-0.060
-655.886	30.771	-0.202	-0.175
-654.872	-15.029	0.084	-0.055
-653.857	455.610	-0.061	-0.138
-652.843	-95.189	0.145	0.039
-651.828	-99.895	0.210	0.053
-650.814	-66.285	-0.053	0.021
-649.799	207.978	-0.224	-0.354
-648.784	-200.000	0.005	0.355
-647.770	16.432	0.243	-0.194
-646.755	800.000	-0.066	-0.235
-645.741	-200.000	-0.059	0.000
-644.726	389.197	-0.135	0.283
-643.711	89.294	0.138	0.155
-642.697	79.359	0.074	0.080
-641.682	-142.884	-0.164	0.016
-640.668	13.020	-0.147	-0.115
-639.653	-110.468	0.195	0.041
-638.638	-102.848	-0.211	-0.051
-637.624	-96.100	-0.083	0.022
-636.609	-30.229	0.640	-0.368
-635.595	-200.000	-0.032	-0.180
-634.580	-54.053	-0.048	-0.022
-633.565	-166.114	0.202	-0.009
-632.551	-200.000	-0.030	0.172
-631.536	-200.000	0.026	0.216
-630.522	-135.714	0.149	-0.018
-629.507	68.919	0.082	-0.085
-628.492	-113.812	-0.436	-0.086
-627.478	-55.250	0.179	0.081
-626.463	684.693	0.093	-0.246
-625.449	31.687	0.296	-0.257
-624.434	18.282	0.106	0.086
-623.419	339.964	0.058	-0.114
-622.405	-71.685	-0.142	-0.054
-621.390	85.491	0.049	-0.054
-620.376	800.000	-0.043	-0.126
-619.361	145.336	-0.161	-0.218
-618.346	-5.442	-0.323	-0.224
-617.332	174.349	0.102	-0.149
-616.317	-19.660	0.332	-0.207
-615.303	-76.184	0.156	0.056
-614.288	106.141	-0.092	0.110
-613.273	800.000	-0.082	-0.282
-612.259	201.704	0.117	-0.182
-611.244	494.065	-0.061	-0.142
-610.230	-200.000	-0.013	-0.135
-609.215	-149.385	-0.171	0.014
-608.201	53.058	-0.432	0.417
-607.186	800.000	-0.061	-0.251
-606.171	-200.000	0.562	0.001
-605.157	-36.453	-0.093	0.051
-604.142	229.166	-0.157	-0.258
-603.128	372.645	-0.068	-0.140
-602.113	17.990	-0.168	0.135
-601.098	-179.577	-0.454	0.010
-600.084	-72.417	-0.281	0.105
-599.069	236.421	0.099	0.166
-598.055	-99.214	-0.149	0.038
-597.040	-46.649	0.215	-0.107
-596.025	-12.972	-0.209	-0.137
-595.011	24.817	0.110	0.092
-593.996	-200.000	-0.009	0.147
-592.982	47.794	-0.106	-0.100
-591.967	-31.130	-0.119	-0.068
-590.952	-115.225	0.108	-0.021
-589.938	72.555	-0.135	-0.142
-588.923	139.665	0.050	0.067
-587.909	11.204	0.045	-0.035
-586.894	508.216	-0.085	-0.199
-585.879	800.000	0.063	-0.230
-584.865	-145.471	-0.159	0.014
-583.850	-94.829	-0.110	-0.030
-582.836	-200.000	-0.001	0.219
-581.821	-200.000	-0.065	-0.367
-580.806	145.997	-0.085	0.115
-579.792	800.000	-0.109	0.461
-578.777	-200.000	0.002	0.039
-577.763	-149.468	-0.363	-0.029
-576.748	-43.159	-0.061	0.031
-575.733	261.307	0.059	-0.102
-574.719	-148.282	-0.140	0.012
-573.704	69.685	-0.191	0.198
-572.690	-76.968	-0.275	0.097
-571.675	-104.356	-0.242	0.056
-570.661	90.187	-0.139	-0.157
-569.646	146.467	0.121	-0.164
-568.631	800.000	-0.064	-0.226
-567.617	26.627	0.183	0.154
-566.602	-200.000	0.059	-0.314
-565.588	-100.265	0.143	0.036
-564.573	-159.578	-0.222	-0.012
-563.558	800.000	-0.027	-0.080
-562.544	-89.711	0.219	-0.065
-561.529	5.768	-0.097	-0.072
-560.515	800.000	-0.041	0.124
-559.500	800.000	0.128	-0.399
-558.485	331.616	-0.134	-0.260
-557.471	586.476	-0.147	-0.365
-556.456	-200.000	0.003	-0.017
-555.442	-13.622	-0.243	0.159
-554.427	-10.893	0.215	0.143
-553.412	137.259	-0.112	-0.148
-552.398	544.818	-0.095	-0.228
-551.383	-200.000	0.039	-0.304
-550.369	-31.272	-0.095	0.054
-549.354	-65.387	0.161	0.065
-548.339	-113.889	-0.274	0.054
-547.325	130.324	-0.211	-0.272
-546.310	77.773	-0.116	-0.125
-545.296	321.015	0.112	-0.215
-544.281	291.241	0.094	0.173
-543.266	327.565	0.108	0.209
-542.252	-200.000	-0.013	-0.175
-541.237	-200.000	-0.006	-0.099
-540.223	-158.292	-0.209	-0.012
-539.208	-70.878	-0.164	0.062
-538.193	-29.286	-0.348	0.201
-537.179	-200.000	-0.013	0.209
-536.164	5.038	0.225	0.167
-535.150	479.569	0.164	-0.374
-534.135	273.788	0.073	-0.131
-533.121	28.825	0.280	0.239
-532.106	125.970	-0.248	-0.316
-531.091	105.559	0.108	0.129
-530.077	283.672	-0.169	-0.305
-529.062	296.043	-0.116	-0.214
-528.048	148.779	0.060	0.082
-527.033	38.634	0.123	0.110
-526.018	-200.000	0.018	0.116
-525.004	-51.664	0.289	-0.136
-523.989	-200.000	0.010	-0.166
-522.975	-7.372	0.033	-0.022
-521.960	58.934	-0.121	-0.120
-520.945	246.964	0.193	0.328
-519.931	-2.902	0.322	0.227
-518.916	63.525	-0.071	0.072
-517.902	800.000	-0.044	-0.173
-516.887	276.468	0.100	0.179
-515.872	-200.000	0.033	-0.225
-514.858	72.535	-0.209	0.219
-513.843	-200.000	-0.009	0.086
-512.829	-107.956	0.490	0.107
-511.814	-200.000	-0.010	0.084
-510.799	173.750	-0.067	-0.098
-509.785	800.000	0.050	-0.213
-508.770	800.000	-0.048	0.140
-507.756	-9.684	0.061	0.041
-506.741	147.816	-0.072	0.098
-505.726	-111.462	0.407	0.083
-504.712	77.005	0.067	-0.072
-503.697	46.454	-0.149	-0.139
-502.683	74.168	-0.137	0.145
-501.668	234.351	0.053	0.088
-500.653	-17.795	0.132	-0.083
-499.639	-106.074	-0.206	-0.047
-498.624	-87.207	0.163	0.050
-497.610	109.951	0.093	0.112
-496.595	292.031	0.118	-0.216
-495.581	-200.000	-0.005	0.149
-494.566	-200.000	-0.013	-0.102
-493.551	172.396	0.071	-0.102
-492.537	-11.075	0.136	-0.090
-491.522	-200.000	-0.040	0.195
-490.508	5.656	-0.311	0.231
-489.493	249.613	0.048	0.083
-488.478	-61.552	-0.080	-0.034
-487.464	-153.427	-0.407	0.028
-486.449	-200.000	-0.007	-0.122
-485.435	-9.449	0.115	-0.077
-484.420	-82.070	0.124	-0.041
-483.405	97.196	-0.395	0.455
-482.391	118.819	0.069	-0.085
-481.376	32.218	-0.156	-0.135
-480.362	85.410	0.213	-0.235
-479.347	-100.792	-0.368	0.091
-478.332	126.253	0.087	-0.110
-477.318	-134.227	0.310	-0.038
-476.303	288.533	0.180	0.327
-475.289	156.333	0.079	0.109
-474.274	-6.884	0.033	0.023
-473.259	-112.300	-0.118	0.024
-472.245	-200.000	0.022	-0.433
-471.230	-200.000	-0.025	-0.273
-470.216	0.929	-0.155	-0.112
-469.201	-74.691	-0.319	-0.115
-468.186	106.883	0.197	0.235
-467.172	90.925	-0.037	0.042
-466.157	800.000	-0.052	0.205
-465.143	472.858	0.093	-0.212
-464.128	646.269	0.122	-0.313
-463.113	-144.846	0.420	-0.039
-462.099	-62.029	-0.066	0.028
-461.084	151.716	-0.102	-0.139
-460.070	-134.645	-0.309	0.038
-459.055	413.635	-0.139	-0.297
-458.040	-104.253	-0.340	0.079
-457.026	800.000	-0.067	0.213
-456.011	16.022	0.130	0.103
-454.997	-200.000	0.004	0.148
-453.982	367.025	-0.138	-0.280
-452.968	-72.658	0.100	-0.037
-451.953	-87.832	-0.335	-0.101
-450.938	586.766	-0.189	-0.467
-449.924	-125.230	0.193	-0.030
-448.909	-96.294	-0.188	0.050
-447.895	-200.000	0.000	0.086
-446.880	800.000	0.152	-0.427
-445.865	-186.663	-0.262	-0.004
-444.851	-140.587	-0.106	0.011
-443.836	-64.906	0.267	0.108
-442.822	-200.000	-0.021	0.101
-441.807	-103.885	0.078	-0.018
-440.792	-200.000	0.022	-0.399
-439.778	118.360	0.046	-0.057
-438.763	800.000	0.019	0.058
-437.749	132.633	0.300	-0.388
-436.734	557.790	0.056	0.136
-435.719	156.432	-0.088	0.122
-434.705	-141.775	0.198	-0.020
-433.690	250.957	-0.221	0.377
-432.676	188.422	0.226	0.339
-431.661	114.147	0.096	-0.117
-430.646	-81.597	-0.186	-0.061
-429.632	-140.715	-0.007	0.001
-428.617	-180.395	0.237	0.005
-427.603	-200.000	-0.059	0.281
-426.588	142.165	-0.152	-0.202
-425.573	-44.101	0.063	-0.032
-424.559	-186.454	0.192	-0.003
-423.544	800.000	0.130	-0.417
-422.530	-27.316	0.155	0.091
-421.515	487.855	0.056	-0.128
-420.500	292.439	-0.211	0.385
-419.486	-16.422	-0.095	-0.060
-418.471	52.783	0.157	-0.150
-417.457	7.638	-0.169	-0.127
-416.442	18.928	0.177	-0.142
-415.428	-101.719	0.235	0.057
-414.413	-41.299	0.048	-0.025
-413.398	-118.500	0.012	-0.002
-412.384	800.000	-0.095	0.381
-411.369	87.205	-0.096	-0.106
-410.355	-40.938	0.177	-0.092
-409.340	248.545	0.181	0.308
-408.325	-61.529	0.351	0.148
-407.311	-107.015	-0.120	-0.027
-406.296	-140.975	0.315	-0.032
-405.282	-200.000	0.046	0.208
-404.267	-35.790	0.095	-0.052
-403.252	-96.832	0.303	-0.080
-402.238	-149.865	-0.292	0.023
-401.223	-106.678	-0.127	0.028
-400.209	-92.006	0.256	-0.073
-399.194	235.066	0.034	0.057
-398.179	82.243	0.134	0.145
-397.165	-118.273	0.072	0.013
-396.150	-14.324	-0.061	0.039
-395.136	-200.000	-0.026	0.337
-394.121	20.069	-0.276	0.223
-393.106	-200.000	-0.043	-0.273
-392.092	170.753	-0.077	-0.110
-391.077	471.968	-0.102	0.229
-390.063	11.658	0.147	-0.113
-389.048	-55.853	0.336	0.150
-388.033	-200.000	-0.024	0.120
-387.019	13.204	-0.237	0.184
-386.004	800.000	-0.042	-0.123
-384.990	132.053	-0.100	-0.129
-383.975	351.174	0.075	0.148
-382.960	-200.000	-0.007	0.172
-381.946	800.000	-0.011	0.030
-380.931	-200.000	-0.018	-0.112
-379.917	-200.000	0.007	-0.042
-378.902	800.000	0.074	-0.220
-377.888	-135.514	0.163	0.019
-376.873	138.319	-0.035	0.046
-375.858	164.000	0.046	0.065
-374.844	149.665	-0.139	-0.188
-373.829	-200.000	0.017	0.146
-372.815	-200.000	-0.006	-0.035
-371.800	18.762	-0.231	-0.185
-370.785	71.662	-0.074	0.077
-369.771	-200.000	-0.033	0.271
-368.756	-200.000	0.008	0.050
-367.742	-40.417	0.147	0.076
-366.727	2.579	-0.079	-0.057
-365.712	-58.903	-0.184	-0.080
-364.698	599.752	-0.147	-0.366
-363.683	-200.000	0.002	-0.194
-362.669	-92.567	0.381	0.107
-361.654	-42.533	-0.296	0.151
-360.639	-200.000	0.002	0.044
-359.625	33.682	-0.290	-0.252
-358.610	69.949	-0.097	-0.100
-357.596	209.177	0.091	-0.143
-356.581	46.442	-0.158	-0.147
-355.566	-22.532	0.075	-0.045
-354.552	-1.919	0.110	-0.078
-353.537	101.073	0.141	-0.164
-352.523	90.572	-0.053	0.059
-351.508	-72.498	0.076	0.028
-350.493	800.000	-0.074	-0.277
-349.479	39.180	0.173	-0.155
-348.464	-139.624	-0.374	-0.040
-347.450	-99.674	-0.273	0.068
-346.435	88.104	-0.106	0.117
-345.420	112.243	-0.205	0.248
-344.406	-56.699	-0.172	-0.076
-343.391	-200.000	0.050	0.345
-342.377	800.000	0.104	0.413
-341.362	-67.980	-0.040	0.015
-340.348	-47.750	0.232	0.112
-339.333	-62.298	0.160	-0.067
-338.318	140.348	0.084	0.110
-337.304	-7.232	-0.076	0.051
-336.289	800.000	0.085	-0.273
-335.275	-102.181	0.039	-0.009
-334.260	112.818	0.133	-0.161
-333.245	169.816	-0.020	-0.028
-332.231	800.000	0.045	0.160
-331.216	-31.089	-0.118	0.066
-330.202	-97.307	0.290	0.075
-329.187	-132.079	-0.180	0.023
-328.172	-52.201	0.049	0.023
-327.158	-57.137	0.259	-0.114
-326.143	208.910	-0.031	-0.049
-325.129	10.997	0.207	-0.158
-324.114	-54.211	-0.260	0.118
-323.099	52.224	-0.079	0.075
-322.085	-200.000	0.049	0.338
-321.070	156.480	-0.127	0.175
-320.056	117.356	-0.297	0.365
-319.041	-82.822	0.182	0.059
-318.026	-55.504	0.052	-0.023
-317.012	-198.534	0.090	0.001
-315.997	-59.287	0.230	0.099
-314.983	-134.828	0.282	-0.034
-313.968	-200.000	0.048	0.235
-312.953	-33.929	-0.167	0.092
-311.939	800.000	-0.035	0.124
-310.924	-122.180	0.107	0.018
-309.910	130.434	0.090	-0.115
-308.895	166.503	0.186	0.263
-307.880	-200.000	0.033	0.259
-306.866	-72.756	0.149	-0.055
-305.851	800.000	0.102	-0.313
-304.837	-81.111	0.280	0.092
-303.822	-15.849	0.245	0.156
-302.807	398.875	0.174	0.364
-301.793	-122.171	-0.209	-0.034
-300.778	163.175	-0.183	-0.257
-299.764	673.628	-0.186	0.481
-298.749	-85.192	-0.239	-0.075
-297.735	-200.000	-0.003	0.084
-296.720	143.787	-0.085	0.113
-295.705	32.633	0.070	-0.061
-294.691	-21.018	-0.219	-0.134
-293.676	27.973	-0.036	-0.031
-292.662	632.319	0.020	0.050
-291.647	336.972	0.171	0.332
-290.632	-200.000	-0.071	-0.419
-289.618	-1.537	0.456	-0.321
-288.603	-61.692	-0.229	-0.096
-287.589	223.998	-0.034	0.055
-286.574	358.982	0.075	0.150
-285.559	-92.544	-0.217	0.061
-284.545	-111.374	0.128	0.026
-283.530	379.239	0.073	0.149
-282.516	-56.568	0.141	0.062
-281.501	191.221	0.065	0.098
-280.486	37.785	-0.077	0.068
-279.472	-114.148	-0.189	-0.036
-278.457	-150.660	-0.173	-0.013
-277.443	-125.266	0.266	0.041
-276.428	800.000	0.036	-0.099
-275.413	409.831	0.068	0.144
-274.399	52.414	0.165	-0.157
-273.384	800.000	-0.083	-0.279
-272.370	53.106	0.257	0.246
-271.355	69.913	-0.193	0.199
-270.340	800.000	-0.053	0.156
-269.326	25.226	-0.271	0.224
-268.311	-178.353	0.055	-0.001
-267.297	-58.722	0.086	0.037
-266.282	49.997	0.284	0.267
-265.267	-200.000	0.003	0.403
-264.253	-200.000	-0.003	-0.102
-263.238	238.249	0.127	0.210
-262.224	176.258	-0.191	0.277
-261.209	236.461	0.124	-0.205
-260.195	550.374	-0.085	-0.203
-259.180	339.754	0.052	-0.101
-258.165	63.670	-0.418	-0.418
-257.151	295.506	-0.170	0.310
-256.136	-72.715	0.120	0.044
-255.122	-200.000	-0.002	-0.031
-254.107	180.057	-0.132	0.193
-253.092	800.000	-0.074	0.273
-252.078	368.411	-0.063	0.127
-251.063	-195.246	0.060	-0.000
-250.049	-200.000	-0.061	-0.324
-249.034	35.972	-0.127	-0.112
-248.019	467.020	-0.108	-0.241
-247.005	800.000	0.081	0.328
-245.990	-125.244	-0.083	0.013
-244.976	-64.567	0.187	-0.076
-243.961	6.343	0.160	0.118
-242.946	-110.496	-0.383	0.079
-241.932	800.000	-0.110	0.350
-240.917	-186.961	0.290	0.004
-239.903	-200.000	-0.032	0.204
-238.888	800.000	0.080	-0.241
-237.873	800.000	0.093	0.256
-236.859	-200.000	-0.032	0.400
-235.844	92.417	0.225	0.253
-234.830	92.302	0.118	-0.132
-233.815	-136.734	-0.275	-0.032
-232.800	5.593	-0.334	-0.245
-231.786	195.844	-0.230	0.348
-230.771	-122.555	-0.350	-0.057
-229.757	163.922	0.108	0.151
-228.742	-200.000	0.054	-0.319
-227.727	-16.862	-0.130	0.082
-226.713	-100.333	-0.194	0.048
-225.698	-200.000	-0.024	0.205
-224.684	51.536	0.156	0.148
-223.669	-55.598	0.259	-0.115
-222.655	21.409	-0.120	0.097
-221.640	-37.343	-0.508	-0.270
-220.625	166.698	0.211	-0.298
-219.611	-165.342	0.219	0.010
-218.596	-153.106	-0.117	0.008
-217.582	-34.437	-0.143	0.078
-216.567	-200.000	0.078	0.359
-215.552	-128.268	0.311	0.044
-214.538	64.707	0.300	-0.301
-213.523	-151.566	-0.138	-0.010
-212.509	-127.945	-0.027	-0.004
-211.494	800.000	-0.008	0.026
-210.479	-35.027	0.159	-0.086
-209.465	127.572	-0.090	0.114
-208.450	119.554	0.147	-0.181
-207.436	325.315	-0.092	0.175
-206.421	800.000	0.059	-0.181
-205.406	136.020	-0.065	-0.084
-204.392	484.148	-0.076	-0.171
-203.377	-101.570	0.146	-0.035
-202.363	35.571	-0.095	0.083
-201.348	12.632	0.409	-0.314
-200.333	800.000	0.043	0.174
-199.319	103.764	0.264	0.308
-198.304	198.106	0.128	-0.194
-197.290	377.481	0.150	-0.304
-196.275	-49.895	-0.158	-0.074
-195.260	3.216	0.189	-0.137
-194.246	16.865	-0.125	0.099
-193.231	-66.353	0.254	0.100
-192.217	87.480	-0.191	0.210
-191.202	-200.000	0.022	0.127
-190.187	800.000	0.066	0.208
-189.173	-43.971	-0.326	0.163
-188.158	-200.000	-0.022	-0.448
-187.144	38.522	-0.347	0.307
-186.129	-56.565	0.163	-0.072
-185.114	-111.126	-0.215	-0.044
-184.100	63.287	-0.152	-0.151
-183.085	93.041	0.122	-0.137
-182.071	-128.263	0.201	-0.028
-181.056	49.107	0.053	0.050
-180.042	-49.252	-0.160	0.076
-179.027	-50.332	0.173	-0.081
-178.012	113.348	0.054	0.065
-176.998	-54.419	0.209	-0.094
-175.983	-123.065	-0.070	0.011
-174.969	39.495	0.124	0.110
-173.954	15.273	-0.397	0.309
-172.939	-122.781	0.312	0.050
-171.925	213.312	-0.090	-0.141
-170.910	-200.000	-0.004	0.171
-169.896	-200.000	0.085	0.383
-168.881	406.485	-0.015	0.032
-167.866	113.620	0.030	-0.036
-166.852	-142.761	-0.168	0.016
-165.837	-159.446	0.399	0.022
-164.823	10.472	-0.139	0.105
-163.808	-148.917	-0.152	0.012
-162.793	-200.000	0.000	0.001
-161.779	-200.000	0.026	0.117
-160.764	-102.419	-0.061	0.014
-159.750	-181.577	-0.123	-0.002
-158.735	-200.000	-0.025	0.188
-157.720	-14.460	0.452	-0.288
-156.706	-1.163	0.180	-0.126
-155.691	-137.305	-0.400	0.045
-154.677	56.326	0.275	0.265
-153.662	121.551	0.334	-0.413
-152.647	-200.000	0.000	0.038
-151.633	-140.802	0.216	0.022
-150.618	-200.000	-0.117	0.001
-149.604	-127.552	0.202	-0.029
-148.589	-200.000	0.058	-0.274
-147.574	-200.000	0.141	-0.627
-146.560	-200.000	-0.026	-0.355
-145.545	-79.358	0.453	-0.152
-144.531	800.000	0.051	0.198
-143.516	-10.468	-0.063	-0.042
-142.502	800.000	-0.049	0.204
-141.487	6.662	-0.161	-0.119
-140.472	-171.758	-0.088	0.003
-139.458	-136.133	0.107	-0.012
-138.443	-200.000	-0.038	-0.347
-137.429	155.953	-0.322	0.441
-136.414	-52.815	0.204	-0.093
-135.399	-37.867	-0.195	0.103
-134.385	-200.000	0.064	0.461
-133.370	89.361	-0.201	-0.222
-132.356	-69.942	-0.227	0.086
-131.341	-57.191	0.255	-0.111
-130.326	800.000	0.064	0.254
-129.312	146.998	0.042	-0.056
-128.297	-92.471	0.123	-0.034
-127.283	372.535	-0.113	0.229
-126.268	169.354	0.139	-0.197
-125.253	212.759	-0.117	-0.184
-124.239	-57.782	0.190	-0.083
-123.224	385.361	-0.100	0.205
-122.210	624.049	-0.053	-0.133
-121.195	-200.000	-0.056	0.276
-120.180	-93.333	0.167	0.046
-119.166	-26.860	0.147	-0.085
-118.151	-121.874	-0.271	-0.044
-117.137	-15.162	0.081	-0.051
-116.122	40.774	0.071	-0.063
-115.107	2.130	-0.123	-0.088
-114.093	-67.664	-0.006	-0.002
-113.078	-47.310	-0.581	-0.280
-112.064	-13.801	-0.137	-0.088
-111.049	-200.000	-0.069	0.325
-110.034	42.217	0.228	-0.205
-109.020	-200.000	0.002	0.017
-108.005	-54.395	-0.052	0.023
-106.991	298.583	-0.152	-0.277
-105.976	-91.948	-0.326	-0.091
-104.962	-79.514	-0.187	0.063
-103.947	-111.715	0.246	0.049
-102.932	71.810	-0.234	-0.241
-101.918	119.649	0.048	0.059
-100.903	-5.920	0.194	0.131
-99.889	-55.665	0.141	0.063
-98.874	800.000	0.129	0.372
-97.859	149.363	0.192	-0.257
-96.845	-70.190	-0.236	0.089
-95.830	800.000	-0.144	-0.448
-94.816	-200.000	-0.023	0.305
-93.801	-80.728	0.282	0.093
-92.786	-142.748	0.106	-0.010
-91.772	6.620	-0.141	0.104
-90.757	-93.689	-0.160	-0.044
-89.743	-137.683	0.278	-0.031
-88.728	-200.000	0.018	-0.252
-87.713	-86.747	0.223	0.068
-86.699	800.000	0.066	0.262
-85.684	800.000	0.111	-0.322
-84.670	315.900	0.040	0.075
-83.655	17.095	0.116	-0.091
-82.640	-16.650	0.171	-0.107
-81.626	125.241	0.135	0.169
-80.611	-156.715	-0.126	-0.008
-79.597	-200.000	0.035	-0.411
-78.582	-42.947	-0.266	-0.134
-77.567	406.198	-0.173	-0.361
-76.553	12.009	-0.058	-0.044
-75.538	54.502	-0.122	0.116
-74.524	-200.000	0.039	-0.260
-73.509	-200.000	0.040	0.281
-72.494	-38.029	0.323	0.169
-71.480	-38.067	0.212	0.111
-70.465	516.904	0.108	-0.250
-69.451	611.188	-0.097	-0.240
-68.436	193.060	-0.045	-0.067
-67.422	-200.000	0.047	-0.470
-66.407	620.980	0.061	0.151
-65.392	-53.285	-0.139	0.063
-64.378	-200.000	0.037	0.312
-63.363	-94.750	-0.195	0.052
-62.349	-200.000	0.058	0.261
-61.334	-28.599	-0.993	-0.566
-60.319	220.111	0.259	0.411
-59.305	-200.000	0.168	-1.214
-58.290	151.373	0.632	0.851
-57.276	205.012	0.912	1.400
-56.261	-200.000	91.284	530.556
-55.246	579.088	1387.076	3356.541
-54.232	186.005	2609.476	3835.709
-53.217	115.158	2318.352	2797.829
-52.203	44.782	1929.015	1754.331
-51.188	38.465	1715.367	1511.385
-50.173	35.658	1670.364	1450.526
-49.159	51.714	1716.909	1614.115
-48.144	55.017	1735.465	1656.771
-47.130	38.301	1692.250	1489.526
-46.115	35.293	1677.893	1454.060
-45.100	35.145	1672.793	1448.468
-44.086	35.059	1670.069	1445.403
-43.071	35.096	1667.162	1443.106
-42.057	35.103	1664.932	1441.176
-41.042	35.017	1663.592	1439.307
-40.027	35.073	1661.382	1437.758
-39.013	35.169	1659.273	1436.596
-37.998	35.076	1658.322	1435.020
-36.984	35.046	1656.789	1433.409
-35.969	35.268	1655.080	1433.540
-34.954	35.320	1653.371	1432.390
-33.940	35.198	1651.829	1430.087
-32.925	35.251	1649.925	1428.773
-31.911	35.253	1648.343	1427.363
-30.896	35.268	1646.074	1425.451
-29.881	35.064	1645.389	1423.283
-28.867	35.189	1643.115	1422.191
-27.852	35.233	1641.547	1421.101
-26.838	35.269	1640.298	1420.232
-25.823	35.337	1638.632	1419.240
-24.809	35.225	1637.739	1417.577
-23.794	35.237	1636.328	1416.387
-22.779	35.284	1634.613	1415.194
-21.765	35.236	1633.066	1413.448
-20.750	35.306	1631.131	1412.231
-19.736	35.323	1630.033	1411.350
-18.721	35.370	1628.144	1410.006
-17.706	35.239	1627.225	1408.188
-16.692	35.277	1625.041	1406.525
-15.677	35.163	1623.893	1404.636
-14.663	35.209	1622.482	1403.701
-13.648	35.278	1621.196	1403.035
-12.633	35.293	1619.567	1401.677
-11.619	35.263	1617.843	1399.914
-10.604	35.257	1616.637	1398.769
-9.590	35.307	1615.327	1397.944
-8.575	35.260	1614.023	1396.422
-7.560	35.183	1612.907	1394.839
-6.546	35.333	1611.424	1394.590
-5.531	35.240	1610.415	1392.986
-4.517	35.207	1609.157	1391.607
-3.502	35.222	1608.048	1390.700
-2.487	35.366	1606.810	1390.613
-1.473	35.560	1596.817	1383.309
-0.458	34.006	1579.789	1357.416
0.556	32.829	1579.482	1324.282
1.571	29.714	1602.457	1321.206
2.586	28.328	1613.394	1320.125
3.600	24.203	1557.937	1245.858
4.615	14.628	1444.808	1092.892
5.629	6.341	1378.029	990.337
6.644	4.773	1368.913	973.891
7.659	4.785	1367.425	972.822
8.673	4.857	1366.610	972.608
9.688	4.855	1365.265	971.554
10.702	4.798	1362.717	969.298
11.717	8.600	1369.914	998.087
12.731	17.196	1385.944	1063.724
13.746	22.483	1393.145	1102.338
14.761	22.463	1392.319	1101.461
15.775	21.560	1390.007	1093.894
16.790	20.561	1387.418	1085.527
17.804	19.766	1384.618	1078.281
18.819	19.341	1384.098	1075.130
19.834	19.064	1383.451	1072.809
20.848	19.031	1381.685	1071.138
21.863	18.844	1380.686	1069.102
22.877	18.762	1379.048	1067.229
23.892	18.691	1378.186	1066.032
24.907	18.671	1377.518	1065.292
25.921	18.720	1376.620	1064.812
26.936	18.719	1375.696	1063.996
27.950	18.801	1374.371	1063.381
28.965	18.847	1373.837	1063.161
29.980	18.917	1373.071	1062.907
30.994	19.046	1371.198	1062.157
32.009	19.156	1370.187	1061.959
33.023	18.965	1369.393	1060.073
34.038	18.894	1368.022	1058.479
35.053	18.808	1366.712	1056.847
36.067	18.889	1365.306	1056.163
37.082	18.872	1364.438	1055.292
38.096	18.996	1363.414	1055.171
39.111	19.033	1362.529	1054.619
40.126	18.862	1361.705	1052.838
41.140	18.533	1361.089	1050.255
42.155	18.394	1360.408	1048.787
43.169	18.439	1360.075	1048.708
44.184	18.410	1359.299	1047.842
45.199	18.533	1359.004	1048.274
46.213	18.635	1358.735	1048.599
47.228	18.789	1358.032	1048.904
48.242	18.798	1356.851	1047.950
49.257	18.759	1354.961	1046.161
50.271	18.741	1354.103	1045.299
51.286	18.818	1352.693	1044.586
52.301	18.756	1351.224	1042.980
53.315	18.658	1350.084	1041.415
54.330	18.486	1348.880	1039.350
55.344	18.518	1347.520	1038.405
56.359	18.480	1347.054	1037.724
57.374	18.539	1345.738	1036.976
58.388	18.438	1344.643	1035.430
59.403	18.367	1344.499	1034.795
60.417	18.392	1343.815	1034.331
61.432	18.350	1342.852	1033.245
62.447	18.270	1342.028	1032.037
63.461	18.255	1340.695	1030.829
64.476	18.204	1339.552	1029.553
65.490	18.279	1338.239	1028.901
66.505	18.316	1336.564	1027.745
67.520	18.226	1335.609	1026.379
68.534	18.348	1334.533	1026.196
69.549	18.346	1333.730	1025.475
70.563	18.166	1332.812	1023.604
71.578	18.087	1331.623	1022.124
72.593	18.025	1330.851	1021.071
73.607	18.097	1330.123	1020.852
74.622	18.025	1328.937	1019.422
75.636	18.154	1328.646	1019.878
76.651	18.224	1327.688	1019.468
77.666	18.231	1327.164	1019.019
78.680	18.222	1327.142	1018.856
79.695	18.315	1325.997	1018.440
80.709	18.324	1325.586	1018.088
81.724	18.461	1324.940	1018.316
82.739	18.652	1323.558	1018.296
83.753	18.691	1323.237	1018.195
84.768	18.792	1322.254	1017.946
85.782	18.912	1321.113	1017.687
86.797	18.910	1320.039	1016.759
87.812	18.897	1318.705	1015.563
88.826	18.884	1317.677	1014.603
89.841	18.783	1316.669	1013.144
90.855	18.889	1315.994	1013.158
91.870	19.021	1315.180	1013.219
92.884	18.957	1314.585	1012.299
93.899	19.041	1313.311	1011.719
94.914	19.079	1312.859	1011.507
95.928	19.001	1311.924	1010.238
96.943	18.901	1311.287	1009.069
97.957	18.827	1310.226	1007.728
98.972	18.926	1308.929	1007.223
99.987	18.957	1308.137	1006.705
101.001	18.938	1306.917	1005.565
102.016	18.941	1305.843	1004.667
103.030	18.790	1305.937	1003.772
104.045	18.960	1304.137	1003.289
105.060	18.811	1302.962	1001.429
106.074	18.514	1301.583	998.554
107.089	18.430	1299.718	996.546
108.103	18.253	1298.645	994.603
109.118	18.238	1297.562	993.601
110.133	18.288	1296.471	992.965
111.147	18.325	1294.821	991.832
112.162	18.317	1293.538	990.712
113.176	18.475	1292.596	990.815
114.191	18.505	1292.043	990.477
115.206	18.462	1290.973	989.323
116.220	18.476	1289.745	988.375
117.235	18.421	1288.458	986.982
118.249	18.355	1287.520	985.796
119.264	18.304	1286.278	984.468
120.279	18.222	1285.045	982.967
121.293	18.226	1283.779	981.931
122.308	18.045	1283.071	980.265
123.322	18.102	1282.021	979.703
124.337	18.166	1280.704	978.978
125.352	18.261	1279.884	978.805
126.366	18.074	1278.839	976.853
127.381	18.036	1277.934	975.857
128.395	18.138	1276.335	975.131
129.410	18.177	1275.856	974.901
130.424	18.299	1274.838	974.734
131.439	18.280	1274.515	974.290
132.454	18.487	1273.360	974.498
133.468	18.444	1272.679	973.651
134.483	18.362	1272.652	973.076
135.497	18.532	1270.831	972.558
136.512	18.505	1269.797	971.528
137.527	18.574	1268.179	970.595
138.541	18.569	1267.164	969.705
139.556	18.652	1265.799	969.042
140.570	18.728	1265.008	968.780
141.585	18.773	1263.884	968.089
142.600	18.878	1262.732	967.712
143.614	18.977	1261.949	967.584
144.629	18.989	1261.354	967.110
145.643	18.886	1260.262	965.607
146.658	18.849	1258.298	963.811
147.673	18.682	1256.663	961.537
148.687	18.608	1255.484	960.133
149.702	18.490	1254.356	958.529
150.716	18.413	1252.654	956.713
151.731	18.569	1251.310	956.470
152.746	18.499	1250.210	955.158
153.760	18.585	1249.792	955.229
154.775	18.697	1248.531	954.809
155.789	18.745	1247.507	954.203
156.804	18.777	1246.372	953.430
157.819	18.839	1245.581	953.085
158.833	18.830	1245.138	952.611
159.848	19.030	1244.058	952.807
160.862	19.011	1242.774	951.638
161.877	18.684	1241.487	948.758
162.892	18.594	1240.479	947.407
163.906	18.483	1239.753	946.159
164.921	18.549	1238.880	945.770
165.935	18.673	1237.859	945.593
166.950	18.731	1237.383	945.464
167.964	18.624	1236.677	944.253
168.979	18.680	1235.740	943.762
169.994	18.631	1235.062	942.892
171.008	18.725	1234.252	942.703
172.023	18.873	1233.307	942.710
173.037	18.957	1232.625	942.567
174.052	18.891	1231.879	941.551
175.067	18.690	1230.588	939.381
176.081	18.620	1229.295	937.927
177.096	18.661	1228.417	937.399
178.110	18.612	1227.602	936.428
179.125	18.635	1226.705	935.785
180.140	18.682	1225.358	934.932
181.154	18.839	1224.063	934.715
182.169	18.981	1222.767	934.417
183.183	18.974	1222.124	933.804
184.198	18.991	1220.893	932.871
185.213	19.013	1219.619	931.937
186.227	19.080	1218.860	931.634
187.242	19.131	1217.875	931.074
188.256	19.135	1217.100	930.419
189.271	19.288	1215.839	930.201
190.286	19.098	1214.656	928.190
191.300	18.610	1213.873	924.879
192.315	18.513	1212.599	923.306
193.329	18.490	1212.327	922.890
194.344	18.678	1211.733	923.369
195.359	18.776	1211.173	923.388
196.373	18.821	1210.881	923.327
197.388	18.921	1210.623	923.582
198.402	19.222	1210.035	924.670
199.417	19.283	1209.647	924.620
200.432	19.355	1209.034	924.454
201.446	19.405	1208.158	923.969
202.461	19.519	1207.409	923.924
203.475	19.537	1205.829	922.729
204.490	19.256	1204.751	920.325
205.504	19.180	1203.474	918.862
206.519	19.095	1202.456	917.550
207.534	19.089	1200.943	916.281
208.548	19.144	1199.761	915.592
209.563	19.233	1199.215	915.570
210.577	19.139	1198.762	914.639
211.592	19.202	1197.920	914.251
212.607	19.319	1197.365	914.368
213.621	19.340	1196.493	913.734
214.636	19.228	1195.959	912.648
215.650	19.237	1194.676	911.640
216.665	19.437	1193.742	911.905
217.680	19.567	1192.943	911.899
218.694	19.562	1192.165	911.195
219.709	19.600	1190.810	910.283
220.723	19.561	1190.284	909.594
221.738	19.452	1189.906	908.648
222.753	19.474	1189.065	908.041
223.767	19.583	1188.014	907.733
224.782	19.678	1187.950	908.102
225.796	19.597	1187.801	907.480
226.811	19.655	1186.353	906.599
227.826	19.562	1185.865	905.658
228.840	19.506	1184.760	904.440
229.855	19.490	1183.980	903.684
230.869	19.601	1182.965	903.410
231.884	19.354	1182.521	901.696
232.899	19.338	1181.680	900.895
233.913	19.224	1180.916	899.634
234.928	19.231	1180.452	899.237
235.942	19.259	1179.277	898.410
236.957	19.238	1178.812	897.866
237.972	19.249	1177.863	897.123
238.986	19.201	1177.432	896.464
240.001	19.271	1176.454	896.006
241.015	19.301	1175.530	895.377
242.030	19.360	1174.737	895.000
243.045	19.558	1174.012	895.395
244.059	19.569	1173.552	895.024
245.074	19.567	1172.433	894.078
246.088	19.619	1172.167	894.065
247.103	19.672	1171.236	893.555
248.117	19.824	1170.730	893.871
249.132	19.954	1169.919	893.844
250.147	20.191	1169.470	894.649
251.161	20.175	1168.857	894.015
252.176	20.285	1168.193	893.996
253.190	20.245	1167.994	893.557
254.205	20.331	1167.645	893.657
255.220	20.458	1166.425	893.294
256.234	20.269	1165.896	891.841
257.249	20.277	1165.272	891.322
258.263	20.327	1164.646	891.023
259.278	20.319	1163.708	890.186
260.293	20.354	1163.425	890.068
261.307	20.352	1163.193	889.803
262.322	20.493	1162.089	889.604
263.336	20.486	1161.373	888.941
264.351	20.505	1161.076	888.732
265.366	20.602	1159.880	888.234
266.380	20.534	1159.616	887.603
267.395	20.432	1158.254	885.961
268.409	20.383	1157.192	884.822
269.424	20.269	1157.102	884.095
270.439	20.401	1156.245	884.036
271.453	20.201	1155.552	882.405
272.468	20.148	1154.295	881.100
273.482	20.266	1153.579	881.076
274.497	20.143	1153.233	880.107
275.512	20.281	1152.447	880.132
276.526	20.301	1151.725	879.601
277.541	20.260	1151.253	878.959
278.555	20.278	1150.583	878.456
279.570	20.354	1149.926	878.262
280.585	20.545	1149.221	878.614
281.599	20.502	1148.245	877.574
282.614	20.508	1146.814	876.432
283.628	20.354	1145.768	874.780
284.643	20.355	1144.646	873.850
285.657	20.373	1143.751	873.182
286.672	20.344	1143.227	872.558
287.687	20.404	1142.265	872.046
288.701	20.496	1141.225	871.639
289.716	20.416	1140.497	870.600
290.730	20.444	1139.711	870.068
291.745	20.444	1139.684	869.968
292.760	20.615	1138.612	869.931
293.774	20.546	1138.055	869.082
294.789	20.638	1138.412	869.736
295.803	20.622	1137.247	868.691
296.818	20.535	1136.308	867.460
297.833	20.378	1135.392	865.903
298.847	20.541	1134.644	866.067
299.862	20.568	1133.924	865.575
300.876	20.497	1133.215	864.606
301.891	20.616	1132.756	864.771
302.906	20.729	1131.799	864.526
303.920	20.832	1130.971	864.327
304.935	21.046	1130.207	864.729
305.949	21.072	1130.149	864.735
306.964	20.904	1129.961	863.680
307.979	20.964	1128.530	862.808
308.993	20.801	1127.666	861.265
310.008	20.990	1127.121	861.706
311.022	20.977	1126.558	861.136
312.037	20.927	1125.738	860.185
313.052	20.784	1124.660	858.580
314.066	20.637	1123.341	856.775
315.081	20.514	1122.713	855.613
316.095	20.482	1121.923	854.778
317.110	20.533	1121.338	854.506
318.125	20.583	1120.530	854.063
319.139	20.580	1119.927	853.512
320.154	20.571	1119.429	853.016
321.168	20.570	1118.550	852.264
322.183	20.616	1118.089	852.064
323.197	20.631	1117.416	851.547
324.212	20.692	1117.075	851.512
325.227	20.688	1116.057	850.639
326.241	20.770	1115.513	850.552
327.256	20.745	1114.737	849.762
328.270	20.681	1113.952	848.775
329.285	20.700	1112.861	847.962
330.300	20.739	1111.689	847.185
331.314	20.676	1110.656	846.015
332.329	20.694	1110.148	845.643
333.343	20.809	1109.038	845.280
334.358	20.938	1108.443	845.378
335.373	20.901	1108.325	845.031
336.387	20.971	1107.174	844.419
337.402	21.045	1106.451	844.151
338.416	20.990	1105.976	843.450
339.431	21.064	1105.358	843.260
340.446	21.305	1104.582	843.758
341.460	21.327	1104.093	843.414
342.475	21.343	1103.315	842.824
343.489	21.526	1102.191	842.772
344.504	21.460	1101.426	841.795
345.519	21.468	1100.891	841.349
346.533	21.639	1099.861	841.309
347.548	21.632	1099.458	840.890
348.562	21.615	1098.335	839.876
349.577	21.375	1097.606	838.095
350.592	21.224	1096.499	836.455
351.606	21.172	1095.802	835.596
352.621	21.002	1095.190	834.245
353.635	21.031	1094.450	833.746
354.650	21.109	1093.706	833.478
355.665	21.028	1093.397	832.783
356.679	21.253	1092.346	832.983
357.694	21.315	1091.727	832.730
358.708	21.272	1091.336	832.155
359.723	21.389	1090.749	832.189
360.738	21.302	1090.183	831.271
361.752	21.407	1089.502	831.178
362.767	21.314	1089.041	830.311
363.781	21.389	1088.728	830.355
364.796	21.579	1087.828	830.497
365.810	21.589	1087.783	830.433
366.825	21.702	1086.827	830.167
367.840	21.873	1086.175	830.406
368.854	21.955	1085.917	830.524
369.869	21.812	1085.187	829.212
370.883	21.798	1083.978	828.150
371.898	21.661	1083.452	827.030
372.913	21.698	1082.574	826.460
373.927	21.743	1082.415	826.479
374.942	21.793	1081.984	826.311
375.956	21.896	1081.177	826.105
376.971	21.912	1080.233	825.389
377.986	21.809	1080.200	824.804
379.000	21.930	1079.633	824.869
380.015	22.051	1079.084	824.942
381.029	22.072	1078.356	824.414
382.044	22.163	1077.153	823.848
383.059	21.901	1076.839	822.308
384.073	22.025	1075.924	822.114
385.088	22.051	1075.315	821.700
386.102	22.042	1074.191	820.727
387.117	21.949	1073.149	819.420
388.132	21.702	1072.310	817.556
389.146	21.729	1071.048	816.648
390.161	21.675	1070.618	815.995
391.175	21.862	1069.556	815.987
392.190	21.832	1069.593	815.799
393.205	22.012	1068.814	815.971
394.219	22.003	1068.005	815.242
395.234	21.859	1066.724	813.522
396.248	21.866	1066.023	812.948
397.263	21.887	1064.674	811.943
398.278	21.736	1064.254	810.853
399.292	21.653	1063.246	809.628
400.307	21.592	1062.636	808.812
401.321	21.589	1061.909	808.172
402.336	21.779	1061.339	808.545
403.350	21.651	1061.053	807.664
404.365	21.668	1060.182	807.011
405.380	21.914	1059.179	807.307
406.394	21.783	1058.850	806.383
407.409	22.065	1058.046	806.996
408.423	22.056	1057.698	806.617
409.438	22.163	1056.528	806.142
410.453	22.232	1056.039	806.017
411.467	22.254	1055.381	805.541
412.482	22.317	1054.960	805.440
413.496	22.419	1054.149	805.213
414.511	22.369	1053.496	804.413
415.526	22.390	1053.539	804.474
416.540	22.637	1052.733	804.915
417.555	22.547	1052.178	804.010
418.569	22.595	1051.358	803.529
419.584	22.508	1050.911	802.720
420.599	22.612	1050.423	802.748
421.613	153.185	1399.811	1788.167
422.628	140.543	1450.716	1788.280
