DTS Sentinel unit serial number:	SN413079Multiplexer serial number:	ORYXHardware model number:	OX4-SRSoftware version number:	ORYX F/W v4.00 Oryx Data Collector v3.7.2.0data status	okinstallation	princeton_trtdifferential loss correction	single-endedforward channel	channel 2reverse channel	N/Adate	2019/09/17time	06:47:35forward acquisition time	60.00reverse acquisition time	0.00gamma	496.2192k internal	0.2333k external	0.2333temperature offset calibration	0.9981default loss term (dB/km)	0.3790temperature slope calibration	1.0000multiplexer offset coefficient	1.0000multiplexer slope coefficient	1.0000fibre end	0.00T internal ref (°C)	27.78T ext. ref 1 (°C)	0.13T ext. ref 2 (°C)	21.13length (m)	temperature (°C)	Stokes	anti-Stokes-747.200	-200.000	-0.016	-0.143
-746.185	-173.808	-0.189	-0.006
-745.171	-46.689	0.048	0.024
-744.156	-200.000	-0.030	0.204
-743.142	114.415	-0.184	-0.225
-742.127	72.034	0.203	0.213
-741.112	-200.000	-0.012	-0.226
-740.098	422.990	0.125	0.269
-739.083	132.242	-0.256	0.332
-738.069	134.976	0.136	-0.178
-737.054	-123.730	-0.289	-0.046
-736.039	423.541	-0.106	-0.229
-735.025	-137.280	-0.494	-0.056
-734.010	-59.528	-0.391	-0.169
-732.996	195.018	-0.237	-0.362
-731.981	10.941	-0.034	-0.026
-730.966	-155.877	0.076	-0.005
-729.952	532.596	-0.044	0.104
-728.937	-200.000	0.019	-0.319
-727.923	98.840	0.140	-0.163
-726.908	-78.255	-0.177	-0.061
-725.894	-200.000	-0.033	-0.174
-724.879	-152.820	-0.248	0.018
-723.864	-28.312	-0.189	-0.109
-722.850	-38.366	-0.363	-0.193
-721.835	-96.670	0.180	0.048
-720.821	218.028	0.041	0.065
-719.806	417.586	-0.070	0.151
-718.791	-25.746	-0.198	0.117
-717.777	102.195	-0.237	-0.278
-716.762	-118.256	-0.158	0.028
-715.748	800.000	-0.079	0.225
-714.733	-129.342	-0.221	0.031
-713.718	-28.420	0.086	-0.050
-712.704	167.235	-0.145	0.207
-711.689	84.412	-0.086	0.094
-710.675	-49.274	0.013	-0.006
-709.660	455.202	0.150	-0.334
-708.645	-200.000	0.009	0.055
-707.631	59.869	-0.267	-0.265
-706.616	449.680	-0.095	-0.211
-705.602	25.679	0.113	0.095
-704.587	-200.000	-0.002	-0.049
-703.572	800.000	-0.024	-0.071
-702.558	60.455	0.126	0.126
-701.543	800.000	-0.095	-0.288
-700.529	-18.976	-0.318	0.198
-699.514	515.544	0.066	-0.154
-698.499	-200.000	0.018	-0.344
-697.485	67.523	0.064	0.066
-696.470	-35.445	0.187	-0.102
-695.456	-200.000	-0.037	-0.188
-694.441	-145.681	0.129	0.012
-693.426	800.000	-0.050	-0.214
-692.412	166.545	-0.167	0.238
-691.397	800.000	-0.066	0.188
-690.383	512.235	0.077	0.180
-689.368	-29.581	-0.143	0.082
-688.354	525.250	0.130	0.307
-687.339	-110.507	0.518	-0.108
-686.324	155.087	0.170	-0.234
-685.310	294.818	0.032	-0.059
-684.295	-152.679	-0.352	-0.025
-683.281	800.000	0.052	-0.218
-682.266	46.954	-0.211	0.197
-681.251	34.246	-0.025	-0.022
-680.237	737.336	0.115	-0.309
-679.222	-87.144	-0.096	-0.029
-678.208	-108.496	0.545	-0.118
-677.193	-5.777	-0.141	-0.097
-676.178	137.941	0.116	0.152
-675.164	379.335	-0.058	0.120
-674.149	-41.619	0.026	-0.013
-673.135	-70.432	0.490	-0.186
-672.120	-78.436	-0.367	0.126
-671.105	-62.205	-0.184	0.077
-670.091	-92.876	0.287	-0.080
-669.076	-200.000	0.043	0.229
-668.062	-8.104	-0.184	-0.125
-667.047	-50.632	-0.196	-0.093
-666.032	-139.294	0.270	0.029
-665.018	2.474	-0.114	-0.082
-664.003	24.022	0.162	-0.134
-662.989	61.580	-0.052	-0.052
-661.974	-200.000	-0.008	-0.195
-660.959	800.000	-0.042	0.129
-659.945	-62.496	-0.199	-0.083
-658.930	33.673	0.070	-0.061
-657.916	-88.550	-0.215	-0.064
-656.901	110.475	0.190	-0.229
-655.886	-0.244	-0.281	-0.201
-654.872	-24.521	-0.349	0.208
-653.857	-20.855	-0.238	-0.146
-652.843	800.000	-0.061	0.176
-651.828	358.396	-0.063	0.125
-650.814	-50.893	-0.063	0.030
-649.799	-124.977	0.258	0.040
-648.784	-8.920	0.143	-0.096
-647.770	-200.000	-0.031	-0.304
-646.755	800.000	0.086	-0.242
-645.741	-200.000	-0.049	-0.302
-644.726	-92.105	0.119	0.034
-643.711	-28.473	0.230	-0.133
-642.697	-85.624	0.291	-0.090
-641.682	145.461	-0.164	-0.220
-640.668	-200.000	-0.040	0.230
-639.653	-149.998	0.060	-0.005
-638.638	-89.858	-0.056	0.016
-637.624	-171.228	-0.045	0.002
-636.609	-151.984	-0.302	0.022
-635.595	-200.000	-0.022	0.174
-634.580	800.000	-0.239	-0.802
-633.565	361.089	0.097	-0.195
-632.551	-161.302	-0.131	-0.007
-631.536	-200.000	-0.008	0.139
-630.522	-57.724	0.136	-0.060
-629.507	93.364	0.084	0.095
-628.492	-132.750	-0.083	0.011
-627.478	-200.000	-0.021	0.119
-626.463	-168.897	0.217	-0.008
-625.449	110.827	-0.183	-0.221
-624.434	-42.751	-0.173	-0.088
-623.419	-44.538	-0.369	0.185
-622.405	-72.194	-0.276	-0.103
-621.390	352.956	-0.110	-0.219
-620.376	-133.103	0.116	-0.015
-619.361	-69.580	-0.350	0.134
-618.346	-126.544	0.072	-0.011
-617.332	563.406	-0.141	-0.342
-616.317	-148.028	-0.068	0.006
-615.303	800.000	-0.040	0.127
-614.288	-67.181	0.140	-0.055
-613.273	-71.842	0.032	0.012
-612.259	121.020	-0.162	0.202
-611.244	-175.163	0.205	0.006
-610.230	-109.620	0.155	0.033
-609.215	-200.000	-0.040	-0.203
-608.201	89.047	0.140	-0.156
-607.186	800.000	0.053	0.206
-606.171	800.000	-0.025	-0.077
-605.157	78.202	-0.064	0.069
-604.142	-200.000	-0.056	-0.258
-603.128	-5.780	-0.362	-0.248
-602.113	-64.663	0.082	-0.033
-601.098	800.000	0.110	0.304
-600.084	201.307	-0.085	0.131
-599.069	-200.000	-0.025	0.195
-598.055	-29.088	-0.067	0.038
-597.040	-49.180	0.184	-0.088
-596.025	-109.719	-0.230	0.048
-595.011	-104.239	-0.243	0.056
-593.996	388.210	0.111	-0.230
-592.982	-116.483	-0.019	0.003
-591.967	347.608	0.065	0.129
-590.952	800.000	0.128	0.389
-589.938	-15.730	-0.311	0.198
-588.923	298.450	-0.049	0.090
-587.909	173.338	-0.148	0.213
-586.894	114.370	0.148	-0.180
-585.879	-147.285	0.206	-0.017
-584.865	219.044	0.069	0.111
-583.850	81.772	0.197	0.213
-582.836	-200.000	-0.050	-0.231
-581.821	-172.211	-0.241	0.008
-580.806	-132.337	0.187	0.024
-579.792	-101.843	0.198	0.048
-578.777	230.299	-0.078	0.127
-577.763	-126.485	0.232	-0.034
-576.748	-75.735	-0.134	-0.048
-575.733	3.881	0.105	0.077
-574.719	254.284	0.148	-0.254
-573.704	-49.471	0.060	-0.029
-572.690	-92.286	-0.287	0.081
-571.675	418.554	0.099	0.211
-570.661	198.567	-0.101	0.154
-569.646	160.738	-0.146	-0.204
-568.631	-200.000	0.019	-0.106
-567.617	125.522	-0.119	0.150
-566.602	-200.000	0.030	0.299
-565.588	366.087	0.039	-0.078
-564.573	205.454	0.159	0.246
-563.558	800.000	0.017	-0.063
-562.544	-200.000	-0.023	0.196
-561.529	68.738	-0.066	-0.068
-560.515	-156.721	-0.437	-0.027
-559.500	-6.306	0.206	-0.141
-558.485	-91.744	0.198	-0.056
-557.471	800.000	-0.109	0.308
-556.456	-200.000	-0.004	0.174
-555.442	-131.994	0.122	-0.016
-554.427	116.604	-0.111	0.136
-553.412	-3.524	-0.238	0.165
-552.398	-200.000	-0.027	0.135
-551.383	35.891	0.242	-0.213
-550.369	713.682	0.046	0.122
-549.354	-138.571	0.089	-0.010
-548.339	190.570	0.139	-0.209
-547.325	-200.000	-0.023	0.225
-546.310	800.000	0.076	0.254
-545.296	-147.006	-0.527	-0.045
-544.281	800.000	0.049	0.193
-543.266	-200.000	0.014	0.207
-542.252	800.000	-0.096	-0.387
-541.237	800.000	-0.091	-0.370
-540.223	-200.000	0.022	0.296
-539.208	-200.000	-0.036	-0.160
-538.193	-200.000	0.024	-0.339
-537.179	437.427	-0.217	-0.472
-536.164	58.651	0.105	-0.103
-535.150	54.545	0.009	-0.008
-534.135	206.794	0.110	0.171
-533.121	800.000	-0.036	0.145
-532.106	1.691	0.163	-0.117
-531.091	12.408	-0.135	0.104
-530.077	555.707	0.137	-0.330
-529.062	-58.171	-0.085	0.037
-528.048	651.466	-0.049	0.125
-527.033	-67.698	0.164	0.064
-526.018	-85.645	0.220	0.068
-525.004	-50.264	0.168	-0.079
-523.989	-189.064	-0.270	-0.003
-522.975	-68.490	-0.241	-0.093
-521.960	24.552	0.086	0.071
-520.945	-200.000	0.102	-0.510
-519.931	800.000	-0.073	0.297
-518.916	-59.076	0.209	0.090
-517.902	-11.503	-0.292	-0.191
-516.887	5.090	-0.174	-0.128
-515.872	107.293	-0.249	-0.295
-514.858	-200.000	0.066	0.310
-513.843	-200.000	-0.022	-0.223
-512.829	-139.947	-0.120	0.013
-511.814	-67.282	-0.287	-0.113
-510.799	800.000	0.064	0.229
-509.785	151.204	-0.191	-0.259
-508.770	-200.000	0.019	-0.141
-507.756	291.988	0.114	0.206
-506.741	-200.000	0.071	-0.367
-505.726	478.911	-0.031	-0.071
-504.712	92.103	-0.083	-0.093
-503.697	-105.515	-0.168	-0.038
-502.683	95.319	-0.243	-0.276
-501.668	-200.000	0.037	-0.223
-500.653	800.000	0.138	0.420
-499.639	800.000	-0.094	0.270
-498.624	475.657	-0.070	0.157
-497.610	-200.000	0.006	-0.155
-496.595	705.244	0.069	0.181
-495.581	800.000	0.024	0.067
-494.566	-55.677	-0.302	-0.135
-493.551	66.792	-0.144	0.146
-492.537	-40.500	-0.092	0.048
-491.522	753.256	0.121	0.325
-490.508	-76.326	-0.274	-0.096
-489.493	-99.723	0.203	0.051
-488.478	-148.149	0.407	0.034
-487.464	-200.000	-0.028	-0.261
-486.449	800.000	-0.072	-0.239
-485.435	163.689	0.174	-0.244
-484.420	-97.445	0.199	0.051
-483.405	-173.566	0.247	-0.007
-482.391	-68.290	-0.330	0.128
-481.376	252.887	0.215	0.366
-480.362	155.001	0.073	-0.099
-479.347	-84.635	-0.257	0.081
-478.332	-157.849	-0.284	-0.017
-477.318	-98.513	0.381	0.097
-476.303	-200.000	-0.016	-0.197
-475.289	-200.000	0.083	0.375
-474.274	-16.546	-0.205	0.129
-473.259	30.055	-0.074	0.063
-472.245	102.287	0.123	0.143
-471.230	-104.293	-0.254	-0.059
-470.216	800.000	-0.068	0.220
-469.201	-99.786	0.098	0.025
-468.186	-139.287	0.262	-0.028
-467.172	61.917	0.146	-0.145
-466.157	0.329	0.119	0.084
-465.143	6.337	-0.172	0.127
-464.128	-9.664	-0.273	0.181
-463.113	-122.556	-0.080	0.013
-462.099	-43.621	-0.265	-0.133
-461.084	184.217	0.104	0.153
-460.070	635.926	-0.134	0.338
-459.055	-52.372	-0.106	0.049
-458.040	26.835	-0.117	-0.097
-457.026	800.000	-0.088	-0.251
-456.011	-200.000	-0.028	0.159
-454.997	-200.000	-0.032	0.269
-453.982	226.157	0.109	-0.175
-452.968	-152.292	-0.095	-0.007
-451.953	-116.506	-0.356	-0.065
-450.938	-34.192	-0.049	0.027
-449.924	97.667	0.204	0.234
-448.909	33.543	-0.232	0.200
-447.895	-72.863	-0.269	0.098
-446.880	10.689	0.068	0.052
-445.865	-15.463	-0.444	-0.282
-444.851	17.097	0.465	-0.366
-443.836	-64.240	-0.323	0.131
-442.822	55.268	-0.107	-0.103
-441.807	-200.000	-0.031	-0.224
-440.792	-2.449	0.143	0.100
-439.778	313.051	0.118	0.221
-438.763	-200.000	0.020	0.105
-437.749	-109.372	0.204	-0.043
-436.734	333.416	-0.052	0.099
-435.719	-138.621	0.102	0.011
-434.705	31.342	0.166	-0.142
-433.690	-76.394	-0.198	-0.069
-432.676	800.000	0.081	0.276
-431.661	-200.000	-0.019	0.257
-430.646	-200.000	0.013	0.131
-429.632	313.527	-0.142	-0.265
-428.617	23.235	-0.204	-0.166
-427.603	146.889	0.170	-0.226
-426.588	-164.962	0.156	-0.007
-425.573	-34.333	0.199	0.109
-424.559	468.886	0.109	0.243
-423.544	-114.411	-0.036	-0.007
-422.530	67.926	-0.177	-0.180
-421.515	55.427	0.127	0.122
-420.500	64.701	0.084	0.084
-419.486	160.243	0.141	-0.196
-418.471	-163.164	0.195	-0.009
-417.457	176.862	-0.121	-0.175
-416.442	-27.300	0.279	-0.161
-415.428	58.894	-0.142	0.138
-414.413	118.155	0.213	-0.261
-413.398	-177.607	-0.166	0.004
-412.384	800.000	0.047	0.162
-411.369	353.615	0.058	0.114
-410.355	-31.449	-0.314	0.175
-409.340	72.816	0.109	-0.113
-408.325	20.226	0.191	0.153
-407.311	-4.863	-0.242	0.165
-406.296	-74.473	-0.314	-0.112
-405.282	238.194	0.213	0.351
-404.267	100.873	0.135	-0.156
-403.252	764.221	0.041	0.110
-402.238	-200.000	0.008	-0.201
-401.223	-200.000	0.028	-0.274
-400.209	-57.314	-0.137	-0.060
-399.194	160.123	-0.148	0.204
-398.179	-42.176	-0.324	-0.164
-397.165	-18.747	-0.201	-0.124
-396.150	789.697	0.102	-0.278
-395.136	-200.000	-0.035	0.330
-394.121	-95.067	0.169	-0.045
-393.106	-164.258	0.075	0.003
-392.092	61.623	0.086	-0.085
-391.077	-200.000	-0.011	0.268
-390.063	-200.000	0.012	0.259
-389.048	57.925	-0.167	0.162
-388.033	-3.894	-0.138	0.095
-387.019	1.761	-0.116	-0.083
-386.004	68.303	-0.277	-0.281
-384.990	-34.063	0.083	-0.045
-383.975	330.205	0.022	0.041
-382.960	-33.127	0.149	0.082
-381.946	-6.827	0.033	-0.022
-380.931	-200.000	0.018	-0.126
-379.917	150.019	-0.194	0.261
-378.902	-103.635	0.186	0.043
-377.888	53.515	0.286	-0.272
-376.873	-97.762	-0.170	-0.044
-375.858	116.304	0.063	0.077
-374.844	475.100	-0.115	-0.258
-373.829	444.004	-0.083	-0.181
-372.815	-200.000	0.002	0.014
-371.800	-73.374	-0.213	0.077
-370.785	171.541	-0.100	0.143
-369.771	-131.758	-0.272	0.035
-368.756	-7.390	0.266	-0.178
-367.742	19.060	0.141	-0.112
-366.727	108.533	0.193	-0.229
-365.712	-18.218	0.152	0.094
-364.698	-14.898	0.093	0.059
-363.683	-63.132	-0.069	0.028
-362.669	48.729	0.153	0.143
-361.654	43.154	0.100	-0.090
-360.639	-145.554	-0.199	-0.018
-359.625	-69.001	-0.254	-0.097
-358.610	687.761	-0.034	0.088
-357.596	-79.065	0.165	-0.056
-356.581	-200.000	0.017	0.400
-355.566	-134.918	0.128	-0.015
-354.552	-149.417	0.132	-0.010
-353.537	142.472	0.161	0.212
-352.523	-200.000	-0.013	0.254
-351.508	70.416	-0.140	0.143
-350.493	-18.141	0.065	0.040
-349.479	-200.000	0.009	0.295
-348.464	800.000	-0.142	0.452
-347.450	-147.767	-0.305	-0.025
-346.435	-37.594	-0.198	0.104
-345.420	-112.101	0.256	0.051
-344.406	-153.976	-0.323	0.022
-343.391	800.000	0.046	0.157
-342.377	-104.116	-0.328	-0.076
-341.362	800.000	-0.090	0.251
-340.348	63.100	0.128	0.127
-339.333	-70.145	-0.167	-0.063
-338.318	-200.000	-0.030	-0.367
-337.304	35.061	-0.339	-0.294
-336.289	800.000	-0.086	0.307
-335.275	-200.000	-0.053	-0.256
-334.260	1.577	-0.123	0.087
-333.245	-200.000	0.054	-0.354
-332.231	-200.000	-0.012	-0.125
-331.216	-163.251	-0.293	-0.014
-330.202	-8.542	0.040	-0.027
-329.187	-200.000	-0.044	0.203
-328.172	-80.508	0.062	-0.021
-327.158	127.006	0.087	0.110
-326.143	-86.805	-0.225	-0.068
-325.129	-75.214	0.387	-0.137
-324.114	-200.000	-0.001	0.053
-323.099	-200.000	-0.016	0.074
-322.085	448.229	-0.169	-0.367
-321.070	-20.920	-0.163	0.099
-320.056	-124.205	0.486	-0.075
-319.041	-42.596	0.047	-0.024
-318.026	-43.993	0.293	-0.145
-317.012	27.324	0.120	0.100
-315.997	-56.564	0.390	0.171
-314.983	67.549	0.149	0.150
-313.968	800.000	-0.039	-0.122
-312.953	-200.000	0.001	-0.096
-311.939	-89.656	-0.210	-0.061
-310.924	249.548	-0.075	-0.125
-309.910	-86.702	0.472	-0.143
-308.895	100.032	0.151	-0.173
-307.880	800.000	-0.045	0.176
-306.866	-200.000	0.023	0.143
-305.851	-200.000	0.045	-0.272
-304.837	800.000	-0.056	0.173
-303.822	-200.000	-0.056	0.295
-302.807	-200.000	-0.041	-0.257
-301.793	-34.745	0.224	0.121
-300.778	-6.938	-0.303	0.204
-299.764	58.445	-0.265	-0.257
-298.749	-95.628	0.123	0.033
-297.735	103.497	0.249	0.289
-296.720	125.212	-0.011	0.014
-295.705	800.000	-0.070	-0.223
-294.691	638.435	-0.110	0.275
-293.676	-93.526	0.255	-0.070
-292.662	153.888	-0.280	0.379
-291.647	98.069	-0.133	0.151
-290.632	-200.000	0.005	0.076
-289.618	-200.000	-0.074	0.343
-288.603	-42.532	0.203	-0.102
-287.589	-102.215	0.362	0.086
-286.574	-107.970	0.135	-0.029
-285.559	-200.000	-0.002	0.385
-284.545	-0.304	0.136	0.096
-283.530	132.887	0.121	-0.154
-282.516	-108.670	-0.120	-0.025
-281.501	800.000	0.062	0.200
-280.486	-79.555	-0.175	-0.058
-279.472	-200.000	-0.006	-0.164
-278.457	379.406	-0.127	0.256
-277.443	247.027	0.157	-0.262
-276.428	327.476	0.212	0.401
-275.413	71.195	0.270	0.276
-274.399	-59.400	-0.259	-0.110
-273.384	69.198	-0.126	-0.128
-272.370	-15.684	0.192	-0.121
-271.355	-174.885	0.262	-0.007
-270.340	170.367	-0.177	0.250
-269.326	156.714	0.155	0.211
-268.311	270.053	-0.156	-0.270
-267.297	-94.219	-0.189	-0.051
-266.282	79.119	0.178	0.188
-265.267	690.349	-0.114	0.293
-264.253	-70.525	0.066	0.025
-263.238	148.874	0.212	-0.283
-262.224	57.696	0.170	0.164
-261.209	147.891	-0.103	-0.137
-260.195	78.854	0.032	0.034
-259.180	-107.491	-0.128	-0.028
-258.165	800.000	-0.010	-0.042
-257.151	-112.256	0.091	-0.018
-256.136	-97.655	-0.071	0.018
-255.122	-147.974	0.193	0.016
-254.107	-41.560	0.126	-0.064
-253.092	800.000	0.037	0.155
-252.078	-200.000	-0.001	-0.302
-251.063	-65.497	-0.274	-0.109
-250.049	800.000	-0.067	-0.203
-249.034	576.455	0.139	-0.335
-248.019	-57.089	0.071	-0.031
-247.005	-200.000	-0.008	-0.045
-245.990	492.825	-0.033	-0.075
-244.976	-157.082	-0.173	-0.010
-243.961	-132.864	0.189	0.024
-242.946	-125.701	-0.228	0.034
-241.932	-142.922	-0.195	-0.019
-240.917	40.229	-0.136	-0.121
-239.903	-44.076	0.214	0.106
-238.888	370.704	0.061	0.122
-237.873	-46.341	0.004	0.002
-236.859	525.431	0.237	-0.551
-235.844	800.000	0.033	-0.121
-234.830	-102.643	-0.253	0.060
-233.815	800.000	0.045	-0.163
-232.800	-83.993	0.287	-0.090
-231.786	272.988	-0.066	0.115
-230.771	-200.000	0.063	0.283
-229.757	598.827	0.020	0.048
-228.742	114.715	0.093	0.111
-227.727	-145.296	0.078	-0.007
-226.713	216.130	0.061	-0.095
-225.698	103.148	-0.033	0.038
-224.684	-74.689	-0.074	0.026
-223.669	245.161	0.164	-0.272
-222.655	36.661	-0.135	-0.117
-221.640	-200.000	-0.042	0.250
-220.625	-200.000	-0.086	0.377
-219.611	-30.414	0.268	-0.150
-218.596	32.086	0.055	0.047
-217.582	382.322	0.070	0.142
-216.567	-29.121	0.314	-0.178
-215.552	91.100	-0.121	-0.134
-214.538	800.000	-0.063	-0.215
-213.523	800.000	0.096	-0.374
-212.509	-76.371	-0.270	-0.094
-211.494	230.858	0.072	-0.116
-210.479	61.905	0.145	0.143
-209.465	165.649	-0.053	-0.074
-208.450	800.000	0.096	0.280
-207.436	-164.536	-0.292	0.013
-206.421	-200.000	0.053	0.329
-205.406	-42.501	-0.221	-0.111
-204.392	40.445	0.059	-0.052
-203.377	253.673	-0.153	-0.258
-202.363	139.035	-0.116	0.150
-201.348	513.738	-0.096	0.221
-200.333	715.427	0.067	-0.175
-199.319	-133.272	0.181	0.022
-198.304	111.935	0.362	-0.430
-197.290	-31.148	0.136	0.076
-196.275	518.080	0.079	0.183
-195.260	13.943	0.066	0.050
-194.246	-200.000	0.027	-0.143
-193.231	-48.380	0.031	-0.015
-192.217	-118.509	-0.071	-0.012
-191.202	305.979	0.148	-0.270
-190.187	-87.958	-0.309	0.092
-189.173	-200.000	-0.011	0.160
-188.158	-18.932	-0.227	-0.139
-187.144	-17.029	0.245	-0.152
-186.129	-52.362	0.096	-0.044
-185.114	-35.439	0.176	-0.094
-184.100	177.793	0.084	-0.120
-183.085	-7.267	0.227	0.151
-182.071	-70.362	-0.141	0.053
-181.056	14.778	-0.295	-0.227
-180.042	800.000	-0.066	-0.209
-179.027	-75.362	-0.186	-0.065
-178.012	-81.454	0.350	-0.113
-176.998	-31.521	-0.134	-0.074
-175.983	-200.000	-0.073	-0.352
-174.969	-42.246	-0.048	0.024
-173.954	526.443	-0.114	0.264
-172.939	800.000	0.047	0.182
-171.925	800.000	0.081	0.301
-170.910	3.697	-0.217	0.156
-169.896	800.000	-0.020	0.068
-168.881	-46.383	0.389	0.188
-167.866	-56.853	-0.348	0.151
-166.852	-51.283	0.143	-0.066
-165.837	320.326	0.058	0.109
-164.823	-200.000	0.011	-0.153
-163.808	-61.899	0.240	-0.099
-162.793	-46.868	0.172	0.083
-161.779	49.284	0.187	0.173
-160.764	-200.000	-0.012	0.185
-159.750	-160.286	0.484	0.026
-158.735	-107.630	0.059	0.013
-157.720	321.283	0.184	-0.344
-156.706	-200.000	-0.003	0.043
-155.691	133.148	0.208	-0.264
-154.677	275.947	0.221	-0.386
-153.662	217.241	0.114	0.178
-152.647	-200.000	-0.005	-0.359
-151.633	179.681	0.029	-0.042
-150.618	239.969	-0.081	-0.133
-149.604	-200.000	-0.014	-0.177
-148.589	-200.000	0.016	-0.148
-147.574	-65.533	-0.034	0.014
-146.560	240.279	-0.230	0.376
-145.545	-200.000	-0.029	-0.150
-144.531	-149.904	-0.243	-0.019
-143.516	-157.811	-0.112	0.007
-142.502	-200.000	-0.013	0.093
-141.487	-102.041	-0.258	0.061
-140.472	800.000	-0.026	-0.079
-139.458	413.431	-0.032	0.067
-138.443	4.625	-0.208	-0.150
-137.429	71.582	0.226	-0.230
-136.414	618.501	0.059	-0.145
-135.399	60.359	0.133	0.129
-134.385	-156.413	-0.200	-0.012
-133.370	-143.112	0.188	-0.018
-132.356	-200.000	-0.039	0.217
-131.341	-137.941	-0.432	-0.047
-130.326	-80.378	-0.041	-0.013
-129.312	-200.000	-0.025	0.200
-128.297	-145.070	0.048	-0.004
-127.283	-200.000	0.024	0.260
-126.268	222.973	-0.251	0.397
-125.253	-200.000	0.007	-0.086
-124.239	-142.250	0.125	-0.012
-123.224	-123.452	-0.254	0.040
-122.210	2.195	-0.207	-0.147
-121.195	384.328	0.072	0.145
-120.180	236.026	-0.170	-0.276
-119.166	-200.000	-0.013	0.463
-118.151	33.760	-0.320	0.273
-117.137	52.652	-0.240	-0.225
-116.122	-35.934	0.183	0.097
-115.107	177.316	0.076	-0.109
-114.093	102.749	0.206	-0.237
-113.078	39.385	0.083	0.073
-112.064	-200.000	-0.020	-0.090
-111.049	-65.305	-0.207	0.082
-110.034	-200.000	-0.012	-0.183
-109.020	-50.286	-0.270	-0.125
-108.005	-200.000	-0.036	0.524
-106.991	-141.731	0.424	-0.042
-105.976	124.264	-0.080	0.098
-104.962	-200.000	-0.012	0.451
-103.947	37.125	-0.177	-0.154
-102.932	-200.000	-0.043	-0.296
-101.918	64.035	-0.308	-0.304
-100.903	-16.509	0.079	0.049
-99.889	-25.068	0.274	-0.160
-98.874	628.075	0.050	-0.124
-97.859	800.000	0.141	-0.465
-96.845	140.268	0.151	0.195
-95.830	634.708	0.062	0.155
-94.816	-89.549	-0.415	-0.120
-93.801	-94.726	-0.345	0.092
-92.786	106.401	-0.174	0.202
-91.772	800.000	0.076	0.206
-90.757	-175.193	0.213	-0.006
-89.743	800.000	0.010	-0.041
-88.728	203.043	0.042	0.063
-87.713	-200.000	-0.006	-0.142
-86.699	-31.510	0.084	-0.046
-85.684	-67.964	0.130	-0.050
-84.670	800.000	-0.128	-0.384
-83.655	142.521	0.239	-0.311
-82.640	-66.059	0.112	-0.044
-81.626	-200.000	-0.032	-0.189
-80.611	-13.229	-0.186	-0.118
-79.597	125.568	0.191	0.236
-78.582	-200.000	0.038	-0.234
-77.567	179.324	0.073	-0.105
-76.553	370.037	0.053	0.104
-75.538	800.000	0.064	-0.259
-74.524	-106.774	-0.168	0.037
-73.509	-200.000	0.004	0.101
-72.494	-200.000	-0.054	-0.273
-71.480	58.933	0.196	-0.188
-70.465	-88.563	0.141	0.041
-69.451	672.328	-0.093	0.236
-68.436	800.000	0.084	-0.237
-67.422	-154.434	-0.128	-0.008
-66.407	-200.000	0.008	0.083
-65.392	23.338	0.116	0.094
-64.378	-57.835	0.197	-0.084
-63.363	-152.271	0.176	-0.012
-62.349	328.219	-0.108	0.204
-61.334	120.794	-0.998	-1.215
-60.319	337.790	0.283	0.539
-59.305	783.383	-0.438	-1.176
-58.290	361.149	0.762	1.495
-57.276	800.000	0.476	1.472
-56.261	-200.000	113.092	647.195
-55.246	475.685	1503.609	3324.943
-54.232	147.164	2675.483	3524.500
-53.217	98.040	2286.238	2575.991
-52.203	36.944	1897.679	1643.006
-51.188	31.055	1688.937	1417.619
-50.173	28.436	1647.420	1363.270
-49.159	50.601	1701.172	1575.542
-48.144	49.439	1716.418	1580.850
-47.130	30.650	1674.543	1402.262
-46.115	27.909	1660.409	1369.845
-45.100	27.637	1655.659	1363.839
-44.086	27.658	1652.476	1361.319
-43.071	27.614	1650.480	1359.294
-42.057	27.699	1647.490	1357.408
-41.042	27.567	1645.913	1355.075
-40.027	27.567	1644.381	1353.763
-39.013	27.629	1642.153	1352.332
-37.998	27.542	1641.072	1350.742
-36.984	27.635	1639.140	1349.786
-35.969	27.794	1637.335	1349.422
-34.954	27.864	1635.714	1348.550
-33.940	27.723	1634.082	1346.113
-32.925	27.751	1632.352	1344.838
-31.911	27.822	1630.395	1343.697
-30.896	27.846	1628.769	1342.480
-29.881	27.724	1627.606	1340.572
-28.867	27.761	1625.434	1339.000
-27.852	27.834	1623.912	1338.230
-26.838	27.782	1622.669	1336.773
-25.823	27.800	1621.391	1335.796
-24.809	27.818	1620.258	1334.945
-23.794	27.816	1618.942	1333.794
-22.779	27.871	1617.296	1332.784
-21.765	27.857	1615.265	1330.957
-20.750	27.691	1614.329	1328.922
-19.736	27.810	1613.070	1328.698
-18.721	27.770	1611.674	1327.202
-17.706	27.812	1610.395	1326.405
-16.692	27.877	1608.597	1325.344
-15.677	27.816	1607.126	1323.640
-14.663	27.882	1605.804	1322.971
-13.648	27.827	1604.740	1321.643
-12.633	27.813	1603.327	1320.327
-11.619	27.722	1601.876	1318.423
-10.604	27.847	1599.551	1317.361
-9.590	27.765	1598.718	1316.027
-8.575	27.819	1597.484	1315.353
-7.560	27.854	1596.547	1314.782
-6.546	27.842	1595.234	1313.557
-5.531	27.789	1594.290	1312.351
-4.517	27.873	1592.930	1311.777
-3.502	27.856	1592.124	1310.943
-2.487	27.880	1590.021	1309.331
-1.473	27.442	1578.165	1296.402
-0.458	24.246	1557.834	1257.146
0.556	18.671	1558.428	1222.301
1.571	16.129	1580.668	1221.244
2.586	15.619	1593.239	1227.126
3.600	14.424	1540.496	1177.957
4.615	8.051	1433.306	1053.865
5.629	1.570	1371.453	967.185
6.644	0.240	1363.718	953.232
7.659	0.185	1362.335	951.833
8.673	0.090	1361.338	950.451
9.688	-0.005	1359.844	948.723
10.702	-0.045	1356.363	945.961
11.717	3.134	1361.523	969.535
12.731	10.895	1372.894	1026.711
13.746	16.376	1381.048	1067.444
14.761	17.208	1380.459	1072.147
15.775	16.378	1377.901	1064.835
16.790	15.092	1376.272	1055.380
17.804	14.515	1373.330	1049.401
18.819	14.164	1372.076	1046.142
19.834	13.860	1370.890	1043.239
20.848	13.643	1369.791	1040.944
21.863	13.429	1368.205	1038.307
22.877	13.226	1367.126	1036.122
23.892	13.172	1366.474	1035.200
24.907	13.216	1365.188	1034.409
25.921	13.177	1364.621	1033.642
26.936	13.185	1363.819	1032.992
27.950	13.313	1363.047	1033.115
28.965	13.343	1361.718	1032.203
29.980	13.393	1361.145	1031.992
30.994	13.446	1359.994	1031.359
32.009	13.556	1358.908	1031.129
33.023	13.473	1357.636	1029.558
34.038	13.382	1356.559	1028.081
35.053	13.436	1355.123	1027.237
36.067	13.437	1353.966	1026.277
37.082	13.320	1353.882	1025.397
38.096	13.339	1353.130	1024.855
39.111	13.477	1351.489	1024.374
40.126	13.394	1351.122	1023.496
41.140	13.320	1350.209	1022.253
42.155	13.169	1349.674	1020.823
43.169	13.185	1349.384	1020.614
44.184	13.235	1349.437	1020.870
45.199	13.231	1348.772	1020.255
46.213	13.276	1348.090	1019.927
47.228	13.383	1347.433	1020.000
48.242	13.338	1345.835	1018.422
49.257	13.288	1344.390	1016.932
50.271	13.268	1343.463	1016.015
51.286	13.388	1341.606	1015.256
52.301	13.380	1340.113	1013.989
53.315	13.257	1339.847	1012.945
54.330	13.336	1338.505	1012.327
55.344	13.285	1337.592	1011.233
56.359	13.201	1336.611	1009.888
57.374	13.191	1335.505	1008.900
58.388	13.214	1334.665	1008.321
59.403	13.163	1334.289	1007.633
60.417	13.183	1333.645	1007.182
61.432	13.136	1332.924	1006.259
62.447	13.118	1331.640	1005.093
63.461	13.067	1330.067	1003.505
64.476	12.982	1329.491	1002.465
65.490	13.111	1328.027	1002.057
66.505	13.236	1325.808	1001.053
67.520	13.167	1324.791	999.780
68.534	13.185	1324.122	999.293
69.549	13.054	1323.549	997.980
70.563	13.221	1322.150	997.847
71.578	13.091	1321.010	996.114
72.593	13.075	1320.261	995.362
73.607	13.014	1319.869	994.611
74.622	13.089	1318.558	993.984
75.636	13.032	1317.638	992.860
76.651	13.056	1316.710	992.222
77.666	13.157	1316.068	992.258
78.680	13.165	1315.836	992.038
79.695	13.103	1314.836	990.824
80.709	13.066	1314.592	990.334
81.724	13.185	1313.438	990.092
82.739	13.230	1312.245	989.373
83.753	13.240	1311.981	989.146
84.768	13.362	1310.486	988.658
85.782	13.339	1309.461	987.660
86.797	13.349	1308.425	986.851
87.812	13.329	1306.844	985.454
88.826	13.219	1305.925	984.016
89.841	13.380	1305.013	984.203
90.855	13.319	1303.687	982.753
91.870	13.380	1302.874	982.417
92.884	13.447	1302.266	982.268
93.899	13.353	1301.287	980.882
94.914	13.372	1300.202	980.090
95.928	13.433	1299.412	979.772
96.943	13.327	1299.107	978.830
97.957	13.261	1298.332	977.767
98.972	13.425	1296.746	977.455
99.987	13.385	1295.713	976.353
101.001	13.355	1294.911	975.488
102.016	13.311	1293.723	974.243
103.030	13.413	1292.492	973.833
104.045	13.384	1291.479	972.810
105.060	13.382	1290.624	972.072
106.074	13.336	1289.384	970.779
107.089	13.319	1287.722	969.341
108.103	13.214	1286.966	968.073
109.118	13.138	1285.711	966.602
110.133	13.166	1284.610	965.849
111.147	13.182	1283.059	964.694
112.162	13.115	1282.185	963.560
113.176	13.267	1280.540	963.124
114.191	13.254	1279.958	962.522
115.206	13.301	1278.826	961.858
116.220	13.299	1277.418	960.705
117.235	13.286	1276.087	959.543
118.249	13.292	1275.635	959.152
119.264	13.294	1274.263	958.049
120.279	13.144	1273.511	956.530
121.293	13.272	1271.754	955.869
122.308	13.154	1271.640	955.012
123.322	13.184	1270.581	954.308
124.337	13.258	1269.054	953.505
125.352	13.170	1268.384	952.410
126.366	13.211	1266.961	951.492
127.381	13.152	1266.289	950.560
128.395	13.320	1264.713	950.261
129.410	13.213	1264.006	949.033
130.424	13.211	1263.306	948.408
131.439	13.353	1261.696	947.930
132.454	13.261	1261.538	947.204
133.468	13.317	1260.410	946.589
134.483	13.315	1259.539	945.843
135.497	13.301	1258.083	944.583
136.512	13.326	1257.227	944.003
137.527	13.235	1255.494	942.101
138.541	13.230	1254.416	941.178
139.556	13.339	1252.471	940.253
140.570	13.370	1251.904	939.921
141.585	13.409	1250.775	939.210
142.600	13.425	1249.628	938.359
143.614	13.374	1249.081	937.575
144.629	13.559	1247.850	937.618
145.643	13.396	1246.604	935.674
146.658	13.415	1245.248	934.680
147.673	13.349	1244.238	933.469
148.687	13.375	1242.517	932.239
149.702	13.352	1241.396	931.191
150.716	13.336	1240.487	930.334
151.731	13.312	1239.506	929.384
152.746	13.337	1238.193	928.452
153.760	13.403	1236.836	927.725
154.775	13.497	1235.688	927.310
155.789	13.446	1235.090	926.492
156.804	13.468	1234.058	925.761
157.819	13.438	1232.709	924.497
158.833	13.533	1231.603	924.114
159.848	13.526	1231.362	923.817
160.862	13.647	1229.510	923.016
161.877	13.611	1228.441	921.936
162.892	13.592	1227.232	920.840
163.906	13.511	1226.792	919.979
164.921	13.422	1226.088	918.871
165.935	13.522	1224.990	918.525
166.950	13.495	1224.372	917.831
167.964	13.599	1223.377	917.576
168.979	13.607	1222.754	917.075
169.994	13.589	1222.312	916.562
171.008	13.625	1221.274	915.905
172.023	13.758	1220.314	915.833
173.037	13.691	1219.780	914.982
174.052	13.758	1218.508	914.319
175.067	13.660	1217.798	913.165
176.081	13.589	1216.821	911.959
177.096	13.559	1215.901	911.025
178.110	13.653	1214.655	910.527
179.125	13.673	1213.471	909.672
180.140	13.688	1212.053	908.605
181.154	13.703	1211.048	907.857
182.169	13.741	1209.681	906.959
183.183	13.829	1208.247	906.281
184.198	13.816	1207.300	905.422
185.213	13.937	1206.498	905.398
186.227	13.930	1205.274	904.362
187.242	13.849	1204.489	903.254
188.256	13.876	1203.439	902.531
189.271	13.832	1202.782	901.721
190.286	13.790	1201.528	900.472
191.300	13.677	1200.852	899.277
192.315	13.633	1199.878	898.229
193.329	13.720	1199.644	898.443
194.344	13.736	1199.311	898.201
195.359	13.862	1198.186	897.960
196.373	13.819	1197.683	897.271
197.388	13.807	1197.272	896.822
198.402	13.982	1196.537	897.133
199.417	13.994	1195.905	896.649
200.432	14.080	1194.787	896.192
201.446	14.087	1193.911	895.496
202.461	14.048	1193.268	894.721
203.475	14.038	1192.105	893.721
204.490	14.114	1190.945	893.178
205.504	13.990	1189.638	891.451
206.519	14.083	1188.384	890.935
207.534	14.007	1187.555	889.827
208.548	14.041	1186.716	889.302
209.563	13.985	1186.109	888.465
210.577	14.071	1184.789	887.857
211.592	14.146	1183.772	887.417
212.607	14.158	1182.964	886.798
213.621	14.081	1182.410	885.892
214.636	14.170	1181.852	885.874
215.650	14.191	1180.742	885.073
216.665	14.289	1179.386	884.497
217.680	14.337	1178.468	883.984
218.694	14.351	1177.629	883.356
219.709	14.436	1177.106	883.335
220.723	14.358	1176.363	882.283
221.738	14.360	1175.568	881.623
222.753	14.369	1174.603	880.864
223.767	14.378	1174.222	880.554
224.782	14.425	1173.587	880.243
225.796	14.344	1173.265	879.498
226.811	14.513	1172.173	879.495
227.826	14.401	1171.529	878.340
228.840	14.378	1170.903	877.672
229.855	14.403	1170.457	877.392
230.869	14.489	1169.351	876.937
231.884	14.360	1168.382	875.454
232.899	14.456	1167.314	875.085
233.913	14.355	1167.178	874.375
234.928	14.287	1166.125	873.153
235.942	14.469	1165.408	873.488
236.957	14.266	1164.715	871.831
237.972	14.372	1164.265	871.970
238.986	14.468	1163.174	871.580
240.001	14.342	1163.011	870.720
241.015	14.515	1161.759	870.613
242.030	14.388	1160.906	869.229
243.045	14.482	1160.354	869.233
244.059	14.523	1159.364	868.624
245.074	14.507	1158.668	867.944
246.088	14.572	1158.002	867.706
247.103	14.559	1157.404	867.113
248.117	14.649	1156.471	866.806
249.132	14.609	1155.760	865.988
250.147	14.867	1154.758	866.498
251.161	14.824	1154.433	865.957
252.176	14.801	1153.829	865.306
253.190	14.899	1152.683	864.877
254.205	14.825	1152.758	864.477
255.220	14.888	1152.388	864.445
256.234	14.908	1150.862	863.327
257.249	15.000	1150.514	863.467
258.263	14.928	1149.884	862.545
259.278	14.989	1149.154	862.238
260.293	14.856	1148.869	861.259
261.307	14.963	1148.258	861.278
262.322	15.021	1147.270	860.757
263.336	15.052	1146.885	860.554
264.351	15.062	1145.986	859.851
265.366	15.071	1145.158	859.201
266.380	15.051	1144.586	858.592
267.395	15.123	1143.763	858.271
268.409	14.967	1143.299	857.046
269.424	14.976	1142.432	856.366
270.439	15.131	1141.656	856.500
271.453	15.170	1140.675	855.889
272.468	15.088	1140.364	855.162
273.482	15.120	1139.634	854.702
274.497	15.020	1139.228	853.810
275.512	15.030	1138.459	853.210
276.526	15.129	1137.769	853.124
277.541	15.188	1136.617	852.484
278.555	15.068	1136.040	851.365
279.570	15.238	1135.267	851.572
280.585	15.129	1134.783	850.581
281.599	15.206	1133.973	850.291
282.614	15.239	1132.837	849.532
283.628	15.118	1131.577	847.896
284.643	15.395	1130.493	848.414
285.657	15.302	1129.787	847.339
286.672	15.343	1128.637	846.605
287.687	15.342	1127.936	846.002
288.701	15.267	1127.393	845.140
289.716	15.284	1126.606	844.562
290.730	15.301	1126.193	844.260
291.745	15.330	1125.723	843.983
292.760	15.377	1124.338	843.104
293.774	15.396	1123.905	842.799
294.789	15.576	1123.301	843.178
295.803	15.381	1123.249	842.085
296.818	15.325	1122.299	841.016
297.833	15.446	1121.295	840.795
298.847	15.409	1120.529	839.962
299.862	15.470	1119.780	839.631
300.876	15.474	1118.973	838.971
301.891	15.496	1118.499	838.654
302.906	15.577	1117.658	838.353
303.920	15.503	1117.263	837.615
304.935	15.696	1116.051	837.592
305.949	15.700	1115.479	837.108
306.964	15.736	1114.965	836.828
307.979	15.635	1114.223	835.693
308.993	15.613	1113.401	834.896
310.008	15.589	1112.931	834.348
311.022	15.773	1111.851	834.380
312.037	15.746	1110.826	833.401
313.052	15.723	1109.991	832.588
314.066	15.694	1109.249	831.812
315.081	15.719	1108.295	831.146
316.095	15.688	1107.767	830.527
317.110	15.647	1107.332	829.923
318.125	15.703	1106.038	829.156
319.139	15.698	1105.887	828.945
320.154	15.803	1104.835	828.602
321.168	15.692	1104.537	827.756
322.183	15.698	1104.005	827.314
323.197	15.799	1103.369	827.263
324.212	15.719	1102.872	826.420
325.227	15.779	1102.299	826.212
326.241	15.830	1101.137	825.522
327.256	15.917	1100.297	825.243
328.270	15.755	1099.663	823.901
329.285	15.716	1098.784	822.978
330.300	15.718	1097.794	822.176
331.314	15.918	1096.588	822.173
332.329	15.804	1095.852	820.993
333.343	15.913	1095.217	820.978
334.358	16.002	1093.943	820.385
335.373	16.066	1093.089	819.981
336.387	16.004	1093.030	819.563
337.402	15.976	1092.211	818.743
338.416	15.883	1091.927	818.003
339.431	16.035	1090.863	817.871
340.446	16.148	1090.228	817.874
341.460	16.129	1089.733	817.336
342.475	16.156	1088.735	816.646
343.489	16.281	1087.476	816.233
344.504	16.297	1086.553	815.545
345.519	16.155	1086.130	814.473
346.533	16.304	1085.041	814.300
347.548	16.316	1084.542	813.910
348.562	16.195	1084.015	812.859
349.577	16.215	1082.736	811.929
350.592	16.197	1082.048	811.254
351.606	16.216	1081.726	811.031
352.621	16.193	1080.837	810.182
353.635	16.228	1080.148	809.760
354.650	16.308	1079.552	809.629
355.665	16.189	1078.867	808.471
356.679	16.297	1078.089	808.335
357.694	16.296	1078.002	808.192
358.708	16.369	1077.245	807.902
359.723	16.391	1076.282	807.211
360.738	16.344	1075.553	806.374
361.752	16.338	1075.317	806.095
362.767	16.339	1074.436	805.369
363.781	16.418	1074.107	805.427
364.796	16.392	1073.522	804.791
365.810	16.557	1072.481	804.723
366.825	16.436	1072.519	804.109
367.840	16.533	1072.139	804.210
368.854	16.649	1071.202	803.992
369.869	16.519	1070.574	802.831
370.883	16.587	1069.036	801.927
371.898	16.551	1068.730	801.458
372.913	16.480	1068.223	800.670
373.927	16.576	1067.937	800.836
374.942	16.595	1067.164	800.278
375.956	16.678	1066.732	800.275
376.971	16.594	1066.201	799.410
377.986	16.786	1065.619	799.808
379.000	16.724	1064.971	798.959
380.015	16.840	1064.280	798.918
381.029	16.814	1063.645	798.245
382.044	16.784	1063.044	797.586
383.059	16.852	1062.685	797.564
384.073	16.885	1061.372	796.663
385.088	16.901	1060.588	796.082
386.102	16.936	1059.815	795.594
387.117	16.762	1059.125	794.188
388.132	16.814	1057.721	793.308
389.146	16.913	1056.684	792.925
390.161	16.816	1056.383	792.177
391.175	16.875	1055.755	791.911
392.190	16.934	1055.326	791.791
393.205	16.984	1054.618	791.424
394.219	16.869	1053.848	790.241
395.234	16.978	1052.826	789.911
396.248	16.859	1051.839	788.549
397.263	16.922	1050.726	787.938
398.278	17.026	1050.003	787.808
399.292	16.945	1049.462	786.955
400.307	16.917	1048.578	786.094
401.321	16.861	1048.185	785.470
402.336	16.969	1047.345	785.270
403.350	16.971	1047.103	785.031
404.365	17.017	1046.046	784.381
405.380	16.926	1045.300	783.332
406.394	17.094	1044.389	783.357
407.409	16.971	1043.936	782.379
408.423	17.110	1043.107	782.329
409.438	17.159	1042.433	781.978
410.453	17.240	1041.898	781.880
411.467	17.255	1040.937	781.158
412.482	17.334	1040.362	781.022
413.496	17.339	1039.764	780.526
414.511	17.286	1039.262	779.840
415.526	17.315	1038.975	779.687
416.540	17.411	1038.220	779.491
417.555	17.445	1037.651	779.150
418.569	17.412	1037.200	778.591
419.584	17.470	1036.537	778.292
420.599	17.322	1036.328	777.390
421.613	105.088	1324.440	1476.684
422.628	96.352	1366.371	1476.775
