DTS Sentinel unit serial number:	SN413079Multiplexer serial number:	ORYXHardware model number:	OX4-SRSoftware version number:	ORYX F/W v4.00 Oryx Data Collector v3.7.2.0data status	okinstallation	princeton_trtdifferential loss correction	single-endedforward channel	channel 2reverse channel	N/Adate	2019/09/11time	14:45:10forward acquisition time	60.00reverse acquisition time	0.00gamma	496.2192k internal	0.2289k external	0.2289temperature offset calibration	1.0007default loss term (dB/km)	0.3790temperature slope calibration	1.0000multiplexer offset coefficient	1.0000multiplexer slope coefficient	1.0000fibre end	0.00T internal ref (°C)	42.44T ext. ref 1 (°C)	0.92T ext. ref 2 (°C)	37.48length (m)	temperature (°C)	Stokes	anti-Stokes-747.200	-82.384	0.132	-0.044
-746.185	-200.000	-0.009	-0.364
-745.171	800.000	0.056	-0.185
-744.156	232.773	0.214	0.361
-743.142	-63.180	-0.197	0.083
-742.127	76.349	-0.282	0.306
-741.112	38.097	0.132	0.120
-740.098	105.052	-0.102	0.123
-739.083	149.596	-0.018	-0.025
-738.069	93.084	-0.072	-0.083
-737.054	214.572	-0.149	0.241
-736.039	33.987	0.296	-0.264
-735.025	-129.607	0.258	-0.037
-734.010	25.867	-0.167	0.143
-732.996	-79.397	-0.176	0.061
-731.981	186.975	-0.252	-0.385
-730.966	-200.000	-0.097	0.494
-729.952	-200.000	0.019	0.171
-728.937	81.244	0.116	-0.129
-727.923	239.166	-0.152	-0.259
-726.908	-94.154	-0.555	0.156
-725.894	-200.000	-0.040	-0.247
-724.879	164.381	-0.197	-0.284
-723.864	800.000	-0.110	-0.350
-722.850	-49.503	0.105	0.051
-721.835	152.339	-0.058	-0.081
-720.821	203.162	-0.092	-0.146
-719.806	-28.384	-0.213	0.126
-718.791	-17.136	-0.096	0.062
-717.777	-177.141	-0.083	0.002
-716.762	199.452	0.196	0.308
-715.748	-49.693	-0.241	0.117
-714.733	-79.206	-0.148	-0.051
-713.718	-154.671	-0.216	0.015
-712.704	602.246	0.040	-0.101
-711.689	347.605	-0.047	-0.094
-710.675	511.473	-0.055	-0.131
-709.660	-39.746	0.232	0.124
-708.645	258.324	-0.070	-0.124
-707.631	800.000	0.051	0.165
-706.616	-70.013	0.193	0.075
-705.602	6.264	0.106	-0.081
-704.587	210.961	0.063	-0.101
-703.572	-72.472	0.284	0.107
-702.558	246.416	0.067	-0.116
-701.543	-98.244	-0.209	-0.055
-700.529	-173.632	0.177	-0.005
-699.514	-79.109	-0.338	-0.117
-698.499	-200.000	-0.029	-0.185
-697.485	-30.935	0.064	0.037
-696.470	486.399	-0.095	-0.222
-695.456	633.820	0.108	-0.281
-694.441	235.008	0.163	-0.275
-693.426	41.633	-0.151	0.140
-692.412	-200.000	-0.012	-0.178
-691.397	85.764	-0.114	0.129
-690.383	57.235	0.113	0.113
-689.368	-103.455	0.087	-0.021
-688.354	96.261	0.129	0.151
-687.339	-58.964	-0.072	-0.032
-686.324	-26.839	-0.076	-0.045
-685.310	-104.689	0.141	-0.033
-684.295	103.771	0.195	-0.234
-683.281	-200.000	-0.005	-0.170
-682.266	23.948	-0.183	-0.154
-681.251	-99.942	0.161	-0.041
-680.237	-200.000	-0.003	0.031
-679.222	83.540	0.284	-0.316
-678.208	-23.215	-0.225	0.138
-677.193	800.000	0.038	-0.122
-676.178	-105.524	0.155	0.036
-675.164	28.031	-0.200	0.172
-674.149	80.925	-0.242	-0.266
-673.135	41.517	0.248	0.230
-672.120	125.309	0.068	-0.088
-671.105	-101.784	0.174	-0.043
-670.091	18.038	-0.166	-0.135
-669.076	-122.387	-0.287	-0.048
-668.062	-200.000	-0.023	0.164
-667.047	-77.863	-0.216	-0.076
-666.032	-67.643	0.152	0.061
-665.018	245.633	0.080	-0.137
-664.003	280.909	0.063	0.116
-662.989	-200.000	0.009	0.343
-661.974	86.722	0.159	0.179
-660.959	185.060	0.053	-0.081
-659.945	-95.472	0.314	0.086
-658.930	-50.176	0.086	0.041
-657.916	-183.478	0.214	-0.004
-656.901	-104.008	-0.290	-0.069
-655.886	32.915	0.075	0.066
-654.872	-103.282	-0.238	-0.057
-653.857	-200.000	0.052	-0.235
-652.843	-109.481	0.326	-0.070
-651.828	-14.617	-0.108	0.071
-650.814	209.589	0.209	0.335
-649.799	-200.000	0.005	0.129
-648.784	153.132	-0.106	-0.148
-647.770	800.000	-0.080	-0.242
-646.755	108.747	0.156	0.190
-645.741	99.762	0.072	0.085
-644.726	-145.110	-0.124	-0.012
-643.711	-152.680	0.166	0.012
-642.697	-200.000	-0.011	-0.170
-641.682	-128.758	0.197	-0.028
-640.668	85.951	0.060	-0.068
-639.653	-115.557	-0.024	0.005
-638.638	52.761	0.189	-0.184
-637.624	412.062	0.071	-0.154
-636.609	-149.261	-0.238	-0.019
-635.595	-47.252	0.132	0.065
-634.580	362.881	0.097	-0.198
-633.565	-95.947	-0.044	-0.012
-632.551	237.207	0.195	0.330
-631.536	-142.021	-0.421	0.043
-630.522	-71.859	0.090	0.034
-629.507	34.500	-0.302	0.269
-628.492	-61.528	0.236	-0.101
-627.478	-34.238	0.090	0.050
-626.463	800.000	0.041	0.181
-625.449	294.680	0.045	-0.083
-624.434	-200.000	0.004	-0.053
-623.419	45.900	-0.117	-0.110
-622.405	-58.019	0.091	0.040
-621.390	548.445	0.055	-0.134
-620.376	-98.503	0.034	-0.009
-619.361	120.866	-0.161	0.205
-618.346	-200.000	-0.047	0.212
-617.332	-97.258	0.503	0.134
-616.317	-200.000	-0.015	0.179
-615.303	56.914	0.173	-0.172
-614.288	-115.701	-0.183	0.035
-613.273	6.956	0.174	-0.132
-612.259	-53.668	0.289	-0.134
-611.244	5.283	0.189	0.142
-610.230	712.085	0.135	0.365
-609.215	-30.202	0.103	-0.059
-608.201	-200.000	-0.087	-0.532
-607.186	-200.000	-0.024	-0.165
-606.171	-200.000	-0.040	-0.218
-605.157	-134.966	0.286	-0.035
-604.142	-32.264	-0.166	-0.094
-603.128	-179.067	-0.224	-0.005
-602.113	-71.489	-0.052	0.020
-601.098	800.000	0.016	0.054
-600.084	-200.000	0.022	0.122
-599.069	25.215	-0.188	-0.160
-598.055	-4.327	0.152	-0.107
-597.040	208.690	-0.201	-0.320
-596.025	228.342	-0.146	-0.242
-595.011	800.000	-0.064	-0.247
-593.996	194.657	-0.138	0.213
-592.982	169.706	-0.141	-0.205
-591.967	484.609	0.098	-0.226
-590.952	4.577	-0.098	0.074
-589.938	69.707	0.036	-0.037
-588.923	-184.918	0.262	-0.004
-587.909	-86.376	-0.273	0.086
-586.894	-200.000	0.001	-0.218
-585.879	800.000	-0.031	0.101
-584.865	-40.099	-0.140	-0.074
-583.850	-200.000	-0.014	-0.193
-582.836	192.141	-0.138	-0.212
-581.821	-98.986	-0.169	0.044
-580.806	64.478	0.065	0.066
-579.792	312.755	-0.029	-0.055
-578.777	58.307	0.047	-0.047
-577.763	-200.000	-0.001	-0.218
-576.748	-200.000	0.266	0.000
-575.733	-35.301	-0.125	-0.069
-574.719	268.209	-0.120	0.213
-573.704	54.094	-0.142	0.139
-572.690	800.000	-0.105	0.420
-571.675	253.677	0.196	0.341
-570.661	-200.000	0.033	0.169
-569.646	346.307	-0.090	-0.181
-568.631	800.000	-0.040	0.163
-567.617	260.082	0.054	-0.096
-566.602	800.000	0.062	0.189
-565.588	216.927	0.106	0.171
-564.573	-117.152	-0.188	-0.035
-563.558	118.885	-0.213	-0.268
-562.544	800.000	0.042	-0.121
-561.529	219.708	-0.227	0.369
-560.515	-107.873	-0.209	0.046
-559.500	-200.000	0.030	0.225
-558.485	-110.935	-0.137	-0.029
-557.471	52.555	0.120	-0.117
-556.456	103.662	0.220	-0.262
-555.442	-120.429	-0.096	0.017
-554.427	-200.000	-0.020	-0.161
-553.412	-185.821	-0.026	-0.000
-552.398	-26.282	-0.204	0.122
-551.383	-200.000	-0.023	0.419
-550.369	-139.633	-0.206	-0.022
-549.354	73.229	-0.194	-0.206
-548.339	67.651	0.112	0.116
-547.325	31.292	-0.294	0.257
-546.310	20.918	-0.069	0.057
-545.296	-8.509	-0.052	-0.036
-544.281	-43.113	0.368	-0.189
-543.266	-200.000	-0.042	-0.276
-542.252	-180.224	0.163	0.003
-541.237	-118.729	-0.169	0.030
-540.223	258.872	0.074	-0.130
-539.208	-91.291	-0.302	0.088
-538.193	-50.902	-0.059	-0.028
-537.179	13.979	-0.138	0.109
-536.164	-200.000	0.014	-0.202
-535.150	-56.442	0.198	-0.089
-534.135	134.436	-0.155	-0.204
-533.121	-123.810	-0.292	-0.047
-532.106	36.536	0.231	-0.207
-531.091	-200.000	-0.028	0.427
-530.077	80.163	0.142	-0.156
-529.062	370.821	-0.022	-0.046
-528.048	63.105	0.119	0.121
-527.033	800.000	-0.006	-0.025
-526.018	-126.260	0.283	-0.043
-525.004	800.000	-0.080	-0.271
-523.989	-73.014	-0.030	0.011
-522.975	130.873	0.158	0.206
-521.960	-34.747	-0.142	0.079
-520.945	-143.798	0.201	0.019
-519.931	-200.000	-0.049	0.289
-518.916	163.821	-0.118	-0.168
-517.902	-59.721	0.056	-0.024
-516.887	-22.256	-0.229	-0.141
-515.872	391.626	-0.059	-0.124
-514.858	-141.417	0.184	-0.019
-513.843	169.253	-0.272	-0.394
-512.829	800.000	-0.040	0.127
-511.814	-29.076	0.050	-0.029
-510.799	621.284	-0.123	-0.313
-509.785	-187.145	0.294	-0.004
-508.770	-200.000	-0.005	-0.110
-507.756	-15.258	0.170	0.110
-506.741	-200.000	0.022	0.252
-505.726	-180.621	0.103	-0.002
-504.712	-135.056	-0.238	0.029
-503.697	-200.000	-0.019	0.274
-502.683	715.541	0.036	-0.097
-501.668	-30.091	-0.085	0.049
-500.653	-52.313	-0.179	-0.084
-499.639	-90.641	0.255	-0.075
-498.624	800.000	0.108	-0.361
-497.610	-200.000	-0.035	-0.223
-496.595	357.637	0.048	-0.098
-495.581	800.000	-0.052	-0.183
-494.566	236.434	-0.119	-0.200
-493.551	97.316	0.231	0.269
-492.537	-200.000	-0.020	-0.273
-491.522	800.000	-0.051	-0.159
-490.508	800.000	-0.056	-0.193
-489.493	-160.221	-0.263	0.014
-488.478	-200.000	-0.049	0.455
-487.464	800.000	-0.109	-0.361
-486.449	-37.659	-0.242	-0.131
-485.435	-114.210	-0.175	-0.034
-484.420	228.284	0.023	-0.038
-483.405	-168.844	-0.138	0.005
-482.391	-45.982	0.251	0.126
-481.376	-200.000	0.015	0.177
-480.362	-74.158	0.032	0.012
-479.347	-200.000	-0.061	-0.413
-478.332	-200.000	0.022	-0.243
-477.318	682.943	-0.075	0.198
-476.303	-200.000	0.074	0.399
-475.289	800.000	0.124	0.417
-474.274	-200.000	0.042	0.230
-473.259	800.000	0.078	0.253
-472.245	27.222	-0.112	0.095
-471.230	681.194	-0.034	-0.089
-470.216	58.455	0.117	-0.116
-469.201	73.394	0.382	0.405
-468.186	-200.000	0.015	0.171
-467.172	-70.160	0.166	-0.064
-466.157	32.842	0.188	-0.165
-465.143	5.818	-0.151	0.113
-464.128	136.917	0.110	-0.145
-463.113	543.395	0.026	-0.062
-462.099	157.455	-0.187	-0.263
-461.084	144.282	-0.124	-0.167
-460.070	35.037	-0.175	-0.155
-459.055	-51.669	-0.246	0.116
-458.040	-103.677	-0.122	0.029
-457.026	-200.000	-0.016	0.282
-456.011	207.382	0.169	-0.268
-454.997	5.661	-0.096	-0.072
-453.982	37.811	0.102	0.091
-452.968	742.971	0.037	0.101
-451.953	800.000	0.078	0.288
-450.938	225.542	0.242	-0.398
-449.924	-77.927	-0.324	-0.113
-448.909	186.088	-0.067	0.101
-447.895	129.588	0.276	-0.357
-446.880	65.708	-0.076	0.078
-445.865	-66.331	0.212	-0.085
-444.851	606.259	-0.104	-0.262
-443.836	218.045	-0.025	-0.040
-442.822	-24.748	-0.254	0.153
-441.807	418.921	-0.152	0.329
-440.792	-200.000	-0.007	0.078
-439.778	-28.455	0.064	0.038
-438.763	126.741	0.122	0.157
-437.749	-200.000	-0.009	-0.162
-436.734	800.000	0.055	0.199
-435.719	44.375	-0.209	0.194
-434.705	616.813	0.071	-0.181
-433.690	-144.857	0.456	-0.042
-432.676	-111.859	-0.373	-0.076
-431.661	-74.250	0.183	0.067
-430.646	-40.700	0.279	0.146
-429.632	-2.018	0.080	-0.057
-428.617	-109.042	0.251	-0.054
-427.603	-86.767	-0.125	0.039
-426.588	237.529	-0.023	0.039
-425.573	-6.293	0.276	-0.191
-424.559	-200.000	-0.065	-0.482
-423.544	-70.147	0.070	0.027
-422.530	-132.824	-0.182	0.023
-421.515	374.022	-0.050	-0.103
-420.500	-200.000	0.036	-0.206
-419.486	130.471	-0.280	0.363
-418.471	-62.148	-0.228	0.096
-417.457	-157.447	0.316	-0.019
-416.442	47.198	0.157	0.148
-415.428	-109.958	-0.185	0.039
-414.413	800.000	0.050	0.173
-413.398	396.887	0.051	-0.108
-412.384	26.362	0.297	-0.251
-411.369	132.595	0.136	-0.178
-410.355	236.030	-0.181	-0.303
-409.340	-62.211	0.267	0.113
-408.325	236.003	-0.059	-0.098
-407.311	64.256	-0.174	-0.177
-406.296	-39.307	-0.075	-0.040
-405.282	-56.780	0.364	0.163
-404.267	-115.591	0.428	-0.081
-403.252	35.459	0.195	-0.173
-402.238	-60.695	-0.257	0.110
-401.223	77.397	-0.326	-0.350
-400.209	-56.529	-0.141	0.063
-399.194	29.937	-0.124	-0.107
-398.179	-185.763	0.299	-0.005
-397.165	-200.000	0.008	0.160
-396.150	-58.110	-0.363	0.160
-395.136	209.811	-0.028	0.044
-394.121	800.000	-0.115	-0.431
-393.106	705.749	0.110	0.294
-392.092	-79.919	-0.206	0.070
-391.077	-84.868	0.311	0.099
-390.063	113.642	0.056	0.068
-389.048	-37.502	0.090	0.049
-388.033	-115.731	-0.129	-0.024
-387.019	179.473	0.110	0.163
-386.004	498.425	0.172	0.399
-384.990	-129.478	0.037	-0.005
-383.975	459.555	-0.050	0.113
-382.960	180.210	0.227	0.337
-381.946	48.753	0.231	0.219
-380.931	800.000	0.060	0.255
-379.917	-179.308	-0.295	-0.007
-378.902	-200.000	-0.008	0.408
-377.888	-37.648	0.296	0.159
-376.873	-200.000	0.005	0.483
-375.858	449.223	-0.096	0.214
-374.844	-200.000	-0.012	0.238
-373.829	-1.080	0.174	-0.124
-372.815	-57.895	0.320	0.141
-371.800	190.686	-0.086	-0.130
-370.785	70.688	0.031	0.033
-369.771	141.176	-0.213	0.285
-368.756	155.051	-0.104	0.145
-367.742	-61.722	-0.127	0.054
-366.727	135.306	0.126	-0.166
-365.712	-47.549	-0.396	-0.194
-364.698	409.525	-0.179	-0.384
-363.683	-63.434	-0.169	-0.070
-362.669	-18.552	0.201	-0.127
-361.654	-74.713	-0.143	0.052
-360.639	265.158	0.042	0.074
-359.625	-200.000	0.039	0.435
-358.610	360.291	-0.072	-0.146
-357.596	114.067	-0.347	-0.427
-356.581	-30.327	-0.330	-0.189
-355.566	-157.608	0.225	0.014
-354.552	4.923	0.125	-0.093
-353.537	-161.532	-0.207	0.011
-352.523	-56.007	0.307	-0.138
-351.508	-200.000	0.003	-0.137
-350.493	261.954	-0.034	0.059
-349.479	95.045	-0.038	-0.044
-348.464	129.303	-0.118	0.152
-347.450	-200.000	0.011	-0.105
-346.435	-80.557	-0.170	-0.057
-345.420	-200.000	0.031	-0.306
-344.406	-168.837	0.068	0.003
-343.391	359.678	-0.111	-0.224
-342.377	138.478	-0.285	0.378
-341.362	-56.037	-0.029	0.013
-340.348	-151.837	0.103	0.008
-339.333	-129.716	0.157	0.022
-338.318	-200.000	-0.016	-0.158
-337.304	-138.418	-0.105	0.012
-336.289	80.168	-0.181	0.197
-335.275	-200.000	-0.012	0.398
-334.260	-200.000	-0.017	-0.084
-333.245	299.978	0.057	-0.107
-332.231	-200.000	0.022	0.442
-331.216	800.000	0.126	0.382
-330.202	177.852	0.144	0.212
-329.187	-46.810	-0.211	0.104
-328.172	-200.000	0.019	0.169
-327.158	-111.856	0.131	-0.027
-326.143	-44.491	0.185	0.094
-325.129	-107.430	-0.097	-0.022
-324.114	-70.193	0.197	-0.075
-323.099	194.827	0.124	0.189
-322.085	-116.534	-0.221	0.041
-321.070	-69.409	-0.143	-0.055
-320.056	195.079	0.059	-0.090
-319.041	216.822	-0.211	0.338
-318.026	-76.301	0.239	0.085
-317.012	58.168	-0.078	0.077
-315.997	-46.371	-0.086	0.043
-314.983	147.829	-0.109	-0.148
-313.968	233.701	-0.109	-0.181
-312.953	-116.377	0.166	-0.031
-311.939	-62.650	0.273	-0.114
-310.924	192.036	-0.233	0.354
-309.910	41.925	-0.227	0.208
-308.895	-78.749	0.369	0.127
-307.880	-14.713	0.054	-0.035
-306.866	800.000	0.080	-0.246
-305.851	146.656	-0.311	-0.421
-304.837	112.670	-0.300	-0.366
-303.822	-200.000	-0.006	0.146
-302.807	-156.212	0.558	-0.035
-301.793	-116.429	-0.278	-0.052
-300.778	163.598	0.103	-0.145
-299.764	-100.527	0.101	0.025
-298.749	-170.496	0.201	-0.007
-297.735	800.000	0.087	0.242
-296.720	-131.698	-0.360	0.048
-295.705	-105.628	0.102	-0.023
-294.691	-149.358	-0.384	-0.031
-293.676	255.680	0.112	-0.193
-292.662	-200.000	0.012	0.159
-291.647	154.552	-0.035	-0.048
-290.632	800.000	0.027	0.115
-289.618	116.813	-0.124	-0.153
-288.603	-124.958	-0.159	0.025
-287.589	71.938	-0.158	-0.166
-286.574	-200.000	0.264	-0.001
-285.559	109.376	-0.011	0.013
-284.545	88.808	-0.154	0.173
-283.530	312.980	-0.132	-0.250
-282.516	18.948	0.229	0.185
-281.501	-200.000	0.027	0.162
-280.486	3.978	-0.076	0.056
-279.472	-54.783	0.059	0.027
-278.457	140.683	-0.115	-0.152
-277.443	96.876	0.050	-0.058
-276.428	98.833	0.134	-0.155
-275.413	800.000	-0.038	-0.120
-274.399	-200.000	-0.054	0.390
-273.384	-37.692	0.088	-0.047
-272.370	800.000	-0.031	0.095
-271.355	-117.325	0.258	-0.047
-270.340	-45.070	-0.172	-0.086
-269.326	-200.000	-0.023	-0.141
-268.311	104.512	0.279	-0.330
-267.297	-152.952	-0.239	-0.017
-266.282	-136.056	0.254	-0.030
-265.267	800.000	-0.049	-0.209
-264.253	49.882	-0.228	-0.217
-263.238	-38.090	-0.238	0.127
-262.224	72.708	0.214	0.224
-261.209	107.525	-0.162	-0.194
-260.195	148.943	0.383	-0.521
-259.180	598.815	-0.071	0.178
-258.165	5.901	0.098	-0.073
-257.151	-44.103	0.427	0.216
-256.136	-75.346	-0.165	0.059
-255.122	-93.613	-0.219	0.061
-254.107	-161.732	0.166	0.009
-253.092	800.000	0.072	0.272
-252.078	-130.020	0.311	0.043
-251.063	565.760	0.073	0.178
-250.049	766.731	0.023	0.063
-249.034	-94.455	0.291	-0.080
-248.019	-200.000	0.023	-0.143
-247.005	-200.000	0.082	-0.473
-245.990	228.397	-0.176	0.289
-244.976	177.185	-0.153	0.224
-243.961	800.000	-0.131	-0.436
-242.946	-2.925	-0.103	0.072
-241.932	-124.964	0.174	0.027
-240.917	130.536	0.198	-0.255
-239.903	309.306	0.111	0.209
-238.888	-200.000	0.038	-0.203
-237.873	800.000	-0.067	-0.219
-236.859	-56.567	0.302	0.135
-235.844	-200.000	0.032	0.166
-234.830	18.597	0.209	0.168
-233.815	-132.542	0.208	-0.027
-232.800	1.734	-0.197	0.143
-231.786	-200.000	0.030	-0.234
-230.771	800.000	0.029	-0.090
-229.757	-48.860	-0.161	-0.078
-228.742	56.751	0.124	0.121
-227.727	-72.378	0.154	-0.057
-226.713	0.892	-0.245	0.176
-225.698	-161.032	-0.429	0.023
-224.684	-42.004	0.300	-0.154
-223.669	-1.571	-0.118	-0.084
-222.655	94.033	-0.221	-0.252
-221.640	-99.492	-0.159	-0.040
-220.625	-4.543	-0.175	-0.122
-219.611	256.253	0.067	0.115
-218.596	97.272	-0.145	0.167
-217.582	-200.000	0.072	0.358
-216.567	49.387	-0.139	0.131
-215.552	768.200	-0.097	0.264
-214.538	389.745	-0.036	0.076
-213.523	684.210	-0.062	-0.161
-212.509	-200.000	0.020	-0.207
-211.494	163.343	0.232	0.327
-210.479	-119.162	-0.033	0.006
-209.465	800.000	0.039	0.144
-208.450	5.640	-0.160	-0.118
-207.436	-42.603	0.464	0.237
-206.421	800.000	0.048	-0.145
-205.406	500.286	0.013	0.030
-204.392	2.263	0.079	-0.058
-203.377	-200.000	-0.043	0.445
-202.363	-145.644	0.141	0.013
-201.348	46.471	0.245	-0.228
-200.333	-200.000	0.036	-0.265
-199.319	743.393	-0.124	0.334
-198.304	-200.000	0.020	0.222
-197.290	201.708	-0.137	-0.213
-196.275	-118.977	-0.122	0.022
-195.260	-122.804	0.060	0.010
-194.246	100.270	-0.117	0.136
-193.231	114.592	0.235	0.287
-192.217	52.524	-0.110	-0.106
-191.202	57.395	0.190	-0.186
-190.187	-27.022	-0.415	0.243
-189.173	800.000	0.048	0.151
-188.158	-200.000	-0.022	0.355
-187.144	75.479	-0.224	0.237
-186.129	-200.000	0.017	-0.140
-185.114	186.377	0.097	0.144
-184.100	726.211	0.254	-0.680
-183.085	119.436	0.287	0.356
-182.071	-110.494	-0.110	0.023
-181.056	587.186	-0.120	-0.296
-180.042	129.737	-0.141	0.181
-179.027	49.603	-0.057	-0.054
-178.012	-200.000	-0.002	0.246
-176.998	-200.000	-0.051	-0.237
-175.983	13.159	-0.152	0.118
-174.969	268.651	0.060	-0.105
-173.954	800.000	0.096	0.375
-172.939	-200.000	-0.010	0.214
-171.925	-27.859	0.077	-0.045
-170.910	631.921	-0.032	0.080
-169.896	-135.787	0.174	0.021
-168.881	800.000	0.088	0.307
-167.866	200.321	-0.120	0.185
-166.852	-123.499	-0.274	-0.044
-165.837	148.252	-0.099	-0.134
-164.823	-200.000	0.004	-0.091
-163.808	-38.203	0.300	0.159
-162.793	163.248	-0.122	-0.172
-161.779	-6.844	0.325	-0.221
-160.764	47.910	-0.317	-0.297
-159.750	290.746	-0.087	0.158
-158.735	645.840	-0.027	-0.070
-157.720	-75.076	-0.199	0.071
-156.706	-200.000	0.019	-0.122
-155.691	660.600	0.159	-0.411
-154.677	-0.695	-0.192	-0.136
-153.662	67.376	0.223	-0.228
-152.647	-58.177	0.196	-0.086
-151.633	-200.000	-0.003	-0.090
-150.618	-77.718	0.267	0.093
-149.604	107.824	0.162	-0.193
-148.589	-200.000	-0.013	-0.307
-147.574	-10.190	0.111	-0.074
-146.560	-123.606	-0.034	-0.005
-145.545	387.386	0.140	0.290
-144.531	-102.520	0.084	0.020
-143.516	-82.032	0.122	0.040
-142.502	800.000	0.020	0.086
-141.487	169.091	0.101	0.144
-140.472	3.198	0.044	0.032
-139.458	774.860	0.046	0.125
-138.443	766.246	-0.088	-0.239
-137.429	-121.753	-0.243	0.040
-136.414	-145.242	-0.212	0.019
-135.399	-200.000	0.013	0.132
-134.385	-184.734	-0.236	0.004
-133.370	-129.683	0.115	0.016
-132.356	-200.000	0.015	0.115
-131.341	387.765	0.109	0.225
-130.326	-116.747	0.067	0.012
-129.312	38.783	-0.243	0.217
-128.297	-200.000	0.041	-0.199
-127.283	-188.680	-0.153	-0.002
-126.268	-200.000	0.003	-0.151
-125.253	-200.000	0.000	-0.117
-124.239	-0.727	-0.129	0.091
-123.224	-200.000	-0.006	-0.045
-122.210	163.964	0.076	-0.107
-121.195	-33.048	-0.138	-0.077
-120.180	242.223	0.178	-0.297
-119.166	122.579	-0.194	0.243
-118.151	39.226	0.078	-0.070
-117.137	800.000	0.078	-0.280
-116.122	-200.000	0.020	0.153
-115.107	-90.975	-0.314	0.090
-114.093	800.000	-0.019	-0.079
-113.078	658.389	-0.028	0.072
-112.064	132.475	-0.184	-0.238
-111.049	-200.000	0.012	-0.547
-110.034	-107.521	0.245	-0.054
-109.020	38.973	-0.057	0.051
-108.005	21.738	-0.149	-0.121
-106.991	-58.239	-0.414	-0.180
-105.976	15.699	-0.047	-0.037
-104.962	-15.692	0.097	0.062
-103.947	-96.431	0.097	-0.026
-102.932	-30.467	-0.182	-0.103
-101.918	-90.073	0.280	0.082
-100.903	-137.071	-0.266	-0.030
-99.889	-200.000	-0.004	0.036
-98.874	164.580	0.122	-0.171
-97.859	116.685	-0.173	-0.212
-96.845	-56.875	0.263	0.116
-95.830	-2.188	-0.085	0.059
-94.816	-119.011	-0.131	0.023
-93.801	800.000	0.073	0.269
-92.786	-200.000	-0.008	-0.101
-91.772	-66.607	-0.177	-0.070
-90.757	-200.000	-0.017	-0.225
-89.743	800.000	0.060	-0.250
-88.728	205.851	0.089	-0.138
-87.713	-148.145	-0.116	-0.010
-86.699	800.000	0.090	-0.336
-85.684	-121.063	0.275	0.046
-84.670	-93.866	-0.178	-0.049
-83.655	1.598	-0.147	0.106
-82.640	800.000	-0.007	0.024
-81.626	-3.780	0.047	-0.033
-80.611	115.083	-0.172	-0.209
-79.597	160.547	0.022	0.031
-78.582	-1.226	-0.049	-0.035
-77.567	156.546	-0.046	0.064
-76.553	655.010	0.083	-0.213
-75.538	-75.073	-0.307	0.110
-74.524	-200.000	0.011	-0.144
-73.509	-88.661	-0.241	-0.072
-72.494	-92.080	0.258	-0.073
-71.480	800.000	0.056	0.186
-70.465	800.000	0.064	-0.189
-69.451	50.106	0.086	-0.081
-68.436	169.903	-0.084	0.120
-67.422	-73.843	0.400	-0.145
-66.407	-75.782	-0.110	-0.039
-65.392	800.000	0.089	0.250
-64.378	800.000	0.059	-0.164
-63.363	-50.421	0.519	-0.244
-62.349	29.382	-0.095	0.081
-61.334	9.861	-0.739	-0.560
-60.319	-93.299	0.524	0.145
-59.305	-200.000	-0.090	-0.735
-58.290	78.473	0.764	0.815
-57.276	800.000	0.520	1.730
-56.261	-200.000	74.538	526.655
-55.246	563.663	1298.228	3136.282
-54.232	145.607	2536.501	3389.866
-53.217	113.681	2348.506	2846.086
-52.203	52.258	1961.781	1866.092
-51.188	45.924	1749.474	1614.453
-50.173	43.059	1701.445	1548.103
-49.159	56.832	1734.575	1685.015
-48.144	63.010	1753.451	1751.010
-47.130	45.823	1717.222	1583.657
-46.115	42.461	1703.829	1545.422
-45.100	42.291	1698.886	1539.573
-44.086	42.332	1696.101	1537.301
-43.071	42.366	1693.273	1534.940
-42.057	42.228	1691.138	1531.883
-41.042	42.281	1688.750	1530.068
-40.027	42.284	1687.056	1528.498
-39.013	42.229	1685.600	1526.696
-37.998	42.219	1683.553	1524.702
-36.984	42.368	1681.782	1524.172
-35.969	42.511	1679.974	1523.557
-34.954	42.529	1678.745	1522.520
-33.940	42.491	1677.160	1520.733
-32.925	42.459	1675.140	1518.599
-31.911	42.499	1673.285	1517.162
-30.896	42.488	1671.535	1515.429
-29.881	42.434	1669.714	1513.313
-28.867	42.402	1668.254	1511.687
-27.852	42.394	1666.761	1510.214
-26.838	42.390	1665.109	1508.626
-25.823	42.473	1663.707	1507.918
-24.809	42.600	1662.110	1507.364
-23.794	42.437	1661.286	1505.335
-22.779	42.430	1659.584	1503.684
-21.765	42.494	1657.875	1502.557
-20.750	42.444	1655.724	1500.173
-19.736	42.427	1655.025	1499.354
-18.721	42.537	1653.195	1498.454
-17.706	42.486	1651.386	1496.374
-16.692	42.472	1650.031	1494.981
-15.677	42.503	1648.357	1493.635
-14.663	42.408	1647.335	1491.945
-13.648	42.414	1646.106	1490.821
-12.633	42.514	1644.326	1489.891
-11.619	42.465	1642.623	1487.926
-10.604	42.400	1641.317	1486.203
-9.590	42.550	1639.383	1485.499
-8.575	42.393	1638.565	1483.541
-7.560	42.449	1637.349	1482.795
-6.546	42.390	1636.086	1481.159
-5.531	42.428	1635.144	1480.524
-4.517	42.448	1633.993	1479.569
-3.502	42.462	1632.770	1478.511
-2.487	42.343	1631.597	1476.514
-1.473	42.569	1620.798	1468.335
-0.458	40.268	1601.718	1434.345
0.556	35.596	1600.035	1400.072
1.571	32.952	1624.167	1401.476
2.586	32.143	1638.483	1407.644
3.600	28.154	1585.565	1333.060
4.615	15.354	1463.482	1143.621
5.629	3.476	1385.654	1005.627
6.644	1.130	1374.999	982.611
7.659	0.844	1373.839	979.844
8.673	0.856	1372.470	978.857
9.688	0.831	1370.886	977.481
10.702	0.587	1367.952	973.728
11.717	4.814	1377.000	1007.479
12.731	16.709	1400.215	1102.235
13.746	24.381	1412.551	1162.025
14.761	24.621	1411.581	1162.683
15.775	24.525	1411.211	1161.653
16.790	24.591	1410.330	1161.252
17.804	24.678	1409.358	1160.918
18.819	24.858	1409.436	1162.046
19.834	24.820	1408.915	1161.269
20.848	24.877	1408.037	1160.811
21.863	24.964	1407.465	1160.801
22.877	24.870	1406.425	1159.231
23.892	24.858	1405.625	1158.391
24.907	24.850	1404.951	1157.684
25.921	24.968	1403.668	1157.286
26.936	24.896	1402.636	1155.870
27.950	24.895	1401.676	1154.968
28.965	24.908	1400.186	1153.719
29.980	24.912	1399.113	1152.762
30.994	24.951	1397.645	1151.699
32.009	24.892	1396.512	1150.288
33.023	24.862	1395.703	1149.327
34.038	24.938	1394.149	1148.428
35.053	24.900	1393.260	1147.355
36.067	24.943	1392.686	1147.054
37.082	24.873	1391.348	1145.401
38.096	24.740	1390.542	1143.788
39.111	24.702	1389.945	1142.954
40.126	24.819	1388.784	1142.645
41.140	24.875	1388.082	1142.321
42.155	24.810	1388.180	1141.888
43.169	24.886	1388.050	1142.163
44.184	24.862	1387.569	1141.511
45.199	24.852	1387.430	1141.233
46.213	24.871	1386.886	1140.805
47.228	24.808	1385.642	1139.283
48.242	24.889	1384.538	1138.787
49.257	24.947	1382.823	1137.644
50.271	24.809	1381.676	1135.729
51.286	24.794	1380.540	1134.599
52.301	24.788	1379.414	1133.533
53.315	24.882	1378.069	1132.922
54.330	24.771	1378.028	1132.084
55.344	24.793	1376.371	1130.761
56.359	24.826	1374.914	1129.673
57.374	24.805	1374.468	1129.077
58.388	24.784	1373.855	1128.341
59.403	24.832	1373.601	1128.333
60.417	24.801	1372.844	1127.415
61.432	24.867	1371.848	1126.914
62.447	24.849	1371.271	1126.226
63.461	24.879	1369.643	1124.982
64.476	24.859	1368.879	1124.126
65.490	24.781	1367.578	1122.468
66.505	24.840	1366.108	1121.536
67.520	24.902	1364.769	1120.723
68.534	24.861	1363.956	1119.703
69.549	24.899	1362.776	1118.868
70.563	24.897	1361.938	1118.068
71.578	24.888	1361.101	1117.226
72.593	24.852	1360.275	1116.227
73.607	24.844	1359.311	1115.287
74.622	24.898	1358.523	1114.876
75.636	24.966	1357.487	1114.353
76.651	24.931	1357.063	1113.691
77.666	24.905	1356.517	1112.983
78.680	24.921	1356.198	1112.719
79.695	24.808	1355.392	1111.259
80.709	24.862	1354.553	1110.804
81.724	24.823	1353.563	1109.653
82.739	24.756	1353.147	1108.798
83.753	24.819	1351.910	1108.077
84.768	24.899	1350.448	1107.278
85.782	24.926	1349.456	1106.536
86.797	24.978	1348.344	1105.847
87.812	24.870	1347.723	1104.573
88.826	24.959	1346.114	1103.700
89.841	24.856	1345.485	1102.456
90.855	24.825	1344.969	1101.743
91.870	24.911	1343.624	1101.071
92.884	24.813	1343.303	1100.111
93.899	24.936	1341.887	1099.610
94.914	24.931	1341.375	1099.062
95.928	24.883	1340.930	1098.304
96.943	24.943	1339.841	1097.682
97.957	24.895	1339.027	1096.628
98.972	24.950	1337.740	1095.811
99.987	24.802	1337.670	1094.750
101.001	24.929	1336.280	1094.294
102.016	24.927	1335.258	1093.346
103.030	24.929	1334.651	1092.766
104.045	24.930	1333.323	1091.586
105.060	24.899	1332.549	1090.668
106.074	24.951	1331.633	1090.138
107.089	24.907	1330.598	1088.927
108.103	24.895	1329.815	1088.117
109.118	25.020	1328.573	1087.763
110.133	24.955	1327.224	1086.167
111.147	24.979	1326.268	1085.438
112.162	25.021	1324.954	1084.520
113.176	24.997	1323.891	1083.406
114.191	25.006	1323.242	1082.834
115.206	25.001	1322.312	1081.947
116.220	24.978	1321.023	1080.661
117.235	25.000	1320.313	1080.116
118.249	24.929	1319.645	1079.044
119.264	25.030	1318.374	1078.517
120.279	25.057	1317.571	1077.927
121.293	25.079	1316.515	1077.102
122.308	25.040	1315.827	1076.206
123.322	25.088	1314.860	1075.608
124.337	25.032	1314.633	1074.992
125.352	25.104	1313.234	1074.188
126.366	25.024	1312.634	1073.119
127.381	25.025	1311.674	1072.249
128.395	25.024	1310.710	1071.359
129.410	25.020	1310.264	1070.874
130.424	25.073	1309.293	1070.306
131.439	25.101	1308.135	1069.432
132.454	25.035	1307.551	1068.464
133.468	25.067	1306.774	1067.926
134.483	24.999	1306.549	1067.239
135.497	25.106	1305.221	1066.698
136.512	25.120	1304.402	1066.019
137.527	25.113	1303.365	1065.037
138.541	25.034	1302.182	1063.505
139.556	24.974	1301.146	1062.211
140.570	25.047	1300.182	1061.761
141.585	25.051	1298.927	1060.665
142.600	25.085	1297.757	1059.819
143.614	25.086	1297.025	1059.130
144.629	25.002	1296.173	1057.848
145.643	25.025	1294.934	1056.880
146.658	24.841	1294.332	1055.209
147.673	25.000	1292.730	1054.747
148.687	24.915	1292.062	1053.608
149.702	24.996	1290.531	1052.743
150.716	24.904	1289.519	1051.279
151.731	25.081	1288.209	1051.156
152.746	24.932	1287.696	1049.772
153.760	25.077	1286.124	1049.248
154.775	24.916	1285.535	1047.733
155.789	25.023	1284.784	1047.654
156.804	24.985	1283.478	1046.274
157.819	24.996	1282.951	1045.818
158.833	24.972	1282.026	1044.830
159.848	25.005	1281.606	1044.587
160.862	25.015	1280.752	1043.859
161.877	24.996	1279.754	1042.841
162.892	25.091	1278.689	1042.431
163.906	24.969	1278.135	1041.178
164.921	25.079	1277.326	1041.069
165.935	25.090	1276.810	1040.618
166.950	25.100	1275.781	1039.747
167.964	25.052	1275.171	1038.881
168.979	25.165	1274.549	1038.934
169.994	25.090	1274.009	1037.968
171.008	25.163	1273.342	1037.756
172.023	25.114	1272.748	1036.897
173.037	25.158	1271.865	1036.341
174.052	25.056	1271.149	1035.073
175.067	25.182	1269.970	1034.752
176.081	25.178	1269.483	1034.240
177.096	25.112	1268.548	1033.007
178.110	25.143	1267.748	1032.443
179.125	25.149	1266.888	1031.684
180.140	25.213	1265.690	1030.986
181.154	25.207	1264.748	1030.090
182.169	25.281	1263.719	1029.588
183.183	25.270	1262.353	1028.322
184.198	25.176	1261.707	1027.167
185.213	25.178	1260.546	1026.140
186.227	25.283	1259.369	1025.690
187.242	25.221	1259.151	1025.066
188.256	25.134	1257.999	1023.546
189.271	25.276	1257.193	1023.608
190.286	25.290	1256.752	1023.237
191.300	25.185	1256.262	1022.150
192.315	25.191	1255.377	1021.373
193.329	25.255	1254.885	1021.248
194.344	25.225	1254.716	1020.848
195.359	25.322	1254.350	1021.009
196.373	25.202	1253.939	1019.903
197.388	25.165	1253.437	1019.194
198.402	25.138	1252.807	1018.442
199.417	25.152	1252.374	1018.079
200.432	25.288	1251.463	1018.018
201.446	25.202	1251.289	1017.298
202.461	25.302	1250.089	1016.798
203.475	25.291	1249.413	1016.099
204.490	25.206	1248.494	1014.782
205.504	25.226	1247.297	1013.829
206.519	25.360	1246.145	1013.562
207.534	25.291	1245.586	1012.624
208.548	25.298	1244.472	1011.669
209.563	25.294	1244.050	1011.215
210.577	25.271	1242.935	1010.091
211.592	25.276	1242.352	1009.556
212.607	25.347	1241.646	1009.293
213.621	25.344	1240.948	1008.615
214.636	25.292	1240.424	1007.809
215.650	25.322	1239.400	1007.056
216.665	25.338	1238.159	1006.048
217.680	25.328	1237.484	1005.354
218.694	25.325	1236.556	1004.493
219.709	25.391	1235.823	1004.184
220.723	25.348	1234.985	1003.170
221.738	25.278	1234.457	1002.265
222.753	25.314	1233.562	1001.648
223.767	25.337	1232.966	1001.203
224.782	25.393	1232.537	1001.079
225.796	25.377	1232.202	1000.630
226.811	25.487	1231.286	1000.412
227.826	25.469	1230.880	999.889
228.840	25.457	1230.200	999.183
229.855	25.417	1229.435	998.251
230.869	25.475	1228.494	997.720
231.884	25.524	1227.817	997.354
232.899	25.503	1227.142	996.599
233.913	25.553	1226.403	996.190
234.928	25.549	1226.134	995.862
235.942	25.625	1225.706	995.843
236.957	25.456	1225.045	994.286
237.972	25.444	1224.216	993.461
238.986	25.418	1223.864	992.940
240.001	25.380	1223.254	992.147
241.015	25.709	1221.812	992.708
242.030	25.530	1221.364	991.269
243.045	25.669	1220.402	991.167
244.059	25.608	1219.673	990.147
245.074	25.631	1219.010	989.649
246.088	25.585	1218.133	988.598
247.103	25.732	1217.230	988.586
248.117	25.552	1216.786	987.147
249.132	25.594	1216.180	986.802
250.147	25.732	1215.525	986.941
251.161	25.652	1214.412	985.508
252.176	25.669	1214.330	985.448
253.190	25.689	1213.290	984.624
254.205	25.676	1212.655	983.954
255.220	25.722	1211.783	983.412
256.234	25.783	1211.327	983.287
257.249	25.654	1211.145	982.345
258.263	25.722	1210.361	981.992
259.278	25.771	1209.600	981.558
260.293	25.779	1209.175	981.168
261.307	25.703	1208.804	980.366
262.322	25.857	1207.583	980.128
263.336	25.750	1207.295	979.225
264.351	25.686	1206.719	978.322
265.366	25.655	1206.583	977.956
266.380	25.745	1205.284	977.306
267.395	25.690	1205.066	976.744
268.409	25.673	1204.263	975.915
269.424	25.651	1203.204	974.850
270.439	25.774	1202.887	975.174
271.453	25.808	1202.266	974.772
272.468	25.725	1201.334	973.479
273.482	25.659	1200.766	972.578
274.497	25.702	1200.794	972.747
275.512	25.809	1199.855	972.479
276.526	25.896	1199.061	972.214
277.541	25.808	1198.385	971.107
278.555	25.828	1197.786	970.643
279.570	25.879	1197.090	970.271
280.585	25.720	1196.737	969.040
281.599	25.917	1195.418	968.947
282.614	25.908	1194.262	967.875
283.628	25.893	1193.412	967.022
284.643	25.856	1192.652	966.121
285.657	25.972	1191.635	965.834
286.672	25.882	1191.245	964.949
287.687	25.876	1190.529	964.249
288.701	25.831	1189.718	963.268
289.716	25.951	1188.848	963.123
290.730	26.064	1188.029	962.972
291.745	26.039	1187.240	962.114
292.760	25.965	1187.354	961.731
293.774	25.949	1186.868	961.167
294.789	25.954	1186.063	960.454
295.803	26.088	1185.085	960.289
296.818	25.926	1185.029	959.298
297.833	26.008	1183.989	958.807
298.847	26.064	1183.350	958.501
299.862	26.016	1182.589	957.547
300.876	26.154	1182.047	957.756
301.891	26.011	1181.554	956.511
302.906	26.170	1180.632	956.525
303.920	26.145	1179.842	955.669
304.935	26.072	1179.392	954.831
305.949	26.056	1178.800	954.184
306.964	26.190	1177.493	953.751
307.979	26.173	1177.574	953.642
308.993	26.144	1176.878	952.841
310.008	26.081	1176.174	951.853
311.022	26.226	1175.072	951.639
312.037	26.277	1174.004	950.959
313.052	26.171	1173.470	949.888
314.066	26.207	1172.743	949.405
315.081	26.230	1171.700	948.597
316.095	26.202	1171.353	948.081
317.110	26.094	1171.001	947.148
318.125	26.211	1170.281	947.097
319.139	26.337	1169.299	946.874
320.154	26.147	1168.819	945.408
321.168	26.205	1168.376	945.272
322.183	26.210	1167.868	944.800
323.197	26.180	1167.154	943.985
324.212	26.312	1166.294	943.896
325.227	26.237	1166.353	943.468
326.241	26.269	1165.752	943.062
327.256	26.268	1164.981	942.350
328.270	26.301	1164.176	941.792
329.285	26.379	1163.135	941.270
330.300	26.514	1162.089	941.043
331.314	26.344	1161.195	939.350
332.329	26.350	1160.607	938.824
333.343	26.376	1160.309	938.636
334.358	26.486	1159.067	938.116
335.373	26.489	1158.248	937.385
336.387	26.494	1157.796	936.966
337.402	26.487	1157.255	936.406
338.416	26.429	1156.429	935.354
339.431	26.448	1156.055	935.069
340.446	26.565	1155.090	934.810
341.460	26.618	1154.565	934.577
342.475	26.684	1153.609	934.060
343.489	26.534	1152.735	932.494
344.504	26.585	1151.929	932.023
345.519	26.608	1151.236	931.500
346.533	26.428	1150.968	930.275
347.548	26.590	1149.609	929.926
348.562	26.464	1149.170	928.840
349.577	26.714	1148.158	929.224
350.592	26.541	1147.759	927.931
351.606	26.539	1146.952	927.187
352.621	26.576	1146.383	926.834
353.635	26.477	1145.961	925.906
354.650	26.634	1144.918	925.784
355.665	26.587	1144.741	925.319
356.679	26.664	1144.072	925.086
357.694	26.664	1143.320	924.398
358.708	26.622	1142.548	923.480
359.723	26.646	1141.679	922.818
360.738	26.723	1140.711	922.343
361.752	26.713	1140.451	922.003
362.767	26.749	1140.168	921.872
363.781	26.832	1139.713	921.845
364.796	26.688	1139.355	920.743
365.810	26.826	1138.344	920.547
366.825	26.745	1137.806	919.616
367.840	26.835	1137.288	919.574
368.854	26.760	1136.475	918.456
369.869	26.916	1135.572	918.436
370.883	26.951	1134.765	917.879
371.898	26.944	1134.475	917.525
372.913	26.771	1134.035	916.213
373.927	26.859	1133.758	916.352
374.942	26.798	1133.135	915.462
375.956	26.881	1132.404	915.209
376.971	26.942	1131.806	914.952
377.986	26.847	1131.208	913.911
379.000	26.861	1130.989	913.720
380.015	27.042	1130.092	913.828
381.029	26.950	1129.565	912.856
382.044	26.961	1128.927	912.314
383.059	27.037	1128.171	912.007
384.073	26.917	1127.817	911.036
385.088	26.955	1126.686	910.231
386.102	27.088	1125.533	909.890
387.117	27.047	1124.598	908.844
388.132	26.958	1124.159	907.964
389.146	27.157	1123.228	908.130
390.161	26.981	1122.851	906.864
391.175	27.104	1121.924	906.650
392.190	27.033	1121.377	905.772
393.205	27.108	1120.859	905.647
394.219	27.208	1120.092	905.447
395.234	27.109	1119.554	904.440
396.248	27.123	1118.545	903.610
397.263	27.062	1117.604	902.468
398.278	27.065	1117.384	902.226
399.292	27.236	1116.468	902.254
400.307	27.231	1116.088	901.842
401.321	27.156	1114.964	900.484
402.336	27.252	1114.488	900.495
403.350	27.019	1114.238	899.061
404.365	27.283	1113.202	899.450
405.380	27.224	1112.309	898.359
406.394	27.205	1111.769	897.749
407.409	27.343	1110.997	897.724
408.423	27.339	1110.085	896.890
409.438	27.330	1109.503	896.294
410.453	27.379	1108.835	895.917
411.467	27.318	1108.367	895.163
412.482	27.357	1107.332	894.435
413.496	27.393	1106.325	893.724
414.511	27.417	1105.917	893.432
415.526	27.328	1105.732	892.768
416.540	27.325	1105.585	892.555
417.555	27.355	1104.978	892.134
418.569	27.455	1104.310	892.002
419.584	27.480	1103.883	891.700
420.599	27.430	1103.960	891.440
421.613	82.140	1288.755	1341.755
422.628	77.007	1315.657	1341.890
