DTS Sentinel unit serial number:	SN413079Multiplexer serial number:	ORYXHardware model number:	OX4-SRSoftware version number:	ORYX F/W v4.00 Oryx Data Collector v3.7.2.0data status	okinstallation	princeton_trtdifferential loss correction	single-endedforward channel	channel 2reverse channel	N/Adate	2019/09/17time	09:55:34forward acquisition time	60.00reverse acquisition time	0.00gamma	496.2192k internal	0.2326k external	0.2326temperature offset calibration	0.9976default loss term (dB/km)	0.3790temperature slope calibration	1.0000multiplexer offset coefficient	1.0000multiplexer slope coefficient	1.0000fibre end	0.00T internal ref (°C)	29.55T ext. ref 1 (°C)	0.17T ext. ref 2 (°C)	25.27length (m)	temperature (°C)	Stokes	anti-Stokes-747.200	-42.058	0.076	-0.039
-746.185	-95.960	0.177	-0.048
-745.171	2.331	-0.446	0.326
-744.156	47.156	0.077	0.072
-743.142	-200.000	-0.055	0.282
-742.127	223.526	-0.241	0.393
-741.112	20.338	0.355	0.289
-740.098	-34.808	-0.113	0.062
-739.083	-121.642	0.052	-0.009
-738.069	60.165	-0.334	0.333
-737.054	528.186	0.042	-0.099
-736.039	800.000	0.104	-0.455
-735.025	-200.000	-0.015	0.079
-734.010	-200.000	0.011	-0.340
-732.996	64.805	-0.216	0.220
-731.981	114.652	-0.045	-0.055
-730.966	-131.501	-0.288	0.038
-729.952	545.058	0.204	-0.492
-728.937	-91.461	-0.295	-0.085
-727.923	-29.100	0.180	-0.104
-726.908	-200.000	0.042	0.226
-725.894	-169.701	-0.054	-0.002
-724.879	800.000	-0.064	-0.232
-723.864	-200.000	-0.068	0.358
-722.850	-83.769	0.010	0.003
-721.835	800.000	-0.105	-0.310
-720.821	339.836	-0.088	0.172
-719.806	256.814	0.124	-0.215
-718.791	-200.000	0.045	-0.229
-717.777	-136.287	-0.335	-0.039
-716.762	-148.998	-0.179	-0.015
-715.748	69.748	-0.220	-0.228
-714.733	-35.183	-0.314	-0.172
-713.718	-200.000	-0.021	0.093
-712.704	-144.272	0.226	0.021
-711.689	-200.000	-0.027	-0.404
-710.675	-200.000	0.010	-0.138
-709.660	-200.000	-0.055	0.274
-708.645	-122.319	-0.242	-0.040
-707.631	240.419	-0.110	-0.185
-706.616	-61.622	-0.082	-0.035
-705.602	9.619	0.108	0.082
-704.587	335.853	-0.077	-0.150
-703.572	24.723	-0.190	-0.159
-702.558	-45.969	-0.144	0.071
-701.543	571.184	0.101	-0.248
-700.529	-200.000	-0.019	-0.298
-699.514	-123.188	0.246	0.040
-698.499	-108.217	-0.223	-0.048
-697.485	400.303	0.078	0.165
-696.470	26.675	0.186	-0.157
-695.456	-200.000	-0.040	0.313
-694.441	-45.342	-0.342	0.171
-693.426	-28.268	-0.125	0.072
-692.412	57.068	-0.144	-0.142
-691.397	51.090	-0.072	-0.069
-690.383	543.268	0.100	-0.241
-689.368	105.875	-0.275	-0.328
-688.354	-71.742	-0.278	-0.105
-687.339	-200.000	0.002	0.066
-686.324	11.529	-0.106	-0.082
-685.310	-50.416	-0.333	-0.158
-684.295	319.432	-0.050	-0.096
-683.281	-128.223	-0.153	0.022
-682.266	-78.727	-0.374	-0.129
-681.251	-37.709	-0.188	-0.100
-680.237	-144.082	0.092	0.009
-679.222	-86.075	0.086	-0.027
-678.208	-53.329	0.257	0.119
-677.193	-31.125	-0.251	0.142
-676.178	797.306	-0.186	0.516
-675.164	800.000	0.054	0.191
-674.149	9.837	0.105	-0.080
-673.135	475.638	-0.118	-0.267
-672.120	-53.356	0.214	0.098
-671.105	-200.000	0.069	-0.407
-670.091	59.262	-0.241	0.238
-669.076	-43.603	0.181	0.092
-668.062	32.909	0.157	0.137
-667.047	-115.364	-0.062	0.012
-666.032	49.926	-0.533	0.506
-665.018	157.713	0.054	-0.076
-664.003	-37.197	-0.176	-0.095
-662.989	-200.000	-0.018	0.208
-661.974	-36.754	-0.351	-0.189
-660.959	-200.000	0.031	-0.315
-659.945	127.245	-0.083	0.106
-658.930	406.697	-0.056	-0.119
-657.916	23.418	-0.089	-0.074
-656.901	-110.045	-0.273	-0.057
-655.886	154.311	-0.051	-0.071
-654.872	427.043	0.122	0.263
-653.857	139.213	-0.144	-0.190
-652.843	-162.938	-0.139	0.007
-651.828	-129.415	-0.039	-0.005
-650.814	271.956	0.041	0.072
-649.799	-127.731	0.049	0.007
-648.784	222.503	-0.115	-0.187
-647.770	208.025	-0.071	-0.111
-646.755	502.618	-0.049	-0.114
-645.741	-34.100	-0.221	0.122
-644.726	-9.943	-0.195	0.130
-643.711	-200.000	-0.023	0.126
-642.697	369.533	0.090	-0.182
-641.682	439.111	0.107	-0.234
-640.668	-200.000	0.011	0.214
-639.653	-200.000	0.050	-0.296
-638.638	2.005	0.133	-0.097
-637.624	-68.647	-0.180	-0.070
-636.609	-183.489	-0.183	-0.003
-635.595	521.448	-0.096	0.226
-634.580	-163.236	0.087	-0.004
-633.565	800.000	0.019	0.062
-632.551	800.000	-0.057	-0.159
-631.536	113.905	0.172	-0.211
-630.522	57.935	-0.120	0.118
-629.507	122.310	0.081	0.101
-628.492	800.000	-0.122	-0.386
-627.478	-200.000	-0.002	0.115
-626.463	-200.000	-0.014	0.091
-625.449	-200.000	-0.013	0.197
-624.434	177.112	-0.153	0.223
-623.419	436.363	0.093	0.203
-622.405	-46.419	0.118	0.058
-621.390	-185.895	0.529	0.008
-620.376	-91.103	0.240	0.069
-619.361	-122.120	-0.103	0.017
-618.346	109.579	-0.231	0.278
-617.332	-119.092	-0.481	0.084
-616.317	152.147	-0.069	-0.095
-615.303	122.286	-0.139	-0.174
-614.288	-110.246	0.454	0.095
-613.273	-200.000	-0.026	-0.371
-612.259	-11.631	0.035	0.023
-611.244	800.000	0.058	0.177
-610.230	14.044	-0.026	-0.021
-609.215	-200.000	-0.031	0.151
-608.201	-144.396	-0.352	-0.033
-607.186	-117.718	0.260	-0.047
-606.171	-200.000	0.031	-0.136
-605.157	165.292	-0.056	-0.079
-604.142	410.112	-0.063	-0.134
-603.128	-167.517	-0.110	-0.004
-602.113	266.384	0.102	-0.179
-601.098	-134.119	-0.342	-0.042
-600.084	-160.793	-0.178	0.009
-599.069	236.453	-0.111	0.185
-598.055	-200.000	0.003	-0.053
-597.040	-200.000	0.001	-0.376
-596.025	-6.283	-0.131	0.090
-595.011	-200.000	0.024	0.234
-593.996	58.687	0.138	-0.136
-592.982	-91.629	0.310	0.089
-591.967	121.451	-0.085	0.106
-590.952	7.561	0.166	0.124
-589.938	-1.322	0.267	-0.189
-588.923	800.000	0.012	0.053
-587.909	391.924	-0.200	-0.416
-586.894	175.364	0.170	0.248
-585.879	-57.384	0.259	0.114
-584.865	-106.529	0.107	-0.024
-583.850	59.604	0.256	0.253
-582.836	800.000	0.091	-0.260
-581.821	384.844	-0.130	0.269
-580.806	-140.369	-0.278	-0.029
-579.792	-129.144	0.156	0.022
-578.777	149.422	-0.159	0.216
-577.763	-200.000	0.007	-0.069
-576.748	-21.721	0.215	-0.131
-575.733	-200.000	-0.289	0.000
-574.719	800.000	0.020	-0.074
-573.704	-138.379	-0.029	0.003
-572.690	-200.000	-0.027	-0.199
-571.675	-71.249	0.232	-0.087
-570.661	800.000	0.090	-0.261
-569.646	-200.000	-0.030	-0.416
-568.631	-88.788	0.292	-0.087
-567.617	140.915	0.143	0.190
-566.602	-200.000	-0.013	-0.057
-565.588	26.800	-0.081	-0.068
-564.573	-74.487	-0.330	0.119
-563.558	-110.648	0.111	-0.023
-562.544	-74.219	-0.045	-0.016
-561.529	-27.481	0.039	-0.023
-560.515	-56.787	-0.422	0.187
-559.500	28.806	0.146	0.124
-558.485	-72.698	-0.539	0.199
-557.471	389.724	0.078	0.162
-556.456	-124.374	-0.120	-0.019
-555.442	-7.956	-0.208	-0.140
-554.427	-111.085	-0.140	0.029
-553.412	-69.957	0.277	0.106
-552.398	28.964	-0.266	0.226
-551.383	-66.606	0.086	-0.034
-550.369	124.430	0.012	-0.016
-549.354	-26.966	0.156	-0.091
-548.339	563.743	0.015	0.037
-547.325	-83.800	0.106	0.034
-546.310	-102.071	0.108	-0.026
-545.296	-125.696	-0.248	-0.038
-544.281	753.121	-0.080	-0.216
-543.266	-139.109	-0.180	0.020
-542.252	-126.295	-0.267	-0.040
-541.237	236.925	0.151	0.250
-540.223	-200.000	-0.007	0.086
-539.208	301.516	-0.107	-0.198
-538.193	-130.752	0.255	0.034
-537.179	-1.725	-0.170	0.120
-536.164	780.463	-0.070	0.191
-535.150	390.123	-0.145	-0.300
-534.135	648.642	0.059	-0.151
-533.121	-200.000	-0.003	-0.060
-532.106	9.270	-0.035	0.027
-531.091	363.500	0.064	-0.129
-530.077	-17.033	-0.242	0.153
-529.062	3.797	-0.143	-0.104
-528.048	-136.518	0.418	0.049
-527.033	58.066	-0.347	-0.340
-526.018	-17.001	0.204	-0.129
-525.004	-9.533	0.346	-0.231
-523.989	709.374	0.069	0.183
-522.975	37.105	0.114	-0.101
-521.960	-117.875	-0.125	-0.022
-520.945	800.000	0.091	-0.272
-519.931	243.139	0.133	0.223
-518.916	800.000	-0.071	0.233
-517.902	480.057	-0.017	-0.039
-516.887	-48.724	-0.504	0.242
-515.872	314.828	-0.074	-0.139
-514.858	-51.073	-0.217	0.102
-513.843	-200.000	-0.043	0.235
-512.829	25.505	-0.166	-0.138
-511.814	-19.548	0.229	-0.142
-510.799	86.709	0.297	-0.327
-509.785	-63.119	-0.147	-0.060
-508.770	-200.000	-0.020	0.103
-507.756	-99.915	-0.274	-0.068
-506.741	-62.329	-0.173	-0.072
-505.726	-170.244	0.346	0.012
-504.712	45.317	-0.214	0.197
-503.697	-149.732	0.335	0.026
-502.683	99.257	-0.312	0.361
-501.668	199.606	0.070	-0.107
-500.653	-95.699	0.248	0.066
-499.639	285.418	-0.131	-0.235
-498.624	-200.000	0.002	0.260
-497.610	698.376	-0.059	0.154
-496.595	15.301	0.127	0.100
-495.581	-38.095	-0.100	0.053
-494.566	101.131	0.039	0.046
-493.551	-200.000	-0.027	-0.165
-492.537	-10.436	0.090	-0.060
-491.522	-200.000	0.000	0.065
-490.508	-135.828	0.051	-0.006
-489.493	-200.000	0.004	-0.438
-488.478	216.005	-0.063	-0.100
-487.464	-16.857	-0.254	-0.160
-486.449	-63.914	-0.322	-0.131
-485.435	-108.210	0.268	-0.058
-484.420	6.357	-0.109	0.081
-483.405	387.712	0.060	0.124
-482.391	-33.899	-0.304	0.167
-481.376	41.433	0.098	0.088
-480.362	800.000	-0.040	0.116
-479.347	-77.340	-0.275	0.095
-478.332	-200.000	-0.016	-0.085
-477.318	-72.825	0.206	0.076
-476.303	0.724	0.098	-0.070
-475.289	-176.708	0.342	-0.009
-474.274	800.000	-0.160	0.449
-473.259	105.741	-0.094	-0.111
-472.245	-93.015	-0.389	-0.108
-471.230	-49.558	-0.157	0.075
-470.216	-200.000	0.092	0.550
-469.201	24.204	-0.187	-0.154
-468.186	787.758	-0.154	0.421
-467.172	-119.379	0.340	0.059
-466.157	-58.933	0.135	-0.058
-465.143	-53.147	0.121	-0.056
-464.128	-200.000	0.010	-0.260
-463.113	-200.000	0.008	0.235
-462.099	-67.983	0.236	0.092
-461.084	-200.000	0.001	-0.031
-460.070	-121.082	0.081	-0.014
-459.055	278.461	-0.076	0.135
-458.040	157.986	0.140	-0.194
-457.026	-200.000	-0.044	-0.219
-456.011	-200.000	-0.017	0.355
-454.997	-200.000	0.065	0.366
-453.982	364.855	-0.049	-0.099
-452.968	15.987	-0.209	-0.164
-451.953	11.404	0.264	0.202
-450.938	-73.672	-0.453	-0.164
-449.924	-200.000	0.014	-0.064
-448.909	-76.698	0.402	0.140
-447.895	79.215	-0.220	0.235
-446.880	120.671	0.259	-0.320
-445.865	82.646	-0.170	0.184
-444.851	209.254	0.126	-0.197
-443.836	44.697	-0.075	0.068
-442.822	132.157	-0.198	-0.254
-441.807	-57.218	-0.124	-0.054
-440.792	395.462	-0.049	-0.101
-439.778	-53.381	0.174	-0.079
-438.763	697.013	0.064	0.168
-437.749	257.724	0.057	0.098
-436.734	-87.991	0.076	0.023
-435.719	-135.401	0.100	-0.012
-434.705	-132.704	-0.501	0.064
-433.690	-182.244	0.250	-0.005
-432.676	114.100	0.073	0.088
-431.661	800.000	-0.048	0.161
-430.646	-83.667	0.116	0.037
-429.632	-12.679	0.277	-0.180
-428.617	-200.000	0.011	0.224
-427.603	-94.290	-0.449	0.122
-426.588	800.000	0.035	0.120
-425.573	1.158	0.114	0.082
-424.559	-200.000	-0.006	0.143
-423.544	229.725	-0.058	0.094
-422.530	-126.856	-0.111	-0.016
-421.515	-200.000	0.011	-0.156
-420.500	33.877	0.018	0.015
-419.486	-167.731	0.175	-0.007
-418.471	-51.416	-0.119	-0.055
-417.457	21.150	0.308	-0.249
-416.442	67.145	-0.121	0.123
-415.428	168.161	0.025	-0.035
-414.413	562.148	-0.062	-0.150
-413.398	-163.625	-0.191	0.009
-412.384	-200.000	-0.034	0.227
-411.369	-200.000	-0.000	-0.051
-410.355	82.019	-0.126	-0.136
-409.340	-62.052	-0.371	-0.154
-408.325	16.819	-0.359	-0.283
-407.311	-78.428	-0.138	-0.047
-406.296	-28.056	0.269	0.155
-405.282	-88.598	0.203	0.060
-404.267	190.741	0.088	-0.132
-403.252	-93.608	0.147	0.040
-402.238	13.579	-0.138	0.107
-401.223	575.374	-0.058	-0.142
-400.209	-200.000	-0.036	-0.164
-399.194	104.818	0.015	0.018
-398.179	-181.593	-0.237	-0.005
-397.165	-7.424	-0.141	0.095
-396.150	137.083	0.326	-0.424
-395.136	68.392	-0.340	-0.347
-394.121	800.000	0.031	-0.094
-393.106	800.000	-0.022	-0.084
-392.092	800.000	0.017	-0.067
-391.077	143.793	0.149	-0.197
-390.063	143.050	0.136	-0.180
-389.048	263.601	-0.067	0.116
-388.033	221.361	0.155	-0.248
-387.019	-31.724	0.231	-0.129
-386.004	738.003	0.059	-0.156
-384.990	-117.825	-0.187	0.033
-383.975	800.000	-0.066	0.279
-382.960	-168.069	0.074	-0.003
-381.946	-200.000	0.019	-0.130
-380.931	58.203	-0.041	-0.040
-379.917	-67.158	0.065	0.025
-378.902	369.998	0.121	-0.244
-377.888	12.178	-0.178	-0.136
-376.873	-4.587	0.125	-0.086
-375.858	240.049	0.099	-0.165
-374.844	-120.882	-0.132	-0.022
-373.829	-200.000	-0.005	-0.163
-372.815	-71.007	-0.388	-0.145
-371.800	-23.287	0.106	-0.063
-370.785	-169.107	0.018	0.001
-369.771	-200.000	-0.007	-0.286
-368.756	195.618	0.114	0.172
-367.742	-28.838	0.199	-0.114
-366.727	-200.000	0.023	-0.166
-365.712	-105.687	-0.094	-0.021
-364.698	-27.878	0.221	0.127
-363.683	228.201	-0.094	0.152
-362.669	-140.642	0.069	0.007
-361.654	-91.476	-0.265	-0.075
-360.639	-88.079	-0.214	0.064
-359.625	-39.082	0.134	-0.070
-358.610	-86.031	0.199	-0.061
-357.596	272.325	0.092	0.162
-356.581	157.417	-0.081	-0.112
-355.566	-200.000	-0.019	0.180
-354.552	106.375	-0.138	0.163
-353.537	-200.000	0.004	-0.180
-352.523	207.408	0.097	0.150
-351.508	102.490	0.058	-0.067
-350.493	119.287	0.077	-0.095
-349.479	129.347	0.209	0.264
-348.464	514.688	-0.135	0.312
-347.450	115.371	-0.186	0.226
-346.435	-200.000	-0.007	0.323
-345.420	-200.000	0.004	0.034
-344.406	-137.060	0.075	0.009
-343.391	-168.912	0.230	-0.009
-342.377	19.184	-0.063	-0.050
-341.362	-168.049	0.169	0.007
-340.348	-0.753	-0.185	0.130
-339.333	-46.665	0.069	0.033
-338.318	-32.061	-0.340	-0.189
-337.304	-200.000	-0.004	0.249
-336.289	-26.197	0.073	0.043
-335.275	-200.000	-0.008	0.087
-334.260	24.889	0.337	0.277
-333.245	299.118	0.021	0.039
-332.231	-200.000	-0.025	-0.150
-331.216	-46.521	0.515	-0.251
-330.202	721.414	-0.102	0.270
-329.187	-119.284	-0.221	0.038
-328.172	25.249	-0.130	0.107
-327.158	-24.865	0.061	0.036
-326.143	-26.003	0.224	-0.131
-325.129	-89.087	0.221	-0.065
-324.114	-10.067	-0.065	-0.043
-323.099	97.556	0.174	0.198
-322.085	235.464	-0.132	-0.216
-321.070	800.000	-0.080	0.258
-320.056	-30.512	0.012	-0.007
-319.041	-47.038	0.204	-0.099
-318.026	-200.000	0.005	0.069
-317.012	-49.717	-0.218	0.103
-315.997	-157.651	0.042	0.002
-314.983	37.610	0.112	0.099
-313.968	-23.799	-0.365	-0.217
-312.953	-36.732	0.201	0.107
-311.939	-46.321	0.137	0.067
-310.924	80.651	-0.181	-0.193
-309.910	-200.000	-0.037	-0.208
-308.895	-200.000	-0.027	0.129
-307.880	354.785	0.110	0.217
-306.866	-166.233	-0.301	0.013
-305.851	44.845	-0.237	0.216
-304.837	241.260	-0.081	-0.134
-303.822	57.144	-0.023	-0.022
-302.807	-10.403	0.148	-0.097
-301.793	-84.225	0.106	-0.033
-300.778	-200.000	-0.027	-0.319
-299.764	-200.000	0.066	0.293
-298.749	248.327	0.098	-0.164
-297.735	-148.326	-0.199	0.016
-296.720	26.936	-0.100	0.083
-295.705	-17.073	0.128	-0.080
-294.691	-35.141	-0.050	-0.027
-293.676	475.783	0.039	0.087
-292.662	-39.987	0.156	-0.081
-291.647	-152.786	0.203	-0.014
-290.632	536.154	0.132	0.310
-289.618	86.472	-0.105	0.114
-288.603	5.531	0.434	0.318
-287.589	-200.000	0.031	0.328
-286.574	800.000	0.063	0.183
-285.559	-200.000	-0.014	-0.145
-284.545	-63.565	-0.151	-0.062
-283.530	-60.584	0.357	-0.150
-282.516	6.924	-0.194	0.143
-281.501	-91.335	0.136	0.038
-280.486	-140.571	0.122	-0.013
-279.472	261.900	0.084	0.145
-278.457	-200.000	0.005	0.257
-277.443	18.229	-0.165	-0.130
-276.428	-66.743	-0.074	-0.029
-275.413	121.055	0.302	0.372
-274.399	-200.000	-0.003	0.326
-273.384	356.817	0.064	0.126
-272.370	234.062	-0.067	0.109
-271.355	-122.045	-0.073	-0.012
-270.340	-90.169	-0.156	0.045
-269.326	47.587	0.188	-0.173
-268.311	-71.136	-0.153	-0.057
-267.297	511.697	0.061	-0.142
-266.282	-37.815	0.093	0.049
-265.267	-200.000	0.056	-0.312
-264.253	-51.309	-0.238	-0.110
-263.238	24.268	0.158	-0.129
-262.224	-200.000	0.029	-0.184
-261.209	109.912	0.109	0.130
-260.195	26.312	0.225	-0.186
-259.180	209.095	0.117	-0.181
-258.165	-200.000	-0.130	0.001
-257.151	-200.000	0.004	0.053
-256.136	-166.679	0.413	0.017
-255.122	505.495	0.087	-0.199
-254.107	287.777	0.141	-0.252
-253.092	-110.503	0.159	0.033
-252.078	-18.826	-0.087	-0.054
-251.063	-200.000	-0.084	0.496
-250.049	-12.612	-0.211	0.136
-249.034	-200.000	0.010	0.119
-248.019	29.775	0.313	0.264
-247.005	3.163	0.105	-0.076
-245.990	-23.061	0.266	0.159
-244.976	109.039	-0.061	-0.072
-243.961	94.076	0.183	0.205
-242.946	800.000	-0.081	-0.256
-241.932	150.847	-0.164	-0.220
-240.917	63.813	0.073	-0.072
-239.903	25.375	0.240	-0.197
-238.888	107.141	0.132	-0.155
-237.873	800.000	-0.118	0.356
-236.859	87.284	0.176	-0.192
-235.844	113.094	-0.064	-0.077
-234.830	800.000	-0.035	0.106
-233.815	-103.056	-0.560	-0.131
-232.800	96.714	-0.101	-0.114
-231.786	-70.735	-0.138	-0.052
-230.771	-93.527	0.176	0.048
-229.757	199.861	0.072	-0.109
-228.742	-144.239	-0.125	0.012
-227.727	244.954	-0.126	0.209
-226.713	182.384	-0.177	-0.258
-225.698	-55.145	-0.188	0.084
-224.684	742.581	0.076	0.201
-223.669	-107.413	-0.359	-0.078
-222.655	-11.664	0.047	-0.031
-221.640	592.433	-0.028	-0.067
-220.625	-108.092	-0.108	0.023
-219.611	-114.573	-0.199	-0.038
-218.596	800.000	0.093	-0.354
-217.582	-200.000	0.044	0.367
-216.567	-39.402	0.210	-0.109
-215.552	10.758	0.296	0.223
-214.538	230.200	0.102	0.165
-213.523	93.003	-0.164	-0.184
-212.509	800.000	0.032	-0.125
-211.494	-49.332	0.176	0.083
-210.479	592.007	0.115	-0.280
-209.465	-27.890	-0.104	-0.060
-208.450	245.896	0.044	0.073
-207.436	185.756	0.166	-0.243
-206.421	102.780	-0.202	0.233
-205.406	-132.699	-0.348	-0.044
-204.392	-101.216	-0.336	-0.081
-203.377	718.591	-0.109	-0.287
-202.363	299.268	0.033	-0.060
-201.348	-200.000	-0.071	-0.404
-200.333	-199.552	-0.505	-0.003
-199.319	800.000	0.065	0.183
-198.304	-124.261	-0.214	-0.033
-197.290	-93.639	-0.197	-0.054
-196.275	-16.765	-0.037	-0.023
-195.260	800.000	-0.053	-0.220
-194.246	-153.669	0.300	0.020
-193.231	-100.494	-0.383	-0.094
-192.217	-146.325	0.148	-0.013
-191.202	800.000	0.068	0.204
-190.187	-32.538	0.148	0.082
-189.173	-108.741	-0.273	-0.058
-188.158	-200.000	0.003	0.023
-187.144	-93.609	0.355	0.097
-186.129	800.000	-0.042	-0.157
-185.114	279.707	0.054	0.094
-184.100	123.389	0.085	-0.105
-183.085	-133.785	0.031	-0.004
-182.071	-200.000	-0.012	0.356
-181.056	-200.000	0.005	0.413
-180.042	-90.503	0.274	0.078
-179.027	40.149	-0.281	-0.249
-178.012	237.600	0.054	0.089
-176.998	-200.000	-0.038	0.208
-175.983	-200.000	-0.024	0.180
-174.969	-5.824	-0.267	0.180
-173.954	659.011	0.068	0.173
-172.939	20.048	0.150	-0.119
-171.925	-73.590	0.305	0.110
-170.910	88.312	0.238	0.260
-169.896	206.470	-0.074	-0.114
-168.881	206.809	-0.068	0.105
-167.866	-200.000	-0.033	-0.208
-166.852	-93.915	0.211	-0.057
-165.837	-200.000	-0.023	0.128
-164.823	152.713	0.179	0.242
-163.808	98.327	0.121	0.138
-162.793	-117.166	0.370	0.066
-161.779	280.171	-0.120	0.211
-160.764	7.535	-0.152	0.112
-159.750	374.628	0.141	-0.283
-158.735	-200.000	0.001	-0.254
-157.720	254.757	-0.055	-0.093
-156.706	-38.076	0.085	-0.045
-155.691	-200.000	0.015	-0.084
-154.677	-103.395	0.337	0.078
-153.662	100.650	0.094	0.108
-152.647	527.437	0.141	-0.328
-151.633	-17.703	-0.222	-0.138
-150.618	154.208	-0.121	0.164
-149.604	-37.873	0.116	-0.061
-148.589	203.112	0.023	0.035
-147.574	800.000	0.120	0.335
-146.560	-58.385	-0.178	0.076
-145.545	-74.235	0.167	0.059
-144.531	-5.250	0.354	-0.240
-143.516	-2.064	0.117	-0.081
-142.502	-20.003	-0.477	-0.290
-141.487	-134.660	0.263	0.032
-140.472	-6.356	0.174	0.117
-139.458	-200.000	0.007	0.051
-138.443	-200.000	-0.001	0.059
-137.429	-200.000	0.000	0.053
-136.414	87.528	0.101	0.110
-135.399	-133.318	0.320	-0.040
-134.385	479.128	0.124	0.277
-133.370	52.009	0.223	-0.209
-132.356	800.000	-0.020	0.088
-131.341	62.952	-0.216	0.213
-130.326	-85.150	0.011	-0.003
-129.312	-153.220	-0.160	-0.011
-128.297	-200.000	0.053	-0.241
-127.283	-141.479	0.297	-0.030
-126.268	112.223	0.100	-0.119
-125.253	-200.000	0.005	-0.072
-124.239	-33.504	0.090	-0.049
-123.224	-160.888	-0.159	0.008
-122.210	800.000	0.030	-0.096
-121.195	800.000	-0.106	0.312
-120.180	512.888	-0.103	0.235
-119.166	-133.455	-0.083	-0.010
-118.151	-200.000	-0.029	-0.208
-117.137	130.481	-0.107	0.135
-116.122	-17.271	-0.234	-0.145
-115.107	60.834	-0.343	0.335
-114.093	-42.200	0.065	-0.033
-113.078	-123.709	0.193	0.030
-112.064	97.684	0.165	-0.187
-111.049	8.605	0.242	-0.179
-110.034	-200.000	-0.025	0.168
-109.020	241.184	-0.108	0.177
-108.005	100.173	0.088	0.100
-106.991	336.345	0.092	0.177
-105.976	24.383	0.090	-0.073
-104.962	800.000	0.024	-0.099
-103.947	104.169	-0.049	0.057
-102.932	-7.746	-0.214	-0.142
-101.918	427.349	0.040	0.085
-100.903	-200.000	0.016	-0.339
-99.889	800.000	-0.110	0.474
-98.874	-200.000	0.020	0.174
-97.859	-200.000	-0.018	-0.219
-96.845	17.786	0.134	-0.105
-95.830	-43.450	0.195	0.097
-94.816	-46.421	-0.215	-0.104
-93.801	60.705	-0.123	-0.120
-92.786	83.508	0.355	0.380
-91.772	800.000	-0.103	0.321
-90.757	-200.000	-0.007	-0.115
-89.743	328.633	0.117	-0.222
-88.728	113.416	0.135	-0.161
-87.713	61.945	0.203	0.198
-86.699	131.409	-0.074	-0.093
-85.684	-200.000	-0.053	-0.234
-84.670	-22.696	-0.194	0.115
-83.655	-140.760	0.336	-0.034
-82.640	-86.509	-0.172	0.052
-81.626	-14.567	0.322	-0.204
-80.611	-63.561	0.102	-0.041
-79.597	800.000	-0.050	-0.149
-78.582	134.122	-0.099	0.127
-77.567	748.579	-0.011	0.030
-76.553	125.244	0.061	0.075
-75.538	59.373	-0.242	-0.234
-74.524	380.238	-0.059	0.118
-73.509	-112.146	0.244	0.048
-72.494	154.210	-0.113	-0.153
-71.480	85.032	-0.021	-0.023
-70.465	268.066	0.062	-0.107
-69.451	-160.028	-0.224	-0.012
-68.436	-38.313	0.258	-0.134
-67.422	-158.159	0.111	0.006
-66.407	327.175	-0.095	0.180
-65.392	-200.000	0.006	-0.359
-64.378	-200.000	-0.014	-0.137
-63.363	70.569	0.124	0.126
-62.349	79.030	0.268	0.282
-61.334	183.546	-0.720	-1.045
-60.319	-49.355	0.816	0.382
-59.305	336.423	-0.363	-0.693
-58.290	382.014	0.654	1.319
-57.276	415.244	0.752	1.572
-56.261	-200.000	105.389	569.140
-55.246	449.696	1464.008	3169.755
-54.232	146.706	2665.031	3515.744
-53.217	99.611	2302.772	2616.374
-52.203	38.586	1913.162	1674.977
-51.188	32.821	1699.909	1444.248
-50.173	30.136	1656.234	1387.024
-49.159	48.296	1708.480	1569.276
-48.144	48.718	1724.159	1586.822
-47.130	32.295	1682.548	1425.280
-46.115	29.586	1668.526	1392.947
-45.100	29.530	1663.235	1388.055
-44.086	29.421	1660.805	1385.155
-43.071	29.366	1658.319	1382.617
-42.057	29.311	1655.748	1380.005
-41.042	29.390	1653.642	1378.782
-40.027	29.397	1651.936	1377.363
-39.013	29.412	1649.343	1375.253
-37.998	29.445	1647.313	1373.756
-36.984	29.437	1646.921	1373.316
-35.969	29.621	1645.140	1373.144
-34.954	29.611	1643.699	1371.809
-33.940	29.520	1642.073	1369.719
-32.925	29.528	1639.801	1367.835
-31.911	29.524	1638.364	1366.552
-30.896	29.604	1636.561	1365.580
-29.881	29.557	1635.109	1363.971
-28.867	29.475	1633.432	1361.914
-27.852	29.509	1631.848	1360.786
-26.838	29.576	1630.302	1359.941
-25.823	29.566	1629.113	1358.818
-24.809	29.597	1628.233	1358.257
-23.794	29.632	1626.386	1356.924
-22.779	29.680	1624.719	1355.830
-21.765	29.525	1622.813	1353.053
-20.750	29.484	1621.731	1351.792
-19.736	29.635	1619.846	1351.270
-18.721	29.647	1618.644	1350.302
-17.706	29.534	1617.346	1348.342
-16.692	29.576	1615.938	1347.423
-15.677	29.489	1614.729	1345.727
-14.663	29.541	1613.479	1345.007
-13.648	29.571	1611.975	1343.917
-12.633	29.532	1610.194	1342.102
-11.619	29.568	1608.529	1340.918
-10.604	29.571	1607.526	1340.053
-9.590	29.575	1605.879	1338.657
-8.575	29.598	1604.639	1337.735
-7.560	29.589	1603.206	1336.422
-6.546	29.528	1602.436	1335.284
-5.531	29.570	1601.738	1334.957
-4.517	29.600	1600.259	1333.882
-3.502	29.503	1599.245	1332.288
-2.487	29.615	1597.098	1331.256
-1.473	29.387	1585.507	1319.906
-0.458	26.800	1566.523	1285.736
0.556	21.538	1567.739	1254.203
1.571	19.332	1590.991	1256.635
2.586	18.784	1604.955	1263.521
3.600	17.541	1551.671	1212.614
4.615	9.897	1440.568	1074.975
5.629	1.970	1375.068	975.466
6.644	0.287	1367.226	959.111
7.659	0.196	1365.927	957.537
8.673	0.078	1364.794	955.909
9.688	0.119	1362.432	954.431
10.702	-0.142	1360.487	951.328
11.717	3.800	1366.363	980.389
12.731	12.452	1379.374	1044.839
13.746	17.422	1385.164	1080.778
14.761	17.255	1384.352	1078.988
15.775	16.329	1381.761	1071.008
16.790	15.227	1379.296	1062.019
17.804	14.449	1377.254	1055.428
18.819	14.109	1375.421	1051.782
19.834	13.859	1374.229	1049.198
20.848	13.544	1372.928	1046.125
21.863	13.240	1371.815	1043.266
22.877	13.169	1370.710	1041.885
23.892	13.123	1369.425	1040.525
24.907	13.032	1369.162	1039.661
25.921	13.075	1368.188	1039.095
26.936	13.131	1367.120	1038.550
27.950	13.065	1366.181	1037.328
28.965	13.243	1365.179	1037.591
29.980	13.338	1364.033	1037.228
30.994	13.388	1363.157	1036.778
32.009	13.331	1362.172	1035.584
33.023	13.300	1361.319	1034.646
34.038	13.299	1360.531	1033.953
35.053	13.282	1358.924	1032.531
36.067	13.179	1358.340	1031.353
37.082	13.282	1357.152	1031.002
38.096	13.371	1356.129	1030.690
39.111	13.276	1355.677	1029.664
40.126	13.205	1355.082	1028.677
41.140	13.198	1353.848	1027.606
42.155	13.165	1353.333	1026.920
43.169	13.108	1353.496	1026.600
44.184	13.096	1353.059	1026.105
45.199	13.118	1352.242	1025.530
46.213	13.168	1351.444	1025.144
47.228	13.168	1350.791	1024.557
48.242	13.248	1349.396	1023.904
49.257	13.196	1348.188	1022.575
50.271	13.307	1346.347	1021.776
51.286	13.215	1345.598	1020.545
52.301	13.250	1343.935	1019.414
53.315	13.108	1343.244	1017.922
54.330	13.141	1342.176	1017.228
55.344	13.208	1340.620	1016.371
56.359	13.123	1339.847	1015.169
57.374	13.184	1338.814	1014.674
58.388	13.041	1338.619	1013.559
59.403	13.036	1337.819	1012.832
60.417	13.074	1336.952	1012.315
61.432	13.018	1335.782	1011.000
62.447	13.095	1335.033	1010.811
63.461	13.023	1333.820	1009.366
64.476	12.888	1333.137	1007.933
65.490	13.022	1331.305	1007.280
66.505	13.148	1329.565	1006.642
67.520	13.062	1329.070	1005.653
68.534	13.084	1328.027	1004.910
69.549	13.089	1326.537	1003.724
70.563	12.973	1325.766	1002.343
71.578	12.993	1324.408	1001.353
72.593	12.941	1323.702	1000.413
73.607	12.889	1322.809	999.338
74.622	12.954	1322.099	999.105
75.636	12.901	1321.460	998.212
76.651	13.006	1320.361	997.929
77.666	13.053	1319.799	997.699
78.680	13.034	1319.307	997.121
79.695	12.987	1318.447	996.101
80.709	13.075	1317.689	995.974
81.724	13.129	1316.770	995.513
82.739	13.186	1315.660	994.929
83.753	13.145	1315.204	994.251
84.768	13.271	1313.807	993.864
85.782	13.271	1312.545	992.823
86.797	13.227	1311.176	991.433
87.812	13.191	1310.292	990.462
88.826	13.139	1309.261	989.283
89.841	13.306	1307.770	989.068
90.855	13.273	1306.927	988.149
91.870	13.312	1306.195	987.742
92.884	13.247	1305.970	987.095
93.899	13.271	1304.612	986.124
94.914	13.344	1304.066	986.055
95.928	13.378	1303.673	985.878
96.943	13.297	1302.324	984.286
97.957	13.209	1301.487	983.041
98.972	13.415	1299.945	983.014
99.987	13.390	1299.366	982.344
101.001	13.236	1298.497	980.684
102.016	13.284	1297.288	979.972
103.030	13.374	1296.009	979.448
104.045	13.301	1295.545	978.579
105.060	13.254	1294.603	977.503
106.074	13.245	1292.848	976.039
107.089	13.143	1291.547	974.370
108.103	13.151	1290.243	973.345
109.118	13.127	1288.658	971.921
110.133	13.133	1287.845	971.262
111.147	13.012	1286.440	969.405
112.162	13.088	1285.606	969.137
113.176	13.102	1284.255	968.113
114.191	13.160	1283.595	967.872
115.206	13.127	1282.387	966.683
116.220	13.191	1280.879	965.832
117.235	13.219	1279.686	965.010
118.249	13.144	1278.944	963.930
119.264	13.181	1277.568	963.024
120.279	13.148	1276.714	962.097
121.293	13.192	1275.543	961.388
122.308	13.122	1274.372	960.012
123.322	13.101	1273.518	959.163
124.337	13.147	1272.067	958.253
125.352	13.282	1270.450	957.731
126.366	13.110	1269.797	956.157
127.381	13.124	1269.187	955.698
128.395	13.104	1268.186	954.740
129.410	13.132	1267.385	954.219
130.424	13.100	1266.306	953.135
131.439	13.239	1265.275	953.074
132.454	13.197	1264.218	951.952
133.468	13.314	1263.038	951.655
134.483	13.111	1262.782	950.211
135.497	13.170	1261.499	949.499
136.512	13.226	1260.053	948.646
137.527	13.303	1258.726	948.004
138.541	13.260	1257.042	946.409
139.556	13.278	1255.880	945.553
140.570	13.351	1254.603	944.926
141.585	13.355	1253.613	944.119
142.600	13.324	1252.291	942.863
143.614	13.396	1251.307	942.446
144.629	13.386	1250.494	941.693
145.643	13.447	1249.035	940.861
146.658	13.347	1247.708	939.207
147.673	13.316	1246.728	938.216
148.687	13.261	1246.230	937.441
149.702	13.295	1244.151	935.987
150.716	13.249	1242.649	934.519
151.731	13.236	1241.945	933.831
152.746	13.313	1240.543	933.131
153.760	13.373	1239.607	932.682
154.775	13.443	1237.942	931.739
155.789	13.457	1236.942	930.980
156.804	13.411	1236.315	930.168
157.819	13.335	1235.289	928.891
158.833	13.430	1234.266	928.569
159.848	13.579	1233.438	928.699
160.862	13.476	1232.195	927.106
161.877	13.442	1231.088	926.000
162.892	13.446	1230.076	925.181
163.906	13.385	1229.149	924.061
164.921	13.469	1228.031	923.609
165.935	13.520	1227.109	923.117
166.950	13.557	1225.952	922.372
167.964	13.399	1226.572	921.876
168.979	13.451	1225.435	921.225
169.994	13.517	1224.173	920.564
171.008	13.472	1223.840	919.982
172.023	13.574	1222.481	919.444
173.037	13.665	1221.973	919.488
174.052	13.655	1220.934	918.567
175.067	13.581	1219.761	917.197
176.081	13.541	1219.048	916.355
177.096	13.594	1218.250	915.969
178.110	13.585	1216.756	914.715
179.125	13.534	1215.800	913.634
180.140	13.612	1214.666	913.131
181.154	13.612	1213.504	912.176
182.169	13.671	1212.315	911.527
183.183	13.719	1210.951	910.682
184.198	13.688	1210.035	909.741
185.213	13.667	1208.553	908.431
186.227	13.684	1207.987	908.021
187.242	13.796	1206.746	907.623
188.256	13.863	1205.614	907.053
189.271	13.875	1204.132	905.928
190.286	13.689	1203.510	904.362
191.300	13.664	1202.667	903.513
192.315	13.633	1202.210	902.923
193.329	13.632	1201.430	902.249
194.344	13.597	1201.144	901.765
195.359	13.676	1200.023	901.274
196.373	13.729	1199.690	901.233
197.388	13.822	1199.114	901.226
198.402	13.798	1198.956	900.896
199.417	14.001	1197.574	900.878
200.432	14.051	1197.176	900.769
201.446	13.959	1196.023	899.323
202.461	14.031	1194.986	898.855
203.475	13.970	1194.147	897.813
204.490	14.041	1192.890	897.170
205.504	13.975	1191.649	895.802
206.519	13.976	1190.349	894.753
207.534	13.982	1189.338	893.943
208.548	14.081	1188.041	893.423
209.563	14.017	1187.637	892.698
210.577	14.070	1186.548	892.082
211.592	14.061	1185.801	891.396
212.607	14.151	1184.949	891.157
213.621	14.192	1183.836	890.462
214.636	14.142	1183.137	889.588
215.650	14.135	1182.191	888.760
216.665	14.114	1181.220	887.840
217.680	14.201	1180.522	887.702
218.694	14.264	1179.499	887.190
219.709	14.132	1178.831	885.904
220.723	14.054	1178.263	884.986
221.738	14.193	1177.445	885.034
222.753	14.239	1176.790	884.706
223.767	14.189	1176.194	883.916
224.782	14.346	1175.416	884.086
225.796	14.319	1174.703	883.329
226.811	14.315	1174.189	882.843
227.826	14.319	1173.424	882.211
228.840	14.383	1173.009	882.161
229.855	14.325	1171.882	880.926
230.869	14.248	1171.392	880.075
231.884	14.198	1170.811	879.293
232.899	14.254	1170.066	878.951
233.913	14.271	1169.059	878.207
234.928	14.372	1168.025	877.885
235.942	14.294	1167.225	876.795
236.957	14.318	1166.684	876.436
237.972	14.365	1165.584	875.783
238.986	14.290	1165.371	875.150
240.001	14.337	1164.594	874.737
241.015	14.451	1163.306	874.288
242.030	14.415	1162.704	873.570
243.045	14.430	1161.844	872.924
244.059	14.441	1161.315	872.507
245.074	14.474	1160.289	871.831
246.088	14.435	1159.676	871.089
247.103	14.504	1158.770	870.694
248.117	14.629	1158.249	870.880
249.132	14.626	1157.526	870.243
250.147	14.705	1156.611	869.890
251.161	14.923	1155.671	870.239
252.176	14.810	1155.444	869.405
253.190	14.757	1155.083	868.778
254.205	14.764	1154.093	867.994
255.220	14.800	1153.598	867.730
256.234	14.769	1153.138	867.146
257.249	14.885	1152.226	866.985
258.263	14.816	1152.161	866.505
259.278	14.805	1151.268	865.700
260.293	14.926	1150.446	865.631
261.307	15.061	1149.507	865.542
262.322	14.986	1149.225	864.867
263.336	14.970	1148.289	864.007
264.351	15.006	1147.870	863.796
265.366	15.041	1147.245	863.435
266.380	15.001	1146.555	862.632
267.395	14.973	1145.424	861.558
268.409	15.019	1144.773	861.231
269.424	14.988	1144.507	860.795
270.439	14.997	1143.941	860.336
271.453	15.000	1143.215	859.730
272.468	14.954	1142.061	858.549
273.482	14.919	1141.620	857.966
274.497	15.088	1140.526	857.930
275.512	15.131	1140.296	857.906
276.526	15.132	1139.226	857.028
277.541	15.041	1138.854	856.207
278.555	15.123	1137.895	855.828
279.570	15.118	1137.276	855.264
280.585	15.150	1136.652	854.882
281.599	15.182	1135.680	854.235
282.614	15.230	1134.361	853.416
283.628	15.127	1133.475	852.146
284.643	15.206	1132.520	851.754
285.657	15.294	1131.798	851.584
286.672	15.250	1130.582	850.373
287.687	15.184	1129.986	849.515
288.701	15.192	1129.600	849.190
289.716	15.388	1128.194	849.050
290.730	15.278	1127.915	848.206
291.745	15.360	1127.102	847.934
292.760	15.252	1127.056	847.279
293.774	15.509	1126.018	847.720
294.789	15.423	1125.542	846.853
295.803	15.387	1125.089	846.258
296.818	15.449	1124.170	845.802
297.833	15.332	1123.481	844.620
298.847	15.465	1122.714	844.639
299.862	15.470	1121.992	844.046
300.876	15.384	1121.448	843.130
301.891	15.398	1120.397	842.335
302.906	15.536	1119.703	842.429
303.920	15.546	1119.170	842.007
304.935	15.677	1118.662	842.207
305.949	15.627	1117.997	841.378
306.964	15.638	1116.951	840.572
307.979	15.603	1116.356	839.877
308.993	15.640	1115.745	839.530
310.008	15.606	1115.038	838.751
311.022	15.742	1113.908	838.503
312.037	15.638	1113.147	837.338
313.052	15.582	1112.372	836.401
314.066	15.586	1111.561	835.739
315.081	15.766	1110.169	835.511
316.095	15.659	1110.130	834.881
317.110	15.622	1109.328	834.016
318.125	15.589	1108.510	833.164
319.139	15.695	1107.771	833.060
320.154	15.607	1107.518	832.363
321.168	15.704	1106.584	832.066
322.183	15.688	1106.150	831.585
323.197	15.819	1104.905	831.226
324.212	15.701	1104.960	830.611
325.227	15.755	1103.918	830.018
326.241	15.717	1103.063	829.116
327.256	15.811	1102.742	829.262
328.270	15.811	1101.566	828.306
329.285	15.808	1100.887	827.706
330.300	15.857	1099.906	827.139
331.314	15.803	1098.822	825.987
332.329	15.784	1097.713	824.985
333.343	15.800	1097.387	824.747
334.358	15.770	1096.713	824.017
335.373	15.935	1095.657	823.962
336.387	15.931	1095.081	823.435
337.402	15.942	1094.515	822.991
338.416	15.918	1093.973	822.389
339.431	15.952	1092.982	821.742
340.446	16.012	1092.323	821.465
341.460	16.016	1091.963	821.143
342.475	16.095	1091.153	820.842
343.489	16.112	1089.960	819.957
344.504	16.195	1089.098	819.636
345.519	16.235	1087.968	818.911
346.533	16.240	1087.551	818.547
347.548	16.166	1086.613	817.408
348.562	16.258	1085.866	817.220
349.577	16.163	1085.215	816.201
350.592	16.056	1084.619	815.161
351.606	16.209	1083.688	815.129
352.621	16.031	1083.283	813.892
353.635	16.063	1082.509	813.396
354.650	16.173	1081.788	813.308
355.665	16.185	1081.167	812.831
356.679	16.217	1080.027	812.055
357.694	16.272	1079.827	812.096
358.708	16.268	1079.338	811.636
359.723	16.261	1078.817	811.140
360.738	16.216	1078.047	810.272
361.752	16.258	1077.350	809.881
362.767	16.290	1076.960	809.669
363.781	16.321	1076.058	809.069
364.796	16.531	1075.274	809.412
365.810	16.372	1075.049	808.408
366.825	16.482	1074.192	808.218
367.840	16.601	1073.756	808.390
368.854	16.574	1072.886	807.532
369.869	16.610	1072.688	807.485
370.883	16.563	1071.390	806.210
371.898	16.498	1071.164	805.660
372.913	16.495	1070.641	805.183
373.927	16.547	1069.947	804.836
374.942	16.560	1069.226	804.285
375.956	16.563	1068.700	803.833
376.971	16.607	1068.349	803.706
377.986	16.567	1067.739	802.987
379.000	16.802	1067.057	803.518
380.015	16.753	1066.469	802.770
381.029	16.715	1065.709	801.947
382.044	16.763	1065.354	801.834
383.059	16.785	1064.388	801.141
384.073	16.809	1063.971	800.870
385.088	16.883	1062.504	800.046
386.102	16.830	1061.706	799.124
387.117	16.812	1060.712	798.218
388.132	16.821	1059.580	797.338
389.146	16.807	1058.956	796.734
390.161	16.755	1058.599	796.151
391.175	16.865	1057.558	795.816
392.190	16.882	1057.133	795.502
393.205	16.940	1056.090	794.922
394.219	16.930	1055.569	794.410
395.234	16.785	1055.178	793.367
396.248	16.715	1054.219	792.246
397.263	16.793	1052.852	791.513
398.278	16.810	1052.473	791.238
399.292	16.800	1051.558	790.435
400.307	16.905	1050.957	790.405
401.321	16.944	1050.086	789.859
402.336	16.834	1049.994	789.208
403.350	16.818	1049.048	788.354
404.365	16.962	1048.338	788.417
405.380	17.006	1047.267	787.745
406.394	16.992	1046.689	787.180
407.409	17.007	1046.058	786.703
408.423	17.086	1045.562	786.626
409.438	17.134	1044.772	786.186
410.453	17.204	1043.781	785.694
411.467	17.264	1043.338	785.568
412.482	17.114	1043.067	784.602
413.496	17.163	1042.408	784.263
414.511	17.274	1041.356	783.912
415.526	17.272	1041.330	783.815
416.540	17.422	1040.340	783.693
417.555	17.371	1039.961	783.103
418.569	17.227	1039.714	782.186
419.584	17.278	1039.087	781.877
420.599	17.335	1038.473	781.609
421.613	102.967	1321.968	1467.857
422.628	94.446	1363.242	1467.962
