DTS Sentinel unit serial number:	SN413079Multiplexer serial number:	ORYXHardware model number:	OX4-SRSoftware version number:	ORYX F/W v4.00 Oryx Data Collector v3.7.2.0data status	okinstallation	princeton_trtdifferential loss correction	single-endedforward channel	channel 2reverse channel	N/Adate	2019/09/18time	16:35:35forward acquisition time	60.00reverse acquisition time	0.00gamma	496.2192k internal	0.2300k external	0.2300temperature offset calibration	1.0008default loss term (dB/km)	0.3790temperature slope calibration	1.0000multiplexer offset coefficient	1.0000multiplexer slope coefficient	1.0000fibre end	0.00T internal ref (°C)	39.47T ext. ref 1 (°C)	0.84T ext. ref 2 (°C)	36.81length (m)	temperature (°C)	Stokes	anti-Stokes-747.200	168.674	0.142	0.206
-746.185	-200.000	-0.008	0.221
-745.171	105.899	-0.215	0.259
-744.156	301.856	0.206	0.388
-743.142	-85.523	0.036	0.011
-742.127	114.139	-0.102	0.127
-741.112	-22.626	-0.304	0.188
-740.098	-0.367	-0.086	0.062
-739.083	-91.056	-0.214	0.063
-738.069	12.196	0.216	0.169
-737.054	-51.204	0.411	-0.197
-736.039	-101.522	-0.217	0.054
-735.025	-31.427	0.159	0.091
-734.010	-200.000	0.009	-0.208
-732.996	-88.535	-0.286	0.087
-731.981	-128.641	-0.277	-0.040
-730.966	76.551	0.085	0.092
-729.952	-200.000	0.033	-0.298
-728.937	-60.453	0.033	-0.014
-727.923	-200.000	0.003	-0.087
-726.908	256.759	0.048	-0.083
-725.894	93.889	0.103	-0.119
-724.879	-65.487	0.083	-0.034
-723.864	-58.602	0.169	-0.075
-722.850	494.731	-0.100	-0.233
-721.835	-74.222	-0.229	0.084
-720.821	800.000	0.020	-0.088
-719.806	-200.000	0.007	-0.214
-718.791	201.176	-0.342	-0.536
-717.777	-12.522	-0.044	-0.030
-716.762	-142.965	-0.026	-0.003
-715.748	800.000	-0.098	-0.396
-714.733	589.056	-0.081	0.203
-713.718	98.133	-0.174	0.204
-712.704	49.326	0.293	0.281
-711.689	42.625	0.140	0.130
-710.675	647.687	0.130	0.338
-709.660	365.864	0.115	-0.237
-708.645	-200.000	-0.008	0.103
-707.631	-200.000	-0.004	-0.044
-706.616	111.587	0.085	-0.104
-705.602	122.618	-0.093	-0.119
-704.587	152.451	0.184	-0.256
-703.572	-182.770	0.201	-0.004
-702.558	-200.000	0.009	0.078
-701.543	128.203	-0.241	0.313
-700.529	800.000	-0.113	-0.490
-699.514	-200.000	-0.037	-0.321
-698.499	364.240	0.085	0.174
-697.485	-118.956	-0.290	-0.052
-696.470	201.013	0.040	-0.063
-695.456	67.210	-0.191	0.198
-694.441	-200.000	-0.057	0.391
-693.426	-61.667	0.142	-0.061
-692.412	800.000	-0.066	-0.240
-691.397	483.980	0.074	-0.172
-690.383	133.014	-0.095	-0.125
-689.368	-86.432	-0.070	-0.022
-688.354	-164.435	-0.338	0.016
-687.339	21.619	0.092	-0.076
-686.324	-172.784	0.048	-0.002
-685.310	-138.566	0.219	-0.024
-684.295	-144.165	0.063	0.006
-683.281	82.279	0.062	-0.068
-682.266	119.205	-0.100	-0.126
-681.251	-187.635	0.087	-0.001
-680.237	-200.000	0.013	0.189
-679.222	93.083	-0.056	0.065
-678.208	-200.000	0.013	0.227
-677.193	-100.985	0.233	-0.058
-676.178	453.481	-0.056	0.126
-675.164	174.135	-0.272	0.400
-674.149	403.020	-0.017	-0.035
-673.135	-200.000	0.026	0.355
-672.120	194.385	0.134	-0.207
-671.105	332.430	0.196	-0.386
-670.091	-55.746	-0.312	-0.142
-669.076	8.593	-0.325	0.249
-668.062	-9.952	0.185	0.125
-667.047	-73.348	-0.190	-0.071
-666.032	203.350	-0.165	-0.260
-665.018	172.217	-0.024	0.035
-664.003	-117.063	-0.242	0.045
-662.989	-53.034	0.379	-0.177
-661.974	-160.285	-0.350	-0.019
-660.959	735.978	0.071	0.194
-659.945	-74.014	-0.409	-0.151
-658.930	800.000	-0.082	-0.314
-657.916	105.293	-0.023	-0.027
-656.901	-78.102	-0.087	0.031
-655.886	18.425	0.086	-0.070
-654.872	-147.785	0.065	0.006
-653.857	150.727	0.050	0.069
-652.843	-24.062	0.256	-0.156
-651.828	40.828	-0.157	-0.144
-650.814	-199.197	0.135	-0.001
-649.799	75.141	-0.246	-0.263
-648.784	800.000	0.048	-0.205
-647.770	41.274	0.074	-0.068
-646.755	83.285	0.095	-0.105
-645.741	-15.329	0.210	-0.136
-644.726	800.000	-0.073	0.211
-643.711	82.530	0.046	-0.050
-642.697	-125.096	0.277	-0.043
-641.682	-160.736	-0.274	-0.015
-640.668	-89.505	-0.025	0.008
-639.653	-109.901	0.375	-0.080
-638.638	12.793	-0.091	-0.072
-637.624	800.000	0.067	-0.203
-636.609	-63.596	0.297	0.124
-635.595	-190.127	0.272	0.003
-634.580	-42.938	0.172	-0.089
-633.565	183.902	0.202	-0.303
-632.551	-70.322	-0.092	-0.035
-631.536	693.911	-0.109	0.289
-630.522	-200.000	-0.032	-0.224
-629.507	151.036	0.128	-0.177
-628.492	-26.716	0.353	-0.210
-627.478	-34.934	0.164	0.091
-626.463	280.038	0.109	-0.198
-625.449	800.000	-0.098	-0.302
-624.434	438.790	0.097	0.214
-623.419	94.491	0.170	-0.196
-622.405	238.686	-0.131	0.222
-621.390	-29.509	-0.187	-0.109
-620.376	800.000	0.034	-0.113
-619.361	140.991	0.108	0.144
-618.346	6.443	0.246	0.186
-617.332	-200.000	0.013	0.366
-616.317	672.598	0.073	0.191
-615.303	-155.603	0.189	-0.012
-614.288	6.697	0.292	-0.221
-613.273	-11.074	-0.202	-0.136
-612.259	-200.000	-0.045	0.298
-611.244	-200.000	-0.036	-0.188
-610.230	-200.000	0.011	0.145
-609.215	-33.194	0.125	-0.071
-608.201	164.880	0.201	-0.288
-607.186	-200.000	0.030	-0.144
-606.171	-200.000	0.001	0.387
-605.157	-42.042	-0.313	0.162
-604.142	-84.405	-0.130	-0.042
-603.128	-200.000	-0.015	-0.150
-602.113	800.000	0.034	-0.140
-601.098	415.094	0.078	-0.170
-600.084	24.063	-0.264	0.221
-599.069	800.000	-0.021	0.061
-598.055	-106.207	0.268	-0.061
-597.040	-176.195	-0.236	-0.006
-596.025	212.651	0.122	-0.195
-595.011	800.000	-0.045	0.188
-593.996	-138.125	0.092	-0.010
-592.982	800.000	0.064	0.209
-591.967	-63.860	0.259	-0.107
-590.952	-200.000	-0.009	0.056
-589.938	-107.596	0.040	0.009
-588.923	-50.406	-0.390	0.187
-587.909	-115.822	0.289	0.055
-586.894	409.817	0.145	0.312
-585.879	-131.191	0.186	-0.025
-584.865	179.237	-0.117	0.173
-583.850	54.644	-0.138	0.134
-582.836	-141.736	-0.376	0.038
-581.821	311.205	0.134	-0.255
-580.806	-27.383	-0.047	-0.028
-579.792	-138.379	0.085	-0.009
-578.777	10.931	-0.092	0.071
-577.763	119.295	-0.147	-0.185
-576.748	-38.681	0.210	0.112
-575.733	-32.911	-0.258	0.145
-574.719	30.886	0.116	0.100
-573.704	418.294	-0.149	0.323
-572.690	-138.965	-0.118	0.013
-571.675	601.905	0.183	0.461
-570.661	201.250	0.186	0.291
-569.646	-79.795	0.324	-0.111
-568.631	-200.000	0.029	-0.157
-567.617	800.000	-0.074	-0.254
-566.602	58.580	0.060	-0.060
-565.588	800.000	-0.071	-0.314
-564.573	14.121	-0.138	0.109
-563.558	-200.000	-0.007	-0.035
-562.544	-180.026	0.136	0.003
-561.529	-200.000	-0.036	0.225
-560.515	163.162	0.142	0.202
-559.500	549.384	-0.107	-0.260
-558.485	-67.329	-0.178	0.071
-557.471	-200.000	0.015	0.141
-556.456	-4.811	-0.074	-0.052
-555.442	-37.275	0.099	-0.054
-554.427	263.130	-0.108	-0.190
-553.412	-22.654	-0.103	0.063
-552.398	-58.556	-0.188	0.083
-551.383	-42.043	-0.286	-0.148
-550.369	-88.469	-0.079	0.024
-549.354	484.540	0.073	-0.169
-548.339	451.286	-0.096	-0.215
-547.325	505.920	0.040	0.094
-546.310	-13.563	0.140	-0.092
-545.296	325.527	0.210	0.406
-544.281	271.783	0.102	-0.182
-543.266	53.981	-0.229	0.223
-542.252	75.964	0.245	0.262
-541.237	377.252	-0.043	-0.090
-540.223	-46.844	0.277	0.137
-539.208	-61.488	0.163	0.069
-538.193	800.000	-0.110	0.312
-537.179	-200.000	0.289	0.001
-536.164	-40.768	-0.102	0.054
-535.150	-47.962	-0.307	0.150
-534.135	347.908	0.021	-0.042
-533.121	95.695	-0.055	0.063
-532.106	-132.828	-0.247	0.032
-531.091	-105.723	0.148	0.034
-530.077	800.000	0.011	0.033
-529.062	769.671	0.123	-0.338
-528.048	-41.460	0.192	-0.100
-527.033	-200.000	-0.012	-0.163
-526.018	-112.528	-0.054	-0.011
-525.004	-103.243	-0.171	-0.041
-523.989	-78.502	0.236	0.082
-522.975	3.864	-0.178	0.131
-521.960	-200.000	-0.023	0.142
-520.945	-25.409	0.280	-0.167
-519.931	228.383	-0.161	-0.266
-518.916	800.000	0.050	0.208
-517.902	-73.645	-0.184	0.068
-516.887	35.733	0.158	-0.141
-515.872	245.029	0.137	0.232
-514.858	-32.914	-0.154	0.086
-513.843	146.955	-0.075	0.102
-512.829	54.405	-0.095	0.093
-511.814	-115.732	0.137	-0.026
-510.799	-27.156	0.079	-0.047
-509.785	800.000	0.056	-0.220
-508.770	121.843	-0.053	-0.067
-507.756	45.323	0.184	0.171
-506.741	-106.612	-0.158	0.036
-505.726	552.992	-0.055	0.135
-504.712	-11.277	0.137	-0.091
-503.697	-45.232	-0.089	-0.045
-502.683	287.875	0.039	0.072
-501.668	223.855	0.044	0.073
-500.653	256.196	-0.090	-0.157
-499.639	-2.397	-0.086	0.061
-498.624	-55.191	-0.253	0.115
-497.610	73.610	-0.094	-0.100
-496.595	373.552	-0.110	-0.227
-495.581	-31.059	0.377	-0.215
-494.566	-126.362	0.133	0.020
-493.551	119.655	-0.138	-0.172
-492.537	18.848	0.067	-0.054
-491.522	15.172	-0.168	-0.133
-490.508	-200.000	0.009	-0.049
-489.493	183.160	0.252	-0.376
-488.478	18.167	0.192	-0.155
-487.464	-80.441	-0.255	-0.086
-486.449	30.785	-0.259	0.223
-485.435	-200.000	-0.033	0.247
-484.420	-48.343	-0.077	0.038
-483.405	69.291	-0.090	0.093
-482.391	-89.992	-0.171	-0.050
-481.376	-148.370	-0.169	-0.014
-480.362	-200.000	-0.008	0.119
-479.347	-42.279	0.285	0.147
-478.332	-73.300	-0.155	-0.057
-477.318	-36.939	-0.204	0.110
-476.303	-200.000	0.021	-0.100
-475.289	52.331	-0.243	-0.234
-474.274	-200.000	0.014	0.309
-473.259	-200.000	0.010	0.071
-472.245	278.926	0.085	-0.153
-471.230	-114.815	-0.134	-0.026
-470.216	-59.053	0.012	-0.005
-469.201	800.000	0.070	0.263
-468.186	11.235	-0.298	-0.230
-467.172	800.000	-0.039	-0.151
-466.157	-65.692	0.137	-0.055
-465.143	102.474	-0.266	-0.314
-464.128	-123.210	-0.213	-0.034
-463.113	20.833	0.076	-0.062
-462.099	279.366	0.244	0.439
-461.084	-120.082	-0.084	0.014
-460.070	-200.000	-0.036	-0.260
-459.055	30.162	0.087	-0.075
-458.040	46.661	-0.234	0.219
-457.026	-172.943	-0.182	-0.006
-456.011	800.000	-0.087	-0.263
-454.997	116.995	0.285	-0.353
-453.982	-158.235	0.058	0.003
-452.968	553.221	-0.075	-0.182
-451.953	-63.883	0.170	-0.070
-450.938	-66.769	-0.375	-0.149
-449.924	636.048	0.097	0.247
-448.909	510.056	0.178	0.418
-447.895	-200.000	-0.012	0.507
-446.880	247.997	0.139	0.238
-445.865	167.575	0.048	-0.069
-444.851	29.570	0.289	-0.248
-443.836	-95.109	0.243	0.066
-442.822	101.870	-0.198	0.233
-441.807	119.709	0.265	0.331
-440.792	-200.000	0.010	-0.435
-439.778	-200.000	-0.047	-0.285
-438.763	100.842	-0.251	-0.294
-437.749	-94.182	0.361	-0.100
-436.734	237.932	-0.061	-0.103
-435.719	52.399	-0.070	0.067
-434.705	-200.000	-0.045	-0.260
-433.690	-92.268	-0.276	0.079
-432.676	163.027	0.215	-0.304
-431.661	-200.000	-0.018	0.214
-430.646	-90.743	-0.279	-0.081
-429.632	-81.925	-0.310	0.102
-428.617	-193.271	0.062	0.001
-427.603	249.280	0.120	0.205
-426.588	-151.475	-0.240	0.018
-425.573	-27.075	0.034	0.020
-424.559	-3.996	-0.208	-0.145
-423.544	225.507	-0.192	-0.314
-422.530	-71.364	-0.199	-0.075
-421.515	78.406	-0.102	0.110
-420.500	54.257	-0.304	0.294
-419.486	-97.551	-0.301	0.079
-418.471	-200.000	-0.012	0.198
-417.457	56.285	-0.055	0.054
-416.442	-200.000	0.042	-0.614
-415.428	417.795	-0.239	-0.514
-414.413	-39.605	0.225	-0.119
-413.398	-51.757	0.177	0.083
-412.384	800.000	-0.087	0.359
-411.369	37.689	0.186	0.166
-410.355	744.199	0.088	0.239
-409.340	-200.000	0.010	0.057
-408.325	176.210	0.016	-0.023
-407.311	-200.000	-0.024	-0.168
-406.296	-142.707	0.174	-0.017
-405.282	-200.000	-0.022	-0.316
-404.267	-200.000	-0.016	-0.128
-403.252	-9.990	-0.163	0.109
-402.238	44.643	0.072	-0.067
-401.223	800.000	0.054	-0.157
-400.209	224.805	-0.085	0.138
-399.194	52.028	0.203	0.195
-398.179	12.371	-0.313	0.243
-397.165	182.549	-0.042	0.062
-396.150	-200.000	0.040	0.285
-395.136	-36.682	0.217	-0.117
-394.121	135.129	0.310	-0.406
-393.106	10.041	0.152	0.116
-392.092	-53.130	0.129	-0.060
-391.077	112.924	-0.192	0.234
-390.063	-110.386	0.115	0.024
-389.048	-200.000	0.041	-0.364
-388.033	-100.336	-0.245	-0.061
-387.019	209.890	0.050	0.079
-386.004	415.562	-0.100	0.214
-384.990	-200.000	-0.002	-0.310
-383.975	183.464	-0.330	0.491
-382.960	-3.590	0.093	-0.065
-381.946	800.000	0.036	-0.110
-380.931	-114.992	0.300	-0.057
-379.917	209.466	-0.098	-0.155
-378.902	173.105	-0.124	0.180
-377.888	126.314	-0.055	0.070
-376.873	348.806	-0.066	-0.131
-375.858	-121.433	0.487	0.081
-374.844	-196.766	-0.247	0.002
-373.829	-139.800	0.207	0.022
-372.815	-57.550	-0.353	-0.156
-371.800	-73.385	-0.348	-0.128
-370.785	-200.000	-0.000	-0.028
-369.771	800.000	0.078	-0.274
-368.756	-200.000	0.072	-0.340
-367.742	137.683	0.115	0.151
-366.727	-200.000	-0.013	-0.072
-365.712	-200.000	-0.018	0.202
-364.698	-112.968	0.476	0.095
-363.683	-200.000	-0.024	-0.233
-362.669	38.829	-0.181	-0.162
-361.654	800.000	-0.066	0.211
-360.639	-107.738	0.341	-0.075
-359.625	-68.583	-0.389	0.151
-358.610	155.142	0.069	0.095
-357.596	191.919	-0.151	-0.229
-356.581	214.836	0.068	0.108
-355.566	81.594	-0.109	-0.119
-354.552	94.905	0.151	-0.173
-353.537	-200.000	0.064	0.338
-352.523	-8.497	-0.168	0.113
-351.508	-43.773	0.302	0.153
-350.493	-115.337	-0.340	-0.064
-349.479	25.454	0.184	-0.154
-348.464	800.000	-0.114	-0.482
-347.450	458.925	0.071	0.159
-346.435	66.055	-0.125	-0.127
-345.420	21.176	-0.067	-0.054
-344.406	-55.941	0.248	0.111
-343.391	26.413	-0.036	-0.030
-342.377	111.917	-0.073	-0.089
-341.362	800.000	0.045	-0.168
-340.348	27.309	0.314	-0.265
-339.333	220.466	-0.268	-0.432
-338.318	-29.439	-0.349	-0.200
-337.304	109.946	-0.172	-0.207
-336.289	84.133	-0.232	0.254
-335.275	-32.279	0.237	-0.133
-334.260	800.000	0.043	0.119
-333.245	103.432	0.113	-0.134
-332.231	27.106	0.281	0.237
-331.216	5.778	0.094	-0.070
-330.202	102.345	0.096	0.113
-329.187	-128.470	0.273	-0.039
-328.172	-200.000	0.007	0.043
-327.158	-66.097	-0.090	0.036
-326.143	-34.843	0.076	0.042
-325.129	800.000	0.050	-0.221
-324.114	800.000	0.031	-0.107
-323.099	-142.930	-0.201	0.020
-322.085	-63.040	0.283	-0.117
-321.070	-144.237	-0.071	0.007
-320.056	-31.379	0.189	0.107
-319.041	-200.000	0.024	0.285
-318.026	-200.000	0.036	0.203
-317.012	3.163	-0.113	0.082
-315.997	226.160	-0.098	-0.159
-314.983	1.196	0.218	0.157
-313.968	-52.272	-0.205	-0.095
-312.953	-200.000	0.069	-0.355
-311.939	-103.284	-0.206	0.049
-310.924	773.990	0.127	-0.346
-309.910	213.681	0.045	0.071
-308.895	419.305	-0.147	-0.316
-307.880	-200.000	0.060	0.347
-306.866	800.000	0.050	-0.187
-305.851	800.000	-0.064	-0.185
-304.837	-200.000	0.010	0.057
-303.822	15.810	0.106	0.084
-302.807	-187.950	-0.145	0.002
-301.793	-190.231	-0.334	-0.004
-300.778	441.775	0.060	-0.131
-299.764	-157.840	0.182	-0.011
-298.749	-79.125	0.327	-0.111
-297.735	-200.000	-0.022	-0.268
-296.720	-34.142	-0.133	-0.074
-295.705	601.663	-0.116	0.289
-294.691	-26.920	0.125	-0.073
-293.676	181.621	0.086	0.127
-292.662	-81.857	0.362	0.119
-291.647	151.155	0.039	0.053
-290.632	-181.709	0.228	0.004
-289.618	379.454	-0.147	-0.301
-288.603	724.637	-0.047	0.124
-287.589	-200.000	0.028	-0.274
-286.574	-176.458	-0.025	-0.001
-285.559	-178.698	0.181	-0.004
-284.545	-200.000	-0.003	0.163
-283.530	103.319	-0.223	0.262
-282.516	382.268	-0.190	0.391
-281.501	-200.000	0.025	-0.342
-280.486	-45.222	0.030	-0.015
-279.472	-200.000	0.035	-0.258
-278.457	-200.000	0.015	-0.243
-277.443	138.152	0.160	0.210
-276.428	-45.286	0.365	-0.181
-275.413	0.702	0.189	0.136
-274.399	-56.798	0.275	-0.122
-273.384	519.778	0.099	-0.233
-272.370	118.515	-0.074	0.091
-271.355	-70.330	-0.157	-0.060
-270.340	-83.132	0.280	0.090
-269.326	-89.621	0.111	0.033
-268.311	-88.684	0.448	0.134
-267.297	-18.162	-0.341	0.214
-266.282	296.136	-0.222	0.407
-265.267	-8.703	-0.125	-0.084
-264.253	-88.635	-0.164	-0.049
-263.238	-101.737	-0.059	0.014
-262.224	-26.121	-0.157	0.092
-261.209	-55.912	-0.196	0.088
-260.195	-200.000	-0.061	0.342
-259.180	93.390	-0.139	0.157
-258.165	800.000	-0.047	0.178
-257.151	-200.000	0.006	0.292
-256.136	800.000	-0.034	-0.145
-255.122	47.925	0.298	0.278
-254.107	-187.966	0.157	0.002
-253.092	-200.000	0.022	0.146
-252.078	28.261	-0.218	-0.184
-251.063	800.000	-0.090	0.346
-250.049	-200.000	0.018	-0.124
-249.034	529.666	0.036	-0.086
-248.019	-79.819	-0.133	0.045
-247.005	438.589	-0.108	-0.235
-245.990	-200.000	-0.034	0.213
-244.976	-200.000	0.028	0.205
-243.961	-162.809	0.169	0.008
-242.946	-40.059	0.160	-0.083
-241.932	326.667	-0.089	-0.171
-240.917	220.530	-0.214	0.343
-239.903	-119.866	0.062	0.011
-238.888	-152.321	-0.259	0.019
-237.873	-28.998	0.207	0.119
-236.859	42.530	0.292	0.266
-235.844	-116.170	0.298	-0.055
-234.830	-178.974	-0.375	-0.008
-233.815	-165.552	-0.238	0.010
-232.800	800.000	-0.031	-0.116
-231.786	-200.000	0.057	0.362
-230.771	-200.000	0.031	0.199
-229.757	800.000	-0.041	0.174
-228.742	66.709	-0.155	-0.158
-227.727	-200.000	-0.007	0.482
-226.713	353.502	0.126	0.250
-225.698	603.374	-0.030	0.074
-224.684	-200.000	-0.002	-0.077
-223.669	101.932	0.199	0.232
-222.655	112.811	-0.242	-0.293
-221.640	84.426	-0.175	-0.192
-220.625	800.000	-0.072	-0.246
-219.611	268.608	-0.080	0.140
-218.596	59.622	-0.133	0.131
-217.582	-200.000	-0.125	-0.000
-216.567	86.680	-0.095	-0.105
-215.552	187.431	-0.059	-0.087
-214.538	-78.915	-0.331	-0.112
-213.523	-34.765	0.130	0.071
-212.509	-200.000	-0.005	-0.200
-211.494	-134.342	-0.132	-0.016
-210.479	-200.000	-0.033	0.259
-209.465	-2.131	0.104	0.073
-208.450	-156.149	0.290	-0.018
-207.436	-34.615	-0.125	-0.068
-206.421	-134.724	0.162	-0.020
-205.406	-14.213	-0.366	-0.236
-204.392	137.566	-0.097	0.126
-203.377	250.426	0.169	-0.286
-202.363	-63.014	-0.454	-0.187
-201.348	-59.651	-0.211	0.090
-200.333	175.076	0.177	-0.256
-199.319	-200.000	0.053	-0.323
-198.304	399.370	0.122	-0.254
-197.290	106.075	0.289	0.342
-196.275	87.689	-0.278	0.307
-195.260	-99.331	-0.090	0.023
-194.246	49.152	-0.292	-0.274
-193.231	800.000	-0.002	-0.006
-192.217	-99.557	0.017	0.004
-191.202	-153.904	0.130	0.009
-190.187	-200.000	0.001	0.259
-189.173	-180.866	0.201	-0.004
-188.158	-200.000	0.040	-0.198
-187.144	-142.822	0.120	-0.012
-186.129	117.366	-0.208	-0.256
-185.114	129.221	0.072	-0.092
-184.100	-200.000	0.001	-0.173
-183.085	96.646	-0.201	0.230
-182.071	560.203	-0.047	0.114
-181.056	-200.000	0.031	0.232
-180.042	-200.000	0.000	-0.003
-179.027	-138.498	-0.441	0.048
-178.012	-200.000	-0.001	-0.058
-176.998	-27.151	0.330	0.192
-175.983	-124.522	-0.247	-0.038
-174.969	-200.000	0.010	0.284
-173.954	-14.086	0.077	-0.050
-172.939	-42.521	0.106	0.054
-171.925	22.606	-0.181	0.148
-170.910	-48.796	0.326	0.156
-169.896	9.629	-0.124	0.094
-168.881	-113.296	-0.274	-0.054
-167.866	26.333	-0.143	0.119
-166.852	186.322	0.143	-0.212
-165.837	-77.441	0.298	-0.103
-164.823	182.733	0.114	0.168
-163.808	-200.000	0.078	-0.376
-162.793	485.567	0.076	-0.173
-161.779	13.451	-0.431	0.333
-160.764	-200.000	-0.012	-0.161
-159.750	-183.061	0.159	-0.003
-158.735	-200.000	-0.017	0.169
-157.720	16.106	0.277	0.217
-156.706	-54.293	-0.274	0.124
-155.691	91.151	-0.010	-0.011
-154.677	-200.000	-0.047	0.238
-153.662	101.523	0.235	0.272
-152.647	118.722	0.036	-0.045
-151.633	63.745	0.166	0.167
-150.618	481.599	0.025	0.056
-149.604	-57.901	-0.190	0.083
-148.589	-164.189	-0.393	0.018
-147.574	800.000	-0.042	0.177
-146.560	4.393	0.088	-0.064
-145.545	-105.841	0.226	-0.051
-144.531	800.000	0.063	0.193
-143.516	57.107	0.286	0.278
-142.502	800.000	-0.074	0.255
-141.487	263.414	0.073	0.126
-140.472	-200.000	0.003	0.050
-139.458	-88.027	-0.401	0.120
-138.443	-81.660	-0.128	-0.042
-137.429	432.015	-0.022	0.048
-136.414	-72.745	0.062	-0.023
-135.399	-85.395	0.099	0.031
-134.385	-109.377	-0.548	-0.115
-133.370	-33.091	-0.267	-0.147
-132.356	800.000	-0.025	0.101
-131.341	-113.687	0.264	-0.051
-130.326	-15.227	-0.120	0.077
-129.312	285.162	0.089	0.160
-128.297	-200.000	0.017	0.096
-127.283	477.547	-0.106	-0.239
-126.268	-200.000	0.015	-0.169
-125.253	70.629	-0.306	-0.316
-124.239	74.804	0.130	0.137
-123.224	40.377	-0.127	-0.114
-122.210	46.885	0.142	-0.131
-121.195	144.808	0.248	0.329
-120.180	800.000	-0.090	-0.322
-119.166	72.267	0.029	0.030
-118.151	800.000	-0.060	0.239
-117.137	75.605	0.146	0.153
-116.122	-108.355	-0.346	-0.074
-115.107	-101.328	-0.193	-0.047
-114.093	800.000	-0.083	0.300
-113.078	-200.000	-0.292	0.000
-112.064	-200.000	-0.077	-0.446
-111.049	-200.000	0.023	-0.190
-110.034	-105.323	0.276	0.063
-109.020	-200.000	-0.012	-0.087
-108.005	800.000	0.089	-0.285
-106.991	-200.000	0.002	0.204
-105.976	63.952	0.074	0.074
-104.962	645.358	-0.094	0.238
-103.947	-200.000	-0.086	-0.429
-102.932	21.860	-0.230	-0.187
-101.918	717.040	0.090	0.236
-100.903	134.588	-0.323	0.417
-99.889	-146.127	0.067	-0.006
-98.874	21.387	0.255	-0.206
-97.859	-139.368	-0.233	-0.025
-96.845	-110.389	-0.078	0.016
-95.830	-200.000	-0.018	0.238
-94.816	-200.000	0.001	0.094
-93.801	-28.423	-0.218	-0.125
-92.786	-152.560	0.313	0.022
-91.772	-200.000	0.020	-0.483
-90.757	-200.000	0.001	-0.168
-89.743	800.000	-0.049	0.161
-88.728	-54.487	0.056	0.025
-87.713	133.971	-0.200	-0.257
-86.699	609.944	-0.077	-0.192
-85.684	13.825	-0.187	0.144
-84.670	124.526	0.088	-0.110
-83.655	-119.442	0.177	-0.031
-82.640	105.955	0.179	-0.210
-81.626	-200.000	0.139	-0.641
-80.611	-66.335	0.133	-0.053
-79.597	76.330	-0.164	0.173
-78.582	-13.411	0.138	-0.089
-77.567	14.065	0.232	0.180
-76.553	-65.550	0.388	0.155
-75.538	28.380	-0.419	0.352
-74.524	800.000	0.042	0.181
-73.509	-200.000	0.047	-0.382
-72.494	-92.281	-0.037	-0.010
-71.480	100.920	-0.278	-0.321
-70.465	235.465	-0.071	0.117
-69.451	-176.404	-0.451	-0.012
-68.436	367.748	-0.020	0.040
-67.422	4.014	0.126	0.091
-66.407	-72.258	-0.276	-0.101
-65.392	-5.715	-0.036	-0.025
-64.378	411.689	-0.109	-0.230
-63.363	303.927	0.121	0.223
-62.349	173.827	-0.178	0.256
-61.334	140.160	-0.605	-0.792
-60.319	78.576	0.334	0.355
-59.305	800.000	-0.306	-0.965
-58.290	59.854	0.959	0.940
-57.276	757.456	0.700	1.881
-56.261	-200.000	77.392	511.388
-55.246	488.821	1360.437	3085.647
-54.232	140.801	2620.341	3437.392
-53.217	106.189	2390.693	2811.095
-52.203	48.482	1995.461	1855.443
-51.188	42.622	1777.804	1606.340
-50.173	39.985	1730.938	1543.375
-49.159	53.951	1767.166	1685.908
-48.144	58.643	1785.144	1739.923
-47.130	42.755	1747.691	1579.924
-46.115	39.507	1734.178	1542.272
-45.100	39.387	1729.505	1537.117
-44.086	39.314	1726.743	1534.039
-43.071	39.312	1724.436	1531.909
-42.057	39.342	1722.022	1529.941
-41.042	39.363	1719.940	1528.193
-40.027	39.422	1717.485	1526.404
-39.013	39.374	1715.724	1524.406
-37.998	39.363	1714.669	1523.322
-36.984	39.383	1713.314	1522.213
-35.969	39.530	1711.281	1521.482
-34.954	39.556	1709.211	1519.782
-33.940	39.521	1707.407	1517.850
-32.925	39.524	1704.973	1515.646
-31.911	39.502	1703.593	1514.192
-30.896	39.483	1701.641	1512.252
-29.881	39.427	1700.161	1510.449
-28.867	39.468	1698.606	1509.323
-27.852	39.444	1697.329	1507.945
-26.838	39.353	1695.998	1506.006
-25.823	39.372	1694.661	1504.904
-24.809	39.568	1692.921	1504.794
-23.794	39.540	1691.065	1502.869
-22.779	39.583	1690.024	1502.212
-21.765	39.518	1687.973	1499.835
-20.750	39.442	1686.897	1498.239
-19.736	39.493	1684.807	1496.713
-18.721	39.489	1683.485	1495.453
-17.706	39.437	1682.398	1494.032
-16.692	39.424	1680.496	1492.181
-15.677	39.461	1679.329	1491.366
-14.663	39.509	1678.094	1490.575
-13.648	39.520	1676.393	1489.086
-12.633	39.467	1674.491	1486.937
-11.619	39.454	1672.837	1485.317
-10.604	39.369	1671.593	1483.510
-9.590	39.524	1669.824	1483.046
-8.575	39.496	1668.606	1481.695
-7.560	39.593	1666.950	1480.896
-6.546	39.506	1665.977	1479.323
-5.531	39.500	1664.429	1477.844
-4.517	39.434	1663.792	1476.723
-3.502	39.468	1662.846	1476.076
-2.487	39.526	1661.530	1475.283
-1.473	39.758	1650.938	1467.551
-0.458	37.642	1631.337	1434.499
0.556	32.325	1628.393	1393.586
1.571	28.020	1649.548	1379.165
2.586	25.834	1660.815	1371.834
3.600	22.289	1605.645	1300.000
4.615	12.555	1487.137	1136.983
5.629	3.104	1414.309	1018.835
6.644	1.064	1403.864	997.801
7.659	0.889	1402.631	995.680
8.673	0.707	1401.437	993.554
9.688	0.690	1399.640	992.079
10.702	0.480	1397.035	988.764
11.717	4.157	1403.126	1017.154
12.731	12.763	1417.327	1084.213
13.746	17.781	1423.773	1122.144
14.761	17.651	1421.287	1119.230
15.775	16.748	1419.449	1111.755
16.790	15.803	1416.343	1103.038
17.804	14.984	1414.337	1096.012
18.819	14.434	1412.960	1091.250
19.834	14.258	1410.953	1088.452
20.848	13.972	1409.960	1085.721
21.863	13.673	1408.652	1082.665
22.877	13.527	1407.570	1080.781
23.892	13.341	1406.824	1078.901
24.907	13.455	1405.645	1078.646
25.921	13.544	1404.809	1078.488
26.936	13.489	1403.829	1077.286
27.950	13.542	1403.060	1076.945
28.965	13.694	1402.185	1077.159
29.980	13.559	1401.030	1075.306
30.994	13.642	1400.145	1075.066
32.009	13.677	1399.236	1074.500
33.023	13.663	1397.553	1073.021
34.038	13.751	1396.122	1072.399
35.053	13.671	1395.341	1071.187
36.067	13.681	1394.408	1070.443
37.082	13.698	1393.560	1069.803
38.096	13.854	1392.115	1069.606
39.111	13.657	1392.138	1068.257
40.126	13.640	1391.160	1067.304
41.140	13.551	1390.207	1065.908
42.155	13.427	1389.978	1064.841
43.169	13.531	1389.877	1065.334
44.184	13.473	1389.340	1064.455
45.199	13.561	1388.652	1064.404
46.213	13.515	1388.223	1063.686
47.228	13.593	1386.702	1062.922
48.242	13.651	1385.863	1062.556
49.257	13.656	1384.475	1061.430
50.271	13.620	1382.791	1059.818
51.286	13.654	1381.528	1058.972
52.301	13.720	1380.022	1058.144
53.315	13.591	1379.433	1056.775
54.330	13.607	1378.362	1055.964
55.344	13.559	1376.777	1054.355
56.359	13.518	1376.012	1053.411
57.374	13.506	1374.964	1052.440
58.388	13.548	1373.852	1051.761
59.403	13.532	1373.467	1051.274
60.417	13.495	1372.635	1050.309
61.432	13.501	1372.009	1049.778
62.447	13.462	1370.815	1048.520
63.461	13.479	1369.798	1047.761
64.476	13.451	1368.486	1046.486
65.490	13.474	1367.090	1045.469
66.505	13.571	1365.469	1044.751
67.520	13.380	1364.884	1043.008
68.534	13.477	1363.421	1042.408
69.549	13.532	1362.332	1041.828
70.563	13.545	1361.092	1040.867
71.578	13.372	1359.696	1038.625
72.593	13.298	1359.110	1037.623
73.607	13.382	1358.285	1037.422
74.622	13.386	1357.245	1036.563
75.636	13.431	1356.355	1036.073
76.651	13.419	1355.488	1035.243
77.666	13.346	1355.004	1034.329
78.680	13.480	1354.160	1034.428
79.695	13.380	1353.440	1033.160
80.709	13.435	1352.634	1032.799
81.724	13.531	1351.655	1032.557
82.739	13.472	1350.700	1031.370
83.753	13.635	1349.667	1031.503
84.768	13.517	1348.779	1030.004
85.782	13.590	1347.647	1029.500
86.797	13.533	1346.381	1028.089
87.812	13.511	1344.591	1026.492
88.826	13.444	1343.824	1025.400
89.841	13.545	1342.621	1025.019
90.855	13.634	1341.547	1024.661
91.870	13.654	1340.824	1024.141
92.884	13.692	1339.746	1023.458
93.899	13.714	1339.197	1023.084
94.914	13.811	1337.850	1022.560
95.928	13.727	1337.104	1021.385
96.943	13.668	1336.682	1020.612
97.957	13.720	1335.508	1019.940
98.972	13.619	1334.245	1018.266
99.987	13.583	1333.393	1017.306
101.001	13.620	1332.422	1016.705
102.016	13.712	1331.255	1016.282
103.030	13.615	1330.398	1014.948
104.045	13.656	1329.561	1014.472
105.060	13.683	1328.351	1013.620
106.074	13.678	1326.796	1012.317
107.089	13.583	1325.527	1010.680
108.103	13.543	1324.699	1009.715
109.118	13.496	1323.132	1008.141
110.133	13.543	1321.595	1007.170
111.147	13.508	1320.289	1005.874
112.162	13.493	1319.192	1004.855
113.176	13.514	1318.374	1004.270
114.191	13.554	1317.321	1003.624
115.206	13.624	1315.772	1002.776
116.220	13.618	1314.656	1001.802
117.235	13.549	1313.437	1000.369
118.249	13.589	1312.838	1000.064
119.264	13.599	1311.499	999.013
120.279	13.653	1310.540	998.522
121.293	13.638	1309.388	997.467
122.308	13.459	1308.859	995.898
123.322	13.582	1307.283	995.352
124.337	13.567	1306.182	994.331
125.352	13.579	1305.137	993.522
126.366	13.566	1304.080	992.551
127.381	13.506	1303.100	991.358
128.395	13.562	1301.594	990.460
129.410	13.623	1300.583	989.967
130.424	13.568	1299.956	989.075
131.439	13.643	1298.951	988.668
132.454	13.677	1297.610	987.767
133.468	13.692	1296.750	987.113
134.483	13.615	1296.389	986.291
135.497	13.700	1295.171	985.781
136.512	13.639	1293.368	983.958
137.527	13.630	1292.452	983.122
138.541	13.682	1291.149	982.351
139.556	13.736	1289.807	981.566
140.570	13.689	1288.643	980.315
141.585	13.818	1287.326	979.991
142.600	13.702	1286.193	978.352
143.614	13.740	1285.245	977.774
144.629	13.846	1284.116	977.451
145.643	13.734	1283.129	975.954
146.658	13.782	1281.546	974.944
147.673	13.810	1280.211	974.006
148.687	13.747	1279.514	973.018
149.702	13.660	1277.936	971.223
150.716	13.596	1276.624	969.766
151.731	13.737	1275.107	969.354
152.746	13.798	1273.923	968.725
153.760	13.719	1273.139	967.583
154.775	13.707	1271.929	966.508
155.789	13.825	1270.784	966.237
156.804	13.760	1269.719	964.966
157.819	13.851	1268.480	964.464
158.833	13.874	1267.698	963.920
159.848	13.936	1266.818	963.525
160.862	13.835	1265.847	962.115
161.877	13.851	1264.552	961.137
162.892	13.653	1263.741	959.294
163.906	13.832	1262.490	959.294
164.921	13.785	1261.571	958.236
165.935	13.815	1260.991	957.884
166.950	13.770	1260.225	956.956
167.964	13.804	1259.684	956.660
168.979	13.923	1258.650	956.477
169.994	13.914	1258.064	955.896
171.008	13.872	1256.926	954.703
172.023	13.972	1255.827	954.359
173.037	13.948	1255.466	953.859
174.052	13.864	1254.183	952.321
175.067	13.920	1253.105	951.741
176.081	13.920	1252.346	951.080
177.096	13.905	1251.155	950.006
178.110	13.928	1249.805	949.027
179.125	13.996	1248.872	948.622
180.140	14.015	1247.674	947.734
181.154	13.933	1246.359	946.185
182.169	14.081	1244.965	945.886
183.183	14.061	1244.090	945.023
184.198	14.027	1242.721	943.709
185.213	14.028	1241.835	942.957
186.227	14.122	1240.540	942.425
187.242	14.088	1239.602	941.433
188.256	14.142	1238.667	940.945
189.271	14.125	1237.595	939.951
190.286	14.175	1236.316	939.178
191.300	14.041	1235.538	937.749
192.315	14.049	1234.695	937.071
193.329	13.997	1234.576	936.607
194.344	14.043	1233.617	936.053
195.359	14.081	1232.920	935.656
196.373	14.043	1232.625	935.136
197.388	14.116	1231.608	934.694
198.402	14.187	1231.111	934.630
199.417	14.349	1230.176	934.749
200.432	14.232	1229.350	933.379
201.446	14.357	1228.498	933.352
202.461	14.338	1227.703	932.562
203.475	14.355	1226.577	931.716
204.490	14.362	1225.285	930.691
205.504	14.352	1224.099	929.652
206.519	14.363	1222.907	928.729
207.534	14.303	1221.339	927.121
208.548	14.359	1220.819	926.955
209.563	14.286	1220.177	925.980
210.577	14.403	1218.881	925.562
211.592	14.497	1218.152	925.452
212.607	14.425	1217.461	924.442
213.621	14.412	1216.840	923.821
214.636	14.507	1215.299	923.096
215.650	14.456	1214.691	922.270
216.665	14.572	1213.674	922.052
217.680	14.556	1212.948	921.332
218.694	14.509	1212.271	920.478
219.709	14.583	1211.257	920.034
220.723	14.569	1210.468	919.277
221.738	14.495	1209.521	918.068
222.753	14.596	1208.541	917.799
223.767	14.595	1208.105	917.382
224.782	14.604	1207.293	916.735
225.796	14.502	1207.523	916.265
226.811	14.648	1206.137	915.934
227.826	14.664	1205.592	915.526
228.840	14.649	1204.576	914.592
229.855	14.609	1204.451	914.199
230.869	14.649	1203.384	913.527
231.884	14.636	1202.626	912.797
232.899	14.657	1201.049	911.635
233.913	14.686	1200.825	911.545
234.928	14.628	1200.452	910.861
235.942	14.572	1199.405	909.681
236.957	14.618	1198.669	909.295
237.972	14.566	1197.892	908.342
238.986	14.737	1196.917	908.452
240.001	14.717	1196.221	907.735
241.015	14.681	1195.380	906.820
242.030	14.769	1194.573	906.608
243.045	14.815	1193.825	906.206
244.059	14.795	1192.934	905.343
245.074	14.820	1191.952	904.653
246.088	14.833	1191.378	904.208
247.103	14.891	1190.431	903.720
248.117	14.853	1190.053	903.151
249.132	14.902	1189.276	902.747
250.147	15.016	1188.500	902.692
251.161	15.127	1187.287	902.286
252.176	15.049	1186.711	901.349
253.190	15.100	1186.558	901.426
254.205	15.134	1185.676	900.864
255.220	15.119	1185.129	900.285
256.234	15.141	1184.735	900.027
257.249	15.249	1183.681	899.724
258.263	15.088	1183.142	898.369
259.278	15.191	1182.142	898.084
260.293	15.276	1181.808	898.206
261.307	15.209	1181.546	897.570
262.322	15.301	1180.502	897.190
263.336	15.248	1180.113	896.531
264.351	15.212	1179.235	895.592
265.366	15.214	1178.570	895.017
266.380	15.421	1177.745	895.418
267.395	15.276	1177.134	894.098
268.409	15.355	1176.059	893.624
269.424	15.316	1175.783	893.128
270.439	15.261	1175.533	892.567
271.453	15.254	1174.598	891.741
272.468	15.303	1173.166	890.837
273.482	15.261	1172.736	890.204
274.497	15.280	1172.456	890.016
275.512	15.347	1171.598	889.641
276.526	15.467	1170.201	889.139
277.541	15.479	1169.507	888.596
278.555	15.389	1169.237	887.833
279.570	15.424	1168.371	887.282
280.585	15.471	1167.170	886.543
281.599	15.523	1166.461	886.197
282.614	15.578	1165.053	885.341
283.628	15.495	1164.175	884.161
284.643	15.440	1163.521	883.296
285.657	15.440	1162.422	882.383
286.672	15.597	1161.394	882.346
287.687	15.513	1160.388	881.065
288.701	15.641	1159.470	880.962
289.716	15.667	1158.808	880.515
290.730	15.674	1158.033	879.888
291.745	15.642	1157.412	879.169
292.760	15.639	1156.702	878.535
293.774	15.750	1156.004	878.506
294.789	15.728	1155.519	877.946
295.803	15.828	1154.549	877.653
296.818	15.639	1154.264	876.374
297.833	15.633	1153.501	875.688
298.847	15.678	1152.707	875.242
299.862	15.689	1151.872	874.588
300.876	15.847	1151.120	874.758
301.891	15.816	1150.226	873.843
302.906	15.759	1149.801	873.143
303.920	15.900	1148.893	873.108
304.935	15.852	1148.831	872.733
305.949	15.923	1147.345	871.899
306.964	15.985	1146.625	871.596
307.979	15.978	1145.998	871.004
308.993	15.973	1145.328	870.392
310.008	16.016	1144.494	869.902
311.022	15.967	1143.850	869.085
312.037	16.009	1142.443	868.156
313.052	15.876	1141.773	866.885
314.066	16.054	1140.534	866.780
315.081	15.983	1139.943	865.889
316.095	16.010	1139.621	865.706
317.110	15.922	1138.679	864.467
318.125	16.088	1137.777	864.556
319.139	15.974	1137.094	863.377
320.154	15.930	1136.399	862.545
321.168	15.943	1136.035	862.260
322.183	16.066	1135.337	862.281
323.197	16.018	1134.963	861.675
324.212	16.032	1134.179	861.078
325.227	16.034	1133.845	860.755
326.241	16.030	1132.855	859.909
327.256	16.149	1131.849	859.675
328.270	16.110	1130.806	858.608
329.285	16.168	1129.604	857.914
330.300	16.150	1129.200	857.442
331.314	16.101	1128.286	856.421
332.329	16.125	1127.128	855.591
333.343	16.225	1126.034	855.192
334.358	16.212	1125.947	854.985
335.373	16.179	1124.973	853.999
336.387	16.337	1123.896	853.904
337.402	16.298	1123.450	853.294
338.416	16.249	1122.834	852.505
339.431	16.364	1121.758	852.193
340.446	16.265	1121.051	851.080
341.460	16.269	1120.537	850.632
342.475	16.379	1119.614	850.413
343.489	16.379	1118.526	849.510
344.504	16.375	1117.635	848.739
345.519	16.443	1117.140	848.629
346.533	16.513	1115.997	848.035
347.548	16.527	1115.504	847.658
348.562	16.525	1114.681	846.946
349.577	16.449	1113.809	845.830
350.592	16.507	1112.836	845.303
351.606	16.375	1112.494	844.312
352.621	16.464	1111.506	843.933
353.635	16.523	1110.853	843.654
354.650	16.453	1110.121	842.677
355.665	16.521	1110.011	842.857
356.679	16.534	1108.984	842.068
357.694	16.516	1108.417	841.472
358.708	16.615	1107.576	841.250
359.723	16.535	1107.104	840.423
360.738	16.566	1106.246	839.847
361.752	16.577	1105.983	839.630
362.767	16.683	1105.143	839.444
363.781	16.598	1104.684	838.598
364.796	16.682	1104.024	838.440
365.810	16.727	1102.978	837.792
366.825	16.697	1102.960	837.557
367.840	16.841	1102.263	837.667
368.854	16.890	1101.377	837.158
369.869	16.844	1100.642	836.302
370.883	16.757	1099.992	835.306
371.898	16.850	1098.856	834.823
372.913	16.871	1098.049	834.241
373.927	16.951	1097.721	834.314
374.942	17.025	1097.318	834.297
375.956	17.040	1096.809	833.907
376.971	16.900	1096.507	832.916
377.986	17.007	1095.532	832.626
379.000	17.007	1094.891	832.065
380.015	17.071	1094.465	831.983
381.029	17.057	1093.623	831.203
382.044	17.098	1093.161	830.976
383.059	17.089	1092.520	830.372
384.073	17.129	1091.755	829.916
385.088	17.129	1090.533	828.909
386.102	16.997	1089.721	827.577
387.117	17.119	1088.735	827.350
388.132	17.132	1087.871	826.682
389.146	17.175	1086.781	825.988
390.161	17.106	1086.003	824.992
391.175	17.155	1085.580	824.833
392.190	17.054	1085.296	824.056
393.205	17.152	1084.239	823.657
394.219	17.104	1083.259	822.607
395.234	17.092	1082.450	821.859
396.248	17.101	1081.544	821.142
397.263	17.088	1080.516	820.229
398.278	17.160	1079.781	819.942
399.292	17.143	1078.602	818.894
400.307	17.182	1078.173	818.682
401.321	17.105	1077.615	817.815
402.336	17.278	1076.551	817.771
403.350	17.181	1076.205	816.966
404.365	17.190	1075.805	816.636
405.380	17.226	1075.129	816.223
406.394	17.387	1074.134	816.167
407.409	17.342	1072.969	814.994
408.423	17.462	1072.375	815.047
409.438	17.425	1072.028	814.536
410.453	17.427	1071.309	813.925
411.467	17.603	1069.809	813.552
412.482	17.449	1069.984	812.880
413.496	17.521	1069.006	812.409
414.511	17.638	1068.345	812.390
415.526	17.520	1068.197	811.644
416.540	17.587	1067.207	811.142
417.555	17.552	1067.156	810.863
418.569	17.609	1066.410	810.496
419.584	17.722	1065.485	810.255
420.599	17.670	1065.170	809.700
421.613	89.762	1302.366	1389.322
422.628	82.987	1336.930	1389.453
