DTS Sentinel unit serial number:	SN413079Multiplexer serial number:	ORYXHardware model number:	OX4-SRSoftware version number:	ORYX F/W v4.00 Oryx Data Collector v3.7.2.0data status	okinstallation	princeton_trtdifferential loss correction	single-endedforward channel	channel 2reverse channel	N/Adate	2019/09/12time	01:37:11forward acquisition time	60.00reverse acquisition time	0.00gamma	496.2192k internal	0.2326k external	0.2326temperature offset calibration	1.0089default loss term (dB/km)	0.3790temperature slope calibration	1.0000multiplexer offset coefficient	1.0000multiplexer slope coefficient	1.0000fibre end	0.00T internal ref (°C)	32.87T ext. ref 1 (°C)	2.07T ext. ref 2 (°C)	27.49length (m)	temperature (°C)	Stokes	anti-Stokes-747.200	-200.000	0.023	0.297
-746.185	184.249	-0.173	0.258
-745.171	-110.233	0.118	0.025
-744.156	562.168	-0.112	0.275
-743.142	-200.000	-0.046	0.522
-742.127	157.185	-0.239	0.334
-741.112	-115.147	0.194	0.037
-740.098	72.246	-0.106	0.111
-739.083	-200.000	0.023	0.178
-738.069	-74.154	0.271	0.099
-737.054	35.995	-0.098	0.087
-736.039	-101.881	0.152	0.037
-735.025	-200.000	-0.053	0.275
-734.010	-194.097	-0.309	-0.003
-732.996	-200.000	0.028	-0.230
-731.981	33.016	-0.083	-0.072
-730.966	67.430	-0.208	0.214
-729.952	97.672	0.111	-0.129
-728.937	107.673	-0.204	0.244
-727.923	-149.671	0.120	-0.010
-726.908	142.034	-0.216	-0.289
-725.894	-29.850	-0.259	-0.149
-724.879	-76.470	-0.263	-0.093
-723.864	-200.000	0.003	-0.142
-722.850	115.399	-0.169	-0.208
-721.835	-200.000	-0.038	-0.215
-720.821	800.000	0.055	-0.238
-719.806	-81.432	-0.292	-0.097
-718.791	800.000	-0.085	0.336
-717.777	247.030	0.049	-0.083
-716.762	800.000	0.078	0.331
-715.748	-141.178	0.244	0.025
-714.733	439.784	0.044	0.096
-713.718	251.682	0.194	0.333
-712.704	-112.667	0.027	0.005
-711.689	121.532	-0.159	0.199
-710.675	-200.000	-0.025	0.235
-709.660	408.100	0.088	-0.188
-708.645	109.799	0.068	-0.082
-707.631	800.000	-0.033	-0.116
-706.616	800.000	-0.102	0.323
-705.602	-22.791	-0.167	-0.101
-704.587	307.068	0.125	0.234
-703.572	254.459	0.077	0.132
-702.558	-111.820	0.125	0.025
-701.543	-16.675	-0.123	-0.078
-700.529	-200.000	0.013	-0.143
-699.514	-200.000	0.023	-0.193
-698.499	1.686	0.180	-0.130
-697.485	127.971	-0.269	-0.345
-696.470	-200.000	-0.005	0.190
-695.456	71.259	0.194	-0.202
-694.441	107.378	-0.075	-0.090
-693.426	-184.337	0.137	-0.002
-692.412	-75.584	0.321	0.115
-691.397	-47.898	0.163	-0.079
-690.383	-60.241	-0.087	0.037
-689.368	-173.483	0.141	0.004
-688.354	-200.000	0.028	0.171
-687.339	475.936	-0.069	-0.158
-686.324	443.578	0.016	0.035
-685.310	72.591	-0.120	0.126
-684.295	28.450	-0.185	-0.157
-683.281	-98.654	-0.454	-0.116
-682.266	46.697	-0.361	-0.338
-681.251	800.000	0.037	0.147
-680.237	-53.212	-0.202	-0.093
-679.222	51.716	-0.057	-0.054
-678.208	-119.078	-0.051	0.009
-677.193	-200.000	-0.006	0.098
-676.178	-125.551	0.326	-0.050
-675.164	389.554	0.064	-0.133
-674.149	14.632	0.336	-0.264
-673.135	-112.574	0.231	-0.046
-672.120	-32.401	-0.072	-0.040
-671.105	-200.000	-0.022	-0.223
-670.091	-44.820	0.179	-0.090
-669.076	-134.512	-0.274	-0.034
-668.062	-200.000	-0.005	-0.059
-667.047	122.015	-0.035	-0.044
-666.032	315.146	0.134	-0.253
-665.018	800.000	0.045	-0.147
-664.003	172.012	-0.059	0.085
-662.989	109.426	0.103	-0.124
-661.974	65.497	0.070	0.071
-660.959	216.561	-0.157	-0.251
-659.945	-149.754	-0.138	0.011
-658.930	800.000	0.044	-0.128
-657.916	-200.000	0.011	-0.258
-656.901	800.000	0.058	-0.176
-655.886	102.614	0.183	0.215
-654.872	6.791	-0.195	0.146
-653.857	800.000	0.043	0.158
-652.843	382.003	-0.096	-0.198
-651.828	22.496	-0.315	0.259
-650.814	-163.981	0.196	0.009
-649.799	-62.639	-0.070	-0.029
-648.784	-74.850	-0.345	-0.124
-647.770	148.727	-0.052	-0.071
-646.755	-3.692	-0.263	-0.184
-645.741	-59.549	-0.230	0.099
-644.726	-200.000	-0.035	-0.166
-643.711	800.000	-0.102	-0.283
-642.697	-74.878	-0.231	-0.083
-641.682	573.921	0.034	0.084
-640.668	146.311	-0.147	-0.198
-639.653	-121.369	0.097	0.016
-638.638	151.946	-0.200	-0.274
-637.624	-200.000	0.006	0.103
-636.609	102.656	-0.124	0.145
-635.595	-70.952	-0.220	-0.083
-634.580	127.154	0.113	-0.143
-633.565	233.979	0.029	0.048
-632.551	-47.065	0.104	-0.051
-631.536	91.275	0.312	0.352
-630.522	-191.424	-0.449	0.005
-629.507	-200.000	-0.007	-0.060
-628.492	647.611	0.084	0.215
-627.478	-200.000	0.008	0.274
-626.463	800.000	-0.033	0.126
-625.449	11.933	-0.206	-0.159
-624.434	76.812	0.158	-0.169
-623.419	-91.395	-0.479	0.137
-622.405	-87.201	-0.383	-0.117
-621.390	599.562	0.049	0.122
-620.376	800.000	-0.132	-0.467
-619.361	6.538	-0.166	-0.124
-618.346	54.869	0.104	0.100
-617.332	405.348	0.122	-0.259
-616.317	800.000	-0.080	0.318
-615.303	19.214	0.153	0.123
-614.288	-115.061	0.271	-0.052
-613.273	-43.174	0.186	-0.095
-612.259	53.912	0.234	-0.226
-611.244	143.412	0.178	-0.237
-610.230	-159.232	-0.243	-0.014
-609.215	335.912	-0.190	0.369
-608.201	482.493	0.100	-0.228
-607.186	207.698	0.287	0.449
-606.171	-56.117	0.056	0.025
-605.157	82.646	0.118	0.129
-604.142	74.544	0.021	-0.022
-603.128	-200.000	0.037	-0.290
-602.113	85.472	0.212	0.234
-601.098	800.000	0.117	0.386
-600.084	-12.371	0.114	0.074
-599.069	-96.714	0.247	0.065
-598.055	4.833	-0.126	-0.093
-597.040	-131.717	-0.172	-0.023
-596.025	223.829	-0.098	0.158
-595.011	-200.000	-0.052	0.231
-593.996	-72.326	-0.375	0.139
-592.982	-124.216	0.047	-0.007
-591.967	-200.000	0.003	-0.025
-590.952	-200.000	0.059	0.312
-589.938	-50.499	-0.124	-0.059
-588.923	312.299	0.086	0.161
-587.909	354.950	0.213	0.426
-586.894	-29.492	-0.210	0.120
-585.879	-18.993	0.046	-0.029
-584.865	800.000	-0.096	-0.265
-583.850	-83.247	-0.209	-0.067
-582.836	-200.000	-0.023	0.283
-581.821	-200.000	0.022	-0.233
-580.806	262.300	0.130	-0.226
-579.792	-200.000	0.010	-0.375
-578.777	800.000	-0.076	0.287
-577.763	-200.000	-0.021	0.159
-576.748	190.786	-0.212	-0.320
-575.733	97.462	-0.026	-0.030
-574.719	38.735	-0.089	0.080
-573.704	-140.160	-0.300	-0.032
-572.690	800.000	0.019	-0.074
-571.675	-145.673	-0.289	-0.026
-570.661	-69.067	-0.114	-0.044
-569.646	-19.999	-0.214	-0.132
-568.631	-12.816	-0.341	0.223
-567.617	-56.978	0.413	0.182
-566.602	56.587	0.115	-0.112
-565.588	146.829	0.199	0.268
-564.573	-42.643	0.149	-0.076
-563.558	800.000	0.107	-0.319
-562.544	-117.041	0.187	-0.034
-561.529	-80.990	-0.214	-0.071
-560.515	223.456	-0.091	-0.147
-559.500	-200.000	-0.017	-0.294
-558.485	-167.041	0.082	0.003
-557.471	-90.570	0.268	-0.078
-556.456	-75.821	-0.258	-0.092
-555.442	459.798	0.091	-0.203
-554.427	800.000	-0.069	0.300
-553.412	340.315	-0.104	0.204
-552.398	-200.000	-0.013	-0.240
-551.383	-64.090	0.093	0.038
-550.369	61.969	0.182	0.181
-549.354	-25.439	-0.026	0.015
-548.339	-112.762	0.094	-0.019
-547.325	-200.000	-0.005	0.136
-546.310	-62.065	-0.273	0.114
-545.296	-92.718	-0.146	0.041
-544.281	-134.344	-0.061	-0.007
-543.266	-94.242	-0.127	-0.035
-542.252	356.477	0.070	0.139
-541.237	-200.000	0.007	0.169
-540.223	-6.647	-0.118	-0.080
-539.208	-79.698	-0.172	0.058
-538.193	-65.405	0.106	0.043
-537.179	129.942	-0.079	-0.101
-536.164	-43.626	-0.116	0.059
-535.150	-115.463	-0.203	0.038
-534.135	800.000	0.088	-0.310
-533.121	71.126	0.103	-0.107
-532.106	78.878	-0.060	-0.065
-531.091	90.724	-0.167	-0.187
-530.077	113.883	0.045	-0.055
-529.062	800.000	-0.094	-0.306
-528.048	296.344	0.123	-0.226
-527.033	-63.307	0.179	-0.074
-526.018	-200.000	-0.009	-0.491
-525.004	62.141	-0.116	0.116
-523.989	113.886	0.202	0.245
-522.975	-58.600	0.180	-0.078
-521.960	-184.474	-0.279	0.005
-520.945	277.996	0.110	-0.196
-519.931	-12.525	-0.476	-0.311
-518.916	439.444	0.027	-0.059
-517.902	367.146	0.050	0.100
-516.887	559.764	0.063	-0.152
-515.872	-200.000	0.074	-0.348
-514.858	670.642	-0.049	-0.126
-513.843	-67.779	-0.089	0.035
-512.829	654.377	-0.104	0.266
-511.814	800.000	-0.015	0.057
-510.799	24.879	0.297	0.246
-509.785	337.384	-0.154	-0.299
-508.770	126.104	-0.143	0.181
-507.756	78.116	0.267	0.285
-506.741	211.558	-0.076	-0.119
-505.726	-124.035	-0.170	0.027
-504.712	203.960	0.052	0.080
-503.697	90.524	-0.070	0.078
-502.683	-28.873	0.049	0.028
-501.668	367.925	-0.077	0.156
-500.653	83.617	0.220	0.239
-499.639	-176.332	-0.283	0.007
-498.624	-103.903	0.119	-0.028
-497.610	800.000	0.063	0.178
-496.595	14.703	0.145	0.114
-495.581	39.552	-0.186	-0.167
-494.566	8.233	-0.205	-0.154
-493.551	-200.000	0.014	-0.134
-492.537	-117.096	0.131	-0.024
-491.522	-64.111	0.216	-0.088
-490.508	450.033	0.036	0.080
-489.493	-123.442	0.190	-0.030
-488.478	-101.457	-0.068	-0.017
-487.464	-82.609	-0.215	0.070
-486.449	-200.000	-0.007	-0.144
-485.435	-97.282	-0.054	0.014
-484.420	-22.252	0.237	0.144
-483.405	136.464	-0.423	-0.551
-482.391	-200.000	-0.023	0.230
-481.376	406.246	-0.055	-0.116
-480.362	-200.000	0.022	-0.158
-479.347	-200.000	-0.008	-0.335
-478.332	-4.480	0.152	0.105
-477.318	-150.363	-0.351	-0.027
-476.303	407.825	-0.061	0.129
-475.289	-41.322	-0.570	-0.293
-474.274	800.000	-0.059	-0.203
-473.259	16.540	0.114	-0.090
-472.245	195.512	-0.178	0.270
-471.230	173.980	0.042	0.061
-470.216	-69.226	-0.105	0.040
-469.201	81.165	-0.156	0.168
-468.186	577.631	-0.109	-0.265
-467.172	-130.638	0.147	0.020
-466.157	124.551	-0.215	0.270
-465.143	-29.150	0.215	-0.123
-464.128	-38.323	0.136	0.072
-463.113	79.169	-0.232	-0.248
-462.099	113.910	0.275	-0.333
-461.084	800.000	0.085	0.301
-460.070	-200.000	-0.018	-0.111
-459.055	-200.000	0.010	-0.204
-458.040	-68.153	-0.041	-0.016
-457.026	42.521	-0.204	-0.186
-456.011	-33.465	-0.033	0.018
-454.997	-123.600	0.300	-0.047
-453.982	-4.228	-0.170	-0.117
-452.968	528.758	0.023	0.054
-451.953	-15.447	-0.089	0.057
-450.938	-113.075	-0.231	-0.046
-449.924	-200.000	0.014	0.151
-448.909	130.322	-0.035	-0.045
-447.895	-79.924	-0.211	-0.071
-446.880	-200.000	0.005	-0.077
-445.865	-111.649	0.429	-0.087
-444.851	-200.000	0.023	-0.342
-443.836	363.719	-0.109	-0.219
-442.822	217.533	0.067	-0.107
-441.807	-200.000	0.018	0.310
-440.792	-134.982	0.294	-0.035
-439.778	800.000	0.130	0.361
-438.763	550.261	0.220	0.525
-437.749	118.709	0.113	-0.139
-436.734	-47.746	-0.260	-0.126
-435.719	45.462	0.127	0.117
-434.705	72.200	0.099	-0.103
-433.690	593.069	0.039	0.095
-432.676	-113.954	-0.194	0.037
-431.661	-104.565	0.134	-0.031
-430.646	77.857	0.147	0.156
-429.632	-83.533	0.171	0.055
-428.617	-48.371	0.355	-0.170
-427.603	252.749	-0.040	0.068
-426.588	-200.000	0.023	-0.249
-425.573	800.000	-0.070	-0.292
-424.559	-54.665	0.256	0.115
-423.544	-108.107	0.219	0.047
-422.530	-186.088	-0.391	-0.006
-421.515	37.814	-0.210	0.186
-420.500	-44.520	-0.270	-0.134
-419.486	123.336	-0.145	0.181
-418.471	-166.697	0.070	-0.003
-417.457	-43.886	0.293	-0.147
-416.442	-83.158	0.379	0.121
-415.428	-27.580	-0.059	0.034
-414.413	-145.466	0.034	0.003
-413.398	-78.613	0.047	0.016
-412.384	-87.626	0.054	0.016
-411.369	16.726	0.284	-0.224
-410.355	-7.086	0.061	0.041
-409.340	-127.751	-0.108	0.016
-408.325	-200.000	-0.059	0.383
-407.311	-200.000	0.007	-0.167
-406.296	113.966	0.244	0.295
-405.282	17.411	0.036	-0.028
-404.267	23.576	0.029	0.024
-403.252	62.518	-0.063	-0.063
-402.238	800.000	0.055	-0.179
-401.223	158.024	0.152	0.210
-400.209	163.717	-0.225	-0.315
-399.194	163.370	0.120	-0.169
-398.179	-67.993	-0.205	-0.080
-397.165	-8.511	0.051	-0.034
-396.150	98.379	0.106	0.121
-395.136	138.896	-0.106	0.139
-394.121	-49.108	0.053	-0.025
-393.106	45.560	-0.328	-0.302
-392.092	117.332	-0.244	-0.298
-391.077	-44.242	0.184	-0.092
-390.063	248.634	-0.078	0.131
-389.048	-84.617	0.432	-0.135
-388.033	-103.038	0.285	0.067
-387.019	-37.577	-0.127	-0.067
-386.004	-200.000	-0.051	0.424
-384.990	-11.381	-0.327	0.214
-383.975	166.814	-0.070	-0.099
-382.960	-140.413	0.297	0.031
-381.946	71.662	-0.150	0.155
-380.931	800.000	-0.057	0.166
-379.917	-23.047	0.108	0.065
-378.902	-105.501	0.389	0.088
-377.888	16.997	0.216	-0.170
-376.873	76.878	-0.121	0.127
-375.858	-57.361	0.164	0.072
-374.844	-200.000	0.024	0.151
-373.829	-136.962	0.088	-0.010
-372.815	-200.000	-0.035	0.258
-371.800	20.225	-0.125	-0.100
-370.785	418.133	-0.014	-0.030
-369.771	800.000	-0.061	0.207
-368.756	97.296	-0.113	0.129
-367.742	34.858	-0.110	0.095
-366.727	800.000	-0.035	0.147
-365.712	31.251	0.268	0.228
-364.698	-200.000	0.024	0.143
-363.683	337.023	-0.052	-0.100
-362.669	43.299	0.085	0.077
-361.654	-200.000	0.002	0.085
-360.639	39.058	-0.089	0.079
-359.625	800.000	0.120	0.386
-358.610	-200.000	0.028	0.280
-357.596	529.572	-0.140	-0.329
-356.581	-200.000	-0.048	-0.237
-355.566	-11.411	-0.301	-0.197
-354.552	-200.000	-0.020	0.121
-353.537	-148.815	-0.230	0.018
-352.523	-200.000	-0.029	0.146
-351.508	-85.485	0.092	0.028
-350.493	-163.037	-0.338	-0.016
-349.479	800.000	0.070	-0.292
-348.464	-28.084	0.193	-0.111
-347.450	77.508	-0.267	-0.282
-346.435	-200.000	-0.055	0.335
-345.420	-73.655	-0.047	0.017
-344.406	-2.662	-0.224	-0.156
-343.391	-200.000	-0.021	-0.140
-342.377	60.436	0.080	-0.078
-341.362	650.220	-0.007	-0.017
-340.348	752.702	0.077	0.206
-339.333	-86.902	0.117	0.035
-338.318	800.000	0.099	-0.364
-337.304	-88.639	0.244	0.072
-336.289	800.000	0.034	0.114
-335.275	-102.533	0.009	0.002
-334.260	800.000	-0.062	-0.184
-333.245	138.760	-0.085	0.111
-332.231	39.277	-0.283	0.252
-331.216	-25.384	0.278	-0.163
-330.202	800.000	0.031	-0.121
-329.187	25.287	-0.003	0.002
-328.172	392.833	0.169	0.348
-327.158	-200.000	0.016	0.349
-326.143	16.140	-0.034	-0.026
-325.129	-89.904	-0.120	-0.035
-324.114	-98.659	-0.066	-0.017
-323.099	25.889	0.133	-0.110
-322.085	-51.855	-0.264	-0.122
-321.070	-200.000	-0.016	0.376
-320.056	-62.642	-0.203	0.084
-319.041	-43.915	0.156	0.078
-318.026	-185.481	-0.223	0.003
-317.012	69.088	-0.178	-0.182
-315.997	262.611	0.148	-0.255
-314.983	800.000	0.030	-0.095
-313.968	40.987	-0.277	0.248
-312.953	-200.000	-0.030	0.361
-311.939	38.355	0.242	0.214
-310.924	12.091	0.198	-0.151
-309.910	800.000	-0.029	0.110
-308.895	-21.918	0.331	0.200
-307.880	-111.386	-0.388	-0.078
-306.866	87.140	0.133	-0.146
-305.851	-200.000	0.001	-0.021
-304.837	114.090	0.154	-0.185
-303.822	-43.403	0.145	-0.073
-302.807	313.431	-0.026	0.049
-301.793	-28.711	-0.147	0.084
-300.778	800.000	0.056	-0.164
-299.764	-77.229	0.130	0.045
-298.749	532.788	-0.103	-0.241
-297.735	72.212	-0.131	-0.136
-296.720	-1.749	-0.239	0.167
-295.705	-101.103	-0.285	-0.069
-294.691	-124.508	-0.281	-0.043
-293.676	-200.000	-0.041	-0.274
-292.662	21.202	0.108	0.087
-291.647	66.722	0.129	0.130
-290.632	33.841	0.282	-0.244
-289.618	-82.930	0.177	-0.056
-288.603	58.616	-0.205	0.199
-287.589	-17.552	-0.249	0.155
-286.574	-200.000	-0.032	-0.501
-285.559	-20.520	0.070	-0.043
-284.545	158.383	-0.144	-0.198
-283.530	75.050	0.238	0.248
-282.516	628.351	0.092	0.230
-281.501	-200.000	-0.003	0.152
-280.486	-110.848	-0.158	-0.032
-279.472	-46.324	-0.346	0.169
-278.457	184.007	0.130	0.190
-277.443	498.319	-0.045	-0.102
-276.428	-59.476	0.105	-0.045
-275.413	800.000	0.039	0.129
-274.399	-118.109	-0.287	0.051
-273.384	41.503	0.184	0.165
-272.370	24.186	-0.294	0.240
-271.355	539.291	-0.054	-0.128
-270.340	-81.615	0.347	0.113
-269.326	115.665	-0.047	0.056
-268.311	-148.871	-0.057	-0.005
-267.297	103.713	0.071	0.083
-266.282	23.678	-0.153	0.125
-265.267	-63.788	0.107	-0.043
-264.253	21.440	0.121	0.098
-263.238	66.684	-0.118	-0.118
-262.224	-200.000	0.435	0.001
-261.209	-80.590	0.303	-0.100
-260.195	-200.000	0.003	-0.044
-259.180	131.412	0.253	0.322
-258.165	-97.293	0.092	0.024
-257.151	-200.000	-0.000	0.082
-256.136	-41.307	-0.349	-0.178
-255.122	-133.234	0.308	-0.038
-254.107	-200.000	-0.025	-0.111
-253.092	73.704	-0.107	-0.111
-252.078	748.943	0.172	0.458
-251.063	12.989	0.103	0.079
-250.049	-94.392	0.299	-0.081
-249.034	-200.000	-0.008	-0.361
-248.019	193.330	0.170	-0.254
-247.005	-200.000	-0.002	-0.029
-245.990	-20.401	-0.173	-0.105
-244.976	157.194	0.088	-0.121
-243.961	105.533	-0.307	0.359
-242.946	800.000	0.126	0.349
-241.932	124.541	-0.170	-0.211
-240.917	191.265	-0.101	-0.150
-239.903	247.619	-0.071	0.118
-238.888	-144.683	-0.309	0.028
-237.873	278.695	0.123	0.218
-236.859	274.915	-0.081	-0.143
-235.844	11.010	-0.106	-0.080
-234.830	-200.000	-0.043	0.449
-233.815	800.000	0.047	0.192
-232.800	800.000	-0.085	-0.354
-231.786	65.460	0.311	-0.311
-230.771	-69.110	0.274	-0.104
-229.757	228.599	0.126	-0.204
-228.742	-45.937	0.368	-0.180
-227.727	-5.092	0.309	-0.210
-226.713	-80.377	0.205	0.068
-225.698	171.439	0.166	-0.235
-224.684	41.668	-0.179	-0.161
-223.669	-115.180	-0.226	-0.042
-222.655	290.768	0.065	0.117
-221.640	-200.000	-0.035	-0.308
-220.625	5.813	-0.161	0.118
-219.611	695.150	-0.073	0.189
-218.596	-41.074	-0.214	-0.109
-217.582	383.911	0.086	0.176
-216.567	16.695	0.026	0.020
-215.552	374.035	-0.118	-0.236
-214.538	-10.658	-0.372	0.243
-213.523	800.000	0.077	0.299
-212.509	-46.172	0.102	-0.050
-211.494	216.603	0.053	-0.084
-210.479	-91.964	0.064	0.018
-209.465	-69.828	-0.094	-0.035
-208.450	760.833	0.153	-0.411
-207.436	200.358	-0.208	-0.316
-206.421	800.000	0.038	-0.153
-205.406	800.000	-0.056	0.159
-204.392	-79.602	-0.347	0.116
-203.377	-151.613	0.337	-0.025
-202.363	64.120	-0.185	0.184
-201.348	53.659	-0.289	-0.274
-200.333	126.788	0.121	0.151
-199.319	-182.812	-0.146	0.003
-198.304	40.309	0.179	-0.159
-197.290	800.000	0.069	0.192
-196.275	128.285	0.229	-0.288
-195.260	16.614	0.086	-0.067
-194.246	-200.000	0.331	0.000
-193.231	800.000	-0.064	0.217
-192.217	3.909	-0.276	0.199
-191.202	291.152	0.200	0.359
-190.187	11.693	0.116	0.088
-189.173	800.000	-0.049	0.157
-188.158	-7.541	0.018	0.012
-187.144	3.364	0.146	0.105
-186.129	-85.176	0.165	0.051
-185.114	447.405	-0.083	0.180
-184.100	-200.000	0.039	0.350
-183.085	-23.470	0.497	0.295
-182.071	-200.000	0.059	0.287
-181.056	-31.611	0.101	-0.056
-180.042	-109.057	0.214	-0.045
-179.027	-191.681	0.174	-0.002
-178.012	65.300	0.213	-0.213
-176.998	800.000	0.055	-0.239
-175.983	83.026	0.206	-0.222
-174.969	-131.099	0.207	-0.027
-173.954	1.388	-0.436	-0.309
-172.939	800.000	0.025	-0.091
-171.925	800.000	0.008	-0.023
-170.910	800.000	0.052	0.143
-169.896	-28.230	-0.300	0.171
-168.881	-200.000	-0.003	0.092
-167.866	800.000	-0.047	-0.148
-166.852	-19.476	0.194	0.118
-165.837	-140.750	0.188	-0.019
-164.823	-89.274	0.151	-0.044
-163.808	-167.327	0.165	-0.007
-162.793	-200.000	0.054	-0.276
-161.779	110.148	0.121	-0.143
-160.764	-200.000	0.023	0.340
-159.750	317.196	0.099	0.185
-158.735	239.379	0.194	0.318
-157.720	-50.955	0.271	0.125
-156.706	320.726	0.063	0.118
-155.691	-116.683	0.205	-0.037
-154.677	232.008	-0.182	0.294
-153.662	75.882	-0.171	-0.179
-152.647	-7.230	-0.395	-0.264
-151.633	-106.466	0.257	-0.056
-150.618	83.140	-0.304	0.326
-149.604	18.299	-0.090	0.071
-148.589	-200.000	0.208	0.001
-147.574	-135.734	0.430	0.050
-146.560	31.430	0.206	-0.174
-145.545	39.176	-0.221	-0.195
-144.531	154.425	0.163	-0.220
-143.516	655.562	0.077	0.196
-142.502	-167.473	0.213	0.008
-141.487	-30.621	0.272	0.152
-140.472	-200.000	-0.001	-0.055
-139.458	-200.000	-0.066	0.431
-138.443	8.765	0.225	0.167
-137.429	-57.729	0.373	0.161
-136.414	-200.000	0.041	-0.277
-135.399	-200.000	-0.032	-0.233
-134.385	-200.000	0.017	-0.123
-133.370	27.680	-0.105	-0.087
-132.356	118.957	0.140	0.170
-131.341	-30.575	-0.106	-0.059
-130.326	259.950	-0.200	0.341
-129.312	-139.213	-0.284	0.030
-128.297	-142.808	-0.306	0.029
-127.283	627.665	-0.014	-0.036
-126.268	153.462	0.252	-0.339
-125.253	-23.572	-0.145	0.086
-124.239	-28.352	-0.105	0.059
-123.224	-58.740	-0.151	-0.064
-122.210	47.625	0.118	0.108
-121.195	-76.128	-0.260	0.090
-120.180	262.254	-0.113	0.192
-119.166	-200.000	0.004	0.042
-118.151	101.883	-0.187	0.214
-117.137	-163.944	0.381	0.017
-116.122	-86.661	-0.215	-0.065
-115.107	-0.101	-0.443	0.311
-114.093	-200.000	0.014	0.076
-113.078	-123.801	0.461	0.072
-112.064	-200.000	0.007	-0.070
-111.049	-65.653	0.093	0.037
-110.034	187.712	-0.205	0.301
-109.020	-68.739	-0.187	-0.071
-108.005	245.204	0.218	-0.361
-106.991	-157.910	0.324	0.019
-105.976	-131.476	-0.192	-0.025
-104.962	800.000	0.059	0.211
-103.947	-82.788	-0.134	-0.043
-102.932	38.609	0.059	0.052
-101.918	-41.766	0.214	0.108
-100.903	800.000	-0.058	-0.190
-99.889	-200.000	-0.001	-0.076
-98.874	43.958	0.055	0.050
-97.859	44.696	-0.248	-0.224
-96.845	-35.278	0.199	0.106
-95.830	800.000	0.036	0.114
-94.816	-113.958	0.197	0.038
-93.801	-167.876	0.067	0.003
-92.786	-167.573	0.169	0.007
-91.772	51.762	0.071	-0.066
-90.757	117.738	0.177	-0.214
-89.743	441.743	-0.089	0.191
-88.728	83.533	-0.211	0.227
-87.713	-8.598	-0.276	-0.182
-86.699	10.176	-0.250	-0.187
-85.684	604.710	0.028	-0.069
-84.670	-30.037	-0.074	-0.041
-83.655	23.107	0.091	0.074
-82.640	800.000	-0.080	-0.230
-81.626	40.785	-0.216	0.192
-80.611	-178.685	-0.167	-0.004
-79.597	37.093	0.145	-0.126
-78.582	-67.923	0.110	0.042
-77.567	-116.860	0.063	0.011
-76.553	420.535	0.055	-0.117
-75.538	42.902	0.146	-0.131
-74.524	17.048	-0.038	0.029
-73.509	-46.692	0.060	-0.029
-72.494	-200.000	0.016	-0.086
-71.480	-5.240	0.232	0.157
-70.465	-200.000	-0.016	0.077
-69.451	461.304	-0.104	-0.229
-68.436	74.156	-0.022	-0.023
-67.422	-11.308	-0.272	-0.176
-66.407	-74.458	-0.244	-0.087
-65.392	-101.225	0.391	-0.094
-64.378	-68.385	0.202	-0.077
-63.363	50.338	-0.092	-0.085
-62.349	-200.000	-0.014	0.120
-61.334	76.013	-0.970	-1.008
-60.319	589.547	0.276	0.668
-59.305	-200.000	-0.050	-0.642
-58.290	88.021	0.815	0.888
-57.276	665.706	0.652	1.654
-56.261	-200.000	96.243	579.433
-55.246	563.622	1376.305	3272.511
-54.232	160.463	2558.678	3505.172
-53.217	106.437	2267.425	2639.201
-52.203	42.215	1892.860	1688.203
-51.188	36.149	1682.632	1455.045
-50.173	33.486	1638.543	1397.263
-49.159	50.999	1684.775	1567.889
-48.144	52.455	1701.702	1594.457
-47.130	35.770	1661.622	1433.826
-46.115	32.990	1647.396	1400.910
-45.100	32.901	1642.372	1395.918
-44.086	32.770	1639.712	1392.639
-43.071	32.799	1637.010	1390.502
-42.057	32.740	1634.929	1388.245
-41.042	32.801	1632.794	1386.823
-40.027	32.663	1631.242	1384.437
-39.013	32.835	1628.316	1383.158
-37.998	32.729	1627.509	1381.648
-36.984	32.713	1626.230	1380.388
-35.969	32.947	1624.407	1380.495
-34.954	32.931	1622.997	1379.124
-33.940	32.964	1621.085	1377.686
-32.925	32.874	1619.172	1375.353
-31.911	32.852	1617.674	1373.861
-30.896	32.806	1616.193	1372.216
-29.881	32.913	1614.035	1371.106
-28.867	32.858	1612.990	1369.765
-27.852	32.905	1610.683	1368.091
-26.838	32.916	1609.067	1366.744
-25.823	32.845	1608.272	1365.504
-24.809	32.951	1606.568	1364.770
-23.794	32.919	1605.464	1363.544
-22.779	32.877	1604.120	1362.043
-21.765	32.872	1602.237	1360.356
-20.750	32.915	1600.408	1359.062
-19.736	32.940	1599.152	1358.120
-18.721	32.957	1597.485	1356.774
-17.706	32.771	1597.009	1354.977
-16.692	32.930	1594.661	1354.072
-15.677	32.824	1593.766	1352.495
-14.663	32.912	1592.002	1351.574
-13.648	32.919	1590.885	1350.623
-12.633	32.841	1589.430	1348.776
-11.619	32.911	1587.325	1347.442
-10.604	32.897	1586.394	1346.494
-9.590	32.916	1585.216	1345.574
-8.575	32.906	1583.487	1343.986
-7.560	32.946	1582.567	1343.435
-6.546	32.875	1581.574	1342.034
-5.531	32.837	1580.222	1340.566
-4.517	32.843	1579.016	1339.531
-3.502	32.866	1578.066	1338.838
-2.487	33.011	1576.009	1338.066
-1.473	32.612	1564.450	1325.393
-0.458	29.984	1544.724	1290.341
0.556	26.973	1545.517	1260.683
1.571	24.838	1569.775	1265.278
2.586	24.489	1582.894	1273.251
3.600	21.803	1529.517	1211.672
4.615	12.504	1418.902	1064.045
5.629	3.785	1352.860	960.440
6.644	2.260	1344.257	944.826
7.659	2.015	1342.715	942.144
8.673	2.088	1341.485	941.650
9.688	1.907	1339.642	939.161
10.702	1.753	1336.430	935.874
11.717	5.392	1344.156	963.666
12.731	15.494	1363.653	1040.442
13.746	23.972	1377.329	1103.613
14.761	26.138	1380.431	1119.452
15.775	26.426	1380.204	1120.954
16.790	26.502	1379.745	1120.953
17.804	26.601	1379.190	1121.018
18.819	26.838	1378.968	1122.203
19.834	26.934	1378.171	1122.050
20.848	26.929	1377.562	1121.421
21.863	26.940	1376.622	1120.627
22.877	27.030	1375.613	1120.259
23.892	26.992	1375.075	1119.487
24.907	26.945	1374.518	1118.649
25.921	26.977	1372.980	1117.492
26.936	26.980	1371.990	1116.605
27.950	26.923	1371.177	1115.493
28.965	26.944	1369.965	1114.542
29.980	26.968	1368.723	1113.579
30.994	26.935	1367.311	1112.131
32.009	27.062	1366.120	1111.839
33.023	26.905	1365.311	1110.122
34.038	27.047	1363.627	1109.522
35.053	26.934	1362.937	1108.173
36.067	26.954	1362.358	1107.724
37.082	26.930	1361.137	1106.486
38.096	27.055	1360.095	1106.307
39.111	26.908	1359.657	1104.958
40.126	26.913	1359.047	1104.391
41.140	26.896	1358.493	1103.740
42.155	26.872	1358.215	1103.270
43.169	26.923	1358.055	1103.356
44.184	26.924	1357.126	1102.507
45.199	26.885	1357.469	1102.453
46.213	26.994	1355.962	1101.792
47.228	26.963	1355.911	1101.468
48.242	26.974	1354.656	1100.417
49.257	26.936	1352.908	1098.667
50.271	26.939	1351.653	1097.572
51.286	26.992	1349.855	1096.331
52.301	26.860	1349.433	1095.099
53.315	26.924	1348.461	1094.597
54.330	26.907	1347.708	1093.788
55.344	26.931	1346.224	1092.628
56.359	26.922	1345.289	1091.722
57.374	27.009	1344.227	1091.283
58.388	27.002	1343.490	1090.545
59.403	26.865	1343.771	1089.856
60.417	26.971	1342.698	1089.523
61.432	27.102	1341.627	1089.346
62.447	26.976	1340.855	1087.867
63.461	27.027	1339.844	1087.256
64.476	27.023	1339.018	1086.465
65.490	26.934	1337.908	1084.936
66.505	26.969	1336.756	1084.113
67.520	26.995	1335.464	1083.124
68.534	27.054	1333.979	1082.181
69.549	26.915	1333.661	1080.998
70.563	27.004	1332.720	1080.670
71.578	26.954	1331.601	1079.365
72.593	26.985	1330.764	1078.776
73.607	26.968	1329.953	1077.922
74.622	26.971	1328.902	1076.994
75.636	26.978	1328.366	1076.505
76.651	26.985	1327.739	1075.946
77.666	26.878	1327.557	1075.069
78.680	26.936	1326.718	1074.640
79.695	27.010	1326.338	1074.670
80.709	27.032	1325.246	1073.824
81.724	26.975	1324.705	1072.949
82.739	26.935	1323.514	1071.658
83.753	26.936	1322.813	1071.001
84.768	26.999	1321.476	1070.194
85.782	26.919	1320.947	1069.197
86.797	26.939	1319.742	1068.249
87.812	26.843	1318.700	1066.746
88.826	27.074	1317.049	1066.673
89.841	27.050	1315.851	1065.464
90.855	26.972	1315.072	1064.281
91.870	26.994	1314.590	1063.930
92.884	27.084	1313.414	1063.406
93.899	27.179	1312.904	1063.457
94.914	27.006	1312.157	1061.746
95.928	27.013	1311.359	1061.049
96.943	27.042	1310.407	1060.351
97.957	27.013	1309.860	1059.648
98.972	27.017	1308.986	1058.872
99.987	27.039	1307.743	1057.900
101.001	26.879	1307.216	1056.448
102.016	26.953	1305.947	1055.758
103.030	27.003	1305.128	1055.293
104.045	27.012	1304.487	1054.733
105.060	26.910	1303.827	1053.517
106.074	27.003	1302.828	1053.156
107.089	27.040	1301.545	1052.237
108.103	27.070	1300.681	1051.618
109.118	27.074	1299.482	1050.583
110.133	27.110	1298.253	1049.701
111.147	27.148	1297.285	1049.044
112.162	26.985	1296.619	1047.474
113.176	27.039	1295.325	1046.647
114.191	27.034	1294.507	1045.865
115.206	27.014	1293.731	1045.031
116.220	27.075	1292.206	1044.059
117.235	27.120	1290.947	1043.209
118.249	26.994	1290.711	1042.199
119.264	27.026	1289.692	1041.470
120.279	27.049	1289.424	1041.293
121.293	27.165	1288.419	1041.053
122.308	27.242	1287.344	1040.531
123.322	27.205	1286.539	1039.577
124.337	27.147	1286.154	1038.843
125.352	27.169	1284.769	1037.756
126.366	27.129	1284.276	1037.038
127.381	27.239	1282.967	1036.517
128.395	27.105	1282.730	1035.471
129.410	27.136	1281.790	1034.797
130.424	27.091	1281.320	1034.069
131.439	27.142	1280.264	1033.415
132.454	27.035	1279.796	1032.342
133.468	27.088	1278.638	1031.615
134.483	27.180	1277.951	1031.489
135.497	27.158	1277.463	1030.882
136.512	27.169	1276.250	1029.876
137.527	27.155	1275.428	1029.038
138.541	27.136	1274.091	1027.766
139.556	27.115	1272.686	1026.419
140.570	27.129	1271.512	1025.461
141.585	27.117	1270.501	1024.489
142.600	27.097	1269.844	1023.754
143.614	27.127	1269.128	1023.253
144.629	26.998	1268.492	1021.927
145.643	26.979	1267.322	1020.786
146.658	27.073	1265.917	1020.090
147.673	26.926	1265.378	1018.742
148.687	26.993	1264.181	1018.065
149.702	27.070	1263.034	1017.481
150.716	27.050	1262.166	1016.581
151.731	27.136	1260.906	1015.957
152.746	27.194	1260.061	1015.509
153.760	27.095	1258.927	1013.955
154.775	27.133	1257.912	1013.258
155.789	27.179	1256.898	1012.611
156.804	27.128	1256.285	1011.743
157.819	27.285	1255.436	1011.839
158.833	27.190	1254.867	1010.763
159.848	27.200	1254.239	1010.228
160.862	27.237	1253.357	1009.630
161.877	27.275	1252.513	1009.071
162.892	27.237	1251.477	1007.936
163.906	27.220	1251.351	1007.652
164.921	27.133	1250.546	1006.432
165.935	27.200	1249.603	1005.959
166.950	27.282	1248.941	1005.787
167.964	27.272	1248.545	1005.327
168.979	27.279	1247.556	1004.476
169.994	27.317	1247.186	1004.303
171.008	27.407	1246.021	1003.772
172.023	27.332	1245.844	1003.125
173.037	27.256	1244.772	1001.756
174.052	27.215	1244.738	1001.413
175.067	27.183	1243.726	1000.334
176.081	27.295	1242.719	1000.050
177.096	27.253	1242.160	999.281
178.110	27.272	1241.345	998.643
179.125	27.411	1239.741	998.025
180.140	27.307	1239.197	996.929
181.154	27.279	1237.998	995.726
182.169	27.214	1237.263	994.691
183.183	27.233	1236.092	993.761
184.198	27.309	1234.752	993.013
185.213	27.243	1234.207	992.129
186.227	27.498	1232.822	992.318
187.242	27.403	1232.125	991.149
188.256	27.401	1231.419	990.480
189.271	27.400	1230.643	989.764
190.286	27.285	1230.041	988.571
191.300	27.292	1229.369	987.980
192.315	27.416	1229.048	988.305
193.329	27.312	1228.741	987.409
194.344	27.388	1228.081	987.204
195.359	27.448	1227.341	986.845
196.373	27.354	1227.414	986.305
197.388	27.224	1226.860	985.071
198.402	27.280	1226.651	985.118
199.417	27.354	1226.049	984.949
200.432	27.455	1225.251	984.768
201.446	27.350	1224.960	983.880
202.461	27.429	1223.961	983.418
203.475	27.374	1223.004	982.262
204.490	27.339	1222.132	981.284
205.504	27.437	1221.060	980.865
206.519	27.343	1220.528	979.846
207.534	27.359	1219.719	979.197
208.548	27.470	1218.593	978.802
209.563	27.437	1217.693	977.814
210.577	27.533	1216.767	977.504
211.592	27.426	1216.217	976.397
212.607	27.580	1214.891	976.072
213.621	27.422	1214.764	975.038
214.636	27.479	1213.893	974.559
215.650	27.570	1212.811	974.092
216.665	27.440	1212.240	972.850
217.680	27.518	1211.209	972.352
218.694	27.421	1210.634	971.290
219.709	27.485	1209.804	970.878
220.723	27.524	1209.168	970.491
221.738	27.493	1208.554	969.746
222.753	27.457	1207.714	968.794
223.767	27.503	1206.901	968.299
224.782	27.565	1206.562	968.271
225.796	27.585	1206.587	968.314
226.811	27.623	1205.768	967.774
227.826	27.611	1205.358	967.293
228.840	27.653	1204.366	966.634
229.855	27.550	1203.957	965.673
230.869	27.614	1203.191	965.313
231.884	27.521	1202.462	964.153
232.899	27.635	1201.500	963.897
233.913	27.583	1200.888	963.047
234.928	27.690	1200.517	963.229
235.942	27.696	1199.879	962.665
236.957	27.619	1199.332	961.731
237.972	27.592	1198.366	960.733
238.986	27.660	1198.136	960.817
240.001	27.744	1197.279	960.488
241.015	27.737	1196.394	959.657
242.030	27.840	1195.507	959.401
243.045	27.852	1194.611	958.663
244.059	27.690	1194.217	957.408
245.074	27.807	1193.264	957.176
246.088	27.840	1192.580	956.713
247.103	27.772	1191.779	955.633
248.117	27.856	1191.046	955.402
249.132	27.712	1190.698	954.283
250.147	27.761	1190.071	953.954
251.161	27.890	1188.540	953.315
252.176	27.860	1188.426	952.979
253.190	27.850	1187.680	952.244
254.205	27.933	1186.725	951.827
255.220	27.774	1186.732	950.921
256.234	27.921	1185.844	950.891
257.249	27.950	1185.351	950.561
258.263	27.883	1184.733	949.634
259.278	27.933	1184.542	949.656
260.293	27.948	1183.839	949.085
261.307	27.968	1183.267	948.646
262.322	28.041	1182.428	948.270
263.336	27.851	1182.029	946.884
264.351	27.857	1181.772	946.623
265.366	27.898	1180.931	946.075
266.380	28.023	1179.986	945.885
267.395	27.777	1179.914	944.471
268.409	27.832	1178.977	943.922
269.424	27.881	1178.583	943.774
270.439	27.912	1177.797	943.221
271.453	27.948	1177.302	942.930
272.468	27.964	1176.280	942.106
273.482	27.818	1175.682	940.793
274.497	27.992	1175.160	941.189
275.512	27.994	1174.808	940.834
276.526	27.999	1174.186	940.277
277.541	27.910	1173.313	939.040
278.555	28.030	1172.676	939.061
279.570	28.130	1171.533	938.578
280.585	27.939	1171.244	937.281
281.599	27.909	1170.439	936.403
282.614	27.934	1169.185	935.445
283.628	28.148	1168.403	935.833
284.643	28.139	1167.794	935.215
285.657	28.029	1166.921	933.869
286.672	28.064	1166.043	933.262
287.687	28.065	1165.301	932.592
288.701	28.038	1164.388	931.639
289.716	28.170	1163.827	931.783
290.730	28.157	1163.602	931.455
291.745	28.039	1162.947	930.244
292.760	28.273	1162.022	930.615
293.774	28.221	1161.497	929.848
294.789	28.234	1161.441	929.784
295.803	28.191	1160.634	928.840
296.818	28.098	1160.368	928.073
297.833	28.141	1159.383	927.420
298.847	28.060	1158.913	926.553
299.862	28.126	1158.113	926.162
300.876	28.270	1157.234	926.105
301.891	28.290	1156.809	925.785
302.906	28.407	1156.084	925.716
303.920	28.401	1155.055	924.779
304.935	28.314	1154.533	923.839
305.949	28.354	1153.846	923.409
306.964	28.397	1153.740	923.460
307.979	28.335	1152.823	922.333
308.993	28.431	1152.121	922.173
310.008	28.356	1151.869	921.512
311.022	28.355	1150.942	920.684
312.037	28.432	1150.007	920.242
313.052	28.380	1148.861	918.982
314.066	28.368	1148.525	918.571
315.081	28.381	1147.842	918.010
316.095	28.316	1147.161	917.056
317.110	28.413	1146.461	916.901
318.125	28.564	1145.414	916.737
319.139	28.384	1145.571	915.885
320.154	28.492	1144.263	915.296
321.168	28.472	1144.207	915.070
322.183	28.384	1143.655	914.108
323.197	28.503	1143.076	914.157
324.212	28.446	1142.542	913.368
325.227	28.441	1142.048	912.865
326.241	28.533	1141.629	912.908
327.256	28.458	1140.933	911.895
328.270	28.464	1140.220	911.275
329.285	28.544	1138.824	910.477
330.300	28.460	1138.377	909.623
331.314	28.540	1137.730	909.422
332.329	28.527	1136.814	908.547
333.343	28.626	1135.942	908.258
334.358	28.576	1135.327	907.438
335.373	28.668	1134.749	907.352
336.387	28.639	1134.192	906.682
337.402	28.633	1133.544	906.054
338.416	28.593	1132.958	905.308
339.431	28.675	1132.089	904.940
340.446	28.677	1131.712	904.567
341.460	28.700	1131.448	904.390
342.475	28.673	1130.171	903.158
343.489	28.654	1129.352	902.327
344.504	28.664	1128.342	901.489
345.519	28.629	1127.776	900.788
346.533	28.811	1126.659	900.708
347.548	28.723	1126.297	899.907
348.562	28.862	1125.139	899.580
349.577	28.764	1124.617	898.607
350.592	28.667	1124.198	897.718
351.606	28.764	1123.186	897.303
352.621	28.790	1122.548	896.843
353.635	28.786	1122.380	896.609
354.650	28.807	1121.472	895.906
355.665	28.744	1120.882	895.046
356.679	28.863	1120.015	894.855
357.694	28.821	1120.283	894.786
358.708	28.822	1119.341	893.960
359.723	28.786	1118.470	893.010
360.738	28.811	1117.566	892.331
361.752	28.784	1117.383	891.971
362.767	28.884	1116.550	891.717
363.781	28.943	1116.229	891.665
364.796	28.890	1115.645	890.864
365.810	28.968	1115.106	890.731
366.825	28.996	1114.351	890.185
367.840	29.040	1114.027	890.061
368.854	28.978	1113.486	889.250
369.869	29.065	1112.588	888.872
370.883	29.092	1111.728	888.238
371.898	29.104	1111.100	887.718
372.913	29.004	1110.711	886.843
373.927	29.099	1110.186	886.803
374.942	29.114	1109.703	886.411
375.956	29.124	1109.329	886.082
376.971	29.024	1108.775	885.083
377.986	29.078	1108.457	885.007
379.000	29.124	1107.789	884.619
380.015	29.089	1107.395	884.060
381.029	29.143	1106.704	883.690
382.044	29.263	1105.821	883.477
383.059	29.123	1105.566	882.525
384.073	29.134	1104.773	881.866
385.088	29.196	1103.556	881.113
386.102	29.164	1102.888	880.352
387.117	29.255	1102.027	880.019
388.132	29.187	1101.355	879.081
389.146	29.182	1100.614	878.388
390.161	29.177	1100.134	877.903
391.175	29.272	1099.152	877.496
392.190	29.319	1098.621	877.216
393.205	29.276	1098.237	876.630
394.219	29.226	1097.194	875.481
395.234	29.203	1096.913	875.068
396.248	29.362	1095.657	874.743
397.263	29.486	1094.518	874.347
398.278	29.399	1094.185	873.590
399.292	29.417	1093.703	873.211
400.307	29.316	1093.143	872.210
401.321	29.371	1092.754	872.085
402.336	29.408	1091.779	871.400
403.350	29.334	1090.966	870.327
404.365	29.410	1090.597	870.312
405.380	29.385	1089.830	869.506
406.394	29.363	1089.069	868.717
407.409	29.515	1088.352	868.787
408.423	29.456	1087.698	867.911
409.438	29.499	1087.138	867.589
410.453	29.595	1086.264	867.265
411.467	29.509	1085.940	866.526
412.482	29.520	1085.019	865.765
413.496	29.571	1084.452	865.476
414.511	29.595	1083.884	865.059
415.526	29.403	1083.786	864.003
416.540	29.523	1083.533	864.288
417.555	29.637	1082.602	864.003
418.569	29.605	1081.904	863.217
419.584	29.708	1081.642	863.415
420.599	29.592	1081.289	862.517
421.613	104.465	1320.079	1457.234
422.628	97.181	1354.848	1457.324
