DTS Sentinel unit serial number:	SN413079Multiplexer serial number:	ORYXHardware model number:	OX4-SRSoftware version number:	ORYX F/W v4.00 Oryx Data Collector v3.7.2.0data status	okinstallation	princeton_trtdifferential loss correction	single-endedforward channel	channel 2reverse channel	N/Adate	2019/09/12time	18:21:49forward acquisition time	15.00reverse acquisition time	0.00gamma	496.2192k internal	0.2323k external	0.2323temperature offset calibration	1.0130default loss term (dB/km)	0.3790temperature slope calibration	1.0000multiplexer offset coefficient	1.0000multiplexer slope coefficient	1.0000fibre end	0.00T internal ref (°C)	33.37T ext. ref 1 (°C)	2.94T ext. ref 2 (°C)	28.04length (m)	temperature (°C)	Stokes	anti-Stokes-747.200	64.399	0.568	0.578
-746.185	-25.142	-0.447	0.267
-745.171	22.196	-0.585	0.482
-744.156	222.868	-0.442	-0.720
-743.142	638.052	-0.158	0.405
-742.127	130.531	0.226	-0.293
-741.112	395.131	0.323	-0.680
-740.098	-62.226	0.344	-0.145
-739.083	36.639	0.804	0.717
-738.069	-121.152	0.364	0.062
-737.054	189.692	-0.184	0.279
-736.039	800.000	-0.107	0.418
-735.025	-38.895	0.444	0.236
-734.010	176.005	-0.457	-0.669
-732.996	527.221	0.249	-0.591
-731.981	-59.712	0.299	0.129
-730.966	-200.000	0.072	-0.338
-729.952	-127.056	-0.098	-0.015
-728.937	245.441	-0.160	0.271
-727.923	67.603	-0.162	-0.167
-726.908	-139.119	0.212	-0.023
-725.894	-36.091	-0.324	-0.177
-724.879	348.595	0.451	0.898
-723.864	587.116	0.299	-0.743
-722.850	-179.096	-0.323	0.007
-721.835	60.111	-0.267	0.266
-720.821	26.248	0.514	-0.433
-719.806	206.560	-0.571	0.897
-718.791	-102.627	-1.202	0.289
-717.777	9.416	0.830	-0.633
-716.762	800.000	-0.256	1.023
-715.748	-200.000	0.031	0.619
-714.733	253.913	-0.154	0.265
-713.718	-14.477	-0.215	0.139
-712.704	347.400	-0.125	0.248
-711.689	-200.000	0.002	0.675
-710.675	-152.479	0.685	0.050
-709.660	-77.722	0.376	-0.131
-708.645	-78.532	0.305	-0.105
-707.631	170.924	-0.365	0.528
-706.616	-134.479	0.159	-0.020
-705.602	-200.000	-0.046	0.326
-704.587	112.387	-0.616	0.751
-703.572	500.182	-0.183	-0.424
-702.558	-75.616	-0.388	0.139
-701.543	-19.340	0.717	0.448
-700.529	164.404	-0.631	-0.897
-699.514	14.536	0.120	0.094
-698.499	-200.000	-0.005	-0.256
-697.485	-67.041	-0.544	0.216
-696.470	-19.479	0.168	-0.105
-695.456	-125.187	0.312	0.048
-694.441	103.791	0.672	0.796
-693.426	370.786	-0.406	0.830
-692.412	800.000	0.160	0.617
-691.397	800.000	-0.299	-0.944
-690.383	-119.278	-0.093	0.016
-689.368	-123.544	0.580	-0.093
-688.354	-25.337	-0.471	0.281
-687.339	-107.504	-0.417	0.092
-686.324	800.000	-0.279	-0.777
-685.310	-6.777	-0.714	0.490
-684.295	157.902	-0.537	-0.750
-683.281	-200.000	-0.043	0.337
-682.266	5.984	0.477	0.356
-681.251	-151.224	0.261	0.020
-680.237	745.059	-0.166	0.451
-679.222	-200.000	0.035	0.430
-678.208	-40.798	0.691	-0.360
-677.193	57.196	-0.330	0.324
-676.178	800.000	-0.229	-0.645
-675.164	-106.901	0.883	-0.197
-674.149	-34.464	-0.647	-0.357
-673.135	-162.913	1.065	-0.052
-672.120	64.290	0.392	-0.398
-671.105	350.712	-0.394	0.784
-670.091	-200.000	-0.061	-0.624
-669.076	309.499	-0.166	0.312
-668.062	395.547	-0.262	-0.551
-667.047	-200.000	0.005	-0.034
-666.032	514.760	0.166	-0.390
-665.018	-117.148	-0.446	0.082
-664.003	-147.538	-0.240	-0.020
-662.989	-144.885	-0.287	-0.026
-661.974	317.860	-0.223	-0.424
-660.959	-200.000	-0.062	-0.703
-659.945	-200.000	-0.061	0.759
-658.930	27.610	-0.187	0.158
-657.916	-200.000	-0.019	0.633
-656.901	-144.917	-0.418	-0.038
-655.886	-200.000	-0.006	0.408
-654.872	-200.000	0.016	0.785
-653.857	786.112	0.197	-0.545
-652.843	438.501	-0.325	0.714
-651.828	-200.000	-0.014	0.143
-650.814	62.997	0.391	-0.394
-649.799	-200.000	0.066	-0.377
-648.784	-51.962	0.376	0.176
-647.770	800.000	0.159	0.701
-646.755	-93.638	-0.728	0.202
-645.741	-87.231	-0.327	0.100
-644.726	800.000	0.008	-0.027
-643.711	-84.130	-0.435	0.139
-642.697	-74.195	0.250	-0.091
-641.682	18.414	-0.804	-0.646
-640.668	60.898	-0.168	-0.168
-639.653	-168.722	-0.242	0.009
-638.638	-200.000	0.087	-0.738
-637.624	544.740	-0.080	0.192
-636.609	-200.000	0.096	0.590
-635.595	516.536	-0.208	0.489
-634.580	-107.908	-0.209	0.046
-633.565	152.150	-0.347	0.475
-632.551	800.000	-0.119	0.340
-631.536	-95.492	-0.544	-0.147
-630.522	268.909	-0.563	-0.993
-629.507	-200.000	-0.103	-0.551
-628.492	-139.925	-0.482	-0.051
-627.478	9.953	0.337	0.257
-626.463	-49.706	0.338	0.162
-625.449	-137.856	-0.385	-0.043
-624.434	-200.000	0.020	0.165
-623.419	54.901	0.120	0.117
-622.405	-113.939	0.296	0.058
-621.390	-94.166	-0.459	-0.126
-620.376	-101.133	-0.362	-0.089
-619.361	-9.921	-0.260	0.174
-618.346	41.352	0.193	0.176
-617.332	-22.481	-0.704	-0.428
-616.317	51.902	0.328	0.313
-615.303	-63.918	0.232	0.095
-614.288	-38.271	-0.493	0.263
-613.273	-107.872	-0.107	0.023
-612.259	-114.766	0.268	-0.051
-611.244	87.620	-0.400	0.445
-610.230	-200.000	-0.083	-0.464
-609.215	378.655	-0.110	0.226
-608.201	-200.000	-0.053	-0.335
-607.186	107.085	0.626	-0.748
-606.171	172.195	0.232	-0.334
-605.157	21.763	-0.611	0.499
-604.142	-200.000	-0.204	0.998
-603.128	-200.000	0.036	-0.913
-602.113	-138.991	-0.873	-0.095
-601.098	103.429	-0.051	0.060
-600.084	313.257	0.216	-0.407
-599.069	-200.000	0.079	0.368
-598.055	624.972	-0.154	0.390
-597.040	-50.790	0.402	-0.190
-596.025	49.767	0.365	-0.345
-595.011	10.444	-0.605	-0.463
-593.996	-170.428	0.386	0.014
-592.982	141.167	-0.746	0.990
-591.967	-200.000	-0.052	-0.823
-590.952	212.645	0.351	-0.555
-589.938	-15.506	0.219	-0.140
-588.923	215.635	0.386	-0.616
-587.909	55.060	-0.697	-0.676
-586.894	800.000	-0.198	-0.582
-585.879	-103.346	0.782	-0.185
-584.865	2.422	-0.283	-0.206
-583.850	-104.618	-0.410	0.095
-582.836	-200.000	0.008	-0.452
-581.821	101.786	-0.129	0.151
-580.806	-38.257	0.266	-0.141
-579.792	800.000	-0.177	0.739
-578.777	373.701	0.233	0.475
-577.763	213.425	0.383	0.608
-576.748	800.000	-0.304	-0.950
-575.733	107.264	-0.229	0.273
-574.719	-98.919	-0.547	-0.139
-573.704	-4.137	0.272	0.189
-572.690	-61.713	0.278	0.117
-571.675	-44.701	0.595	-0.298
-570.661	-113.118	1.151	0.228
-569.646	-200.000	0.100	-1.184
-568.631	-173.561	-0.876	-0.026
-567.617	-2.323	-0.255	-0.180
-566.602	-38.902	0.570	0.301
-565.588	0.562	-0.727	-0.521
-564.573	172.678	0.101	-0.146
-563.558	-84.404	0.513	0.163
-562.544	-200.000	-0.015	0.159
-561.529	149.482	-0.317	-0.430
-560.515	-48.357	0.543	0.262
-559.500	-122.398	0.168	-0.028
-558.485	92.701	-0.133	0.151
-557.471	-200.000	0.142	0.793
-556.456	47.783	0.395	0.370
-555.442	17.269	-0.485	-0.386
-554.427	-152.179	0.841	0.061
-553.412	-49.000	-1.068	0.513
-552.398	18.533	0.367	-0.294
-551.383	6.779	-0.193	-0.144
-550.369	118.338	-0.075	0.093
-549.354	-43.208	-0.247	0.125
-548.339	-200.000	-0.075	-0.332
-547.325	-2.796	-0.331	-0.232
-546.310	-0.784	-0.209	-0.148
-545.296	-52.632	0.552	0.255
-544.281	-145.471	1.497	0.135
-543.266	-200.000	-0.030	0.334
-542.252	-34.642	-0.615	-0.337
-541.237	800.000	-0.063	0.234
-540.223	-82.687	-0.281	0.091
-539.208	267.675	0.577	1.012
-538.193	-36.597	-0.694	-0.374
-537.179	169.536	-0.187	0.268
-536.164	800.000	-0.158	-0.493
-535.150	81.181	-0.240	-0.260
-534.135	-200.000	0.119	-0.747
-533.121	-165.833	-0.275	0.012
-532.106	239.497	0.636	-1.061
-531.091	-200.000	0.009	-0.237
-530.077	113.892	-0.295	0.359
-529.062	-25.674	-0.269	0.159
-528.048	9.452	0.103	0.078
-527.033	-200.000	-0.026	0.598
-526.018	113.417	0.539	-0.655
-525.004	-133.871	0.611	0.076
-523.989	-200.000	0.061	-0.712
-522.975	-200.000	0.094	-0.456
-521.960	-123.528	-0.781	-0.124
-520.945	-55.955	0.472	0.211
-519.931	-69.088	-0.731	0.282
-518.916	-32.348	0.439	-0.245
-517.902	74.113	-0.031	-0.033
-516.887	-52.680	-0.416	0.192
-515.872	11.522	-0.228	0.175
-514.858	70.587	0.339	0.351
-513.843	-2.740	-0.317	0.222
-512.829	125.040	-0.217	-0.273
-511.814	-139.725	-0.434	-0.046
-510.799	-200.000	0.028	-0.573
-509.785	175.401	0.360	0.521
-508.770	-59.020	0.360	0.156
-507.756	-36.036	-0.329	0.178
-506.741	-122.383	0.859	-0.140
-505.726	105.676	0.182	0.215
-504.712	61.005	-0.163	0.162
-503.697	-200.000	0.130	0.698
-502.683	-74.500	0.512	0.184
-501.668	-15.936	0.520	0.331
-500.653	541.248	-0.273	-0.652
-499.639	-10.963	0.328	-0.217
-498.624	-58.168	0.454	0.198
-497.610	-82.329	0.756	0.246
-496.595	-200.000	0.027	-0.855
-495.581	-48.937	-0.701	0.336
-494.566	-103.509	0.562	-0.132
-493.551	-61.502	0.496	0.208
-492.537	12.675	0.371	-0.286
-491.522	118.787	-0.704	-0.870
-490.508	-54.898	0.219	0.099
-489.493	-200.000	-0.037	0.756
-488.478	-77.737	-1.145	-0.396
-487.464	-77.113	-0.880	-0.307
-486.449	-146.118	-0.548	-0.048
-485.435	-154.581	0.213	-0.014
-484.420	424.475	0.063	-0.136
-483.405	-78.581	0.909	-0.311
-482.391	-200.000	-0.021	-0.491
-481.376	29.123	0.488	-0.414
-480.362	-15.251	0.841	-0.538
-479.347	-200.000	-0.088	0.492
-478.332	-179.408	-0.336	0.007
-477.318	315.484	-0.188	-0.354
-476.303	-128.194	-0.512	0.073
-475.289	-15.725	-0.311	0.198
-474.274	-89.895	0.359	0.105
-473.259	800.000	-0.231	-0.778
-472.245	666.149	-0.126	-0.324
-471.230	-134.737	0.454	-0.055
-470.216	33.007	-0.356	0.308
-469.201	-106.090	-0.660	0.148
-468.186	-81.160	-0.717	-0.237
-467.172	-147.818	0.115	0.010
-466.157	-176.098	-0.433	-0.011
-465.143	-75.240	-1.374	0.490
-464.128	-128.596	0.303	-0.043
-463.113	-34.955	0.856	-0.466
-462.099	125.279	-0.101	-0.127
-461.084	-200.000	0.115	-0.682
-460.070	-128.610	-0.321	-0.045
-459.055	34.451	-0.355	-0.309
-458.040	636.493	-0.264	-0.670
-457.026	700.967	0.234	0.615
-456.011	287.517	0.189	-0.340
-454.997	474.544	-0.347	0.781
-453.982	-71.621	0.341	-0.127
-452.968	-135.521	-0.769	0.091
-451.953	561.049	0.359	-0.865
-450.938	-137.900	-0.860	-0.096
-449.924	800.000	0.253	-0.904
-448.909	78.921	-0.364	0.389
-447.895	-85.765	0.864	-0.267
-446.880	-200.000	0.067	0.359
-445.865	55.208	-0.871	0.840
-444.851	210.867	0.018	0.029
-443.836	-98.172	0.186	-0.048
-442.822	-105.328	0.987	0.224
-441.807	-2.164	-0.111	-0.078
-440.792	-39.907	0.488	0.254
-439.778	15.962	-0.650	-0.511
-438.763	-35.168	0.322	-0.175
-437.749	527.178	0.137	0.321
-436.734	-200.000	-0.105	0.579
-435.719	-8.386	1.227	0.823
-434.705	800.000	0.197	-0.545
-433.690	299.895	0.408	-0.751
-432.676	-91.636	-0.238	-0.068
-431.661	-200.000	0.026	0.637
-430.646	39.640	0.363	0.325
-429.632	144.493	-0.454	-0.605
-428.617	199.503	0.406	0.620
-427.603	129.320	0.266	0.339
-426.588	84.362	-0.327	-0.357
-425.573	-148.151	0.243	-0.020
-424.559	72.926	-0.613	-0.638
-423.544	-140.866	-0.688	-0.071
-422.530	55.207	-0.751	-0.724
-421.515	141.322	0.355	0.469
-420.500	-200.000	0.122	-0.582
-419.486	98.350	-0.278	-0.320
-418.471	-67.030	0.183	0.072
-417.457	-200.000	0.019	-0.285
-416.442	800.000	0.195	0.770
-415.428	-14.034	0.353	0.227
-414.413	-195.594	-0.449	0.003
-413.398	-44.979	-0.610	0.303
-412.384	-13.500	0.774	0.500
-411.369	-123.192	0.828	0.132
-410.355	-103.690	0.688	0.161
-409.340	115.260	-0.042	-0.052
-408.325	28.025	-0.566	-0.476
-407.311	686.489	0.073	0.191
-406.296	62.124	0.659	0.655
-405.282	-28.356	0.269	0.154
-404.267	-0.923	0.388	0.274
-403.252	23.062	0.712	-0.582
-402.238	-41.198	-0.652	-0.335
-401.223	-200.000	-0.022	-0.157
-400.209	204.559	-0.116	-0.180
-399.194	48.436	0.266	-0.248
-398.179	202.927	0.293	0.451
-397.165	12.178	0.380	0.291
-396.150	523.488	0.249	-0.584
-395.136	-46.719	-0.135	-0.066
-394.121	400.272	-0.219	0.457
-393.106	800.000	-0.023	0.077
-392.092	-200.000	-0.191	-1.068
-391.077	-64.539	-0.526	0.213
-390.063	800.000	0.247	0.864
-389.048	-79.330	-0.561	0.189
-388.033	43.522	-0.496	-0.452
-387.019	-60.402	0.250	-0.106
-386.004	-200.000	0.103	-0.974
-384.990	-200.000	-0.002	0.075
-383.975	-76.570	0.736	0.257
-382.960	123.348	0.276	-0.344
-381.946	35.671	0.196	0.172
-380.931	-53.958	0.878	-0.398
-379.917	-63.820	-0.186	-0.076
-378.902	-200.000	-0.018	-0.240
-377.888	175.573	0.125	0.180
-376.873	-114.753	-0.538	0.102
-375.858	-19.903	0.456	0.280
-374.844	-23.249	-0.437	0.262
-373.829	-200.000	0.088	0.898
-372.815	210.533	0.196	-0.307
-371.800	56.785	0.648	-0.628
-370.785	553.664	0.167	-0.399
-369.771	74.480	-0.445	0.466
-368.756	-200.000	0.277	1.228
-367.742	491.074	-0.187	0.426
-366.727	-166.328	-0.585	0.025
-365.712	-200.000	-0.078	-0.393
-364.698	43.073	0.544	0.494
-363.683	22.225	0.467	-0.379
-362.669	-200.000	-0.016	-0.432
-361.654	-160.710	-0.252	-0.013
-360.639	-180.253	0.198	-0.004
-359.625	800.000	-0.204	-0.677
-358.610	-138.536	0.538	-0.059
-357.596	-94.419	0.641	-0.174
-356.581	396.317	0.050	-0.103
-355.566	-200.000	0.066	0.418
-354.552	800.000	0.220	0.618
-353.537	131.576	0.254	0.324
-352.523	436.971	-0.142	0.307
-351.508	-50.114	-0.876	0.412
-350.493	800.000	-0.228	0.926
-349.479	56.422	-0.380	0.368
-348.464	-200.000	-0.034	0.167
-347.450	-68.458	0.744	0.287
-346.435	-181.627	0.778	-0.015
-345.420	-120.184	-0.249	0.042
-344.406	-90.774	0.173	0.050
-343.391	-165.255	0.243	0.011
-342.377	112.037	-0.258	-0.310
-341.362	97.402	-0.144	-0.164
-340.348	-15.833	-0.617	-0.391
-339.333	56.212	-0.271	-0.261
-338.318	-44.150	-0.476	-0.237
-337.304	10.101	0.694	0.524
-336.289	-186.976	0.082	0.001
-335.275	5.207	0.345	-0.253
-334.260	58.531	0.560	-0.546
-333.245	-200.000	0.003	-0.150
-332.231	-200.000	-0.050	0.297
-331.216	-200.000	-0.025	-0.424
-330.202	639.638	-0.371	0.937
-329.187	338.869	-0.567	1.096
-328.172	324.892	0.070	0.134
-327.158	12.969	-0.734	-0.564
-326.143	127.597	0.338	-0.427
-325.129	313.952	-0.375	-0.701
-324.114	-200.000	-0.063	-0.960
-323.099	169.821	0.280	-0.398
-322.085	281.232	0.017	-0.030
-321.070	122.447	0.471	0.584
-320.056	54.836	-0.629	0.603
-319.041	190.398	0.281	-0.420
-318.026	-47.220	-0.964	-0.467
-317.012	-200.000	-0.025	-0.293
-315.997	-200.000	-0.183	1.425
-314.983	-94.996	0.472	-0.127
-313.968	800.000	-0.398	-1.147
-312.953	67.046	-0.087	-0.088
-311.939	-160.725	-0.712	0.037
-310.924	19.810	0.610	-0.488
-309.910	-200.000	0.007	-0.878
-308.895	800.000	0.127	-0.497
-307.880	123.933	0.301	0.375
-306.866	-70.210	0.149	-0.056
-305.851	478.832	0.352	0.791
-304.837	-200.000	0.076	0.534
-303.822	-200.000	-0.140	0.839
-302.807	-171.665	-0.690	-0.023
-301.793	-137.906	0.275	0.031
-300.778	185.422	-0.699	-1.030
-299.764	-200.000	0.128	0.563
-298.749	-200.000	-0.090	-0.545
-297.735	384.199	-0.135	-0.276
-296.720	-161.968	-1.110	0.056
-295.705	-62.063	-0.665	0.275
-294.691	185.993	0.397	0.586
-293.676	-200.000	0.030	1.339
-292.662	-88.076	1.238	0.368
-291.647	-131.136	0.788	0.104
-290.632	-200.000	0.003	-0.114
-289.618	-87.277	-0.623	0.187
-288.603	-94.416	0.357	0.097
-287.589	-200.000	-0.030	-0.175
-286.574	-200.000	0.033	0.158
-285.559	-20.421	-0.427	-0.260
-284.545	90.573	0.200	-0.222
-283.530	200.067	-0.577	-0.879
-282.516	-88.785	0.282	-0.083
-281.501	-167.806	0.801	-0.031
-280.486	5.465	0.279	0.204
-279.472	-28.444	-0.766	0.438
-278.457	-183.067	0.196	-0.003
-277.443	-66.009	-0.331	-0.131
-276.428	142.503	0.331	0.436
-275.413	-34.180	0.310	-0.169
-274.399	800.000	0.294	0.867
-273.384	-24.925	0.624	0.367
-272.370	-64.845	0.254	-0.102
-271.355	800.000	0.075	0.299
-270.340	36.024	-0.295	-0.257
-269.326	-53.136	0.452	0.206
-268.311	477.529	-0.300	0.672
-267.297	233.654	-0.305	-0.498
-266.282	-200.000	-0.023	-0.261
-265.267	-62.454	-0.182	-0.075
-264.253	107.341	0.541	0.638
-263.238	532.565	0.131	0.306
-262.224	49.009	0.303	-0.282
-261.209	800.000	0.052	0.150
-260.195	-200.000	-0.044	-0.286
-259.180	317.192	-0.558	1.045
-258.165	800.000	0.209	0.586
-257.151	-47.710	-0.314	-0.151
-256.136	-192.651	0.088	0.001
-255.122	-200.000	0.028	0.940
-254.107	83.984	0.411	0.444
-253.092	591.198	0.197	0.482
-252.078	-108.953	-0.639	0.135
-251.063	-172.039	0.513	0.016
-250.049	480.751	0.109	-0.246
-249.034	34.573	-0.441	0.382
-248.019	-41.568	0.368	0.187
-247.005	772.140	0.212	0.571
-245.990	-200.000	-0.066	0.754
-244.976	-52.664	0.645	-0.295
-243.961	46.119	0.289	-0.265
-242.946	164.735	0.135	-0.188
-241.932	-147.219	0.506	-0.043
-240.917	-147.414	0.904	0.076
-239.903	-105.337	-0.666	-0.150
-238.888	16.844	0.559	0.438
-237.873	36.233	0.048	-0.042
-236.859	-74.640	0.359	0.128
-235.844	-190.477	1.170	0.013
-234.830	-150.981	-0.667	0.050
-233.815	-47.535	-0.780	0.375
-232.800	42.027	-0.522	0.469
-231.786	-42.599	0.425	0.214
-230.771	131.770	-0.884	-1.125
-229.757	-118.135	0.160	-0.028
-228.742	88.954	0.471	-0.518
-227.727	-200.000	-0.123	0.901
-226.713	7.402	-0.159	-0.117
-225.698	62.368	-0.194	-0.192
-224.684	226.580	0.259	0.415
-223.669	800.000	0.093	-0.346
-222.655	170.654	0.277	-0.392
-221.640	-200.000	0.059	0.387
-220.625	-162.748	-1.121	0.054
-219.611	800.000	0.096	-0.322
-218.596	-179.660	-0.730	0.016
-217.582	38.381	-0.435	-0.384
-216.567	49.306	0.214	-0.199
-215.552	20.627	-0.176	-0.141
-214.538	71.522	-0.407	0.418
-213.523	-186.324	0.132	-0.002
-212.509	-200.000	-0.074	0.796
-211.494	526.605	-0.375	0.874
-210.479	-162.224	0.840	0.042
-209.465	37.830	1.059	-0.930
-208.450	481.917	-0.202	0.453
-207.436	306.830	0.255	0.469
-206.421	256.617	0.377	0.640
-205.406	-17.208	-0.401	0.250
-204.392	507.201	0.066	0.150
-203.377	-136.675	-0.592	0.068
-202.363	-200.000	-0.040	-0.293
-201.348	169.038	-0.412	-0.581
-200.333	800.000	-0.086	0.303
-199.319	-81.182	-0.305	-0.100
-198.304	214.449	0.416	-0.651
-197.290	9.786	0.084	0.063
-196.275	-63.835	-0.525	-0.213
-195.260	-57.511	0.631	0.274
-194.246	77.681	-0.382	0.402
-193.231	-200.000	0.107	0.793
-192.217	-47.630	0.511	0.245
-191.202	58.568	0.108	0.105
-190.187	-200.000	-0.056	-0.497
-189.173	800.000	-0.043	0.141
-188.158	204.789	-0.317	-0.486
-187.144	-200.000	0.045	0.443
-186.129	-200.000	0.066	-0.289
-185.114	-200.000	0.068	-0.789
-184.100	-28.572	0.617	0.351
-183.085	-84.006	-0.255	-0.080
-182.071	113.284	-0.159	0.191
-181.056	-200.000	-0.050	-0.441
-180.042	-33.734	0.325	0.177
-179.027	11.518	-0.613	0.464
-178.012	18.439	-0.411	-0.324
-176.998	-96.100	0.754	-0.198
-175.983	492.735	-0.341	-0.773
-174.969	174.379	0.154	-0.220
-173.954	80.857	0.231	-0.246
-172.939	210.190	0.417	0.647
-171.925	70.042	-0.432	-0.440
-170.910	-75.979	0.233	0.081
-169.896	-116.084	0.097	0.018
-168.881	-79.006	-0.746	0.251
-167.866	234.511	0.256	0.416
-166.852	-79.912	-0.666	-0.221
-165.837	84.210	-0.189	0.204
-164.823	-200.000	-0.037	-0.480
-163.808	-200.000	-0.019	-0.125
-162.793	-11.060	0.342	-0.223
-161.779	-131.886	-1.071	0.138
-160.764	155.249	-0.335	0.456
-159.750	62.316	0.455	0.449
-158.735	-101.066	-0.492	0.119
-157.720	-132.452	0.927	-0.118
-156.706	17.005	0.157	-0.122
-155.691	-20.157	0.505	-0.307
-154.677	255.950	-0.129	-0.219
-153.662	257.243	-0.452	-0.767
-152.647	-115.079	-0.272	-0.051
-151.633	84.852	0.443	-0.479
-150.618	-89.140	-1.093	-0.319
-149.604	-59.759	-0.330	0.139
-148.589	-61.549	-0.645	0.267
-147.574	77.871	0.404	-0.424
-146.560	800.000	-0.201	-0.639
-145.545	670.397	-0.234	0.598
-144.531	20.316	-0.480	0.383
-143.516	-81.280	0.204	0.066
-142.502	-165.861	0.451	-0.019
-141.487	-69.690	-0.939	0.354
-140.472	-25.617	0.147	-0.085
-139.458	-200.000	-0.062	0.506
-138.443	-27.494	-0.597	0.342
-137.429	-80.052	0.268	-0.089
-136.414	-84.581	-0.438	0.136
-135.399	-200.000	-0.128	-0.654
-134.385	-72.747	-0.858	-0.312
-133.370	-73.220	0.900	0.325
-132.356	346.177	-0.118	-0.229
-131.341	-144.598	-0.785	-0.071
-130.326	297.702	0.247	0.448
-129.312	-200.000	0.043	0.793
-128.297	641.960	0.212	-0.532
-127.283	-122.992	-0.638	-0.101
-126.268	15.480	0.251	0.195
-125.253	-13.878	-0.699	-0.445
-124.239	-12.118	0.183	0.118
-123.224	70.519	-0.318	-0.324
-122.210	800.000	-0.046	0.165
-121.195	348.301	-0.513	-0.997
-120.180	-200.000	0.026	0.406
-119.166	-119.750	0.536	0.091
-118.151	-1.244	-0.405	-0.282
-117.137	137.375	-0.208	0.269
-116.122	534.980	-0.251	-0.587
-115.107	-95.218	-0.080	-0.021
-114.093	-41.861	0.593	0.300
-113.078	-200.000	-0.018	0.791
-112.064	-13.363	-0.287	0.183
-111.049	0.347	0.592	0.416
-110.034	-81.114	-0.281	0.091
-109.020	171.912	0.134	0.189
-108.005	294.274	0.195	0.351
-106.991	442.112	-0.188	0.406
-105.976	-200.000	-0.020	0.679
-104.962	719.838	-0.054	0.141
-103.947	-6.297	-0.069	-0.046
-102.932	800.000	0.062	-0.232
-101.918	-29.427	-0.805	-0.454
-100.903	212.613	0.220	0.342
-99.889	-96.145	-0.374	0.098
-98.874	800.000	-0.092	-0.394
-97.859	-92.453	-0.167	-0.046
-96.845	-22.213	0.297	-0.178
-95.830	-130.388	-0.717	0.096
-94.816	-31.824	-0.165	0.091
-93.801	-151.981	0.457	0.033
-92.786	-43.990	-0.736	0.364
-91.772	-147.859	-0.746	-0.061
-90.757	-27.132	-0.888	-0.509
-89.743	-85.487	-0.357	-0.109
-88.728	800.000	-0.060	-0.166
-87.713	122.941	-0.365	-0.449
-86.699	419.571	0.399	0.841
-85.684	-111.204	-0.255	-0.051
-84.670	-66.182	0.672	0.264
-83.655	-58.100	-0.147	-0.063
-82.640	-102.019	0.440	-0.104
-81.626	49.626	-0.453	-0.420
-80.611	158.602	0.406	0.555
-79.597	6.687	-0.667	-0.488
-78.582	-25.526	0.486	-0.282
-77.567	-36.334	0.315	-0.167
-76.553	-3.941	0.464	-0.317
-75.538	-131.915	0.406	0.052
-74.524	800.000	0.179	0.726
-73.509	191.315	-0.176	0.261
-72.494	-200.000	-0.062	-0.462
-71.480	-200.000	0.009	0.492
-70.465	-35.410	0.989	-0.529
-69.451	-182.660	-1.195	0.021
-68.436	800.000	0.050	-0.166
-67.422	-58.264	-0.570	-0.244
-66.407	800.000	-0.260	-0.829
-65.392	-200.000	0.009	0.281
-64.378	386.788	0.323	-0.657
-63.363	394.412	0.111	-0.228
-62.349	-126.360	-0.508	-0.074
-61.334	28.455	-1.534	-1.275
-60.319	-200.000	-0.187	0.847
-59.305	-108.560	-0.339	0.072
-58.290	-5.955	1.154	0.776
-57.276	80.694	0.984	1.042
-56.261	-200.000	95.515	566.730
-55.246	637.646	1371.664	3425.904
-54.232	198.704	2552.096	3839.718
-53.217	111.914	2258.134	2680.367
-52.203	42.713	1885.676	1687.642
-51.188	36.641	1677.717	1455.936
-50.173	33.969	1633.526	1397.911
-49.159	52.094	1683.533	1576.382
-48.144	53.083	1698.632	1597.832
-47.130	36.231	1659.001	1436.413
-46.115	33.459	1645.069	1403.789
-45.100	33.420	1638.846	1398.138
-44.086	33.352	1637.214	1396.182
-43.071	33.413	1633.815	1393.679
-42.057	33.272	1632.013	1391.052
-41.042	33.092	1630.055	1388.007
-40.027	33.195	1628.352	1387.256
-39.013	33.076	1625.708	1384.078
-37.998	33.327	1624.226	1384.600
-36.984	33.139	1623.542	1382.586
-35.969	33.172	1622.156	1381.591
-34.954	33.608	1620.095	1382.961
-33.940	33.250	1617.516	1378.100
-32.925	33.374	1616.233	1377.848
-31.911	33.405	1613.761	1375.917
-30.896	33.281	1612.847	1374.182
-29.881	33.328	1611.200	1373.063
-28.867	33.142	1610.198	1370.805
-27.852	33.064	1608.769	1368.974
-26.838	33.474	1606.731	1370.147
-25.823	33.299	1605.384	1367.682
-24.809	33.486	1602.622	1366.623
-23.794	33.651	1600.441	1365.895
-22.779	33.475	1599.927	1364.137
-21.765	33.422	1599.484	1363.323
-20.750	33.371	1597.409	1361.132
-19.736	33.312	1596.306	1359.719
-18.721	33.254	1595.036	1358.163
-17.706	33.550	1593.161	1358.636
-16.692	33.210	1592.655	1355.713
-15.677	33.427	1590.041	1354.990
-14.663	33.519	1588.446	1354.230
-13.648	33.622	1586.177	1352.976
-12.633	33.504	1585.476	1351.484
-11.619	33.408	1585.343	1350.632
-10.604	33.405	1582.665	1348.279
-9.590	33.452	1581.618	1347.664
-8.575	33.514	1579.649	1346.373
-7.560	33.504	1579.622	1346.230
-6.546	33.499	1578.619	1345.282
-5.531	33.493	1577.513	1344.242
-4.517	33.456	1576.143	1342.760
-3.502	33.497	1575.131	1342.134
-2.487	33.607	1572.928	1340.985
-1.473	33.082	1562.552	1328.398
-0.458	30.200	1541.882	1290.750
0.556	27.549	1542.130	1258.002
1.571	25.048	1564.957	1258.968
2.586	24.679	1576.991	1265.919
3.600	21.735	1523.987	1203.082
4.615	12.490	1416.038	1058.519
5.629	4.587	1349.474	960.023
6.644	3.035	1342.589	945.500
7.659	3.027	1339.615	943.272
8.673	2.802	1339.552	941.765
9.688	2.896	1337.440	940.768
10.702	2.689	1335.336	937.941
11.717	6.065	1342.078	963.322
12.731	15.622	1360.495	1035.607
13.746	23.658	1373.237	1094.989
14.761	25.790	1375.344	1109.730
15.775	26.074	1374.905	1111.026
16.790	26.229	1374.300	1111.394
17.804	26.202	1373.930	1110.826
18.819	26.274	1374.606	1111.716
19.834	26.539	1373.207	1112.116
20.848	26.600	1372.589	1111.895
21.863	26.777	1371.526	1112.017
22.877	26.718	1369.864	1110.212
23.892	26.752	1369.132	1109.726
24.907	26.548	1369.509	1108.687
25.921	26.561	1368.270	1107.665
26.936	26.557	1367.769	1107.137
27.950	26.945	1365.705	1107.735
28.965	26.503	1365.517	1104.791
29.980	26.506	1363.860	1103.367
30.994	26.468	1362.465	1101.909
32.009	26.777	1361.831	1103.180
33.023	26.778	1359.934	1101.552
34.038	26.881	1358.121	1100.610
35.053	26.771	1357.821	1099.602
36.067	26.660	1357.672	1098.716
37.082	26.603	1356.526	1097.345
38.096	26.628	1354.958	1096.132
39.111	26.793	1354.308	1096.503
40.126	26.758	1353.913	1095.876
41.140	26.721	1353.543	1095.257
42.155	26.296	1353.691	1092.712
43.169	26.726	1353.799	1095.302
44.184	26.635	1353.783	1094.640
45.199	26.737	1352.278	1093.938
46.213	26.737	1352.293	1093.855
47.228	26.685	1350.808	1092.247
48.242	26.770	1349.714	1091.773
49.257	26.802	1347.906	1090.408
50.271	26.767	1346.629	1089.068
51.286	26.948	1344.941	1088.697
52.301	26.905	1343.435	1087.123
53.315	26.727	1343.872	1086.309
54.330	26.640	1343.284	1085.221
55.344	26.956	1342.312	1086.229
56.359	26.628	1341.957	1083.881
57.374	26.827	1339.961	1083.363
58.388	26.666	1340.268	1082.552
59.403	26.629	1339.117	1081.309
60.417	26.567	1339.132	1080.853
61.432	26.744	1336.916	1080.025
62.447	26.527	1337.330	1078.968
63.461	26.922	1335.439	1079.699
64.476	26.744	1334.708	1077.958
65.490	26.815	1333.798	1077.544
66.505	26.801	1333.410	1077.053
67.520	26.732	1331.853	1075.294
68.534	26.894	1329.201	1074.013
69.549	26.918	1329.314	1074.155
70.563	26.542	1329.117	1071.670
71.578	26.919	1326.864	1071.991
72.593	26.944	1326.637	1071.857
73.607	26.823	1325.714	1070.305
74.622	26.775	1324.899	1069.267
75.636	26.749	1323.587	1067.960
76.651	26.861	1323.157	1068.180
77.666	26.833	1323.390	1068.108
78.680	26.871	1323.010	1067.932
79.695	26.985	1321.288	1067.117
80.709	26.928	1321.051	1066.496
81.724	26.794	1320.504	1065.176
82.739	26.782	1319.734	1064.386
83.753	26.885	1318.554	1063.946
84.768	26.710	1317.564	1062.029
85.782	26.876	1316.013	1061.656
86.797	26.807	1314.824	1060.200
87.812	27.009	1313.396	1060.130
88.826	27.057	1313.051	1060.041
89.841	26.881	1311.940	1058.023
90.855	27.050	1310.922	1058.092
91.870	26.670	1310.248	1055.244
92.884	26.563	1310.219	1054.501
93.899	26.893	1308.447	1054.902
94.914	26.884	1307.030	1053.613
95.928	27.014	1307.328	1054.517
96.943	26.939	1306.068	1052.972
97.957	27.088	1305.239	1053.072
98.972	26.959	1303.900	1051.150
99.987	26.970	1304.148	1051.323
101.001	27.135	1302.879	1051.161
102.016	26.964	1302.135	1049.478
103.030	26.877	1301.346	1048.249
104.045	26.851	1300.215	1047.096
105.060	26.979	1299.927	1047.511
106.074	27.028	1298.340	1046.420
107.089	27.138	1297.014	1045.889
108.103	26.965	1296.425	1044.331
109.118	27.009	1294.604	1043.024
110.133	27.215	1292.871	1042.717
111.147	27.538	1292.574	1044.235
112.162	26.960	1291.730	1040.147
113.176	26.846	1291.440	1039.174
114.191	26.899	1289.659	1037.950
115.206	26.910	1289.035	1037.420
116.220	27.033	1288.023	1037.213
117.235	27.168	1287.143	1037.182
118.249	27.285	1286.188	1036.993
119.264	26.984	1285.288	1034.460
120.279	27.345	1284.801	1036.032
121.293	27.217	1284.005	1034.566
122.308	27.334	1282.594	1034.005
123.322	27.157	1282.001	1032.429
124.337	27.340	1281.704	1033.141
125.352	27.462	1279.935	1032.313
126.366	27.218	1279.905	1030.815
127.381	26.957	1279.825	1029.181
128.395	27.160	1277.945	1028.725
129.410	27.278	1276.206	1027.901
130.424	27.384	1277.030	1029.075
131.439	27.321	1275.210	1027.162
132.454	27.383	1274.639	1026.958
133.468	27.100	1274.060	1024.808
134.483	27.025	1273.441	1023.794
135.497	27.422	1272.116	1024.874
136.512	27.330	1271.225	1023.548
137.527	27.307	1269.917	1022.273
138.541	27.055	1270.509	1021.244
139.556	27.246	1268.510	1020.620
140.570	27.389	1266.903	1020.035
141.585	27.202	1266.608	1018.660
142.600	27.333	1265.100	1018.091
143.614	27.259	1264.234	1016.893
144.629	26.948	1264.072	1014.934
145.643	27.427	1261.888	1015.760
146.658	27.172	1262.259	1014.546
147.673	27.238	1260.293	1013.246
148.687	27.299	1260.146	1013.378
149.702	27.258	1258.265	1011.547
150.716	27.174	1257.501	1010.377
151.731	27.183	1256.040	1009.161
152.746	27.236	1255.519	1008.949
153.760	27.038	1254.981	1007.331
154.775	27.364	1253.574	1007.919
155.789	27.082	1252.794	1005.640
156.804	27.393	1251.661	1006.359
157.819	27.240	1252.109	1005.782
158.833	27.495	1250.064	1005.459
159.848	27.486	1248.724	1004.245
160.862	27.476	1247.765	1003.328
161.877	27.150	1248.859	1002.321
162.892	27.417	1246.923	1002.151
163.906	27.414	1246.972	1002.086
164.921	27.382	1245.730	1000.819
165.935	27.498	1244.927	1000.728
166.950	27.464	1244.868	1000.404
167.964	27.221	1244.360	998.572
168.979	27.554	1243.372	999.519
169.994	27.603	1242.710	999.167
171.008	27.709	1241.884	998.994
172.023	27.435	1241.170	996.830
173.037	27.585	1239.862	996.510
174.052	27.328	1240.047	995.170
175.067	27.445	1238.363	994.369
176.081	27.805	1237.808	995.798
177.096	27.264	1237.685	992.660
178.110	27.527	1236.317	992.909
179.125	27.556	1234.475	991.496
180.140	27.772	1234.547	992.640
181.154	27.585	1233.305	990.539
182.169	27.598	1232.198	989.636
183.183	27.490	1231.205	988.163
184.198	27.599	1230.393	988.016
185.213	27.639	1229.554	987.469
186.227	27.849	1227.905	987.194
187.242	27.623	1227.451	985.522
188.256	27.643	1227.266	985.394
189.271	27.647	1226.360	984.597
190.286	27.608	1225.355	983.496
191.300	27.536	1225.525	983.153
192.315	27.704	1224.280	982.978
193.329	27.679	1223.824	982.386
194.344	27.766	1223.632	982.615
195.359	27.988	1222.524	982.834
196.373	27.562	1222.378	980.340
197.388	27.472	1223.064	980.315
198.402	27.990	1221.309	981.606
199.417	27.687	1220.834	979.513
200.432	27.555	1221.134	978.953
201.446	27.777	1220.810	979.799
202.461	27.759	1219.997	978.964
203.475	27.516	1219.940	977.532
204.490	27.811	1217.157	976.793
205.504	27.819	1216.924	976.562
206.519	27.790	1216.023	975.596
207.534	27.751	1215.011	974.489
208.548	27.936	1213.677	974.320
209.563	27.572	1215.145	973.467
210.577	27.738	1212.021	971.764
211.592	27.568	1211.592	970.430
212.607	27.803	1210.682	970.865
213.621	27.815	1209.874	970.193
214.636	28.014	1209.468	970.842
215.650	28.023	1207.911	969.552
216.665	28.051	1206.948	968.843
217.680	28.155	1205.669	968.280
218.694	28.192	1204.478	967.434
219.709	27.712	1205.471	965.603
220.723	27.993	1204.956	966.592
221.738	27.683	1204.059	964.153
222.753	27.853	1203.320	964.370
223.767	28.029	1201.903	964.077
224.782	27.854	1202.026	963.166
225.796	28.008	1201.844	963.749
226.811	28.024	1201.410	963.402
227.826	27.968	1200.221	962.066
228.840	28.380	1199.684	963.718
229.855	28.363	1198.190	962.347
230.869	27.937	1198.168	960.002
231.884	28.020	1198.902	960.942
232.899	27.815	1197.405	958.584
233.913	28.062	1197.355	959.756
234.928	27.976	1196.342	958.406
235.942	28.000	1195.454	957.737
236.957	28.295	1194.651	958.551
237.972	28.091	1194.203	957.040
238.986	28.232	1194.217	957.706
240.001	28.081	1192.841	955.728
241.015	28.281	1192.654	956.539
242.030	28.198	1191.812	955.345
243.045	28.338	1190.561	954.988
244.059	28.121	1189.979	953.305
245.074	28.235	1189.022	953.048
246.088	28.264	1188.649	952.813
247.103	28.025	1188.134	951.075
248.117	28.202	1187.449	951.364
249.132	28.367	1186.068	951.028
250.147	28.383	1185.983	950.961
251.161	28.379	1184.040	949.298
252.176	28.426	1183.624	949.122
253.190	28.489	1182.965	948.834
254.205	28.474	1183.264	948.912
255.220	28.461	1182.370	948.043
256.234	28.375	1182.017	947.232
257.249	28.434	1181.124	946.737
258.263	28.704	1179.747	946.947
259.278	28.339	1179.907	945.107
260.293	28.447	1178.925	944.794
261.307	28.561	1178.612	945.045
262.322	28.327	1178.549	943.705
263.336	28.354	1178.002	943.324
264.351	28.337	1177.084	942.416
265.366	28.284	1177.037	942.021
266.380	28.691	1175.342	942.672
267.395	28.486	1175.611	941.753
268.409	28.374	1175.203	940.768
269.424	28.377	1173.624	939.434
270.439	28.605	1173.270	940.237
271.453	28.425	1173.276	939.237
272.468	28.604	1172.710	939.619
273.482	28.437	1171.126	937.410
274.497	28.703	1170.527	938.211
275.512	28.565	1169.936	936.947
276.526	28.561	1170.332	937.162
277.541	28.491	1169.220	935.832
278.555	28.748	1168.342	936.354
279.570	28.518	1167.985	934.814
280.585	28.763	1167.104	935.273
281.599	28.839	1166.118	934.787
282.614	28.733	1164.999	933.269
283.628	28.760	1163.977	932.508
284.643	28.626	1163.526	931.379
285.657	28.855	1161.673	930.978
286.672	28.617	1162.600	930.429
287.687	28.575	1161.631	929.358
288.701	28.632	1160.560	928.709
289.716	28.940	1159.662	929.466
290.730	28.991	1159.814	929.760
291.745	28.901	1159.183	928.719
292.760	28.919	1158.413	928.112
293.774	28.951	1157.094	927.131
294.789	28.873	1156.525	926.203
295.803	28.930	1156.066	926.038
296.818	29.064	1155.070	925.833
297.833	28.749	1155.946	924.869
298.847	28.885	1154.409	924.241
299.862	29.102	1153.319	924.378
300.876	28.828	1153.598	923.141
301.891	28.808	1152.865	922.371
302.906	28.874	1152.435	922.279
303.920	28.942	1151.070	921.443
304.935	29.155	1150.618	922.070
305.949	29.009	1149.218	920.136
306.964	28.968	1148.714	919.446
307.979	29.090	1148.792	920.037
308.993	29.017	1147.790	918.785
310.008	29.188	1146.956	918.893
311.022	29.192	1146.442	918.417
312.037	29.308	1144.792	917.594
313.052	29.105	1144.502	916.267
314.066	29.058	1143.987	915.543
315.081	29.318	1143.646	916.479
316.095	29.093	1142.874	914.663
317.110	29.093	1142.841	914.554
318.125	29.349	1140.656	913.994
319.139	29.134	1141.644	913.639
320.154	29.000	1140.355	911.861
321.168	29.101	1140.296	912.233
322.183	29.110	1139.176	911.302
323.197	29.081	1138.917	910.870
324.212	28.987	1138.554	910.038
325.227	29.158	1137.938	910.307
326.241	29.450	1136.224	910.296
327.256	29.227	1136.078	909.000
328.270	29.130	1136.570	908.833
329.285	29.213	1134.851	907.790
330.300	29.224	1134.792	907.717
331.314	29.402	1133.021	907.093
332.329	29.192	1132.728	905.746
333.343	29.853	1131.338	907.801
334.358	29.343	1130.729	904.731
335.373	29.476	1131.002	905.520
336.387	29.524	1129.878	904.774
337.402	29.357	1129.512	903.583
338.416	29.105	1129.225	902.039
339.431	29.356	1128.273	902.429
340.446	29.558	1128.097	903.195
341.460	29.675	1126.093	902.082
342.475	29.471	1127.297	901.970
343.489	29.350	1126.357	900.547
344.504	29.387	1124.126	898.864
345.519	29.368	1123.358	898.079
346.533	29.498	1122.339	897.817
347.548	29.879	1121.354	898.797
348.562	29.676	1121.794	898.088
349.577	29.364	1121.124	895.956
350.592	29.489	1119.899	895.501
351.606	29.536	1119.442	895.287
352.621	29.746	1118.642	895.584
353.635	29.708	1117.656	894.530
354.650	29.938	1116.714	894.810
355.665	29.754	1116.587	893.740
356.679	29.545	1116.645	892.698
357.694	29.787	1115.680	893.017
358.708	29.607	1115.801	892.165
359.723	29.866	1114.387	892.205
360.738	30.035	1112.879	891.734
361.752	29.541	1113.392	889.684
362.767	29.643	1112.711	889.549
363.781	29.502	1112.957	888.989
364.796	29.796	1111.888	889.474
365.810	29.630	1111.838	888.558
366.825	29.641	1110.658	887.587
367.840	29.727	1111.053	888.237
368.854	29.750	1109.794	887.262
369.869	29.808	1108.458	886.396
370.883	29.773	1107.636	885.491
371.898	30.068	1106.672	886.053
372.913	29.998	1106.805	885.747
373.927	29.811	1106.814	884.779
374.942	29.890	1106.508	884.836
375.956	29.896	1105.067	883.636
376.971	30.039	1104.560	883.830
377.986	30.014	1103.228	882.570
379.000	30.033	1103.629	882.901
380.015	30.082	1103.497	882.953
381.029	30.013	1102.822	882.003
382.044	29.684	1103.140	880.614
383.059	29.953	1100.660	879.836
384.073	30.142	1100.061	880.177
385.088	30.110	1099.590	879.570
386.102	30.075	1099.000	878.854
387.117	29.993	1098.346	877.862
388.132	30.006	1097.487	877.159
389.146	30.137	1096.494	876.909
390.161	30.444	1095.978	877.869
391.175	30.149	1094.906	875.542
392.190	30.045	1094.568	874.705
393.205	30.062	1094.098	874.331
394.219	29.985	1093.886	873.719
395.234	30.177	1093.584	874.305
396.248	30.206	1091.314	872.553
397.263	30.119	1090.997	871.809
398.278	30.040	1090.340	870.839
399.292	30.046	1090.536	870.946
400.307	30.209	1089.702	870.969
401.321	30.490	1088.035	870.876
402.336	29.943	1088.239	868.399
403.350	30.338	1086.783	869.006
404.365	30.155	1086.731	868.033
405.380	30.244	1085.774	867.607
406.394	30.210	1085.563	867.205
407.409	30.118	1085.337	866.517
408.423	30.291	1083.689	865.930
409.438	30.301	1083.086	865.419
410.453	30.470	1081.968	865.238
411.467	30.552	1081.742	865.359
412.482	30.252	1082.101	864.174
413.496	30.438	1079.934	863.230
414.511	30.194	1080.395	862.389
415.526	30.177	1079.799	861.758
416.540	30.156	1078.651	860.667
417.555	30.343	1078.168	861.076
418.569	30.080	1077.621	859.343
419.584	30.053	1077.133	858.751
420.599	30.062	1077.498	859.006
421.613	152.334	1405.769	1793.508
422.628	140.516	1453.576	1793.571
