DTS Sentinel unit serial number:	SN413079Multiplexer serial number:	ORYXHardware model number:	OX4-SRSoftware version number:	ORYX F/W v4.00 Oryx Data Collector v3.7.2.0data status	okinstallation	princeton_trtdifferential loss correction	single-endedforward channel	channel 2reverse channel	N/Adate	2019/09/17time	02:47:34forward acquisition time	60.00reverse acquisition time	0.00gamma	496.2192k internal	0.2327k external	0.2327temperature offset calibration	0.9976default loss term (dB/km)	0.3790temperature slope calibration	1.0000multiplexer offset coefficient	1.0000multiplexer slope coefficient	1.0000fibre end	0.00T internal ref (°C)	29.87T ext. ref 1 (°C)	0.14T ext. ref 2 (°C)	24.86length (m)	temperature (°C)	Stokes	anti-Stokes-747.200	94.323	0.099	0.113
-746.185	-193.168	0.059	-0.001
-745.171	-96.917	0.178	0.047
-744.156	-200.000	-0.032	0.391
-743.142	-145.090	0.683	0.063
-742.127	167.621	-0.097	0.139
-741.112	-22.698	0.245	-0.149
-740.098	-51.147	-0.176	0.083
-739.083	-11.575	0.168	0.111
-738.069	800.000	0.076	0.312
-737.054	111.955	0.167	0.204
-736.039	-69.339	-0.309	-0.120
-735.025	-70.046	0.171	-0.065
-734.010	-37.849	0.074	0.040
-732.996	29.345	-0.351	0.300
-731.981	462.151	-0.191	-0.430
-730.966	19.365	0.102	0.083
-729.952	-66.068	-0.529	0.213
-728.937	-200.000	-0.011	0.062
-727.923	-67.037	-0.131	0.052
-726.908	-97.328	-0.473	0.124
-725.894	-38.829	0.138	-0.073
-724.879	-29.633	0.113	0.065
-723.864	-91.484	-0.264	0.076
-722.850	54.644	0.131	-0.128
-721.835	217.640	0.162	-0.261
-720.821	-46.741	-0.265	0.131
-719.806	161.302	-0.076	0.107
-718.791	800.000	0.025	-0.080
-717.777	23.017	-0.222	-0.183
-716.762	-200.000	-0.022	-0.119
-715.748	-200.000	-0.042	-0.286
-714.733	396.251	-0.045	0.095
-713.718	-90.267	0.071	0.021
-712.704	129.644	-0.061	-0.078
-711.689	77.455	0.090	0.097
-710.675	800.000	-0.081	0.252
-709.660	132.509	-0.167	0.216
-708.645	-200.000	0.066	0.322
-707.631	-200.000	-0.003	-0.249
-706.616	61.368	0.081	0.081
-705.602	184.689	0.077	0.115
-704.587	-97.662	-0.083	0.022
-703.572	19.232	0.135	-0.109
-702.558	-84.382	0.115	-0.037
-701.543	485.538	0.116	-0.266
-700.529	10.600	0.367	-0.281
-699.514	-200.000	-0.039	0.177
-698.499	-185.857	-0.231	0.003
-697.485	359.380	-0.005	-0.010
-696.470	149.300	0.176	-0.240
-695.456	-90.837	-0.263	-0.076
-694.441	-200.000	0.025	0.111
-693.426	-200.000	-0.009	-0.136
-692.412	-75.271	-0.113	-0.040
-691.397	-27.635	-0.099	0.058
-690.383	-200.000	-0.030	0.231
-689.368	76.869	-0.138	0.147
-688.354	800.000	0.008	-0.031
-687.339	-125.435	-0.133	0.020
-686.324	-200.000	0.012	-0.195
-685.310	6.470	0.234	-0.175
-684.295	-200.000	0.334	-0.000
-683.281	-126.902	-0.156	-0.023
-682.266	173.302	0.092	-0.133
-681.251	177.265	-0.049	0.071
-680.237	-101.223	0.406	-0.100
-679.222	-56.712	0.136	0.061
-678.208	-25.053	0.117	-0.070
-677.193	748.924	0.182	0.493
-676.178	10.191	0.209	-0.160
-675.164	-200.000	0.012	-0.160
-674.149	223.263	-0.145	-0.235
-673.135	-48.607	-0.322	0.155
-672.120	762.618	-0.067	-0.183
-671.105	800.000	-0.080	-0.329
-670.091	121.534	-0.160	-0.200
-669.076	-62.130	0.219	-0.092
-668.062	-89.747	0.190	0.056
-667.047	-200.000	-0.033	-0.178
-666.032	270.426	0.075	0.133
-665.018	290.670	-0.076	-0.138
-664.003	-200.000	-0.023	0.117
-662.989	-123.326	-0.085	0.014
-661.974	212.804	0.031	0.049
-660.959	89.251	0.133	0.149
-659.945	42.268	0.180	0.165
-658.930	83.182	0.250	-0.274
-657.916	199.849	0.047	0.073
-656.901	-85.651	-0.111	0.035
-655.886	-13.050	-0.162	-0.106
-654.872	12.123	-0.163	0.126
-653.857	-200.000	-0.018	0.094
-652.843	146.373	0.052	0.071
-651.828	-105.888	-0.262	-0.059
-650.814	-159.316	0.402	0.023
-649.799	76.948	-0.157	-0.167
-648.784	-90.620	-0.131	-0.038
-647.770	-179.356	0.343	0.008
-646.755	-200.000	-0.024	-0.273
-645.741	43.276	0.294	-0.270
-644.726	-93.775	-0.246	0.068
-643.711	170.701	-0.136	-0.195
-642.697	800.000	0.080	-0.234
-641.682	38.924	-0.250	-0.225
-640.668	800.000	-0.082	-0.349
-639.653	-37.429	-0.306	0.164
-638.638	-105.333	0.171	0.039
-637.624	-49.419	0.239	0.114
-636.609	-66.428	0.288	-0.115
-635.595	-112.972	-0.253	-0.050
-634.580	-200.000	-0.009	-0.441
-633.565	800.000	-0.079	0.244
-632.551	800.000	-0.069	-0.218
-631.536	294.947	0.206	-0.378
-630.522	-71.391	0.292	-0.110
-629.507	-121.132	0.251	-0.042
-628.492	-190.934	-0.246	0.003
-627.478	800.000	0.076	0.250
-626.463	-200.000	-0.020	0.116
-625.449	-58.076	0.268	-0.117
-624.434	-45.269	-0.175	-0.087
-623.419	1.283	0.105	0.076
-622.405	282.732	-0.094	0.169
-621.390	-200.000	-0.020	-0.264
-620.376	-135.489	-0.138	0.017
-619.361	525.846	-0.090	-0.212
-618.346	-200.000	-0.004	-0.085
-617.332	-48.651	0.195	0.094
-616.317	-200.000	-0.013	0.347
-615.303	55.326	-0.089	0.086
-614.288	135.595	0.124	0.161
-613.273	-62.936	-0.411	-0.170
-612.259	329.739	0.219	-0.422
-611.244	239.264	-0.266	0.444
-610.230	112.245	0.144	-0.175
-609.215	-44.144	0.249	-0.125
-608.201	205.897	-0.040	-0.062
-607.186	46.345	0.182	-0.169
-606.171	-53.950	-0.235	-0.107
-605.157	-160.900	-0.178	0.009
-604.142	800.000	0.017	0.063
-603.128	-200.000	-0.031	-0.422
-602.113	10.874	-0.212	-0.163
-601.098	225.995	0.155	-0.253
-600.084	-79.839	0.219	0.074
-599.069	-45.888	-0.063	0.031
-598.055	517.031	0.102	0.239
-597.040	-122.791	0.222	-0.036
-596.025	792.480	0.108	0.299
-595.011	-77.127	-0.246	-0.086
-593.996	-50.808	-0.039	-0.018
-592.982	778.254	-0.121	-0.330
-591.967	315.556	-0.040	-0.076
-590.952	-54.884	-0.217	-0.098
-589.938	-92.053	0.372	-0.105
-588.923	-200.000	-0.025	0.158
-587.909	185.131	0.027	-0.041
-586.894	132.395	-0.249	-0.321
-585.879	2.135	0.302	0.218
-584.865	605.410	-0.179	0.447
-583.850	-95.984	-0.181	0.048
-582.836	800.000	0.061	-0.186
-581.821	49.298	-0.068	0.064
-580.806	-200.000	0.020	-0.220
-579.792	-10.398	-0.249	0.166
-578.777	46.836	0.182	0.169
-577.763	163.585	-0.030	-0.043
-576.748	-28.163	0.197	0.114
-575.733	800.000	0.123	0.400
-574.719	-23.580	-0.200	0.120
-573.704	-84.586	-0.208	0.066
-572.690	106.814	0.130	0.154
-571.675	-0.117	0.038	0.027
-570.661	23.451	0.115	0.095
-569.646	-21.375	0.067	-0.041
-568.631	-144.114	-0.304	0.029
-567.617	800.000	-0.070	-0.267
-566.602	718.082	0.064	-0.172
-565.588	-3.790	-0.053	-0.037
-564.573	-200.000	-0.023	0.223
-563.558	-171.496	0.239	-0.008
-562.544	-121.085	0.151	0.025
-561.529	-17.317	-0.268	0.169
-560.515	-49.922	-0.147	0.070
-559.500	-148.278	-0.179	-0.015
-558.485	16.129	-0.124	0.097
-557.471	-127.988	-0.352	0.051
-556.456	-142.703	0.164	0.016
-555.442	-200.000	-0.004	0.259
-554.427	163.620	-0.237	0.334
-553.412	-164.637	0.286	0.013
-552.398	800.000	-0.077	-0.234
-551.383	800.000	0.081	0.228
-550.369	-200.000	0.029	-0.260
-549.354	-200.000	0.036	0.302
-548.339	-42.841	-0.249	-0.127
-547.325	-30.477	-0.093	0.053
-546.310	231.604	-0.059	0.097
-545.296	-65.708	-0.144	0.058
-544.281	-99.075	-0.200	-0.051
-543.266	-92.124	0.253	0.071
-542.252	224.725	-0.032	-0.052
-541.237	-118.859	0.074	-0.013
-540.223	-20.258	-0.278	0.171
-539.208	-92.887	-0.068	-0.019
-538.193	-65.485	0.190	-0.076
-537.179	-200.000	0.086	-0.501
-536.164	-72.504	-0.164	0.061
-535.150	-172.052	0.273	-0.009
-534.135	-11.236	0.203	0.134
-533.121	96.046	-0.034	0.038
-532.106	-35.049	-0.075	0.041
-531.091	-94.474	0.169	-0.046
-530.077	227.288	0.106	-0.173
-529.062	564.753	0.121	0.294
-528.048	363.190	-0.093	-0.187
-527.033	371.171	0.099	-0.200
-526.018	380.864	-0.096	0.197
-525.004	800.000	0.057	0.193
-523.989	-100.542	0.201	0.050
-522.975	800.000	0.033	-0.116
-521.960	-52.843	-0.287	-0.132
-520.945	-47.151	-0.294	-0.143
-519.931	-55.108	-0.168	0.075
-518.916	800.000	-0.055	-0.173
-517.902	-200.000	0.001	0.104
-516.887	22.954	0.153	-0.126
-515.872	1.186	0.087	0.062
-514.858	-65.386	0.172	-0.069
-513.843	-87.484	0.169	-0.051
-512.829	-122.077	-0.173	-0.028
-511.814	-200.000	0.062	-0.336
-510.799	93.279	-0.300	-0.339
-509.785	-178.414	0.495	-0.012
-508.770	-23.115	0.152	0.092
-507.756	-53.503	-0.259	-0.119
-506.741	-200.000	0.005	-0.032
-505.726	-95.711	0.279	-0.075
-504.712	-200.000	0.012	-0.177
-503.697	-13.799	-0.175	0.113
-502.683	800.000	-0.022	0.072
-501.668	-151.629	0.375	-0.028
-500.653	-13.308	0.111	-0.072
-499.639	-24.482	-0.386	0.230
-498.624	152.578	-0.111	-0.152
-497.610	-58.699	-0.339	-0.147
-496.595	151.801	-0.235	-0.321
-495.581	87.724	0.348	0.385
-494.566	800.000	-0.069	0.223
-493.551	-200.000	-0.001	-0.225
-492.537	-200.000	-0.024	0.119
-491.522	-200.000	-0.020	0.362
-490.508	71.204	0.116	-0.120
-489.493	38.795	-0.164	-0.147
-488.478	800.000	-0.075	-0.263
-487.464	-120.825	0.321	0.054
-486.449	-89.597	-0.390	0.114
-485.435	800.000	-0.063	0.245
-484.420	-108.240	-0.067	-0.014
-483.405	-46.169	0.104	0.051
-482.391	-200.000	0.019	-0.156
-481.376	-99.918	0.023	0.006
-480.362	800.000	0.016	-0.065
-479.347	-101.545	-0.098	-0.024
-478.332	-200.000	0.065	0.428
-477.318	-71.150	-0.143	-0.053
-476.303	800.000	-0.076	-0.288
-475.289	11.227	-0.189	-0.144
-474.274	-30.914	-0.262	-0.148
-473.259	-103.369	0.131	0.031
-472.245	-101.872	0.332	-0.080
-471.230	-72.892	0.035	-0.013
-470.216	-45.525	0.492	0.243
-469.201	800.000	0.102	-0.330
-468.186	50.443	0.139	-0.131
-467.172	-200.000	0.019	-0.114
-466.157	236.453	0.065	-0.107
-465.143	317.107	-0.098	-0.184
-464.128	-48.204	0.170	-0.082
-463.113	800.000	-0.103	0.332
-462.099	518.971	0.130	0.304
-461.084	3.419	0.221	0.161
-460.070	-200.000	-0.049	0.443
-459.055	-200.000	-0.026	-0.198
-458.040	200.807	-0.126	-0.193
-457.026	-74.504	0.246	0.088
-456.011	36.237	-0.212	-0.186
-454.997	-200.000	-0.047	0.279
-453.982	8.740	0.230	0.173
-452.968	98.686	-0.199	-0.229
-451.953	95.918	0.161	-0.184
-450.938	800.000	-0.067	-0.252
-449.924	-200.000	0.035	-0.310
-448.909	149.307	-0.105	0.141
-447.895	232.544	-0.045	0.073
-446.880	-80.075	0.114	-0.038
-445.865	76.316	-0.249	0.263
-444.851	-121.465	0.214	-0.036
-443.836	-0.042	0.201	-0.143
-442.822	-134.485	0.273	-0.033
-441.807	-139.161	0.201	-0.022
-440.792	62.073	0.128	0.127
-439.778	-11.224	-0.350	-0.230
-438.763	-28.914	-0.202	-0.116
-437.749	163.787	0.270	-0.379
-436.734	-82.368	-0.304	0.099
-435.719	482.462	-0.103	-0.234
-434.705	-200.000	0.039	-0.240
-433.690	-200.000	0.010	-0.076
-432.676	-65.336	-0.368	-0.147
-431.661	-37.188	0.059	0.031
-430.646	800.000	0.082	0.261
-429.632	5.494	0.215	0.158
-428.617	159.608	0.007	-0.009
-427.603	337.875	-0.155	-0.300
-426.588	-200.000	0.028	0.439
-425.573	-162.022	0.288	0.014
-424.559	-20.049	-0.211	0.130
-423.544	-200.000	0.011	0.071
-422.530	-142.077	0.082	-0.008
-421.515	-25.513	-0.258	0.152
-420.500	-137.126	-0.077	-0.009
-419.486	-98.026	-0.506	-0.130
-418.471	-113.559	0.278	-0.054
-417.457	31.503	-0.117	0.100
-416.442	-33.585	-0.209	-0.115
-415.428	-179.550	0.201	0.004
-414.413	-67.335	-0.545	0.213
-413.398	-26.869	0.138	-0.080
-412.384	-50.506	0.312	0.146
-411.369	-44.355	0.241	-0.120
-410.355	-171.534	0.109	0.004
-409.340	212.241	-0.276	0.432
-408.325	-109.667	0.370	-0.078
-407.311	345.376	0.162	-0.316
-406.296	-200.000	-0.011	-0.179
-405.282	-91.304	-0.186	0.053
-404.267	-70.761	-0.056	0.021
-403.252	2.171	-0.211	-0.152
-402.238	209.895	-0.114	0.178
-401.223	189.294	-0.186	0.277
-400.209	-200.000	-0.033	0.278
-399.194	-200.000	-0.032	-0.165
-398.179	-55.542	-0.172	0.077
-397.165	-89.446	-0.031	0.009
-396.150	140.475	-0.104	-0.137
-395.136	-16.217	0.139	-0.088
-394.121	-123.963	-0.079	-0.012
-393.106	8.359	-0.135	0.101
-392.092	520.706	0.019	-0.044
-391.077	-111.455	-0.428	0.087
-390.063	166.035	0.190	0.267
-389.048	-200.000	0.025	0.368
-388.033	-66.703	0.152	-0.060
-387.019	-74.080	-0.120	-0.043
-386.004	-200.000	0.012	0.113
-384.990	145.217	0.143	-0.191
-383.975	-48.343	-0.186	0.089
-382.960	-58.725	0.098	0.042
-381.946	800.000	-0.048	0.144
-380.931	-200.000	-0.036	0.338
-379.917	-15.221	-0.038	-0.024
-378.902	800.000	0.019	0.053
-377.888	-50.265	0.233	0.109
-376.873	255.846	-0.054	-0.092
-375.858	80.898	0.071	-0.076
-374.844	263.027	-0.164	0.284
-373.829	-63.065	-0.119	0.049
-372.815	86.710	-0.177	0.194
-371.800	84.044	-0.171	-0.186
-370.785	119.474	-0.187	0.230
-369.771	736.459	0.033	-0.089
-368.756	-92.583	0.155	-0.043
-367.742	41.114	-0.004	-0.003
-366.727	-76.924	-0.284	-0.099
-365.712	-107.990	-0.329	0.071
-364.698	59.966	0.067	-0.066
-363.683	138.031	-0.127	0.166
-362.669	-200.000	0.010	0.305
-361.654	16.692	-0.025	-0.020
-360.639	146.717	-0.036	0.049
-359.625	-26.876	-0.333	0.193
-358.610	-17.119	-0.087	0.055
-357.596	800.000	0.061	0.251
-356.581	142.165	-0.206	0.271
-355.566	-36.237	0.263	0.141
-354.552	-109.916	0.063	0.013
-353.537	711.963	0.118	-0.310
-352.523	96.472	-0.213	-0.242
-351.508	-200.000	0.009	0.057
-350.493	192.072	0.048	-0.073
-349.479	-60.746	0.180	-0.076
-348.464	800.000	0.110	0.362
-347.450	35.531	0.146	0.127
-346.435	-120.217	0.165	-0.028
-345.420	-145.501	0.177	0.016
-344.406	-36.351	-0.114	0.061
-343.391	-30.690	-0.106	-0.059
-342.377	-120.169	0.120	0.020
-341.362	-71.596	0.168	0.062
-340.348	-200.000	-0.004	-0.122
-339.333	800.000	-0.043	-0.123
-338.318	397.105	0.214	-0.443
-337.304	-5.611	0.258	-0.176
-336.289	-57.518	0.010	0.005
-335.275	590.617	-0.048	0.118
-334.260	-200.000	0.005	-0.187
-333.245	800.000	-0.035	-0.126
-332.231	-200.000	0.012	0.136
-331.216	-64.073	-0.124	-0.050
-330.202	425.536	0.042	0.089
-329.187	90.057	0.256	-0.284
-328.172	-135.516	-0.136	0.016
-327.158	210.942	-0.130	0.203
-326.143	-123.714	0.093	0.015
-325.129	-200.000	0.007	0.226
-324.114	237.706	0.128	0.211
-323.099	335.725	0.086	-0.165
-322.085	-200.000	-0.094	-0.423
-321.070	-105.662	-0.400	0.090
-320.056	274.329	0.105	-0.185
-319.041	147.939	0.293	0.391
-318.026	-101.064	-0.310	0.075
-317.012	244.945	-0.105	-0.175
-315.997	-151.121	-0.172	0.013
-314.983	-56.740	-0.116	-0.051
-313.968	16.382	0.212	0.166
-312.953	-1.342	-0.071	-0.050
-311.939	-165.487	0.204	0.009
-310.924	-64.945	-0.070	0.028
-309.910	190.905	0.122	0.182
-308.895	-200.000	0.046	-0.344
-307.880	211.571	0.123	0.192
-306.866	-186.435	-0.181	0.003
-305.851	-37.590	-0.211	0.112
-304.837	-86.043	-0.412	-0.126
-303.822	503.357	-0.054	-0.123
-302.807	31.597	0.087	-0.074
-301.793	800.000	-0.121	-0.363
-300.778	164.017	-0.130	-0.181
-299.764	-89.938	0.258	0.075
-298.749	800.000	0.042	-0.133
-297.735	-63.328	0.134	-0.055
-296.720	179.274	0.243	0.353
-295.705	-102.933	-0.390	0.092
-294.691	-33.664	-0.246	-0.135
-293.676	-200.000	-0.044	0.210
-292.662	368.509	0.170	0.340
-291.647	-177.668	-0.133	-0.003
-290.632	150.967	0.066	0.089
-289.618	800.000	0.071	0.252
-288.603	318.491	0.114	0.214
-287.589	-182.317	0.448	-0.008
-286.574	-200.000	0.022	0.139
-285.559	170.233	0.283	-0.401
-284.545	-70.898	0.159	0.059
-283.530	-10.409	-0.244	-0.160
-282.516	-0.432	0.256	-0.180
-281.501	-42.459	0.242	0.122
-280.486	141.174	-0.045	-0.059
-279.472	800.000	-0.047	-0.178
-278.457	-200.000	0.015	0.185
-277.443	-82.049	0.111	0.036
-276.428	-200.000	-0.008	0.084
-275.413	154.905	0.069	0.094
-274.399	-200.000	0.020	-0.337
-273.384	800.000	-0.116	-0.380
-272.370	-200.000	0.013	0.119
-271.355	476.997	-0.148	0.331
-270.340	399.859	0.053	-0.110
-269.326	-78.068	0.190	-0.065
-268.311	126.866	-0.284	-0.356
-267.297	-200.000	-0.028	0.302
-266.282	800.000	-0.026	0.098
-265.267	168.131	0.115	0.162
-264.253	554.721	-0.126	0.299
-263.238	-44.111	-0.229	-0.114
-262.224	-105.651	-0.141	0.032
-261.209	-200.000	-0.016	-0.285
-260.195	26.649	0.219	-0.181
-259.180	302.226	0.067	-0.123
-258.165	-180.089	0.095	0.002
-257.151	-116.704	0.155	-0.028
-256.136	40.882	0.242	-0.216
-255.122	110.223	-0.300	0.357
-254.107	800.000	-0.073	0.242
-253.092	-134.502	0.062	-0.007
-252.078	82.773	0.106	-0.114
-251.063	-56.330	-0.351	-0.154
-250.049	-9.755	0.209	-0.138
-249.034	196.583	0.179	-0.269
-248.019	-200.000	-0.019	0.297
-247.005	-54.331	-0.104	-0.047
-245.990	0.887	0.280	-0.198
-244.976	122.755	-0.065	0.080
-243.961	-86.353	-0.264	0.080
-242.946	-63.840	0.151	-0.061
-241.932	-136.410	-0.480	0.055
-240.917	-200.000	-0.024	-0.307
-239.903	-119.865	0.203	0.034
-238.888	-200.000	0.018	0.347
-237.873	-154.459	0.227	0.015
-236.859	-57.827	0.247	0.107
-235.844	-200.000	0.009	-0.094
-234.830	800.000	0.118	0.374
-233.815	104.323	0.114	0.133
-232.800	22.294	-0.148	0.119
-231.786	-200.000	-0.015	-0.281
-230.771	-5.431	0.179	-0.121
-229.757	609.423	-0.142	0.351
-228.742	-114.903	-0.339	0.064
-227.727	-200.000	-0.037	-0.175
-226.713	-141.433	-0.282	-0.028
-225.698	177.675	-0.292	-0.421
-224.684	-200.000	0.035	0.205
-223.669	479.921	0.192	-0.430
-222.655	-88.518	0.183	0.054
-221.640	673.572	-0.107	-0.274
-220.625	-54.765	-0.110	-0.049
-219.611	58.999	-0.114	0.110
-218.596	37.363	-0.252	0.221
-217.582	382.356	-0.178	0.361
-216.567	49.882	-0.122	0.114
-215.552	-20.110	0.411	0.250
-214.538	7.868	0.097	-0.072
-213.523	65.023	-0.107	0.107
-212.509	-200.000	0.063	0.304
-211.494	505.099	0.116	0.264
-210.479	297.011	0.176	-0.320
-209.465	-121.893	-0.261	0.042
-208.450	79.436	0.197	-0.209
-207.436	112.814	0.065	0.077
-206.421	-112.785	-0.228	0.045
-205.406	-19.228	0.268	-0.164
-204.392	-200.000	0.018	0.227
-203.377	-102.958	0.034	-0.008
-202.363	-39.689	-0.068	-0.035
-201.348	60.372	0.297	-0.290
-200.333	800.000	0.084	0.296
-199.319	-28.670	0.288	0.164
-198.304	800.000	0.110	0.314
-197.290	-27.903	-0.066	-0.038
-196.275	-105.936	-0.362	-0.081
-195.260	-200.000	-0.005	-0.094
-194.246	404.450	-0.104	-0.216
-193.231	-31.995	-0.123	-0.068
-192.217	-200.000	0.004	-0.132
-191.202	-104.208	0.225	0.052
-190.187	-129.674	0.257	-0.035
-189.173	800.000	0.055	0.198
-188.158	140.230	0.203	0.264
-187.144	-58.336	-0.372	-0.160
-186.129	-200.000	0.026	0.266
-185.114	362.198	0.081	-0.159
-184.100	800.000	-0.093	0.265
-183.085	800.000	0.033	0.132
-182.071	-31.572	-0.152	0.084
-181.056	16.125	-0.127	0.099
-180.042	403.778	-0.156	0.324
-179.027	178.771	0.122	-0.176
-178.012	-99.165	-0.125	-0.031
-176.998	-8.805	-0.285	-0.188
-175.983	-73.940	0.091	0.033
-174.969	-200.000	-0.000	0.156
-173.954	621.918	0.109	-0.270
-172.939	-95.431	0.169	-0.045
-171.925	372.299	0.192	0.385
-170.910	-200.000	0.050	0.247
-169.896	585.199	0.065	-0.158
-168.881	-200.000	-0.010	0.086
-167.866	131.415	-0.137	0.173
-166.852	-200.000	0.057	0.436
-165.837	296.253	0.109	-0.196
-164.823	87.845	-0.067	-0.073
-163.808	-200.000	-0.026	-0.164
-162.793	11.939	0.170	-0.129
-161.779	5.928	0.142	0.104
-160.764	-16.832	0.410	-0.256
-159.750	157.319	0.209	-0.285
-158.735	-31.709	-0.056	-0.031
-157.720	-200.000	-0.035	-0.381
-156.706	-0.945	-0.121	-0.085
-155.691	-2.554	0.391	0.270
-154.677	134.095	0.121	0.155
-153.662	204.438	-0.075	-0.115
-152.647	379.955	0.135	0.272
-151.633	325.954	0.102	-0.192
-150.618	800.000	0.152	-0.415
-149.604	144.963	-0.096	0.126
-148.589	37.912	-0.221	0.194
-147.574	-200.000	-0.067	0.316
-146.560	-3.936	0.233	0.159
-145.545	61.470	0.075	-0.074
-144.531	-200.000	0.073	0.328
-143.516	132.683	0.078	0.099
-142.502	-200.000	-0.008	0.046
-141.487	140.292	0.044	0.058
-140.472	-86.317	0.232	-0.070
-139.458	800.000	-0.034	-0.101
-138.443	37.340	-0.141	-0.123
-137.429	-76.172	-0.194	0.067
-136.414	-200.000	-0.006	0.198
-135.399	377.913	-0.105	0.212
-134.385	-200.000	0.022	0.209
-133.370	84.147	-0.046	0.049
-132.356	273.780	0.177	-0.308
-131.341	-200.000	-0.003	-0.206
-130.326	28.430	0.186	-0.155
-129.312	204.718	-0.225	0.344
-128.297	14.965	0.215	-0.165
-127.283	-200.000	-0.049	-0.442
-126.268	20.940	0.138	0.110
-125.253	284.984	0.114	-0.203
-124.239	800.000	-0.054	-0.221
-123.224	800.000	-0.050	0.178
-122.210	-200.000	-0.003	-0.045
-121.195	-200.000	0.009	-0.105
-120.180	-191.768	0.377	-0.004
-119.166	-117.626	0.301	0.053
-118.151	-15.816	0.208	0.130
-117.137	63.884	0.086	-0.085
-116.122	108.016	0.134	-0.157
-115.107	-123.458	-0.135	-0.021
-114.093	-18.034	0.244	0.150
-113.078	-179.674	-0.087	-0.002
-112.064	800.000	0.030	-0.126
-111.049	178.278	0.027	-0.039
-110.034	-3.212	0.131	0.090
-109.020	-75.891	0.193	0.067
-108.005	566.722	0.201	0.480
-106.991	-200.000	-0.020	-0.166
-105.976	-16.894	0.055	-0.034
-104.962	-136.137	-0.109	0.013
-103.947	414.175	0.073	0.152
-102.932	-200.000	0.008	-0.134
-101.918	-66.190	0.295	0.116
-100.903	54.754	-0.264	0.251
-99.889	-177.165	0.313	-0.008
-98.874	70.877	-0.158	0.161
-97.859	371.988	0.095	0.190
-96.845	303.732	0.135	-0.246
-95.830	-113.257	0.085	0.017
-94.816	-66.852	0.336	0.131
-93.801	243.259	-0.108	0.177
-92.786	207.625	-0.069	-0.106
-91.772	-200.000	0.037	-0.291
-90.757	9.443	0.116	0.086
-89.743	-116.357	0.366	0.066
-88.728	-33.342	-0.337	-0.183
-87.713	543.135	-0.084	-0.197
-86.699	-75.782	0.259	0.090
-85.684	-162.688	0.137	-0.007
-84.670	-161.600	0.040	-0.002
-83.655	317.126	0.052	-0.097
-82.640	-62.164	-0.356	-0.146
-81.626	75.170	-0.110	-0.114
-80.611	-61.768	0.273	0.112
-79.597	-56.587	-0.132	0.058
-78.582	95.455	0.080	0.089
-77.567	137.226	-0.177	0.227
-76.553	-93.895	0.121	0.033
-75.538	-200.000	0.001	-0.080
-74.524	-200.000	0.011	0.051
-73.509	-200.000	-0.012	-0.243
-72.494	-109.266	-0.111	0.023
-71.480	60.244	0.205	0.199
-70.465	74.874	-0.137	0.141
-69.451	54.428	-0.205	-0.193
-68.436	520.922	-0.073	0.167
-67.422	127.219	0.152	0.190
-66.407	727.728	0.065	-0.171
-65.392	-34.339	0.202	-0.109
-64.378	-200.000	-0.064	0.280
-63.363	38.159	0.065	-0.057
-62.349	800.000	-0.112	0.419
-61.334	51.062	-0.965	-0.899
-60.319	-200.000	0.046	0.623
-59.305	622.707	-0.455	-1.125
-58.290	173.551	0.855	1.211
-57.276	324.950	0.749	1.406
-56.261	-200.000	106.129	576.889
-55.246	458.148	1458.743	3182.853
-54.232	148.589	2651.276	3515.382
-53.217	100.252	2290.775	2608.162
-52.203	38.966	1903.540	1669.447
-51.188	33.037	1692.195	1439.037
-50.173	30.514	1648.830	1383.350
-49.159	48.578	1700.850	1564.054
-48.144	49.140	1716.486	1582.621
-47.130	32.596	1674.879	1420.764
-46.115	30.038	1660.290	1389.178
-45.100	29.835	1655.497	1383.593
-44.086	29.843	1652.995	1381.511
-43.071	29.668	1650.972	1378.455
-42.057	29.829	1647.431	1376.645
-41.042	29.795	1645.814	1374.986
-40.027	29.748	1643.673	1372.792
-39.013	29.732	1642.392	1371.553
-37.998	29.669	1640.759	1369.669
-36.984	29.769	1639.388	1369.208
-35.969	29.884	1637.451	1368.382
-34.954	29.918	1635.821	1367.219
-33.940	29.896	1634.232	1365.675
-32.925	29.936	1632.484	1364.453
-31.911	29.889	1630.871	1362.709
-30.896	29.830	1629.133	1360.768
-29.881	29.888	1627.236	1359.554
-28.867	29.849	1625.862	1358.065
-27.852	29.846	1624.573	1356.916
-26.838	29.885	1622.913	1355.762
-25.823	29.924	1621.344	1354.679
-24.809	29.968	1620.195	1353.991
-23.794	29.783	1619.313	1351.844
-22.779	29.835	1617.428	1350.601
-21.765	29.797	1615.724	1348.842
-20.750	29.848	1613.924	1347.662
-19.736	29.894	1612.544	1346.788
-18.721	29.971	1611.248	1346.214
-17.706	29.925	1609.686	1344.522
-16.692	29.821	1608.674	1342.869
-15.677	29.853	1607.115	1341.746
-14.663	29.938	1605.529	1340.979
-13.648	29.954	1604.034	1339.793
-12.633	29.965	1602.204	1338.295
-11.619	29.885	1601.355	1336.955
-10.604	29.975	1599.258	1335.802
-9.590	29.889	1598.298	1334.327
-8.575	29.973	1597.458	1334.178
-7.560	29.970	1595.965	1332.850
-6.546	29.923	1594.860	1331.543
-5.531	29.916	1594.025	1330.742
-4.517	29.780	1593.214	1329.032
-3.502	29.882	1591.612	1328.379
-2.487	29.892	1590.090	1327.127
-1.473	29.677	1577.868	1315.343
-0.458	27.058	1559.360	1281.409
0.556	22.034	1560.820	1251.902
1.571	19.864	1584.896	1255.369
2.586	19.474	1598.436	1263.125
3.600	17.881	1546.072	1210.353
4.615	9.991	1435.908	1071.855
5.629	1.918	1370.781	971.854
6.644	0.242	1362.238	955.093
7.659	0.165	1360.664	953.417
8.673	0.090	1360.006	952.393
9.688	0.043	1358.033	950.631
10.702	0.010	1354.586	947.930
11.717	3.767	1360.938	976.047
12.731	12.489	1374.667	1041.253
13.746	17.508	1381.221	1077.979
14.761	17.310	1379.975	1075.663
15.775	16.257	1377.175	1066.731
16.790	15.299	1373.995	1058.128
17.804	14.464	1372.039	1051.268
18.819	14.148	1370.496	1047.999
19.834	13.869	1369.237	1045.190
20.848	13.643	1367.897	1042.651
21.863	13.389	1366.519	1039.914
22.877	13.251	1365.562	1038.225
23.892	13.189	1364.660	1037.059
24.907	13.157	1364.329	1036.517
25.921	13.211	1363.126	1035.851
26.936	13.267	1362.192	1035.397
27.950	13.299	1361.264	1034.804
28.965	13.297	1360.415	1034.053
29.980	13.402	1359.197	1033.690
30.994	13.459	1358.056	1033.088
32.009	13.426	1357.732	1032.543
33.023	13.412	1356.366	1031.327
34.038	13.394	1355.060	1030.133
35.053	13.375	1354.272	1029.321
36.067	13.432	1352.524	1028.258
37.082	13.362	1351.899	1027.259
38.096	13.351	1351.250	1026.606
39.111	13.402	1350.418	1026.196
40.126	13.348	1349.508	1025.079
41.140	13.328	1348.713	1024.263
42.155	13.229	1348.465	1023.371
43.169	13.194	1348.158	1022.827
44.184	13.183	1347.965	1022.523
45.199	13.221	1347.684	1022.453
46.213	13.213	1346.636	1021.518
47.228	13.216	1346.092	1021.038
48.242	13.231	1344.896	1020.128
49.257	13.293	1343.734	1019.544
50.271	13.263	1341.876	1017.854
51.286	13.357	1340.845	1017.567
52.301	13.362	1339.237	1016.284
53.315	13.363	1338.254	1015.451
54.330	13.211	1337.626	1013.953
55.344	13.247	1336.535	1013.260
56.359	13.231	1335.202	1012.064
57.374	13.289	1334.201	1011.569
58.388	13.225	1333.727	1010.729
59.403	13.234	1332.738	1009.944
60.417	13.208	1331.961	1009.108
61.432	13.144	1331.517	1008.288
62.447	13.192	1330.306	1007.577
63.461	13.121	1329.020	1006.078
64.476	13.156	1327.875	1005.335
65.490	13.219	1326.597	1004.663
66.505	13.200	1325.076	1003.308
67.520	13.081	1324.309	1001.919
68.534	13.181	1322.860	1001.339
69.549	13.128	1322.010	1000.284
70.563	13.267	1320.495	999.892
71.578	13.101	1319.997	998.423
72.593	13.039	1318.914	997.139
73.607	12.907	1318.571	995.997
74.622	13.121	1317.411	996.321
75.636	13.035	1316.361	994.922
76.651	13.120	1315.590	994.761
77.666	13.052	1315.168	993.947
78.680	13.055	1314.845	993.630
79.695	13.103	1313.731	992.989
80.709	13.140	1312.979	992.556
81.724	13.223	1312.253	992.420
82.739	13.276	1311.260	991.898
83.753	13.190	1310.664	990.841
84.768	13.318	1309.244	990.450
85.782	13.332	1308.501	989.882
86.797	13.305	1306.985	988.487
87.812	13.278	1305.624	987.212
88.826	13.454	1304.258	987.140
89.841	13.351	1303.307	985.719
90.855	13.311	1302.536	984.810
91.870	13.327	1301.751	984.226
92.884	13.398	1300.723	983.785
93.899	13.393	1300.095	983.189
94.914	13.609	1298.913	983.489
95.928	13.526	1298.036	982.249
96.943	13.387	1297.286	980.770
97.957	13.373	1296.648	980.117
98.972	13.387	1295.356	979.137
99.987	13.515	1294.420	979.098
101.001	13.431	1293.439	977.773
102.016	13.448	1292.286	976.916
103.030	13.412	1291.627	976.121
104.045	13.388	1290.952	975.383
105.060	13.405	1289.456	974.263
106.074	13.170	1288.826	972.323
107.089	13.161	1287.179	970.938
108.103	13.152	1285.857	969.806
109.118	13.249	1284.570	969.317
110.133	13.296	1283.274	968.524
111.147	13.263	1281.841	967.170
112.162	13.325	1280.822	966.677
113.176	13.243	1279.889	965.406
114.191	13.383	1278.622	965.183
115.206	13.267	1278.018	963.967
116.220	13.270	1276.398	962.676
117.235	13.347	1275.282	962.198
118.249	13.219	1274.892	961.071
119.264	13.230	1273.456	959.970
120.279	13.285	1272.423	959.423
121.293	13.268	1271.241	958.350
122.308	13.250	1270.041	957.256
123.322	13.263	1269.336	956.714
124.337	13.174	1268.519	955.498
125.352	13.225	1267.286	954.779
126.366	13.267	1265.691	953.736
127.381	13.183	1264.843	952.530
128.395	13.249	1263.828	952.062
129.410	13.301	1263.248	951.838
130.424	13.289	1262.185	950.884
131.439	13.265	1261.407	950.077
132.454	13.240	1260.621	949.260
133.468	13.315	1259.386	948.675
134.483	13.373	1258.978	948.613
135.497	13.256	1258.016	947.134
136.512	13.347	1256.478	946.416
137.527	13.228	1255.303	944.764
138.541	13.419	1253.143	944.146
139.556	13.334	1252.484	943.082
140.570	13.287	1251.679	942.124
141.585	13.429	1249.768	941.411
142.600	13.393	1249.389	940.834
143.614	13.522	1247.701	940.212
144.629	13.467	1247.077	939.352
145.643	13.527	1245.769	938.619
146.658	13.475	1244.328	937.157
147.673	13.402	1243.052	935.701
148.687	13.324	1242.571	934.816
149.702	13.453	1241.131	934.381
150.716	13.459	1239.187	932.867
151.731	13.415	1238.394	931.937
152.746	13.478	1237.119	931.250
153.760	13.499	1235.789	930.285
154.775	13.506	1235.000	929.647
155.789	13.620	1233.639	929.182
156.804	13.529	1233.048	928.143
157.819	13.603	1231.534	927.334
158.833	13.603	1230.850	926.738
159.848	13.559	1230.408	926.079
160.862	13.638	1229.020	925.392
161.877	13.504	1228.100	923.869
162.892	13.494	1226.977	922.888
163.906	13.606	1225.533	922.342
164.921	13.478	1225.333	921.398
165.935	13.665	1223.947	921.316
166.950	13.600	1223.642	920.641
167.964	13.622	1222.519	919.839
168.979	13.708	1221.836	919.721
169.994	13.636	1221.275	918.818
171.008	13.665	1220.269	918.139
172.023	13.592	1219.863	917.347
173.037	13.704	1218.988	917.232
174.052	13.693	1217.755	916.160
175.067	13.667	1216.557	915.033
176.081	13.624	1215.933	914.247
177.096	13.648	1214.857	913.489
178.110	13.610	1213.963	912.527
179.125	13.710	1212.695	912.042
180.140	13.741	1211.343	911.114
181.154	13.649	1210.267	909.721
182.169	13.735	1209.035	909.187
183.183	13.875	1207.855	908.984
184.198	13.786	1207.144	907.883
185.213	13.765	1206.019	906.842
186.227	13.877	1204.940	906.562
187.242	13.879	1203.565	905.458
188.256	13.864	1202.859	904.763
189.271	13.972	1202.109	904.708
190.286	13.744	1201.433	902.878
191.300	13.686	1200.063	901.455
192.315	13.647	1199.566	900.786
193.329	13.601	1199.420	900.351
194.344	13.675	1198.424	899.921
195.359	13.880	1197.273	900.090
196.373	13.894	1197.160	900.003
197.388	13.863	1196.933	899.585
198.402	14.005	1196.217	899.734
199.417	14.079	1195.218	899.306
200.432	14.101	1194.285	898.643
201.446	14.162	1193.362	898.194
202.461	14.147	1192.785	897.603
203.475	14.144	1192.056	896.955
204.490	14.150	1190.361	895.634
205.504	14.046	1189.418	894.287
206.519	14.129	1188.023	893.604
207.534	14.069	1187.290	892.654
208.548	14.084	1186.596	892.135
209.563	14.036	1185.941	891.302
210.577	14.053	1184.726	890.405
211.592	14.266	1183.504	890.544
212.607	14.266	1182.833	889.960
213.621	14.209	1181.808	888.807
214.636	14.125	1181.378	887.955
215.650	14.258	1180.103	887.628
216.665	14.266	1179.007	886.769
217.680	14.282	1178.517	886.405
218.694	14.312	1177.233	885.521
219.709	14.349	1176.807	885.320
220.723	14.331	1176.090	884.605
221.738	14.276	1175.488	883.785
222.753	14.357	1174.794	883.614
223.767	14.376	1173.958	883.005
224.782	14.431	1173.194	882.646
225.796	14.486	1172.817	882.574
226.811	14.467	1171.851	881.667
227.826	14.326	1171.610	880.663
228.840	14.546	1170.402	880.838
229.855	14.424	1169.810	879.675
230.869	14.403	1169.038	878.902
231.884	14.462	1168.267	878.559
232.899	14.468	1167.432	877.884
233.913	14.337	1166.869	876.691
234.928	14.424	1165.887	876.337
235.942	14.389	1165.365	875.684
236.957	14.431	1164.309	875.032
237.972	14.424	1164.044	874.716
238.986	14.348	1163.333	873.705
240.001	14.437	1162.339	873.352
241.015	14.485	1161.247	872.705
242.030	14.429	1160.794	871.991
243.045	14.544	1159.778	871.755
244.059	14.508	1159.354	871.170
245.074	14.512	1158.161	870.215
246.088	14.481	1157.676	869.615
247.103	14.583	1156.619	869.272
248.117	14.699	1156.035	869.364
249.132	14.787	1155.170	869.095
250.147	14.723	1154.690	868.324
251.161	14.835	1153.909	868.239
252.176	14.802	1153.271	867.512
253.190	14.872	1152.323	867.083
254.205	14.923	1151.943	866.986
255.220	15.019	1151.107	866.777
256.234	14.935	1150.746	865.992
257.249	14.975	1150.011	865.571
258.263	15.023	1149.262	865.182
259.278	15.085	1148.290	864.689
260.293	15.005	1148.131	864.081
261.307	15.039	1147.463	863.676
262.322	15.086	1147.095	863.566
263.336	15.110	1146.171	862.920
264.351	15.077	1146.003	862.545
265.366	15.024	1145.609	861.898
266.380	15.136	1144.370	861.468
267.395	15.063	1143.588	860.428
268.409	15.100	1142.634	859.825
269.424	15.052	1142.311	859.258
270.439	15.134	1141.839	859.249
271.453	15.121	1141.030	858.498
272.468	15.110	1139.613	857.297
273.482	15.039	1139.190	856.538
274.497	15.168	1138.596	856.677
275.512	15.066	1138.234	855.807
276.526	15.071	1137.193	854.974
277.541	15.191	1136.127	854.713
278.555	15.158	1135.784	854.210
279.570	15.157	1134.992	853.534
280.585	15.263	1133.964	853.225
281.599	15.258	1133.513	852.784
282.614	15.273	1132.643	852.130
283.628	15.292	1131.195	851.061
284.643	15.315	1130.113	850.289
285.657	15.258	1129.766	849.663
286.672	15.299	1128.798	849.065
287.687	15.314	1127.818	848.330
288.701	15.393	1127.134	848.140
289.716	15.485	1126.132	847.774
290.730	15.276	1125.684	846.309
291.745	15.479	1124.649	846.479
292.760	15.480	1124.123	846.013
293.774	15.476	1123.730	845.623
294.789	15.505	1123.160	845.266
295.803	15.452	1122.583	844.490
296.818	15.521	1121.561	843.994
297.833	15.569	1120.573	843.415
298.847	15.383	1120.170	842.105
299.862	15.509	1119.131	841.883
300.876	15.618	1118.385	841.791
301.891	15.479	1118.376	841.015
302.906	15.599	1117.211	840.665
303.920	15.530	1117.288	840.299
304.935	15.662	1116.234	840.092
305.949	15.665	1115.275	839.311
306.964	15.740	1114.648	839.142
307.979	15.815	1113.832	838.825
308.993	15.738	1113.307	837.975
310.008	15.733	1112.597	837.341
311.022	15.782	1111.872	836.964
312.037	15.647	1111.302	835.788
313.052	15.757	1109.592	834.973
314.066	15.729	1109.188	834.459
315.081	15.670	1108.400	833.499
316.095	15.678	1107.472	832.769
317.110	15.714	1106.829	832.386
318.125	15.649	1106.104	831.450
319.139	15.703	1105.596	831.259
320.154	15.620	1105.037	830.356
321.168	15.762	1104.215	830.367
322.183	15.717	1103.857	829.800
323.197	15.838	1102.809	829.535
324.212	15.755	1102.738	828.998
325.227	15.885	1101.971	828.992
326.241	15.835	1101.543	828.349
327.256	15.784	1100.547	827.277
328.270	15.787	1099.732	826.603
329.285	15.944	1098.429	826.322
330.300	15.860	1097.487	825.130
331.314	15.797	1096.823	824.248
332.329	15.949	1095.665	824.051
333.343	15.960	1094.839	823.411
334.358	15.930	1094.144	822.665
335.373	16.000	1093.333	822.326
336.387	16.012	1092.614	821.770
337.402	16.088	1092.228	821.778
338.416	15.843	1091.719	820.130
339.431	16.049	1090.801	820.368
340.446	16.024	1090.533	819.975
341.460	16.135	1089.832	819.913
342.475	16.184	1088.800	819.305
343.489	16.313	1087.266	818.700
344.504	16.207	1087.332	818.163
345.519	16.158	1086.419	817.167
346.533	16.134	1085.961	816.634
347.548	16.222	1085.173	816.397
348.562	16.219	1084.067	815.479
349.577	16.257	1082.978	814.769
350.592	16.247	1082.383	814.199
351.606	16.306	1081.285	813.586
352.621	16.268	1081.031	813.141
353.635	16.274	1080.301	812.548
354.650	16.232	1079.329	811.543
355.665	16.317	1078.748	811.442
356.679	16.341	1077.926	810.868
357.694	16.400	1077.712	810.917
358.708	16.473	1076.809	810.520
359.723	16.280	1076.574	809.344
360.738	16.357	1075.588	808.903
361.752	16.394	1075.314	808.802
362.767	16.407	1074.690	808.322
363.781	16.473	1074.090	808.115
364.796	16.438	1073.712	807.589
365.810	16.506	1072.768	807.132
366.825	16.562	1072.034	806.777
367.840	16.671	1071.541	806.856
368.854	16.588	1071.062	806.029
369.869	16.631	1070.223	805.528
370.883	16.562	1069.649	804.698
371.898	16.483	1068.920	803.700
372.913	16.659	1068.455	804.116
373.927	16.598	1067.963	803.388
374.942	16.552	1067.191	802.516
375.956	16.674	1066.671	802.634
376.971	16.721	1065.867	802.178
377.986	16.813	1065.389	802.185
379.000	16.858	1065.000	802.032
380.015	16.933	1064.220	801.730
381.029	16.822	1063.679	800.726
382.044	16.829	1063.195	800.325
383.059	16.918	1062.064	799.824
384.073	16.805	1062.162	799.290
385.088	16.767	1061.011	798.175
386.102	16.885	1059.944	797.858
387.117	16.854	1058.860	796.824
388.132	16.814	1057.929	795.867
389.146	16.847	1056.987	795.244
390.161	16.911	1056.418	795.046
391.175	16.949	1055.437	794.413
392.190	16.930	1054.931	793.876
393.205	16.994	1054.365	793.677
394.219	17.005	1053.630	793.107
395.234	16.984	1052.656	792.206
396.248	16.944	1051.636	791.179
397.263	16.940	1050.839	790.491
398.278	16.956	1050.193	790.010
399.292	16.839	1049.616	788.960
400.307	16.843	1049.140	788.552
401.321	16.978	1048.271	788.457
402.336	17.031	1047.354	787.943
403.350	16.961	1046.576	786.965
404.365	17.118	1045.647	786.924
405.380	17.041	1045.099	786.084
406.394	17.111	1044.422	785.830
407.409	17.178	1043.481	785.361
408.423	17.126	1042.960	784.659
409.438	17.170	1042.128	784.168
410.453	17.246	1041.749	784.165
411.467	17.188	1041.386	783.554
412.482	17.220	1040.698	783.113
413.496	17.306	1039.807	782.772
414.511	17.235	1039.231	781.943
415.526	17.387	1038.674	782.153
416.540	17.401	1038.232	781.812
417.555	17.407	1037.677	781.352
418.569	17.397	1036.999	780.731
419.584	17.521	1036.478	780.835
420.599	17.481	1035.982	780.210
421.613	102.999	1321.786	1467.457
422.628	94.411	1363.397	1467.581
