DTS Sentinel unit serial number:	SN413079Multiplexer serial number:	ORYXHardware model number:	OX4-SRSoftware version number:	ORYX F/W v4.00 Oryx Data Collector v3.7.2.0data status	okinstallation	princeton_trtdifferential loss correction	single-endedforward channel	channel 2reverse channel	N/Adate	2019/09/13time	13:03:35forward acquisition time	60.00reverse acquisition time	0.00gamma	496.2192k internal	0.2315k external	0.2315temperature offset calibration	1.0208default loss term (dB/km)	0.3790temperature slope calibration	1.0000multiplexer offset coefficient	1.0000multiplexer slope coefficient	1.0000fibre end	0.00T internal ref (°C)	34.81T ext. ref 1 (°C)	4.57T ext. ref 2 (°C)	31.23length (m)	temperature (°C)	Stokes	anti-Stokes-747.200	150.884	-0.092	0.127
-746.185	-28.851	0.276	0.161
-745.171	-200.000	0.005	0.108
-744.156	-200.000	0.051	0.252
-743.142	-200.000	0.019	-0.245
-742.127	-179.868	-0.150	0.003
-741.112	18.529	0.153	0.124
-740.098	-89.571	-0.061	-0.018
-739.083	277.513	-0.104	-0.188
-738.069	-44.104	-0.176	-0.090
-737.054	18.863	0.218	-0.177
-736.039	380.125	-0.161	-0.334
-735.025	35.534	0.288	-0.256
-734.010	-37.443	-0.370	0.200
-732.996	148.532	-0.149	0.204
-731.981	-78.574	-0.116	0.040
-730.966	-97.387	-0.088	-0.023
-729.952	-148.966	-0.295	0.024
-728.937	-200.000	0.093	0.414
-727.923	6.161	0.174	0.130
-726.908	-75.204	-0.313	0.113
-725.894	32.420	-0.159	-0.139
-724.879	800.000	0.061	-0.207
-723.864	-109.034	-0.234	-0.051
-722.850	111.373	0.105	0.128
-721.835	179.150	-0.192	-0.285
-720.821	-109.449	0.212	-0.045
-719.806	-8.814	0.031	-0.021
-718.791	-31.854	-0.268	0.152
-717.777	-200.000	0.090	0.520
-716.762	158.561	-0.223	0.313
-715.748	26.299	0.300	0.254
-714.733	-133.707	0.435	-0.055
-713.718	-34.029	-0.162	0.090
-712.704	64.323	-0.190	0.194
-711.689	-138.016	0.191	-0.022
-710.675	-109.496	-0.104	0.022
-709.660	-17.424	-0.139	0.089
-708.645	300.013	-0.156	0.291
-707.631	55.066	-0.182	-0.178
-706.616	-200.000	-0.024	-0.110
-705.602	-138.296	0.279	0.031
-704.587	-12.667	-0.209	0.138
-703.572	644.099	-0.052	-0.135
-702.558	-16.107	-0.244	0.157
-701.543	10.365	-0.175	-0.134
-700.529	-90.525	-0.388	-0.114
-699.514	-130.494	-0.431	-0.059
-698.499	-170.391	0.215	-0.008
-697.485	-114.520	-0.218	0.042
-696.470	13.883	-0.234	-0.184
-695.456	198.516	0.152	-0.236
-694.441	401.043	-0.069	0.145
-693.426	312.443	0.031	-0.060
-692.412	-44.835	0.151	-0.076
-691.397	19.409	0.115	-0.094
-690.383	132.622	-0.136	0.178
-689.368	75.510	0.203	0.217
-688.354	-61.631	-0.095	0.040
-687.339	-200.000	0.043	-0.271
-686.324	225.517	-0.126	-0.207
-685.310	-200.000	-0.068	-0.313
-684.295	-200.000	0.037	-0.469
-683.281	-145.947	-0.089	-0.008
-682.266	-88.358	-0.146	0.044
-681.251	676.520	-0.044	0.116
-680.237	118.177	-0.273	0.340
-679.222	67.061	0.056	0.058
-678.208	-200.000	-0.018	-0.396
-677.193	346.787	-0.049	0.098
-676.178	-108.537	0.119	0.026
-675.164	224.846	0.172	-0.281
-674.149	7.277	-0.118	0.089
-673.135	-200.000	-0.013	-0.239
-672.120	-67.393	-0.186	0.074
-671.105	-7.548	-0.206	0.141
-670.091	122.411	-0.051	-0.064
-669.076	-81.712	0.198	0.066
-668.062	-200.000	-0.001	-0.027
-667.047	-81.747	0.091	-0.030
-666.032	-82.833	0.065	0.021
-665.018	104.489	-0.135	-0.161
-664.003	-83.577	-0.255	0.082
-662.989	-101.875	-0.241	-0.059
-661.974	216.846	-0.145	0.233
-660.959	203.709	0.150	-0.234
-659.945	-80.468	0.303	-0.102
-658.930	23.814	0.249	-0.207
-657.916	-161.203	-0.281	0.015
-656.901	735.664	-0.046	0.124
-655.886	-96.888	-0.117	-0.031
-654.872	295.140	0.186	-0.343
-653.857	-42.168	0.138	0.071
-652.843	-200.000	0.027	-0.200
-651.828	42.632	-0.125	0.115
-650.814	-200.000	0.037	-0.365
-649.799	-62.183	0.223	0.094
-648.784	-9.289	-0.107	-0.072
-647.770	288.223	0.158	-0.289
-646.755	-17.574	0.088	0.056
-645.741	-138.802	-0.080	0.009
-644.726	-33.508	0.152	-0.085
-643.711	-200.000	0.025	0.222
-642.697	-138.958	0.249	-0.027
-641.682	-55.718	-0.343	0.155
-640.668	84.061	0.177	0.195
-639.653	800.000	-0.078	-0.225
-638.638	-17.042	-0.205	-0.131
-637.624	-118.946	-0.095	0.017
-636.609	800.000	-0.081	-0.232
-635.595	421.330	0.145	-0.314
-634.580	46.865	-0.232	0.218
-633.565	346.643	-0.104	0.206
-632.551	-200.000	0.012	-0.181
-631.536	-200.000	0.003	-0.052
-630.522	31.361	-0.240	0.208
-629.507	-111.066	0.227	0.047
-628.492	-145.125	0.215	-0.020
-627.478	347.966	-0.167	0.332
-626.463	95.849	0.121	-0.140
-625.449	721.040	0.083	-0.223
-624.434	-200.000	0.056	-0.268
-623.419	-102.019	-0.124	-0.030
-622.405	36.692	0.178	-0.158
-621.390	108.479	-0.074	-0.090
-620.376	217.609	0.050	0.081
-619.361	-200.000	0.002	-0.034
-618.346	589.639	-0.104	0.258
-617.332	-6.438	-0.300	0.206
-616.317	-82.646	0.160	-0.052
-615.303	-13.825	-0.060	0.039
-614.288	182.072	-0.085	0.127
-613.273	-200.000	0.017	0.136
-612.259	-200.000	0.000	-0.010
-611.244	512.907	-0.126	0.295
-610.230	-152.226	-0.077	-0.006
-609.215	707.556	-0.049	0.132
-608.201	-66.405	0.234	0.094
-607.186	-124.109	-0.215	-0.034
-606.171	239.294	0.095	0.160
-605.157	-139.861	0.173	0.018
-604.142	2.026	0.141	-0.103
-603.128	1.407	-0.014	-0.010
-602.113	-200.000	-0.009	0.174
-601.098	42.275	0.031	-0.029
-600.084	-18.994	0.148	-0.093
-599.069	-200.000	-0.033	0.228
-598.055	800.000	0.067	-0.238
-597.040	-200.000	0.016	0.130
-596.025	-134.568	-0.064	0.008
-595.011	-200.000	-0.005	-0.333
-593.996	-200.000	-0.026	-0.192
-592.982	-200.000	-0.013	0.170
-591.967	-121.550	-0.152	-0.025
-590.952	-150.444	-0.144	-0.011
-589.938	213.421	-0.145	-0.230
-588.923	-85.430	0.076	-0.024
-587.909	145.267	-0.093	0.126
-586.894	1.091	-0.309	0.224
-585.879	55.046	-0.106	0.103
-584.865	-13.554	0.098	-0.064
-583.850	-63.805	0.197	0.081
-582.836	101.171	0.155	-0.181
-581.821	247.913	-0.218	0.371
-580.806	-11.367	0.210	0.139
-579.792	-200.000	-0.005	-0.244
-578.777	-191.287	0.110	0.001
-577.763	-60.781	0.192	0.082
-576.748	28.345	0.148	-0.126
-575.733	140.245	0.176	0.234
-574.719	57.334	-0.226	0.222
-573.704	52.011	0.222	-0.213
-572.690	59.849	0.017	-0.017
-571.675	200.189	0.089	0.138
-570.661	-37.510	-0.083	0.045
-569.646	52.082	-0.117	-0.112
-568.631	-54.696	-0.088	0.040
-567.617	-81.452	0.506	-0.168
-566.602	126.808	0.099	-0.126
-565.588	-55.525	-0.087	-0.039
-564.573	800.000	0.121	-0.425
-563.558	-10.096	-0.167	-0.111
-562.544	-200.000	-0.000	0.029
-561.529	-42.787	0.267	-0.137
-560.515	62.601	-0.151	0.151
-559.500	547.782	-0.111	0.267
-558.485	2.303	0.099	-0.072
-557.471	-43.498	-0.247	-0.126
-556.456	-200.000	-0.035	-0.373
-555.442	192.593	-0.059	-0.089
-554.427	-5.964	-0.102	0.070
-553.412	134.585	0.111	0.145
-552.398	-200.000	0.007	0.393
-551.383	238.860	-0.180	0.301
-550.369	92.448	-0.151	-0.171
-549.354	800.000	0.037	0.107
-548.339	49.803	-0.218	-0.207
-547.325	-200.000	0.014	0.061
-546.310	361.438	-0.070	-0.141
-545.296	-148.057	0.254	-0.021
-544.281	255.218	-0.047	0.081
-543.266	446.228	-0.150	0.331
-542.252	-200.000	0.081	0.432
-541.237	-45.875	0.216	-0.107
-540.223	79.154	0.203	0.219
-539.208	-200.000	0.029	-0.201
-538.193	-2.902	0.267	-0.187
-537.179	161.052	0.220	0.309
-536.164	800.000	-0.062	0.187
-535.150	81.282	0.152	0.166
-534.135	-101.138	0.182	0.045
-533.121	112.319	0.056	0.068
-532.106	418.290	-0.023	-0.050
-531.091	-200.000	0.028	-0.424
-530.077	111.470	-0.156	0.189
-529.062	-11.332	-0.353	0.233
-528.048	155.422	-0.228	-0.316
-527.033	-200.000	0.059	-0.435
-526.018	71.557	-0.081	0.084
-525.004	-23.646	-0.223	-0.134
-523.989	-31.653	-0.339	0.191
-522.975	515.828	0.143	0.336
-521.960	-88.740	0.119	-0.036
-520.945	20.240	0.127	0.103
-519.931	-28.489	0.221	-0.128
-518.916	81.629	0.192	0.209
-517.902	-42.766	0.011	-0.006
-516.887	16.603	-0.074	0.059
-515.872	104.845	-0.270	0.320
-514.858	-8.357	0.177	0.120
-513.843	-14.568	-0.244	-0.157
-512.829	-55.594	0.024	0.011
-511.814	-102.846	0.287	-0.069
-510.799	576.654	-0.077	0.188
-509.785	126.357	-0.235	-0.299
-508.770	-125.436	-0.175	0.027
-507.756	-64.664	0.178	-0.072
-506.741	-110.666	-0.325	-0.067
-505.726	4.124	0.145	-0.107
-504.712	-19.697	0.219	-0.136
-503.697	-126.991	-0.311	0.046
-502.683	11.917	0.056	0.043
-501.668	7.355	-0.121	0.090
-500.653	359.219	0.058	-0.117
-499.639	-200.000	0.020	0.356
-498.624	-200.000	0.014	-0.277
-497.610	313.981	-0.123	-0.233
-496.595	800.000	-0.023	-0.068
-495.581	5.562	-0.154	0.114
-494.566	-121.892	-0.049	-0.008
-493.551	116.313	-0.354	-0.435
-492.537	-63.608	0.048	0.020
-491.522	-24.113	-0.284	-0.170
-490.508	-64.798	-0.455	0.185
-489.493	800.000	-0.023	0.087
-488.478	800.000	-0.069	0.248
-487.464	257.909	-0.239	0.412
-486.449	20.487	-0.026	0.021
-485.435	-200.000	-0.064	-0.306
-484.420	546.061	-0.065	-0.156
-483.405	-154.189	-0.139	-0.009
-482.391	-135.851	0.479	0.057
-481.376	-6.912	0.245	0.167
-480.362	-197.573	-0.550	-0.003
-479.347	-200.000	0.013	-0.153
-478.332	-65.824	-0.095	-0.038
-477.318	93.438	0.141	-0.160
-476.303	-15.909	-0.073	0.046
-475.289	125.280	-0.090	-0.114
-474.274	12.938	0.114	0.088
-473.259	-47.386	0.306	-0.149
-472.245	-91.222	0.168	0.048
-471.230	-200.000	0.032	-0.238
-470.216	331.726	-0.173	-0.334
-469.201	-91.299	0.319	-0.092
-468.186	-49.028	0.309	-0.148
-467.172	-154.500	-0.240	-0.016
-466.157	-45.252	-0.252	-0.126
-465.143	-110.836	0.278	0.058
-464.128	-200.000	0.008	-0.144
-463.113	-126.341	-0.075	0.011
-462.099	-42.962	-0.254	-0.129
-461.084	800.000	0.124	-0.435
-460.070	419.938	-0.190	0.408
-459.055	244.724	-0.107	0.180
-458.040	-200.000	0.070	0.398
-457.026	-172.794	-0.054	-0.002
-456.011	32.986	0.237	0.206
-454.997	18.719	0.177	-0.142
-453.982	524.991	0.257	-0.606
-452.968	177.954	-0.072	0.105
-451.953	111.168	-0.101	-0.122
-450.938	800.000	0.054	0.176
-449.924	800.000	-0.061	-0.204
-448.909	213.522	-0.062	-0.098
-447.895	800.000	0.047	-0.187
-446.880	94.826	0.132	-0.151
-445.865	408.517	0.090	-0.191
-444.851	213.184	0.054	-0.085
-443.836	-142.062	0.353	-0.035
-442.822	399.130	0.029	-0.061
-441.807	70.859	-0.018	-0.019
-440.792	800.000	-0.016	0.054
-439.778	51.096	0.105	0.100
-438.763	144.965	-0.044	0.060
-437.749	93.209	-0.021	0.024
-436.734	800.000	0.051	0.222
-435.719	99.765	-0.137	-0.159
-434.705	800.000	-0.043	0.125
-433.690	71.057	-0.259	-0.268
-432.676	-200.000	0.024	-0.409
-431.661	-78.672	-0.169	-0.058
-430.646	-105.435	0.009	-0.002
-429.632	-64.172	-0.117	-0.048
-428.617	-151.093	0.370	0.028
-427.603	196.711	-0.181	-0.276
-426.588	-83.808	-0.156	0.050
-425.573	62.003	-0.089	-0.089
-424.559	-102.065	-0.116	-0.028
-423.544	758.625	0.035	-0.096
-422.530	63.747	0.158	0.159
-421.515	-47.518	-0.137	-0.066
-420.500	42.119	-0.059	0.054
-419.486	-61.643	-0.119	0.050
-418.471	74.405	0.165	-0.173
-417.457	-60.962	0.135	-0.057
-416.442	-85.288	0.224	-0.070
-415.428	11.725	0.135	0.103
-414.413	-108.567	-0.409	-0.088
-413.398	-95.313	0.220	0.059
-412.384	-49.914	0.071	-0.034
-411.369	-55.529	0.140	-0.063
-410.355	63.307	-0.231	-0.231
-409.340	-200.000	-0.019	0.095
-408.325	800.000	-0.092	0.265
-407.311	-110.198	-0.068	-0.014
-406.296	-70.031	-0.192	-0.073
-405.282	34.054	-0.217	-0.189
-404.267	-92.488	-0.279	-0.078
-403.252	-69.662	0.047	-0.018
-402.238	10.819	0.291	0.222
-401.223	117.507	0.137	-0.168
-400.209	541.143	0.021	-0.050
-399.194	-27.805	0.064	-0.037
-398.179	557.656	0.082	0.198
-397.165	-38.367	-0.182	0.096
-396.150	800.000	-0.026	-0.077
-395.136	-87.293	-0.218	0.066
-394.121	34.451	-0.181	0.158
-393.106	10.353	0.290	-0.221
-392.092	-147.662	0.250	0.021
-391.077	-112.499	-0.155	-0.031
-390.063	-114.241	-0.373	0.072
-389.048	583.260	0.065	0.160
-388.033	-21.474	-0.080	-0.049
-387.019	-200.000	-0.020	0.153
-386.004	-200.000	-0.012	0.072
-384.990	-43.971	0.040	-0.020
-383.975	-91.164	-0.128	0.037
-382.960	-199.222	0.166	-0.001
-381.946	160.476	-0.089	-0.124
-380.931	590.387	-0.070	-0.173
-379.917	30.525	-0.060	-0.051
-378.902	-89.555	-0.138	0.040
-377.888	-200.000	0.037	0.244
-376.873	800.000	0.006	0.026
-375.858	800.000	0.042	-0.117
-374.844	83.065	0.021	-0.023
-373.829	-200.000	-0.043	-0.330
-372.815	-30.224	0.175	0.099
-371.800	255.291	0.054	-0.093
-370.785	80.533	-0.068	-0.073
-369.771	800.000	-0.074	-0.284
-368.756	800.000	0.046	-0.195
-367.742	-200.000	-0.024	-0.174
-366.727	-115.728	-0.194	-0.036
-365.712	234.695	0.187	0.308
-364.698	34.214	0.435	-0.379
-363.683	435.881	0.128	-0.279
-362.669	-95.888	-0.310	-0.083
-361.654	66.042	0.214	0.217
-360.639	-157.910	-0.071	0.004
-359.625	7.308	0.046	0.035
-358.610	-27.021	-0.201	0.117
-357.596	-200.000	-0.097	0.445
-356.581	-200.000	-0.046	0.283
-355.566	-172.224	-0.293	-0.009
-354.552	45.661	0.148	0.136
-353.537	393.373	-0.084	-0.174
-352.523	-63.417	-0.095	0.039
-351.508	196.907	0.164	-0.249
-350.493	-163.004	-0.286	0.014
-349.479	-108.971	0.069	-0.015
-348.464	800.000	-0.056	-0.215
-347.450	58.391	0.100	0.098
-346.435	157.797	-0.127	0.176
-345.420	234.279	-0.094	0.154
-344.406	83.512	0.294	-0.320
-343.391	-200.000	0.004	-0.305
-342.377	-130.109	-0.092	0.012
-341.362	-200.000	-0.035	-0.197
-340.348	350.368	-0.046	0.091
-339.333	242.518	0.162	0.270
-338.318	128.373	0.313	-0.397
-337.304	-200.000	-0.013	-0.103
-336.289	-200.000	-0.044	-0.236
-335.275	-200.000	0.023	0.189
-334.260	-166.776	0.155	0.006
-333.245	535.840	-0.151	-0.358
-332.231	800.000	-0.061	0.241
-331.216	14.270	-0.237	-0.184
-330.202	118.470	-0.085	0.104
-329.187	132.755	-0.124	0.159
-328.172	232.368	0.037	-0.061
-327.158	-200.000	-0.040	0.179
-326.143	-62.322	-0.118	-0.049
-325.129	7.618	0.098	0.073
-324.114	-156.529	-0.232	0.014
-323.099	85.921	0.054	-0.059
-322.085	-94.576	-0.324	0.088
-321.070	555.187	-0.074	0.177
-320.056	-54.931	0.073	-0.033
-319.041	308.902	0.167	0.311
-318.026	190.585	-0.099	0.149
-317.012	128.377	-0.023	-0.029
-315.997	778.089	-0.050	0.136
-314.983	-188.414	0.123	-0.002
-313.968	-9.217	-0.155	0.103
-312.953	6.174	0.116	-0.086
-311.939	148.360	0.188	-0.253
-310.924	57.736	0.126	-0.123
-309.910	-125.117	0.496	0.076
-308.895	-3.793	0.483	0.334
-307.880	9.767	-0.121	0.091
-306.866	-200.000	0.022	-0.303
-305.851	451.052	0.081	-0.177
-304.837	231.647	0.223	0.365
-303.822	643.711	-0.039	0.100
-302.807	192.261	0.153	-0.229
-301.793	323.896	0.036	-0.069
-300.778	-200.000	0.091	-0.401
-299.764	-45.658	-0.288	-0.142
-298.749	124.751	-0.066	0.083
-297.735	-84.966	0.289	0.090
-296.720	-95.317	-0.080	0.021
-295.705	78.761	0.137	-0.146
-294.691	398.453	-0.079	0.165
-293.676	-128.256	0.271	0.038
-292.662	-58.599	0.160	0.069
-291.647	-110.247	-0.218	-0.045
-290.632	60.394	0.288	0.284
-289.618	-200.000	0.012	0.412
-288.603	-65.881	0.021	-0.008
-287.589	-23.012	0.106	-0.063
-286.574	-129.345	-0.144	-0.020
-285.559	-49.628	0.410	0.194
-284.545	36.151	-0.257	0.225
-283.530	66.975	-0.147	0.149
-282.516	800.000	-0.147	0.452
-281.501	-200.000	0.056	0.313
-280.486	-64.685	0.196	-0.079
-279.472	800.000	-0.064	-0.207
-278.457	104.593	-0.113	0.133
-277.443	-200.000	-0.008	-0.232
-276.428	72.392	-0.054	-0.056
-275.413	-200.000	0.013	0.228
-274.399	2.946	-0.194	0.140
-273.384	64.308	-0.218	0.218
-272.370	-57.714	-0.156	0.068
-271.355	-200.000	0.008	0.049
-270.340	-78.616	0.176	0.060
-269.326	10.256	0.281	-0.213
-268.311	800.000	-0.099	0.364
-267.297	-200.000	-0.009	-0.044
-266.282	740.680	0.070	-0.188
-265.267	-130.952	-0.199	-0.026
-264.253	439.431	-0.094	-0.205
-263.238	200.772	-0.243	0.371
-262.224	615.869	-0.085	0.213
-261.209	-200.000	-0.032	0.290
-260.195	800.000	0.027	0.089
-259.180	171.489	-0.113	0.161
-258.165	61.787	-0.080	0.080
-257.151	800.000	-0.012	-0.037
-256.136	-87.527	-0.247	0.074
-255.122	95.286	0.150	-0.170
-254.107	-200.000	-0.013	-0.101
-253.092	-200.000	-0.016	-0.287
-252.078	800.000	0.091	-0.316
-251.063	69.056	-0.115	0.117
-250.049	660.114	0.117	0.298
-249.034	800.000	0.058	0.225
-248.019	2.538	-0.056	0.040
-247.005	115.481	0.045	0.055
-245.990	-200.000	-0.003	-0.297
-244.976	6.119	-0.062	-0.045
-243.961	-156.985	-0.067	0.004
-242.946	-142.404	-0.221	0.022
-241.932	135.202	0.130	0.167
-240.917	70.705	0.290	0.298
-239.903	8.384	0.224	0.168
-238.888	800.000	-0.145	0.412
-237.873	54.719	0.191	-0.183
-236.859	-114.940	0.145	0.027
-235.844	-19.984	0.164	-0.101
-234.830	-48.540	0.257	-0.123
-233.815	-108.218	0.230	0.049
-232.800	-200.000	0.000	-0.041
-231.786	-58.457	0.150	-0.065
-230.771	59.038	0.399	0.390
-229.757	800.000	-0.060	0.224
-228.742	-146.926	0.132	-0.011
-227.727	236.870	-0.200	0.329
-226.713	-159.072	0.056	0.003
-225.698	-86.907	0.291	0.088
-224.684	193.287	-0.086	-0.130
-223.669	-36.637	-0.457	0.244
-222.655	-102.929	-0.060	0.014
-221.640	233.501	0.148	0.241
-220.625	0.703	0.349	0.248
-219.611	520.054	0.074	-0.171
-218.596	-113.267	-0.201	0.039
-217.582	56.105	0.128	0.124
-216.567	-118.572	0.192	0.034
-215.552	800.000	0.045	0.139
-214.538	65.622	-0.187	-0.188
-213.523	-200.000	-0.043	0.269
-212.509	93.765	0.094	0.106
-211.494	-41.210	-0.369	0.189
-210.479	29.056	0.145	0.122
-209.465	17.296	-0.025	0.020
-208.450	-81.360	-0.152	0.050
-207.436	17.918	0.165	0.131
-206.421	800.000	-0.055	0.180
-205.406	185.580	0.143	-0.211
-204.392	-23.050	0.138	-0.083
-203.377	744.012	0.097	-0.258
-202.363	-86.886	-0.379	-0.115
-201.348	34.023	0.100	0.086
-200.333	-17.850	-0.150	0.093
-199.319	-200.000	-0.036	-0.307
-198.304	-101.452	-0.216	0.052
-197.290	30.516	-0.136	-0.116
-196.275	175.766	-0.108	0.155
-195.260	-200.000	-0.054	-0.364
-194.246	-140.060	0.124	-0.013
-193.231	229.591	0.037	-0.060
-192.217	196.026	0.017	0.026
-191.202	144.615	-0.074	-0.098
-190.187	8.543	-0.224	0.167
-189.173	-200.000	0.008	-0.229
-188.158	119.459	-0.199	-0.244
-187.144	191.881	0.281	-0.420
-186.129	264.661	-0.291	-0.502
-185.114	484.742	0.010	-0.022
-184.100	800.000	0.073	-0.260
-183.085	208.426	0.195	0.303
-182.071	-92.880	-0.228	0.063
-181.056	-53.910	0.294	-0.133
-180.042	-81.467	0.361	-0.118
-179.027	-44.966	0.148	0.073
-178.012	800.000	-0.039	-0.146
-176.998	456.126	-0.082	0.181
-175.983	-200.000	-0.041	-0.249
-174.969	30.140	0.329	-0.279
-173.954	800.000	-0.079	0.300
-172.939	-200.000	0.001	-0.090
-171.925	-50.603	0.087	0.041
-170.910	800.000	-0.021	0.088
-169.896	-170.087	-0.127	0.004
-168.881	456.251	-0.089	-0.196
-167.866	-75.276	0.274	0.097
-166.852	486.407	0.055	0.125
-165.837	-200.000	-0.008	-0.446
-164.823	-200.000	0.015	-0.288
-163.808	-15.208	-0.253	0.161
-162.793	-200.000	-0.020	-0.111
-161.779	-200.000	-0.048	0.509
-160.764	-54.717	-0.132	-0.059
-159.750	407.730	0.134	-0.280
-158.735	-200.000	-0.010	0.293
-157.720	-66.978	-0.275	0.108
-156.706	80.274	0.228	-0.244
-155.691	-63.529	0.327	-0.133
-154.677	-157.825	-0.221	0.013
-153.662	43.712	-0.195	0.177
-152.647	-81.224	0.217	-0.071
-151.633	800.000	0.015	-0.055
-150.618	-116.729	0.227	-0.041
-149.604	-70.410	-0.227	0.085
-148.589	238.188	0.022	0.037
-147.574	37.391	-0.191	0.167
-146.560	-90.379	-0.297	-0.085
-145.545	-200.000	-0.040	-0.313
-144.531	-114.576	-0.277	0.053
-143.516	69.989	0.031	0.031
-142.502	-131.639	0.239	-0.031
-141.487	-165.688	-0.422	-0.018
-140.472	-87.251	-0.351	0.106
-139.458	-82.030	-0.099	0.032
-138.443	10.241	0.083	-0.063
-137.429	-200.000	-0.017	-0.283
-136.414	-200.000	0.014	0.263
-135.399	7.799	-0.219	-0.162
-134.385	-47.364	-0.338	-0.163
-133.370	-20.328	-0.180	-0.110
-132.356	-88.556	0.171	0.050
-131.341	-34.951	-0.528	0.285
-130.326	429.013	-0.119	0.254
-129.312	-200.000	-0.049	0.409
-128.297	85.154	-0.351	0.381
-127.283	-45.687	0.198	-0.097
-126.268	800.000	-0.198	-0.573
-125.253	-200.000	0.017	-0.187
-124.239	-9.379	-0.303	-0.200
-123.224	800.000	-0.043	-0.177
-122.210	-200.000	-0.015	0.076
-121.195	-72.294	-0.249	-0.091
-120.180	393.264	-0.107	0.220
-119.166	-83.227	-0.275	-0.087
-118.151	517.598	0.016	0.037
-117.137	800.000	-0.041	0.140
-116.122	-200.000	0.066	0.434
-115.107	8.386	-0.234	-0.174
-114.093	-116.105	-0.186	-0.034
-113.078	272.921	-0.039	0.068
-112.064	657.532	-0.098	-0.249
-111.049	1.720	-0.129	0.092
-110.034	-200.000	-0.047	-0.223
-109.020	-200.000	0.389	0.001
-108.005	101.461	0.106	0.122
-106.991	-54.716	0.022	-0.010
-105.976	-200.000	0.065	0.316
-104.962	-200.000	-0.055	-0.320
-103.947	249.816	-0.165	-0.276
-102.932	-132.560	-0.076	0.010
-101.918	-127.268	-0.214	-0.031
-100.903	23.006	0.045	-0.037
-99.889	-64.134	0.150	-0.060
-98.874	-159.739	0.180	-0.010
-97.859	59.017	-0.008	-0.008
-96.845	-198.065	-0.533	-0.003
-95.830	800.000	-0.027	0.114
-94.816	101.585	0.042	-0.049
-93.801	-200.000	-0.030	0.180
-92.786	-169.605	0.463	-0.017
-91.772	35.467	-0.206	0.178
-90.757	-138.321	-0.491	0.054
-89.743	-6.451	-0.222	0.150
-88.728	-200.000	-0.015	-0.353
-87.713	-200.000	0.067	-0.315
-86.699	281.724	0.140	0.247
-85.684	6.866	0.281	-0.207
-84.670	-145.629	-0.089	0.008
-83.655	800.000	-0.036	-0.121
-82.640	-200.000	-0.044	-0.248
-81.626	-62.641	0.142	0.058
-80.611	684.087	-0.134	0.346
-79.597	16.864	0.147	-0.115
-78.582	92.518	0.220	-0.245
-77.567	242.704	0.192	0.317
-76.553	100.247	-0.104	-0.119
-75.538	800.000	0.054	0.149
-74.524	13.788	0.390	0.299
-73.509	329.818	0.035	-0.067
-72.494	-200.000	0.007	0.166
-71.480	800.000	-0.079	0.278
-70.465	-140.990	0.454	0.046
-69.451	-200.000	-0.028	0.171
-68.436	-129.038	-0.099	-0.014
-67.422	-20.989	-0.249	0.151
-66.407	401.012	-0.072	0.148
-65.392	800.000	0.114	0.330
-64.378	131.762	0.137	0.174
-63.363	388.202	-0.106	0.216
-62.349	552.358	0.020	0.046
-61.334	45.713	-0.877	-0.800
-60.319	33.721	0.328	0.281
-59.305	-200.000	-0.081	-1.055
-58.290	800.000	0.260	0.838
-57.276	800.000	0.539	1.607
-56.261	-200.000	95.760	560.773
-55.246	638.408	1386.088	3476.011
-54.232	185.483	2619.894	3837.822
-53.217	115.624	2323.405	2802.046
-52.203	44.692	1934.063	1754.273
-51.188	38.289	1718.390	1509.355
-50.173	35.314	1673.191	1447.187
-49.159	51.614	1721.807	1614.396
-48.144	55.194	1738.828	1657.679
-47.130	37.769	1695.954	1485.447
-46.115	34.828	1680.995	1450.015
-45.100	34.702	1675.808	1444.537
-44.086	34.662	1673.432	1442.127
-43.071	34.670	1670.553	1439.652
-42.057	34.724	1668.001	1437.802
-41.042	34.654	1666.377	1435.817
-40.027	34.660	1664.197	1433.923
-39.013	34.635	1662.696	1432.387
-37.998	34.615	1660.887	1430.626
-36.984	34.678	1659.618	1429.944
-35.969	34.845	1657.529	1429.336
-34.954	34.806	1656.174	1427.818
-33.940	34.886	1654.025	1426.504
-32.925	34.857	1652.359	1424.800
-31.911	34.852	1650.465	1423.074
-30.896	34.839	1648.809	1421.491
-29.881	34.788	1647.330	1419.780
-28.867	34.876	1645.307	1418.631
-27.852	34.794	1643.727	1416.605
-26.838	34.874	1641.841	1415.513
-25.823	34.815	1641.237	1414.503
-24.809	34.810	1639.987	1413.332
-23.794	34.880	1638.338	1412.372
-22.779	34.746	1637.273	1410.408
-21.765	34.732	1635.208	1408.472
-20.750	34.775	1633.326	1407.114
-19.736	34.826	1632.121	1406.390
-18.721	34.819	1630.718	1405.077
-17.706	34.886	1628.678	1403.753
-16.692	34.858	1627.167	1402.188
-15.677	34.830	1625.393	1400.404
-14.663	34.822	1624.684	1399.678
-13.648	34.859	1623.190	1398.602
-12.633	34.970	1621.325	1397.757
-11.619	34.799	1620.041	1395.339
-10.604	34.869	1618.082	1394.110
-9.590	34.864	1617.561	1393.573
-8.575	34.800	1616.352	1392.005
-7.560	34.843	1615.099	1391.185
-6.546	34.949	1613.362	1390.405
-5.531	34.769	1612.628	1388.411
-4.517	34.764	1611.697	1387.513
-3.502	34.818	1610.486	1386.808
-2.487	34.945	1608.281	1385.779
-1.473	34.704	1597.109	1374.359
-0.458	31.910	1577.032	1337.145
0.556	30.157	1576.614	1299.196
1.571	27.293	1600.158	1298.073
2.586	26.014	1612.014	1298.377
3.600	22.468	1557.362	1229.537
4.615	13.769	1445.903	1084.804
5.629	5.988	1380.330	986.779
6.644	4.629	1371.471	971.866
7.659	4.562	1370.162	970.433
8.673	4.542	1369.384	969.675
9.688	4.548	1367.428	968.238
10.702	4.567	1364.992	966.548
11.717	8.202	1372.317	994.340
12.731	17.159	1388.045	1061.885
13.746	22.439	1397.152	1101.892
14.761	22.663	1395.873	1102.191
15.775	21.920	1393.824	1095.835
16.790	20.907	1390.711	1086.974
17.804	20.129	1388.731	1080.485
18.819	19.847	1387.450	1077.632
19.834	19.662	1386.116	1075.352
20.848	19.557	1385.310	1073.976
21.863	19.309	1383.990	1071.318
22.877	19.215	1383.042	1069.908
23.892	19.133	1382.460	1068.855
24.907	19.129	1381.263	1067.811
25.921	19.174	1380.042	1067.050
26.936	19.219	1378.863	1066.321
27.950	19.117	1379.065	1065.754
28.965	19.283	1377.337	1065.349
29.980	19.438	1376.548	1065.601
30.994	19.603	1375.345	1065.590
32.009	19.591	1374.336	1064.645
33.023	19.565	1372.993	1063.347
34.038	19.410	1371.499	1061.141
35.053	19.236	1370.388	1059.119
36.067	19.314	1369.482	1058.808
37.082	19.383	1368.298	1058.222
38.096	19.419	1367.532	1057.752
39.111	19.434	1366.786	1057.177
40.126	19.370	1365.726	1055.873
41.140	19.111	1364.586	1053.310
42.155	18.846	1363.735	1050.941
43.169	18.880	1363.776	1051.090
44.184	18.922	1363.250	1050.843
45.199	18.830	1363.193	1050.149
46.213	19.054	1362.633	1050.991
47.228	19.301	1361.742	1051.717
48.242	19.405	1360.390	1051.217
49.257	19.341	1359.084	1049.723
50.271	19.187	1357.810	1047.710
51.286	19.280	1356.564	1047.221
52.301	19.376	1354.647	1046.229
53.315	19.067	1354.083	1043.830
54.330	19.043	1353.018	1042.766
55.344	18.927	1351.604	1040.884
56.359	19.008	1351.013	1040.828
57.374	19.020	1349.801	1039.872
58.388	18.891	1348.770	1038.207
59.403	18.819	1348.792	1037.697
60.417	18.841	1347.568	1036.799
61.432	18.895	1346.434	1036.161
62.447	18.772	1345.765	1034.812
63.461	18.732	1344.419	1033.445
64.476	18.650	1343.291	1031.992
65.490	18.643	1342.036	1030.895
66.505	18.783	1340.298	1030.308
67.520	18.639	1339.634	1028.847
68.534	18.745	1338.661	1028.642
69.549	18.667	1337.500	1027.193
70.563	18.620	1336.656	1026.170
71.578	18.610	1334.760	1024.563
72.593	18.476	1333.954	1023.057
73.607	18.332	1333.954	1022.104
74.622	18.468	1332.925	1022.039
75.636	18.528	1332.355	1021.866
76.651	18.620	1331.547	1021.704
77.666	18.618	1331.274	1021.393
78.680	18.676	1330.885	1021.352
79.695	18.639	1330.579	1020.806
80.709	18.757	1329.736	1020.769
81.724	18.938	1328.570	1020.861
82.739	19.085	1327.642	1020.925
83.753	19.198	1327.019	1021.029
84.768	19.381	1326.371	1021.521
85.782	19.420	1325.298	1020.837
86.797	19.397	1324.121	1019.703
87.812	19.238	1322.864	1017.705
88.826	19.239	1321.694	1016.722
89.841	19.238	1321.143	1016.201
90.855	19.405	1320.081	1016.278
91.870	19.459	1319.291	1015.899
92.884	19.382	1319.043	1015.165
93.899	19.456	1317.413	1014.255
94.914	19.562	1316.550	1014.124
95.928	19.555	1315.433	1013.135
96.943	19.470	1315.138	1012.317
97.957	19.413	1313.884	1010.932
98.972	19.423	1312.699	1009.989
99.987	19.454	1311.992	1009.535
101.001	19.393	1310.945	1008.284
102.016	19.325	1310.081	1007.131
103.030	19.323	1309.296	1006.425
104.045	19.338	1308.442	1005.772
105.060	19.167	1307.273	1003.785
106.074	19.173	1304.582	1001.665
107.089	18.720	1303.593	998.186
108.103	18.629	1302.544	996.767
109.118	18.683	1301.215	995.969
110.133	18.683	1299.822	994.818
111.147	18.755	1298.820	994.382
112.162	18.776	1297.275	993.233
113.176	19.033	1296.018	993.664
114.191	18.943	1295.563	992.711
115.206	18.971	1294.148	991.699
116.220	18.858	1292.859	989.969
117.235	18.858	1291.769	989.049
118.249	18.743	1291.039	987.743
119.264	18.745	1289.371	986.390
120.279	18.734	1288.140	985.300
121.293	18.732	1287.043	984.359
122.308	18.641	1285.779	982.786
123.322	18.584	1284.893	981.695
124.337	18.581	1284.067	980.962
125.352	18.396	1283.295	979.224
126.366	18.436	1282.297	978.608
127.381	18.597	1280.821	978.310
128.395	18.504	1279.928	977.010
129.410	18.576	1279.268	976.835
130.424	18.661	1278.630	976.743
131.439	18.776	1277.541	976.479
132.454	18.740	1276.955	975.739
133.468	18.919	1275.825	975.805
134.483	18.821	1275.511	974.925
135.497	18.817	1274.348	973.923
136.512	19.011	1272.748	973.713
137.527	19.045	1271.541	972.898
138.541	18.970	1270.420	971.530
139.556	19.045	1269.234	970.961
140.570	19.114	1268.002	970.322
141.585	19.185	1267.153	969.984
142.600	19.198	1266.281	969.305
143.614	19.471	1265.128	969.868
144.629	19.472	1264.042	968.957
145.643	19.460	1262.608	967.705
146.658	19.222	1261.170	965.187
147.673	19.064	1260.201	963.470
148.687	18.945	1258.818	961.663
149.702	18.931	1257.497	960.495
150.716	18.914	1256.351	959.437
151.731	19.022	1254.486	958.529
152.746	18.848	1253.981	957.088
153.760	19.029	1252.748	957.074
154.775	19.076	1252.038	956.704
155.789	19.152	1250.891	956.168
156.804	19.128	1250.108	955.353
157.819	19.295	1248.469	954.941
158.833	19.332	1247.988	954.691
159.848	19.462	1247.126	954.665
160.862	19.389	1246.272	953.523
161.877	19.132	1245.053	951.087
162.892	18.994	1243.618	949.147
163.906	18.997	1242.658	948.346
164.921	18.874	1241.897	947.003
165.935	19.012	1241.211	947.157
166.950	19.116	1240.406	947.033
167.964	19.094	1239.526	946.152
168.979	19.072	1238.468	945.143
169.994	18.957	1238.481	944.437
171.008	19.172	1236.957	944.368
172.023	19.219	1236.428	944.139
173.037	19.329	1235.877	944.238
174.052	19.227	1235.482	943.298
175.067	19.091	1234.040	941.369
176.081	18.908	1232.912	939.422
177.096	18.894	1231.732	938.365
178.110	19.020	1230.385	937.944
179.125	19.011	1229.581	937.197
180.140	19.106	1228.494	936.803
181.154	19.239	1227.518	936.699
182.169	19.356	1226.655	936.592
183.183	19.353	1225.645	935.725
184.198	19.521	1223.926	935.236
185.213	19.450	1223.145	934.173
186.227	19.457	1222.037	933.285
187.242	19.445	1221.499	932.723
188.256	19.623	1220.797	933.065
189.271	19.728	1219.536	932.589
190.286	19.438	1218.280	929.981
191.300	18.981	1217.263	926.663
192.315	18.917	1216.379	925.560
193.329	18.963	1216.041	925.470
194.344	19.118	1215.018	925.446
195.359	19.154	1214.754	925.353
196.373	19.285	1214.406	925.713
197.388	19.408	1213.901	925.903
198.402	19.578	1214.062	926.860
199.417	19.735	1213.326	927.056
200.432	19.899	1212.583	927.286
201.446	20.021	1211.657	927.145
202.461	19.992	1211.136	926.511
203.475	20.001	1209.975	925.590
204.490	19.810	1208.605	923.443
205.504	19.579	1207.236	921.081
206.519	19.538	1205.910	919.769
207.534	19.519	1204.650	918.623
208.548	19.522	1203.804	917.913
209.563	19.455	1203.149	916.977
210.577	19.640	1201.745	916.808
211.592	19.608	1201.816	916.613
212.607	19.857	1201.154	917.345
213.621	19.915	1199.859	916.584
214.636	19.746	1199.397	915.253
215.650	19.770	1198.490	914.609
216.665	20.010	1197.076	914.714
217.680	20.002	1196.945	914.493
218.694	20.006	1195.817	913.573
219.709	20.046	1194.929	913.025
220.723	19.968	1194.235	912.003
221.738	19.903	1193.402	910.944
222.753	19.920	1192.624	910.358
223.767	19.984	1192.588	910.585
224.782	20.000	1191.965	910.115
225.796	20.222	1190.600	910.155
226.811	20.235	1190.125	909.783
227.826	19.927	1189.294	907.453
228.840	20.000	1188.537	907.178
229.855	19.880	1187.639	905.780
230.869	19.883	1186.518	904.863
231.884	19.808	1185.731	903.791
232.899	19.766	1185.110	903.019
233.913	19.611	1184.424	901.605
234.928	19.673	1183.430	901.091
235.942	19.685	1182.821	900.609
236.957	19.619	1181.888	899.478
237.972	19.711	1181.103	899.278
238.986	19.654	1180.589	898.512
240.001	19.688	1179.853	898.049
241.015	19.742	1179.004	897.601
242.030	19.757	1178.377	897.123
243.045	19.840	1177.534	896.832
244.059	20.050	1176.555	897.097
245.074	19.914	1176.506	896.277
246.088	19.976	1175.484	895.737
247.103	20.132	1174.865	895.995
248.117	20.206	1174.122	895.730
249.132	20.387	1173.890	896.409
250.147	20.684	1173.080	897.240
251.161	20.750	1172.677	897.193
252.176	20.733	1171.834	896.380
253.190	20.680	1171.665	895.899
254.205	20.858	1170.922	896.167
255.220	20.950	1170.184	895.998
256.234	20.827	1169.756	894.961
257.249	20.854	1168.821	894.305
258.263	20.819	1167.734	893.214
259.278	20.781	1167.253	892.573
260.293	20.829	1166.899	892.466
261.307	20.904	1166.422	892.408
262.322	20.917	1165.837	891.946
263.336	21.011	1164.464	891.302
264.351	21.019	1164.335	891.162
265.366	21.046	1163.294	890.423
266.380	20.966	1162.649	889.446
267.395	20.959	1161.684	888.592
268.409	20.799	1160.834	887.047
269.424	20.661	1160.377	885.919
270.439	20.743	1159.599	885.661
271.453	20.650	1159.391	884.951
272.468	20.503	1158.306	883.298
273.482	20.610	1157.238	882.949
274.497	20.580	1156.769	882.360
275.512	20.644	1156.051	882.058
276.526	20.667	1154.729	881.089
277.541	20.456	1154.861	880.042
278.555	20.749	1154.109	880.873
279.570	20.852	1153.663	880.979
280.585	20.960	1152.841	880.818
281.599	20.975	1151.810	880.027
282.614	20.909	1150.412	878.550
283.628	20.765	1149.486	877.037
284.643	20.723	1148.556	876.041
285.657	20.821	1147.271	875.474
286.672	20.742	1146.585	874.476
287.687	20.818	1145.656	874.071
288.701	20.869	1145.125	873.848
289.716	20.847	1144.405	873.111
290.730	20.895	1143.515	872.593
291.745	20.913	1143.283	872.430
292.760	20.944	1142.393	871.827
293.774	20.866	1142.263	871.261
294.789	21.137	1141.359	871.849
295.803	21.060	1141.201	871.264
296.818	21.017	1139.309	869.533
297.833	20.913	1138.789	868.536
298.847	20.923	1138.314	868.148
299.862	20.946	1137.163	867.310
300.876	20.965	1136.761	867.020
301.891	21.103	1136.242	867.234
302.906	21.161	1135.706	867.034
303.920	21.348	1134.986	867.340
304.935	21.418	1134.139	866.960
305.949	21.482	1133.861	866.986
306.964	21.419	1133.269	866.147
307.979	21.325	1132.128	864.732
308.993	21.284	1131.692	864.122
310.008	21.324	1130.738	863.512
311.022	21.334	1130.389	863.221
312.037	21.422	1128.784	862.352
313.052	21.145	1128.213	860.476
314.066	21.078	1127.153	859.259
315.081	20.884	1126.138	857.454
316.095	20.837	1125.599	856.739
317.110	20.922	1124.700	856.396
318.125	20.918	1123.447	855.346
319.139	20.990	1123.110	855.366
320.154	20.908	1122.739	854.607
321.168	21.004	1122.129	854.535
322.183	21.089	1121.416	854.337
323.197	21.041	1120.920	853.647
324.212	21.034	1120.527	853.239
325.227	21.158	1119.463	852.959
326.241	21.128	1118.863	852.278
327.256	21.079	1118.437	851.640
328.270	20.988	1117.324	850.275
329.285	21.079	1116.015	849.644
330.300	21.020	1115.187	848.650
331.314	21.051	1114.555	848.245
332.329	21.129	1113.625	847.841
333.343	21.053	1112.867	846.822
334.358	21.304	1112.116	847.393
335.373	21.266	1111.250	846.473
336.387	21.431	1110.798	846.854
337.402	21.408	1109.972	846.037
338.416	21.447	1109.510	845.798
339.431	21.536	1109.166	845.891
340.446	21.614	1108.477	845.668
341.460	21.822	1107.826	846.103
342.475	21.836	1106.846	845.346
343.489	21.755	1106.258	844.432
344.504	21.868	1105.635	844.427
345.519	21.929	1104.327	843.646
346.533	21.926	1103.770	843.128
347.548	22.068	1102.890	843.065
348.562	21.994	1102.017	841.968
349.577	21.767	1101.197	840.180
350.592	21.596	1100.286	838.591
351.606	21.456	1099.635	837.351
352.621	21.481	1098.616	836.618
353.635	21.368	1098.132	835.639
354.650	21.405	1097.063	834.928
355.665	21.558	1096.410	835.084
356.679	21.465	1096.239	834.435
357.694	21.661	1095.895	835.039
358.708	21.812	1094.908	834.932
359.723	21.816	1094.199	834.336
360.738	21.914	1093.358	834.086
361.752	21.848	1092.950	833.385
362.767	21.653	1093.130	832.522
363.781	21.711	1092.488	832.235
364.796	21.884	1091.561	832.278
365.810	22.116	1090.955	832.843
366.825	22.238	1090.620	833.089
367.840	22.280	1090.025	832.760
368.854	22.374	1089.169	832.475
369.869	22.285	1088.673	831.606
370.883	22.108	1088.023	830.197
371.898	22.216	1086.361	829.367
372.913	22.196	1085.805	828.772
373.927	22.213	1085.873	828.833
374.942	22.254	1085.313	828.524
375.956	22.253	1084.763	828.027
376.971	22.217	1084.125	827.298
377.986	22.287	1083.790	827.296
379.000	22.384	1083.323	827.325
380.015	22.568	1082.649	827.599
381.029	22.479	1082.102	826.691
382.044	22.531	1080.903	825.947
383.059	22.416	1080.501	825.025
384.073	22.306	1080.107	824.139
385.088	22.386	1078.966	823.569
386.102	22.545	1077.818	823.361
387.117	22.425	1076.466	821.694
388.132	22.185	1075.978	820.131
389.146	22.101	1075.010	818.927
390.161	22.095	1074.354	818.329
391.175	22.079	1074.033	817.939
392.190	22.209	1073.271	817.890
393.205	22.400	1072.591	818.188
394.219	22.407	1071.611	817.400
395.234	22.261	1070.809	816.036
396.248	22.268	1069.310	814.857
397.263	22.264	1068.621	814.242
398.278	22.080	1067.639	812.570
399.292	22.036	1067.183	811.946
400.307	22.046	1066.462	811.371
401.321	21.932	1065.482	810.027
402.336	21.998	1064.963	809.867
403.350	22.123	1064.082	809.701
404.365	22.221	1063.165	809.385
405.380	22.200	1062.819	808.949
406.394	22.266	1061.798	808.405
407.409	22.313	1062.125	808.799
408.423	22.586	1061.310	809.363
409.438	22.702	1060.310	809.058
410.453	22.774	1059.814	808.938
411.467	22.844	1058.623	808.278
412.482	22.761	1058.523	807.751
413.496	22.872	1057.733	807.586
414.511	22.825	1057.409	807.054
415.526	23.011	1057.002	807.517
416.540	22.982	1056.707	807.090
417.555	22.939	1056.035	806.310
418.569	22.858	1055.278	805.289
419.584	22.799	1054.676	804.489
420.599	22.962	1054.192	804.793
421.613	154.659	1400.003	1790.178
422.628	142.059	1450.375	1790.284
