DTS Sentinel unit serial number:	SN413079Multiplexer serial number:	ORYXHardware model number:	OX4-SRSoftware version number:	ORYX F/W v4.00 Oryx Data Collector v3.7.2.0data status	okinstallation	princeton_trtdifferential loss correction	single-endedforward channel	channel 2reverse channel	N/Adate	2019/09/16time	03:55:35forward acquisition time	60.00reverse acquisition time	0.00gamma	496.2192k internal	0.2334k external	0.2334temperature offset calibration	0.9973default loss term (dB/km)	0.3790temperature slope calibration	1.0000multiplexer offset coefficient	1.0000multiplexer slope coefficient	1.0000fibre end	0.00T internal ref (°C)	27.50T ext. ref 1 (°C)	10.70T ext. ref 2 (°C)	21.60length (m)	temperature (°C)	Stokes	anti-Stokes-747.200	-17.658	-0.270	0.170
-746.185	-200.000	-0.042	0.252
-745.171	36.120	-0.166	-0.147
-744.156	55.511	-0.122	-0.118
-743.142	-200.000	0.024	0.162
-742.127	-11.742	-0.053	-0.035
-741.112	800.000	0.020	0.067
-740.098	154.486	-0.083	-0.114
-739.083	262.884	0.137	0.240
-738.069	356.302	0.094	0.188
-737.054	252.715	-0.029	0.049
-736.039	-170.497	-0.230	0.008
-735.025	259.295	0.279	-0.484
-734.010	73.692	0.158	0.166
-732.996	-61.421	-0.267	-0.113
-731.981	800.000	-0.081	0.287
-730.966	9.115	0.284	0.215
-729.952	113.205	0.097	-0.118
-728.937	-6.706	0.298	-0.204
-727.923	368.706	-0.148	0.301
-726.908	50.160	-0.208	-0.197
-725.894	800.000	-0.025	-0.084
-724.879	788.846	0.052	-0.143
-723.864	573.764	-0.042	0.104
-722.850	-1.666	0.177	0.125
-721.835	232.282	-0.114	-0.188
-720.821	-118.846	-0.240	-0.042
-719.806	1.105	0.354	-0.255
-718.791	-31.956	-0.300	0.169
-717.777	693.446	-0.102	-0.269
-716.762	-6.920	-0.125	0.085
-715.748	47.480	-0.067	-0.063
-714.733	311.663	-0.097	-0.182
-713.718	-103.764	-0.227	0.053
-712.704	-137.918	-0.299	0.034
-711.689	800.000	-0.012	-0.043
-710.675	795.024	-0.032	-0.087
-709.660	435.082	0.089	-0.194
-708.645	-200.000	-0.021	0.271
-707.631	71.080	-0.250	-0.260
-706.616	11.096	-0.086	-0.066
-705.602	-71.284	-0.365	0.137
-704.587	-122.310	0.437	0.072
-703.572	-27.091	-0.204	-0.119
-702.558	124.078	0.178	-0.224
-701.543	-200.000	-0.037	-0.173
-700.529	-116.316	-0.119	-0.022
-699.514	-46.146	-0.264	-0.130
-698.499	-141.995	0.189	0.019
-697.485	800.000	-0.038	0.121
-696.470	-200.000	-0.013	-0.154
-695.456	-200.000	-0.004	-0.104
-694.441	-80.076	-0.340	-0.114
-693.426	94.986	0.008	0.010
-692.412	-87.989	-0.331	-0.100
-691.397	679.656	-0.167	-0.436
-690.383	-16.160	-0.163	0.104
-689.368	-200.000	0.011	-0.281
-688.354	-200.000	-0.055	-0.387
-687.339	800.000	-0.119	-0.442
-686.324	-200.000	-0.034	-0.346
-685.310	-105.780	0.230	-0.052
-684.295	168.250	-0.049	-0.070
-683.281	-148.804	-0.307	0.025
-682.266	-200.000	-0.037	-0.364
-681.251	153.759	0.219	0.301
-680.237	184.296	-0.146	0.217
-679.222	-66.415	-0.329	-0.131
-678.208	800.000	0.089	-0.350
-677.193	124.161	-0.151	-0.190
-676.178	-58.127	-0.217	0.095
-675.164	179.508	-0.126	0.185
-674.149	32.000	0.103	0.089
-673.135	-200.000	0.004	-0.024
-672.120	-200.000	-0.012	0.131
-671.105	-162.854	-0.039	-0.002
-670.091	39.144	0.105	0.095
-669.076	37.571	0.063	-0.056
-668.062	134.013	0.038	-0.049
-667.047	46.221	-0.190	0.176
-666.032	-200.000	-0.034	-0.271
-665.018	-147.557	-0.084	-0.007
-664.003	-112.848	-0.200	0.040
-662.989	384.344	-0.179	-0.369
-661.974	110.866	-0.177	-0.213
-660.959	-142.582	0.185	0.018
-659.945	-62.091	-0.286	-0.120
-658.930	-200.000	0.027	-0.279
-657.916	-163.063	-0.192	-0.009
-656.901	-200.000	-0.001	-0.092
-655.886	-93.499	0.166	-0.046
-654.872	-34.037	-0.216	0.119
-653.857	-53.572	0.145	0.066
-652.843	485.332	-0.069	0.157
-651.828	-200.000	0.035	-0.176
-650.814	-35.844	-0.170	-0.092
-649.799	373.545	-0.191	-0.389
-648.784	-29.453	-0.084	0.048
-647.770	47.430	0.079	-0.073
-646.755	-148.616	0.289	0.024
-645.741	-129.488	0.119	0.017
-644.726	-200.000	0.082	-0.416
-643.711	271.164	-0.077	-0.136
-642.697	50.152	0.176	0.166
-641.682	-10.679	-0.080	-0.053
-640.668	-200.000	-0.029	-0.210
-639.653	-51.453	0.307	-0.144
-638.638	-200.000	0.056	-0.278
-637.624	-154.629	-0.264	-0.018
-636.609	376.278	0.038	0.078
-635.595	-40.928	-0.216	-0.112
-634.580	-10.139	0.219	-0.145
-633.565	-46.604	0.108	-0.053
-632.551	-118.724	-0.177	0.031
-631.536	390.077	-0.118	0.244
-630.522	-107.806	-0.137	-0.030
-629.507	104.742	-0.073	-0.086
-628.492	-45.913	0.139	0.068
-627.478	800.000	0.057	-0.230
-626.463	121.220	-0.106	0.133
-625.449	68.905	0.040	0.041
-624.434	-200.000	0.019	0.356
-623.419	-200.000	-0.017	0.113
-622.405	-200.000	0.019	0.296
-621.390	446.685	-0.084	0.185
-620.376	679.526	-0.111	-0.290
-619.361	401.350	-0.105	-0.220
-618.346	-14.797	-0.038	0.025
-617.332	178.041	0.096	0.141
-616.317	65.507	-0.095	-0.096
-615.303	0.771	-0.346	0.248
-614.288	-173.532	0.063	-0.002
-613.273	-63.558	0.375	0.154
-612.259	-35.140	-0.124	0.067
-611.244	8.992	-0.282	-0.213
-610.230	-168.881	0.295	-0.011
-609.215	-200.000	0.032	0.316
-608.201	-107.199	-0.359	0.079
-607.186	-64.991	-0.323	0.131
-606.171	-200.000	0.245	-0.000
-605.157	-99.152	-0.110	0.028
-604.142	546.841	0.091	-0.217
-603.128	-200.000	-0.014	0.189
-602.113	-3.243	-0.041	-0.028
-601.098	190.487	-0.142	-0.214
-600.084	404.027	-0.067	-0.140
-599.069	-185.607	-0.261	-0.004
-598.055	-55.876	0.214	0.096
-597.040	-200.000	0.039	-0.255
-596.025	800.000	0.045	-0.150
-595.011	633.356	-0.078	-0.198
-593.996	800.000	0.069	-0.273
-592.982	-200.000	0.097	-0.432
-591.967	-200.000	0.016	-0.220
-590.952	108.221	0.108	0.128
-589.938	-200.000	-0.029	-0.248
-588.923	800.000	0.030	0.099
-587.909	-85.486	0.212	0.066
-586.894	-200.000	0.025	-0.196
-585.879	-9.724	-0.234	0.156
-584.865	800.000	-0.006	0.020
-583.850	480.245	-0.109	-0.247
-582.836	-200.000	0.040	-0.315
-581.821	800.000	0.082	0.357
-580.806	62.741	0.079	0.079
-579.792	-200.000	-0.017	0.117
-578.777	-45.483	-0.418	0.207
-577.763	59.402	-0.136	0.133
-576.748	139.383	0.185	-0.243
-575.733	-200.000	-0.012	0.236
-574.719	-22.776	0.010	-0.006
-573.704	-200.000	-0.026	-0.121
-572.690	27.989	-0.094	-0.079
-571.675	-200.000	-0.051	0.378
-570.661	-36.975	0.199	-0.107
-569.646	800.000	0.096	0.391
-568.631	-15.210	-0.129	0.083
-567.617	-137.767	-0.118	0.013
-566.602	-3.365	-0.180	0.125
-565.588	-125.266	0.255	-0.039
-564.573	-151.214	-0.186	-0.014
-563.558	28.099	0.277	-0.234
-562.544	-183.899	0.164	-0.003
-561.529	44.621	-0.113	-0.104
-560.515	48.240	-0.397	0.371
-559.500	800.000	0.032	-0.136
-558.485	800.000	0.095	-0.333
-557.471	147.354	-0.247	-0.332
-556.456	110.304	-0.117	0.140
-555.442	39.136	-0.185	-0.165
-554.427	61.301	0.232	-0.230
-553.412	-200.000	-0.032	-0.445
-552.398	159.113	-0.105	-0.146
-551.383	-43.906	-0.191	0.096
-550.369	-200.000	0.200	0.001
-549.354	205.808	0.080	0.124
-548.339	800.000	-0.071	-0.234
-547.325	-107.090	0.226	0.050
-546.310	-13.586	0.161	-0.104
-545.296	-31.817	-0.082	-0.046
-544.281	99.852	0.068	-0.079
-543.266	56.143	-0.068	0.066
-542.252	144.927	0.142	0.189
-541.237	-24.390	-0.072	0.043
-540.223	-19.184	0.367	-0.227
-539.208	561.253	-0.093	-0.223
-538.193	711.457	-0.052	-0.137
-537.179	591.628	0.101	-0.248
-536.164	-26.785	0.152	-0.089
-535.150	800.000	0.050	-0.198
-534.135	-8.673	-0.125	-0.083
-533.121	-30.221	0.195	0.110
-532.106	114.072	-0.218	0.264
-531.091	516.226	-0.079	0.184
-530.077	-200.000	-0.002	-0.289
-529.062	48.457	-0.192	-0.179
-528.048	800.000	-0.078	-0.285
-527.033	-200.000	0.011	0.095
-526.018	263.562	-0.119	0.207
-525.004	265.897	0.173	0.302
-523.989	125.203	-0.185	0.233
-522.975	-61.086	-0.202	0.085
-521.960	425.030	0.083	-0.179
-520.945	-200.000	-0.007	-0.201
-519.931	175.574	0.163	-0.236
-518.916	-140.186	0.183	-0.019
-517.902	-38.568	0.179	0.094
-516.887	-131.140	-0.128	-0.017
-515.872	174.830	-0.149	-0.214
-514.858	-127.224	-0.284	-0.041
-513.843	-200.000	0.003	-0.210
-512.829	-107.253	-0.218	-0.048
-511.814	41.633	-0.160	0.144
-510.799	-81.908	-0.181	-0.059
-509.785	504.751	-0.024	0.056
-508.770	191.264	0.131	-0.196
-507.756	-200.000	-0.042	-0.304
-506.741	800.000	-0.040	-0.113
-505.726	611.468	-0.070	-0.175
-504.712	-154.316	0.210	-0.014
-503.697	541.323	0.051	0.120
-502.683	512.125	0.056	0.129
-501.668	-87.772	-0.340	-0.102
-500.653	-111.253	-0.018	0.004
-499.639	-7.528	0.337	-0.227
-498.624	-200.000	0.022	0.235
-497.610	800.000	-0.043	0.150
-496.595	-200.000	-0.008	-0.145
-495.581	244.862	-0.047	0.078
-494.566	-149.260	0.129	0.010
-493.551	417.858	-0.136	0.290
-492.537	-148.358	-0.457	-0.037
-491.522	-200.000	-0.069	-0.379
-490.508	800.000	-0.091	-0.282
-489.493	-65.083	0.262	0.105
-488.478	402.084	0.069	-0.145
-487.464	-148.495	0.086	0.007
-486.449	-200.000	-0.019	0.288
-485.435	800.000	0.037	-0.150
-484.420	318.905	0.082	-0.155
-483.405	68.825	0.039	-0.039
-482.391	-167.008	-0.351	0.014
-481.376	800.000	-0.045	-0.165
-480.362	-52.485	-0.293	-0.135
-479.347	109.021	0.182	0.217
-478.332	-200.000	-0.020	0.119
-477.318	800.000	-0.008	0.027
-476.303	-200.000	-0.057	-0.284
-475.289	-129.005	-0.211	-0.029
-474.274	-62.394	-0.370	0.153
-473.259	544.717	-0.076	0.180
-472.245	-183.599	-0.371	-0.006
-471.230	396.642	-0.071	-0.147
-470.216	84.004	-0.116	-0.125
-469.201	565.327	0.007	0.017
-468.186	511.937	0.150	0.348
-467.172	-200.000	0.003	-0.173
-466.157	-200.000	0.001	-0.080
-465.143	800.000	-0.005	-0.017
-464.128	-14.082	0.202	-0.130
-463.113	93.851	0.139	-0.156
-462.099	101.137	-0.099	-0.115
-461.084	44.225	0.119	0.109
-460.070	310.593	-0.080	-0.149
-459.055	488.020	0.110	-0.251
-458.040	203.453	0.006	0.009
-457.026	265.834	-0.057	0.099
-456.011	29.851	0.229	-0.193
-454.997	800.000	-0.014	0.047
-453.982	219.770	-0.161	-0.256
-452.968	-130.276	0.070	-0.009
-451.953	-200.000	-0.322	-0.000
-450.938	-8.351	-0.239	0.160
-449.924	-144.923	0.423	0.038
-448.909	-200.000	0.021	0.225
-447.895	197.796	0.097	-0.147
-446.880	-200.000	-0.012	0.327
-445.865	146.128	-0.218	-0.291
-444.851	29.598	0.082	0.069
-443.836	-71.782	-0.209	-0.078
-442.822	-88.138	0.089	0.026
-441.807	-115.802	0.076	-0.014
-440.792	-46.530	-0.318	-0.155
-439.778	125.523	0.071	-0.089
-438.763	3.177	-0.076	0.055
-437.749	6.329	-0.273	0.201
-436.734	266.324	0.047	0.081
-435.719	-156.221	0.299	-0.019
-434.705	-115.663	0.177	-0.033
-433.690	-37.003	0.260	-0.138
-432.676	-200.000	-0.004	0.300
-431.661	-141.482	-0.331	0.033
-430.646	176.428	0.137	0.198
-429.632	117.699	0.238	0.291
-428.617	-200.000	0.024	0.123
-427.603	196.406	0.077	-0.116
-426.588	35.951	-0.021	0.018
-425.573	-4.464	-0.104	0.072
-424.559	-137.350	0.251	0.028
-423.544	732.912	0.075	-0.199
-422.530	800.000	0.024	-0.095
-421.515	-30.099	0.157	0.088
-420.500	344.801	-0.076	0.148
-419.486	55.836	0.154	-0.148
-418.471	-166.379	-0.567	0.024
-417.457	423.420	-0.020	-0.043
-416.442	-51.413	-0.179	0.083
-415.428	-200.000	-0.025	-0.269
-414.413	494.835	0.179	-0.409
-413.398	20.037	0.114	0.091
-412.384	-48.573	-0.145	-0.069
-411.369	252.064	-0.049	-0.082
-410.355	-200.000	-0.069	-0.315
-409.340	45.454	-0.128	0.117
-408.325	196.460	-0.098	-0.148
-407.311	668.136	0.055	0.142
-406.296	800.000	0.109	0.309
-405.282	-9.295	-0.180	-0.119
-404.267	633.852	0.008	0.021
-403.252	800.000	0.070	0.284
-402.238	66.694	-0.192	-0.193
-401.223	-86.689	0.286	0.087
-400.209	-200.000	0.074	-0.343
-399.194	102.450	-0.212	0.246
-398.179	-91.003	0.455	-0.130
-397.165	-200.000	0.032	-0.283
-396.150	800.000	0.023	0.097
-395.136	241.481	-0.063	-0.104
-394.121	395.309	0.030	-0.061
-393.106	-200.000	0.007	0.064
-392.092	-200.000	-0.008	0.068
-391.077	-150.983	-0.038	0.003
-390.063	-39.367	0.142	-0.074
-389.048	-70.134	0.114	-0.043
-388.033	-78.548	-0.101	-0.034
-387.019	-200.000	-0.038	0.312
-386.004	-200.000	-0.018	0.104
-384.990	-136.210	-0.332	0.038
-383.975	-93.351	0.306	-0.084
-382.960	-88.642	-0.133	0.039
-381.946	-163.585	0.194	0.009
-380.931	-72.298	0.213	0.078
-379.917	-107.530	0.194	-0.042
-378.902	-88.903	0.075	-0.022
-377.888	-55.018	0.090	0.040
-376.873	670.806	-0.018	-0.046
-375.858	71.646	0.119	-0.123
-374.844	-18.711	0.291	0.179
-373.829	-200.000	-0.028	0.269
-372.815	435.676	0.037	0.080
-371.800	350.815	0.032	0.062
-370.785	-125.963	-0.293	0.044
-369.771	-200.000	-0.008	-0.119
-368.756	800.000	0.039	0.139
-367.742	-56.544	0.182	-0.080
-366.727	800.000	0.016	0.059
-365.712	-200.000	0.013	0.102
-364.698	41.896	-0.039	0.035
-363.683	800.000	-0.087	-0.321
-362.669	-175.013	0.020	-0.001
-361.654	800.000	-0.026	0.081
-360.639	102.801	-0.155	0.180
-359.625	-50.473	0.064	0.030
-358.610	-146.675	0.311	-0.027
-357.596	54.258	-0.048	-0.046
-356.581	800.000	-0.084	0.248
-355.566	100.020	0.228	0.261
-354.552	-121.714	0.294	0.048
-353.537	-6.481	-0.242	-0.163
-352.523	260.356	-0.084	0.144
-351.508	175.926	0.127	-0.182
-350.493	-39.094	0.121	0.063
-349.479	-191.714	0.221	-0.002
-348.464	281.008	0.039	0.069
-347.450	51.801	-0.052	0.049
-346.435	85.808	0.314	-0.341
-345.420	-1.718	0.363	0.253
-344.406	100.979	-0.186	0.214
-343.391	800.000	0.078	0.293
-342.377	342.789	0.021	0.041
-341.362	-200.000	0.042	-0.194
-340.348	44.975	0.097	0.088
-339.333	-69.545	-0.300	-0.114
-338.318	-156.952	0.196	0.012
-337.304	-68.188	0.248	0.095
-336.289	119.376	-0.146	-0.179
-335.275	800.000	0.064	-0.232
-334.260	-104.827	-0.144	0.033
-333.245	-151.455	-0.239	-0.018
-332.231	-113.624	-0.047	0.009
-331.216	800.000	0.142	-0.474
-330.202	-81.133	-0.105	-0.034
-329.187	-133.869	0.255	-0.031
-328.172	800.000	0.100	0.335
-327.158	554.891	-0.117	-0.278
-326.143	-106.214	-0.222	0.049
-325.129	4.070	-0.084	0.061
-324.114	17.934	-0.239	0.189
-323.099	349.231	-0.029	0.057
-322.085	63.919	0.321	-0.319
-321.070	-132.377	-0.073	0.009
-320.056	45.538	0.054	0.050
-319.041	-74.034	-0.385	-0.138
-318.026	-15.949	0.073	0.046
-317.012	-160.336	-0.472	0.025
-315.997	-12.597	0.405	0.261
-314.983	-200.000	-0.014	0.427
-313.968	800.000	-0.112	-0.428
-312.953	-200.000	0.015	-0.073
-311.939	-102.972	0.165	-0.039
-310.924	-39.992	-0.059	-0.030
-309.910	-200.000	-0.008	0.170
-308.895	-16.890	0.135	-0.084
-307.880	-64.350	-0.190	0.076
-306.866	236.708	-0.124	0.204
-305.851	-113.408	-0.252	-0.049
-304.837	199.025	-0.112	-0.170
-303.822	235.274	-0.093	-0.152
-302.807	-19.271	0.225	0.138
-301.793	371.649	-0.061	-0.122
-300.778	163.586	0.136	0.190
-299.764	800.000	0.032	0.102
-298.749	157.840	0.184	-0.251
-297.735	-114.060	0.242	-0.046
-296.720	-41.014	0.259	-0.132
-295.705	-116.973	0.290	-0.052
-294.691	-117.810	0.333	0.059
-293.676	800.000	-0.131	-0.461
-292.662	-200.000	-0.019	0.200
-291.647	121.524	0.167	-0.206
-290.632	-37.497	0.284	0.150
-289.618	-200.000	-0.018	0.285
-288.603	-200.000	0.015	0.103
-287.589	-81.124	0.190	0.062
-286.574	800.000	-0.052	0.182
-285.559	-99.915	0.186	-0.046
-284.545	800.000	0.075	0.311
-283.530	-57.962	-0.280	-0.121
-282.516	800.000	0.030	0.085
-281.501	-43.809	-0.129	-0.064
-280.486	-19.948	-0.118	0.072
-279.472	16.865	-0.214	0.167
-278.457	-78.979	0.017	-0.006
-277.443	208.659	0.142	-0.220
-276.428	41.876	-0.244	0.218
-275.413	598.943	-0.099	-0.242
-274.399	69.216	-0.254	0.258
-273.384	-200.000	-0.005	0.331
-272.370	-148.025	-0.323	0.026
-271.355	800.000	-0.057	-0.185
-270.340	-5.123	0.085	-0.057
-269.326	-200.000	0.016	-0.120
-268.311	-192.608	0.266	0.002
-267.297	24.483	0.101	0.083
-266.282	-46.618	-0.059	0.029
-265.267	276.083	0.162	0.284
-264.253	37.502	0.059	-0.051
-263.238	800.000	0.029	0.111
-262.224	140.651	-0.148	0.193
-261.209	373.895	0.062	0.125
-260.195	149.835	0.284	0.380
-259.180	-14.530	0.267	0.169
-258.165	-89.523	-0.078	0.023
-257.151	-200.000	0.039	0.318
-256.136	62.933	0.381	-0.376
-255.122	-36.819	0.361	0.191
-254.107	1.212	0.161	-0.114
-253.092	630.308	-0.103	-0.257
-252.078	44.612	-0.162	0.147
-251.063	-73.044	-0.367	0.133
-250.049	254.635	0.053	0.090
-249.034	-160.601	0.119	0.006
-248.019	-95.063	0.225	0.060
-247.005	-13.366	0.176	-0.113
-245.990	-112.923	-0.073	-0.014
-244.976	184.331	-0.107	-0.156
-243.961	76.700	0.118	0.124
-242.946	-200.000	-0.013	0.265
-241.932	225.867	0.192	-0.308
-240.917	-60.301	0.157	0.066
-239.903	-133.490	0.206	0.025
-238.888	102.666	-0.254	0.293
-237.873	791.607	0.043	-0.115
-236.859	612.470	0.075	0.185
-235.844	800.000	0.068	-0.226
-234.830	122.777	-0.052	-0.064
-233.815	800.000	-0.052	0.143
-232.800	149.638	-0.235	0.314
-231.786	-200.000	0.038	-0.193
-230.771	134.610	0.162	-0.208
-229.757	10.364	0.379	0.284
-228.742	800.000	-0.080	-0.306
-227.727	-36.220	0.224	-0.119
-226.713	141.483	-0.167	0.218
-225.698	102.275	-0.088	0.101
-224.684	474.646	-0.109	0.242
-223.669	-200.000	-0.002	0.120
-222.655	800.000	-0.091	-0.322
-221.640	391.204	-0.239	-0.489
-220.625	-102.583	-0.238	0.056
-219.611	311.507	-0.037	0.069
-218.596	-123.153	-0.072	0.011
-217.582	404.934	-0.125	0.259
-216.567	8.533	-0.125	-0.093
-215.552	800.000	0.092	-0.297
-214.538	708.884	0.041	-0.107
-213.523	-13.876	0.374	0.238
-212.509	-138.117	-0.402	-0.044
-211.494	800.000	0.056	0.233
-210.479	-176.734	-0.291	0.007
-209.465	8.542	-0.159	-0.118
-208.450	797.840	0.088	0.237
-207.436	-200.000	-0.012	0.091
-206.421	-81.181	0.118	0.038
-205.406	-200.000	0.106	0.000
-204.392	21.818	0.058	-0.046
-203.377	800.000	0.038	-0.127
-202.363	125.717	0.079	0.098
-201.348	-127.114	-0.549	-0.079
-200.333	-189.354	0.151	-0.002
-199.319	-148.964	0.399	0.032
-198.304	-81.551	0.298	-0.097
-197.290	-56.190	-0.312	-0.137
-196.275	215.215	0.092	0.144
-195.260	25.765	-0.230	0.188
-194.246	448.304	0.107	0.231
-193.231	260.979	0.090	0.154
-192.217	186.479	0.120	0.175
-191.202	33.442	-0.227	0.194
-190.187	332.712	0.249	-0.474
-189.173	-61.620	0.089	0.037
-188.158	6.195	0.311	0.227
-187.144	-114.946	-0.229	0.043
-186.129	64.056	-0.064	0.063
-185.114	-200.000	-0.005	0.129
-184.100	800.000	-0.041	0.122
-183.085	117.355	-0.089	0.108
-182.071	-98.669	-0.277	-0.070
-181.056	800.000	-0.124	0.342
-180.042	800.000	-0.057	0.186
-179.027	-4.839	-0.176	0.119
-178.012	-53.822	-0.115	-0.052
-176.998	261.246	-0.160	0.273
-175.983	-33.830	-0.183	0.099
-174.969	-130.196	-0.373	0.050
-173.954	243.707	0.148	-0.244
-172.939	253.788	0.108	-0.181
-171.925	-18.665	-0.233	-0.143
-170.910	1.111	0.238	-0.168
-169.896	72.672	0.158	0.162
-168.881	-42.390	0.065	-0.032
-167.866	331.039	0.076	-0.144
-166.852	-200.000	-0.003	-0.031
-165.837	-108.381	0.182	0.039
-164.823	-14.547	-0.258	0.163
-163.808	-188.172	0.417	0.005
-162.793	86.309	-0.017	-0.019
-161.779	203.922	-0.135	0.205
-160.764	-200.000	0.016	0.315
-159.750	-129.866	0.134	-0.018
-158.735	329.355	-0.122	0.231
-157.720	-200.000	-0.013	-0.058
-156.706	-200.000	0.003	0.304
-155.691	-157.685	-0.160	0.009
-154.677	91.353	0.061	0.067
-153.662	-114.747	0.072	0.014
-152.647	287.419	0.031	0.055
-151.633	566.043	0.082	0.195
-150.618	-200.000	0.040	-0.191
-149.604	-102.390	-0.161	-0.038
-148.589	800.000	0.076	-0.233
-147.574	297.753	0.234	-0.422
-146.560	77.318	-0.163	0.170
-145.545	-42.719	0.185	-0.093
-144.531	366.488	-0.064	0.127
-143.516	99.151	-0.054	0.062
-142.502	-40.236	-0.107	0.055
-141.487	286.164	-0.118	0.209
-140.472	-117.133	-0.462	0.083
-139.458	-200.000	0.020	0.321
-138.443	43.076	0.231	0.207
-137.429	32.838	-0.324	0.275
-136.414	-125.481	0.399	0.060
-135.399	142.624	0.091	0.119
-134.385	25.207	0.124	0.101
-133.370	157.986	0.252	0.343
-132.356	649.500	0.040	-0.102
-131.341	-200.000	-0.014	0.113
-130.326	-32.113	0.316	0.174
-129.312	-200.000	0.063	0.318
-128.297	-200.000	-0.080	-0.404
-127.283	72.742	-0.045	0.046
-126.268	800.000	-0.033	0.124
-125.253	800.000	-0.087	0.255
-124.239	-200.000	0.015	-0.420
-123.224	34.938	0.113	0.097
-122.210	7.110	-0.217	-0.159
-121.195	-13.494	0.069	-0.044
-120.180	800.000	-0.037	-0.113
-119.166	-52.904	0.214	-0.097
-118.151	45.972	0.086	-0.078
-117.137	-116.727	0.121	-0.022
-116.122	-106.910	0.492	0.107
-115.107	-102.232	0.148	0.035
-114.093	12.601	-0.152	0.115
-113.078	-200.000	0.053	0.408
-112.064	-173.132	-0.161	-0.005
-111.049	74.080	-0.362	-0.372
-110.034	-39.839	0.075	-0.038
-109.020	371.259	-0.168	0.335
-108.005	-200.000	0.007	0.053
-106.991	-200.000	0.044	-0.252
-105.976	-25.234	-0.068	0.040
-104.962	55.787	0.220	0.209
-103.947	800.000	0.029	-0.092
-102.932	100.456	-0.166	0.189
-101.918	70.379	0.301	0.305
-100.903	60.539	0.293	0.284
-99.889	800.000	-0.026	0.102
-98.874	129.070	-0.130	-0.162
-97.859	-36.318	0.207	-0.110
-96.845	-143.154	0.187	-0.018
-95.830	-151.350	-0.389	-0.028
-94.816	-178.815	0.267	0.006
-93.801	-88.102	0.304	-0.089
-92.786	-25.900	0.084	0.049
-91.772	-65.893	0.351	0.137
-90.757	130.853	0.084	-0.105
-89.743	-28.898	0.388	-0.219
-88.728	3.487	0.138	-0.099
-87.713	334.789	0.021	-0.040
-86.699	-200.000	0.003	-0.114
-85.684	-49.651	-0.194	-0.090
-84.670	332.937	-0.194	0.367
-83.655	11.055	0.376	-0.281
-82.640	-20.442	0.113	0.068
-81.626	387.189	-0.157	0.318
-80.611	89.622	0.107	-0.117
-79.597	-6.787	-0.209	0.139
-78.582	-150.042	-0.098	0.007
-77.567	-18.515	0.180	-0.110
-76.553	-166.663	-0.129	0.005
-75.538	129.921	0.176	0.220
-74.524	-166.279	-0.166	0.007
-73.509	-6.724	0.086	0.057
-72.494	-33.306	-0.221	-0.120
-71.480	-200.000	-0.063	-0.354
-70.465	-200.000	-0.007	0.175
-69.451	-140.100	-0.227	-0.023
-68.436	-74.258	-0.414	0.146
-67.422	-69.514	-0.043	-0.016
-66.407	-200.000	-0.026	0.221
-65.392	139.307	0.280	-0.360
-64.378	800.000	0.037	-0.116
-63.363	-200.000	-0.012	0.312
-62.349	7.053	-0.109	-0.079
-61.334	139.581	-1.043	-1.344
-60.319	102.265	0.702	0.802
-59.305	800.000	-0.339	-1.393
-58.290	215.602	0.846	1.314
-57.276	800.000	0.406	1.695
-56.261	-200.000	113.616	650.475
-55.246	477.182	1506.352	3333.054
-54.232	146.349	2682.739	3523.465
-53.217	97.968	2289.942	2577.671
-52.203	36.653	1902.774	1643.783
-51.188	30.579	1695.318	1418.335
-50.173	28.217	1653.268	1365.505
-49.159	50.234	1708.091	1578.080
-48.144	48.900	1722.303	1581.070
-47.130	30.347	1680.630	1404.070
-46.115	27.595	1667.174	1372.093
-45.100	27.496	1661.372	1366.524
-44.086	27.427	1659.203	1364.165
-43.071	27.375	1656.632	1361.605
-42.057	27.411	1654.387	1359.978
-41.042	27.391	1652.377	1358.120
-40.027	27.461	1650.267	1356.853
-39.013	27.342	1648.407	1354.384
-37.998	27.343	1646.798	1353.018
-36.984	27.389	1645.811	1352.494
-35.969	27.535	1644.018	1352.050
-34.954	27.535	1642.672	1350.895
-33.940	27.487	1640.735	1348.891
-32.925	27.436	1639.043	1347.065
-31.911	27.409	1637.460	1345.516
-30.896	27.501	1635.441	1344.477
-29.881	27.496	1633.592	1342.868
-28.867	27.488	1631.761	1341.251
-27.852	27.482	1630.461	1340.084
-26.838	27.615	1628.768	1339.622
-25.823	27.471	1627.989	1337.867
-24.809	27.420	1626.833	1336.490
-23.794	27.510	1625.365	1335.893
-22.779	27.590	1623.419	1334.827
-21.765	27.521	1622.104	1333.185
-20.750	27.456	1620.220	1331.108
-19.736	27.537	1618.996	1330.640
-18.721	27.512	1617.702	1329.343
-17.706	27.531	1616.246	1328.233
-16.692	27.499	1614.784	1326.744
-15.677	27.476	1613.949	1325.843
-14.663	27.580	1612.192	1325.100
-13.648	27.607	1610.490	1323.841
-12.633	27.551	1609.102	1322.245
-11.619	27.557	1607.299	1320.754
-10.604	27.569	1605.617	1319.409
-9.590	27.575	1604.567	1318.533
-8.575	27.580	1603.115	1317.325
-7.560	27.615	1602.049	1316.653
-6.546	27.545	1601.346	1315.511
-5.531	27.492	1600.344	1314.255
-4.517	27.482	1599.310	1313.281
-3.502	27.524	1598.378	1312.768
-2.487	27.560	1596.693	1311.593
-1.473	27.194	1584.723	1299.091
-0.458	24.322	1565.093	1262.648
0.556	19.044	1567.119	1231.949
1.571	16.816	1590.166	1233.751
2.586	16.369	1602.222	1239.716
3.600	15.875	1552.451	1197.586
4.615	13.554	1454.943	1106.779
5.629	11.253	1400.357	1050.351
6.644	10.683	1393.413	1041.391
7.659	10.768	1391.815	1040.652
8.673	10.692	1390.632	1039.188
9.688	10.657	1388.817	1037.514
10.702	10.514	1385.936	1034.361
11.717	11.640	1386.677	1042.000
12.731	14.389	1392.478	1063.842
13.746	16.919	1395.682	1082.365
14.761	17.420	1395.637	1085.434
15.775	16.601	1392.592	1077.754
16.790	15.544	1390.036	1068.959
17.804	14.812	1387.626	1062.355
18.819	14.213	1386.790	1057.815
19.834	13.972	1385.290	1055.050
20.848	13.809	1383.576	1052.618
21.863	13.602	1382.214	1050.176
22.877	13.393	1381.396	1048.138
23.892	13.344	1380.047	1046.710
24.907	13.326	1379.557	1046.134
25.921	13.320	1378.843	1045.460
26.936	13.382	1378.092	1045.194
27.950	13.465	1376.857	1044.684
28.965	13.364	1375.771	1043.132
29.980	13.579	1374.274	1043.260
30.994	13.553	1373.321	1042.279
32.009	13.689	1371.855	1041.927
33.023	13.580	1370.857	1040.392
34.038	13.512	1369.742	1039.029
35.053	13.457	1368.349	1037.539
36.067	13.565	1366.803	1036.948
37.082	13.523	1366.080	1036.043
38.096	13.585	1365.215	1035.687
39.111	13.596	1364.235	1034.917
40.126	13.481	1363.381	1033.464
41.140	13.315	1363.038	1032.077
42.155	13.348	1362.152	1031.521
43.169	13.289	1361.756	1030.758
44.184	13.184	1361.898	1030.120
45.199	13.337	1360.997	1030.303
46.213	13.336	1360.735	1030.008
47.228	13.427	1359.357	1029.435
48.242	13.452	1358.346	1028.734
49.257	13.469	1356.246	1027.157
50.271	13.459	1355.081	1026.125
51.286	13.418	1354.150	1025.073
52.301	13.426	1352.655	1023.903
53.315	13.391	1351.760	1022.917
54.330	13.292	1350.841	1021.522
55.344	13.349	1349.708	1020.923
56.359	13.359	1348.598	1020.054
57.374	13.297	1347.936	1019.086
58.388	13.265	1346.873	1017.994
59.403	13.314	1346.052	1017.581
60.417	13.317	1345.492	1017.086
61.432	13.185	1344.595	1015.511
62.447	13.124	1343.877	1014.505
63.461	13.230	1342.486	1014.014
64.476	13.165	1341.250	1012.589
65.490	13.220	1339.905	1011.823
66.505	13.128	1339.327	1010.735
67.520	13.284	1337.295	1010.063
68.534	13.224	1336.426	1008.950
69.549	13.252	1335.867	1008.611
70.563	13.169	1334.681	1007.119
71.578	13.141	1333.326	1005.836
72.593	13.090	1332.779	1005.026
73.607	13.155	1331.736	1004.546
74.622	13.171	1330.732	1003.798
75.636	13.148	1330.433	1003.344
76.651	13.074	1330.000	1002.480
77.666	13.062	1329.630	1002.041
78.680	13.138	1328.962	1001.908
79.695	13.118	1328.129	1001.071
80.709	13.166	1327.155	1000.539
81.724	13.135	1326.105	999.473
82.739	13.384	1324.970	1000.031
83.753	13.394	1324.511	999.656
84.768	13.408	1323.531	998.910
85.782	13.448	1322.232	998.084
86.797	13.410	1321.114	996.926
87.812	13.438	1319.553	995.826
88.826	13.398	1318.620	994.797
89.841	13.406	1317.589	993.978
90.855	13.413	1316.461	993.078
91.870	13.454	1315.573	992.570
92.884	13.484	1314.856	992.119
93.899	13.460	1314.350	991.507
94.914	13.548	1313.331	991.178
95.928	13.573	1312.294	990.455
96.943	13.582	1311.447	989.783
97.957	13.384	1310.773	988.002
98.972	13.445	1309.164	987.068
99.987	13.449	1308.444	986.460
101.001	13.539	1307.027	985.838
102.016	13.486	1306.304	984.892
103.030	13.525	1305.290	984.275
104.045	13.568	1303.845	983.350
105.060	13.427	1303.105	981.867
106.074	13.357	1301.575	980.213
107.089	13.237	1300.750	978.794
108.103	13.256	1299.315	977.744
109.118	13.188	1298.257	976.460
110.133	13.217	1296.688	975.361
111.147	13.278	1295.438	974.695
112.162	13.230	1294.115	973.329
113.176	13.354	1292.774	972.967
114.191	13.369	1291.673	972.141
115.206	13.354	1290.778	971.292
116.220	13.283	1290.022	970.221
117.235	13.374	1288.686	969.665
118.249	13.359	1287.691	968.744
119.264	13.430	1285.933	967.749
120.279	13.288	1285.310	966.367
121.293	13.361	1284.306	965.951
122.308	13.287	1283.155	964.568
123.322	13.298	1281.799	963.528
124.337	13.266	1281.068	962.703
125.352	13.273	1279.935	961.808
126.366	13.282	1278.727	960.870
127.381	13.205	1277.849	959.678
128.395	13.245	1276.754	959.003
129.410	13.257	1275.823	958.288
130.424	13.210	1275.200	957.460
131.439	13.300	1274.272	957.200
132.454	13.434	1272.690	956.701
133.468	13.364	1271.704	955.473
134.483	13.325	1271.615	955.097
135.497	13.430	1270.055	954.444
136.512	13.357	1268.756	952.965
137.527	13.275	1267.759	951.662
138.541	13.366	1266.411	951.089
139.556	13.400	1264.899	950.060
140.570	13.370	1263.877	949.040
141.585	13.442	1262.740	948.512
142.600	13.500	1261.262	947.649
143.614	13.597	1260.987	947.916
144.629	13.450	1259.864	946.150
145.643	13.574	1258.533	945.771
146.658	13.564	1257.131	944.578
147.673	13.549	1256.242	943.740
148.687	13.460	1254.524	941.859
149.702	13.573	1252.982	941.259
150.716	13.464	1251.406	939.376
151.731	13.446	1250.511	938.517
152.746	13.436	1249.458	937.591
153.760	13.508	1248.322	937.064
154.775	13.590	1247.316	936.686
155.789	13.677	1246.130	936.203
156.804	13.615	1245.143	935.030
157.819	13.640	1244.220	934.396
158.833	13.678	1243.446	933.943
159.848	13.648	1242.389	932.902
160.862	13.735	1241.382	932.550
161.877	13.674	1240.178	931.219
162.892	13.556	1239.324	929.834
163.906	13.568	1238.183	928.965
164.921	13.579	1237.395	928.350
165.935	13.513	1236.859	927.498
166.950	13.679	1235.734	927.501
167.964	13.572	1235.150	926.381
168.979	13.598	1234.482	925.943
169.994	13.563	1233.902	925.234
171.008	13.627	1232.933	924.781
172.023	13.831	1232.014	925.149
173.037	13.744	1231.326	924.066
174.052	13.799	1230.331	923.543
175.067	13.671	1228.878	921.656
176.081	13.564	1228.780	920.906
177.096	13.633	1227.626	920.342
178.110	13.682	1225.952	919.278
179.125	13.649	1224.894	918.222
180.140	13.809	1223.664	918.107
181.154	13.849	1222.369	917.274
182.169	13.791	1221.697	916.365
183.183	13.816	1220.339	915.404
184.198	13.976	1218.922	915.143
185.213	13.898	1218.003	913.945
186.227	13.853	1217.167	912.985
187.242	13.892	1216.022	912.261
188.256	13.977	1214.780	911.717
189.271	14.061	1213.853	911.399
190.286	13.846	1213.148	909.614
191.300	13.801	1211.936	908.376
192.315	13.763	1211.268	907.589
193.329	13.809	1210.456	907.151
194.344	13.720	1209.967	906.217
195.359	13.836	1209.626	906.517
196.373	13.841	1208.973	905.974
197.388	14.010	1208.519	906.477
198.402	14.084	1208.404	906.710
199.417	14.104	1207.544	906.095
200.432	14.219	1205.945	905.439
201.446	14.181	1205.485	904.806
202.461	14.173	1204.945	904.279
203.475	14.363	1203.400	904.072
204.490	14.208	1202.230	902.275
205.504	14.130	1201.136	900.950
206.519	14.132	1200.265	900.226
207.534	14.147	1198.865	899.177
208.548	14.052	1198.059	897.978
209.563	14.139	1196.783	897.416
210.577	14.094	1195.999	896.502
211.592	14.230	1195.324	896.649
212.607	14.259	1194.613	896.197
213.621	14.272	1193.483	895.340
214.636	14.303	1192.943	895.021
215.650	14.358	1191.639	894.258
216.665	14.246	1191.164	893.223
217.680	14.284	1190.147	892.583
218.694	14.352	1189.237	892.184
219.709	14.361	1188.775	891.810
220.723	14.351	1188.138	891.199
221.738	14.474	1186.864	890.823
222.753	14.496	1186.214	890.373
223.767	14.365	1185.793	889.279
224.782	14.496	1185.081	889.364
225.796	14.542	1184.346	888.977
226.811	14.544	1183.470	888.252
227.826	14.398	1183.327	887.289
228.840	14.438	1182.393	886.726
229.855	14.481	1181.436	886.154
230.869	14.476	1181.108	885.806
231.884	14.441	1179.906	884.638
232.899	14.426	1179.192	883.950
233.913	14.302	1178.801	882.919
234.928	14.402	1177.946	882.731
235.942	14.457	1177.262	882.430
236.957	14.465	1176.246	881.630
237.972	14.427	1175.658	880.911
238.986	14.514	1175.212	880.959
240.001	14.493	1173.953	879.826
241.015	14.514	1173.157	879.263
242.030	14.512	1172.626	878.778
243.045	14.589	1171.523	878.278
244.059	14.646	1170.566	877.784
245.074	14.693	1169.764	877.354
246.088	14.669	1169.071	876.629
247.103	14.735	1168.297	876.316
248.117	14.719	1167.844	875.815
249.132	14.830	1167.380	875.971
250.147	14.918	1166.605	875.772
251.161	14.939	1165.769	875.178
252.176	14.983	1165.067	874.804
253.190	14.992	1164.363	874.243
254.205	15.063	1164.099	874.342
255.220	15.089	1163.227	873.743
256.234	15.099	1162.234	872.973
257.249	15.061	1161.971	872.498
258.263	15.075	1161.404	872.071
259.278	15.119	1160.662	871.664
260.293	15.033	1159.964	870.616
261.307	15.082	1159.293	870.291
262.322	15.115	1158.827	870.035
263.336	15.178	1158.118	869.754
264.351	15.065	1157.676	868.759
265.366	15.190	1156.528	868.464
266.380	15.283	1155.880	868.386
267.395	15.182	1154.938	867.077
268.409	15.204	1154.600	866.861
269.424	15.120	1153.626	865.620
270.439	15.205	1152.997	865.510
271.453	15.217	1152.555	865.165
272.468	15.199	1151.037	863.854
273.482	15.150	1150.771	863.327
274.497	15.128	1150.453	862.899
275.512	15.181	1149.549	862.416
276.526	15.178	1149.046	861.947
277.541	15.203	1148.323	861.455
278.555	15.174	1147.701	860.765
279.570	15.323	1146.530	860.575
280.585	15.329	1146.124	860.223
281.599	15.448	1144.861	859.812
282.614	15.355	1143.947	858.570
283.628	15.351	1142.647	857.502
284.643	15.442	1141.774	857.232
285.657	15.329	1141.435	856.324
286.672	15.389	1140.224	855.646
287.687	15.388	1139.426	854.969
288.701	15.518	1138.368	854.759
289.716	15.448	1137.379	853.586
290.730	15.364	1137.134	852.898
291.745	15.490	1136.340	852.871
292.760	15.471	1135.635	852.168
293.774	15.533	1135.422	852.247
294.789	15.590	1134.865	852.042
295.803	15.561	1134.001	851.171
296.818	15.561	1133.135	850.448
297.833	15.503	1132.306	849.455
298.847	15.547	1131.548	849.032
299.862	15.683	1130.501	848.858
300.876	15.510	1130.544	847.944
301.891	15.591	1129.485	847.485
302.906	15.680	1128.768	847.318
303.920	15.741	1128.187	847.115
304.935	15.719	1127.440	846.371
305.949	15.753	1126.926	846.077
306.964	15.751	1126.467	845.648
307.979	15.761	1125.327	844.769
308.993	15.760	1124.490	844.059
310.008	15.829	1123.806	843.817
311.022	15.949	1122.662	843.485
312.037	15.878	1121.900	842.482
313.052	15.919	1120.749	841.747
314.066	15.784	1120.267	840.638
315.081	15.696	1119.662	839.671
316.095	15.892	1118.596	839.777
317.110	15.774	1118.160	838.784
318.125	15.726	1117.165	837.726
319.139	15.792	1116.294	837.328
320.154	15.720	1115.916	836.610
321.168	15.740	1115.413	836.259
322.183	15.701	1114.551	835.346
323.197	15.894	1113.702	835.593
324.212	15.880	1113.404	835.226
325.227	15.882	1112.887	834.772
326.241	15.834	1112.024	833.815
327.256	15.881	1110.991	833.197
328.270	15.895	1110.507	832.830
329.285	15.842	1109.177	831.497
330.300	15.878	1108.678	831.228
331.314	15.961	1107.421	830.624
332.329	15.835	1107.029	829.633
333.343	15.895	1105.846	828.966
334.358	15.934	1105.009	828.459
335.373	15.916	1104.698	828.064
336.387	15.988	1103.580	827.510
337.402	16.052	1102.718	827.103
338.416	16.126	1101.672	826.606
339.431	16.093	1101.447	826.204
340.446	16.190	1100.670	826.020
341.460	16.364	1100.009	826.306
342.475	16.242	1099.275	825.085
343.489	16.211	1098.817	824.514
344.504	16.375	1097.374	824.160
345.519	16.275	1096.557	822.985
346.533	16.435	1095.770	823.101
347.548	16.356	1095.100	822.142
348.562	16.445	1094.147	821.785
349.577	16.482	1093.402	821.335
350.592	16.288	1092.818	819.879
351.606	16.264	1091.863	818.974
352.621	16.344	1091.308	818.874
353.635	16.188	1090.983	817.799
354.650	16.196	1090.084	817.091
355.665	16.269	1089.194	816.704
356.679	16.381	1088.390	816.575
357.694	16.393	1087.797	816.113
358.708	16.470	1087.198	815.966
359.723	16.364	1086.572	814.911
360.738	16.435	1086.429	815.075
361.752	16.459	1085.638	814.525
362.767	16.505	1085.074	814.251
363.781	16.383	1084.649	813.273
364.796	16.500	1084.166	813.399
365.810	16.551	1083.309	812.931
366.825	16.606	1082.455	812.484
367.840	16.655	1082.346	812.563
368.854	16.714	1081.714	812.302
369.869	16.713	1080.687	811.454
370.883	16.721	1079.516	810.539
371.898	16.706	1079.104	810.086
372.913	16.784	1078.409	809.866
373.927	16.692	1078.161	809.170
374.942	16.702	1077.654	808.765
375.956	16.730	1077.207	808.491
376.971	16.775	1076.413	808.040
377.986	16.808	1075.602	807.516
379.000	16.823	1075.490	807.429
380.015	16.867	1074.973	807.181
381.029	16.979	1073.945	806.869
382.044	16.910	1073.462	806.108
383.059	16.894	1072.787	805.454
384.073	16.968	1071.671	804.895
385.088	16.903	1070.911	803.946
386.102	16.926	1070.110	803.380
387.117	16.933	1069.021	802.526
388.132	16.954	1068.204	801.943
389.146	16.827	1067.432	800.692
390.161	16.887	1066.574	800.261
391.175	16.815	1066.163	799.542
392.190	16.901	1065.474	799.360
393.205	17.045	1064.891	799.532
394.219	16.992	1064.018	798.553
395.234	16.879	1063.078	797.246
396.248	16.953	1061.948	796.677
397.263	16.918	1061.066	795.782
398.278	16.918	1060.536	795.314
399.292	16.876	1059.898	794.567
400.307	16.894	1058.934	793.855
401.321	16.960	1058.824	794.013
402.336	16.986	1057.756	793.265
403.350	17.018	1056.923	792.717
404.365	16.925	1056.325	791.765
405.380	17.077	1055.610	791.870
406.394	17.123	1054.982	791.542
407.409	17.177	1053.980	790.971
408.423	17.099	1053.538	790.207
409.438	17.129	1052.921	789.813
410.453	17.288	1051.993	789.786
411.467	17.386	1051.413	789.737
412.482	17.368	1050.533	788.920
413.496	17.357	1050.150	788.513
414.511	17.353	1049.699	788.089
415.526	17.425	1049.155	787.943
416.540	17.505	1048.312	787.611
417.555	17.483	1047.750	787.016
418.569	17.400	1047.429	786.323
419.584	17.564	1046.807	786.543
420.599	17.460	1046.621	785.855
421.613	104.470	1326.156	1475.625
422.628	96.024	1366.847	1475.726
