DTS Sentinel unit serial number:	SN413079Multiplexer serial number:	ORYXHardware model number:	OX4-SRSoftware version number:	ORYX F/W v4.00 Oryx Data Collector v3.7.2.0data status	okinstallation	princeton_trtdifferential loss correction	single-endedforward channel	channel 2reverse channel	N/Adate	2019/09/14time	21:39:35forward acquisition time	60.00reverse acquisition time	0.00gamma	496.2192k internal	0.2323k external	0.2323temperature offset calibration	1.0070default loss term (dB/km)	0.3790temperature slope calibration	1.0000multiplexer offset coefficient	1.0000multiplexer slope coefficient	1.0000fibre end	0.00T internal ref (°C)	32.81T ext. ref 1 (°C)	4.76T ext. ref 2 (°C)	27.75length (m)	temperature (°C)	Stokes	anti-Stokes-747.200	-102.278	0.025	0.006
-746.185	800.000	0.035	-0.102
-745.171	800.000	0.094	-0.315
-744.156	-116.487	0.305	0.057
-743.142	117.275	-0.110	-0.136
-742.127	-150.532	-0.294	-0.023
-741.112	5.245	0.048	-0.035
-740.098	41.928	0.216	0.198
-739.083	800.000	0.105	0.353
-738.069	-83.156	0.357	-0.116
-737.054	-107.633	0.082	-0.018
-736.039	-200.000	-0.016	0.261
-735.025	-143.767	0.339	-0.032
-734.010	-94.522	-0.170	-0.047
-732.996	127.180	0.041	-0.052
-731.981	4.793	0.138	-0.102
-730.966	-1.363	-0.202	-0.144
-729.952	-126.738	-0.388	0.058
-728.937	-200.000	0.027	-0.126
-727.923	-66.867	-0.143	0.057
-726.908	-66.660	-0.191	-0.076
-725.894	75.709	-0.110	0.117
-724.879	27.051	0.085	-0.072
-723.864	34.242	0.136	-0.119
-722.850	181.222	-0.018	-0.026
-721.835	-200.000	-0.002	0.129
-720.821	-24.060	-0.236	0.142
-719.806	623.429	-0.086	0.219
-718.791	-10.914	-0.076	0.051
-717.777	-61.191	0.245	0.104
-716.762	-200.000	0.070	0.321
-715.748	-52.469	-0.253	0.118
-714.733	-56.067	-0.235	0.106
-713.718	800.000	-0.095	-0.287
-712.704	-96.883	-0.063	-0.017
-711.689	-103.215	-0.176	-0.042
-710.675	183.601	-0.083	-0.123
-709.660	-200.000	-0.023	0.341
-708.645	63.469	-0.316	0.320
-707.631	800.000	-0.054	0.180
-706.616	-146.005	-0.397	-0.035
-705.602	183.298	-0.172	0.257
-704.587	39.220	0.221	-0.200
-703.572	-95.260	-0.290	0.079
-702.558	-128.191	0.172	-0.025
-701.543	-28.429	-0.130	0.075
-700.529	-111.640	0.308	0.063
-699.514	-200.000	0.005	0.037
-698.499	-56.655	0.141	0.063
-697.485	-200.000	0.026	0.224
-696.470	-49.904	0.111	-0.053
-695.456	-200.000	-0.110	0.642
-694.441	-116.604	0.335	0.062
-693.426	-145.695	-0.326	0.029
-692.412	-64.592	-0.103	0.042
-691.397	-200.000	0.007	0.066
-690.383	-83.235	-0.450	0.146
-689.368	-200.000	0.009	0.141
-688.354	96.371	-0.146	-0.168
-687.339	239.123	-0.113	-0.190
-686.324	-200.000	0.069	-0.332
-685.310	800.000	-0.039	-0.109
-684.295	129.332	-0.186	0.240
-683.281	490.060	-0.211	0.487
-682.266	800.000	-0.121	-0.461
-681.251	146.053	0.142	-0.191
-680.237	-192.656	-0.390	0.004
-679.222	-200.000	-0.017	0.315
-678.208	-164.714	-0.197	0.009
-677.193	-200.000	0.029	0.166
-676.178	-127.101	0.336	-0.050
-675.164	800.000	-0.073	0.278
-674.149	-200.000	-0.028	-0.256
-673.135	-49.595	-0.321	-0.154
-672.120	800.000	-0.070	0.273
-671.105	644.488	0.071	0.183
-670.091	191.914	-0.054	-0.082
-669.076	87.617	-0.051	-0.057
-668.062	145.764	-0.127	-0.171
-667.047	800.000	0.087	0.277
-666.032	305.428	0.026	0.049
-665.018	-200.000	-0.013	-0.070
-664.003	-200.000	0.019	0.402
-662.989	-4.573	-0.281	-0.196
-661.974	-122.127	-0.221	-0.036
-660.959	32.919	0.228	-0.198
-659.945	62.332	-0.248	0.249
-658.930	-50.125	0.256	0.122
-657.916	62.029	-0.309	0.310
-656.901	20.810	0.280	0.228
-655.886	108.734	-0.265	0.318
-654.872	-111.509	0.261	-0.053
-653.857	150.654	0.142	-0.194
-652.843	-200.000	0.126	-0.557
-651.828	800.000	0.014	-0.055
-650.814	-151.743	0.290	0.021
-649.799	-144.130	0.272	0.026
-648.784	-55.957	-0.384	0.172
-647.770	-158.364	0.136	0.008
-646.755	163.313	-0.179	-0.254
-645.741	-100.684	-0.095	0.023
-644.726	-200.000	-0.007	0.394
-643.711	800.000	-0.055	-0.219
-642.697	364.473	0.186	-0.377
-641.682	51.772	0.124	-0.119
-640.668	-37.312	-0.073	-0.039
-639.653	72.881	0.171	0.179
-638.638	-116.639	0.128	0.024
-637.624	-68.937	-0.219	-0.085
-636.609	156.074	0.204	0.283
-635.595	-200.000	0.148	-0.001
-634.580	-109.714	-0.317	0.067
-633.565	-129.867	-0.108	0.015
-632.551	-105.427	-0.197	-0.045
-631.536	-174.919	-0.482	-0.014
-630.522	120.322	0.091	-0.114
-629.507	-92.126	-0.286	0.081
-628.492	73.277	-0.123	0.130
-627.478	11.491	-0.167	-0.128
-626.463	79.867	-0.093	0.100
-625.449	3.510	-0.096	-0.070
-624.434	-150.042	0.244	0.019
-623.419	-35.379	-0.108	-0.059
-622.405	-106.494	-0.314	-0.071
-621.390	20.272	0.263	-0.213
-620.376	800.000	-0.036	0.154
-619.361	-95.525	0.476	0.128
-618.346	800.000	0.036	-0.150
-617.332	-200.000	-0.018	0.122
-616.317	-200.000	-0.048	-0.219
-615.303	-200.000	0.018	0.100
-614.288	-85.626	-0.260	-0.081
-613.273	296.834	-0.023	-0.042
-612.259	378.860	0.092	-0.189
-611.244	800.000	-0.095	0.310
-610.230	23.257	0.142	-0.118
-609.215	18.157	-0.260	-0.208
-608.201	124.637	-0.277	0.350
-607.186	124.503	-0.253	0.319
-606.171	-200.000	-0.035	-0.161
-605.157	23.721	0.286	-0.236
-604.142	-78.204	-0.398	0.137
-603.128	-44.481	-0.198	0.099
-602.113	-136.375	-0.321	-0.038
-601.098	22.569	-0.084	0.069
-600.084	166.680	-0.097	-0.138
-599.069	34.371	0.278	-0.244
-598.055	103.055	-0.079	-0.093
-597.040	800.000	-0.046	0.169
-596.025	72.680	0.204	0.214
-595.011	-100.687	0.078	0.019
-593.996	645.598	0.098	0.251
-592.982	381.886	-0.021	-0.043
-591.967	800.000	0.052	0.158
-590.952	-200.000	0.045	0.261
-589.938	-59.503	0.623	-0.268
-588.923	-41.081	0.213	-0.110
-587.909	-200.000	0.006	0.076
-586.894	-10.555	0.242	-0.161
-585.879	-60.929	-0.301	-0.128
-584.865	583.442	0.128	-0.316
-583.850	-35.669	-0.093	0.051
-582.836	-200.000	-0.003	0.156
-581.821	-94.778	-0.052	-0.014
-580.806	-60.351	-0.315	-0.134
-579.792	58.807	0.221	-0.218
-578.777	800.000	-0.040	-0.138
-577.763	-92.191	0.368	-0.104
-576.748	800.000	0.090	0.339
-575.733	97.069	-0.156	-0.180
-574.719	66.231	0.158	0.161
-573.704	-76.193	-0.201	-0.071
-572.690	-200.000	-0.014	-0.157
-571.675	-200.000	-0.019	0.093
-570.661	388.391	0.053	0.111
-569.646	-200.000	-0.050	-0.337
-568.631	-200.000	0.006	-0.422
-567.617	-138.519	-0.377	-0.042
-566.602	-10.200	0.103	0.069
-565.588	-10.341	0.160	0.106
-564.573	45.821	-0.222	0.206
-563.558	160.467	-0.117	-0.164
-562.544	95.498	-0.057	0.065
-561.529	-11.042	0.197	0.130
-560.515	50.172	0.084	0.080
-559.500	800.000	-0.104	0.305
-558.485	-25.741	0.086	-0.051
-557.471	-200.000	-0.004	0.110
-556.456	800.000	-0.044	0.140
-555.442	-200.000	0.065	0.293
-554.427	-200.000	0.002	-0.077
-553.412	448.571	0.107	-0.236
-552.398	-27.112	0.036	-0.021
-551.383	-200.000	-0.010	0.088
-550.369	9.059	-0.414	-0.313
-549.354	-87.278	0.302	0.092
-548.339	-97.484	-0.042	-0.011
-547.325	-109.073	-0.226	-0.048
-546.310	18.421	0.139	0.111
-545.296	-200.000	-0.032	0.148
-544.281	16.282	-0.255	-0.201
-543.266	200.072	-0.118	-0.182
-542.252	-170.403	-0.121	-0.004
-541.237	-54.021	-0.292	-0.133
-540.223	169.836	0.228	-0.327
-539.208	283.284	-0.107	-0.192
-538.193	48.414	0.187	-0.175
-537.179	-200.000	-0.046	-0.279
-536.164	-146.248	-0.181	0.016
-535.150	-20.119	-0.236	0.146
-534.135	800.000	0.010	-0.035
-533.121	-26.075	0.145	-0.085
-532.106	77.376	-0.104	0.111
-531.091	-105.655	-0.291	0.066
-530.077	-200.000	-0.024	0.414
-529.062	29.980	0.146	-0.124
-528.048	-200.000	-0.005	-0.125
-527.033	-66.415	0.166	-0.066
-526.018	-200.000	0.041	0.197
-525.004	325.474	-0.082	-0.158
-523.989	-42.710	-0.147	0.075
-522.975	79.599	-0.163	0.175
-521.960	317.761	0.091	0.172
-520.945	17.723	-0.236	0.188
-519.931	-51.740	-0.095	-0.044
-518.916	-200.000	-0.003	-0.094
-517.902	314.667	-0.135	0.255
-516.887	-52.952	0.028	0.013
-515.872	-2.983	-0.259	-0.181
-514.858	-200.000	0.028	-0.380
-513.843	800.000	0.036	0.105
-512.829	-91.097	0.176	0.051
-511.814	-200.000	0.021	0.196
-510.799	-1.846	0.031	0.022
-509.785	-2.839	-0.341	-0.239
-508.770	-200.000	0.064	0.330
-507.756	377.349	-0.046	-0.094
-506.741	-200.000	-0.082	0.449
-505.726	652.934	0.130	-0.334
-504.712	-121.277	-0.283	0.047
-503.697	541.923	0.075	0.178
-502.683	125.581	0.059	-0.075
-501.668	-178.643	-0.197	-0.005
-500.653	231.996	-0.098	0.161
-499.639	329.510	-0.077	0.147
-498.624	-32.455	0.175	0.098
-497.610	359.840	0.069	-0.137
-496.595	-93.522	0.127	-0.035
-495.581	148.762	0.179	-0.242
-494.566	800.000	0.035	-0.137
-493.551	38.445	-0.128	0.114
-492.537	-97.881	0.302	-0.078
-491.522	-156.648	-0.111	0.007
-490.508	194.472	-0.139	0.210
-489.493	800.000	-0.038	-0.116
-488.478	800.000	0.029	-0.113
-487.464	262.578	0.148	0.256
-486.449	164.010	-0.157	-0.220
-485.435	-169.285	-0.436	0.016
-484.420	-91.417	0.123	-0.035
-483.405	-200.000	0.004	-0.154
-482.391	0.237	-0.431	0.307
-481.376	40.596	-0.182	-0.164
-480.362	-40.426	0.155	0.080
-479.347	-200.000	-0.401	-0.001
-478.332	-40.961	0.116	0.060
-477.318	309.073	-0.026	0.049
-476.303	800.000	0.098	-0.309
-475.289	-200.000	-0.006	0.138
-474.274	255.102	0.221	-0.379
-473.259	31.911	0.118	-0.102
-472.245	800.000	0.059	0.198
-471.230	679.759	-0.215	0.559
-470.216	-29.706	-0.165	-0.094
-469.201	-50.507	-0.207	-0.098
-468.186	800.000	0.039	0.132
-467.172	248.892	0.113	0.190
-466.157	-68.278	-0.350	-0.136
-465.143	-29.934	0.402	-0.229
-464.128	-31.518	0.137	0.077
-463.113	159.163	0.229	0.317
-462.099	61.555	-0.374	0.372
-461.084	77.941	0.059	0.063
-460.070	-200.000	0.006	0.354
-459.055	365.248	-0.061	0.122
-458.040	-153.185	-0.156	0.011
-457.026	800.000	-0.025	-0.090
-456.011	4.450	0.054	0.040
-454.997	177.820	0.202	-0.294
-453.982	-67.128	0.086	0.034
-452.968	661.456	-0.039	-0.101
-451.953	-200.000	-0.003	0.034
-450.938	-200.000	-0.007	0.131
-449.924	-63.328	0.128	-0.053
-448.909	-46.639	0.201	-0.098
-447.895	116.433	-0.248	-0.303
-446.880	-87.891	-0.283	0.085
-445.865	200.993	0.035	-0.054
-444.851	-181.974	-0.301	0.006
-443.836	-81.066	0.068	-0.022
-442.822	9.130	0.056	0.042
-441.807	7.876	0.362	0.271
-440.792	-200.000	-0.038	-0.223
-439.778	-136.036	0.261	-0.031
-438.763	282.192	-0.026	0.047
-437.749	185.887	0.119	-0.176
-436.734	-200.000	-0.004	-0.134
-435.719	-56.685	-0.106	0.047
-434.705	101.718	0.150	0.174
-433.690	-47.058	0.191	0.093
-432.676	-200.000	0.040	-0.349
-431.661	71.226	0.233	0.242
-430.646	-200.000	0.013	0.116
-429.632	-6.351	-0.141	-0.096
-428.617	37.609	-0.243	0.215
-427.603	147.293	-0.090	-0.121
-426.588	-184.877	0.240	-0.004
-425.573	-160.833	-0.029	-0.002
-424.559	-63.533	-0.189	0.077
-423.544	-108.569	-0.035	-0.007
-422.530	-200.000	-0.009	0.052
-421.515	-32.135	0.016	-0.009
-420.500	101.130	-0.053	0.061
-419.486	-69.453	0.048	-0.018
-418.471	651.743	0.076	-0.195
-417.457	-200.000	0.027	-0.137
-416.442	-85.572	0.031	-0.010
-415.428	221.028	-0.015	-0.024
-414.413	-27.905	0.297	-0.172
-413.398	-62.491	-0.152	0.063
-412.384	232.676	-0.185	0.303
-411.369	800.000	0.060	-0.184
-410.355	68.257	0.263	-0.268
-409.340	-200.000	-0.025	-0.140
-408.325	-3.393	0.400	0.277
-407.311	-200.000	-0.004	0.026
-406.296	75.484	0.083	-0.087
-405.282	8.409	0.206	-0.154
-404.267	97.059	-0.046	-0.052
-403.252	18.326	0.282	0.224
-402.238	800.000	-0.057	0.210
-401.223	662.509	-0.018	-0.046
-400.209	633.825	-0.042	0.107
-399.194	120.645	-0.194	0.241
-398.179	79.071	0.325	0.347
-397.165	7.644	0.304	-0.227
-396.150	266.964	-0.273	-0.475
-395.136	4.965	0.157	-0.115
-394.121	381.651	0.092	0.188
-393.106	-200.000	0.024	-0.233
-392.092	-200.000	0.017	0.304
-391.077	800.000	-0.060	-0.196
-390.063	800.000	-0.041	0.177
-389.048	-9.429	0.115	-0.077
-388.033	91.118	-0.321	0.359
-387.019	-200.000	-0.056	0.278
-386.004	392.460	0.074	0.154
-384.990	165.996	0.199	0.281
-383.975	248.614	-0.157	-0.265
-382.960	66.527	0.074	-0.075
-381.946	-45.096	-0.126	-0.062
-380.931	365.412	0.134	-0.268
-379.917	15.087	0.170	0.133
-378.902	106.280	-0.226	-0.267
-377.888	-121.323	0.328	0.054
-376.873	463.120	0.182	0.406
-375.858	-60.081	0.054	-0.023
-374.844	88.368	0.145	-0.161
-373.829	74.991	0.247	0.259
-372.815	799.097	-0.117	0.322
-371.800	-54.255	-0.080	0.036
-370.785	-60.372	-0.178	0.075
-369.771	48.165	0.084	0.078
-368.756	-200.000	-0.002	0.053
-367.742	-15.119	0.167	-0.106
-366.727	-20.613	-0.147	0.090
-365.712	180.230	-0.058	-0.085
-364.698	-101.666	0.204	0.049
-363.683	-200.000	0.002	0.081
-362.669	161.796	0.112	0.156
-361.654	-60.008	0.075	0.032
-360.639	294.671	-0.093	0.168
-359.625	305.544	-0.144	-0.266
-358.610	-200.000	-0.029	0.145
-357.596	800.000	0.073	-0.219
-356.581	-200.000	-0.177	-0.000
-355.566	118.447	-0.094	-0.115
-354.552	800.000	-0.034	-0.147
-353.537	132.487	-0.169	0.216
-352.523	-110.288	0.095	-0.020
-351.508	-32.152	-0.181	0.101
-350.493	-147.662	-0.024	0.002
-349.479	-116.618	-0.353	0.065
-348.464	-149.788	-0.229	0.018
-347.450	606.284	-0.125	0.310
-346.435	16.498	-0.215	-0.169
-345.420	-200.000	-0.092	-0.562
-344.406	375.033	-0.153	-0.311
-343.391	-116.762	0.193	-0.035
-342.377	-128.004	0.211	-0.030
-341.362	24.914	0.165	-0.136
-340.348	-200.000	0.276	0.001
-339.333	-200.000	-0.033	-0.235
-338.318	800.000	0.055	0.209
-337.304	-23.220	-0.077	0.046
-336.289	3.486	0.205	0.148
-335.275	351.751	-0.049	0.096
-334.260	-119.292	0.154	0.027
-333.245	-200.000	-0.024	0.168
-332.231	-137.935	0.193	0.021
-331.216	140.959	-0.360	-0.472
-330.202	-60.051	0.014	0.006
-329.187	25.283	0.076	-0.063
-328.172	83.190	0.093	-0.101
-327.158	218.841	0.033	0.052
-326.143	800.000	0.096	0.379
-325.129	-43.358	0.599	0.301
-324.114	-200.000	-0.006	-0.032
-323.099	503.732	0.038	-0.087
-322.085	87.371	-0.125	-0.138
-321.070	-158.147	0.228	0.013
-320.056	-68.158	-0.230	-0.089
-319.041	132.445	-0.092	-0.118
-318.026	800.000	0.086	-0.256
-317.012	-69.410	0.231	-0.088
-315.997	-66.178	0.138	0.055
-314.983	2.480	0.281	-0.202
-313.968	-200.000	-0.008	-0.135
-312.953	286.110	0.112	-0.201
-311.939	-78.004	0.425	-0.146
-310.924	-144.170	0.160	0.015
-309.910	-11.150	0.047	-0.031
-308.895	-8.287	0.267	-0.179
-307.880	-200.000	0.040	0.236
-306.866	800.000	0.058	-0.169
-305.851	178.168	-0.218	0.315
-304.837	-6.305	0.172	0.116
-303.822	-200.000	-0.027	-0.188
-302.807	800.000	-0.057	-0.195
-301.793	388.197	-0.014	0.029
-300.778	-200.000	-0.032	-0.324
-299.764	-59.933	0.231	-0.098
-298.749	51.162	0.144	-0.136
-297.735	-70.136	-0.118	0.045
-296.720	-75.547	0.109	-0.039
-295.705	-85.439	0.205	-0.063
-294.691	-62.296	0.401	0.166
-293.676	797.111	0.035	-0.097
-292.662	-200.000	-0.021	0.187
-291.647	69.827	0.137	-0.140
-290.632	-46.001	-0.418	-0.204
-289.618	295.506	0.149	-0.271
-288.603	-200.000	-0.027	-0.296
-287.589	800.000	0.074	0.218
-286.574	-114.320	0.229	-0.044
-285.559	756.399	-0.045	-0.120
-284.545	-32.903	0.363	0.200
-283.530	800.000	0.087	0.324
-282.516	36.945	0.184	0.161
-281.501	-200.000	0.003	0.185
-280.486	-115.220	-0.158	0.030
-279.472	-200.000	0.062	0.315
-278.457	-123.501	0.009	0.001
-277.443	-142.085	-0.417	-0.041
-276.428	-200.000	-0.040	0.337
-275.413	800.000	-0.062	0.191
-274.399	800.000	-0.023	-0.093
-273.384	34.887	0.232	-0.201
-272.370	-200.000	0.000	0.013
-271.355	-79.980	-0.277	-0.092
-270.340	-200.000	-0.034	-0.397
-269.326	574.429	-0.119	-0.287
-268.311	8.365	-0.213	0.159
-267.297	-47.096	-0.208	-0.101
-266.282	-200.000	0.043	0.280
-265.267	-200.000	0.018	-0.142
-264.253	268.607	-0.010	-0.018
-263.238	23.301	-0.067	-0.055
-262.224	41.057	-0.117	0.105
-261.209	-87.746	0.291	-0.087
-260.195	33.927	0.064	-0.055
-259.180	54.227	-0.234	0.223
-258.165	40.451	0.219	-0.195
-257.151	-200.000	-0.038	-0.454
-256.136	151.888	0.022	0.030
-255.122	-14.375	-0.214	-0.137
-254.107	454.102	-0.129	0.283
-253.092	-166.174	-0.436	-0.018
-252.078	-49.512	-0.130	-0.061
-251.063	-27.431	0.108	-0.062
-250.049	441.685	0.046	-0.101
-249.034	-200.000	-0.043	-0.330
-248.019	17.827	0.275	-0.217
-247.005	-200.000	0.062	-0.376
-245.990	-9.143	-0.204	0.135
-244.976	-31.632	-0.109	0.061
-243.961	-20.762	0.124	0.076
-242.946	-75.276	0.219	-0.077
-241.932	28.456	-0.391	-0.327
-240.917	141.892	0.231	0.304
-239.903	-108.648	0.285	-0.060
-238.888	800.000	0.068	0.234
-237.873	-200.000	0.033	0.210
-236.859	166.408	-0.152	-0.213
-235.844	188.329	-0.130	-0.192
-234.830	-133.168	0.437	-0.055
-233.815	127.117	0.182	0.228
-232.800	-200.000	-0.015	-0.355
-231.786	-120.251	-0.253	-0.043
-230.771	-200.000	-0.006	0.434
-229.757	-181.868	0.036	-0.001
-228.742	-200.000	0.031	0.328
-227.727	415.957	0.088	-0.185
-226.713	235.224	0.126	-0.206
-225.698	140.917	0.071	-0.093
-224.684	447.599	-0.100	-0.217
-223.669	120.266	0.240	0.294
-222.655	-37.556	-0.056	-0.030
-221.640	405.614	0.087	0.183
-220.625	2.298	0.121	0.087
-219.611	60.183	-0.087	-0.085
-218.596	310.052	0.050	-0.092
-217.582	135.753	-0.407	-0.524
-216.567	398.244	0.059	-0.123
-215.552	241.530	-0.066	0.110
-214.538	329.995	-0.064	0.123
-213.523	0.394	-0.096	-0.068
-212.509	9.483	-0.291	0.218
-211.494	231.571	0.095	0.155
-210.479	-106.181	-0.070	0.016
-209.465	800.000	-0.043	0.173
-208.450	129.732	0.129	0.163
-207.436	-64.119	0.223	0.090
-206.421	119.677	0.089	0.109
-205.406	-85.240	0.336	-0.104
-204.392	-43.779	-0.087	0.043
-203.377	63.808	-0.202	0.201
-202.363	-8.558	0.062	0.041
-201.348	800.000	-0.042	0.170
-200.333	-36.253	-0.137	0.073
-199.319	186.525	0.154	0.227
-198.304	-200.000	0.003	-0.040
-197.290	-94.079	0.102	0.028
-196.275	-200.000	-0.028	-0.301
-195.260	-15.995	-0.172	0.108
-194.246	83.904	0.084	0.090
-193.231	-200.000	-0.007	0.200
-192.217	-25.238	-0.217	0.127
-191.202	25.603	-0.125	0.102
-190.187	-200.000	-0.002	0.122
-189.173	341.726	0.108	-0.208
-188.158	-11.796	-0.205	0.133
-187.144	-17.264	-0.115	0.072
-186.129	-128.186	0.309	0.044
-185.114	-120.507	-0.147	-0.025
-184.100	58.843	0.306	-0.298
-183.085	-14.756	-0.296	0.188
-182.071	-101.441	0.161	-0.039
-181.056	-18.846	-0.247	-0.152
-180.042	301.834	0.060	0.110
-179.027	-138.163	0.262	-0.029
-178.012	800.000	-0.035	0.104
-176.998	115.564	0.091	-0.110
-175.983	25.859	-0.304	-0.250
-174.969	-46.019	0.464	-0.226
-173.954	95.169	0.217	0.244
-172.939	-137.959	-0.176	-0.019
-171.925	65.376	0.216	0.216
-170.910	800.000	-0.018	0.058
-169.896	-75.979	0.294	-0.103
-168.881	800.000	-0.116	0.461
-167.866	281.715	-0.075	0.133
-166.852	65.425	-0.147	0.146
-165.837	92.428	-0.058	0.064
-164.823	-165.595	-0.299	0.013
-163.808	-76.158	0.134	0.047
-162.793	141.207	0.188	-0.246
-161.779	662.062	-0.133	0.339
-160.764	-200.000	0.023	-0.113
-159.750	-8.601	0.054	0.036
-158.735	-200.000	0.013	0.089
-157.720	-200.000	-0.396	-0.000
-156.706	-134.436	-0.074	-0.009
-155.691	200.017	0.010	-0.015
-154.677	146.882	-0.126	-0.168
-153.662	-105.367	-0.240	0.054
-152.647	136.266	-0.107	-0.137
-151.633	-16.433	0.157	-0.098
-150.618	800.000	0.027	0.099
-149.604	76.200	0.194	-0.203
-148.589	-92.051	-0.337	0.094
-147.574	-126.864	0.372	0.054
-146.560	418.315	0.080	-0.168
-145.545	-134.063	-0.302	-0.037
-144.531	205.557	-0.071	0.109
-143.516	263.254	-0.134	-0.229
-142.502	-62.050	-0.312	-0.129
-141.487	-200.000	-0.013	0.128
-140.472	31.798	-0.393	0.334
-139.458	51.515	-0.340	0.319
-138.443	-155.716	0.196	-0.012
-137.429	74.441	0.140	0.145
-136.414	250.817	0.199	0.334
-135.399	-130.161	0.101	0.014
-134.385	700.737	-0.122	0.316
-133.370	-80.464	-0.310	0.102
-132.356	-6.538	0.144	-0.097
-131.341	-200.000	-0.005	0.029
-130.326	-200.000	0.000	-0.200
-129.312	-200.000	-0.000	-0.173
-128.297	-94.108	-0.297	0.080
-127.283	3.149	-0.364	0.261
-126.268	-63.870	0.223	-0.090
-125.253	-94.264	0.068	-0.018
-124.239	800.000	-0.031	-0.106
-123.224	800.000	-0.113	0.352
-122.210	-109.731	-0.145	0.030
-121.195	-41.300	-0.055	-0.028
-120.180	-14.253	0.237	-0.151
-119.166	614.377	-0.131	0.324
-118.151	-200.000	-0.060	0.472
-117.137	-90.443	0.163	-0.046
-116.122	-200.000	0.009	0.345
-115.107	-152.624	-0.302	-0.021
-114.093	-200.000	0.016	0.270
-113.078	-63.094	0.233	0.095
-112.064	583.332	0.050	0.121
-111.049	35.513	-0.084	-0.073
-110.034	122.054	-0.225	0.277
-109.020	800.000	-0.034	0.144
-108.005	158.710	-0.058	0.079
-106.991	-66.948	-0.097	-0.038
-105.976	86.423	0.166	0.180
-104.962	53.340	0.140	-0.132
-103.947	-94.093	-0.355	-0.096
-102.932	-32.142	-0.102	-0.056
-101.918	-185.048	0.407	0.006
-100.903	-200.000	0.017	0.213
-99.889	-200.000	-0.025	0.282
-98.874	-60.713	0.233	0.097
-97.859	-74.100	-0.075	-0.027
-96.845	-113.458	0.233	0.045
-95.830	153.439	-0.061	-0.083
-94.816	783.874	0.108	0.292
-93.801	-200.000	-0.013	0.071
-92.786	-200.000	0.022	0.102
-91.772	-145.285	0.331	-0.029
-90.757	-170.088	0.194	0.007
-89.743	55.702	0.260	0.248
-88.728	-62.000	-0.140	-0.057
-87.713	94.117	-0.216	-0.242
-86.699	80.212	-0.121	0.128
-85.684	800.000	-0.036	0.128
-84.670	484.706	0.130	0.291
-83.655	-112.856	0.263	-0.051
-82.640	324.441	0.100	0.189
-81.626	-87.904	-0.141	-0.042
-80.611	734.750	-0.146	-0.385
-79.597	-139.081	0.212	0.023
-78.582	48.637	0.086	-0.079
-77.567	48.238	0.179	-0.165
-76.553	-45.333	-0.139	-0.068
-75.538	-129.953	-0.501	0.068
-74.524	-143.590	0.138	-0.013
-73.509	-145.179	0.167	-0.015
-72.494	-11.314	0.108	0.070
-71.480	6.531	0.316	0.231
-70.465	-63.410	-0.327	0.132
-69.451	-177.241	0.227	0.006
-68.436	200.379	-0.109	-0.164
-67.422	-95.451	0.124	-0.033
-66.407	-139.756	-0.238	0.025
-65.392	-126.927	0.189	-0.027
-64.378	-34.566	0.111	-0.060
-63.363	46.198	-0.047	0.042
-62.349	218.358	-0.146	-0.229
-61.334	153.146	-0.896	-1.205
-60.319	117.965	0.363	0.440
-59.305	-200.000	-0.142	-1.124
-58.290	800.000	0.328	1.010
-57.276	700.537	0.580	1.501
-56.261	-200.000	95.381	572.760
-55.246	652.204	1375.122	3464.301
-54.232	198.167	2555.700	3840.748
-53.217	113.202	2269.481	2705.587
-52.203	42.184	1895.443	1692.014
-51.188	36.076	1685.340	1458.361
-50.173	33.378	1641.155	1400.150
-49.159	50.657	1686.707	1568.789
-48.144	52.300	1703.405	1596.557
-47.130	35.664	1664.721	1437.204
-46.115	32.991	1650.154	1404.728
-45.100	32.808	1645.249	1399.143
-44.086	32.726	1642.477	1396.121
-43.071	32.673	1640.266	1393.790
-42.057	32.697	1637.329	1391.419
-41.042	32.676	1635.443	1389.604
-40.027	32.791	1633.564	1388.800
-39.013	32.665	1631.627	1386.170
-37.998	32.652	1630.343	1384.933
-36.984	32.694	1628.908	1383.965
-35.969	32.866	1627.212	1383.733
-34.954	32.872	1625.738	1382.466
-33.940	32.837	1623.995	1380.675
-32.925	32.838	1621.978	1378.909
-31.911	32.832	1620.786	1377.801
-30.896	32.762	1618.890	1375.619
-29.881	32.800	1617.315	1374.503
-28.867	32.666	1616.015	1372.374
-27.852	32.827	1614.108	1371.866
-26.838	32.877	1612.154	1370.514
-25.823	32.874	1610.953	1369.423
-24.809	32.843	1609.887	1368.233
-23.794	32.777	1608.429	1366.462
-22.779	32.819	1607.111	1365.594
-21.765	32.817	1605.410	1364.080
-20.750	32.714	1603.393	1361.566
-19.736	32.771	1602.298	1360.996
-18.721	32.871	1600.734	1360.330
-17.706	32.853	1599.031	1358.701
-16.692	32.813	1597.728	1357.257
-15.677	32.898	1596.217	1356.525
-14.663	32.887	1594.949	1355.314
-13.648	32.857	1593.535	1353.844
-12.633	32.824	1592.430	1352.614
-11.619	32.899	1590.376	1351.358
-10.604	32.780	1589.336	1349.565
-9.590	32.787	1587.928	1348.365
-8.575	32.904	1586.595	1348.017
-7.560	32.884	1585.283	1346.709
-6.546	32.886	1583.795	1345.401
-5.531	32.919	1582.796	1344.736
-4.517	32.880	1581.329	1343.156
-3.502	32.858	1580.528	1342.267
-2.487	32.878	1579.038	1341.090
-1.473	32.611	1567.265	1329.156
-0.458	29.888	1548.032	1293.790
0.556	26.251	1548.921	1262.159
1.571	23.914	1571.834	1264.130
2.586	23.251	1584.996	1269.845
3.600	20.683	1531.738	1209.247
4.615	12.637	1423.667	1071.645
5.629	5.757	1360.697	981.214
6.644	4.887	1352.216	969.603
7.659	4.713	1350.981	967.546
8.673	4.718	1350.199	966.933
9.688	4.732	1348.422	965.662
10.702	4.649	1345.549	963.007
11.717	7.684	1351.616	986.114
12.731	15.353	1364.884	1043.593
13.746	19.967	1371.986	1077.717
14.761	19.556	1370.110	1073.591
15.775	18.613	1367.211	1065.370
16.790	17.512	1364.875	1056.628
17.804	16.621	1362.583	1049.237
18.819	16.336	1361.006	1046.162
19.834	16.014	1359.989	1043.294
20.848	15.858	1358.514	1041.108
21.863	15.481	1357.689	1038.054
22.877	15.447	1356.234	1036.640
23.892	15.400	1355.556	1035.738
24.907	15.420	1354.469	1034.937
25.921	15.450	1353.456	1034.260
26.936	15.557	1352.237	1033.896
27.950	15.525	1351.552	1033.084
28.965	15.490	1351.063	1032.400
29.980	15.641	1349.969	1032.400
30.994	15.727	1348.769	1031.921
32.009	15.767	1347.545	1031.137
33.023	15.808	1346.151	1030.235
34.038	15.741	1344.849	1028.738
35.053	15.615	1344.005	1027.230
36.067	15.589	1343.122	1026.305
37.082	15.548	1341.866	1025.003
38.096	15.596	1340.936	1024.498
39.111	15.735	1339.613	1024.241
40.126	15.534	1339.122	1022.550
41.140	15.424	1338.358	1021.205
42.155	15.243	1338.051	1019.779
43.169	15.334	1337.156	1019.560
44.184	15.311	1337.126	1019.308
45.199	15.254	1337.210	1018.935
46.213	15.364	1336.306	1018.823
47.228	15.551	1334.975	1018.853
48.242	15.586	1334.065	1018.280
49.257	15.474	1332.947	1016.660
50.271	15.455	1331.501	1015.351
51.286	15.532	1330.206	1014.741
52.301	15.564	1328.785	1013.762
53.315	15.537	1327.462	1012.499
54.330	15.240	1326.900	1010.192
55.344	15.413	1325.363	1009.972
56.359	15.235	1324.441	1008.108
57.374	15.326	1323.853	1008.121
58.388	15.254	1322.827	1006.818
59.403	15.274	1322.384	1006.511
60.417	15.205	1322.071	1005.770
61.432	15.332	1320.793	1005.466
62.447	15.199	1319.782	1003.814
63.461	15.211	1318.409	1002.756
64.476	15.187	1317.168	1001.574
65.490	15.181	1316.406	1000.871
66.505	15.151	1315.159	999.660
67.520	15.176	1313.828	998.708
68.534	15.148	1312.863	997.719
69.549	15.206	1312.124	997.411
70.563	15.280	1310.038	996.180
71.578	15.095	1309.507	994.588
72.593	15.046	1308.370	993.347
73.607	15.108	1307.785	993.182
74.622	15.028	1307.045	992.057
75.636	15.047	1306.677	991.800
76.651	15.090	1305.340	990.953
77.666	15.159	1305.230	991.191
78.680	15.021	1305.072	990.167
79.695	15.118	1304.159	989.963
80.709	15.114	1303.455	989.315
81.724	15.261	1302.338	989.248
82.739	15.425	1301.165	989.233
83.753	15.376	1300.828	988.601
84.768	15.493	1299.810	988.428
85.782	15.584	1298.518	987.897
86.797	15.503	1297.328	986.425
87.812	15.600	1295.828	985.768
88.826	15.499	1294.959	984.431
89.841	15.532	1294.251	983.995
90.855	15.569	1293.213	983.335
91.870	15.582	1292.434	982.731
92.884	15.541	1291.571	981.753
93.899	15.660	1290.596	981.618
94.914	15.632	1290.423	981.233
95.928	15.632	1289.234	980.244
96.943	15.588	1288.531	979.368
97.957	15.567	1287.455	978.340
98.972	15.468	1286.373	976.852
99.987	15.526	1285.267	976.268
101.001	15.636	1284.124	975.949
102.016	15.643	1282.825	974.919
103.030	15.580	1282.611	974.302
104.045	15.609	1281.598	973.615
105.060	15.481	1279.982	971.562
106.074	15.361	1278.837	969.913
107.089	15.308	1277.405	968.433
108.103	15.160	1275.794	966.276
109.118	15.170	1274.844	965.529
110.133	15.304	1273.574	965.251
111.147	15.265	1272.688	964.271
112.162	15.307	1270.873	963.050
113.176	15.379	1269.719	962.503
114.191	15.409	1269.423	962.366
115.206	15.317	1268.162	960.796
116.220	15.333	1267.069	959.976
117.235	15.323	1265.817	958.888
118.249	15.270	1264.905	957.807
119.264	15.344	1263.814	957.320
120.279	15.312	1262.479	956.039
121.293	15.208	1261.941	954.956
122.308	15.234	1260.522	953.945
123.322	15.350	1259.424	953.691
124.337	15.181	1258.545	951.977
125.352	15.251	1257.053	951.162
126.366	15.199	1256.207	950.145
127.381	15.215	1255.392	949.533
128.395	15.121	1254.602	948.319
129.410	15.291	1253.112	948.075
130.424	15.200	1252.789	947.231
131.439	15.438	1251.565	947.566
132.454	15.326	1250.493	946.036
133.468	15.219	1250.240	945.159
134.483	15.278	1249.550	944.884
135.497	15.371	1248.445	944.491
136.512	15.347	1247.217	943.345
137.527	15.392	1245.618	942.303
138.541	15.514	1243.972	941.656
139.556	15.364	1242.998	939.997
140.570	15.406	1242.178	939.528
141.585	15.599	1240.842	939.513
142.600	15.685	1239.540	938.926
143.614	15.669	1239.010	938.353
144.629	15.717	1237.772	937.601
145.643	15.673	1236.301	936.156
146.658	15.558	1235.317	934.690
147.673	15.535	1233.976	933.465
148.687	15.374	1233.212	931.911
149.702	15.449	1231.779	931.159
150.716	15.357	1230.301	929.452
151.731	15.434	1229.214	928.973
152.746	15.474	1227.789	928.033
153.760	15.493	1226.570	927.139
154.775	15.573	1226.077	927.123
155.789	15.579	1225.047	926.293
156.804	15.673	1223.742	925.745
157.819	15.613	1222.747	924.578
158.833	15.661	1222.113	924.282
159.848	15.808	1220.952	924.129
160.862	15.636	1220.485	922.749
161.877	15.598	1219.007	921.345
162.892	15.494	1217.691	919.698
163.906	15.492	1217.270	919.288
164.921	15.556	1216.032	918.622
165.935	15.597	1215.332	918.238
166.950	15.620	1214.861	917.924
167.964	15.673	1213.850	917.366
168.979	15.548	1213.262	916.159
169.994	15.701	1212.136	916.064
171.008	15.688	1211.558	915.472
172.023	15.742	1210.940	915.220
173.037	15.754	1210.149	914.606
174.052	15.845	1209.249	914.339
175.067	15.646	1207.790	912.076
176.081	15.530	1207.003	910.773
177.096	15.587	1206.327	910.490
178.110	15.665	1205.200	909.981
179.125	15.769	1204.135	909.657
180.140	15.751	1202.607	908.325
181.154	15.724	1201.706	907.423
182.169	15.747	1200.634	906.652
183.183	15.772	1199.658	905.970
184.198	15.814	1198.139	904.971
185.213	15.869	1197.083	904.391
186.227	15.867	1196.139	903.583
187.242	15.929	1195.524	903.372
188.256	15.924	1194.447	902.451
189.271	16.096	1193.004	902.202
190.286	15.884	1191.974	900.208
191.300	15.592	1191.032	897.857
192.315	15.596	1190.414	897.334
193.329	15.753	1189.785	897.617
194.344	15.651	1189.098	896.479
195.359	15.734	1188.778	896.597
196.373	15.805	1188.511	896.699
197.388	15.873	1188.228	896.764
198.402	16.044	1187.425	896.990
199.417	16.165	1186.899	897.156
200.432	16.096	1186.443	896.365
201.446	16.226	1185.263	896.089
202.461	16.222	1184.640	895.517
203.475	16.286	1183.449	894.875
204.490	16.138	1182.171	893.047
205.504	16.059	1181.091	891.733
206.519	16.039	1179.915	890.664
207.534	16.124	1178.277	889.793
208.548	15.976	1178.035	888.754
209.563	16.074	1176.820	888.272
210.577	16.143	1175.984	887.926
211.592	16.195	1175.615	887.844
212.607	16.272	1174.596	887.401
213.621	16.301	1173.703	886.802
214.636	16.254	1172.978	885.926
215.650	16.267	1171.800	885.027
216.665	16.271	1171.099	884.440
217.680	16.389	1170.168	884.275
218.694	16.415	1169.562	883.877
219.709	16.402	1168.564	882.973
220.723	16.304	1167.861	881.854
221.738	16.316	1166.771	881.013
222.753	16.352	1166.402	880.847
223.767	16.435	1165.651	880.636
224.782	16.509	1164.841	880.328
225.796	16.534	1164.183	879.882
226.811	16.562	1163.537	879.463
227.826	16.350	1162.940	877.832
228.840	16.414	1162.279	877.591
229.855	16.469	1161.685	877.349
230.869	16.464	1160.411	876.280
231.884	16.427	1159.718	875.491
232.899	16.355	1159.080	874.559
233.913	16.440	1158.395	874.405
234.928	16.344	1157.624	873.246
235.942	16.374	1156.663	872.602
236.957	16.332	1156.041	871.837
237.972	16.392	1155.248	871.473
238.986	16.377	1154.757	870.945
240.001	16.420	1154.165	870.646
241.015	16.424	1153.016	869.721
242.030	16.502	1152.134	869.381
243.045	16.600	1151.737	869.510
244.059	16.478	1150.979	868.234
245.074	16.558	1150.250	868.018
246.088	16.607	1149.341	867.503
247.103	16.690	1148.747	867.406
248.117	16.603	1148.360	866.590
249.132	16.783	1147.156	866.526
250.147	16.898	1146.700	866.692
251.161	16.988	1145.908	866.478
252.176	16.947	1145.308	865.735
253.190	17.037	1144.669	865.636
254.205	17.086	1144.110	865.389
255.220	17.148	1143.313	865.025
256.234	17.137	1142.795	864.498
257.249	17.176	1142.123	864.115
258.263	17.044	1141.746	863.078
259.278	17.038	1140.917	862.345
260.293	17.059	1140.635	862.162
261.307	17.207	1139.708	862.135
262.322	17.308	1138.917	861.973
263.336	17.204	1138.387	860.972
264.351	17.187	1138.042	860.545
265.366	17.237	1137.137	860.039
266.380	17.226	1136.481	859.413
267.395	17.270	1135.276	858.648
268.409	17.227	1134.803	857.998
269.424	17.204	1134.240	857.380
270.439	17.231	1133.523	856.895
271.453	17.161	1132.892	855.988
272.468	16.996	1132.276	854.617
273.482	17.078	1131.158	854.110
274.497	17.120	1130.780	853.962
275.512	17.245	1130.129	854.022
276.526	17.158	1129.380	852.944
277.541	17.150	1128.719	852.330
278.555	17.265	1128.085	852.354
279.570	17.346	1127.246	852.049
280.585	17.446	1126.069	851.587
281.599	17.327	1125.769	850.684
282.614	17.366	1124.372	849.752
283.628	17.265	1123.293	848.359
284.643	17.271	1122.326	847.583
285.657	17.425	1121.462	847.619
286.672	17.262	1120.920	846.324
287.687	17.303	1119.520	845.395
288.701	17.367	1119.043	845.281
289.716	17.253	1118.452	844.192
290.730	17.412	1117.652	844.302
291.745	17.382	1117.027	843.607
292.760	17.486	1116.012	843.282
293.774	17.495	1115.601	842.940
294.789	17.629	1114.913	843.006
295.803	17.618	1114.365	842.463
296.818	17.565	1113.502	841.478
297.833	17.427	1112.855	840.233
298.847	17.500	1112.317	840.111
299.862	17.558	1111.113	839.412
300.876	17.550	1110.560	838.881
301.891	17.588	1110.171	838.700
302.906	17.601	1109.466	838.160
303.920	17.652	1108.995	837.977
304.935	17.669	1108.687	837.755
305.949	17.815	1107.772	837.708
306.964	17.752	1106.896	836.659
307.979	17.715	1106.019	835.745
308.993	17.659	1105.503	835.005
310.008	17.754	1104.722	834.805
311.022	17.782	1103.835	834.197
312.037	17.884	1102.940	833.949
313.052	17.792	1101.804	832.566
314.066	17.740	1101.114	831.716
315.081	17.649	1100.404	830.662
316.095	17.595	1099.402	829.570
317.110	17.547	1098.809	828.817
318.125	17.592	1097.723	828.142
319.139	17.672	1097.143	828.022
320.154	17.739	1096.494	827.781
321.168	17.580	1096.030	826.586
322.183	17.668	1095.671	826.672
323.197	17.779	1095.186	826.767
324.212	17.736	1094.260	825.790
325.227	17.765	1093.720	825.450
326.241	17.634	1093.033	824.222
327.256	17.790	1091.913	824.061
328.270	17.684	1091.489	823.156
329.285	17.756	1090.335	822.557
330.300	17.912	1089.205	822.387
331.314	17.784	1088.338	821.042
332.329	17.875	1087.577	820.832
333.343	17.790	1086.558	819.581
334.358	17.908	1085.985	819.645
335.373	17.912	1085.454	819.192
336.387	17.997	1084.666	818.931
337.402	17.979	1084.093	818.341
338.416	18.087	1082.972	817.937
339.431	17.993	1082.941	817.392
340.446	18.176	1081.860	817.378
341.460	18.145	1081.897	817.189
342.475	18.170	1080.597	816.251
343.489	18.258	1079.906	816.077
344.504	18.301	1078.981	815.511
345.519	18.319	1078.234	814.960
346.533	18.412	1077.085	814.462
347.548	18.332	1076.951	813.906
348.562	18.331	1075.631	812.832
349.577	18.210	1074.811	811.567
350.592	18.147	1074.237	810.763
351.606	18.203	1073.460	810.371
352.621	18.100	1072.928	809.408
353.635	18.120	1072.061	808.778
354.650	18.254	1071.214	808.701
355.665	18.241	1070.709	808.187
356.679	18.244	1070.177	807.730
357.694	18.211	1069.490	806.980
358.708	18.207	1069.113	806.608
359.723	18.401	1068.306	806.844
360.738	18.332	1067.725	806.006
361.752	18.345	1067.148	805.562
362.767	18.395	1066.466	805.207
363.781	18.356	1065.741	804.406
364.796	18.564	1065.371	805.033
365.810	18.534	1064.734	804.343
366.825	18.666	1063.883	804.246
367.840	18.660	1063.809	804.091
368.854	18.716	1063.268	803.870
369.869	18.693	1062.538	803.139
370.883	18.712	1061.415	802.308
371.898	18.627	1060.270	800.979
372.913	18.645	1060.042	800.819
373.927	18.680	1059.666	800.626
374.942	18.697	1059.215	800.296
375.956	18.741	1058.955	800.230
376.971	18.705	1057.807	799.125
377.986	18.767	1057.451	799.075
379.000	18.850	1057.169	799.178
380.015	18.826	1056.659	798.608
381.029	18.943	1055.725	798.374
382.044	18.896	1055.238	797.717
383.059	18.883	1054.281	796.863
384.073	18.904	1053.715	796.464
385.088	19.043	1052.686	796.259
386.102	18.947	1051.854	795.115
387.117	18.871	1050.894	793.967
388.132	18.862	1049.841	793.059
389.146	18.638	1049.533	791.723
390.161	18.708	1048.798	791.424
391.175	18.809	1048.160	791.338
392.190	18.945	1047.296	791.239
393.205	18.930	1046.211	790.280
394.219	19.004	1045.442	789.971
395.234	18.908	1044.763	788.948
396.248	18.915	1043.646	788.067
397.263	18.832	1042.773	786.957
398.278	18.887	1041.804	786.408
399.292	18.878	1040.979	785.673
400.307	18.728	1040.791	784.777
401.321	18.837	1040.282	784.819
402.336	18.821	1039.829	784.335
403.350	18.713	1038.963	783.120
404.365	18.809	1038.019	782.777
405.380	18.878	1037.693	782.777
406.394	18.942	1036.661	782.222
407.409	19.039	1036.020	782.111
408.423	19.079	1035.199	781.602
409.438	19.132	1034.575	781.304
410.453	19.286	1033.808	781.350
411.467	19.229	1033.313	780.650
412.482	19.310	1032.792	780.556
413.496	19.262	1032.130	779.766
414.511	19.169	1031.914	779.114
415.526	19.472	1031.109	779.807
416.540	19.359	1031.061	779.193
417.555	19.388	1030.315	778.691
418.569	19.385	1029.683	778.132
419.584	19.396	1029.259	777.790
420.599	19.348	1028.765	777.129
421.613	151.369	1401.129	1793.693
422.628	138.060	1455.378	1793.811
