DTS Sentinel unit serial number:	SN413079Multiplexer serial number:	ORYXHardware model number:	OX4-SRSoftware version number:	ORYX F/W v4.00 Oryx Data Collector v3.7.2.0data status	okinstallation	princeton_trtdifferential loss correction	single-endedforward channel	channel 2reverse channel	N/Adate	2019/09/15time	06:51:35forward acquisition time	60.00reverse acquisition time	0.00gamma	496.2192k internal	0.2326k external	0.2326temperature offset calibration	1.0028default loss term (dB/km)	0.3790temperature slope calibration	1.0000multiplexer offset coefficient	1.0000multiplexer slope coefficient	1.0000fibre end	0.00T internal ref (°C)	30.48T ext. ref 1 (°C)	4.81T ext. ref 2 (°C)	25.51length (m)	temperature (°C)	Stokes	anti-Stokes-747.200	-17.716	0.218	0.138
-746.185	-142.696	-0.188	0.018
-745.171	-81.535	-0.393	0.131
-744.156	137.565	-0.276	0.364
-743.142	-52.339	-0.506	-0.237
-742.127	63.189	0.145	-0.147
-741.112	800.000	-0.041	-0.121
-740.098	-17.943	-0.179	0.113
-739.083	469.673	-0.083	-0.189
-738.069	-2.919	-0.373	0.262
-737.054	-79.978	-0.311	0.105
-736.039	-126.429	0.103	0.016
-735.025	67.515	0.127	0.131
-734.010	-25.834	0.085	-0.050
-732.996	92.560	0.187	-0.212
-731.981	-29.355	-0.268	0.155
-730.966	-200.000	0.067	0.385
-729.952	126.492	0.084	-0.107
-728.937	342.011	-0.012	0.024
-727.923	-24.561	-0.085	-0.051
-726.908	9.718	-0.108	-0.083
-725.894	-200.000	0.007	0.453
-724.879	-73.013	-0.282	-0.104
-723.864	778.530	-0.068	-0.186
-722.850	450.788	-0.058	0.128
-721.835	-185.846	0.269	-0.004
-720.821	-200.000	0.021	-0.171
-719.806	568.674	0.070	-0.171
-718.791	800.000	-0.107	-0.336
-717.777	-162.882	-0.274	0.013
-716.762	612.370	0.103	0.259
-715.748	-200.000	0.014	0.072
-714.733	240.653	-0.194	0.327
-713.718	-144.384	0.068	0.006
-712.704	64.754	-0.230	-0.234
-711.689	36.184	-0.015	-0.013
-710.675	100.330	-0.152	-0.178
-709.660	201.958	0.191	-0.297
-708.645	-200.000	0.013	0.347
-707.631	800.000	-0.102	-0.296
-706.616	800.000	0.052	0.160
-705.602	23.990	-0.384	0.319
-704.587	-55.820	-0.144	-0.065
-703.572	38.988	0.111	0.100
-702.558	385.809	-0.079	-0.163
-701.543	224.193	0.064	-0.105
-700.529	131.469	-0.180	0.233
-699.514	800.000	0.016	0.049
-698.499	-172.927	-0.123	-0.004
-697.485	-138.445	-0.378	0.042
-696.470	56.057	0.208	-0.203
-695.456	800.000	0.037	-0.120
-694.441	263.234	-0.163	0.286
-693.426	-52.990	0.487	-0.226
-692.412	-27.913	-0.218	0.127
-691.397	-144.471	-0.147	0.014
-690.383	-200.000	-0.063	0.411
-689.368	-30.129	-0.085	0.049
-688.354	-133.034	0.283	-0.036
-687.339	-200.000	0.040	0.197
-686.324	-65.192	0.268	0.109
-685.310	127.903	0.070	0.089
-684.295	-140.252	0.132	-0.014
-683.281	-171.738	-0.326	0.011
-682.266	800.000	-0.042	0.140
-681.251	368.019	-0.111	0.226
-680.237	135.372	0.149	-0.195
-679.222	800.000	0.043	-0.189
-678.208	-81.373	-0.184	-0.061
-677.193	800.000	0.090	0.320
-676.178	-10.120	-0.059	0.039
-675.164	143.080	-0.078	-0.104
-674.149	-43.709	-0.128	0.065
-673.135	382.477	-0.090	0.186
-672.120	-84.599	-0.045	0.014
-671.105	800.000	0.113	-0.336
-670.091	800.000	-0.130	-0.497
-669.076	404.450	0.121	-0.256
-668.062	512.941	0.059	0.138
-667.047	800.000	-0.059	0.184
-666.032	136.917	0.098	-0.129
-665.018	155.414	-0.133	0.184
-664.003	800.000	-0.054	-0.229
-662.989	800.000	0.032	-0.114
-661.974	760.150	-0.140	-0.381
-660.959	-187.863	0.082	-0.001
-659.945	-50.321	-0.146	0.070
-658.930	-112.419	-0.577	0.116
-657.916	800.000	-0.103	-0.324
-656.901	-79.400	-0.446	-0.152
-655.886	-18.044	-0.226	0.143
-654.872	-56.248	0.209	0.093
-653.857	99.507	-0.197	0.229
-652.843	16.225	-0.119	-0.094
-651.828	3.271	-0.269	-0.197
-650.814	-153.142	-0.054	0.004
-649.799	245.297	0.077	-0.130
-648.784	49.191	0.154	-0.145
-647.770	311.723	-0.055	0.103
-646.755	125.773	0.090	-0.114
-645.741	462.103	0.124	-0.278
-644.726	-36.506	-0.193	-0.104
-643.711	800.000	0.039	0.143
-642.697	-186.558	-0.060	0.001
-641.682	352.815	-0.086	0.171
-640.668	77.125	-0.142	-0.152
-639.653	-154.381	0.389	0.026
-638.638	-27.235	0.201	0.118
-637.624	135.418	-0.099	0.129
-636.609	800.000	0.004	-0.014
-635.595	-182.493	-0.386	0.007
-634.580	1.778	0.218	-0.158
-633.565	-84.486	-0.271	-0.086
-632.551	285.418	0.300	0.542
-631.536	78.069	-0.070	0.076
-630.522	-14.120	0.061	0.040
-629.507	-22.393	0.116	-0.070
-628.492	-68.242	0.094	0.037
-627.478	106.615	0.182	0.217
-626.463	66.857	-0.016	0.017
-625.449	81.844	-0.237	-0.258
-624.434	-47.147	-0.355	-0.174
-623.419	-83.455	-0.057	-0.018
-622.405	-85.061	-0.039	0.012
-621.390	-9.599	0.095	-0.063
-620.376	211.288	0.215	-0.340
-619.361	-74.653	-0.194	0.070
-618.346	480.116	0.049	-0.112
-617.332	363.029	-0.068	-0.138
-616.317	587.616	0.036	-0.089
-615.303	800.000	0.054	0.194
-614.288	114.928	0.160	-0.195
-613.273	-134.133	0.180	0.022
-612.259	-23.769	0.261	0.157
-611.244	800.000	0.018	0.057
-610.230	800.000	-0.085	-0.337
-609.215	800.000	-0.024	0.088
-608.201	-23.366	-0.266	-0.161
-607.186	45.183	-0.194	-0.180
-606.171	800.000	-0.100	-0.348
-605.157	800.000	0.123	0.421
-604.142	-142.289	0.089	0.009
-603.128	87.246	0.063	0.070
-602.113	550.441	-0.201	-0.484
-601.098	800.000	0.103	-0.389
-600.084	-88.657	-0.187	0.056
-599.069	56.974	-0.088	-0.086
-598.055	738.401	-0.040	0.109
-597.040	800.000	0.238	-0.668
-596.025	-200.000	0.001	-0.053
-595.011	63.742	0.087	0.087
-593.996	382.107	-0.140	0.288
-592.982	-46.816	-0.208	-0.102
-591.967	-133.114	0.422	0.054
-590.952	-67.610	-0.349	-0.137
-589.938	25.107	-0.207	-0.172
-588.923	-72.131	-0.193	-0.072
-587.909	800.000	-0.075	0.219
-586.894	679.417	-0.130	0.340
-585.879	120.729	-0.133	0.166
-584.865	-21.758	0.239	0.146
-583.850	-143.263	0.060	-0.006
-582.836	-103.309	0.166	0.039
-581.821	-118.624	-0.177	-0.031
-580.806	800.000	0.099	0.292
-579.792	800.000	-0.047	-0.181
-578.777	-97.055	0.228	0.060
-577.763	-200.000	0.048	-0.229
-576.748	91.634	0.108	0.122
-575.733	-65.157	-0.125	0.051
-574.719	800.000	0.055	-0.211
-573.704	83.235	0.233	0.254
-572.690	102.682	0.065	0.076
-571.675	-84.414	-0.283	0.090
-570.661	-68.655	0.066	-0.026
-569.646	-200.000	-0.017	0.207
-568.631	-115.957	0.305	0.057
-567.617	-77.714	0.309	0.107
-566.602	-200.000	0.016	-0.118
-565.588	800.000	0.063	-0.176
-564.573	-156.965	-0.242	-0.015
-563.558	-22.359	-0.341	-0.207
-562.544	-200.000	0.024	-0.485
-561.529	800.000	0.074	-0.283
-560.515	-200.000	0.027	-0.176
-559.500	-149.371	-0.485	0.039
-558.485	-32.482	-0.128	-0.071
-557.471	-81.449	-0.372	-0.123
-556.456	37.281	-0.154	0.137
-555.442	69.108	-0.083	0.086
-554.427	-37.351	0.083	-0.044
-553.412	83.709	-0.017	0.018
-552.398	2.834	-0.041	-0.030
-551.383	-108.605	-0.555	-0.119
-550.369	114.987	-0.343	-0.419
-549.354	-59.300	0.052	-0.022
-548.339	0.766	0.270	0.194
-547.325	-200.000	0.022	0.168
-546.310	395.908	-0.126	0.263
-545.296	104.559	-0.087	0.103
-544.281	370.205	0.072	0.146
-543.266	-35.808	-0.209	-0.113
-542.252	-200.000	-0.004	-0.232
-541.237	-200.000	0.011	0.102
-540.223	-200.000	-0.014	-0.126
-539.208	-200.000	-0.036	-0.276
-538.193	-32.430	-0.204	-0.114
-537.179	386.575	-0.123	0.254
-536.164	-95.235	-0.143	-0.039
-535.150	-91.937	0.114	-0.032
-534.135	-178.513	-0.186	0.004
-533.121	-195.111	0.073	0.001
-532.106	-128.936	0.224	-0.031
-531.091	58.035	-0.216	0.212
-530.077	-22.864	-0.378	0.228
-529.062	-81.973	-0.358	0.117
-528.048	-77.474	0.031	0.011
-527.033	9.971	-0.287	-0.218
-526.018	-135.147	-0.102	-0.012
-525.004	229.809	0.169	-0.275
-523.989	92.049	0.082	0.092
-522.975	163.019	0.072	-0.101
-521.960	800.000	-0.033	0.114
-520.945	-163.197	-0.221	0.011
-519.931	800.000	0.092	0.263
-518.916	-102.355	0.162	-0.039
-517.902	-50.095	-0.098	0.047
-516.887	-108.067	-0.073	0.016
-515.872	-55.285	-0.015	0.007
-514.858	-200.000	0.004	0.073
-513.843	-40.248	0.188	0.098
-512.829	304.255	-0.049	0.091
-511.814	35.047	0.182	0.159
-510.799	-42.867	0.478	0.243
-509.785	-200.000	-0.067	0.420
-508.770	-200.000	-0.057	-0.409
-507.756	284.753	0.125	0.224
-506.741	800.000	0.184	0.511
-505.726	-200.000	-0.003	-0.487
-504.712	195.769	0.159	-0.242
-503.697	-200.000	0.037	0.322
-502.683	-174.892	-0.070	-0.002
-501.668	-200.000	-0.029	-0.226
-500.653	145.340	0.150	-0.201
-499.639	-200.000	-0.007	0.231
-498.624	0.198	-0.182	0.130
-497.610	-24.222	0.113	-0.067
-496.595	-55.397	-0.218	0.098
-495.581	-90.026	0.228	0.066
-494.566	-191.946	-0.302	0.003
-493.551	-22.834	-0.369	0.222
-492.537	144.422	-0.137	0.183
-491.522	-200.000	-0.004	0.225
-490.508	-200.000	-0.051	0.224
-489.493	-10.982	0.243	0.160
-488.478	-200.000	-0.062	0.319
-487.464	211.612	0.034	0.053
-486.449	-59.999	0.211	0.090
-485.435	-200.000	0.027	-0.344
-484.420	-8.103	0.087	0.058
-483.405	54.058	-0.168	0.162
-482.391	800.000	0.029	0.114
-481.376	180.666	0.065	0.096
-480.362	-32.602	0.130	0.072
-479.347	-133.315	0.114	0.014
-478.332	-78.094	-0.247	-0.085
-477.318	-39.704	-0.442	-0.231
-476.303	0.208	-0.230	0.164
-475.289	404.798	0.071	-0.148
-474.274	-96.127	0.158	0.042
-473.259	302.523	0.063	0.117
-472.245	-200.000	0.010	0.047
-471.230	141.523	-0.144	-0.190
-470.216	-5.261	0.065	-0.045
-469.201	-200.000	-0.010	-0.185
-468.186	800.000	0.076	0.240
-467.172	-200.000	0.063	-0.388
-466.157	97.163	-0.152	-0.175
-465.143	32.356	-0.067	-0.058
-464.128	624.397	0.005	0.013
-463.113	-128.690	-0.494	-0.070
-462.099	-101.549	0.187	-0.045
-461.084	137.510	-0.149	-0.194
-460.070	-5.876	0.187	0.127
-459.055	-200.000	-0.048	0.254
-458.040	357.702	0.165	0.329
-457.026	652.478	0.082	-0.209
-456.011	103.589	-0.156	0.182
-454.997	800.000	0.102	-0.292
-453.982	-22.142	0.156	0.095
-452.968	-99.629	0.196	-0.049
-451.953	-150.730	0.200	-0.015
-450.938	800.000	-0.033	-0.132
-449.924	-0.658	-0.046	0.032
-448.909	42.219	-0.288	0.261
-447.895	-16.375	-0.165	-0.104
-446.880	-200.000	-0.017	-0.177
-445.865	88.264	-0.022	-0.025
-444.851	116.385	-0.047	0.058
-443.836	-32.417	0.092	-0.051
-442.822	5.306	-0.277	-0.204
-441.807	90.699	0.126	0.140
-440.792	-111.655	0.222	-0.045
-439.778	351.323	-0.203	0.401
-438.763	481.015	0.054	0.122
-437.749	67.283	-0.088	-0.090
-436.734	-114.986	0.057	0.011
-435.719	-200.000	0.006	0.305
-434.705	-86.705	-0.137	-0.042
-433.690	-200.000	-0.014	0.180
-432.676	-58.831	-0.213	-0.092
-431.661	33.363	-0.338	-0.293
-430.646	23.431	-0.282	0.231
-429.632	-124.120	0.101	-0.016
-428.617	-65.790	-0.022	0.009
-427.603	-200.000	0.044	0.328
-426.588	11.369	-0.203	0.155
-425.573	800.000	-0.049	-0.170
-424.559	-45.033	0.115	0.057
-423.544	87.469	0.064	-0.071
-422.530	451.102	0.049	-0.108
-421.515	132.794	-0.143	0.183
-420.500	504.540	0.041	-0.094
-419.486	45.313	-0.234	-0.215
-418.471	571.031	0.174	-0.421
-417.457	255.376	0.002	-0.003
-416.442	-13.694	-0.216	-0.139
-415.428	-127.517	0.131	0.019
-414.413	271.881	0.140	-0.246
-413.398	-136.231	-0.286	0.033
-412.384	-140.120	0.189	0.020
-411.369	-200.000	0.019	-0.264
-410.355	-200.000	0.005	-0.214
-409.340	-67.382	-0.210	-0.082
-408.325	-200.000	0.002	-0.258
-407.311	322.177	0.077	-0.146
-406.296	-103.030	-0.102	-0.024
-405.282	40.043	0.239	0.214
-404.267	90.673	0.112	-0.125
-403.252	800.000	-0.045	-0.167
-402.238	179.446	-0.130	0.190
-401.223	129.919	-0.068	0.086
-400.209	374.956	-0.077	-0.155
-399.194	533.386	0.037	-0.088
-398.179	53.831	0.114	-0.109
-397.165	-200.000	-0.055	0.298
-396.150	800.000	-0.040	-0.161
-395.136	-111.539	-0.366	0.074
-394.121	173.956	0.166	-0.238
-393.106	637.643	-0.094	-0.237
-392.092	-18.414	0.079	-0.049
-391.077	-4.973	-0.356	0.244
-390.063	-49.891	-0.297	-0.140
-389.048	-82.772	0.084	-0.027
-388.033	-71.116	0.168	0.063
-387.019	-160.956	-0.131	-0.007
-386.004	-62.893	0.116	-0.048
-384.990	16.382	-0.128	-0.101
-383.975	-22.611	-0.085	0.051
-382.960	176.017	-0.103	0.149
-381.946	-93.855	-0.136	-0.037
-380.931	47.355	0.049	-0.046
-379.917	-166.714	0.123	0.005
-378.902	800.000	0.098	0.351
-377.888	800.000	-0.054	0.191
-376.873	457.197	0.057	-0.127
-375.858	-47.346	0.256	0.124
-374.844	800.000	0.057	-0.206
-373.829	-54.747	-0.385	0.173
-372.815	-99.336	-0.034	0.008
-371.800	243.244	0.204	-0.340
-370.785	-120.765	0.230	0.039
-369.771	-200.000	0.053	0.347
-368.756	-200.000	0.002	-0.250
-367.742	112.910	-0.159	0.192
-366.727	469.319	-0.121	-0.270
-365.712	-200.000	-0.018	-0.329
-364.698	19.688	0.254	-0.203
-363.683	82.582	0.107	0.116
-362.669	-147.528	0.228	0.019
-361.654	800.000	0.037	0.156
-360.639	800.000	0.028	0.085
-359.625	800.000	-0.027	0.089
-358.610	-11.675	0.059	-0.038
-357.596	-53.514	-0.251	-0.114
-356.581	84.513	0.186	-0.203
-355.566	800.000	0.053	0.185
-354.552	-200.000	0.012	0.302
-353.537	126.643	-0.156	0.196
-352.523	-63.669	-0.207	-0.084
-351.508	637.533	-0.151	0.381
-350.493	-200.000	-0.281	0.001
-349.479	-43.799	0.245	0.122
-348.464	-78.014	-0.361	0.123
-347.450	-95.166	0.010	-0.003
-346.435	-131.934	0.130	0.017
-345.420	-200.000	0.002	0.453
-344.406	-200.000	-0.037	0.368
-343.391	-200.000	0.043	0.310
-342.377	-200.000	-0.024	-0.245
-341.362	-86.379	-0.203	0.062
-340.348	-200.000	0.051	0.269
-339.333	-119.729	-0.338	-0.058
-338.318	46.870	0.135	-0.125
-337.304	-200.000	-0.052	-0.268
-336.289	-57.781	0.169	0.073
-335.275	117.586	0.045	-0.055
-334.260	-200.000	0.014	0.393
-333.245	-200.000	0.035	0.233
-332.231	-200.000	-0.009	-0.387
-331.216	23.969	-0.038	0.031
-330.202	617.099	-0.112	0.278
-329.187	-200.000	-0.117	0.586
-328.172	44.895	-0.050	-0.046
-327.158	13.975	0.148	-0.115
-326.143	210.202	0.119	0.185
-325.129	66.472	-0.271	0.273
-324.114	-142.898	0.267	0.026
-323.099	-70.119	-0.531	-0.200
-322.085	157.617	0.082	-0.112
-321.070	20.552	0.188	-0.151
-320.056	24.638	-0.136	-0.112
-319.041	800.000	0.022	0.067
-318.026	-11.525	-0.112	0.073
-317.012	-19.025	0.140	0.086
-315.997	484.511	-0.104	-0.234
-314.983	-200.000	-0.023	-0.211
-313.968	-133.554	0.469	0.058
-312.953	-47.319	0.091	-0.044
-311.939	-114.180	0.133	-0.025
-310.924	152.240	0.047	0.064
-309.910	800.000	0.034	-0.138
-308.895	2.723	0.126	-0.091
-307.880	-31.825	-0.104	0.058
-306.866	-27.936	0.148	-0.085
-305.851	335.317	0.197	-0.378
-304.837	-200.000	-0.009	-0.104
-303.822	-27.242	-0.300	-0.174
-302.807	761.410	0.076	-0.203
-301.793	36.332	0.267	0.234
-300.778	244.170	0.102	-0.169
-299.764	184.084	0.195	-0.286
-298.749	-200.000	-0.046	0.222
-297.735	677.718	0.050	-0.128
-296.720	40.309	0.037	-0.033
-295.705	-91.797	0.232	0.065
-294.691	-83.522	0.231	0.073
-293.676	55.797	-0.048	0.046
-292.662	-200.000	0.010	0.104
-291.647	34.157	0.032	0.027
-290.632	800.000	-0.053	-0.224
-289.618	800.000	0.040	-0.148
-288.603	21.923	-0.081	-0.066
-287.589	-34.617	0.242	-0.131
-286.574	12.942	-0.057	0.043
-285.559	-122.421	-0.266	0.043
-284.545	-3.927	-0.163	0.112
-283.530	-54.463	-0.435	0.195
-282.516	-32.735	0.160	0.088
-281.501	76.642	0.070	0.074
-280.486	-98.765	0.114	-0.029
-279.472	-142.792	0.294	-0.028
-278.457	-19.171	0.147	0.090
-277.443	480.949	0.126	-0.284
-276.428	-200.000	-0.027	0.148
-275.413	-160.390	0.147	0.008
-274.399	71.092	-0.261	0.268
-273.384	-29.945	0.112	-0.063
-272.370	78.397	0.337	-0.356
-271.355	50.336	0.080	-0.074
-270.340	-106.291	-0.352	-0.078
-269.326	10.874	-0.200	-0.151
-268.311	-31.169	0.140	-0.078
-267.297	-200.000	0.066	-0.339
-266.282	-28.325	0.336	-0.192
-265.267	-200.000	-0.006	0.031
-264.253	57.450	0.030	0.029
-263.238	142.533	0.203	0.266
-262.224	216.014	0.040	-0.063
-261.209	-70.796	-0.082	0.031
-260.195	-41.937	-0.099	-0.050
-259.180	762.840	0.056	-0.150
-258.165	-200.000	-0.007	-0.129
-257.151	16.508	-0.061	-0.047
-256.136	-4.726	-0.114	-0.078
-255.122	-200.000	0.006	0.034
-254.107	-15.997	-0.201	0.127
-253.092	-39.023	0.078	0.041
-252.078	800.000	0.061	-0.222
-251.063	150.284	0.183	-0.245
-250.049	-200.000	0.026	-0.118
-249.034	313.538	0.105	-0.194
-248.019	63.902	-0.246	0.245
-247.005	190.311	0.176	0.262
-245.990	-111.293	-0.332	-0.067
-244.976	103.640	0.115	0.133
-243.961	-34.640	0.186	0.101
-242.946	72.115	-0.229	-0.236
-241.932	-200.000	0.047	0.474
-240.917	-200.000	-0.011	0.316
-239.903	39.683	0.094	0.084
-238.888	8.481	-0.106	0.079
-237.873	35.656	0.241	0.209
-236.859	271.010	0.020	0.035
-235.844	800.000	0.142	0.392
-234.830	-138.789	0.081	0.009
-233.815	800.000	-0.084	-0.362
-232.800	-166.428	0.427	-0.018
-231.786	117.256	0.223	-0.271
-230.771	-200.000	0.046	-0.224
-229.757	131.013	0.130	0.165
-228.742	406.571	-0.112	0.234
-227.727	162.258	-0.073	0.101
-226.713	-34.153	0.178	-0.097
-225.698	-200.000	-0.012	0.103
-224.684	104.867	0.070	0.082
-223.669	131.875	-0.085	-0.108
-222.655	800.000	0.024	-0.069
-221.640	462.131	0.136	0.300
-220.625	-5.367	-0.135	-0.092
-219.611	-148.611	-0.136	-0.011
-218.596	6.132	-0.106	0.078
-217.582	800.000	-0.034	-0.119
-216.567	800.000	0.063	0.238
-215.552	156.291	-0.256	0.349
-214.538	796.827	0.065	0.177
-213.523	334.500	0.054	-0.103
-212.509	-200.000	-0.043	0.374
-211.494	-200.000	-0.032	-0.301
-210.479	60.306	0.098	0.096
-209.465	112.384	0.089	0.107
-208.450	-122.272	0.256	-0.041
-207.436	476.866	0.082	-0.182
-206.421	-200.000	-0.012	-0.187
-205.406	-34.174	0.182	0.099
-204.392	-103.564	0.183	0.042
-203.377	281.079	0.076	0.134
-202.363	-200.000	0.021	0.134
-201.348	498.456	-0.023	-0.053
-200.333	-200.000	-0.010	-0.095
-199.319	32.853	0.201	-0.172
-198.304	118.860	-0.024	-0.030
-197.290	0.773	0.110	0.078
-196.275	-200.000	-0.038	0.212
-195.260	-120.296	0.301	-0.051
-194.246	-105.281	0.037	0.008
-193.231	-59.284	0.078	-0.033
-192.217	800.000	-0.042	0.171
-191.202	16.059	0.262	-0.203
-190.187	-68.855	0.174	-0.066
-189.173	-50.380	-0.202	0.094
-188.158	-200.000	-0.002	0.059
-187.144	29.220	0.317	0.266
-186.129	-54.007	0.195	-0.088
-185.114	-50.539	-0.168	-0.078
-184.100	-114.301	-0.174	0.033
-183.085	102.012	0.237	0.273
-182.071	-38.463	0.158	-0.083
-181.056	-68.812	0.154	-0.059
-180.042	-23.618	0.288	0.171
-179.027	-37.945	-0.189	0.099
-178.012	-93.302	-0.205	0.056
-176.998	420.934	-0.103	0.217
-175.983	-200.000	-0.017	0.157
-174.969	277.479	0.103	0.181
-173.954	-1.843	0.119	0.082
-172.939	-89.546	-0.145	0.042
-171.925	38.248	0.209	-0.183
-170.910	130.020	0.183	0.231
-169.896	-69.840	-0.092	0.035
-168.881	-104.945	0.640	-0.145
-167.866	-51.895	0.031	0.014
-166.852	323.497	-0.057	-0.107
-165.837	800.000	0.078	-0.225
-164.823	436.492	0.102	-0.219
-163.808	-200.000	0.000	-0.321
-162.793	-131.631	-0.147	0.019
-161.779	-200.000	-0.011	0.166
-160.764	-127.738	0.090	0.013
-159.750	-87.183	-0.204	-0.061
-158.735	-200.000	0.005	0.060
-157.720	-191.355	0.352	0.004
-156.706	25.249	-0.200	-0.164
-155.691	-30.736	-0.293	-0.163
-154.677	-200.000	0.026	-0.220
-153.662	-115.797	0.118	0.022
-152.647	-200.000	-0.041	-0.244
-151.633	-33.386	-0.335	-0.183
-150.618	-122.629	0.218	-0.035
-149.604	800.000	-0.081	0.219
-148.589	343.988	-0.170	0.328
-147.574	-200.000	-0.041	0.288
-146.560	-95.470	-0.190	0.050
-145.545	800.000	-0.045	-0.139
-144.531	-97.560	-0.194	-0.050
-143.516	-200.000	0.011	-0.142
-142.502	-200.000	0.029	-0.354
-141.487	266.754	0.067	-0.116
-140.472	380.959	0.139	-0.282
-139.458	-35.811	-0.412	-0.220
-138.443	800.000	0.017	-0.051
-137.429	95.643	-0.160	0.179
-136.414	800.000	0.064	0.197
-135.399	158.941	0.275	0.377
-134.385	56.686	-0.302	0.290
-133.370	-42.600	-0.154	0.077
-132.356	33.635	-0.288	-0.247
-131.341	203.447	-0.157	-0.239
-130.326	800.000	0.103	-0.445
-129.312	-110.943	-0.327	0.066
-128.297	800.000	-0.115	0.389
-127.283	-200.000	0.016	-0.139
-126.268	16.145	-0.165	0.128
-125.253	141.874	0.071	0.093
-124.239	126.203	-0.161	0.200
-123.224	358.482	-0.013	0.025
-122.210	513.268	0.077	0.176
-121.195	119.493	0.102	-0.124
-120.180	-86.595	-0.106	0.032
-119.166	-200.000	0.006	0.193
-118.151	33.958	0.193	0.165
-117.137	21.909	0.018	-0.015
-116.122	-176.203	0.195	-0.005
-115.107	689.201	-0.171	0.440
-114.093	19.323	0.266	0.210
-113.078	-143.916	0.255	-0.024
-112.064	50.548	0.042	0.039
-111.049	-200.000	0.026	0.252
-110.034	-23.387	-0.321	0.190
-109.020	-35.871	0.197	-0.105
-108.005	-154.572	0.097	0.006
-106.991	199.039	-0.158	0.239
-105.976	-117.996	-0.272	-0.048
-104.962	-49.954	0.241	0.112
-103.947	800.000	-0.077	-0.240
-102.932	608.335	-0.031	0.077
-101.918	-200.000	-0.005	0.061
-100.903	-118.840	-0.257	-0.044
-99.889	-200.000	0.064	0.349
-98.874	105.045	-0.126	0.146
-97.859	-200.000	0.035	0.308
-96.845	-200.000	-0.045	0.218
-95.830	155.484	0.135	-0.183
-94.816	113.318	0.144	0.172
-93.801	-135.572	0.190	-0.022
-92.786	-57.922	0.127	0.054
-91.772	-61.216	-0.115	-0.048
-90.757	-200.000	-0.018	0.154
-89.743	-77.393	0.046	0.016
-88.728	800.000	-0.098	0.368
-87.713	552.161	-0.083	0.195
-86.699	800.000	0.012	-0.035
-85.684	55.503	0.150	-0.143
-84.670	-8.378	-0.213	-0.141
-83.655	-79.274	0.300	-0.100
-82.640	-32.371	0.249	-0.137
-81.626	154.582	-0.219	-0.296
-80.611	800.000	-0.056	-0.205
-79.597	-102.576	-0.107	0.025
-78.582	800.000	-0.104	0.316
-77.567	451.930	0.112	0.242
-76.553	-99.963	-0.034	-0.008
-75.538	172.219	-0.158	0.224
-74.524	79.075	0.119	0.125
-73.509	22.356	0.072	0.058
-72.494	767.908	-0.138	0.370
-71.480	-104.496	0.235	-0.053
-70.465	-87.446	-0.151	-0.045
-69.451	-54.896	0.230	0.102
-68.436	192.518	0.160	0.237
-67.422	12.137	-0.277	0.209
-66.407	8.800	0.252	0.187
-65.392	800.000	0.076	0.296
-64.378	337.235	0.211	0.403
-63.363	14.110	-0.069	0.053
-62.349	-89.752	0.236	0.068
-61.334	105.494	-1.114	-1.293
-60.319	-61.731	0.482	0.198
-59.305	-200.000	-0.205	-1.037
-58.290	79.561	0.829	0.874
-57.276	693.006	0.485	1.248
-56.261	-200.000	103.330	596.858
-55.246	560.987	1439.407	3416.192
-54.232	185.212	2637.100	3842.917
-53.217	110.374	2282.322	2692.464
-52.203	39.805	1898.356	1672.732
-51.188	33.598	1687.050	1439.553
-50.173	31.098	1643.397	1383.728
-49.159	49.660	1694.682	1567.143
-48.144	50.568	1710.624	1588.659
-47.130	33.355	1669.374	1422.418
-46.115	30.589	1654.853	1389.350
-45.100	30.423	1649.986	1383.974
-44.086	30.497	1647.050	1382.005
-43.071	30.378	1644.945	1379.300
-42.057	30.354	1642.210	1376.777
-41.042	30.378	1640.286	1375.284
-40.027	30.370	1638.537	1373.707
-39.013	30.342	1636.636	1371.850
-37.998	30.366	1635.078	1370.663
-36.984	30.335	1634.333	1369.755
-35.969	30.473	1632.561	1369.234
-34.954	30.522	1631.150	1368.357
-33.940	30.474	1629.318	1366.415
-32.925	30.578	1627.128	1365.286
-31.911	30.493	1625.661	1363.379
-30.896	30.475	1623.956	1361.764
-29.881	30.465	1622.621	1360.519
-28.867	30.504	1620.483	1358.959
-27.852	30.480	1618.992	1357.477
-26.838	30.456	1617.739	1356.200
-25.823	30.578	1616.364	1355.877
-24.809	30.550	1614.837	1354.342
-23.794	30.540	1613.729	1353.283
-22.779	30.560	1611.841	1351.791
-21.765	30.478	1610.494	1350.014
-20.750	30.378	1609.109	1348.074
-19.736	30.526	1607.553	1347.792
-18.721	30.505	1606.414	1346.631
-17.706	30.501	1604.459	1344.910
-16.692	30.534	1602.645	1343.576
-15.677	30.583	1601.764	1343.132
-14.663	30.526	1600.581	1341.678
-13.648	30.527	1599.362	1340.610
-12.633	30.574	1597.274	1339.148
-11.619	30.463	1595.993	1337.217
-10.604	30.434	1594.631	1335.818
-9.590	30.514	1593.118	1335.069
-8.575	30.525	1591.812	1334.001
-7.560	30.473	1591.112	1332.987
-6.546	30.531	1589.545	1332.037
-5.531	30.453	1589.115	1331.067
-4.517	30.508	1587.482	1330.041
-3.502	30.497	1586.330	1328.942
-2.487	30.533	1584.565	1327.672
-1.473	30.184	1573.499	1315.870
-0.458	27.566	1554.318	1281.399
0.556	23.314	1555.306	1250.575
1.571	21.041	1579.589	1253.671
2.586	20.649	1592.758	1261.170
3.600	18.487	1539.362	1203.612
4.615	11.474	1432.117	1073.693
5.629	5.622	1372.164	991.688
6.644	4.919	1364.766	981.821
7.659	4.808	1363.376	980.040
8.673	4.778	1362.071	978.823
9.688	4.746	1360.590	977.473
10.702	4.672	1357.559	974.747
11.717	7.474	1362.210	995.599
12.731	14.261	1374.909	1047.632
13.746	18.719	1382.022	1081.095
14.761	18.580	1380.614	1079.026
15.775	17.554	1378.429	1070.772
16.790	16.508	1375.296	1061.680
17.804	15.836	1372.856	1055.493
18.819	15.357	1371.780	1051.569
19.834	15.198	1370.150	1049.228
20.848	14.881	1369.351	1046.543
21.863	14.731	1367.693	1044.242
22.877	14.538	1366.740	1042.216
23.892	14.475	1366.085	1041.231
24.907	14.558	1364.832	1040.703
25.921	14.555	1364.025	1039.981
26.936	14.481	1363.442	1038.981
27.950	14.597	1362.292	1038.734
28.965	14.682	1361.299	1038.416
29.980	14.689	1360.549	1037.792
30.994	14.837	1358.885	1037.349
32.009	14.840	1357.709	1036.381
33.023	14.814	1356.649	1035.315
34.038	14.669	1355.371	1033.351
35.053	14.694	1353.919	1032.312
36.067	14.619	1353.195	1031.201
37.082	14.628	1352.175	1030.387
38.096	14.699	1350.918	1029.778
39.111	14.710	1350.265	1029.257
40.126	14.630	1349.500	1028.094
41.140	14.456	1348.531	1026.194
42.155	14.418	1348.545	1025.875
43.169	14.477	1348.004	1025.735
44.184	14.496	1346.888	1024.913
45.199	14.419	1346.922	1024.378
46.213	14.540	1346.342	1024.587
47.228	14.606	1345.214	1024.041
48.242	14.569	1344.467	1023.156
49.257	14.566	1342.921	1021.873
50.271	14.579	1341.287	1020.619
51.286	14.587	1340.492	1019.974
52.301	14.589	1339.187	1018.901
53.315	14.609	1337.917	1017.969
54.330	14.507	1336.875	1016.463
55.344	14.404	1335.679	1014.836
56.359	14.517	1334.866	1014.816
57.374	14.463	1333.879	1013.646
58.388	14.441	1333.357	1013.028
59.403	14.354	1332.895	1012.061
60.417	14.332	1331.936	1011.109
61.432	14.331	1331.093	1010.371
62.447	14.375	1330.022	1009.735
63.461	14.407	1328.100	1008.380
64.476	14.300	1327.660	1007.313
65.490	14.249	1326.760	1006.230
66.505	14.244	1325.099	1004.848
67.520	14.373	1323.455	1004.294
68.534	14.302	1322.845	1003.310
69.549	14.297	1321.702	1002.326
70.563	14.257	1320.822	1001.329
71.578	14.231	1319.604	1000.165
72.593	14.225	1318.455	999.167
73.607	14.225	1317.985	998.723
74.622	14.170	1317.156	997.675
75.636	14.327	1316.148	997.766
76.651	14.209	1315.773	996.685
77.666	14.216	1315.637	996.535
78.680	14.232	1315.151	996.176
79.695	14.305	1314.325	995.900
80.709	14.356	1313.290	995.330
81.724	14.354	1312.480	994.618
82.739	14.427	1311.602	994.302
83.753	14.482	1310.999	994.082
84.768	14.548	1309.784	993.468
85.782	14.584	1309.192	993.144
86.797	14.497	1307.880	991.542
87.812	14.607	1306.276	990.895
88.826	14.583	1305.140	989.801
89.841	14.556	1304.336	988.945
90.855	14.556	1303.271	988.050
91.870	14.656	1302.395	987.890
92.884	14.669	1301.820	987.443
93.899	14.664	1300.701	986.474
94.914	14.761	1299.652	986.167
95.928	14.767	1299.438	985.954
96.943	14.703	1298.458	984.742
97.957	14.646	1297.161	983.335
98.972	14.673	1296.203	982.682
99.987	14.769	1295.132	982.350
101.001	14.773	1294.043	981.461
102.016	14.683	1293.003	980.055
103.030	14.643	1292.416	979.287
104.045	14.678	1291.369	978.612
105.060	14.653	1290.324	977.590
106.074	14.539	1288.599	975.529
107.089	14.408	1287.558	973.892
108.103	14.437	1286.099	972.869
109.118	14.334	1285.142	971.460
110.133	14.480	1283.289	970.821
111.147	14.373	1282.278	969.350
112.162	14.340	1281.193	968.252
113.176	14.384	1280.134	967.623
114.191	14.480	1279.210	967.396
115.206	14.571	1277.703	966.693
116.220	14.504	1277.040	965.723
117.235	14.525	1275.694	964.740
118.249	14.523	1274.459	963.707
119.264	14.377	1273.727	962.225
120.279	14.395	1272.353	961.206
121.293	14.359	1271.532	960.296
122.308	14.397	1270.095	959.344
123.322	14.418	1269.074	958.605
124.337	14.430	1268.277	957.991
125.352	14.251	1267.674	956.422
126.366	14.355	1266.626	956.145
127.381	14.399	1265.059	955.125
128.395	14.376	1264.127	954.205
129.410	14.420	1263.423	953.844
130.424	14.360	1262.726	952.891
131.439	14.432	1261.795	952.513
132.454	14.401	1260.949	951.616
133.468	14.584	1259.789	951.700
134.483	14.447	1259.122	950.332
135.497	14.560	1257.515	949.674
136.512	14.497	1256.654	948.582
137.527	14.514	1255.329	947.594
138.541	14.610	1254.003	947.056
139.556	14.551	1253.054	945.920
140.570	14.718	1251.590	945.680
141.585	14.744	1250.485	944.907
142.600	14.798	1248.906	943.933
143.614	14.739	1248.458	943.177
144.629	14.696	1247.642	942.238
145.643	14.728	1246.474	941.449
146.658	14.685	1245.251	940.200
147.673	14.651	1243.569	938.656
148.687	14.705	1242.402	937.997
149.702	14.581	1241.228	936.332
150.716	14.515	1240.204	935.105
151.731	14.451	1239.459	934.104
152.746	14.568	1237.878	933.485
153.760	14.615	1236.679	932.759
154.775	14.671	1235.760	932.295
155.789	14.780	1234.561	931.918
156.804	14.707	1234.025	931.025
157.819	14.744	1232.594	930.068
158.833	14.838	1231.809	929.917
159.848	14.813	1230.809	928.943
160.862	14.889	1229.986	928.662
161.877	14.828	1228.659	927.235
162.892	14.638	1227.677	925.363
163.906	14.659	1226.999	924.885
164.921	14.640	1226.141	924.049
165.935	14.775	1225.018	923.869
166.950	14.664	1224.738	922.965
167.964	14.840	1223.660	923.037
168.979	14.799	1222.883	922.147
169.994	14.744	1222.454	921.436
171.008	14.825	1221.639	921.187
172.023	14.850	1220.785	920.599
173.037	14.975	1220.172	920.746
174.052	14.957	1219.272	919.885
175.067	14.697	1218.234	917.594
176.081	14.787	1216.561	916.742
177.096	14.758	1216.031	916.108
178.110	14.878	1214.548	915.562
179.125	14.766	1213.626	914.177
180.140	14.870	1212.497	913.810
181.154	14.863	1211.790	913.160
182.169	15.048	1209.928	912.684
183.183	14.982	1209.323	911.791
184.198	15.134	1207.776	911.366
185.213	15.065	1206.744	910.133
186.227	15.049	1206.095	909.479
187.242	15.084	1204.657	908.503
188.256	15.219	1203.560	908.329
189.271	15.160	1202.879	907.412
190.286	15.015	1201.628	905.603
191.300	14.755	1200.745	903.454
192.315	14.834	1199.759	903.057
193.329	14.816	1199.572	902.738
194.344	14.840	1198.917	902.299
195.359	14.976	1198.401	902.564
196.373	14.975	1198.094	902.245
197.388	14.980	1197.901	902.045
198.402	15.244	1197.038	902.740
199.417	15.386	1196.546	903.055
200.432	15.396	1195.247	902.047
201.446	15.377	1194.866	901.577
202.461	15.423	1193.624	900.808
203.475	15.451	1193.013	900.415
204.490	15.320	1191.886	898.785
205.504	15.199	1190.663	897.132
206.519	15.323	1189.095	896.537
207.534	15.228	1188.048	895.159
208.548	15.290	1187.218	894.788
209.563	15.193	1186.619	893.740
210.577	15.226	1185.700	893.146
211.592	15.376	1184.768	893.160
212.607	15.447	1183.922	892.822
213.621	15.524	1183.203	892.610
214.636	15.446	1182.135	891.311
215.650	15.439	1181.204	890.494
216.665	15.450	1180.975	890.299
217.680	15.551	1179.725	889.813
218.694	15.508	1178.929	888.910
219.709	15.498	1178.169	888.202
220.723	15.514	1177.389	887.620
221.738	15.563	1176.785	887.344
222.753	15.590	1175.640	886.543
223.767	15.582	1175.529	886.341
224.782	15.681	1174.216	885.794
225.796	15.730	1173.428	885.381
226.811	15.583	1173.463	884.556
227.826	15.565	1172.249	883.469
228.840	15.556	1171.544	882.808
229.855	15.488	1171.085	882.029
230.869	15.630	1170.101	881.956
231.884	15.616	1169.142	881.079
232.899	15.577	1168.478	880.297
233.913	15.635	1167.733	879.960
234.928	15.441	1167.170	878.442
235.942	15.555	1166.341	878.339
236.957	15.516	1165.646	877.533
237.972	15.584	1164.757	877.143
238.986	15.461	1164.240	876.033
240.001	15.770	1163.197	876.781
241.015	15.735	1162.565	876.043
242.030	15.670	1161.805	875.058
243.045	15.588	1161.581	874.382
244.059	15.750	1160.217	874.123
245.074	15.723	1159.796	873.586
246.088	15.842	1158.605	873.230
247.103	15.761	1158.118	872.367
248.117	15.965	1156.869	872.405
249.132	16.039	1156.325	872.298
250.147	16.115	1155.994	872.365
251.161	16.104	1154.966	871.458
252.176	16.135	1154.474	871.171
253.190	16.225	1153.904	871.126
254.205	16.337	1153.043	870.978
255.220	16.221	1152.990	870.259
256.234	16.160	1152.547	869.534
257.249	16.211	1151.237	868.732
258.263	16.234	1150.566	868.267
259.278	16.139	1150.461	867.622
260.293	16.225	1149.715	867.424
261.307	16.352	1149.060	867.506
262.322	16.252	1148.352	866.383
263.336	16.419	1147.379	866.429
264.351	16.432	1146.753	865.946
265.366	16.363	1146.378	865.232
266.380	16.414	1145.515	864.765
267.395	16.309	1144.590	863.453
268.409	16.299	1144.243	863.066
269.424	16.321	1143.467	862.516
270.439	16.309	1142.876	861.930
271.453	16.322	1142.027	861.281
272.468	16.318	1141.198	860.558
273.482	16.335	1140.207	859.822
274.497	16.239	1140.099	859.175
275.512	16.232	1139.233	858.411
276.526	16.337	1138.168	858.067
277.541	16.275	1137.525	857.191
278.555	16.475	1136.635	857.460
279.570	16.454	1136.210	856.957
280.585	16.538	1135.128	856.490
281.599	16.602	1134.282	856.101
282.614	16.521	1133.667	855.151
283.628	16.432	1132.546	853.778
284.643	16.451	1131.795	853.235
285.657	16.576	1130.911	853.121
286.672	16.520	1129.857	851.968
287.687	16.535	1128.694	851.092
288.701	16.561	1127.967	850.600
289.716	16.601	1127.528	850.395
290.730	16.591	1126.814	849.733
291.745	16.652	1126.046	849.381
292.760	16.754	1125.394	849.327
293.774	16.750	1124.548	848.591
294.789	16.758	1124.281	848.359
295.803	16.707	1123.739	847.615
296.818	16.656	1123.160	846.853
297.833	16.662	1122.329	846.177
298.847	16.551	1121.501	844.924
299.862	16.646	1120.958	844.915
300.876	16.691	1119.916	844.282
301.891	16.782	1119.149	844.083
302.906	16.859	1118.890	844.195
303.920	16.918	1117.742	843.545
304.935	16.991	1117.370	843.556
305.949	17.042	1116.788	843.295
306.964	17.019	1115.946	842.470
307.979	16.974	1115.238	841.637
308.993	16.997	1114.300	840.969
310.008	16.990	1114.030	840.654
311.022	16.900	1113.294	839.579
312.037	17.135	1111.986	839.680
313.052	17.021	1110.920	838.240
314.066	16.939	1110.316	837.303
315.081	16.938	1109.295	836.456
316.095	16.827	1108.856	835.504
317.110	16.939	1107.913	835.271
318.125	16.799	1107.143	833.925
319.139	16.782	1107.087	833.727
320.154	16.957	1105.981	833.683
321.168	16.812	1105.462	832.503
322.183	16.875	1104.969	832.367
323.197	16.948	1104.238	832.104
324.212	16.977	1103.618	831.704
325.227	16.894	1103.306	830.987
326.241	16.999	1102.587	830.888
327.256	17.000	1101.983	830.365
328.270	16.901	1100.804	828.917
329.285	16.952	1099.607	828.193
330.300	17.034	1098.958	828.033
331.314	17.021	1097.957	827.138
332.329	17.094	1096.593	826.394
333.343	17.081	1096.190	825.956
334.358	17.108	1095.493	825.485
335.373	17.185	1094.875	825.322
336.387	17.156	1094.019	824.463
337.402	17.193	1093.625	824.273
338.416	17.236	1092.557	823.602
339.431	17.226	1092.169	823.190
340.446	17.266	1091.927	823.127
341.460	17.464	1090.791	823.158
342.475	17.436	1089.976	822.332
343.489	17.553	1089.149	822.200
344.504	17.519	1088.258	821.291
345.519	17.523	1087.353	820.554
346.533	17.532	1086.642	819.990
347.548	17.471	1086.152	819.254
348.562	17.539	1085.385	818.929
349.577	17.470	1084.375	817.765
350.592	17.553	1083.486	817.421
351.606	17.474	1082.677	816.360
352.621	17.389	1082.067	815.420
353.635	17.236	1081.665	814.309
354.650	17.376	1080.613	814.117
355.665	17.376	1080.215	813.746
356.679	17.404	1079.420	813.209
357.694	17.503	1078.866	813.189
358.708	17.479	1078.355	812.620
359.723	17.539	1077.678	812.325
360.738	17.526	1077.288	811.895
361.752	17.618	1076.434	811.619
362.767	17.615	1075.973	811.185
363.781	17.554	1075.302	810.318
364.796	17.732	1074.659	810.605
365.810	17.683	1073.959	809.775
366.825	17.744	1073.765	809.845
367.840	17.824	1073.055	809.617
368.854	17.903	1072.701	809.653
369.869	17.863	1071.789	808.707
370.883	17.871	1070.896	807.999
371.898	17.735	1070.329	806.857
372.913	17.817	1069.101	806.246
373.927	17.922	1069.005	806.597
374.942	17.968	1068.320	806.228
375.956	17.919	1067.980	805.665
376.971	17.881	1067.545	805.089
377.986	17.900	1067.090	804.764
379.000	18.046	1066.241	804.739
380.015	17.978	1065.754	803.981
381.029	18.063	1065.325	803.986
382.044	18.072	1064.585	803.401
383.059	18.164	1063.416	802.875
384.073	18.187	1062.525	802.241
385.088	18.122	1061.712	801.252
386.102	18.157	1061.185	800.947
387.117	18.146	1060.052	799.969
388.132	18.008	1059.184	798.601
389.146	18.004	1058.663	798.119
390.161	18.032	1057.784	797.513
391.175	18.055	1056.985	796.947
392.190	18.102	1056.482	796.717
393.205	18.058	1056.169	796.206
394.219	18.146	1055.231	795.838
395.234	18.136	1053.862	794.687
396.248	18.095	1052.878	793.689
397.263	17.978	1051.893	792.333
398.278	18.018	1051.464	792.122
399.292	18.026	1050.561	791.413
400.307	18.031	1049.726	790.737
401.321	18.013	1049.428	790.357
402.336	18.118	1048.565	790.123
403.350	17.974	1047.990	788.955
404.365	18.016	1047.491	788.703
405.380	18.223	1046.244	788.648
406.394	18.132	1045.686	787.739
407.409	18.241	1044.965	787.628
408.423	18.280	1044.507	787.391
409.438	18.332	1043.727	786.975
410.453	18.538	1042.945	787.260
411.467	18.464	1042.620	786.604
412.482	18.474	1041.566	785.785
413.496	18.574	1041.019	785.764
414.511	18.600	1040.544	785.453
415.526	18.667	1040.057	785.322
416.540	18.701	1039.732	785.162
417.555	18.658	1039.198	784.495
418.569	18.584	1038.421	783.500
419.584	18.571	1038.002	783.054
420.599	18.681	1037.489	783.099
421.613	150.469	1401.772	1795.591
422.628	137.500	1454.827	1795.711
