DTS Sentinel unit serial number:	SN413079Multiplexer serial number:	ORYXHardware model number:	OX4-SRSoftware version number:	ORYX F/W v4.00 Oryx Data Collector v3.7.2.0data status	okinstallation	princeton_trtdifferential loss correction	single-endedforward channel	channel 2reverse channel	N/Adate	2019/09/12time	19:46:49forward acquisition time	15.00reverse acquisition time	0.00gamma	496.2192k internal	0.2327k external	0.2327temperature offset calibration	1.0163default loss term (dB/km)	0.3790temperature slope calibration	1.0000multiplexer offset coefficient	1.0000multiplexer slope coefficient	1.0000fibre end	0.00T internal ref (°C)	32.00T ext. ref 1 (°C)	3.39T ext. ref 2 (°C)	26.54length (m)	temperature (°C)	Stokes	anti-Stokes-747.200	-111.213	0.402	-0.083
-746.185	158.914	-0.332	0.466
-745.171	-64.783	-1.130	-0.461
-744.156	-200.000	0.061	-0.539
-743.142	391.486	0.125	-0.261
-742.127	-200.000	0.015	-0.348
-741.112	-91.076	0.977	0.283
-740.098	-98.800	-1.060	0.272
-739.083	800.000	0.131	0.468
-738.069	210.918	0.392	0.621
-737.054	-43.349	-0.730	0.372
-736.039	-66.577	0.221	-0.088
-735.025	247.564	-0.649	1.105
-734.010	107.699	0.443	-0.532
-732.996	143.104	-0.077	-0.103
-731.981	-157.975	0.746	0.044
-730.966	-200.000	-0.080	0.479
-729.952	-140.801	0.514	0.053
-728.937	-100.906	0.230	0.057
-727.923	-200.000	0.072	0.431
-726.908	800.000	0.049	-0.147
-725.894	-47.088	-0.363	-0.178
-724.879	-65.753	0.589	0.238
-723.864	-13.327	0.702	-0.459
-722.850	123.681	0.552	-0.698
-721.835	-200.000	-0.067	0.609
-720.821	-111.702	0.587	-0.120
-719.806	-26.450	-0.130	0.077
-718.791	-136.027	0.913	0.108
-717.777	-200.000	0.073	-0.529
-716.762	-107.005	-0.540	0.120
-715.748	-106.353	-1.101	0.248
-714.733	-200.000	0.022	-0.301
-713.718	73.354	-0.339	-0.358
-712.704	-200.000	0.130	0.596
-711.689	128.170	0.625	0.801
-710.675	-138.563	0.363	-0.040
-709.660	-13.192	-0.408	0.267
-708.645	20.449	0.595	0.484
-707.631	-23.616	0.814	-0.492
-706.616	-150.078	-0.415	-0.032
-705.602	386.983	0.163	-0.339
-704.587	-60.186	-0.484	0.208
-703.572	800.000	0.183	-0.728
-702.558	-200.000	-0.014	-0.120
-701.543	-85.123	0.670	0.211
-700.529	-50.586	1.175	0.557
-699.514	325.166	0.184	0.353
-698.499	-165.741	-0.621	0.027
-697.485	78.775	-0.391	-0.421
-696.470	163.000	-0.348	0.492
-695.456	-73.669	0.589	-0.216
-694.441	-13.511	-0.582	-0.379
-693.426	2.411	-0.252	-0.183
-692.412	-200.000	0.009	-0.728
-691.397	800.000	-0.279	-0.901
-690.383	-200.000	-0.046	-0.233
-689.368	-200.000	-0.050	-0.581
-688.354	23.060	-0.063	-0.052
-687.339	314.098	-0.217	0.411
-686.324	-74.523	0.096	-0.035
-685.310	117.987	-0.262	-0.325
-684.295	-109.169	-0.240	0.051
-683.281	191.309	-0.314	0.475
-682.266	45.677	0.366	0.340
-681.251	-175.034	0.107	0.003
-680.237	-40.464	0.572	-0.299
-679.222	800.000	0.097	-0.381
-678.208	-148.088	0.392	0.033
-677.193	-200.000	-0.008	-0.243
-676.178	-120.498	-0.191	0.033
-675.164	-200.000	-0.051	0.348
-674.149	559.744	0.161	0.390
-673.135	-47.202	0.354	-0.173
-672.120	1.254	0.709	-0.512
-671.105	108.748	-0.522	-0.627
-670.091	-200.000	0.064	-0.547
-669.076	366.845	-0.080	0.162
-668.062	-129.069	0.206	-0.029
-667.047	-115.461	0.137	0.026
-666.032	120.080	0.547	0.682
-665.018	-8.011	-0.292	0.198
-664.003	-78.586	-0.991	0.341
-662.989	515.268	0.298	0.700
-661.974	-45.393	0.386	0.192
-660.959	55.184	0.322	-0.313
-659.945	-200.000	-0.044	0.311
-658.930	800.000	-0.092	0.401
-657.916	253.130	0.102	0.174
-656.901	-187.645	0.336	-0.004
-655.886	-101.797	0.965	0.235
-654.872	349.935	-0.379	-0.752
-653.857	228.371	-0.100	-0.163
-652.843	96.966	0.509	-0.586
-651.828	208.291	0.231	-0.362
-650.814	614.196	0.242	0.610
-649.799	-134.454	0.481	-0.059
-648.784	94.933	-0.316	-0.361
-647.770	-23.936	-0.609	0.366
-646.755	-119.749	-0.294	-0.051
-645.741	-200.000	-0.058	-0.571
-644.726	-130.714	0.604	-0.082
-643.711	-200.000	0.007	-0.103
-642.697	-153.202	-0.616	-0.043
-641.682	283.345	-0.334	-0.603
-640.668	-200.000	-0.097	0.756
-639.653	-30.215	-0.677	-0.386
-638.638	52.473	-0.288	0.276
-637.624	5.872	-0.858	-0.638
-636.609	800.000	0.149	-0.435
-635.595	192.048	-0.451	0.683
-634.580	-90.229	-0.678	0.198
-633.565	132.441	0.322	0.417
-632.551	77.174	-0.645	0.689
-631.536	-200.000	-0.201	-1.068
-630.522	97.167	0.302	-0.348
-629.507	-7.393	0.111	0.075
-628.492	169.641	0.044	0.062
-627.478	32.834	0.497	-0.432
-626.463	-200.000	0.044	-0.235
-625.449	800.000	-0.149	0.632
-624.434	454.298	0.172	0.383
-623.419	71.563	-0.210	0.219
-622.405	-200.000	0.072	-0.961
-621.390	-200.000	-0.001	-0.208
-620.376	-56.915	0.619	-0.274
-619.361	-143.648	-0.569	-0.054
-618.346	-128.137	0.576	-0.083
-617.332	202.599	-0.399	0.618
-616.317	-29.292	0.684	-0.393
-615.303	3.044	0.499	-0.363
-614.288	-141.295	-0.124	0.013
-613.273	80.647	-0.398	0.430
-612.259	795.708	-0.321	0.886
-611.244	-195.353	-0.272	0.002
-610.230	-21.470	-0.608	0.372
-609.215	142.071	-0.254	-0.337
-608.201	-41.840	-0.131	-0.067
-607.186	389.346	-0.024	-0.050
-606.171	-45.504	-0.653	-0.325
-605.157	-138.831	0.215	0.024
-604.142	500.288	-0.318	-0.735
-603.128	210.404	0.117	0.183
-602.113	-94.304	-0.297	-0.081
-601.098	67.639	0.306	0.314
-600.084	-134.388	0.263	-0.032
-599.069	692.673	0.256	0.672
-598.055	44.221	0.712	0.655
-597.040	-48.374	0.760	0.367
-596.025	-54.427	-0.576	-0.262
-595.011	715.919	0.285	0.756
-593.996	800.000	-0.052	-0.173
-592.982	88.597	-0.336	0.374
-591.967	236.306	0.189	0.314
-590.952	249.682	0.032	0.055
-589.938	-72.129	-0.381	0.142
-588.923	-158.111	-0.384	-0.023
-587.909	-77.132	1.228	0.429
-586.894	-200.000	-0.054	0.374
-585.879	182.873	-0.310	-0.458
-584.865	-104.258	0.396	0.092
-583.850	800.000	0.182	0.575
-582.836	-45.071	0.117	-0.059
-581.821	789.316	0.161	0.444
-580.806	-10.683	-0.612	-0.406
-579.792	51.188	0.799	0.759
-578.777	415.932	-0.495	1.058
-577.763	81.836	0.350	-0.380
-576.748	800.000	-0.095	0.279
-575.733	-71.152	-0.127	0.048
-574.719	314.968	-0.369	-0.697
-573.704	45.402	-0.129	0.119
-572.690	-182.553	0.620	0.011
-571.675	-109.453	0.598	0.127
-570.661	-12.508	0.212	0.139
-569.646	147.016	0.489	-0.659
-568.631	-96.508	-0.540	0.143
-567.617	-121.090	0.875	0.147
-566.602	-33.812	-0.703	0.388
-565.588	-118.953	-0.247	-0.043
-564.573	-200.000	0.011	-0.364
-563.558	-200.000	0.037	-0.477
-562.544	-150.164	0.795	0.062
-561.529	207.037	0.206	-0.322
-560.515	-179.084	0.721	0.016
-559.500	-200.000	-0.078	-0.346
-558.485	243.404	0.079	-0.133
-557.471	800.000	0.397	-1.244
-556.456	-166.431	-0.816	0.034
-555.442	3.088	0.582	0.424
-554.427	-14.447	-0.338	-0.218
-553.412	-200.000	-0.082	0.408
-552.398	333.291	0.062	0.121
-551.383	-136.359	-0.969	0.113
-550.369	10.945	-0.057	-0.043
-549.354	528.815	0.030	0.070
-548.339	-94.914	-0.104	-0.028
-547.325	-200.000	-0.037	0.560
-546.310	794.680	-0.443	-1.219
-545.296	18.969	-0.582	-0.467
-544.281	-113.915	-0.743	-0.144
-543.266	-89.153	-0.025	-0.007
-542.252	120.858	-0.480	0.597
-541.237	-128.847	-0.246	0.035
-540.223	-200.000	-0.038	-0.651
-539.208	800.000	0.201	0.756
-538.193	-183.217	-0.128	0.002
-537.179	492.970	0.224	0.514
-536.164	-22.397	0.215	-0.130
-535.150	-101.170	-0.374	0.091
-534.135	-123.430	0.868	-0.138
-533.121	-200.000	-0.029	0.339
-532.106	133.419	0.396	0.512
-531.091	-200.000	0.014	0.586
-530.077	-63.996	-0.512	-0.209
-529.062	-97.498	1.041	-0.270
-528.048	-29.528	-0.847	0.484
-527.033	-17.660	0.338	0.212
-526.018	714.106	-0.057	0.152
-525.004	523.710	0.238	0.560
-523.989	390.477	-0.210	0.436
-522.975	-17.221	-0.461	0.290
-521.960	-61.156	0.597	-0.251
-520.945	800.000	0.108	-0.307
-519.931	-200.000	0.070	0.877
-518.916	257.705	0.537	-0.924
-517.902	-44.990	0.533	-0.265
-516.887	-108.488	-0.582	0.125
-515.872	-82.080	0.512	-0.167
-514.858	54.010	-0.172	0.165
-513.843	-49.906	0.339	0.161
-512.829	-4.283	0.717	-0.496
-511.814	-166.772	-0.348	-0.014
-510.799	-116.982	1.017	-0.186
-509.785	-193.095	1.010	-0.009
-508.770	-111.046	-0.952	0.195
-507.756	-51.791	0.677	0.315
-506.741	206.960	-0.495	0.770
-505.726	-77.245	0.380	0.132
-504.712	-70.083	-0.071	0.027
-503.697	88.186	0.474	0.526
-502.683	-200.000	-0.012	0.167
-501.668	-100.998	0.958	-0.235
-500.653	429.720	0.406	0.877
-499.639	-200.000	0.071	0.442
-498.624	25.920	0.610	0.508
-497.610	108.076	0.228	0.272
-496.595	245.414	-0.092	-0.155
-495.581	584.379	0.385	0.945
-494.566	177.743	0.752	-1.095
-493.551	800.000	-0.174	-0.526
-492.537	-124.524	0.491	-0.076
-491.522	71.599	-0.463	0.480
-490.508	369.250	0.170	0.343
-489.493	-49.416	-0.552	-0.263
-488.478	371.383	-0.154	-0.312
-487.464	-128.788	-0.545	-0.077
-486.449	-200.000	-0.011	-0.339
-485.435	87.975	-0.191	-0.211
-484.420	-175.854	0.669	-0.018
-483.405	-19.684	0.304	0.187
-482.391	53.984	-0.212	0.204
-481.376	-166.345	0.645	0.027
-480.362	-109.935	-0.220	0.046
-479.347	-200.000	0.031	0.406
-478.332	328.039	0.239	0.457
-477.318	-152.421	-0.561	0.040
-476.303	-23.337	0.198	-0.119
-475.289	422.746	-0.080	-0.171
-474.274	-18.515	-1.335	-0.831
-473.259	492.655	-0.284	-0.650
-472.245	-80.965	0.520	-0.172
-471.230	-200.000	0.042	-0.391
-470.216	120.766	0.563	0.698
-469.201	2.686	-0.555	0.402
-468.186	-200.000	0.090	0.503
-467.172	59.161	-0.270	0.265
-466.157	137.202	-0.660	0.860
-465.143	800.000	0.097	-0.303
-464.128	-103.811	0.372	-0.087
-463.113	26.119	-0.354	-0.295
-462.099	65.380	0.498	0.503
-461.084	46.229	0.120	-0.111
-460.070	-133.107	-0.439	0.055
-459.055	-77.405	-0.475	0.165
-458.040	157.192	0.203	-0.280
-457.026	588.888	0.097	-0.239
-456.011	-200.000	0.045	0.208
-454.997	509.714	-0.117	-0.271
-453.982	-200.000	0.029	0.307
-452.968	241.321	0.386	0.643
-451.953	10.609	-0.532	0.404
-450.938	-13.886	0.662	0.426
-449.924	-11.311	-0.375	-0.246
-448.909	-138.330	0.121	-0.013
-447.895	-200.000	0.015	0.345
-446.880	-128.485	1.020	-0.144
-445.865	378.791	-0.454	-0.926
-444.851	-141.432	-0.277	-0.028
-443.836	211.242	0.177	0.277
-442.822	-151.360	-0.389	0.029
-441.807	-200.000	-0.059	-0.303
-440.792	-84.485	-1.075	-0.338
-439.778	-69.413	-0.708	-0.270
-438.763	-200.000	-0.197	-1.117
-437.749	-108.427	-0.594	-0.128
-436.734	800.000	0.079	-0.226
-435.719	16.950	0.369	-0.291
-434.705	-173.887	0.398	0.012
-433.690	-200.000	0.052	-0.815
-432.676	-186.615	0.460	0.006
-431.661	-135.047	-0.679	0.081
-430.646	235.806	-0.130	-0.215
-429.632	-200.000	0.003	0.751
-428.617	-105.880	0.774	0.174
-427.603	23.521	-0.779	0.638
-426.588	-143.854	-0.599	0.056
-425.573	-40.503	-0.211	0.109
-424.559	-38.963	-1.174	0.615
-423.544	-200.000	0.063	-0.941
-422.530	772.182	0.185	-0.503
-421.515	-200.000	0.030	0.530
-420.500	19.707	0.221	0.177
-419.486	-200.000	-0.136	-0.601
-418.471	550.644	0.168	-0.402
-417.457	-10.146	0.306	-0.202
-416.442	-200.000	0.061	0.632
-415.428	330.286	0.524	-1.004
-414.413	312.181	-0.288	-0.538
-413.398	258.927	0.332	-0.570
-412.384	-44.947	0.348	0.172
-411.369	-119.940	-0.704	0.120
-410.355	-21.864	0.521	-0.315
-409.340	-62.521	0.552	0.228
-408.325	461.450	-0.063	-0.140
-407.311	-70.421	0.716	0.270
-406.296	-28.779	0.482	0.276
-405.282	-61.488	-1.017	-0.425
-404.267	-31.920	0.560	0.312
-403.252	-139.281	-0.718	-0.077
-402.238	138.635	-0.261	-0.340
-401.223	77.318	-0.093	-0.099
-400.209	-152.844	0.630	-0.044
-399.194	30.883	0.348	-0.296
-398.179	800.000	0.043	0.133
-397.165	162.676	0.195	-0.272
-396.150	-142.401	-0.257	-0.025
-395.136	119.997	-0.334	-0.412
-394.121	800.000	-0.287	-1.062
-393.106	-35.283	0.236	-0.128
-392.092	-115.289	0.179	-0.034
-391.077	-62.909	-0.591	0.243
-390.063	-200.000	0.121	-1.143
-389.048	26.378	0.778	0.647
-388.033	-200.000	-0.112	-0.569
-387.019	24.314	0.091	-0.075
-386.004	-37.100	0.369	0.196
-384.990	-200.000	-0.036	0.253
-383.975	10.531	0.323	0.245
-382.960	-200.000	-0.084	0.410
-381.946	716.808	0.306	0.808
-380.931	-82.123	-0.342	0.111
-379.917	470.222	0.360	0.803
-378.902	196.966	-0.250	-0.379
-377.888	-200.000	0.054	-0.600
-376.873	-98.581	-0.437	-0.111
-375.858	800.000	-0.181	0.688
-374.844	-140.920	0.374	-0.038
-373.829	634.936	0.111	-0.281
-372.815	105.361	-0.474	-0.557
-371.800	-173.968	-0.102	-0.003
-370.785	-106.998	-0.672	0.148
-369.771	55.409	-0.379	0.364
-368.756	27.175	-0.493	-0.411
-367.742	83.931	-0.333	-0.361
-366.727	-200.000	0.056	0.272
-365.712	800.000	-0.094	-0.324
-364.698	5.310	0.358	-0.262
-363.683	601.801	-0.101	0.250
-362.669	68.336	-0.635	0.646
-361.654	299.243	-0.196	-0.359
-360.639	-200.000	0.004	-0.437
-359.625	-79.243	0.714	-0.241
-358.610	-161.637	-0.953	0.048
-357.596	-200.000	-0.064	-0.342
-356.581	14.006	-0.352	0.272
-355.566	800.000	-0.245	0.789
-354.552	800.000	0.345	-0.952
-353.537	-16.075	-0.716	-0.452
-352.523	676.985	0.113	-0.290
-351.508	800.000	-0.066	0.209
-350.493	-200.000	0.026	0.549
-349.479	-100.204	-0.225	0.056
-348.464	20.659	-0.421	-0.338
-347.450	151.269	0.197	-0.266
-346.435	800.000	-0.146	0.424
-345.420	-200.000	-0.156	0.770
-344.406	-54.225	-0.656	0.296
-343.391	800.000	0.108	0.411
-342.377	724.796	0.234	0.620
-341.362	-200.000	1.130	-0.005
-340.348	110.066	-0.444	-0.529
-339.333	-106.933	-1.038	0.228
-338.318	800.000	-0.172	0.626
-337.304	102.335	0.796	-0.923
-336.289	800.000	-0.092	0.394
-335.275	118.232	0.392	-0.479
-334.260	-200.000	-0.046	0.773
-333.245	249.845	0.428	-0.720
-332.231	-54.093	0.875	0.395
-331.216	-144.258	-0.066	-0.006
-330.202	800.000	0.137	-0.454
-329.187	-200.000	0.027	0.363
-328.172	-102.052	0.645	-0.154
-327.158	-184.876	-0.536	-0.008
-326.143	-174.962	-0.377	0.010
-325.129	76.373	-0.221	0.232
-324.114	-12.152	-0.459	0.298
-323.099	-76.345	-0.682	0.238
-322.085	103.862	0.521	0.607
-321.070	-168.013	0.666	-0.026
-320.056	-168.130	0.846	0.033
-319.041	-87.229	-0.513	0.155
-318.026	28.476	-0.360	0.302
-317.012	31.388	0.530	-0.451
-315.997	-200.000	0.055	-0.717
-314.983	-111.021	0.523	-0.106
-313.968	185.311	-0.442	0.650
-312.953	800.000	0.159	0.474
-311.939	-45.676	0.410	-0.201
-310.924	-200.000	-0.071	-0.323
-309.910	190.214	0.571	-0.850
-308.895	176.384	0.073	-0.105
-307.880	-81.293	-0.724	0.237
-306.866	590.985	0.086	-0.210
-305.851	311.340	0.199	0.370
-304.837	397.881	0.117	0.242
-303.822	677.301	0.005	0.013
-302.807	-94.833	-0.511	-0.137
-301.793	183.703	0.459	-0.673
-300.778	407.259	0.530	1.110
-299.764	377.006	-0.519	-1.050
-298.749	458.439	-0.097	-0.214
-297.735	-74.442	-0.579	0.207
-296.720	-200.000	0.035	-0.447
-295.705	24.689	-0.814	0.667
-294.691	244.654	-0.598	-0.995
-293.676	-67.018	-0.622	0.243
-292.662	-145.814	-0.429	-0.038
-291.647	-200.000	0.060	-0.345
-290.632	-200.000	-0.037	0.315
-289.618	277.461	-0.502	0.884
-288.603	-73.939	-0.126	-0.045
-287.589	-147.977	0.262	0.022
-286.574	-142.482	0.973	0.095
-285.559	2.970	0.190	-0.137
-284.545	-149.488	-0.964	0.076
-283.530	-139.059	0.480	0.051
-282.516	-151.443	-0.088	0.006
-281.501	-162.364	0.659	-0.032
-280.486	175.490	-0.315	-0.452
-279.472	179.034	-0.500	-0.724
-278.457	138.991	0.480	0.624
-277.443	110.944	-0.412	-0.490
-276.428	-115.935	0.281	-0.052
-275.413	400.115	0.324	-0.672
-274.399	-48.888	0.330	-0.157
-273.384	-84.354	0.276	-0.086
-272.370	-92.992	-0.806	-0.222
-271.355	-38.423	0.132	-0.069
-270.340	-36.635	0.347	-0.185
-269.326	-110.622	0.851	0.174
-268.311	-16.767	-0.200	-0.125
-267.297	-107.458	-0.601	0.130
-266.282	-149.158	0.293	0.023
-265.267	800.000	0.078	-0.236
-264.253	800.000	-0.219	-0.611
-263.238	282.463	0.395	0.701
-262.224	-149.110	0.417	0.033
-261.209	-17.134	0.662	-0.413
-260.195	800.000	-0.231	0.652
-259.180	99.014	0.517	-0.591
-258.165	-117.037	0.707	-0.128
-257.151	-74.090	-0.242	-0.087
-256.136	-30.699	-0.064	0.036
-255.122	-111.911	-0.762	-0.152
-254.107	-94.630	-0.260	0.070
-253.092	-115.219	0.532	-0.100
-252.078	166.450	0.458	-0.641
-251.063	101.822	-0.542	0.626
-250.049	-200.000	0.198	-0.963
-249.034	-65.191	-0.445	0.177
-248.019	-200.000	0.008	1.019
-247.005	66.239	0.083	-0.083
-245.990	-74.757	0.752	-0.267
-244.976	-38.130	0.353	-0.185
-243.961	800.000	0.066	-0.224
-242.946	-50.128	-0.702	-0.328
-241.932	800.000	-0.099	0.418
-240.917	60.915	-0.268	0.263
-239.903	-61.727	0.800	0.331
-238.888	752.348	-0.063	0.169
-237.873	19.782	-0.842	-0.670
-236.859	64.948	-0.368	0.367
-235.844	-200.000	0.099	-0.507
-234.830	-200.000	-0.027	-0.201
-233.815	35.310	-0.517	0.448
-232.800	800.000	-0.171	0.476
-231.786	-45.077	-0.768	0.378
-230.771	788.117	0.234	0.636
-229.757	-107.704	-0.249	0.054
-228.742	202.337	0.269	-0.411
-227.727	68.948	-0.502	-0.509
-226.713	638.323	0.194	-0.486
-225.698	-200.000	-0.073	-0.758
-224.684	-200.000	-0.056	0.483
-223.669	19.265	-0.574	0.455
-222.655	23.469	0.070	-0.057
-221.640	-200.000	-0.058	-0.654
-220.625	111.010	0.283	0.337
-219.611	-200.000	0.024	0.300
-218.596	800.000	0.116	-0.415
-217.582	-140.223	0.654	-0.068
-216.567	-130.845	0.283	0.037
-215.552	377.524	-0.175	0.353
-214.538	-116.136	-0.198	-0.036
-213.523	-57.557	-0.453	0.196
-212.509	-80.829	0.397	-0.130
-211.494	-167.660	-0.539	-0.021
-210.479	-58.582	-0.810	0.347
-209.465	800.000	-0.201	0.680
-208.450	-10.139	0.338	0.221
-207.436	159.141	-0.414	-0.568
-206.421	-8.123	0.266	0.177
-205.406	335.192	-0.116	0.222
-204.392	-167.325	0.610	0.024
-203.377	800.000	0.352	1.060
-202.363	-99.810	-0.555	0.137
-201.348	-200.000	-0.011	0.339
-200.333	-51.472	0.729	0.336
-199.319	-10.326	0.213	-0.139
-198.304	335.880	0.234	-0.448
-197.290	-145.691	0.807	-0.071
-196.275	-4.007	-0.139	0.095
-195.260	84.091	0.436	-0.470
-194.246	-125.003	-1.041	0.158
-193.231	-200.000	0.036	-0.397
-192.217	-54.777	0.780	-0.347
-191.202	800.000	-0.155	0.459
-190.187	149.227	0.431	-0.575
-189.173	-78.850	-0.168	0.056
-188.158	800.000	-0.249	0.919
-187.144	145.129	-0.247	-0.326
-186.129	800.000	0.150	-0.570
-185.114	30.920	0.103	0.087
-184.100	407.706	-0.089	-0.185
-183.085	-64.677	0.622	-0.249
-182.071	-133.413	-0.298	-0.037
-181.056	-115.507	-0.418	0.077
-180.042	799.212	0.230	-0.626
-179.027	-200.000	-0.026	-0.142
-178.012	-200.000	-0.108	-0.920
-176.998	800.000	-0.264	0.878
-175.983	-200.000	0.055	0.379
-174.969	-200.000	-0.012	-0.150
-173.954	-104.638	0.344	-0.078
-172.939	214.382	-0.271	-0.423
-171.925	800.000	0.180	-0.498
-170.910	-97.919	0.491	-0.125
-169.896	800.000	0.050	-0.217
-168.881	67.495	-0.148	0.149
-167.866	31.157	0.427	-0.361
-166.852	-7.660	-0.492	-0.328
-165.837	198.652	-0.049	0.074
-164.823	-169.714	0.465	-0.017
-163.808	-75.247	1.034	-0.364
-162.793	-200.000	-0.011	-0.497
-161.779	800.000	0.076	0.317
-160.764	-200.000	-0.115	0.630
-159.750	-15.222	0.071	-0.045
-158.735	301.583	0.076	0.138
-157.720	327.368	-0.302	0.571
-156.706	-163.836	0.411	0.019
-155.691	-200.000	-0.011	-0.184
-154.677	-32.022	0.309	0.170
-153.662	283.679	-0.413	0.731
-152.647	-200.000	0.136	0.695
-151.633	142.683	-0.377	-0.494
-150.618	220.278	0.059	-0.093
-149.604	-200.000	0.118	-0.767
-148.589	-1.076	-0.232	-0.161
-147.574	15.212	0.639	0.493
-146.560	14.559	0.536	-0.412
-145.545	-185.780	0.968	-0.014
-144.531	-122.082	0.531	0.086
-143.516	-200.000	-0.061	-0.430
-142.502	-200.000	-0.130	-1.044
-141.487	-200.000	-0.141	0.642
-140.472	154.766	0.261	-0.353
-139.458	-200.000	-0.018	0.378
-138.443	-48.104	-0.261	0.124
-137.429	71.510	0.125	-0.128
-136.414	90.826	0.201	0.221
-135.399	151.531	0.495	0.663
-134.385	469.724	0.348	0.770
-133.370	-134.720	-0.200	0.024
-132.356	-83.611	0.495	0.156
-131.341	27.341	0.229	0.190
-130.326	800.000	0.156	-0.535
-129.312	-92.551	-0.285	-0.079
-128.297	148.467	0.352	0.468
-127.283	800.000	-0.324	0.940
-126.268	-57.755	-0.782	-0.337
-125.253	222.365	-0.103	0.162
-124.239	118.582	0.148	-0.180
-123.224	-100.515	0.371	0.090
-122.210	800.000	-0.080	-0.344
-121.195	72.829	0.487	-0.500
-120.180	278.198	0.223	0.392
-119.166	579.684	0.431	1.039
-118.151	-47.116	-0.544	-0.261
-117.137	-200.000	0.077	-0.608
-116.122	-89.249	-0.696	-0.202
-115.107	574.582	-0.164	-0.394
-114.093	-64.563	0.337	-0.134
-113.078	-200.000	-0.086	-0.478
-112.064	-200.000	-0.045	-0.438
-111.049	405.599	0.299	-0.621
-110.034	97.896	-0.387	0.438
-109.020	-200.000	-0.093	0.447
-108.005	81.301	-0.499	-0.530
-106.991	800.000	0.267	0.822
-105.976	-7.465	0.768	0.511
-104.962	37.915	-0.382	0.334
-103.947	112.653	-0.408	-0.485
-102.932	-34.183	-0.814	0.439
-101.918	-167.570	-0.492	0.019
-100.903	264.340	0.219	-0.374
-99.889	-179.477	-0.218	0.005
-98.874	800.000	-0.058	0.180
-97.859	-200.000	0.126	0.844
-96.845	800.000	0.231	0.743
-95.830	8.624	-0.182	-0.135
-94.816	306.305	-0.523	-0.957
-93.801	-140.121	0.410	-0.042
-92.786	-45.214	0.575	-0.281
-91.772	176.972	0.306	-0.438
-90.757	800.000	-0.055	0.154
-89.743	-200.000	0.131	-0.839
-88.728	-99.588	0.144	0.036
-87.713	345.020	0.150	0.290
-86.699	-200.000	-0.027	0.294
-85.684	242.247	0.447	-0.735
-84.670	104.357	0.671	0.776
-83.655	91.270	-0.147	-0.162
-82.640	141.489	0.492	-0.640
-81.626	-105.206	-0.735	0.165
-80.611	-200.000	0.046	-0.374
-79.597	-200.000	-0.053	0.280
-78.582	-169.085	0.950	0.035
-77.567	800.000	0.101	-0.324
-76.553	140.159	0.179	0.231
-75.538	152.502	-0.315	0.422
-74.524	88.877	-0.237	-0.259
-73.509	73.297	0.464	-0.477
-72.494	-200.000	-0.018	-0.632
-71.480	-88.814	-0.937	-0.273
-70.465	800.000	-0.181	-0.758
-69.451	52.278	0.118	-0.110
-68.436	-125.807	-0.509	-0.075
-67.422	707.423	-0.172	0.445
-66.407	-95.140	0.059	0.016
-65.392	44.267	0.265	0.238
-64.378	243.408	-0.189	0.311
-63.363	-60.986	-0.887	0.368
-62.349	441.792	-0.277	0.595
-61.334	-29.717	-1.061	-0.594
-60.319	428.763	-0.152	0.321
-59.305	45.135	-1.193	-1.079
-58.290	601.968	0.743	1.813
-57.276	800.000	0.619	1.962
-56.261	-200.000	96.368	610.103
-55.246	670.514	1358.634	3452.573
-54.232	203.393	2531.772	3842.307
-53.217	113.482	2246.415	2675.931
-52.203	41.486	1880.126	1669.596
-51.188	35.253	1672.998	1438.995
-50.173	32.724	1628.674	1382.307
-49.159	51.693	1679.086	1566.634
-48.144	52.190	1695.194	1585.294
-47.130	34.751	1655.901	1420.331
-46.115	32.149	1641.649	1388.841
-45.100	31.957	1637.549	1383.906
-44.086	32.052	1633.174	1380.850
-43.071	31.906	1631.374	1378.201
-42.057	32.149	1628.182	1377.230
-41.042	31.876	1626.659	1373.887
-40.027	32.015	1624.261	1372.828
-39.013	31.894	1622.946	1370.774
-37.998	31.685	1622.043	1368.429
-36.984	31.748	1621.761	1368.600
-35.969	32.028	1618.562	1367.884
-34.954	32.075	1616.552	1366.479
-33.940	32.234	1614.602	1365.933
-32.925	31.980	1612.906	1362.599
-31.911	31.811	1611.638	1360.241
-30.896	32.057	1609.943	1360.544
-29.881	31.949	1608.229	1358.258
-28.867	31.824	1606.522	1355.856
-27.852	32.097	1604.035	1355.677
-26.838	32.175	1602.648	1355.013
-25.823	32.009	1601.933	1353.160
-24.809	32.132	1601.264	1353.425
-23.794	31.868	1600.147	1350.527
-22.779	32.026	1597.318	1349.219
-21.765	31.949	1595.804	1347.335
-20.750	32.097	1595.258	1347.888
-19.736	31.840	1594.962	1345.739
-18.721	32.265	1591.654	1345.934
-17.706	32.016	1591.288	1343.789
-16.692	31.973	1589.534	1341.946
-15.677	32.172	1587.616	1341.699
-14.663	32.210	1585.901	1340.466
-13.648	32.064	1585.372	1338.926
-12.633	32.248	1583.920	1338.954
-11.619	31.897	1582.019	1334.801
-10.604	31.822	1581.003	1333.353
-9.590	32.067	1579.246	1333.557
-8.575	31.931	1579.104	1332.424
-7.560	32.027	1576.517	1330.869
-6.546	32.085	1575.001	1329.947
-5.531	32.001	1575.376	1329.613
-4.517	31.959	1573.126	1327.361
-3.502	32.245	1572.263	1328.606
-2.487	32.037	1571.597	1326.517
-1.473	31.674	1560.843	1314.842
-0.458	28.782	1539.727	1276.933
0.556	26.865	1539.600	1245.144
1.571	24.321	1563.945	1246.955
2.586	23.653	1575.694	1251.510
3.600	21.151	1522.648	1192.203
4.615	12.629	1414.459	1053.091
5.629	4.742	1352.543	958.489
6.644	3.314	1342.621	942.636
7.659	3.447	1342.850	943.528
8.673	3.455	1340.807	942.058
9.688	3.344	1338.583	939.732
10.702	3.397	1335.880	938.073
11.717	6.754	1342.510	963.157
12.731	16.043	1359.118	1032.112
13.746	23.465	1370.806	1086.559
14.761	25.127	1372.912	1098.326
15.775	24.886	1371.921	1095.962
16.790	24.213	1371.689	1091.555
17.804	24.192	1369.028	1089.213
18.819	24.105	1369.183	1088.711
19.834	24.083	1367.967	1087.510
20.848	24.227	1367.022	1087.540
21.863	24.377	1366.322	1087.804
22.877	24.335	1365.799	1087.036
23.892	24.252	1363.753	1084.809
24.907	24.289	1363.521	1084.752
25.921	24.216	1362.150	1083.118
26.936	24.072	1361.661	1081.760
27.950	24.220	1361.411	1082.364
28.965	24.381	1359.621	1081.824
29.980	24.499	1357.926	1081.090
30.994	24.465	1357.870	1080.746
32.009	24.524	1356.420	1079.852
33.023	24.453	1355.997	1078.993
34.038	24.357	1354.669	1077.259
35.053	24.258	1354.398	1076.351
36.067	24.318	1353.174	1075.648
37.082	23.838	1352.691	1072.272
38.096	24.179	1351.213	1073.058
39.111	24.250	1349.895	1072.347
40.126	23.980	1350.577	1071.170
41.140	24.118	1348.394	1070.169
42.155	23.806	1347.793	1067.723
43.169	23.872	1348.117	1068.286
44.184	23.836	1348.166	1068.013
45.199	23.733	1347.831	1067.033
46.213	23.927	1347.740	1068.028
47.228	24.133	1346.901	1068.505
48.242	24.275	1344.902	1067.679
49.257	23.970	1345.682	1066.376
50.271	24.097	1342.958	1064.881
51.286	24.201	1341.080	1063.920
52.301	24.334	1340.709	1064.324
53.315	24.267	1338.902	1062.397
54.330	23.898	1337.875	1059.288
55.344	23.955	1336.786	1058.675
56.359	23.855	1335.801	1057.203
57.374	23.716	1336.049	1056.478
58.388	23.876	1335.012	1056.516
59.403	23.934	1333.903	1055.892
60.417	23.974	1332.978	1055.305
61.432	23.564	1333.287	1053.019
62.447	23.673	1331.854	1052.440
63.461	23.624	1331.064	1051.434
64.476	23.634	1329.714	1050.333
65.490	23.594	1329.216	1049.609
66.505	23.619	1326.960	1047.884
67.520	23.897	1326.101	1048.754
68.534	23.546	1324.692	1045.476
69.549	23.475	1325.206	1045.372
70.563	23.698	1322.811	1044.706
71.578	23.590	1320.983	1042.532
72.593	23.774	1320.555	1043.186
73.607	23.295	1319.778	1039.668
74.622	23.595	1319.509	1041.125
75.636	23.518	1319.876	1040.865
76.651	23.678	1317.536	1039.866
77.666	23.553	1316.863	1038.511
78.680	23.448	1318.409	1039.026
79.695	23.560	1316.859	1038.367
80.709	23.599	1316.898	1038.531
81.724	23.934	1314.641	1038.616
82.739	23.811	1315.043	1038.127
83.753	24.105	1314.216	1039.096
84.768	24.301	1313.410	1039.512
85.782	24.831	1311.256	1040.798
86.797	24.440	1311.520	1038.639
87.812	24.219	1310.404	1036.381
88.826	24.176	1308.873	1034.824
89.841	24.365	1308.182	1035.283
90.855	24.317	1307.028	1034.003
91.870	24.360	1306.795	1033.977
92.884	24.668	1305.207	1034.410
93.899	24.479	1305.061	1033.110
94.914	24.435	1304.445	1032.279
95.928	24.336	1303.806	1031.109
96.943	24.343	1303.008	1030.428
97.957	24.693	1301.255	1030.965
98.972	24.253	1301.529	1028.554
99.987	24.581	1299.065	1028.407
101.001	24.332	1299.118	1026.920
102.016	24.250	1298.527	1025.890
103.030	24.062	1298.634	1024.806
104.045	24.306	1295.908	1023.965
105.060	24.043	1294.924	1021.584
106.074	23.730	1294.110	1019.060
107.089	23.684	1292.629	1017.536
108.103	23.918	1290.343	1016.985
109.118	23.617	1289.786	1014.734
110.133	23.476	1287.917	1012.371
111.147	23.530	1287.055	1011.910
112.162	23.931	1285.657	1013.010
113.176	23.863	1285.060	1012.060
114.191	23.824	1283.813	1010.768
115.206	23.695	1283.102	1009.388
116.220	24.097	1282.460	1011.074
117.235	23.670	1281.407	1007.731
118.249	23.601	1279.545	1005.788
119.264	23.477	1279.556	1005.003
120.279	23.856	1276.915	1004.986
121.293	23.421	1277.678	1003.035
122.308	23.470	1276.951	1002.653
123.322	23.452	1273.965	1000.120
124.337	23.350	1275.329	1000.524
125.352	23.478	1274.186	1000.262
126.366	23.471	1272.596	998.885
127.381	23.651	1271.493	998.941
128.395	23.299	1269.873	995.601
129.410	23.053	1269.674	993.974
130.424	23.237	1269.600	994.863
131.439	23.461	1268.472	995.149
132.454	23.550	1267.791	995.025
133.468	23.629	1267.801	995.392
134.483	23.655	1267.675	995.351
135.497	23.732	1266.653	994.890
136.512	23.524	1265.563	992.784
137.527	23.856	1263.357	992.816
138.541	23.740	1262.435	991.358
139.556	23.720	1261.704	990.585
140.570	24.060	1259.693	990.813
141.585	24.092	1259.817	991.001
142.600	24.090	1259.623	990.746
143.614	24.430	1259.020	992.077
144.629	24.500	1256.990	990.776
145.643	24.169	1255.982	988.059
146.658	24.097	1254.529	986.428
147.673	24.101	1253.780	985.776
148.687	24.021	1253.102	984.712
149.702	24.091	1250.998	983.361
150.716	23.545	1250.127	979.576
151.731	23.639	1247.768	978.158
152.746	23.640	1247.643	977.977
153.760	23.728	1247.143	977.981
154.775	23.964	1246.555	978.735
155.789	24.113	1245.935	978.978
156.804	23.885	1244.978	976.891
157.819	24.253	1242.433	976.823
158.833	24.225	1242.137	976.352
159.848	24.011	1242.543	975.410
160.862	23.956	1241.478	974.188
161.877	23.890	1239.567	972.243
162.892	23.987	1238.145	971.566
163.906	23.728	1237.221	969.342
164.921	23.680	1236.247	968.235
165.935	23.872	1235.658	968.733
166.950	23.900	1235.591	968.748
167.964	24.005	1234.906	968.698
168.979	23.849	1235.103	967.916
169.994	23.660	1233.731	965.725
171.008	23.568	1232.601	964.257
172.023	24.059	1231.900	966.287
173.037	24.189	1231.100	966.284
174.052	24.076	1231.044	965.537
175.067	24.053	1228.965	963.700
176.081	23.722	1228.287	961.290
177.096	23.488	1228.042	959.749
178.110	23.549	1227.040	959.211
179.125	23.557	1226.124	958.452
180.140	23.771	1225.252	958.838
181.154	23.834	1224.597	958.584
182.169	24.121	1222.755	958.599
183.183	24.160	1221.489	957.732
184.198	24.087	1221.125	956.971
185.213	24.019	1220.245	955.830
186.227	24.179	1219.724	956.194
187.242	24.121	1218.638	954.950
188.256	24.291	1217.543	954.919
189.271	24.521	1215.738	954.646
190.286	24.024	1215.912	952.041
191.300	24.069	1214.403	951.017
192.315	23.700	1214.643	949.147
193.329	23.830	1214.347	949.527
194.344	23.899	1213.039	948.788
195.359	23.574	1211.813	946.016
196.373	23.762	1211.318	946.548
197.388	23.862	1209.775	945.790
198.402	24.373	1211.259	949.587
199.417	24.429	1211.350	949.868
200.432	24.593	1210.236	949.787
201.446	24.518	1209.715	948.891
202.461	24.262	1209.423	947.222
203.475	24.353	1208.313	946.749
204.490	23.963	1206.919	943.505
205.504	24.002	1205.300	942.364
206.519	23.937	1203.249	940.336
207.534	23.899	1202.556	939.508
208.548	23.511	1202.335	937.202
209.563	23.807	1201.140	937.752
210.577	23.670	1200.497	936.442
211.592	23.852	1199.941	936.884
212.607	24.237	1200.596	939.342
213.621	24.242	1199.200	938.194
214.636	24.221	1197.770	936.881
215.650	24.124	1196.514	935.310
216.665	24.212	1196.325	935.537
217.680	24.356	1196.069	936.012
218.694	24.504	1195.144	935.979
219.709	24.353	1194.294	934.439
220.723	24.278	1192.799	932.795
221.738	24.266	1192.748	932.612
222.753	24.225	1190.866	930.845
223.767	23.679	1191.678	928.539
224.782	24.062	1191.403	930.248
225.796	24.436	1191.057	931.846
226.811	24.562	1189.427	931.146
227.826	24.141	1188.612	928.233
228.840	24.132	1187.573	927.291
229.855	24.005	1186.571	925.768
230.869	23.967	1186.333	925.303
231.884	24.121	1185.318	925.226
232.899	23.639	1184.026	921.635
233.913	23.804	1183.340	921.876
234.928	23.638	1184.099	921.524
235.942	23.921	1181.958	921.245
236.957	23.429	1181.689	918.406
237.972	23.352	1181.011	917.399
238.986	23.645	1179.676	917.793
240.001	23.682	1179.792	917.991
241.015	23.940	1177.760	917.662
242.030	23.820	1178.245	917.338
243.045	23.906	1177.551	917.162
244.059	24.199	1176.834	918.032
245.074	24.138	1176.069	917.040
246.088	24.309	1176.195	917.936
247.103	24.374	1175.135	917.363
248.117	24.373	1173.741	916.189
249.132	24.562	1173.956	917.246
250.147	24.977	1173.405	918.865
251.161	25.083	1173.130	919.111
252.176	25.299	1171.410	918.788
253.190	25.015	1171.261	917.134
254.205	25.084	1172.010	917.995
255.220	25.029	1171.757	917.433
256.234	25.131	1170.319	916.750
257.249	25.149	1170.093	916.583
258.263	24.914	1169.370	914.736
259.278	24.852	1168.461	913.624
260.293	24.939	1167.438	913.189
261.307	25.006	1167.618	913.589
262.322	25.248	1166.610	913.956
263.336	25.184	1165.631	912.779
264.351	25.317	1165.188	913.027
265.366	25.391	1164.253	912.590
266.380	25.271	1164.019	911.719
267.395	25.030	1163.643	910.117
268.409	24.926	1162.197	908.380
269.424	25.058	1160.668	907.771
270.439	24.763	1161.559	906.892
271.453	24.937	1159.098	905.775
272.468	24.497	1159.406	903.705
273.482	24.761	1158.271	904.074
274.497	24.641	1158.018	903.193
275.512	24.878	1157.251	903.712
276.526	24.769	1156.472	902.471
277.541	24.339	1156.231	900.037
278.555	24.674	1155.707	901.238
279.570	24.820	1155.782	901.951
280.585	25.408	1154.413	903.762
281.599	25.006	1154.096	901.413
282.614	24.848	1152.250	899.097
283.628	24.421	1151.240	896.085
284.643	24.619	1150.730	896.602
285.657	24.583	1149.363	895.280
286.672	24.884	1147.936	895.593
287.687	24.757	1148.575	895.377
288.701	24.702	1147.885	894.484
289.716	24.958	1145.521	893.843
290.730	24.784	1145.469	892.856
291.745	24.737	1144.840	892.050
292.760	24.722	1144.578	891.690
293.774	25.089	1143.103	892.291
294.789	25.077	1143.662	892.588
295.803	25.138	1142.896	892.218
296.818	24.792	1142.680	890.245
297.833	25.121	1140.286	889.937
298.847	24.913	1139.315	888.070
299.862	24.721	1139.180	886.933
300.876	24.941	1138.826	887.667
301.891	24.905	1138.246	886.959
302.906	25.256	1138.782	889.037
303.920	25.308	1137.979	888.588
304.935	25.198	1136.949	887.165
305.949	25.295	1136.627	887.312
306.964	25.459	1135.697	887.317
307.979	25.512	1134.673	886.699
308.993	25.102	1133.984	884.065
310.008	25.361	1133.730	885.063
311.022	25.409	1133.073	884.709
312.037	25.336	1132.204	883.592
313.052	25.138	1131.926	882.324
314.066	24.762	1130.130	878.996
315.081	24.817	1129.098	878.389
316.095	24.387	1128.377	875.638
317.110	24.667	1127.407	876.182
318.125	24.592	1126.965	875.395
319.139	24.701	1126.281	875.319
320.154	24.802	1124.743	874.539
321.168	24.832	1123.453	873.604
322.183	24.570	1124.181	872.814
323.197	24.747	1123.585	873.139
324.212	24.875	1123.412	873.549
325.227	24.997	1123.169	873.880
326.241	24.782	1122.546	872.269
327.256	24.720	1121.734	871.257
328.270	24.861	1120.191	870.668
329.285	24.800	1119.092	869.442
330.300	24.690	1118.897	868.677
331.314	24.403	1118.917	867.224
332.329	24.643	1117.293	867.050
333.343	25.132	1115.916	868.277
334.358	25.067	1115.677	867.697
335.373	25.200	1115.617	868.217
336.387	25.178	1114.723	867.339
337.402	25.218	1113.974	866.871
338.416	25.589	1112.945	867.787
339.431	25.460	1112.488	866.728
340.446	25.725	1112.496	867.936
341.460	25.659	1111.687	866.910
342.475	25.764	1112.162	867.712
343.489	25.814	1111.611	867.448
344.504	25.758	1109.150	865.182
345.519	25.642	1109.188	864.577
346.533	26.217	1107.851	866.216
347.548	25.991	1107.400	864.702
348.562	25.981	1106.223	863.660
349.577	25.406	1105.475	860.247
350.592	25.308	1104.006	858.556
351.606	25.184	1103.358	857.384
352.621	25.074	1103.421	856.834
353.635	24.922	1102.460	855.287
354.650	25.164	1100.710	855.006
355.665	25.263	1100.442	855.194
356.679	25.066	1100.846	854.491
357.694	25.192	1099.968	854.334
358.708	25.225	1098.982	853.652
359.723	25.475	1099.107	854.861
360.738	25.521	1097.711	853.921
361.752	25.178	1097.899	852.359
362.767	25.267	1097.634	852.500
363.781	25.264	1096.348	851.415
364.796	25.831	1095.926	853.697
365.810	25.647	1096.045	852.844
366.825	25.783	1095.632	853.092
367.840	25.803	1095.873	853.296
368.854	25.955	1093.908	852.409
369.869	26.218	1093.247	853.063
370.883	25.872	1092.953	851.123
371.898	25.509	1092.757	849.184
372.913	25.690	1090.820	848.454
373.927	25.852	1090.351	848.778
374.942	26.004	1090.227	849.322
375.956	25.908	1090.023	848.636
376.971	25.961	1088.449	847.582
377.986	25.919	1088.847	847.622
379.000	25.926	1088.131	847.024
380.015	26.111	1087.796	847.556
381.029	26.093	1086.761	846.589
382.044	26.039	1086.526	846.080
383.059	25.872	1085.876	844.715
384.073	25.793	1085.121	843.682
385.088	26.121	1084.150	844.389
386.102	26.101	1082.399	842.857
387.117	26.082	1081.063	841.650
388.132	25.383	1081.123	838.361
389.146	25.387	1080.856	838.101
390.161	25.346	1079.282	836.613
391.175	25.664	1078.425	837.354
392.190	25.492	1078.204	836.308
393.205	25.955	1078.159	838.354
394.219	25.929	1078.564	838.473
395.234	25.865	1075.897	836.032
396.248	25.498	1074.689	833.318
397.263	25.342	1074.303	832.219
398.278	25.542	1074.181	832.981
399.292	25.426	1072.779	831.281
400.307	25.614	1073.224	832.424
401.321	25.585	1071.383	830.788
402.336	25.498	1069.873	829.142
403.350	25.500	1069.289	828.626
404.365	25.730	1069.306	829.625
405.380	25.568	1069.449	828.914
406.394	26.256	1066.776	829.932
407.409	25.956	1067.217	828.824
408.423	26.195	1066.113	828.989
409.438	26.156	1066.546	829.073
410.453	26.132	1066.195	828.620
411.467	26.007	1064.879	826.951
412.482	26.235	1064.099	827.314
413.496	26.328	1063.044	826.847
414.511	26.381	1063.867	827.657
415.526	26.343	1063.688	827.268
416.540	26.478	1063.611	827.753
417.555	26.511	1061.689	826.337
418.569	26.204	1062.248	825.295
419.584	25.920	1062.004	823.736
420.599	26.254	1060.509	824.024
421.613	154.938	1404.158	1795.440
422.628	142.419	1454.201	1795.461
