DTS Sentinel unit serial number:	SN413079Multiplexer serial number:	ORYXHardware model number:	OX4-SRSoftware version number:	ORYX F/W v4.00 Oryx Data Collector v3.7.2.0data status	okinstallation	princeton_trtdifferential loss correction	single-endedforward channel	channel 2reverse channel	N/Adate	2019/09/12time	20:07:49forward acquisition time	15.00reverse acquisition time	0.00gamma	496.2192k internal	0.2328k external	0.2328temperature offset calibration	1.0141default loss term (dB/km)	0.3790temperature slope calibration	1.0000multiplexer offset coefficient	1.0000multiplexer slope coefficient	1.0000fibre end	0.00T internal ref (°C)	31.69T ext. ref 1 (°C)	3.45T ext. ref 2 (°C)	26.35length (m)	temperature (°C)	Stokes	anti-Stokes-747.200	-17.306	1.017	-0.646
-746.185	58.128	-0.416	0.411
-745.171	89.765	0.317	0.357
-744.156	100.180	-0.190	0.222
-743.142	-45.144	-0.397	0.199
-742.127	-44.151	0.505	0.256
-741.112	-200.000	-0.007	-0.423
-740.098	50.425	0.417	0.397
-739.083	-57.676	0.637	0.281
-738.069	-100.870	0.742	-0.184
-737.054	57.859	0.654	0.644
-736.039	124.155	-0.303	-0.383
-735.025	-84.611	0.206	0.066
-734.010	-138.133	-0.473	-0.053
-732.996	-139.135	-0.305	-0.033
-731.981	-78.615	-0.611	0.210
-730.966	194.317	0.245	0.373
-729.952	100.341	-0.375	0.438
-728.937	800.000	0.088	0.380
-727.923	428.452	-0.154	-0.335
-726.908	-200.000	-0.062	-0.340
-725.894	-200.000	-0.038	-0.201
-724.879	-14.784	-0.288	-0.186
-723.864	-112.559	-0.379	0.076
-722.850	-37.609	-0.472	-0.253
-721.835	-123.804	-0.551	-0.088
-720.821	800.000	-0.047	-0.162
-719.806	-73.146	-0.279	-0.103
-718.791	-35.867	0.488	-0.266
-717.777	-106.963	-0.628	-0.140
-716.762	-200.000	0.086	-0.532
-715.748	-200.000	-0.012	-0.198
-714.733	-36.830	0.315	-0.170
-713.718	714.425	-0.265	-0.708
-712.704	-65.479	0.456	-0.184
-711.689	-64.018	0.658	0.270
-710.675	-200.000	0.037	0.515
-709.660	463.055	-0.354	-0.795
-708.645	-138.673	0.379	-0.042
-707.631	140.575	-0.123	0.164
-706.616	-145.924	-0.489	0.044
-705.602	-200.000	0.025	-0.124
-704.587	303.659	-0.484	0.903
-703.572	-200.000	0.028	0.869
-702.558	555.984	0.230	-0.557
-701.543	-131.739	0.553	0.073
-700.529	-2.188	0.744	0.526
-699.514	-92.268	-0.647	-0.184
-698.499	-200.000	-0.030	-0.328
-697.485	-1.066	-0.565	0.402
-696.470	-131.748	0.282	0.037
-695.456	-41.897	0.518	0.267
-694.441	-58.278	-0.275	0.120
-693.426	189.977	-0.515	-0.777
-692.412	800.000	0.269	-0.998
-691.397	-154.442	0.474	0.032
-690.383	-2.544	-0.394	0.278
-689.368	797.913	0.221	0.612
-688.354	131.799	-0.370	-0.478
-687.339	84.053	0.127	0.140
-686.324	-200.000	0.084	-0.407
-685.310	-97.502	0.419	0.110
-684.295	-128.985	-0.954	0.134
-683.281	756.353	0.187	-0.508
-682.266	-136.384	-0.245	0.029
-681.251	800.000	0.233	0.685
-680.237	311.324	-0.388	-0.732
-679.222	-81.205	-0.281	0.093
-678.208	-14.844	0.380	0.245
-677.193	-26.664	0.662	-0.389
-676.178	800.000	0.106	-0.423
-675.164	30.242	0.471	-0.404
-674.149	-155.606	-0.827	-0.053
-673.135	149.274	-0.593	-0.806
-672.120	-200.000	0.035	-0.232
-671.105	12.400	-0.347	0.268
-670.091	23.282	0.140	0.116
-669.076	-29.925	-0.330	0.189
-668.062	-200.000	0.023	-0.445
-667.047	-42.596	-0.137	-0.070
-666.032	-136.920	0.534	0.062
-665.018	-37.560	-0.779	-0.417
-664.003	-200.000	0.071	0.340
-662.989	63.925	-0.619	-0.625
-661.974	-91.672	0.099	-0.028
-660.959	-21.587	0.463	-0.284
-659.945	455.944	0.095	-0.211
-658.930	6.376	-0.386	-0.288
-657.916	5.066	-0.866	0.640
-656.901	272.989	0.323	0.573
-655.886	-200.000	0.028	0.660
-654.872	800.000	-0.187	0.727
-653.857	-29.279	0.423	0.243
-652.843	-200.000	-0.049	-0.237
-651.828	398.336	0.114	-0.240
-650.814	-200.000	-0.098	-0.569
-649.799	6.624	0.068	-0.051
-648.784	123.055	-0.397	-0.499
-647.770	800.000	0.082	0.271
-646.755	201.382	0.609	-0.942
-645.741	82.798	-0.593	-0.647
-644.726	316.796	-0.346	0.657
-643.711	266.865	0.289	-0.508
-642.697	181.324	0.185	-0.273
-641.682	58.800	-0.627	0.618
-640.668	-141.365	-0.308	0.031
-639.653	-54.455	-0.574	0.261
-638.638	-136.227	-1.239	0.145
-637.624	-200.000	-0.115	-0.968
-636.609	-91.503	0.203	0.058
-635.595	121.041	0.170	0.213
-634.580	-93.371	0.522	0.145
-633.565	99.618	0.319	-0.370
-632.551	-81.743	0.407	-0.134
-631.536	-152.804	0.528	0.038
-630.522	41.253	0.323	0.293
-629.507	3.211	-0.475	-0.347
-628.492	-200.000	0.007	-0.352
-627.478	-200.000	-0.008	-0.615
-626.463	184.929	-0.379	0.564
-625.449	-200.000	0.045	0.661
-624.434	-127.948	-0.934	0.135
-623.419	54.093	0.237	0.229
-622.405	287.584	0.368	-0.667
-621.390	-13.112	0.445	0.290
-620.376	377.969	-0.355	-0.728
-619.361	-121.385	-0.510	0.085
-618.346	-72.973	-0.196	0.072
-617.332	-64.103	-0.482	0.197
-616.317	173.966	0.056	-0.081
-615.303	-200.000	-0.049	-0.278
-614.288	138.756	0.187	0.247
-613.273	-11.813	0.560	-0.369
-612.259	28.924	-0.557	-0.473
-611.244	-94.564	-0.275	-0.075
-610.230	-127.451	-0.309	0.045
-609.215	74.224	0.297	0.313
-608.201	426.072	-0.171	0.369
-607.186	-200.000	0.166	-0.841
-606.171	-200.000	0.001	0.423
-605.157	-114.905	-0.264	0.050
-604.142	-200.000	-0.060	-0.832
-603.128	680.238	-0.085	0.221
-602.113	-34.303	0.471	-0.259
-601.098	101.954	0.813	0.951
-600.084	-63.833	0.148	0.061
-599.069	-100.708	0.142	-0.035
-598.055	282.944	-0.191	0.344
-597.040	-82.090	-0.795	-0.260
-596.025	226.407	-0.331	-0.539
-595.011	-35.968	0.541	0.293
-593.996	-59.593	-0.525	0.226
-592.982	800.000	-0.161	0.524
-591.967	-200.000	-0.045	0.764
-590.952	-46.190	0.481	0.237
-589.938	-172.118	0.376	0.012
-588.923	-56.515	-0.311	-0.138
-587.909	-101.249	-0.327	0.080
-586.894	34.810	-0.358	-0.313
-585.879	-196.676	-0.968	0.006
-584.865	-134.991	0.397	-0.048
-583.850	-200.000	-0.371	-0.002
-582.836	-42.572	0.591	-0.301
-581.821	133.326	-0.543	-0.702
-580.806	436.923	-0.312	0.681
-579.792	-87.208	1.271	-0.387
-578.777	-116.339	-1.029	0.191
-577.763	124.343	-0.457	-0.575
-576.748	137.303	0.385	0.504
-575.733	-200.000	0.063	0.459
-574.719	4.814	-0.666	-0.490
-573.704	-122.500	0.288	0.047
-572.690	-200.000	0.021	0.309
-571.675	-200.000	-0.001	0.354
-570.661	252.081	0.093	-0.159
-569.646	-141.011	0.443	-0.045
-568.631	86.738	0.287	-0.317
-567.617	800.000	-0.325	0.908
-566.602	-200.000	0.113	-0.844
-565.588	217.725	0.391	0.625
-564.573	-94.460	0.257	-0.070
-563.558	800.000	-0.121	-0.515
-562.544	-200.000	0.002	-0.316
-561.529	800.000	0.089	0.257
-560.515	-1.352	0.612	0.432
-559.500	518.673	0.168	0.394
-558.485	-200.000	-0.058	-0.758
-557.471	392.857	-0.425	-0.885
-556.456	-146.172	-0.196	-0.017
-555.442	-103.995	0.366	0.085
-554.427	49.883	0.230	0.217
-553.412	236.198	-0.203	0.335
-552.398	21.000	0.377	-0.306
-551.383	-200.000	-0.031	-0.685
-550.369	-29.433	0.302	0.172
-549.354	343.354	0.217	0.425
-548.339	-9.372	-0.298	-0.199
-547.325	-51.367	-0.508	-0.238
-546.310	-20.102	-0.359	0.222
-545.296	-108.343	0.522	-0.113
-544.281	800.000	0.107	0.423
-543.266	157.804	-0.277	0.383
-542.252	-27.396	-0.437	-0.254
-541.237	-9.279	0.473	0.316
-540.223	-4.399	-0.281	-0.194
-539.208	282.142	0.284	-0.509
-538.193	3.422	-0.555	-0.404
-537.179	-23.754	-0.239	-0.143
-536.164	438.220	0.224	0.488
-535.150	800.000	0.046	0.178
-534.135	-5.899	0.167	-0.114
-533.121	-200.000	-0.082	-0.379
-532.106	215.175	0.303	0.480
-531.091	-154.488	-0.410	0.027
-530.077	141.731	-0.077	0.101
-529.062	449.491	0.213	0.470
-528.048	-133.151	-0.581	0.073
-527.033	-102.631	-0.764	-0.182
-526.018	144.836	0.642	-0.858
-525.004	-29.462	-0.343	0.196
-523.989	155.563	-0.302	-0.415
-522.975	4.755	0.336	0.246
-521.960	-63.915	0.706	0.288
-520.945	271.647	0.516	-0.908
-519.931	32.273	-1.015	-0.875
-518.916	-53.806	-0.709	0.323
-517.902	130.816	-0.315	0.403
-516.887	86.527	0.394	-0.434
-515.872	-43.981	-0.490	-0.246
-514.858	-127.625	0.640	0.093
-513.843	-200.000	0.048	0.280
-512.829	-106.526	0.652	0.145
-511.814	129.559	0.264	0.337
-510.799	290.622	0.112	-0.203
-509.785	-84.092	-0.150	-0.048
-508.770	800.000	-0.318	1.016
-507.756	-97.525	-0.605	0.157
-506.741	83.600	0.541	-0.589
-505.726	-138.341	-0.284	0.031
-504.712	44.853	0.496	-0.455
-503.697	-200.000	0.030	0.376
-502.683	53.499	0.324	-0.310
-501.668	585.360	-0.088	0.215
-500.653	9.397	0.470	0.355
-499.639	-33.613	-0.589	-0.325
-498.624	-41.327	0.317	-0.163
-497.610	-200.000	0.152	-0.765
-496.595	375.966	-0.218	0.444
-495.581	97.365	-0.211	-0.242
-494.566	14.078	0.568	-0.442
-493.551	0.138	-0.107	0.076
-492.537	800.000	0.171	0.477
-491.522	125.348	0.098	0.124
-490.508	-200.000	-0.088	0.462
-489.493	213.658	0.183	0.288
-488.478	-200.000	-0.082	0.607
-487.464	-59.684	-0.935	0.400
-486.449	-142.938	-0.772	0.075
-485.435	-200.000	-0.043	-0.552
-484.420	-84.230	-0.408	-0.129
-483.405	199.456	0.404	0.618
-482.391	-200.000	-0.038	0.402
-481.376	-85.691	-0.209	-0.065
-480.362	-80.655	0.541	0.180
-479.347	641.451	-0.225	0.573
-478.332	257.730	0.283	0.485
-477.318	-200.000	0.206	1.002
-476.303	-109.380	0.537	-0.113
-475.289	800.000	0.114	0.455
-474.274	-83.646	0.343	0.109
-473.259	-191.843	1.119	-0.011
-472.245	-200.000	0.000	-0.041
-471.230	-141.786	-0.838	0.084
-470.216	46.954	-0.283	-0.262
-469.201	-44.270	0.318	-0.159
-468.186	425.205	0.292	0.627
-467.172	194.397	-0.069	0.104
-466.157	291.201	0.189	0.343
-465.143	-39.357	0.632	-0.330
-464.128	-200.000	0.032	-0.627
-463.113	583.346	-0.275	0.674
-462.099	-200.000	0.024	0.201
-461.084	-128.330	-0.593	0.084
-460.070	0.255	0.550	0.391
-459.055	-97.924	0.213	-0.055
-458.040	800.000	0.180	0.564
-457.026	-144.188	-0.372	-0.035
-456.011	428.890	0.118	-0.254
-454.997	-136.767	0.596	-0.068
-453.982	36.750	-0.866	-0.762
-452.968	-39.173	-0.604	0.316
-451.953	-17.289	-0.499	-0.313
-450.938	-166.461	0.615	-0.026
-449.924	10.700	0.338	0.257
-448.909	14.200	-0.769	0.597
-447.895	-50.772	0.255	-0.120
-446.880	-45.307	0.482	0.238
-445.865	60.209	-0.224	0.221
-444.851	25.503	0.146	0.121
-443.836	-14.264	0.398	0.255
-442.822	-200.000	-0.020	0.095
-441.807	137.881	0.180	-0.235
-440.792	40.017	0.408	0.365
-439.778	-200.000	0.034	0.287
-438.763	-49.476	0.678	0.322
-437.749	-200.000	0.081	-0.547
-436.734	-108.457	0.689	-0.148
-435.719	-144.955	-0.539	-0.049
-434.705	-56.304	0.306	0.136
-433.690	105.404	-0.236	-0.278
-432.676	-19.677	-0.917	-0.564
-431.661	-32.364	0.617	0.342
-430.646	346.497	-0.342	-0.669
-429.632	-200.000	-0.019	0.470
-428.617	800.000	0.012	0.045
-427.603	-35.888	1.101	-0.593
-426.588	241.561	-0.532	-0.885
-425.573	-200.000	0.121	-0.613
-424.559	130.862	0.412	0.526
-423.544	-67.746	-0.396	-0.154
-422.530	800.000	-0.114	-0.421
-421.515	800.000	-0.190	-0.664
-420.500	800.000	-0.208	-0.620
-419.486	613.151	0.151	-0.375
-418.471	82.529	-0.267	0.289
-417.457	-148.024	0.671	0.055
-416.442	-8.469	0.075	0.050
-415.428	-138.470	-0.744	-0.081
-414.413	-26.048	0.269	-0.157
-413.398	23.211	-0.349	-0.285
-412.384	-89.787	-0.337	-0.098
-411.369	147.663	-0.464	-0.622
-410.355	44.159	0.257	0.234
-409.340	-71.625	-0.463	-0.172
-408.325	-107.116	0.651	-0.143
-407.311	-121.782	-0.211	-0.035
-406.296	15.465	0.405	0.317
-405.282	-200.000	-0.074	0.378
-404.267	140.370	-0.244	0.320
-403.252	-149.773	0.448	0.035
-402.238	139.182	-0.248	0.324
-401.223	-170.929	1.023	-0.035
-400.209	94.135	0.079	-0.089
-399.194	-24.147	0.548	0.325
-398.179	9.421	0.196	-0.148
-397.165	-20.502	0.137	0.084
-396.150	-200.000	-0.033	0.420
-395.136	-34.373	0.363	0.198
-394.121	130.227	-0.251	0.319
-393.106	307.871	0.335	0.621
-392.092	38.015	0.311	0.275
-391.077	800.000	0.072	-0.201
-390.063	-200.000	-0.017	0.284
-389.048	-107.769	0.368	-0.080
-388.033	-14.006	-0.368	-0.236
-387.019	275.524	-0.147	-0.259
-386.004	-173.223	0.470	-0.014
-384.990	81.439	-0.170	-0.183
-383.975	295.871	0.118	-0.215
-382.960	-109.602	-0.640	-0.134
-381.946	-86.654	-0.690	0.210
-380.931	101.685	0.822	0.953
-379.917	-200.000	0.112	-0.511
-378.902	294.958	-0.278	-0.504
-377.888	-200.000	0.075	0.458
-376.873	-147.829	-0.252	0.021
-375.858	-200.000	-0.014	0.587
-374.844	-200.000	-0.035	0.166
-373.829	-40.426	-0.485	0.250
-372.815	-52.247	-0.882	0.406
-371.800	-200.000	-0.043	0.692
-370.785	-200.000	0.028	0.368
-369.771	110.229	-0.389	-0.463
-368.756	-52.943	-0.404	0.185
-367.742	-5.394	-0.255	0.174
-366.727	800.000	-0.192	-0.832
-365.712	-200.000	0.012	-0.287
-364.698	-76.779	0.237	-0.082
-363.683	-200.000	0.085	-0.510
-362.669	-172.900	-0.220	0.007
-361.654	-200.000	-0.055	0.263
-360.639	187.757	0.047	-0.070
-359.625	80.901	-0.505	-0.540
-358.610	-187.564	-0.810	-0.011
-357.596	-47.722	-0.314	0.151
-356.581	-22.636	0.150	-0.090
-355.566	101.040	0.285	-0.329
-354.552	188.612	-0.178	0.264
-353.537	200.275	0.098	-0.150
-352.523	32.666	-0.242	-0.208
-351.508	178.009	-0.220	0.318
-350.493	-200.000	0.133	1.123
-349.479	-200.000	-0.001	0.122
-348.464	9.181	0.276	-0.207
-347.450	167.383	-0.271	-0.382
-346.435	-108.127	0.523	0.112
-345.420	-200.000	-0.055	-0.247
-344.406	-200.000	0.019	0.345
-343.391	-7.085	-0.346	0.233
-342.377	471.094	-0.113	-0.253
-341.362	290.768	0.554	-1.000
-340.348	-70.751	-0.485	0.182
-339.333	-86.821	-0.556	0.168
-338.318	-51.647	0.906	-0.419
-337.304	-176.191	0.980	-0.026
-336.289	-133.956	0.390	-0.048
-335.275	-108.588	-1.128	-0.240
-334.260	800.000	0.079	-0.293
-333.245	10.841	0.238	0.181
-332.231	-200.000	0.135	0.942
-331.216	260.377	-0.523	0.897
-330.202	11.480	1.242	0.944
-329.187	251.914	-0.593	-1.001
-328.172	569.408	-0.233	0.562
-327.158	136.350	0.178	0.230
-326.143	-70.597	-0.501	0.188
-325.129	-119.728	0.170	0.029
-324.114	353.410	0.356	-0.700
-323.099	-200.000	0.001	-0.197
-322.085	109.304	-0.520	0.617
-321.070	-106.076	0.571	-0.127
-320.056	-95.585	-0.288	0.077
-319.041	-57.649	0.649	0.282
-318.026	-132.506	0.687	0.088
-317.012	-32.858	-0.148	-0.082
-315.997	517.226	0.197	-0.457
-314.983	800.000	0.111	-0.345
-313.968	161.848	-0.291	-0.404
-312.953	481.266	-0.308	-0.692
-311.939	233.972	-0.221	0.360
-310.924	101.377	-0.528	0.610
-309.910	303.976	-0.212	0.389
-308.895	-190.199	1.029	-0.011
-307.880	-97.828	-0.265	0.068
-306.866	800.000	0.160	-0.530
-305.851	-33.079	-0.529	-0.290
-304.837	-200.000	-0.043	-0.261
-303.822	110.761	0.524	0.624
-302.807	-67.844	-0.493	-0.191
-301.793	106.023	-0.340	-0.399
-300.778	-71.541	-0.457	0.169
-299.764	-118.629	-0.171	-0.030
-298.749	38.159	-0.273	-0.240
-297.735	-200.000	-0.013	-0.742
-296.720	800.000	-0.053	-0.190
-295.705	-200.000	0.004	0.064
-294.691	-5.062	0.440	0.300
-293.676	-134.971	0.135	0.016
-292.662	-25.337	0.892	0.522
-291.647	-148.026	-0.221	-0.018
-290.632	-135.536	0.636	0.075
-289.618	800.000	0.106	-0.402
-288.603	609.676	0.232	-0.573
-287.589	-200.000	0.202	-0.960
-286.574	-71.228	0.447	0.166
-285.559	-11.451	0.252	-0.164
-284.545	-79.925	-0.264	0.088
-283.530	66.501	0.152	0.153
-282.516	59.905	0.482	-0.471
-281.501	-33.197	0.339	0.186
-280.486	-14.912	-0.249	-0.158
-279.472	-61.281	-0.752	0.313
-278.457	549.007	0.292	-0.691
-277.443	-87.861	-1.086	0.323
-276.428	-200.000	0.113	-0.966
-275.413	71.353	-0.312	0.320
-274.399	346.818	-0.108	-0.211
-273.384	157.432	0.298	0.408
-272.370	-200.000	0.036	0.417
-271.355	50.582	0.936	-0.876
-270.340	-47.620	-1.023	-0.491
-269.326	-200.000	0.040	0.374
-268.311	-6.361	-0.294	0.198
-267.297	-89.085	-0.775	-0.227
-266.282	122.582	-0.085	0.105
-265.267	-40.557	0.237	0.122
-264.253	-100.344	-0.557	0.137
-263.238	800.000	-0.116	0.385
-262.224	142.806	0.236	0.310
-261.209	-200.000	-0.042	0.649
-260.195	-98.847	0.276	0.069
-259.180	25.249	0.429	-0.352
-258.165	-164.109	0.335	0.015
-257.151	-200.000	0.134	-0.786
-256.136	-72.323	0.714	0.261
-255.122	-200.000	-0.254	-1.269
-254.107	-144.521	0.440	0.040
-253.092	800.000	0.257	-0.785
-252.078	-51.833	0.820	0.377
-251.063	327.758	0.599	1.137
-250.049	414.958	-0.151	0.317
-249.034	68.741	-0.245	0.249
-248.019	-70.427	-0.131	-0.049
-247.005	2.732	-0.749	0.537
-245.990	-71.822	0.807	0.297
-244.976	59.042	0.219	0.213
-243.961	11.564	0.410	0.310
-242.946	-1.858	0.729	0.507
-241.932	-5.416	0.363	0.246
-240.917	75.838	-0.495	-0.517
-239.903	47.220	0.587	0.540
-238.888	213.599	-0.349	0.546
-237.873	46.510	-0.643	-0.589
-236.859	248.173	0.179	0.299
-235.844	-136.168	-0.199	0.023
-234.830	-113.067	-0.063	0.012
-233.815	-20.144	-0.585	-0.356
-232.800	-173.058	-0.304	-0.009
-231.786	55.161	-0.411	-0.393
-230.771	167.345	-0.292	0.410
-229.757	26.542	-0.300	-0.248
-228.742	88.549	-0.323	-0.354
-227.727	345.752	-0.074	-0.144
-226.713	-140.490	0.860	0.088
-225.698	800.000	-0.293	0.866
-224.684	558.537	-0.287	0.683
-223.669	-93.517	0.686	-0.187
-222.655	37.671	-0.121	0.106
-221.640	-0.750	0.207	0.145
-220.625	-200.000	0.136	-0.597
-219.611	434.358	0.084	-0.179
-218.596	800.000	0.063	-0.266
-217.582	-130.125	-0.196	-0.026
-216.567	-94.895	0.680	0.182
-215.552	129.051	-0.443	-0.558
-214.538	-8.805	0.428	0.283
-213.523	-200.000	-0.057	-0.462
-212.509	-113.424	-0.786	0.152
-211.494	-85.725	-0.729	-0.223
-210.479	48.720	-0.100	0.093
-209.465	201.315	-0.172	-0.261
-208.450	800.000	-0.146	0.534
-207.436	-1.025	-0.643	0.449
-206.421	3.593	0.287	-0.206
-205.406	-50.269	0.191	-0.089
-204.392	-14.679	-0.318	-0.201
-203.377	457.331	-0.212	-0.464
-202.363	-138.234	-0.975	-0.107
-201.348	290.677	0.337	-0.605
-200.333	250.570	-0.087	-0.145
-199.319	-140.088	-0.611	0.063
-198.304	97.250	-0.345	-0.391
-197.290	379.086	0.398	-0.804
-196.275	88.605	0.256	-0.280
-195.260	520.260	0.236	0.545
-194.246	-13.471	-0.336	-0.215
-193.231	800.000	-0.337	1.016
-192.217	-109.431	0.401	0.084
-191.202	-108.720	0.885	-0.187
-190.187	-14.619	0.208	-0.132
-189.173	-131.555	0.772	0.100
-188.158	-13.573	-0.452	0.288
-187.144	12.620	0.268	-0.204
-186.129	-108.442	0.057	0.012
-185.114	-200.000	-0.270	1.291
-184.100	-80.201	-0.754	-0.249
-183.085	-200.000	-0.022	-0.676
-182.071	-120.538	0.370	-0.062
-181.056	-200.000	0.124	0.719
-180.042	52.646	0.809	0.761
-179.027	17.188	-0.436	-0.341
-178.012	195.816	-0.275	0.413
-176.998	-91.399	0.356	-0.100
-175.983	-143.014	0.438	-0.042
-174.969	110.790	0.398	0.472
-173.954	-126.370	-0.231	0.034
-172.939	-163.743	0.649	0.030
-171.925	680.128	0.092	0.237
-170.910	800.000	-0.114	0.457
-169.896	-200.000	0.105	-0.869
-168.881	-85.288	-0.294	0.090
-167.866	99.068	-0.258	-0.293
-166.852	-200.000	-0.045	-0.246
-165.837	29.228	-0.136	0.113
-164.823	-13.254	-0.501	0.321
-163.808	-200.000	0.029	0.434
-162.793	800.000	0.170	-0.532
-161.779	-120.251	-0.396	0.067
-160.764	-0.339	0.797	-0.558
-159.750	-112.610	0.803	-0.157
-158.735	-11.759	0.101	0.065
-157.720	-131.616	-0.610	-0.079
-156.706	-200.000	0.051	0.781
-155.691	-200.000	-0.008	-0.862
-154.677	130.814	-0.231	0.292
-153.662	-200.000	-0.110	-0.825
-152.647	-27.050	0.413	0.237
-151.633	-200.000	0.083	-0.387
-150.618	-0.660	0.330	-0.230
-149.604	679.502	0.182	0.465
-148.589	20.769	0.735	0.586
-147.574	385.443	-0.395	-0.803
-146.560	398.486	0.172	-0.353
-145.545	800.000	-0.107	0.326
-144.531	-200.000	0.031	0.963
-143.516	138.217	0.428	-0.552
-142.502	230.102	0.449	-0.722
-141.487	42.601	0.723	-0.647
-140.472	246.806	-0.201	-0.334
-139.458	-200.000	-0.052	-0.304
-138.443	589.032	-0.439	-1.063
-137.429	-142.077	0.372	0.036
-136.414	-48.233	-1.006	-0.478
-135.399	-122.157	0.582	0.094
-134.385	13.486	0.616	-0.470
-133.370	322.598	0.169	0.318
-132.356	-99.809	-0.396	-0.098
-131.341	-192.752	-0.606	-0.005
-130.326	-58.907	1.020	0.434
-129.312	191.119	-0.642	-0.950
-128.297	-116.203	-0.710	0.130
-127.283	-0.222	-0.424	0.296
-126.268	-39.609	0.657	0.338
-125.253	518.713	0.287	-0.662
-124.239	-124.323	0.276	-0.042
-123.224	-11.567	-0.685	-0.443
-122.210	40.723	-0.588	-0.522
-121.195	-70.070	-0.540	-0.202
-120.180	800.000	-0.237	-0.805
-119.166	-74.405	0.760	-0.270
-118.151	-47.453	-0.320	-0.153
-117.137	123.545	-0.260	0.321
-116.122	-200.000	-0.104	0.895
-115.107	-200.000	0.028	-0.227
-114.093	380.264	-0.593	1.195
-113.078	-170.911	0.861	-0.029
-112.064	800.000	0.259	-1.007
-111.049	-73.780	0.564	-0.202
-110.034	-189.338	-1.389	-0.016
-109.020	130.303	-0.113	-0.142
-108.005	800.000	-0.249	0.779
-106.991	159.121	-0.419	-0.572
-105.976	6.320	0.181	-0.132
-104.962	284.854	-0.153	-0.270
-103.947	141.197	0.086	0.112
-102.932	-111.414	0.451	0.090
-101.918	-200.000	-0.068	0.488
-100.903	-162.720	0.576	-0.028
-99.889	-25.313	0.263	0.153
-98.874	37.430	-0.049	-0.042
-97.859	800.000	-0.075	0.228
-96.845	-93.371	-0.630	-0.172
-95.830	208.004	-0.344	-0.527
-94.816	609.287	-0.060	0.147
-93.801	-56.368	-0.593	0.259
-92.786	117.874	0.224	0.271
-91.772	-200.000	-0.004	-0.136
-90.757	2.876	-0.783	0.558
-89.743	-2.072	-0.204	0.141
-88.728	628.323	0.362	0.898
-87.713	-28.928	0.625	0.353
-86.699	-200.000	-0.013	0.094
-85.684	563.221	0.171	-0.406
-84.670	195.185	-0.493	-0.735
-83.655	0.018	0.590	-0.413
-82.640	217.659	-0.231	0.362
-81.626	29.558	0.632	0.528
-80.611	55.686	-0.218	-0.207
-79.597	-200.000	-0.009	-0.338
-78.582	-74.413	0.313	0.111
-77.567	-200.000	-0.093	0.907
-76.553	785.903	-0.116	-0.314
-75.538	-18.945	0.048	0.030
-74.524	224.907	0.177	0.282
-73.509	18.964	-0.175	-0.137
-72.494	-38.095	0.278	0.145
-71.480	77.586	-0.865	-0.904
-70.465	-7.737	-0.695	-0.461
-69.451	-95.317	0.761	0.201
-68.436	42.845	-0.529	0.473
-67.422	-200.000	-0.038	-0.798
-66.407	-200.000	-0.004	-0.065
-65.392	54.639	0.240	-0.227
-64.378	800.000	0.108	0.346
-63.363	548.808	0.274	-0.645
-62.349	281.742	-0.189	-0.332
-61.334	-22.546	-1.564	-0.928
-60.319	-54.028	1.079	0.482
-59.305	-200.000	-0.072	-0.785
-58.290	-200.000	0.317	1.672
-57.276	468.005	0.834	1.835
-56.261	-200.000	98.746	606.077
-55.246	622.085	1378.373	3403.268
-54.232	198.654	2558.525	3841.120
-53.217	111.122	2251.031	2659.418
-52.203	40.935	1881.721	1665.789
-51.188	35.038	1673.571	1437.354
-50.173	32.370	1629.562	1379.960
-49.159	51.174	1680.587	1563.642
-48.144	51.447	1698.426	1582.212
-47.130	34.544	1656.784	1419.038
-46.115	31.759	1641.968	1385.730
-45.100	31.694	1638.369	1382.154
-44.086	31.493	1634.793	1377.607
-43.071	31.694	1631.589	1376.329
-42.057	31.681	1630.696	1375.425
-41.042	31.726	1627.269	1372.808
-40.027	31.349	1626.582	1369.410
-39.013	31.761	1624.670	1370.766
-37.998	31.678	1622.490	1368.265
-36.984	31.654	1621.148	1366.901
-35.969	31.895	1619.231	1366.991
-34.954	31.755	1618.084	1364.945
-33.940	31.553	1616.848	1362.375
-32.925	31.677	1615.203	1361.838
-31.911	31.771	1612.255	1359.983
-30.896	31.764	1610.802	1358.650
-29.881	31.674	1609.357	1356.727
-28.867	31.714	1607.683	1355.552
-27.852	31.634	1605.900	1353.418
-26.838	31.654	1605.996	1353.591
-25.823	31.503	1604.417	1351.110
-24.809	31.540	1602.896	1350.043
-23.794	31.712	1600.173	1348.941
-22.779	31.712	1599.793	1348.564
-21.765	31.675	1598.128	1346.840
-20.750	31.896	1595.966	1346.550
-19.736	31.802	1595.063	1345.062
-18.721	31.735	1593.734	1343.410
-17.706	31.706	1592.539	1342.136
-16.692	31.684	1590.770	1340.438
-15.677	31.736	1589.412	1339.610
-14.663	31.489	1589.359	1337.749
-13.648	31.692	1586.245	1336.523
-12.633	31.802	1584.308	1335.621
-11.619	31.674	1583.966	1334.370
-10.604	31.669	1581.926	1332.561
-9.590	31.536	1581.615	1331.299
-8.575	31.679	1580.185	1331.063
-7.560	31.857	1578.536	1330.882
-6.546	31.734	1577.048	1328.702
-5.531	31.585	1576.647	1327.257
-4.517	31.823	1574.010	1326.670
-3.502	31.892	1573.782	1326.907
-2.487	31.807	1572.599	1325.263
-1.473	31.186	1561.098	1311.151
-0.458	28.547	1542.213	1276.903
0.556	26.239	1542.679	1245.577
1.571	23.865	1564.742	1246.654
2.586	23.181	1577.861	1252.155
3.600	20.667	1524.790	1192.720
4.615	12.061	1417.133	1053.343
5.629	4.852	1353.221	961.380
6.644	3.444	1346.632	947.963
7.659	3.467	1344.349	946.413
8.673	3.507	1343.179	945.750
9.688	3.382	1341.856	943.967
10.702	3.206	1338.308	940.317
11.717	6.634	1344.764	965.782
12.731	15.610	1361.273	1032.957
13.746	22.703	1374.287	1086.598
14.761	24.250	1375.898	1097.308
15.775	24.251	1374.692	1096.254
16.790	23.959	1372.608	1092.701
17.804	23.386	1371.741	1088.398
18.819	23.371	1370.519	1087.242
19.834	23.378	1370.018	1086.792
20.848	23.273	1369.141	1085.352
21.863	23.499	1369.548	1086.969
22.877	23.472	1367.532	1085.107
23.892	23.501	1367.044	1084.800
24.907	23.382	1366.019	1083.163
25.921	23.386	1364.615	1081.978
26.936	23.225	1363.961	1080.381
27.950	23.267	1363.303	1080.020
28.965	23.554	1362.238	1080.832
29.980	23.387	1361.114	1078.824
30.994	23.486	1360.495	1078.845
32.009	23.644	1358.968	1078.494
33.023	23.635	1357.981	1077.562
34.038	23.652	1357.375	1077.092
35.053	23.494	1356.098	1075.024
36.067	23.447	1354.951	1073.732
37.082	23.359	1353.181	1071.706
38.096	23.421	1352.594	1071.520
39.111	23.401	1353.732	1072.206
40.126	23.472	1351.525	1070.793
41.140	23.289	1350.237	1068.571
42.155	23.048	1349.911	1066.767
43.169	22.838	1349.704	1065.239
44.184	22.947	1349.665	1065.774
45.199	22.885	1350.489	1065.957
46.213	23.033	1348.979	1065.563
47.228	23.185	1349.018	1066.414
48.242	23.321	1347.172	1065.679
49.257	23.321	1345.918	1064.595
50.271	23.263	1344.762	1063.236
51.286	23.506	1342.843	1063.080
52.301	23.424	1341.802	1061.670
53.315	23.481	1340.539	1060.917
54.330	23.354	1339.868	1059.537
55.344	23.020	1338.906	1056.684
56.359	23.319	1337.170	1057.008
57.374	23.419	1336.769	1057.192
58.388	23.218	1335.419	1054.831
59.403	23.079	1335.536	1054.004
60.417	22.715	1334.323	1050.787
61.432	22.968	1333.205	1051.317
62.447	22.535	1334.029	1049.294
63.461	22.807	1332.565	1049.669
64.476	22.660	1331.412	1047.796
65.490	22.867	1330.430	1048.156
66.505	22.884	1327.730	1046.037
67.520	23.202	1326.052	1046.504
68.534	22.701	1326.994	1044.191
69.549	22.680	1325.636	1042.904
70.563	22.675	1324.220	1041.668
71.578	22.368	1323.609	1039.283
72.593	22.653	1321.872	1039.508
73.607	22.400	1321.844	1037.904
74.622	22.442	1321.859	1038.072
75.636	22.657	1320.972	1038.549
76.651	22.582	1320.036	1037.282
77.666	22.580	1319.959	1037.118
78.680	22.690	1318.106	1036.217
79.695	22.720	1318.379	1036.513
80.709	22.953	1317.324	1036.957
81.724	22.916	1317.527	1036.808
82.739	23.090	1316.421	1036.871
83.753	23.308	1315.677	1037.467
84.768	23.487	1315.253	1038.091
85.782	23.598	1313.857	1037.543
86.797	23.390	1314.008	1036.358
87.812	23.441	1311.825	1034.839
88.826	23.532	1310.771	1034.450
89.841	23.335	1310.639	1033.105
90.855	23.692	1308.464	1033.376
91.870	23.838	1307.461	1033.343
92.884	23.623	1308.804	1033.057
93.899	23.800	1306.881	1032.478
94.914	23.798	1304.993	1030.882
95.928	23.712	1305.492	1030.688
96.943	23.618	1304.687	1029.414
97.957	23.633	1302.908	1028.011
98.972	23.707	1302.496	1028.023
99.987	23.716	1301.185	1026.948
101.001	23.760	1300.144	1026.289
102.016	23.666	1299.542	1025.180
103.030	23.459	1298.522	1023.089
104.045	23.321	1298.478	1022.167
105.060	23.098	1297.914	1020.347
106.074	23.192	1294.947	1018.464
107.089	22.820	1294.282	1015.716
108.103	22.843	1292.078	1014.027
109.118	22.686	1290.897	1012.107
110.133	22.468	1291.147	1010.964
111.147	22.760	1287.990	1010.077
112.162	22.698	1287.636	1009.352
113.176	22.950	1286.479	1009.798
114.191	22.748	1287.161	1009.085
115.206	23.175	1284.343	1009.227
116.220	23.155	1283.012	1007.977
117.235	22.925	1282.656	1006.297
118.249	22.748	1281.313	1004.146
119.264	22.639	1280.677	1002.941
120.279	22.715	1280.309	1002.993
121.293	22.550	1279.799	1001.567
122.308	22.391	1278.580	999.623
123.322	22.325	1277.303	998.163
124.337	22.326	1275.878	996.968
125.352	22.505	1274.460	996.785
126.366	22.417	1273.623	995.545
127.381	22.385	1273.357	995.068
128.395	22.263	1272.621	993.715
129.410	21.945	1272.067	991.398
130.424	22.194	1270.655	991.613
131.439	22.466	1269.859	992.435
132.454	22.820	1268.806	993.522
133.468	22.920	1268.843	994.021
134.483	23.028	1268.283	994.104
135.497	22.790	1267.090	991.744
136.512	23.092	1265.621	992.200
137.527	22.959	1264.590	990.560
138.541	23.058	1263.386	990.080
139.556	22.978	1263.134	989.351
140.570	23.034	1263.054	989.510
141.585	23.157	1260.557	988.155
142.600	23.450	1260.112	989.353
143.614	23.425	1260.412	989.364
144.629	23.561	1259.434	989.267
145.643	23.412	1258.298	987.457
146.658	23.279	1256.285	985.050
147.673	23.354	1255.077	984.433
148.687	23.299	1253.457	982.771
149.702	22.838	1252.500	979.378
150.716	22.579	1251.131	976.785
151.731	22.738	1249.580	976.368
152.746	22.768	1248.597	975.677
153.760	23.042	1248.284	976.861
154.775	22.979	1248.193	976.353
155.789	23.155	1246.960	976.277
156.804	23.105	1246.313	975.408
157.819	23.194	1244.790	974.616
158.833	23.204	1244.207	974.133
159.848	23.459	1243.028	974.521
160.862	23.454	1241.510	973.220
161.877	22.844	1241.186	969.533
162.892	22.612	1240.405	967.563
163.906	22.985	1237.728	967.432
164.921	22.782	1237.868	966.343
165.935	22.876	1238.083	966.939
166.950	23.444	1236.398	968.641
167.964	23.169	1236.043	966.776
168.979	23.003	1235.820	965.610
169.994	22.807	1235.433	964.154
171.008	22.653	1235.013	962.896
172.023	22.853	1234.335	963.377
173.037	23.121	1234.010	964.500
174.052	23.256	1232.708	964.128
175.067	23.088	1230.407	961.332
176.081	22.584	1230.210	958.351
177.096	22.741	1229.461	958.540
178.110	23.228	1226.691	958.933
179.125	22.751	1227.498	956.893
180.140	23.083	1226.570	957.885
181.154	23.190	1225.770	957.751
182.169	23.432	1223.937	957.545
183.183	23.361	1223.292	956.573
184.198	23.350	1222.117	955.509
185.213	23.353	1220.809	954.416
186.227	23.335	1219.768	953.424
187.242	23.554	1218.787	953.747
188.256	23.573	1218.633	953.644
189.271	23.422	1218.604	952.727
190.286	23.505	1217.221	952.005
191.300	23.159	1215.019	948.343
192.315	23.103	1214.961	947.914
193.329	22.955	1214.917	947.004
194.344	23.139	1213.066	946.464
195.359	22.826	1212.720	944.434
196.373	22.875	1212.133	944.159
197.388	22.789	1212.059	943.556
198.402	23.100	1212.813	945.720
199.417	23.396	1212.963	947.338
200.432	23.373	1212.928	947.103
201.446	23.694	1210.947	947.188
202.461	23.581	1210.122	945.856
203.475	23.666	1209.256	945.549
204.490	23.434	1208.128	943.345
205.504	23.213	1207.234	941.390
206.519	22.956	1205.149	938.314
207.534	23.132	1203.827	938.138
208.548	23.107	1203.266	937.482
209.563	22.921	1202.620	935.910
210.577	22.773	1201.970	934.542
211.592	23.179	1200.805	935.697
212.607	23.630	1200.043	937.404
213.621	23.393	1200.518	936.443
214.636	23.283	1199.054	934.634
215.650	23.450	1198.422	934.941
216.665	23.615	1197.330	934.875
217.680	23.659	1196.910	934.696
218.694	23.870	1195.240	934.420
219.709	23.578	1196.099	933.470
220.723	23.383	1195.164	931.632
221.738	23.570	1193.114	930.937
222.753	23.390	1192.480	929.415
223.767	23.134	1192.973	928.371
224.782	23.596	1192.116	930.044
225.796	23.901	1191.561	931.126
226.811	23.604	1190.517	928.678
227.826	23.470	1190.402	927.802
228.840	23.392	1189.554	926.653
229.855	23.516	1187.587	925.687
230.869	23.497	1187.549	925.475
231.884	23.273	1186.784	923.628
232.899	23.012	1186.220	921.748
233.913	23.014	1184.405	920.267
234.928	22.999	1184.000	919.790
235.942	23.006	1182.681	918.722
236.957	22.807	1182.488	917.455
237.972	22.734	1181.461	916.198
238.986	23.010	1180.748	916.997
240.001	23.173	1180.382	917.478
241.015	22.958	1179.266	915.415
242.030	22.971	1179.041	915.228
243.045	23.119	1178.520	915.504
244.059	23.319	1176.718	915.059
245.074	23.506	1177.082	916.230
246.088	23.461	1176.879	915.756
247.103	23.657	1175.584	915.680
248.117	23.517	1175.778	915.027
249.132	23.869	1175.359	916.436
250.147	24.229	1174.432	917.485
251.161	24.378	1173.179	917.189
252.176	24.132	1173.440	916.047
253.190	24.267	1173.265	916.526
254.205	24.252	1173.233	916.340
255.220	24.771	1171.905	917.884
256.234	24.648	1171.511	916.866
257.249	24.303	1171.687	915.154
258.263	24.338	1170.050	913.970
259.278	24.479	1169.063	913.841
260.293	24.320	1169.209	913.060
261.307	24.594	1167.820	913.297
262.322	24.640	1167.985	913.578
263.336	24.529	1166.915	912.096
264.351	24.435	1167.099	911.676
265.366	24.487	1165.610	910.699
266.380	24.541	1164.846	910.297
267.395	24.613	1163.230	909.318
268.409	24.142	1163.779	907.269
269.424	24.202	1162.261	906.314
270.439	24.180	1162.898	906.614
271.453	24.119	1161.569	905.192
272.468	23.928	1160.332	903.178
273.482	23.838	1159.514	902.001
274.497	23.853	1159.201	901.758
275.512	23.787	1158.729	900.972
276.526	23.857	1158.318	900.930
277.541	24.101	1156.672	900.803
278.555	23.820	1157.055	899.603
279.570	24.331	1156.203	901.441
280.585	24.442	1154.230	900.386
281.599	24.370	1154.204	899.920
282.614	24.342	1152.439	898.323
283.628	24.120	1150.796	895.847
284.643	23.633	1151.802	894.100
285.657	23.948	1149.966	894.180
286.672	23.979	1149.163	893.633
287.687	24.164	1147.810	893.430
288.701	24.043	1147.674	892.634
289.716	24.090	1147.818	892.904
290.730	24.073	1146.254	891.523
291.745	24.129	1145.607	891.223
292.760	24.012	1145.801	890.710
293.774	24.100	1145.354	890.721
294.789	24.544	1143.485	891.407
295.803	24.508	1144.419	891.875
296.818	24.175	1143.324	889.283
297.833	24.147	1141.373	887.544
298.847	24.091	1140.785	886.729
299.862	23.956	1140.706	885.918
300.876	24.071	1139.620	885.570
301.891	24.305	1139.700	886.719
302.906	24.313	1139.087	886.199
303.920	24.455	1138.501	886.374
304.935	24.690	1138.541	887.490
305.949	24.506	1138.086	886.148
306.964	24.796	1136.795	886.500
307.979	24.272	1136.464	883.564
308.993	24.647	1134.855	884.095
310.008	24.481	1133.481	882.124
311.022	24.778	1132.981	883.123
312.037	24.746	1132.435	882.460
313.052	24.172	1132.312	879.457
314.066	24.282	1130.540	878.545
315.081	23.894	1129.721	875.918
316.095	23.609	1129.618	874.354
317.110	23.923	1127.923	874.510
318.125	23.924	1127.045	873.758
319.139	24.036	1126.500	873.809
320.154	23.759	1126.700	872.524
321.168	23.813	1125.752	871.979
322.183	23.907	1124.123	871.102
323.197	23.906	1123.678	870.674
324.212	24.042	1123.946	871.471
325.227	24.199	1123.840	872.083
326.241	23.990	1123.169	870.461
327.256	23.837	1121.663	868.469
328.270	23.876	1120.885	867.978
329.285	23.834	1120.728	867.575
330.300	24.116	1119.161	867.661
331.314	24.000	1118.272	866.331
332.329	23.788	1117.786	864.846
333.343	24.199	1116.387	865.685
334.358	24.146	1116.606	865.518
335.373	24.654	1115.221	866.834
336.387	24.415	1114.743	865.228
337.402	24.337	1115.163	865.096
338.416	24.603	1114.500	865.797
339.431	24.592	1113.803	865.125
340.446	24.766	1112.533	864.902
341.460	25.212	1112.714	867.121
342.475	25.125	1112.520	866.474
343.489	25.114	1110.831	865.031
344.504	24.953	1110.860	864.199
345.519	25.277	1108.953	864.198
346.533	25.184	1108.802	863.557
347.548	25.089	1108.148	862.515
348.562	25.273	1106.396	861.957
349.577	24.802	1106.339	859.575
350.592	24.445	1105.235	856.927
351.606	24.243	1104.704	855.472
352.621	24.177	1103.704	854.303
353.635	24.018	1102.726	852.708
354.650	24.021	1101.582	851.765
355.665	24.245	1101.836	852.958
356.679	24.351	1100.829	852.608
357.694	24.635	1101.000	854.025
358.708	24.343	1100.633	852.268
359.723	24.474	1099.731	852.119
360.738	24.846	1097.801	852.322
361.752	24.671	1097.758	851.378
362.767	24.681	1097.208	850.923
363.781	24.598	1096.716	850.072
364.796	24.813	1096.190	850.613
365.810	25.208	1096.187	852.413
366.825	25.435	1095.583	852.943
367.840	25.340	1095.229	852.143
368.854	25.527	1095.083	852.841
369.869	25.591	1093.370	851.733
370.883	25.260	1092.485	849.401
371.898	24.952	1091.621	847.200
372.913	24.932	1091.706	847.093
373.927	25.030	1090.930	846.882
374.942	25.072	1091.423	847.388
375.956	25.213	1089.910	846.806
376.971	24.810	1090.083	844.962
377.986	25.128	1089.763	846.138
379.000	25.308	1088.599	846.007
380.015	25.572	1088.538	847.131
381.029	25.530	1088.085	846.503
382.044	25.708	1086.636	846.140
383.059	25.391	1086.658	844.592
384.073	25.575	1086.004	844.875
385.088	25.538	1085.388	844.146
386.102	25.439	1084.021	842.542
387.117	25.239	1082.537	840.378
388.132	24.743	1081.541	837.208
389.146	25.079	1079.882	837.420
390.161	24.805	1079.490	835.765
391.175	24.744	1079.218	835.193
392.190	24.912	1079.205	835.896
393.205	25.464	1077.665	837.201
394.219	25.375	1078.261	837.177
395.234	24.915	1076.955	833.944
396.248	24.774	1075.667	832.216
397.263	24.660	1074.706	830.870
398.278	24.865	1073.223	830.604
399.292	25.035	1072.624	830.855
400.307	25.010	1071.993	830.172
401.321	24.911	1071.076	828.933
402.336	24.581	1070.417	826.824
403.350	24.777	1069.508	826.953
404.365	25.031	1069.577	828.110
405.380	24.935	1069.138	827.252
406.394	24.913	1068.114	826.285
407.409	25.122	1067.641	826.810
408.423	25.374	1067.460	827.759
409.438	25.770	1066.459	828.731
410.453	25.594	1066.272	827.700
411.467	25.219	1065.628	825.405
412.482	25.421	1065.028	825.795
413.496	25.641	1064.896	826.631
414.511	25.563	1064.333	825.764
415.526	25.965	1062.698	826.261
416.540	25.875	1063.515	826.412
417.555	25.648	1063.358	825.175
418.569	25.904	1062.551	825.649
419.584	25.677	1062.201	824.267
420.599	25.788	1060.150	823.110
421.613	154.361	1402.956	1794.340
422.628	141.889	1452.969	1794.447
