DTS Sentinel unit serial number:	SN413079Multiplexer serial number:	ORYXHardware model number:	OX4-SRSoftware version number:	ORYX F/W v4.00 Oryx Data Collector v3.7.2.0data status	okinstallation	princeton_trtdifferential loss correction	single-endedforward channel	channel 2reverse channel	N/Adate	2019/09/17time	04:07:35forward acquisition time	60.00reverse acquisition time	0.00gamma	496.2192k internal	0.2327k external	0.2327temperature offset calibration	0.9973default loss term (dB/km)	0.3790temperature slope calibration	1.0000multiplexer offset coefficient	1.0000multiplexer slope coefficient	1.0000fibre end	0.00T internal ref (°C)	29.87T ext. ref 1 (°C)	0.13T ext. ref 2 (°C)	24.32length (m)	temperature (°C)	Stokes	anti-Stokes-747.200	-8.510	-0.134	0.091
-746.185	482.181	-0.068	0.156
-745.171	224.760	-0.186	0.303
-744.156	83.987	0.224	0.247
-743.142	-24.703	-0.199	-0.119
-742.127	-200.000	0.085	0.430
-741.112	-20.436	-0.233	0.145
-740.098	-154.107	0.167	0.011
-739.083	800.000	-0.067	-0.277
-738.069	-29.036	-0.170	0.098
-737.054	125.953	0.078	0.100
-736.039	220.272	-0.159	-0.256
-735.025	-25.398	0.342	-0.204
-734.010	-200.000	-0.032	0.214
-732.996	800.000	0.078	-0.313
-731.981	45.521	0.259	0.241
-730.966	233.648	-0.115	-0.191
-729.952	-200.000	-0.032	-0.362
-728.937	85.621	-0.077	-0.085
-727.923	-153.427	-0.110	-0.008
-726.908	-200.000	0.006	0.141
-725.894	-96.813	-0.090	0.024
-724.879	73.757	-0.238	-0.251
-723.864	-200.000	-0.061	0.281
-722.850	-58.391	0.134	-0.059
-721.835	29.553	-0.082	-0.070
-720.821	-142.128	0.037	0.004
-719.806	-90.779	-0.215	-0.062
-718.791	-168.241	-0.140	-0.005
-717.777	128.630	-0.202	0.259
-716.762	-200.000	-0.038	0.218
-715.748	-117.164	-0.188	-0.034
-714.733	-200.000	-0.011	-0.134
-713.718	-49.217	-0.180	0.086
-712.704	800.000	-0.017	0.055
-711.689	120.773	0.116	-0.145
-710.675	800.000	-0.063	-0.180
-709.660	-59.594	-0.047	-0.020
-708.645	-200.000	0.036	0.191
-707.631	119.009	0.078	-0.097
-706.616	-200.000	-0.003	-0.257
-705.602	-16.323	-0.281	-0.180
-704.587	-200.000	0.020	-0.166
-703.572	65.498	-0.087	0.089
-702.558	-154.651	-0.430	0.029
-701.543	158.339	-0.123	-0.171
-700.529	-200.000	-0.010	-0.607
-699.514	12.654	0.061	0.047
-698.499	95.728	0.068	-0.078
-697.485	78.745	-0.083	-0.089
-696.470	287.356	-0.093	-0.170
-695.456	474.979	-0.016	0.037
-694.441	-30.764	0.142	0.081
-693.426	167.209	-0.093	-0.133
-692.412	-14.611	0.057	-0.037
-691.397	102.441	-0.141	0.166
-690.383	108.769	0.265	0.319
-689.368	-86.342	-0.200	-0.062
-688.354	23.479	0.227	0.188
-687.339	117.524	-0.107	-0.133
-686.324	-172.853	0.108	-0.003
-685.310	-200.000	0.028	0.217
-684.295	-200.000	-0.022	-0.251
-683.281	800.000	-0.057	0.169
-682.266	-89.875	-0.451	-0.133
-681.251	-22.631	-0.214	-0.130
-680.237	97.343	0.061	-0.070
-679.222	242.680	-0.149	0.250
-678.208	-24.016	-0.321	0.193
-677.193	227.103	-0.165	-0.270
-676.178	583.177	-0.030	-0.075
-675.164	-127.273	0.157	-0.023
-674.149	-24.988	-0.076	-0.045
-673.135	16.896	0.134	-0.106
-672.120	-200.000	0.056	-0.299
-671.105	-200.000	-0.031	-0.383
-670.091	-47.978	-0.106	0.052
-669.076	-70.099	0.185	0.071
-668.062	-60.687	-0.121	0.052
-667.047	566.073	0.090	-0.220
-666.032	800.000	-0.100	-0.331
-665.018	432.467	0.033	0.071
-664.003	-2.567	-0.246	-0.173
-662.989	29.940	-0.213	-0.183
-661.974	507.304	0.008	-0.018
-660.959	-63.694	0.136	-0.056
-659.945	736.713	-0.101	-0.273
-658.930	-115.372	-0.121	0.023
-657.916	-200.000	-0.060	0.290
-656.901	50.333	-0.222	0.211
-655.886	-74.338	0.181	-0.066
-654.872	800.000	-0.039	0.140
-653.857	-95.621	-0.064	-0.017
-652.843	-200.000	0.002	-0.218
-651.828	215.982	0.117	0.186
-650.814	15.637	-0.235	-0.186
-649.799	89.643	0.198	-0.222
-648.784	3.946	-0.294	-0.216
-647.770	276.717	-0.092	-0.163
-646.755	800.000	0.097	-0.297
-645.741	-64.625	-0.258	-0.105
-644.726	-200.000	-0.000	0.130
-643.711	-6.557	-0.047	-0.032
-642.697	800.000	0.055	-0.155
-641.682	421.863	0.063	0.137
-640.668	-28.827	0.195	0.112
-639.653	-200.000	0.016	-0.188
-638.638	-87.448	-0.345	0.105
-637.624	-140.227	0.045	0.005
-636.609	-17.333	-0.076	0.048
-635.595	-163.185	0.457	-0.022
-634.580	47.662	-0.197	-0.184
-633.565	-35.836	0.150	-0.082
-632.551	41.099	-0.116	-0.106
-631.536	227.275	0.147	-0.240
-630.522	-58.198	0.353	-0.154
-629.507	32.082	-0.037	-0.032
-628.492	362.749	-0.085	-0.172
-627.478	-90.560	0.272	-0.079
-626.463	193.428	-0.112	0.170
-625.449	-200.000	0.060	-0.265
-624.434	-19.891	-0.139	-0.086
-623.419	-3.893	-0.114	0.080
-622.405	374.447	-0.123	-0.251
-621.390	800.000	0.040	-0.143
-620.376	679.478	-0.106	0.277
-619.361	284.446	0.218	0.394
-618.346	-13.484	0.153	-0.100
-617.332	-157.224	0.114	-0.007
-616.317	-148.881	-0.514	-0.042
-615.303	56.524	-0.176	0.172
-614.288	162.964	-0.170	0.240
-613.273	-6.302	-0.325	-0.223
-612.259	800.000	0.076	0.245
-611.244	87.147	-0.236	0.262
-610.230	-91.328	-0.289	0.083
-609.215	-121.318	-0.289	0.048
-608.201	-200.000	-0.063	0.319
-607.186	-62.475	0.128	-0.053
-606.171	730.819	0.108	-0.289
-605.157	-22.228	-0.080	-0.049
-604.142	154.196	-0.067	0.092
-603.128	62.216	0.342	0.342
-602.113	453.860	0.095	-0.212
-601.098	-109.366	-0.338	0.072
-600.084	-92.128	0.256	-0.072
-599.069	-137.884	0.481	0.054
-598.055	-200.000	0.183	-0.001
-597.040	-82.759	0.176	0.057
-596.025	-88.832	0.145	-0.043
-595.011	80.155	0.093	-0.101
-593.996	800.000	0.072	-0.231
-592.982	-55.560	0.070	0.031
-591.967	800.000	-0.090	0.290
-590.952	800.000	0.079	0.239
-589.938	-61.856	-0.033	0.014
-588.923	-59.286	0.395	-0.171
-587.909	148.648	0.075	-0.102
-586.894	-42.930	-0.192	-0.097
-585.879	85.127	0.169	0.185
-584.865	-99.366	0.269	0.068
-583.850	-74.342	0.278	-0.101
-582.836	-42.983	-0.262	-0.133
-581.821	72.037	-0.055	-0.057
-580.806	-200.000	-0.012	-0.105
-579.792	251.308	0.238	-0.405
-578.777	-200.000	-0.077	-0.525
-577.763	189.613	0.119	0.179
-576.748	63.108	0.192	-0.192
-575.733	-200.000	0.000	0.019
-574.719	563.719	0.067	0.162
-573.704	227.690	0.126	0.205
-572.690	256.919	-0.121	-0.208
-571.675	243.565	0.060	0.101
-570.661	-74.703	-0.404	0.146
-569.646	-200.000	-0.065	0.324
-568.631	-200.000	-0.013	0.176
-567.617	469.048	-0.082	-0.184
-566.602	-83.967	-0.093	-0.030
-565.588	-100.871	0.167	-0.041
-564.573	800.000	0.081	-0.243
-563.558	-200.000	-0.037	-0.332
-562.544	479.856	-0.138	-0.314
-561.529	-200.000	0.014	0.125
-560.515	-85.215	-0.336	0.105
-559.500	-90.267	-0.290	-0.084
-558.485	62.580	0.112	-0.112
-557.471	800.000	0.096	-0.292
-556.456	-140.267	-0.254	0.027
-555.442	-118.917	0.284	0.050
-554.427	49.846	0.192	0.181
-553.412	-46.864	-0.350	0.171
-552.398	-106.133	-0.391	-0.088
-551.383	237.903	-0.039	-0.066
-550.369	541.635	0.167	0.398
-549.354	-143.033	-0.279	0.027
-548.339	-45.322	0.065	0.032
-547.325	-62.379	-0.227	-0.094
-546.310	-120.421	-0.426	0.072
-545.296	800.000	0.050	0.179
-544.281	-200.000	-0.042	-0.272
-543.266	73.624	0.135	0.141
-542.252	155.680	0.084	0.116
-541.237	339.429	0.057	0.111
-540.223	31.427	0.186	0.160
-539.208	21.574	0.071	0.057
-538.193	208.096	0.283	0.443
-537.179	-42.196	-0.117	-0.060
-536.164	-22.199	0.131	-0.080
-535.150	-106.277	0.038	-0.008
-534.135	-200.000	-0.026	0.228
-533.121	-144.310	-0.342	-0.032
-532.106	-200.000	0.001	-0.079
-531.091	18.107	0.012	-0.010
-530.077	36.109	0.187	-0.165
-529.062	800.000	-0.051	-0.161
-528.048	291.713	0.102	0.185
-527.033	295.311	0.173	0.317
-526.018	-200.000	-0.014	0.218
-525.004	800.000	-0.087	0.278
-523.989	-34.751	-0.420	-0.230
-522.975	-58.201	0.131	-0.057
-521.960	55.680	0.048	0.047
-520.945	-200.000	-0.036	0.204
-519.931	-180.206	0.196	-0.004
-518.916	-200.000	0.052	-0.359
-517.902	-200.000	-0.030	-0.146
-516.887	-200.000	0.026	-0.303
-515.872	261.511	0.143	-0.248
-514.858	-19.286	-0.256	0.158
-513.843	-86.321	0.204	0.063
-512.829	40.299	-0.082	0.074
-511.814	-39.589	0.171	-0.089
-510.799	189.148	0.024	0.036
-509.785	745.510	-0.056	0.150
-508.770	-200.000	-0.064	0.432
-507.756	566.059	-0.067	-0.163
-506.741	-151.775	0.163	-0.012
-505.726	-101.151	-0.135	-0.033
-504.712	-200.000	0.009	0.199
-503.697	607.575	0.134	0.334
-502.683	-117.498	0.075	-0.014
-501.668	-200.000	0.010	-0.200
-500.653	204.562	-0.089	-0.138
-499.639	390.906	-0.162	-0.337
-498.624	-113.681	0.131	0.026
-497.610	50.939	0.095	0.090
-496.595	-200.000	0.054	0.299
-495.581	212.798	0.068	-0.108
-494.566	-110.516	0.189	0.039
-493.551	-93.772	-0.093	-0.025
-492.537	-80.336	-0.092	-0.031
-491.522	137.161	0.213	-0.278
-490.508	-200.000	-0.004	0.035
-489.493	-200.000	-0.010	-0.194
-488.478	107.083	-0.128	-0.152
-487.464	-200.000	0.009	0.135
-486.449	-7.298	-0.181	0.123
-485.435	-60.348	0.425	0.181
-484.420	49.309	-0.131	-0.123
-483.405	800.000	-0.046	0.179
-482.391	582.824	0.061	-0.150
-481.376	30.338	0.155	0.132
-480.362	-31.327	-0.159	-0.090
-479.347	-91.139	-0.352	0.101
-478.332	64.111	0.092	0.093
-477.318	-75.687	-0.431	0.152
-476.303	302.968	0.067	0.125
-475.289	174.157	0.069	0.099
-474.274	76.980	0.061	0.064
-473.259	-88.892	0.232	-0.069
-472.245	-32.789	0.184	0.102
-471.230	-165.426	-0.179	-0.008
-470.216	498.918	0.008	-0.017
-469.201	20.815	-0.151	0.122
-468.186	-19.167	0.134	0.083
-467.172	194.790	-0.127	0.193
-466.157	187.336	0.124	0.184
-465.143	255.062	-0.137	0.233
-464.128	800.000	-0.104	0.431
-463.113	94.167	-0.115	0.130
-462.099	-200.000	-0.033	-0.305
-461.084	-200.000	0.039	0.326
-460.070	122.406	-0.171	0.213
-459.055	64.030	-0.224	0.225
-458.040	-28.566	0.167	-0.096
-457.026	447.011	-0.096	0.210
-456.011	93.664	-0.181	-0.205
-454.997	290.813	-0.210	0.380
-453.982	-200.000	-0.006	-0.074
-452.968	-91.105	0.294	-0.084
-451.953	800.000	-0.087	0.246
-450.938	-20.027	-0.240	-0.147
-449.924	-146.267	0.161	-0.014
-448.909	-200.000	-0.006	-0.130
-447.895	-200.000	-0.013	0.087
-446.880	-61.245	0.426	0.179
-445.865	132.993	-0.220	-0.283
-444.851	-58.582	0.184	-0.079
-443.836	-64.564	0.061	0.025
-442.822	290.556	-0.087	-0.158
-441.807	-130.434	0.263	-0.035
-440.792	-103.234	-0.074	-0.017
-439.778	-14.067	0.185	0.119
-438.763	417.318	-0.085	-0.181
-437.749	-120.618	-0.182	0.031
-436.734	-1.417	-0.038	0.027
-435.719	-200.000	0.001	0.008
-434.705	-163.859	-0.225	-0.010
-433.690	-153.359	0.349	0.024
-432.676	-85.180	0.390	0.121
-431.661	800.000	0.076	-0.235
-430.646	800.000	-0.046	-0.196
-429.632	163.987	0.069	0.097
-428.617	-47.733	-0.115	0.056
-427.603	172.014	0.139	0.199
-426.588	-37.777	-0.050	0.027
-425.573	800.000	-0.022	0.093
-424.559	-110.800	0.295	-0.060
-423.544	175.234	0.190	0.274
-422.530	-150.838	-0.124	0.009
-421.515	159.620	0.139	0.193
-420.500	-137.399	-0.171	0.019
-419.486	349.949	-0.165	0.325
-418.471	-200.000	-0.004	0.241
-417.457	-8.198	-0.258	-0.173
-416.442	-200.000	0.053	0.234
-415.428	98.598	-0.185	0.212
-414.413	224.254	0.182	0.292
-413.398	109.390	0.125	0.149
-412.384	139.240	0.238	0.311
-411.369	271.647	0.092	-0.161
-410.355	-200.000	-0.036	0.183
-409.340	-16.201	-0.155	0.098
-408.325	67.094	0.246	-0.249
-407.311	-200.000	0.029	-0.162
-406.296	60.405	-0.054	-0.053
-405.282	69.391	-0.173	-0.177
-404.267	-116.995	-0.048	-0.009
-403.252	390.677	0.101	0.208
-402.238	-53.002	0.260	-0.119
-401.223	190.965	0.136	0.203
-400.209	-100.847	0.295	0.072
-399.194	-135.880	-0.245	0.029
-398.179	-159.445	-0.134	0.007
-397.165	15.106	-0.219	-0.171
-396.150	458.316	-0.085	0.189
-395.136	-200.000	0.016	0.247
-394.121	495.380	-0.084	0.193
-393.106	-200.000	-0.016	0.276
-392.092	-200.000	-0.002	-0.083
-391.077	-99.817	-0.175	-0.043
-390.063	-36.304	0.065	-0.035
-389.048	-126.130	0.162	0.024
-388.033	-41.961	-0.130	0.066
-387.019	-200.000	0.001	-0.054
-386.004	800.000	-0.172	-0.508
-384.990	38.521	-0.265	-0.235
-383.975	161.261	0.211	-0.294
-382.960	-122.764	0.214	0.034
-381.946	-200.000	0.053	0.302
-380.931	-200.000	-0.036	0.164
-379.917	800.000	-0.078	-0.223
-378.902	-114.138	-0.547	-0.105
-377.888	-33.826	-0.273	-0.150
-376.873	-41.898	-0.132	-0.067
-375.858	457.090	-0.160	-0.353
-374.844	291.149	0.035	0.063
-373.829	186.633	-0.071	-0.105
-372.815	-200.000	-0.018	0.322
-371.800	800.000	0.037	0.138
-370.785	-54.695	0.354	-0.159
-369.771	-115.678	-0.223	0.042
-368.756	524.580	-0.022	0.050
-367.742	-200.000	0.002	-0.285
-366.727	-200.000	0.036	-0.163
-365.712	-87.772	0.276	0.083
-364.698	6.912	0.349	-0.258
-363.683	524.817	-0.082	0.192
-362.669	-128.667	-0.183	0.026
-361.654	736.771	0.058	0.155
-360.639	-59.359	-0.186	-0.079
-359.625	-17.125	0.090	-0.056
-358.610	143.497	-0.081	0.107
-357.596	-80.517	-0.192	-0.063
-356.581	-200.000	0.004	0.178
-355.566	79.287	-0.120	0.128
-354.552	800.000	0.042	0.142
-353.537	-163.926	-0.358	-0.017
-352.523	51.578	0.128	0.121
-351.508	-9.836	0.170	0.112
-350.493	-200.000	0.051	-0.269
-349.479	-128.951	-0.155	-0.022
-348.464	-14.623	-0.213	-0.136
-347.450	33.210	-0.101	0.087
-346.435	800.000	-0.012	-0.043
-345.420	800.000	0.042	0.139
-344.406	-40.563	-0.115	0.059
-343.391	201.116	-0.086	0.131
-342.377	608.494	-0.030	0.074
-341.362	10.331	0.065	0.049
-340.348	-200.000	0.001	-0.010
-339.333	639.426	-0.061	-0.154
-338.318	-15.697	0.260	0.165
-337.304	-200.000	-0.010	0.201
-336.289	-83.292	-0.079	-0.025
-335.275	-22.169	0.180	0.108
-334.260	-130.093	-0.158	-0.021
-333.245	181.039	-0.276	-0.402
-332.231	34.497	-0.178	0.155
-331.216	-17.905	-0.170	0.106
-330.202	251.798	0.219	-0.369
-329.187	-200.000	-0.004	0.267
-328.172	800.000	0.141	-0.410
-327.158	-200.000	0.017	-0.343
-326.143	-133.652	0.028	0.003
-325.129	-84.050	0.101	-0.032
-324.114	-58.021	0.267	0.116
-323.099	-198.552	0.298	0.002
-322.085	800.000	-0.063	0.241
-321.070	102.457	-0.096	0.111
-320.056	800.000	-0.074	-0.226
-319.041	262.171	-0.017	-0.030
-318.026	-18.564	0.441	-0.273
-317.012	-78.937	0.175	-0.059
-315.997	-200.000	-0.054	-0.272
-314.983	800.000	-0.069	0.245
-313.968	-68.603	0.180	0.069
-312.953	-98.476	-0.164	-0.042
-311.939	800.000	0.042	-0.116
-310.924	800.000	-0.063	-0.262
-309.910	-103.487	0.218	-0.051
-308.895	-200.000	0.039	-0.176
-307.880	800.000	-0.078	-0.297
-306.866	-128.901	-0.275	-0.038
-305.851	211.096	-0.337	0.526
-304.837	277.935	-0.172	0.304
-303.822	-200.000	-0.014	-0.067
-302.807	559.604	-0.081	0.193
-301.793	800.000	-0.003	0.012
-300.778	658.445	-0.060	-0.152
-299.764	-200.000	0.024	0.194
-298.749	800.000	-0.051	-0.209
-297.735	-90.275	-0.049	0.014
-296.720	138.252	0.107	0.139
-295.705	-115.185	-0.097	0.018
-294.691	800.000	-0.029	-0.092
-293.676	78.725	0.300	-0.318
-292.662	711.655	-0.049	-0.129
-291.647	-27.660	-0.194	-0.111
-290.632	110.755	-0.077	-0.092
-289.618	800.000	-0.070	-0.226
-288.603	800.000	-0.126	0.462
-287.589	129.969	-0.017	0.022
-286.574	-77.645	-0.070	0.024
-285.559	14.314	0.136	0.105
-284.545	168.720	-0.117	-0.166
-283.530	-49.731	0.223	-0.105
-282.516	-130.665	-0.124	-0.017
-281.501	-108.955	0.296	0.062
-280.486	372.483	0.186	0.374
-279.472	26.876	0.192	-0.159
-278.457	-86.196	0.187	0.057
-277.443	-200.000	-0.003	0.040
-276.428	46.941	-0.167	0.154
-275.413	-151.423	0.514	0.038
-274.399	38.051	0.065	0.057
-273.384	-189.678	0.093	0.001
-272.370	-55.343	0.196	-0.087
-271.355	310.867	-0.114	0.211
-270.340	331.870	0.140	-0.267
-269.326	-28.928	0.210	-0.120
-268.311	800.000	0.028	0.084
-267.297	-200.000	0.014	-0.107
-266.282	701.681	0.028	-0.072
-265.267	-168.981	-0.460	-0.017
-264.253	-82.820	-0.261	-0.083
-263.238	-200.000	0.026	0.123
-262.224	73.261	0.150	-0.155
-261.209	-200.000	-0.039	-0.261
-260.195	680.684	-0.165	0.424
-259.180	42.246	0.055	0.050
-258.165	800.000	0.039	-0.129
-257.151	-153.927	-0.194	0.013
-256.136	132.787	0.076	0.097
-255.122	-156.910	0.122	-0.007
-254.107	420.432	-0.049	0.105
-253.092	-76.153	0.299	0.104
-252.078	196.295	0.156	-0.234
-251.063	-0.806	0.375	-0.263
-250.049	14.688	-0.042	0.033
-249.034	110.058	-0.069	0.082
-248.019	453.362	-0.056	0.122
-247.005	-154.693	0.101	-0.007
-245.990	-200.000	0.003	-0.068
-244.976	800.000	0.022	-0.081
-243.961	-132.082	0.070	-0.009
-242.946	-200.000	-0.021	-0.107
-241.932	-77.618	0.218	-0.075
-240.917	-69.970	0.100	0.038
-239.903	-43.351	-0.229	0.114
-238.888	-75.136	-0.525	0.185
-237.873	1.798	-0.384	0.274
-236.859	-153.874	-0.477	0.032
-235.844	-74.005	0.178	0.064
-234.830	-63.407	-0.138	-0.056
-233.815	-94.864	-0.326	0.087
-232.800	-125.948	-0.143	-0.021
-231.786	-8.529	-0.127	-0.084
-230.771	82.540	0.200	-0.214
-229.757	-200.000	-0.018	0.287
-228.742	-163.268	-0.178	-0.008
-227.727	-200.000	0.000	0.048
-226.713	-85.373	0.169	-0.052
-225.698	-82.217	0.289	-0.093
-224.684	191.511	-0.154	-0.229
-223.669	23.859	-0.135	-0.110
-222.655	-1.339	0.208	-0.145
-221.640	800.000	-0.041	0.126
-220.625	392.431	-0.030	0.062
-219.611	-92.409	-0.081	0.022
-218.596	344.528	-0.049	-0.094
-217.582	244.894	-0.229	0.380
-216.567	8.284	0.135	-0.100
-215.552	50.509	0.056	-0.052
-214.538	-200.000	0.035	0.158
-213.523	-125.331	0.244	-0.037
-212.509	238.883	-0.059	-0.097
-211.494	-149.727	0.012	0.001
-210.479	-58.459	0.344	0.148
-209.465	-106.732	0.181	0.040
-208.450	347.845	-0.090	0.175
-207.436	20.299	-0.109	0.087
-206.421	99.280	-0.159	-0.182
-205.406	-60.999	0.097	-0.040
-204.392	-172.746	0.095	-0.003
-203.377	108.041	0.147	0.173
-202.363	52.679	0.142	0.134
-201.348	99.336	0.048	-0.055
-200.333	473.591	-0.031	-0.068
-199.319	-98.182	0.230	0.058
-198.304	-31.097	-0.093	0.052
-197.290	-66.396	0.230	-0.090
-196.275	484.642	-0.072	0.161
-195.260	254.393	-0.214	-0.360
-194.246	-200.000	0.010	-0.226
-193.231	287.551	0.160	-0.285
-192.217	-106.390	-0.179	-0.040
-191.202	-6.397	-0.283	-0.190
-190.187	-19.768	-0.210	0.128
-189.173	-14.371	-0.121	0.077
-188.158	354.167	-0.044	0.087
-187.144	800.000	-0.060	-0.238
-186.129	-120.494	0.158	0.026
-185.114	-200.000	0.029	0.264
-184.100	24.596	0.354	0.289
-183.085	494.885	-0.068	-0.155
-182.071	-164.703	0.250	0.011
-181.056	224.680	-0.083	-0.132
-180.042	-151.905	-0.259	0.019
-179.027	-159.846	0.147	-0.008
-178.012	66.443	0.072	-0.072
-176.998	-95.972	0.232	-0.061
-175.983	-200.000	-0.015	0.341
-174.969	-121.743	0.154	0.025
-173.954	800.000	-0.046	0.196
-172.939	-114.128	0.479	0.091
-171.925	267.257	-0.098	0.170
-170.910	-62.803	0.099	-0.041
-169.896	-200.000	-0.072	-0.331
-168.881	-200.000	0.070	-0.427
-167.866	-200.000	-0.080	-0.354
-166.852	786.516	-0.089	-0.241
-165.837	6.264	-0.262	-0.191
-164.823	76.594	0.258	-0.269
-163.808	-200.000	0.076	-0.352
-162.793	81.199	-0.365	-0.389
-161.779	48.732	0.163	0.151
-160.764	-200.000	0.030	-0.271
-159.750	-166.315	0.128	-0.005
-158.735	-200.000	-0.003	-0.058
-157.720	-112.332	-0.108	-0.021
-156.706	-105.622	0.105	-0.023
-155.691	193.143	0.077	0.114
-154.677	-47.166	-0.157	0.075
-153.662	139.520	-0.197	-0.256
-152.647	581.752	0.034	0.082
-151.633	221.609	-0.082	-0.129
-150.618	-200.000	0.011	-0.102
-149.604	-16.804	-0.029	0.018
-148.589	-105.509	-0.271	0.061
-147.574	800.000	0.010	0.028
-146.560	281.343	0.086	-0.151
-145.545	-45.853	0.361	-0.175
-144.531	577.002	-0.093	0.224
-143.516	800.000	0.057	0.159
-142.502	-166.872	-0.065	-0.003
-141.487	-200.000	-0.014	-0.095
-140.472	-64.780	0.221	0.088
-139.458	800.000	0.028	0.120
-138.443	240.430	0.177	0.290
-137.429	-200.000	0.006	-0.133
-136.414	-141.317	-0.034	-0.003
-135.399	-58.838	0.102	0.044
-134.385	125.357	-0.153	-0.189
-133.370	-200.000	-0.013	-0.503
-132.356	-15.865	0.325	-0.203
-131.341	26.899	-0.145	0.120
-130.326	800.000	0.102	-0.375
-129.312	-138.992	0.171	0.018
-128.297	138.745	0.146	0.189
-127.283	-134.538	-0.378	0.045
-126.268	91.488	-0.113	-0.125
-125.253	67.036	-0.235	0.236
-124.239	122.681	-0.183	-0.226
-123.224	-55.805	0.030	-0.013
-122.210	18.649	-0.084	-0.066
-121.195	32.574	-0.125	0.106
-120.180	-200.000	0.043	-0.334
-119.166	-200.000	-0.019	0.248
-118.151	130.417	0.107	-0.135
-117.137	341.923	-0.136	-0.262
-116.122	-200.000	-0.012	-0.055
-115.107	-200.000	-0.063	-0.322
-114.093	-3.031	0.198	-0.136
-113.078	-38.247	-0.058	-0.030
-112.064	-156.381	-0.112	0.007
-111.049	-92.152	0.154	-0.043
-110.034	-200.000	0.010	-0.103
-109.020	-89.473	0.247	0.072
-108.005	-48.635	0.424	0.200
-106.991	-76.738	-0.229	0.079
-105.976	-47.701	0.032	0.015
-104.962	-92.140	0.217	0.060
-103.947	-85.902	-0.073	-0.022
-102.932	563.482	-0.077	-0.184
-101.918	800.000	-0.192	-0.652
-100.903	-74.713	-0.174	-0.062
-99.889	-92.075	0.247	-0.069
-98.874	-90.715	0.112	0.032
-97.859	473.946	0.165	-0.365
-96.845	-200.000	-0.000	0.169
-95.830	-52.038	0.309	-0.141
-94.816	-118.781	-0.148	-0.026
-93.801	54.218	-0.133	-0.126
-92.786	39.671	-0.099	-0.087
-91.772	17.586	0.311	-0.243
-90.757	27.416	0.245	0.203
-89.743	800.000	-0.060	-0.211
-88.728	97.409	0.227	0.256
-87.713	-183.992	0.223	-0.004
-86.699	322.885	-0.105	-0.197
-85.684	121.427	0.100	0.122
-84.670	119.646	0.133	0.162
-83.655	-200.000	-0.033	0.316
-82.640	800.000	-0.038	0.106
-81.626	-200.000	-0.034	0.355
-80.611	-18.858	0.121	-0.074
-79.597	-168.457	-0.291	-0.011
-78.582	800.000	0.112	-0.381
-77.567	800.000	-0.006	-0.025
-76.553	-200.000	0.018	0.159
-75.538	800.000	0.057	0.226
-74.524	-200.000	-0.011	0.114
-73.509	-62.282	-0.098	0.040
-72.494	-29.411	-0.119	0.067
-71.480	187.400	0.081	-0.118
-70.465	800.000	0.147	-0.463
-69.451	-103.182	-0.173	-0.040
-68.436	-200.000	-0.015	-0.257
-67.422	-95.536	0.164	0.043
-66.407	-92.729	-0.024	-0.007
-65.392	-15.770	0.089	-0.056
-64.378	-9.079	0.117	0.077
-63.363	51.561	0.105	0.098
-62.349	-131.468	0.325	-0.042
-61.334	66.542	-1.103	-1.101
-60.319	5.099	0.496	0.359
-59.305	564.708	-0.436	-1.036
-58.290	156.440	0.965	1.307
-57.276	533.405	0.752	1.749
-56.261	-200.000	107.670	587.108
-55.246	456.534	1468.258	3197.861
-54.232	147.666	2661.085	3518.248
-53.217	100.332	2291.927	2609.440
-52.203	38.978	1904.645	1670.021
-51.188	33.053	1692.965	1439.387
-50.173	30.506	1649.582	1383.513
-49.159	48.925	1701.985	1567.240
-48.144	49.541	1717.492	1586.113
-47.130	32.607	1676.111	1421.467
-46.115	29.941	1661.622	1389.151
-45.100	29.863	1656.114	1383.906
-44.086	29.753	1654.180	1381.412
-43.071	29.758	1651.567	1379.218
-42.057	29.686	1649.170	1376.622
-41.042	29.743	1646.829	1375.040
-40.027	29.781	1644.978	1373.722
-39.013	29.752	1642.951	1371.758
-37.998	29.738	1641.785	1370.625
-36.984	29.732	1640.909	1369.800
-35.969	29.824	1638.936	1368.773
-34.954	29.971	1637.255	1368.403
-33.940	29.838	1635.602	1365.984
-32.925	29.866	1633.727	1364.575
-31.911	29.916	1631.896	1363.359
-30.896	29.937	1629.681	1361.605
-29.881	29.940	1628.308	1360.431
-28.867	29.903	1626.798	1358.837
-27.852	29.758	1625.743	1356.843
-26.838	29.849	1624.170	1356.139
-25.823	29.942	1622.780	1355.608
-24.809	29.950	1621.197	1354.294
-23.794	29.840	1619.814	1352.278
-22.779	29.991	1618.181	1351.965
-21.765	29.843	1617.046	1349.883
-20.750	29.846	1615.277	1348.377
-19.736	29.881	1613.739	1347.289
-18.721	29.893	1612.424	1346.228
-17.706	29.879	1610.926	1344.820
-16.692	29.821	1609.469	1343.128
-15.677	29.927	1607.768	1342.429
-14.663	29.867	1606.862	1341.182
-13.648	29.893	1605.001	1339.762
-12.633	29.927	1603.693	1338.862
-11.619	29.902	1602.052	1337.262
-10.604	29.904	1600.556	1335.975
-9.590	29.909	1599.816	1335.342
-8.575	30.008	1597.917	1334.414
-7.560	29.954	1597.297	1333.455
-6.546	30.030	1595.761	1332.667
-5.531	29.769	1595.443	1330.469
-4.517	29.849	1594.229	1329.978
-3.502	29.880	1592.714	1328.882
-2.487	29.876	1591.017	1327.387
-1.473	29.659	1578.910	1315.693
-0.458	26.626	1560.385	1278.824
0.556	21.306	1561.037	1246.894
1.571	19.057	1585.012	1249.617
2.586	18.767	1598.810	1258.263
3.600	17.251	1545.566	1205.505
4.615	9.723	1435.404	1069.713
5.629	1.883	1370.564	971.487
6.644	0.302	1362.387	955.584
7.659	0.125	1361.188	953.539
8.673	0.030	1360.203	952.162
9.688	0.074	1357.979	950.801
10.702	-0.169	1355.016	947.108
11.717	3.579	1361.069	974.965
12.731	12.140	1374.374	1038.829
13.746	17.249	1381.579	1076.633
14.761	17.243	1380.014	1075.280
15.775	16.247	1376.850	1066.428
16.790	15.217	1374.823	1058.263
17.804	14.491	1372.170	1051.548
18.819	14.002	1371.309	1047.717
19.834	13.873	1369.369	1045.325
20.848	13.590	1367.964	1042.383
21.863	13.330	1367.076	1039.977
22.877	13.219	1365.843	1038.252
23.892	13.182	1364.661	1037.032
24.907	13.026	1364.408	1035.769
25.921	13.092	1363.263	1035.221
26.936	13.235	1361.992	1035.060
27.950	13.203	1361.490	1034.382
28.965	13.313	1360.135	1033.954
29.980	13.353	1359.393	1033.545
30.994	13.369	1358.843	1033.134
32.009	13.414	1357.567	1032.355
33.023	13.380	1356.804	1031.469
34.038	13.375	1355.098	1030.055
35.053	13.351	1354.319	1029.219
36.067	13.335	1352.926	1027.971
37.082	13.326	1352.216	1027.285
38.096	13.437	1350.841	1026.837
39.111	13.348	1350.424	1025.876
40.126	13.303	1349.745	1024.994
41.140	13.251	1348.324	1023.502
42.155	13.191	1347.809	1022.647
43.169	13.053	1348.134	1021.951
44.184	13.120	1347.476	1021.774
45.199	13.118	1347.721	1021.856
46.213	13.172	1346.942	1021.512
47.228	13.291	1345.535	1021.087
48.242	13.314	1344.394	1020.271
49.257	13.216	1343.404	1018.828
50.271	13.260	1341.357	1017.455
51.286	13.338	1340.122	1016.906
52.301	13.281	1338.988	1015.609
53.315	13.290	1338.100	1014.901
54.330	13.221	1337.576	1013.990
55.344	13.096	1336.121	1012.031
56.359	13.112	1335.453	1011.532
57.374	13.092	1334.455	1010.569
58.388	13.108	1333.720	1010.016
59.403	13.168	1332.883	1009.660
60.417	13.118	1332.041	1008.627
61.432	13.092	1331.089	1007.659
62.447	13.051	1329.978	1006.478
63.461	13.014	1328.574	1005.102
64.476	13.010	1328.137	1004.660
65.490	13.081	1326.325	1003.630
66.505	13.042	1324.992	1002.296
67.520	13.035	1324.165	1001.538
68.534	13.151	1322.588	1000.960
69.549	13.131	1321.704	1000.082
70.563	13.026	1320.619	998.539
71.578	13.098	1319.498	998.037
72.593	13.069	1318.357	996.913
73.607	12.974	1318.135	996.084
74.622	13.047	1317.008	995.579
75.636	12.991	1316.379	994.679
76.651	13.045	1315.759	994.447
77.666	13.067	1314.714	993.706
78.680	13.003	1314.744	993.254
79.695	13.106	1313.293	992.691
80.709	13.042	1312.896	991.914
81.724	13.258	1311.513	992.079
82.739	13.148	1311.049	990.984
83.753	13.130	1310.824	990.616
84.768	13.216	1309.307	989.897
85.782	13.287	1308.053	989.285
86.797	13.292	1306.724	988.224
87.812	13.160	1305.774	986.631
88.826	13.316	1304.072	986.189
89.841	13.202	1303.413	984.921
90.855	13.328	1302.333	984.767
91.870	13.299	1301.884	984.169
92.884	13.400	1300.809	983.872
93.899	13.340	1300.216	982.976
94.914	13.368	1299.797	982.739
95.928	13.365	1298.614	981.740
96.943	13.412	1297.608	981.174
97.957	13.371	1296.818	980.243
98.972	13.398	1295.712	979.481
99.987	13.276	1294.841	978.014
101.001	13.331	1293.542	977.276
102.016	13.320	1292.405	976.261
103.030	13.278	1291.755	975.436
104.045	13.309	1290.762	974.785
105.060	13.300	1289.510	973.700
106.074	13.229	1288.223	972.227
107.089	13.234	1286.563	970.916
108.103	13.088	1286.080	969.606
109.118	13.105	1284.764	968.629
110.133	13.147	1283.641	967.942
111.147	13.188	1281.946	966.816
112.162	13.258	1280.752	966.242
113.176	13.252	1279.767	965.379
114.191	13.281	1279.232	965.057
115.206	13.320	1278.011	964.281
116.220	13.277	1276.510	962.811
117.235	13.207	1275.559	961.600
118.249	13.223	1274.556	960.852
119.264	13.206	1273.355	959.763
120.279	13.285	1272.015	959.129
121.293	13.148	1271.786	958.076
122.308	13.140	1270.445	956.932
123.322	13.188	1269.253	956.228
124.337	13.246	1268.024	955.553
125.352	13.310	1266.818	954.931
126.366	13.081	1266.081	952.966
127.381	13.176	1264.874	952.526
128.395	13.184	1263.920	951.768
129.410	13.133	1262.884	950.611
130.424	13.157	1262.283	950.212
131.439	13.340	1260.738	950.017
132.454	13.258	1260.220	949.069
133.468	13.167	1259.393	947.843
134.483	13.295	1258.507	947.826
135.497	13.374	1257.367	947.334
136.512	13.358	1255.685	945.892
137.527	13.168	1255.015	944.215
138.541	13.267	1253.646	943.667
139.556	13.235	1252.279	942.374
140.570	13.218	1251.462	941.578
141.585	13.303	1250.686	941.395
142.600	13.396	1248.666	940.318
143.614	13.459	1247.857	939.988
144.629	13.385	1246.963	938.811
145.643	13.403	1245.861	937.997
146.658	13.400	1244.464	936.849
147.673	13.440	1242.602	935.590
148.687	13.270	1241.979	934.078
149.702	13.353	1240.745	933.534
150.716	13.325	1239.739	932.538
151.731	13.319	1238.051	931.152
152.746	13.259	1237.566	930.366
153.760	13.424	1235.989	930.026
154.775	13.410	1235.197	929.268
155.789	13.363	1233.911	927.954
156.804	13.415	1232.528	927.125
157.819	13.477	1231.845	926.877
158.833	13.436	1231.308	926.161
159.848	13.501	1230.407	925.763
160.862	13.576	1229.161	925.161
161.877	13.461	1228.290	923.785
162.892	13.365	1226.888	922.113
163.906	13.418	1226.251	921.849
164.921	13.498	1225.160	921.393
165.935	13.656	1223.701	921.088
166.950	13.412	1223.933	919.828
167.964	13.471	1222.944	919.328
168.979	13.588	1221.999	919.185
169.994	13.511	1221.498	918.301
171.008	13.477	1220.415	917.220
172.023	13.634	1219.262	917.140
173.037	13.574	1218.865	916.429
174.052	13.598	1218.300	916.056
175.067	13.596	1216.932	914.935
176.081	13.614	1215.976	914.232
177.096	13.490	1214.693	912.505
178.110	13.560	1213.739	912.093
179.125	13.669	1212.202	911.459
180.140	13.691	1211.360	910.864
181.154	13.717	1210.173	910.034
182.169	13.678	1208.981	908.844
183.183	13.716	1207.546	907.893
184.198	13.731	1206.715	907.270
185.213	13.702	1205.613	906.202
186.227	13.862	1204.278	905.989
187.242	13.887	1203.285	905.300
188.256	13.863	1202.520	904.514
189.271	13.854	1201.727	903.787
190.286	13.675	1200.749	901.997
191.300	13.630	1199.987	901.103
192.315	13.684	1199.114	900.662
193.329	13.713	1198.537	900.306
194.344	13.654	1197.987	899.493
195.359	13.771	1197.364	899.580
196.373	13.792	1196.802	899.189
197.388	13.830	1196.254	898.905
198.402	13.988	1195.763	899.310
199.417	14.025	1195.197	899.005
200.432	13.988	1193.997	897.826
201.446	14.053	1193.204	897.500
202.461	14.064	1192.091	896.642
203.475	14.159	1191.631	896.730
204.490	14.062	1190.286	895.114
205.504	13.944	1189.133	893.533
206.519	13.995	1187.934	892.829
207.534	14.112	1186.538	892.328
208.548	14.069	1185.955	891.582
209.563	14.019	1185.232	890.692
210.577	14.082	1184.438	890.353
211.592	14.108	1183.092	889.399
212.607	14.216	1182.386	889.366
213.621	14.139	1181.826	888.455
214.636	14.064	1181.394	887.651
215.650	14.047	1180.295	886.657
216.665	14.178	1178.791	886.148
217.680	14.241	1177.981	885.798
218.694	14.239	1177.675	885.475
219.709	14.342	1176.498	885.061
220.723	14.275	1176.121	884.343
221.738	14.281	1175.275	883.659
222.753	14.251	1174.391	882.757
223.767	14.300	1174.100	882.722
224.782	14.303	1173.145	881.943
225.796	14.282	1172.689	881.408
226.811	14.435	1171.899	881.545
227.826	14.326	1171.226	880.386
228.840	14.299	1170.503	879.624
229.855	14.282	1169.715	878.860
230.869	14.398	1168.696	878.631
231.884	14.378	1167.837	877.801
232.899	14.419	1166.918	877.248
233.913	14.372	1166.573	876.666
234.928	14.439	1165.711	876.292
235.942	14.366	1164.956	875.265
236.957	14.309	1164.181	874.306
237.972	14.351	1163.712	874.096
238.986	14.374	1163.064	873.653
240.001	14.367	1162.352	873.001
241.015	14.464	1161.073	872.470
242.030	14.487	1160.188	871.850
243.045	14.514	1159.633	871.495
244.059	14.446	1158.843	870.472
245.074	14.475	1158.286	870.127
246.088	14.492	1156.916	869.110
247.103	14.725	1156.009	869.564
248.117	14.588	1155.565	868.442
249.132	14.566	1155.267	868.026
250.147	14.759	1154.658	868.492
251.161	14.694	1154.013	867.596
252.176	14.809	1152.871	867.254
253.190	14.832	1152.084	866.705
254.205	14.763	1151.959	866.179
255.220	14.959	1150.738	866.201
256.234	14.932	1150.224	865.598
257.249	14.891	1150.073	865.193
258.263	14.736	1149.445	863.844
259.278	14.826	1148.335	863.399
260.293	14.882	1147.896	863.281
261.307	14.942	1147.319	863.079
262.322	15.050	1146.378	862.853
263.336	14.969	1145.932	862.024
264.351	15.089	1145.304	862.091
265.366	15.087	1144.311	861.259
266.380	15.163	1143.546	860.994
267.395	15.267	1142.861	860.935
268.409	15.141	1141.903	859.496
269.424	15.022	1141.554	858.544
270.439	15.073	1140.974	858.297
271.453	15.126	1140.380	858.042
272.468	14.960	1139.635	856.557
273.482	14.972	1138.946	856.024
274.497	14.919	1138.705	855.498
275.512	15.119	1137.534	855.561
276.526	15.112	1136.920	854.991
277.541	15.122	1135.809	854.130
278.555	15.122	1135.634	853.919
279.570	15.158	1134.704	853.328
280.585	15.162	1134.130	852.841
281.599	15.316	1132.714	852.484
282.614	15.281	1131.675	851.454
283.628	15.264	1130.877	850.689
284.643	15.271	1129.982	849.979
285.657	15.208	1129.192	848.988
286.672	15.334	1128.300	848.880
287.687	15.368	1127.562	848.421
288.701	15.354	1126.690	847.618
289.716	15.306	1125.711	846.567
290.730	15.321	1125.274	846.239
291.745	15.397	1124.554	846.006
292.760	15.332	1124.342	845.441
293.774	15.522	1123.350	845.577
294.789	15.518	1122.783	845.057
295.803	15.498	1122.226	844.461
296.818	15.420	1121.236	843.251
297.833	15.449	1120.585	842.833
298.847	15.419	1119.892	842.088
299.862	15.366	1119.329	841.320
300.876	15.465	1118.428	841.066
301.891	15.405	1118.055	840.413
302.906	15.627	1117.190	840.799
303.920	15.637	1116.688	840.392
304.935	15.659	1115.489	839.528
305.949	15.779	1114.877	839.592
306.964	15.687	1114.971	839.128
307.979	15.621	1113.610	837.701
308.993	15.770	1112.549	837.571
310.008	15.757	1111.834	836.893
311.022	15.795	1111.605	836.837
312.037	15.626	1111.068	835.519
313.052	15.691	1109.980	834.949
314.066	15.761	1108.428	834.055
315.081	15.680	1107.996	833.253
316.095	15.604	1107.345	832.314
317.110	15.717	1106.364	832.061
318.125	15.662	1105.829	831.316
319.139	15.732	1105.190	831.110
320.154	15.578	1104.857	830.023
321.168	15.610	1104.354	829.728
322.183	15.744	1103.491	829.671
323.197	15.647	1102.915	828.683
324.212	15.792	1102.069	828.692
325.227	15.689	1102.145	828.166
326.241	15.753	1101.255	827.740
327.256	15.800	1100.325	827.198
328.270	15.782	1099.055	826.081
329.285	15.760	1098.593	825.550
330.300	15.617	1097.874	824.237
331.314	15.754	1096.753	823.994
332.329	15.777	1095.927	823.415
333.343	15.920	1094.925	823.286
334.358	15.909	1093.804	822.317
335.373	15.949	1093.320	822.077
336.387	15.997	1092.640	821.727
337.402	15.821	1092.428	820.635
338.416	16.037	1091.089	820.607
339.431	15.960	1090.574	819.774
340.446	16.090	1090.157	820.021
341.460	16.113	1089.394	819.488
342.475	16.153	1088.340	818.818
343.489	16.076	1087.551	817.775
344.504	16.177	1086.776	817.608
345.519	16.232	1085.938	817.175
346.533	16.153	1085.108	816.096
347.548	16.320	1083.969	815.975
348.562	16.260	1083.387	815.172
349.577	16.169	1083.149	814.480
350.592	16.165	1082.093	813.596
351.606	16.270	1081.361	813.478
352.621	16.193	1080.935	812.715
353.635	16.148	1080.086	811.792
354.650	16.114	1079.726	811.283
355.665	16.247	1078.627	811.025
356.679	16.235	1078.118	810.514
357.694	16.292	1077.716	810.413
358.708	16.175	1077.491	809.611
359.723	16.307	1075.790	808.892
360.738	16.390	1075.440	808.955
361.752	16.438	1074.999	808.782
362.767	16.391	1074.432	808.059
363.781	16.422	1073.892	807.731
364.796	16.443	1073.016	807.101
365.810	16.423	1072.767	806.745
366.825	16.409	1072.588	806.471
367.840	16.684	1071.298	806.744
368.854	16.546	1071.081	805.851
369.869	16.547	1070.311	805.204
370.883	16.512	1069.474	804.335
371.898	16.621	1068.245	803.861
372.913	16.567	1068.263	803.545
373.927	16.558	1067.542	802.890
374.942	16.659	1066.960	802.861
375.956	16.619	1066.577	802.311
376.971	16.664	1065.960	801.990
377.986	16.666	1065.579	801.642
379.000	16.799	1064.749	801.575
380.015	16.743	1064.383	800.964
381.029	16.816	1063.494	800.566
382.044	16.793	1062.793	799.863
383.059	16.752	1062.298	799.224
384.073	16.774	1061.197	798.427
385.088	16.681	1060.675	797.526
386.102	16.919	1059.260	797.511
387.117	16.803	1058.735	796.503
388.132	16.931	1057.245	795.911
389.146	16.880	1057.200	795.566
390.161	16.824	1056.107	794.409
391.175	16.863	1055.488	794.056
392.190	16.858	1054.955	793.566
393.205	16.738	1054.729	792.762
394.219	16.979	1053.289	792.735
395.234	16.901	1052.748	791.896
396.248	16.912	1051.313	790.798
397.263	17.014	1050.408	790.522
398.278	16.928	1049.814	789.604
399.292	16.944	1048.968	788.972
400.307	16.772	1048.797	787.971
401.321	16.993	1047.923	788.272
402.336	16.892	1047.854	787.685
403.350	16.891	1046.964	786.938
404.365	16.971	1046.130	786.613
405.380	17.001	1045.048	785.870
406.394	16.924	1044.339	784.912
407.409	17.091	1044.119	785.446
408.423	17.096	1042.998	784.561
409.438	17.190	1042.245	784.358
410.453	17.219	1041.820	784.102
411.467	17.120	1041.192	783.101
412.482	17.297	1040.156	783.071
413.496	17.201	1039.746	782.248
414.511	17.347	1039.052	782.332
415.526	17.353	1038.644	781.982
416.540	17.360	1038.311	781.692
417.555	17.316	1037.679	780.948
418.569	17.444	1036.992	780.950
419.584	17.552	1036.188	780.768
420.599	17.392	1036.216	779.985
421.613	103.449	1322.284	1470.339
422.628	94.835	1363.924	1470.447
