DTS Sentinel unit serial number:	SN413079Multiplexer serial number:	ORYXHardware model number:	OX4-SRSoftware version number:	ORYX F/W v4.00 Oryx Data Collector v3.7.2.0data status	okinstallation	princeton_trtdifferential loss correction	single-endedforward channel	channel 2reverse channel	N/Adate	2019/09/18time	21:23:35forward acquisition time	60.00reverse acquisition time	0.00gamma	496.2192k internal	0.2344k external	0.2344temperature offset calibration	1.0020default loss term (dB/km)	0.3790temperature slope calibration	1.0000multiplexer offset coefficient	1.0000multiplexer slope coefficient	1.0000fibre end	0.00T internal ref (°C)	25.50T ext. ref 1 (°C)	0.84T ext. ref 2 (°C)	18.22length (m)	temperature (°C)	Stokes	anti-Stokes-747.200	-128.817	0.194	-0.027
-746.185	-25.805	0.053	-0.031
-745.171	133.488	-0.182	0.235
-744.156	-200.000	0.038	-0.237
-743.142	-28.313	0.073	0.042
-742.127	113.135	-0.111	0.134
-741.112	486.153	-0.020	0.046
-740.098	-99.351	-0.164	-0.041
-739.083	-200.000	-0.037	0.221
-738.069	-200.000	-0.046	0.225
-737.054	-53.095	0.195	-0.090
-736.039	34.059	0.186	0.162
-735.025	-200.000	-0.005	0.058
-734.010	174.789	0.088	-0.127
-732.996	-19.641	0.129	0.080
-731.981	20.179	-0.231	-0.187
-730.966	227.397	0.117	-0.190
-729.952	64.042	0.067	-0.067
-728.937	93.320	-0.266	-0.301
-727.923	-200.000	-0.013	0.111
-726.908	-118.459	0.101	-0.018
-725.894	-23.971	0.194	0.116
-724.879	707.281	-0.026	0.069
-723.864	143.582	-0.098	-0.131
-722.850	-125.582	-0.194	-0.029
-721.835	36.661	-0.059	0.052
-720.821	-200.000	0.032	-0.222
-719.806	44.730	0.157	0.144
-718.791	-200.000	-0.062	-0.339
-717.777	-36.265	-0.122	0.066
-716.762	93.802	-0.241	0.273
-715.748	-200.000	0.033	-0.349
-714.733	-200.000	-0.004	-0.216
-713.718	-200.000	-0.030	0.456
-712.704	-17.782	-0.125	0.079
-711.689	142.383	-0.035	0.046
-710.675	-108.813	0.278	-0.059
-709.660	-79.287	0.195	0.066
-708.645	-200.000	0.019	-0.249
-707.631	46.271	-0.138	-0.128
-706.616	7.189	0.301	0.224
-705.602	-200.000	-0.020	0.246
-704.587	-29.812	0.102	0.058
-703.572	-123.671	0.465	0.074
-702.558	249.904	0.031	0.053
-701.543	108.628	-0.237	0.282
-700.529	-134.697	-0.143	0.017
-699.514	-200.000	-0.042	0.226
-698.499	6.271	-0.170	0.126
-697.485	-10.985	0.145	0.095
-696.470	88.066	-0.204	-0.226
-695.456	-87.262	0.242	0.073
-694.441	349.663	-0.073	-0.144
-693.426	-31.626	-0.281	-0.157
-692.412	583.105	0.035	0.086
-691.397	427.391	-0.165	-0.356
-690.383	-122.801	-0.171	0.028
-689.368	-116.364	0.499	-0.092
-688.354	-10.363	-0.266	-0.176
-687.339	-110.474	0.281	-0.058
-686.324	-44.060	0.293	-0.147
-685.310	-111.361	0.182	-0.037
-684.295	800.000	0.058	-0.173
-683.281	84.402	0.156	-0.170
-682.266	-103.192	-0.415	-0.098
-681.251	-200.000	-0.010	0.490
-680.237	-37.440	-0.080	-0.043
-679.222	800.000	-0.008	-0.022
-678.208	-60.190	-0.323	-0.137
-677.193	42.147	-0.101	-0.091
-676.178	-88.558	-0.140	0.042
-675.164	-200.000	0.026	0.290
-674.149	-200.000	0.003	-0.103
-673.135	-63.094	0.059	0.024
-672.120	-42.090	0.344	-0.175
-671.105	278.401	0.047	-0.084
-670.091	40.993	-0.264	-0.238
-669.076	-64.025	-0.232	0.095
-668.062	303.733	-0.061	-0.112
-667.047	532.908	-0.031	-0.073
-666.032	-4.041	0.179	0.124
-665.018	-200.000	0.042	-0.191
-664.003	543.095	-0.054	0.128
-662.989	-29.321	0.095	-0.054
-661.974	-50.439	-0.273	-0.129
-660.959	-24.380	0.229	0.136
-659.945	335.074	-0.067	-0.130
-658.930	-21.149	0.174	0.106
-657.916	-128.616	-0.106	0.015
-656.901	800.000	0.034	-0.095
-655.886	-127.218	-0.136	-0.020
-654.872	87.657	-0.080	0.088
-653.857	-56.897	-0.114	0.050
-652.843	-74.039	-0.094	0.034
-651.828	126.825	-0.079	-0.100
-650.814	-135.731	-0.185	-0.022
-649.799	-200.000	-0.026	0.325
-648.784	479.349	-0.170	-0.385
-647.770	-68.706	-0.205	0.079
-646.755	293.477	-0.119	-0.217
-645.741	-200.000	0.057	0.424
-644.726	800.000	0.052	-0.148
-643.711	317.934	0.048	-0.091
-642.697	62.891	-0.161	-0.161
-641.682	20.962	0.295	0.238
-640.668	138.944	-0.114	-0.149
-639.653	350.958	0.113	0.223
-638.638	-54.992	0.230	-0.104
-637.624	-0.743	-0.166	0.117
-636.609	-114.131	0.346	0.067
-635.595	-163.658	-0.095	0.004
-634.580	-49.773	0.096	-0.046
-633.565	-200.000	-0.002	-0.052
-632.551	-200.000	-0.039	-0.209
-631.536	-18.080	0.080	-0.050
-630.522	237.031	0.028	0.047
-629.507	-200.000	0.040	-0.355
-628.492	-122.631	-0.571	-0.092
-627.478	33.743	-0.119	-0.103
-626.463	-200.000	-0.040	0.185
-625.449	-200.000	0.018	0.176
-624.434	-165.592	-0.123	-0.005
-623.419	800.000	-0.004	-0.013
-622.405	-2.545	0.173	0.121
-621.390	-200.000	0.005	-0.388
-620.376	-200.000	-0.021	-0.266
-619.361	-200.000	0.022	-0.269
-618.346	356.334	-0.129	0.256
-617.332	591.453	0.094	-0.231
-616.317	-200.000	0.005	0.376
-615.303	37.586	-0.160	0.142
-614.288	-0.280	0.178	0.126
-613.273	21.253	0.265	0.215
-612.259	-200.000	0.200	0.001
-611.244	-146.972	0.182	-0.016
-610.230	-200.000	-0.064	-0.280
-609.215	544.005	0.084	-0.200
-608.201	-80.972	-0.189	0.062
-607.186	-119.692	0.076	0.013
-606.171	800.000	0.110	0.448
-605.157	476.451	0.079	0.178
-604.142	-200.000	0.012	-0.173
-603.128	800.000	0.115	-0.328
-602.113	-148.492	-0.636	-0.052
-601.098	112.183	0.242	0.291
-600.084	240.922	-0.077	0.127
-599.069	156.451	-0.255	0.350
-598.055	277.922	0.095	0.167
-597.040	-138.934	0.247	0.027
-596.025	-101.492	0.169	0.041
-595.011	461.079	0.124	-0.275
-593.996	56.810	0.144	-0.140
-592.982	162.660	0.145	-0.203
-591.967	-112.689	0.281	-0.056
-590.952	59.226	-0.210	-0.206
-589.938	-75.653	0.208	0.073
-588.923	52.636	-0.117	-0.111
-587.909	-108.773	-0.244	0.052
-586.894	-200.000	-0.003	-0.778
-585.879	34.694	0.109	-0.095
-584.865	336.167	0.144	-0.277
-583.850	19.197	0.076	0.061
-582.836	501.121	0.063	-0.145
-581.821	800.000	0.093	0.375
-580.806	-77.188	0.136	-0.047
-579.792	146.701	-0.143	-0.191
-578.777	-200.000	-0.009	0.047
-577.763	-200.000	0.029	0.191
-576.748	-139.163	0.267	0.029
-575.733	-200.000	0.004	-0.168
-574.719	17.616	-0.150	-0.119
-573.704	11.121	0.210	-0.160
-572.690	58.982	-0.081	-0.079
-571.675	-200.000	-0.005	-0.223
-570.661	-145.236	-0.196	0.018
-569.646	-77.850	0.234	-0.080
-568.631	-145.877	0.338	-0.030
-567.617	260.484	0.066	-0.113
-566.602	227.880	0.288	0.466
-565.588	-200.000	0.040	0.289
-564.573	21.838	0.204	-0.165
-563.558	752.914	-0.102	0.275
-562.544	-54.727	0.227	-0.102
-561.529	364.404	-0.053	0.106
-560.515	-59.839	0.077	0.033
-559.500	433.233	-0.073	-0.157
-558.485	87.050	0.117	-0.128
-557.471	180.791	-0.276	-0.403
-556.456	411.634	0.015	-0.032
-555.442	-122.878	-0.255	-0.041
-554.427	800.000	-0.046	-0.177
-553.412	-90.578	-0.234	-0.067
-552.398	30.644	-0.193	0.164
-551.383	-48.344	0.210	-0.100
-550.369	-46.395	0.214	-0.104
-549.354	12.531	-0.289	0.221
-548.339	-200.000	-0.064	-0.361
-547.325	-26.394	0.139	0.081
-546.310	-150.916	0.042	0.003
-545.296	424.487	-0.092	-0.197
-544.281	800.000	-0.084	0.317
-543.266	-200.000	0.001	0.046
-542.252	800.000	-0.032	0.137
-541.237	12.630	-0.072	-0.055
-540.223	582.857	-0.064	-0.155
-539.208	35.926	-0.049	-0.043
-538.193	-28.880	-0.111	0.063
-537.179	195.689	-0.006	-0.009
-536.164	-30.676	0.102	0.058
-535.150	-200.000	0.031	0.185
-534.135	-20.624	0.004	0.002
-533.121	-200.000	0.019	0.153
-532.106	800.000	-0.099	0.292
-531.091	-27.687	-0.274	-0.158
-530.077	-200.000	0.011	-0.256
-529.062	359.539	-0.051	0.102
-528.048	-200.000	0.066	-0.332
-527.033	-197.814	-0.197	-0.001
-526.018	82.069	-0.240	-0.258
-525.004	84.486	-0.238	-0.258
-523.989	9.193	-0.142	-0.107
-522.975	-146.754	0.362	0.031
-521.960	-42.910	-0.145	0.073
-520.945	15.645	-0.065	0.051
-519.931	-50.493	-0.064	0.030
-518.916	132.267	0.155	0.198
-517.902	262.952	-0.142	-0.245
-516.887	-91.179	-0.222	-0.063
-515.872	-200.000	0.021	-0.117
-514.858	148.530	0.053	-0.071
-513.843	-28.261	-0.150	0.086
-512.829	-148.889	-0.124	-0.010
-511.814	-200.000	-0.009	0.202
-510.799	-35.999	-0.243	-0.130
-509.785	326.168	0.112	0.212
-508.770	-200.000	0.029	0.187
-507.756	39.751	0.060	0.053
-506.741	-127.487	-0.249	0.036
-505.726	441.020	0.131	0.284
-504.712	180.483	-0.203	0.296
-503.697	-80.898	0.188	0.062
-502.683	-200.000	-0.016	-0.091
-501.668	8.912	0.183	0.137
-500.653	730.156	-0.089	-0.236
-499.639	-200.000	-0.020	0.443
-498.624	800.000	-0.054	-0.172
-497.610	-23.971	-0.299	-0.177
-496.595	-200.000	0.037	-0.213
-495.581	10.807	0.150	0.114
-494.566	308.979	0.069	-0.129
-493.551	787.109	0.046	-0.125
-492.537	302.211	0.213	-0.391
-491.522	124.540	-0.146	-0.182
-490.508	88.813	-0.095	0.105
-489.493	800.000	-0.120	0.350
-488.478	-192.408	0.033	0.000
-487.464	-119.060	-0.202	0.035
-486.449	-188.692	-0.401	-0.005
-485.435	-200.000	-0.042	-0.296
-484.420	-15.212	0.309	-0.196
-483.405	-30.748	0.273	-0.153
-482.391	-124.637	-0.313	0.048
-481.376	53.527	-0.179	-0.170
-480.362	800.000	0.116	0.378
-479.347	-72.212	-0.200	0.074
-478.332	6.002	0.307	0.225
-477.318	-200.000	-0.024	-0.234
-476.303	36.390	0.289	0.253
-475.289	64.963	0.127	-0.127
-474.274	-123.877	-0.211	0.033
-473.259	164.613	0.121	0.168
-472.245	-2.052	0.080	0.055
-471.230	-200.000	-0.007	-0.324
-470.216	329.230	0.022	-0.043
-469.201	-200.000	-0.099	0.541
-468.186	71.526	-0.192	0.198
-467.172	-158.674	-0.248	0.014
-466.157	148.012	-0.311	-0.416
-465.143	800.000	0.033	-0.092
-464.128	-115.207	-0.102	0.019
-463.113	601.740	0.144	-0.353
-462.099	316.340	-0.146	0.273
-461.084	-78.213	-0.237	-0.081
-460.070	73.893	-0.217	-0.225
-459.055	699.221	-0.069	-0.178
-458.040	88.642	0.222	-0.244
-457.026	-200.000	0.008	-0.163
-456.011	75.811	-0.237	-0.248
-454.997	-200.000	0.021	0.223
-453.982	-200.000	-0.019	0.401
-452.968	800.000	-0.034	-0.120
-451.953	55.093	0.213	0.203
-450.938	-157.727	-0.136	0.008
-449.924	69.499	-0.242	-0.246
-448.909	296.112	0.073	-0.132
-447.895	42.399	0.118	-0.106
-446.880	223.805	-0.028	0.045
-445.865	100.916	0.158	0.182
-444.851	-200.000	0.007	0.259
-443.836	-16.546	-0.292	-0.183
-442.822	92.600	-0.057	-0.064
-441.807	246.278	0.191	0.318
-440.792	-74.593	0.196	-0.070
-439.778	348.617	0.197	-0.384
-438.763	800.000	-0.048	0.168
-437.749	800.000	0.111	-0.313
-436.734	-75.096	-0.188	-0.067
-435.719	-66.086	0.376	0.148
-434.705	279.562	-0.112	-0.198
-433.690	-36.683	0.459	-0.244
-432.676	-200.000	-0.006	0.300
-431.661	23.054	-0.187	-0.152
-430.646	-200.000	-0.045	0.268
-429.632	44.167	0.172	0.156
-428.617	-13.321	0.191	0.122
-427.603	88.638	0.042	-0.046
-426.588	423.834	0.030	-0.063
-425.573	-50.299	-0.243	-0.114
-424.559	357.766	0.122	-0.240
-423.544	735.508	0.106	-0.282
-422.530	-200.000	0.030	-0.232
-421.515	-58.845	-0.123	0.053
-420.500	222.537	0.191	0.304
-419.486	-200.000	-0.038	-0.291
-418.471	186.650	-0.141	-0.208
-417.457	800.000	0.086	0.234
-416.442	21.563	-0.037	-0.030
-415.428	-3.243	-0.056	0.039
-414.413	-200.000	0.020	-0.179
-413.398	189.155	0.153	-0.226
-412.384	-42.178	0.162	-0.082
-411.369	800.000	-0.075	-0.211
-410.355	-77.254	0.118	-0.040
-409.340	800.000	0.144	0.450
-408.325	800.000	-0.071	-0.194
-407.311	-200.000	0.005	-0.073
-406.296	207.258	0.129	-0.199
-405.282	721.583	-0.202	-0.531
-404.267	-200.000	0.038	0.287
-403.252	800.000	-0.084	-0.321
-402.238	300.155	0.046	0.084
-401.223	208.247	-0.125	-0.193
-400.209	-111.410	0.252	-0.051
-399.194	-86.384	0.281	-0.085
-398.179	800.000	0.079	-0.298
-397.165	-25.878	-0.145	0.084
-396.150	-110.386	0.110	0.023
-395.136	-111.456	-0.238	-0.048
-394.121	-72.377	-0.148	-0.054
-393.106	265.416	-0.149	-0.257
-392.092	-200.000	0.011	0.217
-391.077	279.935	-0.050	-0.089
-390.063	-200.000	0.046	0.304
-389.048	-146.070	0.400	0.035
-388.033	-200.000	-0.051	-0.283
-387.019	-89.283	-0.160	-0.046
-386.004	-200.000	0.021	0.318
-384.990	-41.673	-0.111	-0.056
-383.975	-22.013	0.084	0.050
-382.960	189.830	-0.210	0.310
-381.946	770.990	0.039	-0.104
-380.931	-54.938	-0.082	-0.036
-379.917	-200.000	0.010	0.093
-378.902	-58.176	0.184	0.079
-377.888	140.603	-0.066	0.086
-376.873	42.847	0.119	-0.107
-375.858	-200.000	-0.022	-0.376
-374.844	800.000	0.102	-0.288
-373.829	-200.000	0.001	0.156
-372.815	279.688	0.119	-0.210
-371.800	-80.255	0.149	-0.049
-370.785	266.413	-0.274	0.472
-369.771	800.000	-0.039	0.140
-368.756	-200.000	-0.092	-0.406
-367.742	-54.210	0.439	-0.197
-366.727	115.950	0.184	0.222
-365.712	-74.905	-0.184	-0.065
-364.698	-106.968	0.264	-0.058
-363.683	-45.004	-0.480	0.235
-362.669	-38.154	0.068	0.035
-361.654	-28.950	-0.400	-0.226
-360.639	395.981	-0.066	0.136
-359.625	150.361	0.040	0.054
-358.610	-161.234	0.110	0.006
-357.596	-24.530	-0.283	-0.166
-356.581	800.000	0.121	0.452
-355.566	148.861	0.173	0.231
-354.552	-30.800	0.115	0.064
-353.537	-200.000	-0.027	0.449
-352.523	-122.656	0.374	-0.060
-351.508	-38.157	-0.058	-0.030
-350.493	-86.612	-0.162	-0.049
-349.479	240.996	-0.090	-0.148
-348.464	142.500	0.241	0.316
-347.450	-200.000	-0.068	0.358
-346.435	138.340	0.086	0.111
-345.420	-200.000	-0.019	0.208
-344.406	-130.490	-0.426	0.057
-343.391	-76.996	-0.361	-0.124
-342.377	741.377	-0.144	-0.382
-341.362	290.684	-0.092	-0.165
-340.348	404.448	0.078	0.162
-339.333	-200.000	-0.036	0.266
-338.318	-200.000	0.028	-0.124
-337.304	-88.686	-0.450	-0.132
-336.289	-110.689	0.055	-0.011
-335.275	-98.042	0.227	-0.058
-334.260	-21.438	0.178	0.107
-333.245	-105.464	-0.293	-0.066
-332.231	-200.000	0.041	0.222
-331.216	-200.000	-0.013	0.245
-330.202	167.064	0.138	0.193
-329.187	800.000	-0.092	0.312
-328.172	-47.604	-0.133	0.064
-327.158	135.463	0.091	0.117
-326.143	-135.613	0.167	0.020
-325.129	-145.248	0.050	-0.004
-324.114	152.111	0.071	-0.096
-323.099	800.000	-0.046	-0.190
-322.085	-26.605	0.115	-0.066
-321.070	-65.947	0.285	0.112
-320.056	-62.767	-0.032	-0.013
-319.041	-32.758	-0.281	-0.154
-318.026	-67.530	0.284	-0.110
-317.012	-110.077	0.316	-0.065
-315.997	529.130	-0.108	0.251
-314.983	145.097	0.055	-0.073
-313.968	-126.509	0.139	0.020
-312.953	-24.391	-0.156	-0.092
-311.939	329.513	0.075	0.142
-310.924	800.000	0.060	-0.226
-309.910	-200.000	-0.008	-0.186
-308.895	261.832	-0.105	0.178
-307.880	-200.000	0.006	0.033
-306.866	-76.065	0.079	0.027
-305.851	364.129	0.134	0.265
-304.837	800.000	-0.072	0.278
-303.822	-103.416	0.114	-0.026
-302.807	69.902	0.188	0.191
-301.793	215.056	0.094	0.146
-300.778	293.469	0.042	0.075
-299.764	434.028	-0.074	0.157
-298.749	7.062	0.268	0.197
-297.735	337.645	0.065	0.124
-296.720	28.603	0.178	-0.148
-295.705	674.095	-0.068	-0.174
-294.691	60.298	-0.105	-0.102
-293.676	800.000	0.055	0.155
-292.662	-200.000	-0.065	-0.362
-291.647	-47.291	0.185	0.089
-290.632	142.829	-0.105	0.138
-289.618	185.033	0.085	-0.124
-288.603	-156.157	0.161	0.010
-287.589	-66.401	-0.107	-0.042
-286.574	-22.450	-0.210	-0.125
-285.559	-63.872	0.231	0.093
-284.545	365.565	0.079	0.157
-283.530	-132.008	0.292	-0.037
-282.516	-162.801	-0.331	0.016
-281.501	-200.000	0.032	0.234
-280.486	36.764	0.060	0.053
-279.472	800.000	-0.072	-0.204
-278.457	800.000	-0.042	-0.134
-277.443	-200.000	-0.018	-0.117
-276.428	-200.000	-0.037	-0.227
-275.413	-200.000	-0.067	0.497
-274.399	89.450	-0.190	0.208
-273.384	768.368	-0.055	-0.148
-272.370	-200.000	-0.038	-0.208
-271.355	-116.446	0.099	0.018
-270.340	244.584	-0.178	-0.294
-269.326	32.417	0.114	-0.097
-268.311	-158.886	-0.103	-0.006
-267.297	-200.000	0.016	-0.108
-266.282	505.270	0.180	-0.409
-265.267	91.843	0.130	-0.143
-264.253	761.074	-0.105	0.279
-263.238	-54.882	-0.382	0.169
-262.224	50.308	-0.218	-0.203
-261.209	-58.875	-0.082	-0.035
-260.195	589.715	-0.222	-0.536
-259.180	6.502	0.237	0.173
-258.165	541.178	-0.111	0.260
-257.151	-104.156	-0.181	-0.041
-256.136	-200.000	0.031	0.204
-255.122	-93.902	-0.032	0.009
-254.107	800.000	-0.049	0.205
-253.092	800.000	-0.039	-0.143
-252.078	-156.061	-0.107	-0.007
-251.063	-182.349	-0.195	-0.004
-250.049	-200.000	0.021	0.259
-249.034	-112.870	-0.219	0.043
-248.019	-200.000	0.008	0.311
-247.005	-200.000	-0.061	0.264
-245.990	11.768	0.106	0.080
-244.976	-200.000	-0.043	0.300
-243.961	47.970	0.021	-0.020
-242.946	-146.655	0.131	0.011
-241.932	800.000	-0.085	0.342
-240.917	-55.195	-0.078	0.034
-239.903	260.218	0.141	0.238
-238.888	-200.000	0.035	0.156
-237.873	-98.871	0.029	-0.007
-236.859	-200.000	0.012	-0.134
-235.844	800.000	0.076	-0.218
-234.830	341.938	0.133	0.256
-233.815	-50.410	-0.334	0.155
-232.800	-83.538	-0.103	-0.032
-231.786	747.112	0.162	-0.427
-230.771	47.915	0.269	-0.247
-229.757	384.944	0.165	-0.333
-228.742	800.000	-0.062	0.264
-227.727	-130.322	0.161	-0.021
-226.713	-162.297	0.094	0.005
-225.698	189.999	0.084	-0.123
-224.684	124.798	-0.266	-0.328
-223.669	46.226	-0.181	0.165
-222.655	245.964	-0.074	0.122
-221.640	270.617	-0.141	0.244
-220.625	-2.497	-0.120	0.082
-219.611	-135.848	0.652	-0.075
-218.596	-179.557	0.409	0.009
-217.582	-69.175	-0.242	-0.091
-216.567	-200.000	0.003	-0.098
-215.552	-200.000	0.019	0.082
-214.538	-110.497	0.385	0.078
-213.523	-81.392	-0.117	-0.038
-212.509	441.588	0.182	0.390
-211.494	-119.217	-0.161	0.027
-210.479	480.508	-0.086	0.192
-209.465	-9.218	-0.311	0.204
-208.450	-154.880	0.094	-0.006
-207.436	-200.000	0.016	0.282
-206.421	17.440	0.129	0.100
-205.406	475.798	-0.040	-0.089
-204.392	-98.468	0.227	0.057
-203.377	-200.000	-0.303	0.000
-202.363	-200.000	0.001	-0.316
-201.348	6.970	0.097	-0.071
-200.333	165.282	-0.178	0.246
-199.319	-200.000	-0.027	0.169
-198.304	186.698	-0.054	0.079
-197.290	-49.442	0.298	0.139
-196.275	-200.000	-0.048	0.613
-195.260	-0.291	-0.129	0.090
-194.246	-77.858	-0.273	0.092
-193.231	32.619	0.102	0.087
-192.217	-56.168	-0.352	0.153
-191.202	-93.405	0.304	-0.083
-190.187	-39.915	-0.148	-0.076
-189.173	222.554	0.077	-0.122
-188.158	800.000	-0.054	-0.213
-187.144	85.937	-0.044	-0.047
-186.129	473.626	-0.158	-0.350
-185.114	-200.000	-0.045	-0.225
-184.100	-105.603	-0.096	-0.021
-183.085	-200.000	-0.092	0.414
-182.071	-145.754	0.073	-0.006
-181.056	-64.135	0.210	0.084
-180.042	74.468	-0.324	-0.334
-179.027	11.604	-0.254	0.191
-178.012	-87.717	0.091	0.027
-176.998	-154.921	0.138	0.009
-175.983	169.462	-0.198	-0.276
-174.969	-123.138	0.124	0.019
-173.954	514.489	0.101	-0.230
-172.939	-87.860	-0.095	-0.028
-171.925	-13.599	0.064	0.040
-170.910	112.052	0.187	0.221
-169.896	52.562	0.245	0.229
-168.881	-158.087	0.136	-0.008
-167.866	75.588	0.164	-0.169
-166.852	69.683	0.078	0.079
-165.837	209.816	-0.056	-0.086
-164.823	-94.462	0.217	0.058
-163.808	-200.000	-0.127	0.641
-162.793	243.049	-0.088	0.143
-161.779	32.757	0.089	0.075
-160.764	-100.945	0.263	-0.063
-159.750	261.688	0.118	0.200
-158.735	-200.000	-0.016	0.126
-157.720	381.228	0.088	-0.177
-156.706	-51.091	-0.077	0.035
-155.691	210.993	-0.285	-0.438
-154.677	800.000	0.026	-0.099
-153.662	-71.818	0.086	0.031
-152.647	-99.619	-0.227	-0.056
-151.633	-200.000	0.045	0.248
-150.618	338.633	0.090	0.172
-149.604	-117.625	0.112	-0.020
-148.589	-11.731	-0.256	-0.165
-147.574	-200.000	0.043	-0.276
-146.560	-151.244	-0.215	0.016
-145.545	-200.000	-0.023	-0.199
-144.531	-32.558	-0.064	-0.035
-143.516	733.586	0.107	-0.280
-142.502	298.515	-0.154	-0.277
-141.487	268.354	-0.112	-0.191
-140.472	18.074	0.163	-0.127
-139.458	-200.000	-0.013	-0.090
-138.443	-200.000	-0.016	0.326
-137.429	135.083	-0.110	0.140
-136.414	358.258	-0.092	-0.180
-135.399	-166.593	-0.073	-0.003
-134.385	537.427	-0.038	0.088
-133.370	1.468	-0.030	0.021
-132.356	-173.397	0.310	-0.009
-131.341	-200.000	0.027	-0.225
-130.326	279.934	0.145	-0.254
-129.312	339.572	0.257	-0.489
-128.297	-65.543	-0.391	-0.153
-127.283	-47.507	-0.256	0.122
-126.268	-83.875	0.218	-0.068
-125.253	-200.000	-0.002	-0.069
-124.239	-35.517	0.416	-0.220
-123.224	20.874	-0.037	0.029
-122.210	425.988	0.034	-0.072
-121.195	70.379	0.108	0.109
-120.180	-22.733	0.169	0.100
-119.166	-200.000	-0.075	-0.460
-118.151	94.226	0.133	0.148
-117.137	460.709	-0.097	-0.210
-116.122	-104.936	0.230	-0.051
-115.107	70.101	-0.118	-0.119
-114.093	596.917	0.054	0.130
-113.078	-200.000	-0.044	0.566
-112.064	-200.000	0.017	-0.205
-111.049	-48.523	0.171	0.081
-110.034	258.680	-0.056	-0.095
-109.020	-56.353	-0.099	-0.043
-108.005	-27.818	0.302	-0.171
-106.991	-200.000	-0.001	-0.253
-105.976	487.033	-0.053	-0.118
-104.962	-200.000	-0.031	0.184
-103.947	-66.649	-0.289	-0.112
-102.932	-86.586	0.077	0.023
-101.918	-200.000	-0.026	0.139
-100.903	365.820	-0.055	0.108
-99.889	156.181	0.118	-0.159
-98.874	410.603	-0.136	-0.282
-97.859	-6.643	-0.056	0.037
-96.845	313.229	0.019	-0.035
-95.830	103.327	-0.230	-0.263
-94.816	-130.979	0.268	-0.035
-93.801	85.933	-0.125	-0.134
-92.786	-65.347	-0.111	0.043
-91.772	-3.700	-0.024	-0.016
-90.757	236.042	-0.131	0.211
-89.743	-200.000	0.059	0.284
-88.728	298.438	-0.154	-0.277
-87.713	69.948	-0.163	-0.164
-86.699	-124.100	0.136	-0.021
-85.684	286.434	-0.094	-0.166
-84.670	-87.841	0.022	-0.006
-83.655	-126.726	0.260	0.038
-82.640	-18.909	0.098	0.059
-81.626	-200.000	-0.030	0.310
-80.611	-78.039	0.447	-0.150
-79.597	26.672	-0.117	0.096
-78.582	780.671	-0.121	-0.324
-77.567	6.480	0.110	0.079
-76.553	-131.363	0.241	-0.031
-75.538	214.775	-0.128	-0.198
-74.524	-200.000	0.037	-0.198
-73.509	-49.259	0.195	0.091
-72.494	-200.000	-0.038	0.201
-71.480	-89.787	0.289	0.082
-70.465	-108.618	-0.213	0.045
-69.451	-115.383	-0.427	0.078
-68.436	-18.586	-0.164	0.100
-67.422	-55.894	0.294	-0.128
-66.407	-19.555	0.213	0.128
-65.392	-89.505	-0.319	-0.091
-64.378	33.874	-0.079	-0.067
-63.363	-33.766	-0.234	0.126
-62.349	800.000	-0.030	0.095
-61.334	172.258	-1.029	-1.442
-60.319	34.540	0.562	0.479
-59.305	751.573	-0.405	-1.066
-58.290	540.479	0.579	1.343
-57.276	186.710	1.122	1.628
-56.261	-200.000	119.215	623.021
-55.246	415.099	1534.941	3185.554
-54.232	147.784	2693.288	3535.984
-53.217	92.739	2266.863	2492.381
-52.203	34.182	1881.601	1597.633
-51.188	28.527	1678.562	1382.692
-50.173	26.308	1638.444	1333.239
-49.159	45.074	1703.733	1528.618
-48.144	43.835	1716.817	1530.939
-47.130	28.049	1669.645	1371.545
-46.115	25.613	1654.701	1341.076
-45.100	25.487	1649.737	1336.063
-44.086	25.443	1647.086	1333.535
-43.071	25.393	1644.485	1331.005
-42.057	25.326	1642.104	1328.529
-41.042	25.424	1640.196	1327.662
-40.027	25.323	1638.768	1325.706
-39.013	25.368	1636.446	1324.107
-37.998	25.287	1635.558	1322.736
-36.984	25.362	1634.108	1322.068
-35.969	25.482	1632.238	1321.384
-34.954	25.454	1630.734	1319.905
-33.940	25.403	1629.349	1318.358
-32.925	25.452	1627.494	1317.168
-31.911	25.546	1625.858	1316.479
-30.896	25.445	1624.313	1314.431
-29.881	25.543	1622.623	1313.734
-28.867	25.533	1620.822	1312.147
-27.852	25.531	1619.736	1311.201
-26.838	25.473	1618.743	1309.925
-25.823	25.570	1617.107	1309.255
-24.809	25.554	1615.897	1308.109
-23.794	25.517	1614.347	1306.530
-22.779	25.552	1613.035	1305.671
-21.765	25.568	1610.932	1304.034
-20.750	25.447	1609.799	1302.186
-19.736	25.489	1608.590	1301.460
-18.721	25.515	1607.115	1300.401
-17.706	25.506	1606.129	1299.488
-16.692	25.548	1603.773	1297.835
-15.677	25.554	1603.236	1297.396
-14.663	25.639	1601.386	1296.454
-13.648	25.619	1599.741	1294.931
-12.633	25.562	1598.261	1293.271
-11.619	25.564	1596.785	1292.040
-10.604	25.530	1595.547	1290.739
-9.590	25.576	1594.149	1289.887
-8.575	25.517	1592.965	1288.457
-7.560	25.524	1591.922	1287.612
-6.546	25.490	1590.748	1286.371
-5.531	25.525	1589.928	1285.906
-4.517	25.576	1588.153	1284.782
-3.502	25.532	1586.951	1283.448
-2.487	25.693	1584.956	1282.930
-1.473	24.999	1573.278	1268.514
-0.458	21.471	1553.054	1227.448
0.556	16.456	1553.232	1191.711
1.571	13.953	1575.693	1190.917
2.586	13.564	1588.336	1197.549
3.600	12.715	1535.082	1151.366
4.615	7.541	1431.358	1039.666
5.629	1.903	1371.738	960.817
6.644	0.873	1364.815	949.424
7.659	0.891	1363.472	948.518
8.673	0.841	1362.461	947.418
9.688	0.746	1360.573	945.428
10.702	0.564	1357.600	942.142
11.717	3.403	1360.568	961.858
12.731	10.211	1370.861	1011.732
13.746	15.922	1378.871	1053.375
14.761	17.427	1380.039	1063.591
15.775	16.753	1378.479	1058.083
16.790	15.799	1376.079	1050.196
17.804	15.034	1374.310	1043.984
18.819	14.644	1372.206	1039.862
19.834	14.388	1371.248	1037.454
20.848	14.092	1370.213	1034.738
21.863	13.968	1368.201	1032.354
22.877	13.763	1367.754	1030.652
23.892	13.668	1366.554	1029.067
24.907	13.711	1365.224	1028.242
25.921	13.683	1364.429	1027.379
26.936	13.723	1364.085	1027.273
27.950	13.749	1363.033	1026.554
28.965	13.758	1361.978	1025.725
29.980	13.859	1360.927	1025.466
30.994	13.926	1359.706	1024.867
32.009	13.967	1359.107	1024.579
33.023	13.974	1358.129	1023.792
34.038	13.906	1356.671	1022.188
35.053	13.785	1356.250	1021.037
36.067	13.839	1354.729	1020.133
37.082	13.852	1353.525	1019.212
38.096	13.907	1352.978	1019.046
39.111	13.834	1352.309	1018.004
40.126	13.819	1351.316	1017.076
41.140	13.770	1350.368	1015.975
42.155	13.708	1350.118	1015.314
43.169	13.673	1350.143	1015.031
44.184	13.619	1350.030	1014.523
45.199	13.647	1349.543	1014.241
46.213	13.676	1348.660	1013.664
47.228	13.697	1348.004	1013.212
48.242	13.784	1346.193	1012.291
49.257	13.800	1344.806	1011.255
50.271	13.813	1343.493	1010.259
51.286	13.818	1342.077	1009.133
52.301	13.791	1341.207	1008.224
53.315	13.737	1340.151	1007.016
54.330	13.658	1339.991	1006.328
55.344	13.827	1338.088	1005.833
56.359	13.796	1337.037	1004.764
57.374	13.747	1335.899	1003.527
58.388	13.709	1335.331	1002.780
59.403	13.715	1335.045	1002.513
60.417	13.745	1333.670	1001.573
61.432	13.679	1333.085	1000.649
62.447	13.630	1332.679	999.957
63.461	13.578	1331.286	998.509
64.476	13.550	1330.519	997.677
65.490	13.670	1329.013	997.185
66.505	13.685	1327.256	995.869
67.520	13.593	1326.263	994.482
68.534	13.697	1325.099	994.142
69.549	13.749	1323.919	993.479
70.563	13.531	1323.473	991.756
71.578	13.620	1322.157	991.214
72.593	13.596	1320.939	990.071
73.607	13.483	1320.501	988.979
74.622	13.560	1319.411	988.532
75.636	13.559	1318.535	987.785
76.651	13.678	1317.654	987.745
77.666	13.530	1318.216	987.196
78.680	13.595	1316.916	986.521
79.695	13.650	1315.754	985.891
80.709	13.625	1315.158	985.209
81.724	13.691	1314.338	984.899
82.739	13.796	1312.959	984.405
83.753	13.736	1312.236	983.420
84.768	13.771	1310.998	982.609
85.782	13.798	1310.267	982.135
86.797	13.866	1308.207	980.908
87.812	13.725	1307.141	979.189
88.826	13.784	1306.427	978.914
89.841	13.709	1305.685	977.830
90.855	13.789	1304.551	977.366
91.870	13.754	1303.852	976.552
92.884	13.852	1302.850	976.290
93.899	13.795	1302.007	975.232
94.914	13.928	1301.489	975.542
95.928	13.921	1300.523	974.688
96.943	13.855	1299.782	973.660
97.957	13.889	1298.294	972.662
98.972	13.855	1297.748	971.964
99.987	13.824	1296.113	970.474
101.001	13.839	1295.262	969.841
102.016	13.911	1294.306	969.458
103.030	13.894	1293.453	968.637
104.045	13.807	1292.507	967.331
105.060	13.816	1291.485	966.534
106.074	13.776	1290.026	965.123
107.089	13.794	1288.531	964.024
108.103	13.751	1287.445	962.876
109.118	13.708	1286.449	961.799
110.133	13.813	1284.667	960.987
111.147	13.813	1283.437	959.986
112.162	13.747	1282.268	958.644
113.176	13.766	1281.614	958.177
114.191	13.775	1280.632	957.412
115.206	13.824	1279.326	956.633
116.220	13.760	1278.474	955.546
117.235	13.646	1277.517	954.086
118.249	13.807	1275.985	953.784
119.264	13.841	1274.883	953.072
120.279	13.710	1274.162	951.694
121.293	13.772	1272.829	950.971
122.308	13.671	1271.924	949.632
123.322	13.690	1271.154	949.084
124.337	13.771	1270.113	948.684
125.352	13.628	1269.008	946.957
126.366	13.726	1268.052	946.721
127.381	13.752	1266.699	945.776
128.395	13.708	1265.661	944.664
129.410	13.757	1264.548	944.029
130.424	13.693	1264.116	943.263
131.439	13.793	1262.660	942.662
132.454	13.775	1261.749	941.792
133.468	13.834	1260.889	941.402
134.483	13.777	1260.332	940.580
135.497	13.811	1259.195	939.842
136.512	13.822	1257.668	938.680
137.527	13.815	1256.594	937.757
138.541	13.781	1255.146	936.402
139.556	13.835	1253.459	935.365
140.570	13.774	1252.596	934.292
141.585	13.966	1251.588	934.542
142.600	13.967	1250.215	933.438
143.614	13.854	1249.703	932.339
144.629	14.016	1248.438	932.219
145.643	13.913	1247.469	930.839
146.658	13.996	1245.956	930.091
147.673	13.956	1244.667	928.820
148.687	13.878	1243.554	927.472
149.702	13.814	1242.478	926.230
150.716	13.889	1241.117	925.556
151.731	13.904	1239.641	924.456
152.746	13.919	1238.748	923.793
153.760	13.955	1237.531	923.001
154.775	13.966	1236.587	922.278
155.789	14.018	1235.395	921.593
156.804	14.020	1234.449	920.816
157.819	14.099	1233.174	920.224
158.833	14.139	1231.625	919.204
159.848	14.173	1230.990	918.839
160.862	14.077	1230.399	917.785
161.877	13.973	1229.277	916.295
162.892	13.991	1227.919	915.299
163.906	14.039	1226.894	914.720
164.921	14.060	1226.182	914.224
165.935	14.046	1225.392	913.475
166.950	14.075	1224.697	913.036
167.964	14.198	1224.056	913.156
168.979	14.053	1223.410	911.794
169.994	14.096	1222.817	911.508
171.008	14.100	1222.018	910.853
172.023	14.213	1220.596	910.335
173.037	14.224	1220.249	910.053
174.052	14.205	1218.961	908.906
175.067	14.147	1218.137	907.899
176.081	14.183	1216.631	906.891
177.096	14.172	1215.752	906.097
178.110	14.278	1214.897	905.953
179.125	14.171	1213.819	904.491
180.140	14.224	1212.480	903.697
181.154	14.187	1211.533	902.711
182.169	14.142	1210.354	901.509
183.183	14.342	1208.671	901.258
184.198	14.283	1207.635	900.090
185.213	14.330	1206.608	899.494
186.227	14.303	1205.788	898.657
187.242	14.370	1204.679	898.118
188.256	14.381	1203.701	897.368
189.271	14.472	1202.909	897.187
190.286	14.300	1202.062	895.551
191.300	14.162	1201.285	894.148
192.315	14.250	1200.568	894.009
193.329	14.280	1200.183	893.803
194.344	14.253	1199.068	892.749
195.359	14.390	1198.337	892.863
196.373	14.460	1197.628	892.629
197.388	14.326	1197.332	891.613
198.402	14.509	1197.242	892.445
199.417	14.513	1196.102	891.536
200.432	14.495	1195.472	890.892
201.446	14.586	1194.706	890.727
202.461	14.567	1193.793	889.867
203.475	14.518	1192.642	888.674
204.490	14.616	1191.467	888.238
205.504	14.650	1189.754	887.065
206.519	14.579	1188.624	885.765
207.534	14.609	1188.014	885.393
208.548	14.570	1186.995	884.345
209.563	14.671	1186.149	884.172
210.577	14.615	1185.020	882.957
211.592	14.646	1184.442	882.613
212.607	14.754	1183.345	882.288
213.621	14.809	1182.501	881.872
214.636	14.678	1181.663	880.478
215.650	14.821	1180.574	880.341
216.665	14.765	1179.670	879.296
217.680	14.764	1178.979	878.695
218.694	14.894	1178.282	878.784
219.709	14.800	1177.331	877.504
220.723	14.815	1176.749	877.071
221.738	14.816	1175.932	876.385
222.753	14.891	1175.242	876.186
223.767	14.780	1174.540	875.009
224.782	14.824	1174.249	874.942
225.796	14.952	1173.200	874.755
226.811	15.054	1172.402	874.613
227.826	14.994	1171.708	873.707
228.840	14.914	1171.343	872.938
229.855	14.848	1170.599	871.960
230.869	14.887	1169.804	871.499
231.884	15.013	1168.189	870.870
232.899	14.905	1167.981	870.076
233.913	14.834	1167.457	869.239
234.928	14.988	1166.225	869.046
235.942	14.923	1165.704	868.246
236.957	14.970	1164.801	867.739
237.972	14.992	1164.008	867.182
238.986	14.954	1163.755	866.723
240.001	14.912	1163.269	866.064
241.015	14.897	1162.437	865.291
242.030	15.024	1160.819	864.666
243.045	15.055	1160.374	864.420
244.059	15.085	1159.574	863.901
245.074	15.057	1158.776	863.089
246.088	15.152	1157.826	862.791
247.103	15.114	1156.847	861.791
248.117	15.153	1156.503	861.661
249.132	15.176	1156.030	861.349
250.147	15.347	1154.701	861.161
251.161	15.267	1154.454	860.489
252.176	15.459	1153.197	860.460
253.190	15.418	1152.836	859.903
254.205	15.449	1152.403	859.663
255.220	15.341	1151.954	858.702
256.234	15.357	1151.159	858.113
257.249	15.405	1150.186	857.560
258.263	15.472	1149.565	857.361
259.278	15.386	1149.492	856.793
260.293	15.442	1148.474	856.244
261.307	15.432	1148.522	856.153
262.322	15.644	1147.465	856.367
263.336	15.599	1146.546	855.378
264.351	15.642	1145.989	855.104
265.366	15.595	1145.427	854.371
266.380	15.660	1144.191	853.704
267.395	15.620	1143.547	852.947
268.409	15.589	1142.941	852.260
269.424	15.535	1142.866	851.854
270.439	15.546	1142.047	851.225
271.453	15.626	1140.912	850.708
272.468	15.628	1140.016	849.978
273.482	15.659	1139.615	849.761
274.497	15.589	1138.840	848.751
275.512	15.673	1138.278	848.684
276.526	15.654	1137.530	847.954
277.541	15.633	1136.948	847.341
278.555	15.745	1135.868	847.024
279.570	15.765	1135.710	846.930
280.585	15.795	1134.915	846.412
281.599	15.865	1133.310	845.493
282.614	15.840	1132.270	844.516
283.628	15.782	1131.511	843.585
284.643	15.865	1130.388	843.087
285.657	15.887	1129.965	842.812
286.672	15.756	1129.101	841.435
287.687	15.817	1128.296	841.065
288.701	15.952	1126.895	840.620
289.716	15.904	1126.340	839.891
290.730	15.954	1126.103	839.890
291.745	15.952	1125.289	839.198
292.760	15.928	1124.728	838.585
293.774	15.991	1123.912	838.218
294.789	16.036	1123.390	837.977
295.803	16.044	1122.777	837.487
296.818	15.956	1122.329	836.641
297.833	16.028	1121.556	836.348
298.847	16.013	1120.511	835.424
299.862	16.048	1119.927	835.083
300.876	16.054	1119.059	834.394
301.891	16.164	1118.171	834.201
302.906	16.180	1117.591	833.773
303.920	16.181	1116.975	833.248
304.935	16.177	1116.440	832.755
305.949	16.193	1115.582	832.117
306.964	16.184	1115.315	831.801
307.979	16.099	1114.270	830.531
308.993	16.281	1113.304	830.633
310.008	16.246	1112.595	829.859
311.022	16.274	1112.182	829.615
312.037	16.298	1111.555	829.188
313.052	16.274	1110.315	828.076
314.066	16.282	1109.668	827.557
315.081	16.214	1108.422	826.221
316.095	16.305	1107.606	825.986
317.110	16.232	1106.997	825.104
318.125	16.337	1106.295	825.021
319.139	16.248	1105.860	824.189
320.154	16.362	1105.301	824.252
321.168	16.337	1104.542	823.491
322.183	16.381	1103.861	823.127
323.197	16.365	1103.648	822.815
324.212	16.279	1103.076	821.897
325.227	16.214	1102.752	821.267
326.241	16.284	1101.877	820.883
327.256	16.356	1100.803	820.362
328.270	16.453	1099.617	819.878
329.285	16.426	1098.406	818.769
330.300	16.349	1098.162	818.141
331.314	16.321	1097.101	817.142
332.329	16.459	1096.191	817.061
333.343	16.419	1095.514	816.291
334.358	16.371	1095.052	815.640
335.373	16.646	1093.291	815.586
336.387	16.590	1093.159	815.143
337.402	16.513	1092.316	814.073
338.416	16.595	1091.521	813.800
339.431	16.619	1090.967	813.433
340.446	16.600	1090.479	812.905
341.460	16.675	1089.884	812.748
342.475	16.625	1088.457	811.372
343.489	16.633	1087.811	810.861
344.504	16.739	1086.985	810.679
345.519	16.744	1086.043	809.929
346.533	16.742	1085.336	809.322
347.548	16.792	1084.910	809.171
348.562	16.950	1083.784	809.012
349.577	16.854	1083.183	808.037
350.592	16.745	1082.807	807.164
351.606	16.845	1081.775	806.798
352.621	16.784	1081.271	806.063
353.635	16.798	1080.314	805.345
354.650	16.765	1079.921	804.823
355.665	16.795	1079.179	804.340
356.679	16.892	1078.306	804.079
357.694	16.817	1077.625	803.144
358.708	16.923	1077.225	803.274
359.723	16.909	1076.577	802.655
360.738	16.843	1075.680	801.604
361.752	16.929	1075.338	801.683
362.767	16.923	1074.981	801.319
363.781	17.023	1074.082	801.052
364.796	16.991	1073.499	800.393
365.810	17.094	1072.744	800.247
366.825	17.120	1072.339	799.997
367.840	17.016	1072.322	799.420
368.854	17.147	1071.190	799.122
369.869	17.122	1070.743	798.601
370.883	17.155	1069.364	797.658
371.898	17.014	1069.505	797.028
372.913	17.235	1068.398	797.170
373.927	17.177	1068.193	796.676
374.942	17.214	1067.382	796.174
375.956	17.317	1066.294	795.774
376.971	17.264	1066.286	795.450
377.986	17.287	1065.738	795.079
379.000	17.292	1065.286	794.693
380.015	17.225	1064.819	793.962
381.029	17.311	1063.857	793.577
382.044	17.437	1063.451	793.791
383.059	17.409	1062.294	792.726
384.073	17.444	1061.317	792.091
385.088	17.512	1060.448	791.686
386.102	17.424	1059.703	790.651
387.117	17.500	1058.778	790.244
388.132	17.365	1057.985	788.958
389.146	17.475	1057.438	788.990
390.161	17.333	1056.568	787.612
391.175	17.373	1055.870	787.208
392.190	17.381	1055.508	786.908
393.205	17.526	1054.363	786.651
394.219	17.588	1053.832	786.472
395.234	17.595	1052.885	785.730
396.248	17.565	1051.683	784.622
397.263	17.548	1050.471	783.573
398.278	17.364	1050.297	782.525
399.292	17.485	1049.475	782.400
400.307	17.465	1048.729	781.681
401.321	17.424	1048.139	780.985
402.336	17.372	1047.488	780.194
403.350	17.536	1046.962	780.483
404.365	17.455	1046.734	779.876
405.380	17.535	1045.449	779.212
406.394	17.590	1044.510	778.696
407.409	17.690	1043.741	778.510
408.423	17.744	1043.243	778.316
409.438	17.768	1042.524	777.822
410.453	17.841	1042.072	777.746
411.467	17.719	1041.467	776.671
412.482	17.715	1041.031	776.260
413.496	17.798	1039.665	775.551
414.511	17.895	1039.404	775.726
415.526	17.859	1038.677	774.952
416.540	17.951	1038.755	775.361
417.555	17.828	1038.250	774.357
418.569	17.855	1037.498	773.852
419.584	17.951	1036.830	773.717
420.599	17.812	1037.186	773.286
421.613	109.339	1327.870	1488.797
422.628	100.357	1370.145	1488.880
