DTS Sentinel unit serial number:	SN413079Multiplexer serial number:	ORYXHardware model number:	OX4-SRSoftware version number:	ORYX F/W v4.00 Oryx Data Collector v3.7.2.0data status	okinstallation	princeton_trtdifferential loss correction	single-endedforward channel	channel 2reverse channel	N/Adate	2019/09/19time	10:51:35forward acquisition time	60.00reverse acquisition time	0.00gamma	496.2192k internal	0.2342k external	0.2342temperature offset calibration	1.0009default loss term (dB/km)	0.3790temperature slope calibration	1.0000multiplexer offset coefficient	1.0000multiplexer slope coefficient	1.0000fibre end	0.00T internal ref (°C)	24.75T ext. ref 1 (°C)	0.74T ext. ref 2 (°C)	20.17length (m)	temperature (°C)	Stokes	anti-Stokes-747.200	141.689	0.260	0.344
-746.185	-115.574	-0.127	0.024
-745.171	-200.000	0.015	0.141
-744.156	-109.571	-0.291	0.061
-743.142	800.000	0.022	0.087
-742.127	-124.925	-0.233	-0.036
-741.112	177.334	0.257	-0.376
-740.098	-114.616	-0.453	0.087
-739.083	-93.025	-0.062	-0.017
-738.069	-97.727	-0.400	-0.104
-737.054	-200.000	-0.044	-0.245
-736.039	-70.730	-0.313	0.118
-735.025	65.140	0.184	0.186
-734.010	-200.000	-0.005	-0.430
-732.996	368.616	0.046	0.092
-731.981	-76.410	-0.632	0.223
-730.966	303.966	0.078	0.145
-729.952	9.063	0.367	-0.277
-728.937	-200.000	-0.029	-0.365
-727.923	800.000	-0.169	-0.698
-726.908	-10.334	-0.082	-0.055
-725.894	-120.715	0.041	-0.007
-724.879	354.953	0.037	0.073
-723.864	10.097	-0.152	-0.116
-722.850	-35.389	0.237	0.129
-721.835	311.814	0.050	0.094
-720.821	800.000	-0.030	0.103
-719.806	-158.332	0.346	0.020
-718.791	27.500	-0.291	-0.245
-717.777	666.832	-0.060	-0.154
-716.762	-129.125	-0.119	0.017
-715.748	800.000	0.070	0.291
-714.733	-22.495	0.047	0.029
-713.718	-200.000	-0.075	0.332
-712.704	-200.000	0.030	-0.270
-711.689	85.411	0.104	0.115
-710.675	-200.000	-0.006	-0.189
-709.660	188.244	0.074	-0.111
-708.645	800.000	0.051	0.175
-707.631	9.285	0.086	-0.065
-706.616	-12.794	0.204	0.133
-705.602	-75.377	-0.283	0.101
-704.587	14.652	-0.109	0.085
-703.572	-59.810	0.062	-0.026
-702.558	-187.170	-0.146	0.002
-701.543	23.108	-0.266	0.218
-700.529	-76.508	0.203	0.071
-699.514	-200.000	0.002	-0.014
-698.499	0.220	-0.023	-0.016
-697.485	-50.707	0.198	0.093
-696.470	-91.246	0.284	-0.081
-695.456	247.240	0.125	-0.211
-694.441	-10.859	0.201	0.133
-693.426	-89.778	-0.336	-0.098
-692.412	-131.654	0.075	0.010
-691.397	54.265	0.212	0.204
-690.383	43.216	0.214	-0.195
-689.368	-200.000	0.011	-0.300
-688.354	800.000	0.074	-0.267
-687.339	-68.459	0.138	-0.053
-686.324	-8.013	-0.155	0.104
-685.310	-181.781	0.168	0.003
-684.295	-200.000	0.006	-0.177
-683.281	-46.026	-0.113	-0.055
-682.266	800.000	-0.053	0.187
-681.251	-200.000	-0.025	0.158
-680.237	800.000	0.047	-0.132
-679.222	76.621	0.115	0.122
-678.208	221.771	-0.228	0.366
-677.193	800.000	-0.132	-0.366
-676.178	800.000	0.057	-0.204
-675.164	227.903	0.023	-0.038
-674.149	-200.000	0.003	0.080
-673.135	-66.895	-0.348	-0.137
-672.120	-35.763	0.262	0.142
-671.105	471.034	0.115	0.259
-670.091	800.000	-0.038	-0.139
-669.076	-200.000	0.031	0.170
-668.062	-44.999	-0.173	-0.086
-667.047	-42.319	-0.306	-0.156
-666.032	-200.000	0.015	-0.110
-665.018	14.051	0.063	0.049
-664.003	-200.000	-0.026	0.367
-662.989	124.079	0.137	-0.172
-661.974	-200.000	-0.008	-0.114
-660.959	-61.905	0.292	0.122
-659.945	760.562	0.046	-0.126
-658.930	-148.482	0.189	0.015
-657.916	-64.581	-0.027	-0.011
-656.901	-200.000	0.028	0.150
-655.886	60.846	-0.031	-0.030
-654.872	54.638	-0.095	0.091
-653.857	-15.380	0.225	-0.143
-652.843	-200.000	0.007	0.075
-651.828	29.816	0.156	-0.133
-650.814	30.096	0.226	0.192
-649.799	111.944	-0.037	0.045
-648.784	-31.888	0.392	-0.219
-647.770	-143.544	-0.333	0.032
-646.755	-132.475	-0.333	-0.043
-645.741	271.442	-0.083	0.146
-644.726	624.605	-0.020	0.050
-643.711	112.528	-0.039	-0.047
-642.697	-200.000	-0.003	-0.300
-641.682	-50.649	-0.108	-0.051
-640.668	-60.421	0.132	0.056
-639.653	-161.517	-0.378	-0.019
-638.638	-17.346	0.168	0.106
-637.624	90.401	0.250	0.279
-636.609	261.932	-0.088	-0.153
-635.595	95.885	0.285	-0.325
-634.580	189.329	0.081	0.120
-633.565	599.052	-0.077	0.190
-632.551	48.883	0.298	-0.279
-631.536	245.218	-0.165	-0.277
-630.522	201.957	-0.078	-0.120
-629.507	311.306	-0.131	-0.244
-628.492	800.000	0.074	-0.211
-627.478	-200.000	0.012	0.110
-626.463	800.000	0.058	-0.204
-625.449	-50.349	-0.069	0.033
-624.434	333.478	0.012	0.024
-623.419	35.914	0.139	-0.122
-622.405	-73.600	0.340	-0.123
-621.390	-91.577	-0.060	0.017
-620.376	13.496	0.131	-0.101
-619.361	1.281	-0.256	-0.184
-618.346	800.000	0.083	0.244
-617.332	800.000	-0.098	0.298
-616.317	-50.781	0.189	-0.088
-615.303	-24.794	0.288	-0.171
-614.288	31.100	0.116	-0.099
-613.273	132.844	-0.196	0.252
-612.259	-35.482	-0.289	-0.157
-611.244	-90.999	-0.171	-0.049
-610.230	800.000	-0.045	-0.164
-609.215	-200.000	-0.005	0.031
-608.201	-200.000	0.022	0.263
-607.186	800.000	0.038	0.133
-606.171	800.000	-0.081	-0.242
-605.157	-0.608	0.143	0.101
-604.142	96.719	-0.095	0.108
-603.128	-54.729	0.251	-0.113
-602.113	10.418	-0.293	-0.222
-601.098	-113.574	0.252	0.049
-600.084	484.695	0.105	0.239
-599.069	-200.000	0.038	0.192
-598.055	-200.000	-0.012	-0.301
-597.040	-200.000	0.021	-0.200
-596.025	688.535	-0.070	-0.183
-595.011	-200.000	0.000	0.041
-593.996	-63.798	-0.091	-0.037
-592.982	-200.000	0.063	0.384
-591.967	29.768	0.124	-0.105
-590.952	800.000	0.024	0.100
-589.938	4.255	-0.095	-0.069
-588.923	203.458	-0.138	0.212
-587.909	56.943	0.128	0.124
-586.894	3.245	0.259	0.187
-585.879	-90.883	-0.257	-0.074
-584.865	-128.093	-0.261	-0.037
-583.850	-200.000	-0.021	-0.099
-582.836	362.663	0.011	-0.022
-581.821	-200.000	-0.032	-0.282
-580.806	-4.354	0.172	-0.119
-579.792	-68.825	-0.074	0.028
-578.777	-85.590	-0.207	-0.064
-577.763	481.117	0.217	-0.491
-576.748	800.000	-0.128	-0.385
-575.733	-74.165	-0.195	0.070
-574.719	86.671	-0.107	-0.118
-573.704	-142.822	-0.090	0.009
-572.690	-70.158	-0.535	-0.202
-571.675	21.970	-0.126	-0.103
-570.661	-200.000	0.000	-0.346
-569.646	14.707	0.032	-0.025
-568.631	3.760	-0.121	-0.088
-567.617	180.055	0.051	-0.075
-566.602	33.128	-0.086	0.074
-565.588	-142.949	0.153	-0.015
-564.573	-104.459	-0.377	-0.087
-563.558	-200.000	0.034	-0.230
-562.544	-138.557	0.231	-0.025
-561.529	180.096	-0.102	-0.149
-560.515	85.406	-0.298	-0.326
-559.500	84.064	-0.255	0.277
-558.485	-200.000	-0.034	-0.186
-557.471	-200.000	-0.005	-0.087
-556.456	-85.125	-0.246	-0.077
-555.442	-148.228	-0.053	-0.004
-554.427	3.577	-0.248	-0.180
-553.412	-82.698	-0.178	0.057
-552.398	-131.778	-0.214	0.028
-551.383	53.789	-0.084	-0.080
-550.369	-26.399	0.231	0.135
-549.354	122.344	-0.106	-0.132
-548.339	766.214	-0.087	0.235
-547.325	-65.592	-0.271	0.108
-546.310	184.203	0.147	-0.217
-545.296	-12.867	0.144	0.093
-544.281	-200.000	-0.029	-0.134
-543.266	-101.733	-0.064	0.015
-542.252	800.000	-0.081	-0.293
-541.237	39.826	0.208	-0.186
-540.223	-200.000	0.010	0.145
-539.208	14.383	-0.178	-0.138
-538.193	56.513	0.256	-0.248
-537.179	-29.988	-0.168	-0.095
-536.164	-111.421	-0.124	-0.025
-535.150	-30.323	0.059	0.033
-534.135	444.092	-0.040	0.087
-533.121	-62.105	0.261	0.108
-532.106	-65.453	-0.248	0.099
-531.091	-200.000	0.011	0.179
-530.077	800.000	0.062	0.254
-529.062	-200.000	-0.030	-0.315
-528.048	-52.819	0.454	-0.208
-527.033	-85.947	0.400	0.123
-526.018	158.419	0.243	0.334
-525.004	-50.114	0.160	0.075
-523.989	620.929	-0.020	0.051
-522.975	407.253	-0.077	0.163
-521.960	-17.620	0.107	-0.067
-520.945	554.227	0.131	0.313
-519.931	-88.721	-0.170	-0.050
-518.916	-95.775	-0.225	0.060
-517.902	-14.117	0.186	-0.119
-516.887	-103.897	0.074	-0.017
-515.872	250.231	-0.020	-0.033
-514.858	263.607	-0.043	0.073
-513.843	-8.421	0.145	0.097
-512.829	72.290	0.279	0.288
-511.814	433.308	-0.074	0.159
-510.799	186.434	-0.197	0.291
-509.785	35.293	-0.113	0.098
-508.770	800.000	0.084	0.307
-507.756	-200.000	-0.014	-0.069
-506.741	-44.609	0.145	0.072
-505.726	-71.152	-0.154	-0.058
-504.712	601.570	0.167	-0.411
-503.697	-200.000	0.029	-0.422
-502.683	563.270	-0.042	-0.102
-501.668	800.000	0.028	0.097
-500.653	-51.905	0.152	0.070
-499.639	-155.931	-0.084	-0.005
-498.624	-158.566	-0.120	-0.007
-497.610	20.875	0.048	0.038
-496.595	800.000	0.055	0.231
-495.581	-70.043	-0.330	0.125
-494.566	-200.000	-0.039	-0.351
-493.551	800.000	0.069	-0.215
-492.537	800.000	-0.029	-0.099
-491.522	-51.995	-0.102	-0.047
-490.508	751.881	-0.016	-0.042
-489.493	-200.000	-0.020	0.119
-488.478	37.413	-0.135	-0.118
-487.464	77.022	0.189	0.199
-486.449	-24.864	-0.173	0.102
-485.435	-26.991	-0.268	-0.155
-484.420	74.449	0.129	-0.135
-483.405	139.867	0.275	0.359
-482.391	-200.000	0.001	-0.030
-481.376	-200.000	-0.005	-0.075
-480.362	-95.184	-0.115	-0.031
-479.347	-13.845	-0.109	-0.070
-478.332	34.813	0.286	0.248
-477.318	-200.000	-0.025	-0.116
-476.303	179.567	-0.120	0.175
-475.289	-77.134	-0.180	-0.062
-474.274	800.000	0.074	-0.298
-473.259	196.890	0.090	0.137
-472.245	-110.399	0.087	0.018
-471.230	-24.136	0.183	0.109
-470.216	118.583	-0.162	0.198
-469.201	280.758	0.120	0.213
-468.186	800.000	-0.020	-0.073
-467.172	44.131	0.167	-0.152
-466.157	168.825	0.184	-0.260
-465.143	452.033	-0.056	-0.122
-464.128	518.073	-0.087	0.202
-463.113	-3.970	0.220	-0.151
-462.099	1.139	0.085	0.061
-461.084	-73.487	-0.178	0.064
-460.070	86.816	-0.168	0.184
-459.055	-158.211	0.291	-0.017
-458.040	-200.000	-0.051	-0.314
-457.026	-157.149	-0.061	-0.004
-456.011	142.777	0.192	-0.253
-454.997	-18.915	0.060	0.037
-453.982	-63.719	0.383	0.155
-452.968	800.000	-0.094	0.273
-451.953	-82.913	0.293	0.094
-450.938	-2.079	0.036	-0.025
-449.924	51.436	-0.174	-0.164
-448.909	131.887	-0.012	-0.016
-447.895	97.778	-0.076	0.087
-446.880	-200.000	0.061	-0.465
-445.865	106.074	0.107	0.126
-444.851	79.224	0.119	0.126
-443.836	84.115	0.092	0.099
-442.822	-62.009	0.218	0.090
-441.807	-200.000	-0.012	0.162
-440.792	-18.156	0.200	0.124
-439.778	-13.089	0.243	0.157
-438.763	-200.000	-0.007	0.259
-437.749	-9.027	0.346	-0.229
-436.734	-168.559	0.135	0.005
-435.719	-159.315	-0.618	0.034
-434.705	-61.972	0.135	-0.056
-433.690	0.342	0.146	-0.103
-432.676	-28.434	0.129	0.074
-431.661	-164.734	0.234	-0.010
-430.646	264.503	0.045	0.078
-429.632	13.069	0.044	0.034
-428.617	-200.000	-0.056	-0.368
-427.603	-56.681	-0.206	-0.090
-426.588	-70.055	-0.262	0.099
-425.573	93.896	-0.355	0.398
-424.559	158.116	0.063	0.086
-423.544	-25.028	0.250	-0.147
-422.530	-39.770	-0.327	0.169
-421.515	-41.927	-0.063	-0.032
-420.500	-5.421	0.072	-0.049
-419.486	800.000	-0.035	-0.142
-418.471	-157.901	-0.360	-0.021
-417.457	-123.652	-0.264	-0.041
-416.442	168.582	-0.050	-0.070
-415.428	-200.000	-0.005	-0.060
-414.413	-25.340	-0.218	0.128
-413.398	-131.462	-0.101	0.013
-412.384	11.047	-0.053	-0.040
-411.369	-99.850	-0.065	0.016
-410.355	-200.000	0.036	-0.310
-409.340	19.283	-0.147	0.117
-408.325	-74.638	0.017	0.006
-407.311	-200.000	-0.002	-0.072
-406.296	-12.069	0.103	-0.067
-405.282	99.634	-0.111	0.127
-404.267	-200.000	0.036	0.241
-403.252	525.416	-0.048	0.112
-402.238	129.430	0.037	0.047
-401.223	93.233	-0.080	-0.090
-400.209	-200.000	-0.002	0.251
-399.194	111.062	0.121	0.144
-398.179	-182.513	-0.521	-0.009
-397.165	-64.788	-0.069	0.027
-396.150	69.968	0.167	0.170
-395.136	190.525	-0.081	-0.120
-394.121	-115.162	-0.211	0.040
-393.106	-55.922	-0.190	-0.084
-392.092	1.934	0.047	0.033
-391.077	9.490	0.235	-0.176
-390.063	79.464	-0.372	0.394
-389.048	-200.000	-0.026	0.405
-388.033	517.026	0.098	-0.226
-387.019	327.357	0.148	-0.281
-386.004	38.718	-0.101	-0.089
-384.990	669.825	-0.046	0.117
-383.975	-200.000	-0.023	-0.107
-382.960	75.122	0.242	-0.251
-381.946	-200.000	0.024	-0.203
-380.931	430.116	-0.105	0.223
-379.917	-71.183	-0.125	0.046
-378.902	-200.000	-0.021	0.114
-377.888	-200.000	-0.015	0.381
-376.873	800.000	-0.012	0.044
-375.858	88.221	0.101	0.110
-374.844	242.947	-0.127	0.210
-373.829	-195.123	-0.226	0.002
-372.815	-57.701	-0.543	0.235
-371.800	-63.574	-0.343	0.139
-370.785	-200.000	-0.039	0.189
-369.771	574.435	-0.075	0.179
-368.756	800.000	-0.091	-0.339
-367.742	-50.858	-0.033	0.015
-366.727	-54.684	-0.100	-0.044
-365.712	-200.000	0.021	0.251
-364.698	-75.216	-0.159	0.056
-363.683	-27.149	-0.169	0.097
-362.669	618.683	-0.070	-0.174
-361.654	-118.775	-0.149	0.026
-360.639	5.512	-0.394	0.287
-359.625	228.923	0.054	-0.088
-358.610	-89.215	0.198	0.058
-357.596	122.149	0.120	-0.148
-356.581	-142.101	0.257	0.025
-355.566	30.620	-0.122	0.103
-354.552	-200.000	-0.031	0.194
-353.537	78.049	0.190	0.200
-352.523	330.845	0.130	0.248
-351.508	5.057	0.166	0.120
-350.493	-17.933	-0.280	-0.173
-349.479	-86.397	0.060	-0.018
-348.464	289.986	0.083	-0.148
-347.450	29.156	-0.112	-0.094
-346.435	53.369	-0.073	0.069
-345.420	-200.000	-0.003	0.144
-344.406	473.230	-0.073	-0.163
-343.391	14.954	0.259	-0.200
-342.377	413.443	0.050	-0.104
-341.362	800.000	-0.133	-0.407
-340.348	-200.000	-0.015	-0.169
-339.333	27.132	0.125	0.103
-338.318	-200.000	0.002	-0.028
-337.304	18.211	0.298	0.235
-336.289	18.476	-0.208	-0.164
-335.275	772.316	-0.097	-0.260
-334.260	36.878	-0.259	0.226
-333.245	-200.000	0.105	-0.469
-332.231	343.743	-0.087	0.168
-331.216	74.294	0.260	-0.270
-330.202	-15.389	0.202	-0.127
-329.187	146.628	0.075	-0.099
-328.172	800.000	0.002	-0.006
-327.158	800.000	-0.034	-0.107
-326.143	-200.000	0.033	0.268
-325.129	79.256	-0.053	-0.056
-324.114	7.459	0.067	0.050
-323.099	44.026	0.253	-0.229
-322.085	360.665	0.107	0.210
-321.070	-87.084	0.239	0.072
-320.056	88.612	0.220	-0.241
-319.041	-23.081	-0.182	-0.108
-318.026	800.000	-0.023	0.071
-317.012	-140.079	0.346	-0.036
-315.997	-200.000	-0.010	0.067
-314.983	-200.000	0.044	0.265
-313.968	-140.711	0.148	-0.015
-312.953	297.053	0.053	-0.095
-311.939	44.871	0.174	0.158
-310.924	-74.232	0.358	-0.128
-309.910	-200.000	0.036	-0.194
-308.895	-200.000	0.008	0.153
-307.880	471.654	0.069	-0.153
-306.866	-200.000	0.017	0.196
-305.851	365.702	-0.082	0.162
-304.837	-200.000	0.044	-0.200
-303.822	29.029	0.156	0.131
-302.807	-140.606	-0.313	0.032
-301.793	-126.233	-0.175	-0.026
-300.778	181.978	0.055	0.080
-299.764	-200.000	0.017	-0.312
-298.749	800.000	0.091	-0.271
-297.735	237.818	0.051	0.084
-296.720	-111.867	-0.073	0.014
-295.705	4.261	0.390	0.281
-294.691	-61.651	-0.054	0.022
-293.676	548.924	-0.108	0.255
-292.662	5.397	-0.051	0.037
-291.647	667.709	0.031	0.078
-290.632	-75.678	-0.259	0.091
-289.618	14.339	0.154	0.118
-288.603	122.705	0.053	0.066
-287.589	109.195	-0.034	-0.040
-286.574	-110.231	-0.213	0.044
-285.559	-70.357	-0.112	-0.042
-284.545	326.692	-0.162	0.305
-283.530	400.406	0.101	-0.209
-282.516	800.000	0.023	-0.069
-281.501	197.810	0.058	0.087
-280.486	-200.000	-0.047	0.231
-279.472	-154.322	0.116	0.008
-278.457	800.000	-0.113	-0.420
-277.443	-200.000	-0.005	0.136
-276.428	-200.000	0.008	0.156
-275.413	-73.754	-0.225	-0.080
-274.399	-200.000	-0.080	-0.459
-273.384	-76.169	-0.174	-0.060
-272.370	-200.000	-0.012	-0.361
-271.355	-95.110	0.381	0.101
-270.340	-85.591	0.250	0.076
-269.326	286.650	-0.123	-0.219
-268.311	-55.756	0.156	0.068
-267.297	-74.956	-0.347	-0.122
-266.282	-123.886	0.292	-0.045
-265.267	-175.779	0.122	0.003
-264.253	-31.773	0.187	0.103
-263.238	-200.000	0.002	0.177
-262.224	443.230	-0.069	0.149
-261.209	21.961	0.163	-0.130
-260.195	44.202	0.225	-0.203
-259.180	-30.872	-0.214	0.119
-258.165	-58.700	-0.188	0.080
-257.151	-88.742	0.200	-0.058
-256.136	-140.933	0.192	0.019
-255.122	-105.134	-0.425	-0.096
-254.107	501.101	0.158	-0.359
-253.092	97.688	-0.200	-0.226
-252.078	55.005	-0.167	0.159
-251.063	-118.956	-0.048	-0.008
-250.049	97.412	0.103	0.116
-249.034	50.797	0.305	0.284
-248.019	-3.207	0.073	-0.050
-247.005	-138.236	0.136	-0.015
-245.990	-200.000	0.032	0.213
-244.976	-113.590	0.153	-0.029
-243.961	-13.463	0.305	0.194
-242.946	-200.000	-0.010	0.160
-241.932	187.358	0.178	0.261
-240.917	-42.249	-0.360	0.180
-239.903	-12.953	-0.131	-0.083
-238.888	-4.297	0.139	0.095
-237.873	-200.000	-0.013	0.393
-236.859	-200.000	0.043	-0.257
-235.844	145.503	-0.060	-0.079
-234.830	800.000	0.043	0.148
-233.815	119.209	0.349	-0.424
-232.800	-0.159	-0.175	-0.122
-231.786	136.911	0.081	-0.104
-230.771	459.028	0.051	0.111
-229.757	-26.388	-0.166	0.096
-228.742	50.275	0.254	-0.236
-227.727	-10.073	0.100	-0.065
-226.713	440.621	-0.123	0.264
-225.698	-119.718	0.106	0.018
-224.684	-31.403	-0.199	0.110
-223.669	-57.809	0.528	0.227
-222.655	-200.000	-0.038	0.220
-221.640	400.066	-0.103	-0.213
-220.625	-55.493	-0.248	-0.109
-219.611	13.842	-0.194	0.148
-218.596	-200.000	0.068	0.361
-217.582	-194.434	0.257	-0.002
-216.567	-118.115	0.309	0.054
-215.552	-33.280	0.030	0.016
-214.538	-22.002	0.098	-0.059
-213.523	-68.297	0.179	-0.068
-212.509	-191.298	-0.212	-0.002
-211.494	-85.836	-0.231	-0.070
-210.479	-173.266	-0.153	0.005
-209.465	712.922	-0.012	0.032
-208.450	-59.286	-0.146	-0.062
-207.436	-121.160	0.058	-0.009
-206.421	-13.496	0.035	0.022
-205.406	128.131	-0.108	0.134
-204.392	-82.462	-0.142	0.045
-203.377	-200.000	-0.023	-0.586
-202.363	-14.688	0.259	-0.163
-201.348	438.593	0.075	-0.161
-200.333	-1.586	0.207	0.143
-199.319	-200.000	-0.061	0.334
-198.304	-6.280	0.076	-0.051
-197.290	-200.000	-0.060	-0.320
-196.275	37.025	-0.162	-0.141
-195.260	51.965	0.312	0.291
-194.246	739.228	0.043	0.114
-193.231	-200.000	0.013	0.107
-192.217	151.392	0.208	-0.278
-191.202	39.029	0.312	0.274
-190.187	800.000	0.047	0.200
-189.173	87.244	-0.148	-0.161
-188.158	184.095	-0.035	-0.051
-187.144	-171.618	0.415	-0.013
-186.129	-110.634	-0.150	-0.030
-185.114	321.858	-0.091	-0.170
-184.100	-100.505	-0.161	-0.039
-183.085	-200.000	-0.053	-0.263
-182.071	140.737	0.210	-0.272
-181.056	787.667	0.073	-0.196
-180.042	-200.000	-0.005	0.148
-179.027	117.457	0.294	0.355
-178.012	-110.082	0.337	-0.069
-176.998	234.829	-0.105	-0.169
-175.983	8.965	-0.284	0.210
-174.969	-40.690	0.084	-0.043
-173.954	269.744	0.088	0.151
-172.939	47.590	0.052	0.047
-171.925	705.050	0.112	0.290
-170.910	-137.230	-0.086	0.010
-169.896	-200.000	-0.030	-0.265
-168.881	108.328	-0.268	0.313
-167.866	32.373	-0.276	0.234
-166.852	-169.510	0.111	-0.004
-165.837	-62.280	0.168	0.068
-164.823	147.533	-0.092	0.122
-163.808	-112.533	-0.194	-0.038
-162.793	-200.000	0.077	0.463
-161.779	800.000	0.018	0.076
-160.764	12.981	-0.103	0.078
-159.750	-45.846	0.188	-0.091
-158.735	800.000	0.047	0.159
-157.720	39.687	0.130	0.114
-156.706	121.535	-0.208	-0.253
-155.691	-99.852	-0.178	0.043
-154.677	-44.337	-0.379	0.186
-153.662	1.515	0.192	-0.135
-152.647	-91.667	-0.168	0.047
-151.633	800.000	-0.085	0.261
-150.618	227.024	-0.059	-0.093
-149.604	77.818	0.065	-0.068
-148.589	-102.878	-0.092	-0.021
-147.574	-37.800	-0.164	0.086
-146.560	256.535	-0.151	0.254
-145.545	79.431	0.136	0.143
-144.531	-2.047	0.109	-0.075
-143.516	-53.269	0.171	-0.077
-142.502	-65.930	0.175	0.068
-141.487	254.791	0.237	0.397
-140.472	52.394	0.369	0.345
-139.458	145.211	-0.177	-0.231
-138.443	273.178	0.119	-0.206
-137.429	-153.118	-0.314	-0.022
-136.414	518.237	-0.023	0.053
-135.399	-200.000	0.012	-0.128
-134.385	-161.461	0.366	0.018
-133.370	-80.011	-0.234	-0.077
-132.356	147.525	0.104	0.137
-131.341	55.008	0.093	0.088
-130.326	-200.000	0.004	0.023
-129.312	-67.351	0.085	-0.033
-128.297	223.667	0.122	-0.192
-127.283	26.558	0.134	0.109
-126.268	-200.000	0.003	0.031
-125.253	638.950	0.131	-0.325
-124.239	-50.486	0.340	-0.157
-123.224	-200.000	0.019	0.110
-122.210	772.669	0.077	0.206
-121.195	41.883	-0.079	0.070
-120.180	-88.321	0.141	0.041
-119.166	-82.186	0.123	-0.039
-118.151	-200.000	0.111	-0.577
-117.137	-24.211	0.248	0.145
-116.122	-200.000	-0.030	0.434
-115.107	36.066	0.172	0.148
-114.093	165.830	0.211	0.292
-113.078	-7.839	0.257	0.170
-112.064	-156.753	0.306	0.018
-111.049	-140.605	-0.186	0.019
-110.034	-83.312	0.097	-0.030
-109.020	-51.283	-0.126	-0.058
-108.005	-56.251	-0.239	-0.104
-106.991	-149.266	0.571	0.045
-105.976	40.251	0.159	0.140
-104.962	-121.236	-0.537	0.088
-103.947	-132.180	0.212	-0.027
-102.932	311.061	0.065	0.119
-101.918	693.280	0.114	0.293
-100.903	32.934	-0.136	-0.115
-99.889	-175.018	0.144	0.004
-98.874	214.286	-0.202	0.313
-97.859	140.682	0.192	0.248
-96.845	-200.000	-0.025	-0.187
-95.830	-53.349	0.159	-0.071
-94.816	-65.098	0.160	0.063
-93.801	-86.631	0.186	-0.056
-92.786	130.840	0.104	0.131
-91.772	-4.044	0.278	0.188
-90.757	800.000	-0.092	0.282
-89.743	-31.849	-0.173	0.095
-88.728	800.000	-0.057	0.174
-87.713	800.000	0.022	-0.059
-86.699	-110.776	0.349	0.070
-85.684	-34.413	-0.087	0.046
-84.670	160.246	-0.188	-0.256
-83.655	-118.353	0.005	-0.001
-82.640	-200.000	0.025	0.175
-81.626	36.869	-0.122	0.105
-80.611	12.396	0.187	-0.140
-79.597	124.483	-0.141	0.173
-78.582	-186.895	-0.096	0.001
-77.567	58.353	0.176	-0.169
-76.553	-99.117	0.167	-0.041
-75.538	-140.736	0.118	0.012
-74.524	-200.000	0.010	-0.241
-73.509	64.929	-0.234	-0.230
-72.494	800.000	-0.111	-0.334
-71.480	707.021	0.046	0.119
-70.465	-200.000	-0.036	-0.175
-69.451	-61.648	-0.121	-0.049
-68.436	800.000	-0.059	0.178
-67.422	-200.000	-0.022	-0.424
-66.407	-38.464	0.089	-0.046
-65.392	34.926	-0.469	0.400
-64.378	800.000	-0.052	0.155
-63.363	681.037	0.131	-0.333
-62.349	152.902	0.147	0.196
-61.334	8.849	-1.236	-0.909
-60.319	56.364	0.778	0.738
-59.305	800.000	-0.323	-1.234
-58.290	784.439	0.540	1.444
-57.276	554.656	0.687	1.611
-56.261	-200.000	121.749	613.066
-55.246	378.503	1582.996	3158.601
-54.232	138.086	2763.080	3532.268
-53.217	89.201	2328.378	2529.281
-52.203	33.732	1926.946	1634.167
-51.188	27.864	1717.247	1411.082
-50.173	25.469	1676.708	1359.620
-49.159	45.223	1740.386	1564.469
-48.144	43.789	1753.827	1565.408
-47.130	27.246	1706.743	1397.481
-46.115	24.910	1691.220	1366.908
-45.100	24.711	1686.150	1361.240
-44.086	24.729	1683.376	1359.081
-43.071	24.577	1680.913	1355.885
-42.057	24.617	1678.133	1353.893
-41.042	24.598	1676.659	1352.507
-40.027	24.681	1674.554	1351.381
-39.013	24.511	1672.960	1348.760
-37.998	24.511	1671.053	1347.168
-36.984	24.648	1669.621	1346.992
-35.969	24.653	1668.341	1345.945
-34.954	24.813	1666.177	1345.349
-33.940	24.733	1664.922	1343.681
-32.925	24.736	1663.540	1342.534
-31.911	24.705	1661.901	1340.923
-30.896	24.736	1660.300	1339.815
-29.881	24.754	1658.694	1338.599
-28.867	24.711	1657.086	1336.930
-27.852	24.721	1655.588	1335.738
-26.838	24.820	1653.815	1334.995
-25.823	24.741	1652.818	1333.548
-24.809	24.818	1651.188	1332.754
-23.794	24.720	1650.160	1331.138
-22.779	24.787	1648.277	1330.066
-21.765	24.722	1646.889	1328.410
-20.750	24.762	1645.059	1327.179
-19.736	24.825	1643.765	1326.549
-18.721	24.760	1642.716	1325.168
-17.706	24.776	1641.105	1323.933
-16.692	24.769	1639.168	1322.266
-15.677	24.817	1638.133	1321.739
-14.663	24.768	1636.946	1320.367
-13.648	24.854	1634.940	1319.328
-12.633	24.798	1633.939	1318.054
-11.619	24.810	1632.170	1316.665
-10.604	24.803	1630.669	1315.351
-9.590	24.833	1629.500	1314.575
-8.575	24.859	1627.726	1313.285
-7.560	24.761	1626.746	1311.723
-6.546	24.860	1625.548	1311.429
-5.531	24.854	1624.281	1310.312
-4.517	24.774	1623.536	1309.075
-3.502	24.769	1622.600	1308.226
-2.487	24.828	1621.015	1307.333
-1.473	24.575	1608.743	1295.545
-0.458	21.999	1589.347	1261.396
0.556	17.214	1592.070	1229.749
1.571	15.149	1615.511	1232.561
2.586	14.716	1628.032	1238.791
3.600	13.664	1572.744	1189.078
4.615	7.710	1463.813	1066.769
5.629	1.851	1404.133	985.386
6.644	0.780	1396.653	973.159
7.659	0.728	1395.217	971.738
8.673	0.723	1394.764	971.308
9.688	0.739	1392.096	969.467
10.702	0.493	1389.141	965.747
11.717	3.421	1393.006	987.117
12.731	10.329	1403.218	1038.705
13.746	15.621	1411.043	1078.451
14.761	17.111	1412.835	1089.290
15.775	16.569	1410.893	1084.226
16.790	15.689	1407.902	1076.200
17.804	14.984	1405.633	1069.860
18.819	14.539	1404.503	1066.066
19.834	14.281	1403.044	1063.211
20.848	13.971	1401.888	1060.265
21.863	13.704	1400.290	1057.263
22.877	13.444	1399.234	1054.713
23.892	13.470	1398.710	1054.389
24.907	13.494	1397.604	1053.619
25.921	13.564	1396.743	1053.319
26.936	13.619	1395.304	1052.494
27.950	13.579	1394.464	1051.511
28.965	13.613	1393.836	1051.156
29.980	13.687	1392.802	1050.752
30.994	13.811	1391.662	1050.588
32.009	13.767	1390.740	1049.520
33.023	13.709	1389.499	1048.123
34.038	13.699	1388.392	1047.136
35.053	13.744	1386.853	1046.162
36.067	13.705	1386.016	1045.197
37.082	13.728	1385.356	1044.748
38.096	13.743	1383.832	1043.603
39.111	13.573	1383.750	1042.377
40.126	13.665	1382.675	1042.055
41.140	13.623	1381.899	1041.112
42.155	13.587	1381.184	1040.255
43.169	13.511	1381.420	1039.866
44.184	13.534	1380.949	1039.564
45.199	13.579	1380.330	1039.286
46.213	13.474	1380.137	1038.394
47.228	13.649	1378.523	1038.183
48.242	13.618	1377.574	1037.179
49.257	13.614	1375.988	1035.869
50.271	13.706	1374.115	1034.943
51.286	13.614	1373.149	1033.548
52.301	13.557	1372.382	1032.523
53.315	13.540	1370.879	1031.197
54.330	13.536	1369.890	1030.334
55.344	13.615	1368.509	1029.698
56.359	13.484	1367.660	1028.154
57.374	13.553	1366.348	1027.504
58.388	13.522	1366.188	1027.104
59.403	13.547	1365.296	1026.499
60.417	13.502	1364.573	1025.583
61.432	13.464	1363.652	1024.565
62.447	13.504	1362.430	1023.804
63.461	13.574	1361.234	1023.243
64.476	13.481	1360.699	1022.181
65.490	13.482	1359.027	1020.841
66.505	13.459	1357.420	1019.398
67.520	13.580	1356.265	1019.185
68.534	13.515	1355.431	1018.069
69.549	13.500	1354.338	1017.068
70.563	13.503	1353.386	1016.282
71.578	13.436	1352.402	1015.041
72.593	13.435	1350.970	1013.867
73.607	13.438	1350.338	1013.326
74.622	13.500	1349.368	1012.885
75.636	13.422	1349.098	1012.114
76.651	13.509	1347.914	1011.668
77.666	13.433	1347.534	1010.831
78.680	13.416	1347.070	1010.288
79.695	13.418	1346.274	1009.619
80.709	13.460	1345.562	1009.251
81.724	13.437	1344.164	1007.968
82.739	13.525	1343.487	1007.909
83.753	13.521	1343.036	1007.455
84.768	13.592	1341.202	1006.422
85.782	13.660	1339.879	1005.752
86.797	13.550	1338.771	1004.166
87.812	13.508	1337.627	1002.967
88.826	13.566	1336.671	1002.513
89.841	13.544	1335.621	1001.500
90.855	13.596	1334.733	1001.063
91.870	13.659	1333.399	1000.355
92.884	13.626	1332.634	999.493
93.899	13.678	1331.645	998.978
94.914	13.795	1330.523	998.748
95.928	13.723	1330.288	998.050
96.943	13.700	1329.221	997.023
97.957	13.729	1327.818	996.056
98.972	13.715	1327.024	995.289
99.987	13.715	1325.795	994.283
101.001	13.711	1324.609	993.281
102.016	13.692	1324.024	992.640
103.030	13.721	1322.909	991.887
104.045	13.739	1322.124	991.322
105.060	13.579	1321.203	989.584
106.074	13.599	1319.699	988.488
107.089	13.648	1318.426	987.740
108.103	13.636	1316.695	986.285
109.118	13.673	1315.291	985.369
110.133	13.557	1314.234	983.798
111.147	13.602	1313.147	983.163
112.162	13.613	1311.845	982.171
113.176	13.533	1310.600	980.674
114.191	13.623	1309.560	980.347
115.206	13.587	1308.386	979.168
116.220	13.652	1307.202	978.575
117.235	13.654	1306.107	977.685
118.249	13.657	1305.196	976.932
119.264	13.641	1304.375	976.134
120.279	13.622	1303.293	975.126
121.293	13.507	1302.690	973.914
122.308	13.564	1301.356	973.166
123.322	13.675	1299.919	972.654
124.337	13.508	1299.336	971.153
125.352	13.599	1297.893	970.524
126.366	13.560	1296.557	969.208
127.381	13.584	1295.558	968.519
128.395	13.546	1294.666	967.546
129.410	13.493	1293.586	966.343
130.424	13.675	1292.296	966.353
131.439	13.572	1292.048	965.480
132.454	13.625	1290.683	964.683
133.468	13.608	1289.838	963.871
134.483	13.640	1289.267	963.545
135.497	13.754	1287.425	962.743
136.512	13.575	1286.742	961.110
137.527	13.615	1285.230	960.129
138.541	13.678	1283.733	959.288
139.556	13.622	1282.359	957.854
140.570	13.653	1281.386	957.220
141.585	13.744	1280.249	956.809
142.600	13.828	1278.947	956.236
143.614	13.890	1278.061	955.847
144.629	13.832	1277.019	954.651
145.643	13.763	1275.804	953.261
146.658	13.841	1274.596	952.723
147.673	13.762	1273.337	951.245
148.687	13.747	1272.702	950.597
149.702	13.745	1270.883	949.142
150.716	13.815	1268.923	947.999
151.731	13.666	1268.513	946.754
152.746	13.765	1267.443	946.439
153.760	13.883	1265.635	945.673
154.775	13.863	1264.432	944.582
155.789	13.833	1263.701	943.783
156.804	13.877	1262.452	943.011
157.819	13.780	1261.692	941.810
158.833	13.964	1260.490	941.876
159.848	13.935	1259.632	940.983
160.862	13.851	1258.884	939.867
161.877	13.925	1257.612	939.252
162.892	13.870	1256.398	937.953
163.906	13.736	1255.877	936.727
164.921	13.803	1254.578	936.052
165.935	13.877	1253.496	935.578
166.950	14.010	1252.509	935.505
167.964	14.004	1252.047	935.044
168.979	13.912	1251.523	934.053
169.994	14.036	1250.566	933.956
171.008	13.969	1249.973	933.051
172.023	13.944	1248.986	932.093
173.037	14.030	1248.165	931.878
174.052	13.978	1247.451	930.970
175.067	13.937	1246.435	929.903
176.081	14.014	1245.377	929.460
177.096	14.028	1244.268	928.628
178.110	14.005	1243.391	927.762
179.125	14.094	1241.529	926.791
180.140	14.017	1240.646	925.617
181.154	14.077	1239.165	924.769
182.169	14.070	1238.209	923.933
183.183	14.163	1237.108	923.543
184.198	14.190	1235.660	922.533
185.213	14.186	1234.544	921.598
186.227	14.173	1233.875	920.941
187.242	14.159	1232.555	919.800
188.256	14.213	1231.480	919.216
189.271	14.219	1230.521	918.451
190.286	14.189	1229.834	917.688
191.300	14.021	1228.955	916.028
192.315	14.109	1227.960	915.690
193.329	14.204	1227.525	915.806
194.344	14.157	1227.144	915.183
195.359	14.213	1226.477	914.912
196.373	14.253	1226.034	914.718
197.388	14.221	1225.302	913.918
198.402	14.239	1225.145	913.819
199.417	14.357	1223.865	913.427
200.432	14.481	1222.889	913.300
201.446	14.540	1222.014	912.888
202.461	14.454	1221.313	911.814
203.475	14.421	1220.354	910.835
204.490	14.458	1219.272	910.152
205.504	14.308	1218.184	908.437
206.519	14.386	1216.940	907.856
207.534	14.388	1215.651	906.828
208.548	14.464	1214.270	906.126
209.563	14.349	1214.382	905.506
210.577	14.446	1213.419	905.233
211.592	14.551	1212.250	904.853
212.607	14.464	1211.591	903.809
213.621	14.570	1210.179	903.250
214.636	14.511	1209.827	902.585
215.650	14.460	1208.888	901.531
216.665	14.627	1207.690	901.459
217.680	14.551	1206.837	900.335
218.694	14.597	1206.351	900.138
219.709	14.497	1205.532	898.911
220.723	14.608	1204.282	898.497
221.738	14.666	1203.557	898.185
222.753	14.696	1202.508	897.487
223.767	14.675	1202.284	897.129
224.782	14.792	1201.180	896.850
225.796	14.787	1200.795	896.458
226.811	14.703	1200.225	895.505
227.826	14.738	1199.371	894.974
228.840	14.797	1198.602	894.635
229.855	14.778	1197.712	893.790
230.869	14.771	1196.793	892.987
231.884	14.832	1195.835	892.519
232.899	14.728	1195.094	891.334
233.913	14.730	1194.739	891.001
234.928	14.644	1193.952	889.875
235.942	14.736	1193.103	889.653
236.957	14.733	1192.450	889.074
237.972	14.748	1191.816	888.605
238.986	14.799	1191.038	888.216
240.001	14.824	1190.311	887.728
241.015	14.932	1188.988	887.237
242.030	14.860	1188.430	886.356
243.045	14.867	1187.863	885.896
244.059	14.835	1186.949	884.965
245.074	14.956	1185.795	884.666
246.088	14.938	1185.114	883.983
247.103	14.920	1184.449	883.312
248.117	14.974	1183.683	882.948
249.132	15.042	1182.972	882.703
250.147	15.078	1182.283	882.297
251.161	15.061	1181.613	881.631
252.176	15.173	1180.576	881.370
253.190	15.186	1180.026	880.947
254.205	15.142	1179.841	880.501
255.220	15.186	1178.763	879.847
256.234	15.206	1178.162	879.427
257.249	15.262	1177.435	879.101
258.263	15.337	1176.841	878.973
259.278	15.219	1176.342	877.903
260.293	15.279	1175.463	877.484
261.307	15.473	1174.919	878.017
262.322	15.351	1174.621	877.075
263.336	15.431	1173.554	876.621
264.351	15.452	1172.927	876.185
265.366	15.416	1172.131	875.324
266.380	15.426	1171.508	874.833
267.395	15.374	1170.999	874.106
268.409	15.370	1170.198	873.406
269.424	15.328	1169.839	872.844
270.439	15.472	1168.828	872.763
271.453	15.491	1168.227	872.335
272.468	15.358	1167.503	871.027
273.482	15.481	1166.464	870.815
274.497	15.546	1165.642	870.459
275.512	15.536	1164.929	869.797
276.526	15.573	1164.158	869.335
277.541	15.415	1163.801	868.173
278.555	15.537	1162.678	867.892
279.570	15.591	1162.076	867.644
280.585	15.719	1160.966	867.397
281.599	15.620	1160.672	866.592
282.614	15.622	1159.555	865.693
283.628	15.567	1158.462	864.514
284.643	15.630	1157.220	863.835
285.657	15.669	1156.731	863.594
286.672	15.504	1155.791	861.969
287.687	15.700	1154.820	862.173
288.701	15.726	1154.181	861.756
289.716	15.744	1153.048	860.925
290.730	15.811	1152.465	860.756
291.745	15.847	1151.621	860.233
292.760	15.745	1151.527	859.567
293.774	15.839	1150.568	859.253
294.789	15.755	1149.970	858.300
295.803	15.804	1149.230	857.922
296.818	15.824	1148.287	857.246
297.833	15.792	1147.818	856.655
298.847	15.864	1147.040	856.369
299.862	15.826	1146.244	855.502
300.876	15.894	1145.665	855.341
301.891	16.025	1144.661	855.183
302.906	15.948	1144.040	854.249
303.920	16.024	1143.188	853.922
304.935	15.956	1142.856	853.258
305.949	15.988	1142.022	852.720
306.964	16.002	1141.240	852.130
307.979	16.070	1140.421	851.789
308.993	16.170	1139.531	851.553
310.008	16.223	1138.687	851.113
311.022	16.173	1137.956	850.243
312.037	16.152	1137.050	849.381
313.052	16.134	1136.553	848.844
314.066	16.189	1135.376	848.168
315.081	16.053	1134.713	846.913
316.095	15.971	1133.895	845.817
317.110	16.128	1133.109	845.941
318.125	16.079	1132.345	845.051
319.139	16.120	1131.787	844.766
320.154	16.112	1131.268	844.267
321.168	16.080	1130.498	843.457
322.183	16.113	1129.960	843.146
323.197	16.218	1129.219	843.040
324.212	16.155	1128.510	842.121
325.227	16.118	1128.022	841.499
326.241	16.167	1127.388	841.196
327.256	16.248	1126.727	841.034
328.270	16.138	1125.961	839.839
329.285	16.165	1124.793	839.028
330.300	16.224	1123.646	838.393
331.314	16.321	1122.842	838.200
332.329	16.201	1121.794	836.747
333.343	16.243	1121.291	836.505
334.358	16.270	1120.303	835.827
335.373	16.253	1119.650	835.182
336.387	16.435	1118.170	834.906
337.402	16.384	1117.959	834.421
338.416	16.475	1116.894	834.000
339.431	16.529	1116.022	833.543
340.446	16.375	1116.052	832.732
341.460	16.528	1115.180	832.761
342.475	16.467	1114.261	831.702
343.489	16.460	1113.431	830.973
344.504	16.503	1112.065	830.091
345.519	16.526	1111.656	829.824
346.533	16.628	1110.976	829.744
347.548	16.572	1110.167	828.792
348.562	16.673	1109.301	828.566
349.577	16.715	1108.311	827.961
350.592	16.721	1107.809	827.541
351.606	16.563	1107.230	826.263
352.621	16.530	1106.783	825.694
353.635	16.605	1105.750	825.219
354.650	16.696	1105.014	825.040
355.665	16.561	1104.811	824.160
356.679	16.725	1103.633	824.004
357.694	16.665	1103.386	823.456
358.708	16.848	1102.332	823.483
359.723	16.745	1101.426	822.233
360.738	16.695	1101.481	821.958
361.752	16.668	1101.152	821.509
362.767	16.770	1100.074	821.129
363.781	16.842	1099.472	820.957
364.796	16.813	1098.937	820.343
365.810	16.964	1098.011	820.309
366.825	16.911	1097.389	819.515
367.840	16.900	1097.086	819.165
368.854	16.936	1096.526	818.849
369.869	16.830	1095.932	817.817
370.883	16.895	1094.921	817.308
371.898	16.807	1094.178	816.257
372.913	16.947	1093.366	816.253
373.927	16.916	1092.880	815.667
374.942	16.905	1092.651	815.371
375.956	17.020	1092.147	815.477
376.971	17.029	1091.501	814.964
377.986	17.000	1090.653	814.121
379.000	17.117	1090.193	814.263
380.015	17.107	1089.420	813.568
381.029	17.199	1088.609	813.332
382.044	17.153	1088.131	812.682
383.059	17.146	1087.652	812.218
384.073	17.240	1086.480	811.720
385.088	17.289	1085.546	811.186
386.102	17.180	1084.724	809.978
387.117	17.252	1083.593	809.405
388.132	17.330	1082.414	808.827
389.146	17.107	1082.176	807.515
390.161	17.209	1081.128	807.144
391.175	17.186	1080.680	806.632
392.190	17.227	1079.755	806.061
393.205	17.443	1078.901	806.376
394.219	17.311	1078.073	805.061
395.234	17.417	1077.440	805.022
396.248	17.316	1076.592	803.837
397.263	17.353	1074.991	802.747
398.278	17.297	1074.742	802.227
399.292	17.356	1074.049	801.913
400.307	17.255	1073.713	801.119
401.321	17.191	1073.007	800.218
402.336	17.418	1072.369	800.738
403.350	17.326	1071.283	799.425
404.365	17.258	1070.933	798.773
405.380	17.408	1069.998	798.712
406.394	17.428	1068.892	797.909
407.409	17.523	1068.130	797.715
408.423	17.519	1067.592	797.221
409.438	17.424	1067.059	796.311
410.453	17.454	1066.318	795.827
411.467	17.521	1065.265	795.282
412.482	17.635	1064.357	795.068
413.496	17.618	1063.995	794.648
414.511	17.654	1063.472	794.354
415.526	17.659	1063.300	794.179
416.540	17.795	1062.930	794.465
417.555	17.698	1062.440	793.577
418.569	17.756	1061.605	793.154
419.584	17.699	1061.123	792.455
420.599	17.803	1060.476	792.385
421.613	107.400	1330.237	1484.961
422.628	99.141	1369.475	1485.042
