DTS Sentinel unit serial number:	SN413079Multiplexer serial number:	ORYXHardware model number:	OX4-SRSoftware version number:	ORYX F/W v4.00 Oryx Data Collector v3.7.2.0data status	okinstallation	princeton_trtdifferential loss correction	single-endedforward channel	channel 2reverse channel	N/Adate	2019/09/13time	11:59:35forward acquisition time	60.00reverse acquisition time	0.00gamma	496.2192k internal	0.2316k external	0.2316temperature offset calibration	1.0212default loss term (dB/km)	0.3790temperature slope calibration	1.0000multiplexer offset coefficient	1.0000multiplexer slope coefficient	1.0000fibre end	0.00T internal ref (°C)	33.56T ext. ref 1 (°C)	4.59T ext. ref 2 (°C)	30.86length (m)	temperature (°C)	Stokes	anti-Stokes-747.200	-73.748	-0.365	-0.134
-746.185	546.819	0.127	0.307
-745.171	-84.698	0.086	0.028
-744.156	181.904	-0.178	0.265
-743.142	-73.972	0.307	0.113
-742.127	-1.764	-0.146	0.104
-741.112	50.740	0.168	-0.161
-740.098	800.000	0.076	0.222
-739.083	-200.000	0.026	-0.266
-738.069	-74.344	-0.442	0.162
-737.054	-98.340	-0.344	0.089
-736.039	26.237	0.158	-0.133
-735.025	251.385	0.157	0.270
-734.010	122.826	-0.049	0.062
-732.996	183.589	-0.037	-0.056
-731.981	800.000	0.036	-0.113
-730.966	-200.000	0.014	-0.247
-729.952	-71.646	-0.060	-0.023
-728.937	-200.000	0.015	0.111
-727.923	26.353	-0.261	0.221
-726.908	32.501	-0.151	0.132
-725.894	-117.561	-0.500	-0.091
-724.879	-18.524	0.155	-0.098
-723.864	800.000	-0.026	-0.088
-722.850	800.000	0.023	-0.093
-721.835	-94.501	-0.220	-0.061
-720.821	800.000	0.037	-0.102
-719.806	-85.129	-0.109	0.034
-718.791	64.625	0.120	-0.122
-717.777	-96.344	-0.050	-0.013
-716.762	50.620	0.060	0.058
-715.748	-200.000	-0.007	0.109
-714.733	-115.823	-0.190	-0.036
-713.718	-100.285	-0.157	-0.039
-712.704	80.540	0.090	-0.098
-711.689	-200.000	-0.003	-0.135
-710.675	51.748	0.405	-0.390
-709.660	68.811	-0.181	-0.188
-708.645	-155.961	0.251	0.016
-707.631	-40.359	0.083	-0.044
-706.616	-27.007	0.213	-0.126
-705.602	-144.111	0.187	0.018
-704.587	-118.839	-0.229	0.041
-703.572	-200.000	0.075	0.332
-702.558	9.240	-0.212	0.162
-701.543	265.133	-0.079	-0.139
-700.529	-71.271	-0.032	0.012
-699.514	-200.000	0.031	-0.187
-698.499	800.000	-0.166	-0.510
-697.485	-102.798	-0.259	0.062
-696.470	-200.000	0.053	-0.339
-695.456	-85.231	0.388	-0.123
-694.441	510.494	-0.124	-0.293
-693.426	-105.235	0.159	-0.037
-692.412	-200.000	0.030	-0.307
-691.397	-200.000	0.035	-0.172
-690.383	-8.878	0.190	-0.129
-689.368	800.000	-0.029	-0.124
-688.354	-142.755	-0.133	0.013
-687.339	-200.000	0.050	-0.260
-686.324	-200.000	0.051	0.276
-685.310	-38.480	0.140	0.075
-684.295	191.980	-0.176	-0.269
-683.281	350.469	0.051	0.102
-682.266	732.437	0.099	-0.267
-681.251	-76.388	0.092	-0.033
-680.237	428.180	-0.045	0.098
-679.222	-139.152	-0.284	-0.031
-678.208	-200.000	-0.021	-0.203
-677.193	319.435	-0.139	-0.266
-676.178	316.475	0.018	0.034
-675.164	-97.201	-0.225	0.059
-674.149	76.684	-0.235	-0.251
-673.135	261.190	-0.393	-0.687
-672.120	66.824	0.039	-0.040
-671.105	-167.913	0.074	-0.003
-670.091	-200.000	-0.010	0.128
-669.076	-200.000	0.005	-0.039
-668.062	-8.681	-0.276	-0.187
-667.047	-104.756	-0.523	-0.122
-666.032	-200.000	-0.015	-0.255
-665.018	-200.000	0.045	0.205
-664.003	-50.146	-0.135	0.065
-662.989	92.389	-0.118	-0.134
-661.974	-82.649	0.021	-0.007
-660.959	-200.000	-0.039	0.209
-659.945	197.081	-0.201	-0.310
-658.930	-145.977	-0.457	-0.041
-657.916	-110.201	0.096	0.020
-656.901	-200.000	-0.032	0.168
-655.886	-34.908	0.080	-0.044
-654.872	432.423	0.082	-0.180
-653.857	-200.000	-0.019	-0.126
-652.843	98.590	0.155	0.181
-651.828	-200.000	-0.006	0.065
-650.814	-58.020	0.324	0.143
-649.799	800.000	-0.084	-0.276
-648.784	-200.000	-0.008	0.053
-647.770	-200.000	-0.010	0.188
-646.755	-161.958	-0.434	0.022
-645.741	-86.373	-0.302	-0.094
-644.726	800.000	0.022	-0.071
-643.711	25.317	0.182	0.153
-642.697	-25.833	-0.356	0.212
-641.682	-156.541	-0.186	0.012
-640.668	-200.000	0.100	0.531
-639.653	24.156	-0.122	0.102
-638.638	-200.000	0.013	0.298
-637.624	-200.000	0.085	0.495
-636.609	-160.063	0.315	-0.017
-635.595	466.269	0.146	0.331
-634.580	191.045	-0.041	-0.063
-633.565	-200.000	0.057	-0.336
-632.551	45.859	0.115	0.107
-631.536	66.293	0.071	0.073
-630.522	-200.000	-0.002	0.216
-629.507	-132.454	0.215	0.028
-628.492	-52.645	0.206	0.096
-627.478	33.943	-0.370	-0.325
-626.463	92.469	0.255	0.290
-625.449	107.717	0.076	0.091
-624.434	800.000	0.132	-0.408
-623.419	234.992	-0.183	0.305
-622.405	-23.055	-0.347	-0.211
-621.390	59.802	0.102	0.102
-620.376	-149.844	0.148	-0.012
-619.361	88.342	0.116	0.130
-618.346	-103.820	0.211	0.050
-617.332	-19.859	-0.215	0.134
-616.317	-177.938	-0.263	-0.006
-615.303	40.248	0.090	-0.081
-614.288	260.901	0.066	0.116
-613.273	-200.000	0.015	0.079
-612.259	128.571	-0.194	-0.250
-611.244	-10.028	0.038	-0.025
-610.230	69.233	-0.284	0.294
-609.215	69.035	0.140	-0.145
-608.201	-138.056	-0.102	0.011
-607.186	-108.344	-0.214	-0.047
-606.171	-67.430	0.050	0.020
-605.157	158.057	-0.043	0.060
-604.142	218.218	0.136	-0.219
-603.128	200.144	0.058	-0.090
-602.113	-86.150	-0.257	-0.080
-601.098	-200.000	-0.280	0.000
-600.084	-100.245	-0.294	-0.074
-599.069	-144.589	-0.144	0.013
-598.055	39.090	0.100	-0.090
-597.040	1.498	-0.367	0.266
-596.025	800.000	-0.037	0.145
-595.011	800.000	0.101	0.394
-593.996	-76.335	0.124	0.044
-592.982	-95.168	-0.113	-0.031
-591.967	-92.772	0.284	0.080
-590.952	-200.000	-0.022	-0.139
-589.938	475.625	-0.124	-0.282
-588.923	-23.856	-0.083	-0.050
-587.909	800.000	-0.073	-0.223
-586.894	707.408	0.048	-0.128
-585.879	-119.424	0.258	-0.045
-584.865	-101.339	-0.099	0.024
-583.850	800.000	-0.113	-0.405
-582.836	-142.831	-0.178	-0.017
-581.821	-83.581	0.252	0.081
-580.806	-126.278	0.319	0.048
-579.792	-157.387	0.147	0.009
-578.777	800.000	-0.038	0.159
-577.763	0.661	-0.287	-0.207
-576.748	-200.000	-0.009	-0.226
-575.733	-200.000	0.002	0.354
-574.719	-6.999	0.163	0.111
-573.704	-63.916	-0.210	-0.086
-572.690	114.825	-0.205	-0.252
-571.675	-200.000	0.035	-0.172
-570.661	-200.000	-0.047	-0.417
-569.646	33.293	0.120	0.105
-568.631	131.880	0.323	0.418
-567.617	-153.222	-0.098	-0.007
-566.602	-113.476	-0.383	-0.075
-565.588	35.270	0.112	-0.098
-564.573	7.241	-0.238	0.179
-563.558	72.795	-0.228	-0.240
-562.544	31.610	0.077	0.067
-561.529	800.000	-0.046	0.132
-560.515	-19.074	-0.399	-0.250
-559.500	647.562	-0.126	0.323
-558.485	469.062	0.157	0.355
-557.471	-168.776	0.173	0.007
-556.456	-14.439	0.254	0.165
-555.442	215.698	0.062	0.100
-554.427	134.722	0.110	0.144
-553.412	-86.668	-0.186	0.057
-552.398	-200.000	-0.015	-0.228
-551.383	-200.000	-0.011	-0.274
-550.369	-43.883	-0.507	-0.257
-549.354	-131.883	-0.280	0.037
-548.339	800.000	-0.109	-0.442
-547.325	118.387	0.271	-0.336
-546.310	-117.476	-0.241	0.044
-545.296	800.000	0.096	-0.268
-544.281	114.119	0.250	-0.306
-543.266	203.066	0.036	0.057
-542.252	366.414	-0.133	-0.269
-541.237	487.780	-0.032	0.074
-540.223	-200.000	0.006	-0.090
-539.208	-200.000	0.032	0.173
-538.193	40.529	0.166	0.150
-537.179	213.247	-0.098	0.155
-536.164	-49.648	0.182	0.087
-535.150	-72.281	0.248	0.092
-534.135	-138.161	-0.334	-0.037
-533.121	800.000	0.080	0.278
-532.106	-200.000	0.041	0.233
-531.091	-106.133	-0.270	-0.061
-530.077	-4.125	-0.118	-0.082
-529.062	-200.000	-0.000	0.353
-528.048	461.361	-0.090	-0.203
-527.033	246.855	0.175	0.296
-526.018	368.070	0.089	0.180
-525.004	343.218	-0.131	0.257
-523.989	-107.375	-0.236	0.052
-522.975	-137.098	0.205	0.023
-521.960	29.226	0.072	0.061
-520.945	-200.000	-0.017	-0.380
-519.931	-200.000	0.004	-0.266
-518.916	77.349	-0.113	0.121
-517.902	800.000	-0.060	0.256
-516.887	-200.000	0.006	-0.174
-515.872	-32.747	-0.238	0.133
-514.858	69.199	0.082	0.084
-513.843	349.102	0.122	0.242
-512.829	657.632	0.024	0.062
-511.814	11.501	0.231	0.178
-510.799	-200.000	-0.026	0.330
-509.785	668.556	-0.048	0.125
-508.770	800.000	-0.075	0.314
-507.756	-200.000	0.003	-0.227
-506.741	286.241	0.138	-0.251
-505.726	-17.669	0.050	-0.031
-504.712	0.106	-0.168	0.120
-503.697	216.998	-0.177	0.282
-502.683	-200.000	-0.008	0.124
-501.668	-23.125	-0.160	-0.097
-500.653	581.279	-0.161	-0.396
-499.639	800.000	-0.045	-0.154
-498.624	-200.000	-0.011	-0.059
-497.610	522.647	-0.144	-0.340
-496.595	-200.000	0.005	-0.184
-495.581	171.114	0.175	-0.252
-494.566	-55.427	-0.190	0.085
-493.551	-49.391	0.400	-0.192
-492.537	431.780	0.138	0.299
-491.522	-57.793	0.030	0.013
-490.508	-50.086	0.074	0.035
-489.493	134.527	0.168	0.219
-488.478	-78.194	0.158	0.054
-487.464	220.666	0.132	0.212
-486.449	-44.844	0.207	-0.103
-485.435	6.320	-0.211	-0.157
-484.420	-85.600	-0.372	-0.116
-483.405	716.415	0.060	-0.161
-482.391	-64.614	0.251	-0.102
-481.376	439.432	-0.131	-0.286
-480.362	-200.000	0.016	-0.267
-479.347	-200.000	0.042	-0.205
-478.332	-103.214	-0.251	-0.060
-477.318	-28.343	0.080	-0.046
-476.303	632.327	-0.100	0.254
-475.289	300.896	-0.095	0.175
-474.274	-110.271	0.228	0.048
-473.259	363.257	-0.101	0.203
-472.245	-200.000	0.006	-0.112
-471.230	800.000	-0.043	0.172
-470.216	-58.828	-0.167	0.073
-469.201	184.123	0.286	0.424
-468.186	24.162	0.052	0.043
-467.172	281.798	-0.195	0.350
-466.157	-200.000	0.004	-0.042
-465.143	800.000	0.027	-0.109
-464.128	-10.114	-0.140	0.093
-463.113	43.462	-0.165	-0.151
-462.099	-156.925	0.277	-0.017
-461.084	146.281	0.220	-0.295
-460.070	43.806	0.123	-0.113
-459.055	358.896	0.126	-0.253
-458.040	-200.000	-0.002	0.023
-457.026	800.000	0.110	-0.311
-456.011	142.672	-0.192	-0.255
-454.997	25.096	0.196	-0.163
-453.982	-42.733	-0.189	-0.096
-452.968	-174.869	-0.166	0.005
-451.953	29.703	0.073	-0.062
-450.938	-40.008	0.267	0.139
-449.924	-200.000	-0.066	-0.329
-448.909	-64.768	0.423	0.172
-447.895	40.026	0.198	-0.178
-446.880	-53.814	0.209	-0.096
-445.865	124.606	-0.211	-0.266
-444.851	-119.662	-0.378	-0.065
-443.836	176.015	0.216	0.313
-442.822	-53.484	0.136	0.062
-441.807	24.810	0.081	0.067
-440.792	-65.038	-0.041	0.017
-439.778	78.826	-0.067	-0.072
-438.763	-146.360	-0.204	0.018
-437.749	113.374	-0.075	-0.091
-436.734	-200.000	-0.054	-0.243
-435.719	223.255	-0.194	-0.314
-434.705	365.145	0.227	-0.458
-433.690	13.574	0.212	0.165
-432.676	-27.907	0.121	-0.070
-431.661	693.365	0.081	-0.212
-430.646	-17.908	0.218	0.137
-429.632	800.000	-0.003	-0.011
-428.617	-200.000	-0.008	0.156
-427.603	33.499	-0.109	-0.094
-426.588	-133.007	0.460	0.059
-425.573	15.868	-0.105	0.082
-424.559	-80.579	-0.134	0.045
-423.544	-200.000	-0.041	-0.230
-422.530	-102.025	-0.193	0.047
-421.515	17.785	0.206	0.164
-420.500	23.117	0.303	0.248
-419.486	-16.825	-0.316	0.200
-418.471	135.860	-0.055	-0.072
-417.457	-200.000	0.083	-0.413
-416.442	-200.000	0.063	-0.282
-415.428	-94.301	-0.063	0.017
-414.413	-55.395	0.151	-0.068
-413.398	-1.401	0.126	0.089
-412.384	38.139	0.234	-0.208
-411.369	611.347	0.097	-0.242
-410.355	209.402	0.151	0.236
-409.340	241.904	-0.032	0.054
-408.325	10.910	0.255	0.195
-407.311	-200.000	0.027	-0.151
-406.296	117.229	-0.147	0.180
-405.282	-95.968	-0.050	0.013
-404.267	-200.000	0.013	-0.112
-403.252	114.053	-0.062	0.076
-402.238	800.000	-0.033	-0.095
-401.223	54.993	-0.119	-0.115
-400.209	277.483	-0.100	0.178
-399.194	-40.786	-0.118	-0.061
-398.179	-200.000	0.009	0.166
-397.165	-119.825	-0.092	0.016
-396.150	-186.607	-0.184	0.003
-395.136	-131.506	0.014	0.002
-394.121	188.874	0.114	0.170
-393.106	34.046	-0.145	0.126
-392.092	-78.588	-0.146	0.050
-391.077	-9.518	0.296	0.197
-390.063	32.950	-0.184	0.160
-389.048	341.752	-0.065	-0.126
-388.033	800.000	0.049	-0.164
-387.019	800.000	0.019	0.058
-386.004	-130.943	-0.354	0.047
-384.990	144.712	-0.265	0.354
-383.975	-154.493	0.128	0.009
-382.960	-149.411	-0.261	-0.021
-381.946	225.015	0.040	0.064
-380.931	-1.301	0.081	-0.057
-379.917	108.469	0.161	-0.192
-378.902	-64.801	-0.175	-0.071
-377.888	-168.002	-0.261	0.010
-376.873	-200.000	-0.013	0.086
-375.858	800.000	-0.131	0.426
-374.844	-199.269	0.075	-0.000
-373.829	-200.000	0.011	-0.105
-372.815	-63.660	0.209	0.085
-371.800	-59.515	-0.128	0.055
-370.785	191.126	0.067	-0.100
-369.771	93.839	-0.113	0.128
-368.756	-200.000	0.030	0.225
-367.742	-200.000	-0.007	-0.157
-366.727	-172.263	0.319	-0.010
-365.712	-75.824	0.027	-0.010
-364.698	31.749	-0.384	-0.330
-363.683	44.017	0.274	-0.251
-362.669	-45.131	0.191	0.095
-361.654	-51.615	-0.067	-0.031
-360.639	463.080	0.185	-0.413
-359.625	-107.010	0.337	0.074
-358.610	-128.301	0.105	0.015
-357.596	131.806	0.251	-0.322
-356.581	-1.245	-0.050	0.035
-355.566	91.626	0.024	0.027
-354.552	719.915	0.030	-0.079
-353.537	207.854	-0.081	-0.126
-352.523	-139.460	-0.171	0.018
-351.508	-200.000	-0.020	0.137
-350.493	44.899	0.251	0.230
-349.479	549.658	0.009	-0.022
-348.464	-200.000	0.057	-0.269
-347.450	337.996	-0.037	-0.071
-346.435	-69.879	0.048	-0.018
-345.420	180.653	0.132	-0.193
-344.406	-75.688	0.061	-0.022
-343.391	-159.638	-0.385	-0.021
-342.377	-200.000	-0.015	-0.270
-341.362	-200.000	-0.010	-0.264
-340.348	-86.758	-0.224	-0.068
-339.333	331.068	0.033	0.063
-338.318	-200.000	-0.030	0.202
-337.304	-5.481	0.392	-0.268
-336.289	338.125	-0.061	0.118
-335.275	-102.810	0.347	0.082
-334.260	-200.000	0.028	-0.363
-333.245	58.975	0.079	-0.078
-332.231	113.595	-0.159	-0.193
-331.216	-128.414	-0.326	-0.046
-330.202	-20.940	-0.347	0.212
-329.187	277.961	0.172	-0.306
-328.172	-27.886	0.063	-0.036
-327.158	44.267	0.089	-0.082
-326.143	800.000	-0.101	-0.302
-325.129	-23.680	0.215	0.128
-324.114	-29.841	0.192	0.109
-323.099	800.000	-0.064	-0.216
-322.085	19.633	-0.129	0.103
-321.070	-200.000	0.041	-0.306
-320.056	50.476	0.202	-0.190
-319.041	-67.611	-0.304	-0.119
-318.026	551.400	0.086	0.205
-317.012	148.586	-0.057	0.076
-315.997	-55.884	0.331	-0.147
-314.983	339.264	-0.107	0.208
-313.968	76.436	0.205	0.217
-312.953	-200.000	-0.011	0.255
-311.939	304.935	-0.131	0.242
-310.924	-99.210	0.182	0.046
-309.910	-44.294	-0.330	0.165
-308.895	376.661	0.066	0.134
-307.880	-200.000	-0.040	0.204
-306.866	-152.763	-0.075	0.005
-305.851	-166.843	-0.207	0.008
-304.837	-53.740	-0.098	0.044
-303.822	-88.429	0.062	-0.018
-302.807	-43.722	0.144	0.072
-301.793	-47.748	-0.035	-0.017
-300.778	-46.450	-0.253	-0.123
-299.764	51.805	0.191	-0.181
-298.749	-200.000	0.003	0.128
-297.735	-21.811	0.293	-0.178
-296.720	-200.000	0.008	0.062
-295.705	300.187	0.104	-0.191
-294.691	38.060	0.139	-0.123
-293.676	285.249	0.189	0.339
-292.662	-97.052	-0.532	-0.139
-291.647	-123.757	0.166	-0.026
-290.632	-200.000	0.016	0.103
-289.618	-200.000	0.001	0.034
-288.603	-37.651	-0.236	0.125
-287.589	-63.204	0.089	0.037
-286.574	285.628	-0.131	-0.235
-285.559	191.184	0.115	-0.172
-284.545	188.334	0.098	0.146
-283.530	-147.058	0.106	-0.009
-282.516	-94.764	-0.322	0.087
-281.501	389.272	-0.016	-0.033
-280.486	-109.140	0.360	0.076
-279.472	493.043	-0.010	0.023
-278.457	-67.510	0.048	-0.019
-277.443	-80.025	-0.048	0.016
-276.428	14.341	-0.296	0.230
-275.413	-38.570	0.105	0.055
-274.399	7.875	0.236	-0.176
-273.384	131.816	-0.053	-0.067
-272.370	79.201	-0.132	0.141
-271.355	105.743	0.333	0.391
-270.340	-200.000	-0.005	-0.300
-269.326	-92.803	-0.170	0.047
-268.311	164.023	-0.149	-0.209
-267.297	479.980	0.119	-0.268
-266.282	487.916	-0.058	-0.131
-265.267	-200.000	0.020	-0.130
-264.253	-200.000	-0.019	-0.145
-263.238	-25.931	-0.147	0.086
-262.224	-200.000	-0.026	0.141
-261.209	121.963	-0.155	0.192
-260.195	-89.354	-0.111	0.033
-259.180	-125.830	-0.281	-0.042
-258.165	-126.304	0.248	-0.037
-257.151	-65.347	-0.309	0.124
-256.136	-158.753	-0.340	0.019
-255.122	58.616	0.097	-0.094
-254.107	-200.000	0.006	-0.327
-253.092	16.592	0.062	-0.049
-252.078	-55.800	0.190	0.084
-251.063	-200.000	-0.013	-0.158
-250.049	320.352	-0.044	0.083
-249.034	-27.879	-0.341	-0.196
-248.019	22.156	-0.050	-0.041
-247.005	-20.465	-0.199	0.122
-245.990	-157.161	-0.068	0.004
-244.976	-107.474	0.092	-0.020
-243.961	-159.754	-0.410	-0.022
-242.946	308.477	0.084	0.156
-241.932	-38.992	-0.166	0.087
-240.917	-126.575	0.215	0.032
-239.903	414.846	-0.107	0.226
-238.888	-128.464	-0.145	-0.020
-237.873	599.100	-0.101	0.248
-236.859	618.075	-0.093	0.231
-235.844	-46.594	0.111	0.054
-234.830	-67.907	0.550	0.213
-233.815	-19.384	-0.198	0.122
-232.800	95.088	0.083	-0.094
-231.786	-52.877	0.104	0.047
-230.771	75.691	0.237	-0.249
-229.757	129.433	0.189	-0.240
-228.742	-15.470	0.165	-0.105
-227.727	-82.121	-0.078	-0.025
-226.713	-88.033	-0.263	0.078
-225.698	-138.096	-0.231	0.025
-224.684	800.000	-0.077	0.255
-223.669	-200.000	-0.036	0.247
-222.655	-80.343	0.365	0.121
-221.640	-144.910	0.128	-0.012
-220.625	341.180	0.037	-0.072
-219.611	163.204	-0.164	0.229
-218.596	-72.479	0.540	-0.198
-217.582	-125.012	0.433	-0.066
-216.567	168.574	-0.213	0.302
-215.552	-90.001	0.228	0.066
-214.538	800.000	-0.084	0.359
-213.523	800.000	0.084	-0.258
-212.509	-200.000	-0.025	-0.242
-211.494	-66.211	0.079	0.031
-210.479	275.955	-0.098	0.172
-209.465	-3.390	0.080	0.055
-208.450	-99.656	-0.208	0.052
-207.436	-38.260	-0.258	0.136
-206.421	239.439	-0.204	-0.337
-205.406	-200.000	0.011	0.125
-204.392	800.000	0.104	-0.343
-203.377	-200.000	0.007	-0.291
-202.363	-200.000	0.007	0.103
-201.348	-47.143	0.122	-0.059
-200.333	56.733	-0.061	0.059
-199.319	-128.007	0.449	0.064
-198.304	800.000	-0.063	0.263
-197.290	40.797	-0.137	0.122
-196.275	-200.000	0.004	-0.157
-195.260	45.910	0.113	0.104
-194.246	-200.000	-0.038	0.281
-193.231	-200.000	0.013	0.135
-192.217	4.396	-0.213	0.155
-191.202	-130.608	-0.115	0.015
-190.187	-200.000	0.005	0.088
-189.173	-200.000	0.060	0.381
-188.158	-200.000	-0.031	0.318
-187.144	31.987	-0.137	0.117
-186.129	91.435	0.421	-0.469
-185.114	-189.774	-0.189	-0.002
-184.100	698.669	0.032	0.084
-183.085	26.513	0.216	0.179
-182.071	-161.571	-0.243	0.012
-181.056	68.588	0.195	-0.198
-180.042	-21.832	0.213	-0.129
-179.027	-200.000	0.011	-0.227
-178.012	0.979	0.111	-0.079
-176.998	-129.524	0.578	-0.079
-175.983	413.675	-0.164	0.346
-174.969	-104.634	0.138	-0.031
-173.954	-127.252	-0.313	-0.045
-172.939	-19.545	0.076	-0.046
-171.925	203.569	0.120	-0.184
-170.910	96.425	-0.141	0.159
-169.896	23.351	-0.208	0.169
-168.881	2.410	0.129	-0.092
-167.866	800.000	-0.032	-0.099
-166.852	65.432	0.035	-0.035
-165.837	353.140	0.154	0.303
-164.823	90.574	0.146	-0.162
-163.808	20.720	-0.172	-0.138
-162.793	800.000	-0.057	-0.180
-161.779	157.071	0.244	-0.333
-160.764	-153.510	0.100	-0.007
-159.750	-102.801	-0.109	0.026
-158.735	-200.000	0.047	0.299
-157.720	10.003	-0.078	-0.059
-156.706	-111.882	-0.103	0.021
-155.691	-172.040	0.177	0.006
-154.677	-200.000	-0.012	0.189
-153.662	-66.646	-0.183	0.072
-152.647	-200.000	0.003	-0.127
-151.633	-118.770	0.310	0.054
-150.618	156.373	0.106	-0.144
-149.604	-26.163	0.359	-0.209
-148.589	278.591	0.060	0.107
-147.574	34.131	0.165	-0.142
-146.560	169.390	0.153	-0.216
-145.545	67.472	-0.090	-0.091
-144.531	658.192	0.014	0.037
-143.516	261.690	0.052	-0.088
-142.502	-200.000	-0.008	0.054
-141.487	472.909	-0.097	0.217
-140.472	504.978	-0.185	0.423
-139.458	-37.332	0.205	-0.108
-138.443	3.944	0.361	0.261
-137.429	14.152	-0.163	0.126
-136.414	140.644	0.142	0.185
-135.399	-136.369	0.258	-0.030
-134.385	-160.164	-0.256	0.014
-133.370	-50.856	-0.087	0.040
-132.356	-35.311	0.059	0.032
-131.341	-75.098	-0.132	-0.047
-130.326	19.748	0.305	-0.243
-129.312	31.892	-0.244	0.208
-128.297	-200.000	-0.036	0.178
-127.283	-93.605	-0.282	0.077
-126.268	-200.000	-0.012	-0.070
-125.253	198.082	0.071	-0.107
-124.239	-200.000	0.002	0.212
-123.224	190.542	-0.043	-0.064
-122.210	172.797	0.135	0.192
-121.195	116.058	0.123	-0.149
-120.180	-200.000	-0.025	0.147
-119.166	71.561	0.088	0.090
-118.151	-37.603	0.284	-0.150
-117.137	-28.311	0.104	0.059
-116.122	800.000	-0.085	-0.244
-115.107	80.703	0.111	0.118
-114.093	-200.000	-0.020	0.235
-113.078	93.909	0.241	-0.271
-112.064	705.898	0.078	-0.204
-111.049	-200.000	-0.031	0.163
-110.034	-100.585	0.210	-0.051
-109.020	58.577	0.138	-0.134
-108.005	375.992	-0.022	0.045
-106.991	-107.074	-0.325	-0.071
-105.976	-68.872	-0.234	0.089
-104.962	-183.517	-0.215	-0.004
-103.947	130.887	-0.208	0.264
-102.932	-134.560	0.468	-0.056
-101.918	-92.007	0.161	-0.045
-100.903	127.582	0.122	-0.153
-99.889	-72.617	-0.234	-0.085
-98.874	82.778	-0.185	0.199
-97.859	-144.433	0.370	0.034
-96.845	-200.000	0.019	0.161
-95.830	-200.000	0.006	-0.202
-94.816	222.581	-0.092	-0.146
-93.801	-87.812	-0.048	-0.014
-92.786	366.048	-0.184	-0.366
-91.772	91.658	-0.162	-0.180
-90.757	-118.614	-0.145	-0.025
-89.743	179.305	-0.121	0.175
-88.728	150.813	0.276	0.370
-87.713	-83.275	0.096	-0.030
-86.699	-183.601	-0.321	-0.005
-85.684	800.000	0.071	-0.264
-84.670	139.203	-0.064	0.083
-83.655	157.878	0.099	0.135
-82.640	-97.963	0.284	-0.072
-81.626	33.762	0.119	-0.102
-80.611	132.671	-0.207	-0.263
-79.597	-200.000	0.017	-0.208
-78.582	800.000	-0.043	0.182
-77.567	202.774	-0.166	-0.252
-76.553	25.449	-0.025	0.021
-75.538	87.759	-0.116	-0.127
-74.524	115.893	-0.184	-0.222
-73.509	-200.000	-0.005	-0.036
-72.494	-29.096	0.156	-0.088
-71.480	-143.724	0.464	0.043
-70.465	-200.000	-0.064	0.348
-69.451	501.843	-0.097	-0.222
-68.436	-28.490	0.219	0.125
-67.422	-200.000	0.013	-0.095
-66.407	-14.982	-0.102	-0.065
-65.392	491.172	0.175	-0.395
-64.378	-200.000	0.005	0.080
-63.363	-107.117	0.051	-0.011
-62.349	-200.000	-0.040	-0.361
-61.334	74.151	-0.813	-0.842
-60.319	278.376	0.329	0.578
-59.305	-200.000	0.105	-0.737
-58.290	229.346	0.675	1.087
-57.276	800.000	0.398	1.405
-56.261	-200.000	98.249	586.444
-55.246	613.524	1427.820	3525.041
-54.232	180.724	2650.192	3836.957
-53.217	113.631	2325.780	2785.464
-52.203	42.977	1933.899	1738.670
-51.188	36.683	1721.586	1499.153
-50.173	33.990	1677.107	1440.002
-49.159	51.975	1725.700	1620.181
-48.144	54.647	1742.932	1656.780
-47.130	36.552	1699.211	1478.433
-46.115	33.585	1684.133	1442.722
-45.100	33.426	1679.289	1437.311
-44.086	33.414	1676.976	1435.184
-43.071	33.400	1674.486	1432.887
-42.057	33.396	1671.316	1430.084
-41.042	33.437	1669.198	1428.529
-40.027	33.453	1667.246	1426.921
-39.013	33.363	1665.521	1424.711
-37.998	33.349	1663.869	1423.135
-36.984	33.521	1662.635	1423.316
-35.969	33.535	1660.982	1421.951
-34.954	33.677	1659.244	1421.473
-33.940	33.547	1657.274	1418.750
-32.925	33.587	1655.046	1417.085
-31.911	33.598	1653.759	1416.012
-30.896	33.465	1652.577	1413.950
-29.881	33.567	1650.325	1412.727
-28.867	33.527	1648.865	1411.123
-27.852	33.582	1647.140	1409.999
-26.838	33.537	1645.903	1408.552
-25.823	33.516	1644.496	1407.136
-24.809	33.576	1643.011	1406.256
-23.794	33.581	1640.949	1404.474
-22.779	33.652	1639.530	1403.729
-21.765	33.527	1638.335	1401.722
-20.750	33.650	1635.676	1400.297
-19.736	33.618	1634.635	1399.115
-18.721	33.568	1633.631	1397.837
-17.706	33.565	1631.673	1396.079
-16.692	33.605	1630.128	1394.995
-15.677	33.603	1628.776	1393.772
-14.663	33.686	1627.062	1392.859
-13.648	33.672	1625.860	1391.669
-12.633	33.597	1624.468	1389.876
-11.619	33.515	1622.825	1387.812
-10.604	33.611	1621.367	1387.211
-9.590	33.600	1620.202	1386.081
-8.575	33.534	1619.367	1384.831
-7.560	33.573	1617.732	1383.664
-6.546	33.613	1616.666	1382.986
-5.531	33.650	1615.428	1382.145
-4.517	33.560	1614.411	1380.563
-3.502	33.527	1613.692	1379.655
-2.487	33.685	1611.499	1378.869
-1.473	33.531	1600.334	1368.154
-0.458	30.880	1581.113	1332.728
0.556	29.698	1580.429	1298.124
1.571	27.203	1604.557	1300.014
2.586	26.157	1617.064	1302.489
3.600	22.768	1562.087	1234.436
4.615	13.819	1449.792	1087.224
5.629	6.036	1383.809	988.816
6.644	4.540	1375.613	973.505
7.659	4.621	1374.443	973.101
8.673	4.576	1373.614	972.145
9.688	4.623	1371.935	971.167
10.702	4.658	1368.785	969.069
11.717	8.339	1376.322	997.344
12.731	17.075	1392.784	1064.179
13.746	22.601	1400.888	1105.017
14.761	22.955	1399.849	1106.321
15.775	22.113	1397.710	1099.265
16.790	21.105	1395.559	1091.174
17.804	20.277	1392.994	1083.906
18.819	19.939	1391.947	1080.882
19.834	19.789	1390.709	1078.890
20.848	19.661	1389.847	1077.328
21.863	19.487	1388.541	1075.139
22.877	19.349	1387.144	1073.103
23.892	19.330	1386.263	1072.210
24.907	19.327	1385.547	1071.537
25.921	19.417	1384.516	1071.207
26.936	19.355	1383.829	1070.194
27.950	19.371	1382.827	1069.422
28.965	19.505	1381.979	1069.506
29.980	19.639	1380.579	1069.154
30.994	19.741	1379.946	1069.199
32.009	19.759	1378.868	1068.381
33.023	19.743	1377.151	1066.860
34.038	19.619	1376.309	1065.348
35.053	19.516	1374.748	1063.408
36.067	19.507	1373.677	1062.431
37.082	19.503	1372.507	1061.410
38.096	19.650	1371.430	1061.386
39.111	19.652	1370.812	1060.828
40.126	19.522	1369.653	1059.040
41.140	19.243	1369.023	1056.748
42.155	19.023	1368.497	1054.899
43.169	19.023	1368.073	1054.480
44.184	19.028	1368.263	1054.560
45.199	19.116	1367.636	1054.524
46.213	19.197	1366.754	1054.249
47.228	19.361	1366.297	1054.804
48.242	19.382	1365.514	1054.237
49.257	19.447	1363.356	1052.873
50.271	19.451	1362.454	1052.106
51.286	19.529	1360.651	1051.093
52.301	19.410	1359.703	1049.547
53.315	19.308	1358.537	1047.934
54.330	19.138	1357.545	1046.045
55.344	19.218	1355.657	1044.983
56.359	19.202	1354.822	1044.145
57.374	19.139	1354.016	1043.054
58.388	19.054	1353.124	1041.759
59.403	18.936	1352.977	1040.838
60.417	18.950	1352.393	1040.380
61.432	18.961	1351.083	1039.350
62.447	18.859	1349.746	1037.612
63.461	18.876	1348.623	1036.758
64.476	18.880	1347.053	1035.488
65.490	18.835	1346.335	1034.571
66.505	18.890	1344.926	1033.727
67.520	18.897	1343.498	1032.582
68.534	18.981	1342.615	1032.316
69.549	18.931	1341.377	1030.969
70.563	18.791	1340.584	1029.432
71.578	18.803	1339.154	1028.312
72.593	18.621	1338.580	1026.692
73.607	18.560	1337.940	1025.745
74.622	18.622	1336.815	1025.165
75.636	18.661	1336.457	1025.031
76.651	18.740	1335.572	1024.735
77.666	18.760	1335.275	1024.535
78.680	18.780	1334.935	1024.303
79.695	18.836	1334.728	1024.386
80.709	18.894	1333.817	1023.942
81.724	19.104	1332.458	1024.060
82.739	19.135	1331.872	1023.702
83.753	19.279	1331.416	1024.114
84.768	19.561	1330.386	1024.906
85.782	19.507	1329.650	1023.932
86.797	19.563	1328.216	1023.065
87.812	19.422	1326.581	1020.884
88.826	19.416	1325.767	1020.131
89.841	19.467	1324.524	1019.385
90.855	19.599	1323.489	1019.278
91.870	19.685	1322.579	1018.990
92.884	19.588	1322.189	1018.029
93.899	19.635	1321.506	1017.691
94.914	19.666	1320.497	1017.008
95.928	19.709	1319.997	1016.787
96.943	19.634	1319.040	1015.520
97.957	19.556	1318.068	1014.221
98.972	19.579	1316.738	1013.244
99.987	19.657	1315.448	1012.616
101.001	19.608	1314.511	1011.517
102.016	19.598	1313.754	1010.788
103.030	19.640	1312.881	1010.273
104.045	19.572	1312.334	1009.366
105.060	19.524	1310.546	1007.621
106.074	19.124	1309.100	1004.085
107.089	18.960	1307.222	1001.603
108.103	18.754	1306.449	999.723
109.118	18.729	1305.251	998.571
110.133	18.918	1303.249	998.049
111.147	18.850	1302.262	996.814
112.162	18.963	1300.728	996.204
113.176	19.094	1299.606	996.012
114.191	19.087	1299.264	995.625
115.206	18.959	1298.486	994.199
116.220	19.003	1296.326	992.711
117.235	19.010	1295.703	992.187
118.249	18.946	1294.701	990.962
119.264	18.886	1293.096	989.299
120.279	18.946	1292.303	988.954
121.293	18.749	1291.419	987.057
122.308	18.711	1289.921	985.604
123.322	18.680	1288.891	984.556
124.337	18.626	1287.741	983.278
125.352	18.624	1286.457	982.198
126.366	18.702	1285.617	981.921
127.381	18.691	1284.618	981.007
128.395	18.700	1283.721	980.284
129.410	18.680	1282.374	979.054
130.424	18.776	1282.165	979.358
131.439	18.789	1281.555	978.878
132.454	18.874	1280.605	978.551
133.468	18.973	1279.682	978.321
134.483	18.972	1278.999	977.705
135.497	19.003	1277.974	977.013
136.512	19.070	1276.677	976.315
137.527	19.092	1275.670	975.586
138.541	19.135	1274.004	974.468
139.556	19.260	1272.630	974.034
140.570	19.371	1272.161	974.219
141.585	19.409	1270.930	973.401
142.600	19.501	1269.811	972.977
143.614	19.578	1268.837	972.577
144.629	19.560	1267.933	971.700
145.643	19.605	1266.696	970.921
146.658	19.322	1265.632	968.426
147.673	19.231	1263.860	966.474
148.687	19.253	1262.577	965.534
149.702	19.162	1261.091	963.803
150.716	18.993	1260.132	962.037
151.731	19.057	1258.596	961.138
152.746	19.006	1257.722	960.101
153.760	19.147	1256.531	959.891
154.775	19.258	1255.557	959.680
155.789	19.393	1254.307	959.390
156.804	19.317	1253.696	958.417
157.819	19.448	1252.575	958.205
158.833	19.531	1251.519	957.772
159.848	19.657	1251.177	958.125
160.862	19.613	1250.148	957.006
161.877	19.284	1248.665	953.967
162.892	19.149	1247.032	951.891
163.906	19.089	1246.609	951.149
164.921	19.077	1245.517	950.168
165.935	19.152	1244.808	949.956
166.950	19.314	1244.051	950.185
167.964	19.323	1243.335	949.604
168.979	19.314	1242.193	948.597
169.994	19.248	1241.836	947.881
171.008	19.218	1241.177	947.129
172.023	19.303	1240.692	947.143
173.037	19.483	1240.001	947.515
174.052	19.551	1238.520	946.678
175.067	19.235	1237.402	944.006
176.081	19.154	1236.333	942.665
177.096	19.117	1235.538	941.773
178.110	19.166	1234.455	941.132
179.125	19.173	1233.525	940.374
180.140	19.284	1232.459	940.084
181.154	19.367	1231.245	939.528
182.169	19.427	1230.525	939.223
183.183	19.551	1229.254	938.842
184.198	19.610	1228.573	938.562
185.213	19.672	1226.840	937.491
186.227	19.710	1226.120	937.063
187.242	19.694	1225.274	936.248
188.256	19.845	1223.849	935.891
189.271	19.826	1223.134	935.163
190.286	19.658	1221.823	933.167
191.300	19.161	1221.047	929.812
192.315	19.090	1219.961	928.517
193.329	19.048	1219.686	928.003
194.344	19.287	1218.763	928.504
195.359	19.340	1218.230	928.303
196.373	19.345	1218.272	928.275
197.388	19.585	1217.307	928.750
198.402	19.799	1217.203	929.738
199.417	19.862	1216.868	929.741
200.432	19.990	1216.181	929.818
201.446	20.072	1215.819	929.900
202.461	20.107	1214.877	929.287
203.475	20.138	1213.584	928.380
204.490	20.037	1212.103	926.628
205.504	19.807	1210.575	924.144
206.519	19.746	1209.474	922.901
207.534	19.555	1208.633	921.160
208.548	19.662	1207.212	920.561
209.563	19.687	1206.447	920.033
210.577	19.704	1205.636	919.421
211.592	19.696	1205.235	918.994
212.607	19.951	1204.548	919.741
213.621	19.884	1203.998	918.885
214.636	19.847	1203.052	917.887
215.650	19.947	1201.599	917.222
216.665	20.016	1201.293	917.276
217.680	20.184	1199.974	917.076
218.694	20.084	1199.560	916.151
219.709	20.068	1198.744	915.363
220.723	20.248	1197.310	915.136
221.738	20.117	1197.105	914.207
222.753	19.970	1196.408	912.815
223.767	20.124	1195.410	912.785
224.782	20.244	1195.014	913.035
225.796	20.347	1194.485	913.090
226.811	20.263	1193.443	911.775
227.826	20.147	1192.984	910.733
228.840	20.089	1191.892	909.514
229.855	19.977	1191.236	908.344
230.869	20.007	1190.521	907.878
231.884	19.961	1189.758	906.977
232.899	19.865	1188.862	905.708
233.913	19.870	1188.128	905.094
234.928	19.914	1186.765	904.208
235.942	19.801	1186.175	903.086
236.957	19.805	1185.168	902.261
237.972	19.805	1184.810	901.909
238.986	19.739	1184.331	901.122
240.001	19.824	1183.195	900.617
241.015	19.774	1182.614	899.835
242.030	20.035	1181.472	900.246
243.045	20.008	1181.101	899.742
244.059	19.971	1180.718	899.176
245.074	20.025	1180.182	898.972
246.088	20.210	1179.089	899.018
247.103	20.254	1178.430	898.664
248.117	20.420	1177.363	898.631
249.132	20.596	1177.333	899.436
250.147	20.684	1176.958	899.525
251.161	20.866	1176.014	899.666
252.176	21.010	1175.160	899.673
253.190	20.953	1174.971	899.159
254.205	20.999	1174.634	899.057
255.220	21.088	1173.370	898.468
256.234	21.019	1172.986	897.739
257.249	21.009	1172.252	897.050
258.263	20.926	1171.357	895.858
259.278	20.919	1171.095	895.541
260.293	20.975	1170.624	895.390
261.307	21.030	1170.170	895.244
262.322	21.121	1169.675	895.253
263.336	21.187	1168.428	894.558
264.351	21.089	1168.051	893.689
265.366	21.100	1167.449	893.203
266.380	21.008	1166.927	892.254
267.395	21.059	1165.755	891.543
268.409	20.885	1164.897	889.918
269.424	20.811	1164.280	888.987
270.439	20.881	1163.946	889.015
271.453	20.816	1162.861	887.773
272.468	20.757	1161.844	886.621
273.482	20.689	1161.077	885.609
274.497	20.726	1160.509	885.287
275.512	20.774	1159.680	884.819
276.526	20.678	1159.019	883.751
277.541	20.838	1157.975	883.685
278.555	20.776	1157.776	883.142
279.570	20.996	1157.219	883.756
280.585	21.209	1156.348	884.092
281.599	21.232	1155.035	883.124
282.614	21.071	1154.117	881.529
283.628	20.931	1152.620	879.604
284.643	20.862	1152.420	879.026
285.657	20.983	1151.522	878.873
286.672	20.860	1150.447	877.351
287.687	21.034	1149.018	877.061
288.701	20.976	1148.299	876.141
289.716	21.017	1147.712	875.824
290.730	21.025	1147.186	875.387
291.745	20.985	1146.455	874.550
292.760	21.010	1146.057	874.296
293.774	21.163	1145.414	874.493
294.789	21.263	1145.128	874.698
295.803	21.247	1144.445	874.020
296.818	21.168	1143.360	872.719
297.833	20.902	1142.484	870.644
298.847	21.045	1141.688	870.671
299.862	21.013	1140.857	869.800
300.876	21.016	1140.444	869.426
301.891	21.231	1139.966	870.055
302.906	21.306	1138.943	869.568
303.920	21.420	1138.463	869.696
304.935	21.492	1137.853	869.508
305.949	21.618	1137.103	869.483
306.964	21.531	1136.928	868.841
307.979	21.397	1136.115	867.477
308.993	21.338	1135.027	866.281
310.008	21.558	1134.221	866.679
311.022	21.666	1132.986	866.188
312.037	21.456	1132.615	864.794
313.052	21.375	1131.446	863.421
314.066	21.203	1130.721	861.946
315.081	20.957	1129.632	859.826
316.095	21.012	1128.626	859.255
317.110	21.067	1128.053	859.010
318.125	21.069	1127.318	858.388
319.139	21.142	1126.119	857.758
320.154	21.231	1125.810	857.880
321.168	21.112	1125.358	856.878
322.183	21.248	1124.712	856.978
323.197	21.218	1124.131	856.311
324.212	21.265	1123.624	856.080
325.227	21.222	1123.332	855.570
326.241	21.263	1122.820	855.307
327.256	21.226	1121.780	854.256
328.270	21.217	1120.596	853.237
329.285	21.058	1120.017	851.944
330.300	21.217	1118.928	851.816
331.314	21.224	1117.984	851.056
332.329	21.311	1116.920	850.594
333.343	21.191	1116.455	849.582
334.358	21.505	1115.279	850.138
335.373	21.332	1115.268	849.211
336.387	21.489	1114.339	849.192
337.402	21.497	1113.790	848.737
338.416	21.616	1112.747	848.444
339.431	21.773	1111.976	848.541
340.446	21.873	1111.531	848.609
341.460	21.886	1111.156	848.312
342.475	21.861	1110.365	847.513
343.489	21.948	1109.535	847.226
344.504	22.119	1108.585	847.247
345.519	22.039	1108.149	846.454
346.533	22.297	1107.278	846.957
347.548	22.235	1106.428	845.933
348.562	22.156	1105.511	844.777
349.577	21.919	1104.523	842.809
350.592	21.815	1103.568	841.509
351.606	21.758	1102.588	840.413
352.621	21.599	1101.750	838.935
353.635	21.464	1101.576	838.083
354.650	21.515	1100.474	837.412
355.665	21.682	1099.810	837.632
356.679	21.645	1099.674	837.280
357.694	21.742	1098.898	837.079
358.708	21.897	1098.521	837.456
359.723	21.924	1097.606	836.815
360.738	21.909	1097.055	836.250
361.752	21.936	1096.440	835.835
362.767	21.920	1095.856	835.237
363.781	21.982	1095.119	834.896
364.796	22.095	1094.807	835.123
365.810	22.188	1094.282	835.089
366.825	22.298	1093.887	835.237
367.840	22.338	1093.572	835.114
368.854	22.481	1093.010	835.290
369.869	22.452	1092.200	834.456
370.883	22.364	1091.271	833.258
371.898	22.285	1090.005	831.844
372.913	22.253	1089.560	831.281
373.927	22.372	1089.214	831.504
374.942	22.434	1088.739	831.360
375.956	22.405	1088.245	830.771
376.971	22.357	1087.422	829.846
377.986	22.415	1087.094	829.795
379.000	22.542	1086.611	829.950
380.015	22.593	1085.940	829.606
381.029	22.655	1085.305	829.337
382.044	22.717	1084.270	828.763
383.059	22.611	1083.881	827.895
384.073	22.590	1083.331	827.306
385.088	22.604	1082.121	826.373
386.102	22.645	1081.106	825.717
387.117	22.422	1079.793	823.600
388.132	22.298	1078.844	822.221
389.146	22.250	1078.125	821.376
390.161	22.339	1077.389	821.157
391.175	22.249	1076.913	820.304
392.190	22.461	1076.129	820.621
393.205	22.473	1076.024	820.526
394.219	22.532	1074.883	819.857
395.234	22.402	1073.725	818.296
396.248	22.445	1072.621	817.580
397.263	22.370	1071.339	816.184
398.278	22.281	1070.995	815.440
399.292	22.192	1070.084	814.259
400.307	22.152	1068.924	813.119
401.321	22.120	1068.781	812.793
402.336	22.133	1068.045	812.219
403.350	22.224	1067.248	811.963
404.365	22.206	1066.699	811.391
405.380	22.385	1066.160	811.733
406.394	22.480	1065.209	811.374
407.409	22.557	1064.926	811.443
408.423	22.644	1064.314	811.304
409.438	22.773	1063.716	811.371
410.453	22.839	1063.005	811.057
411.467	23.037	1062.140	811.235
412.482	22.958	1061.790	810.533
413.496	22.927	1061.620	810.193
414.511	22.963	1061.005	809.813
415.526	23.139	1060.250	809.972
416.540	23.188	1059.892	809.854
417.555	23.262	1059.589	809.886
418.569	22.917	1058.686	807.550
419.584	22.984	1058.248	807.448
420.599	22.945	1057.861	806.906
421.613	154.499	1401.143	1789.501
422.628	142.002	1451.146	1789.589
