DTS Sentinel unit serial number:	SN413079Multiplexer serial number:	ORYXHardware model number:	OX4-SRSoftware version number:	ORYX F/W v4.00 Oryx Data Collector v3.7.2.0data status	okinstallation	princeton_trtdifferential loss correction	single-endedforward channel	channel 2reverse channel	N/Adate	2019/09/12time	10:05:11forward acquisition time	60.00reverse acquisition time	0.00gamma	496.2192k internal	0.2314k external	0.2314temperature offset calibration	1.0067default loss term (dB/km)	0.3790temperature slope calibration	1.0000multiplexer offset coefficient	1.0000multiplexer slope coefficient	1.0000fibre end	0.00T internal ref (°C)	36.31T ext. ref 1 (°C)	1.86T ext. ref 2 (°C)	33.24length (m)	temperature (°C)	Stokes	anti-Stokes-747.200	-145.587	0.143	0.013
-746.185	-31.833	-0.492	0.279
-745.171	41.299	-0.103	0.095
-744.156	800.000	0.120	0.400
-743.142	-173.128	0.187	-0.006
-742.127	-200.000	0.044	0.417
-741.112	252.447	0.129	0.222
-740.098	-200.000	-0.019	0.203
-739.083	-89.708	-0.119	0.035
-738.069	527.223	-0.168	0.401
-737.054	-34.776	0.087	0.048
-736.039	86.699	-0.216	-0.242
-735.025	-48.068	0.196	-0.096
-734.010	6.570	-0.279	0.210
-732.996	800.000	-0.034	-0.115
-731.981	-153.583	-0.277	-0.019
-730.966	-86.247	-0.486	-0.152
-729.952	55.857	-0.244	0.240
-728.937	800.000	-0.089	-0.263
-727.923	196.071	-0.144	0.223
-726.908	-106.045	-0.215	0.049
-725.894	243.236	-0.059	-0.100
-724.879	-70.756	0.240	-0.092
-723.864	-200.000	-0.001	-0.130
-722.850	800.000	-0.057	0.225
-721.835	-140.591	-0.152	-0.016
-720.821	-87.913	-0.221	-0.067
-719.806	224.115	-0.110	-0.179
-718.791	322.747	-0.119	-0.229
-717.777	-11.197	0.226	-0.151
-716.762	89.383	-0.122	0.138
-715.748	-21.864	0.191	0.117
-714.733	-3.172	-0.074	-0.053
-713.718	-51.917	0.094	-0.044
-712.704	-48.735	-0.275	-0.133
-711.689	17.775	0.102	-0.082
-710.675	-9.675	0.127	0.086
-709.660	109.074	-0.102	0.124
-708.645	131.741	0.083	-0.108
-707.631	-5.673	0.113	-0.078
-706.616	-166.401	0.396	-0.017
-705.602	-200.000	-0.032	-0.366
-704.587	-83.779	-0.213	0.069
-703.572	-121.606	0.037	-0.006
-702.558	540.897	0.057	-0.137
-701.543	800.000	-0.057	-0.216
-700.529	246.551	0.222	0.379
-699.514	-78.847	0.371	-0.128
-698.499	-87.748	-0.423	0.129
-697.485	800.000	0.129	0.440
-696.470	-200.000	0.206	0.001
-695.456	-200.000	-0.030	-0.511
-694.441	266.874	-0.164	-0.290
-693.426	83.760	-0.113	0.125
-692.412	-200.000	-0.035	0.414
-691.397	13.120	0.193	0.151
-690.383	-200.000	0.042	-0.226
-689.368	-200.000	-0.043	-0.255
-688.354	-200.000	0.010	-0.535
-687.339	621.674	-0.060	-0.152
-686.324	-200.000	-0.005	-0.189
-685.310	-200.000	-0.022	0.307
-684.295	-49.792	0.286	0.137
-683.281	24.276	0.160	0.134
-682.266	237.228	-0.070	-0.118
-681.251	-8.853	-0.051	-0.035
-680.237	676.541	-0.183	-0.481
-679.222	56.922	0.198	0.195
-678.208	2.186	-0.143	-0.105
-677.193	-200.000	-0.011	-0.061
-676.178	-169.870	-0.130	0.005
-675.164	-29.531	-0.157	-0.091
-674.149	294.655	-0.116	-0.214
-673.135	42.676	0.163	-0.150
-672.120	309.073	-0.109	0.206
-671.105	-107.476	0.091	-0.020
-670.091	125.990	-0.188	-0.241
-669.076	-183.703	-0.253	0.004
-668.062	-141.063	0.238	0.025
-667.047	425.860	0.071	0.154
-666.032	-83.019	-0.207	-0.068
-665.018	31.628	-0.276	-0.240
-664.003	79.248	0.096	-0.104
-662.989	-104.413	-0.140	-0.033
-661.974	-76.176	0.341	-0.122
-660.959	10.128	0.286	-0.219
-659.945	429.508	0.004	0.009
-658.930	800.000	0.009	-0.036
-657.916	-200.000	0.046	-0.441
-656.901	-178.702	0.177	-0.004
-655.886	352.554	0.101	0.202
-654.872	800.000	0.050	0.186
-653.857	-140.976	0.326	0.034
-652.843	-7.027	-0.149	0.102
-651.828	-49.473	-0.437	0.210
-650.814	-200.000	-0.021	0.164
-649.799	-105.588	-0.276	-0.063
-648.784	254.159	-0.078	0.134
-647.770	-60.735	-0.125	0.053
-646.755	35.320	0.206	0.182
-645.741	718.853	-0.090	-0.241
-644.726	154.177	-0.309	-0.428
-643.711	332.478	-0.018	-0.035
-642.697	71.227	0.346	0.362
-641.682	-51.273	-0.275	-0.130
-640.668	-166.711	0.211	0.009
-639.653	-164.502	0.169	-0.008
-638.638	-85.041	0.166	-0.053
-637.624	416.205	0.061	0.131
-636.609	364.132	-0.065	-0.132
-635.595	120.126	0.093	0.116
-634.580	3.373	0.068	0.050
-633.565	-149.813	0.315	-0.025
-632.551	-186.200	0.246	0.004
-631.536	-80.996	0.164	-0.055
-630.522	-107.754	0.424	-0.093
-629.507	-175.277	-0.204	-0.006
-628.492	111.303	-0.044	0.054
-627.478	262.359	0.093	0.164
-626.463	-200.000	-0.006	-0.298
-625.449	182.917	0.125	0.186
-624.434	-33.681	-0.072	0.040
-623.419	-89.669	-0.298	0.088
-622.405	3.996	0.220	0.162
-621.390	-200.000	0.002	0.076
-620.376	326.837	-0.064	-0.123
-619.361	-42.622	0.164	0.084
-618.346	-183.118	-0.452	0.008
-617.332	160.139	0.125	-0.176
-616.317	-96.398	0.244	0.065
-615.303	-37.130	0.305	-0.165
-614.288	-200.000	0.002	-0.050
-613.273	320.709	-0.136	0.260
-612.259	-52.509	-0.319	-0.149
-611.244	-183.444	-0.295	0.005
-610.230	474.152	-0.183	0.417
-609.215	456.648	0.110	0.246
-608.201	390.226	-0.071	-0.147
-607.186	-12.521	-0.269	-0.177
-606.171	800.000	-0.028	-0.084
-605.157	-36.604	-0.275	-0.149
-604.142	-110.718	-0.238	0.050
-603.128	800.000	0.027	-0.106
-602.113	-3.393	0.247	0.174
-601.098	800.000	-0.040	0.124
-600.084	15.330	-0.197	0.156
-599.069	75.130	-0.214	0.227
-598.055	-136.528	-0.370	0.043
-597.040	146.245	-0.088	0.119
-596.025	-200.000	-0.047	-0.390
-595.011	9.181	-0.175	-0.133
-593.996	-200.000	-0.000	0.078
-592.982	-146.050	-0.059	-0.005
-591.967	-130.249	0.352	0.048
-590.952	-200.000	0.007	0.160
-589.938	-25.437	0.142	-0.085
-588.923	23.885	0.278	-0.231
-587.909	45.791	-0.073	-0.068
-586.894	-200.000	0.008	-0.078
-585.879	-103.248	0.442	0.105
-584.865	69.488	-0.139	0.145
-583.850	-18.112	-0.127	0.080
-582.836	97.679	0.227	-0.263
-581.821	118.248	0.171	-0.212
-580.806	-123.099	0.107	0.017
-579.792	-53.398	0.054	0.025
-578.777	67.722	0.277	-0.285
-577.763	287.261	0.067	-0.122
-576.748	-200.000	-0.028	-0.298
-575.733	-89.074	0.241	0.072
-574.719	-63.295	-0.329	-0.137
-573.704	25.931	-0.043	-0.036
-572.690	787.839	-0.057	0.159
-571.675	-22.177	-0.091	0.056
-570.661	410.927	0.113	0.242
-569.646	-166.404	-0.367	-0.016
-568.631	399.472	-0.063	0.133
-567.617	477.761	0.067	-0.153
-566.602	126.422	0.147	0.188
-565.588	-200.000	0.065	0.357
-564.573	-69.219	0.139	-0.054
-563.558	96.948	-0.162	0.187
-562.544	35.536	-0.306	-0.270
-561.529	-200.000	-0.045	-0.229
-560.515	254.491	0.142	-0.244
-559.500	93.273	-0.266	-0.303
-558.485	36.112	0.097	0.086
-557.471	5.456	-0.244	-0.182
-556.456	-0.738	0.123	-0.088
-555.442	800.000	0.035	-0.125
-554.427	-55.352	0.118	-0.053
-553.412	754.020	-0.177	-0.482
-552.398	92.850	0.150	0.170
-551.383	121.710	0.180	0.225
-550.369	-2.963	-0.174	0.122
-549.354	-115.097	-0.157	-0.030
-548.339	-16.389	-0.131	-0.084
-547.325	233.163	-0.049	0.082
-546.310	-143.213	0.120	-0.012
-545.296	-200.000	-0.026	-0.160
-544.281	-76.571	-0.019	0.007
-543.266	10.484	-0.096	0.074
-542.252	115.234	0.179	-0.220
-541.237	-200.000	-0.056	-0.434
-540.223	-102.536	0.320	0.077
-539.208	-56.152	0.140	-0.063
-538.193	-200.000	0.076	0.369
-537.179	-200.000	-0.026	0.269
-536.164	87.121	-0.115	-0.128
-535.150	-62.592	-0.271	0.113
-534.135	150.624	-0.106	-0.144
-533.121	184.595	0.064	-0.096
-532.106	800.000	-0.050	0.155
-531.091	-200.000	-0.004	0.067
-530.077	691.936	0.046	-0.122
-529.062	-110.169	0.061	0.013
-528.048	158.249	0.182	-0.254
-527.033	397.805	-0.140	-0.294
-526.018	515.440	-0.018	-0.042
-525.004	31.901	0.349	-0.302
-523.989	236.886	-0.090	-0.150
-522.975	702.380	-0.018	-0.049
-521.960	-98.939	0.393	-0.100
-520.945	14.095	-0.220	0.172
-519.931	95.922	-0.171	-0.197
-518.916	109.483	-0.104	-0.126
-517.902	-127.595	0.233	-0.034
-516.887	-111.980	-0.216	0.044
-515.872	-200.000	-0.030	0.166
-514.858	40.468	-0.168	-0.152
-513.843	-200.000	-0.001	0.093
-512.829	-8.208	0.075	-0.051
-511.814	-84.563	-0.133	0.042
-510.799	800.000	0.063	0.218
-509.785	800.000	-0.082	-0.297
-508.770	-200.000	-0.005	-0.025
-507.756	-141.222	0.249	0.025
-506.741	175.053	0.114	0.166
-505.726	24.906	-0.197	0.164
-504.712	800.000	0.044	-0.126
-503.697	10.769	0.203	0.156
-502.683	-75.395	0.141	-0.050
-501.668	-200.000	0.002	-0.017
-500.653	-200.000	0.039	-0.270
-499.639	800.000	-0.050	-0.143
-498.624	54.840	-0.113	-0.109
-497.610	102.049	0.297	-0.348
-496.595	83.943	-0.193	0.212
-495.581	122.671	-0.106	-0.133
-494.566	80.976	-0.109	-0.119
-493.551	-78.228	0.121	-0.042
-492.537	-0.425	0.182	-0.130
-491.522	800.000	0.125	0.524
-490.508	-200.000	0.004	-0.053
-489.493	28.522	-0.139	-0.118
-488.478	-200.000	0.004	-0.071
-487.464	231.716	-0.125	-0.206
-486.449	-200.000	0.004	-0.291
-485.435	701.876	0.087	0.229
-484.420	388.309	-0.113	0.234
-483.405	431.757	-0.036	-0.077
-482.391	17.841	0.143	-0.115
-481.376	96.590	-0.187	-0.215
-480.362	-200.000	0.003	0.106
-479.347	-84.463	-0.360	0.114
-478.332	-13.292	0.041	0.026
-477.318	73.471	0.022	0.023
-476.303	386.712	-0.044	-0.091
-475.289	-128.858	-0.145	-0.021
-474.274	22.526	0.104	0.085
-473.259	93.235	-0.103	-0.117
-472.245	59.229	0.233	-0.230
-471.230	800.000	0.072	-0.259
-470.216	-160.862	0.144	0.008
-469.201	497.106	-0.036	-0.083
-468.186	-200.000	0.044	0.219
-467.172	-200.000	0.010	0.175
-466.157	-97.007	0.195	0.051
-465.143	7.000	-0.072	0.054
-464.128	26.431	0.052	0.044
-463.113	21.189	0.269	-0.219
-462.099	-199.950	-0.368	0.002
-461.084	-200.000	0.015	0.384
-460.070	707.937	-0.085	-0.225
-459.055	-181.331	0.344	0.007
-458.040	99.382	-0.072	-0.084
-457.026	304.340	0.013	0.024
-456.011	689.795	-0.096	0.252
-454.997	-13.572	-0.322	-0.209
-453.982	96.046	-0.067	0.076
-452.968	194.769	0.066	0.100
-451.953	748.261	-0.151	0.409
-450.938	82.145	-0.170	0.185
-449.924	114.156	-0.186	-0.227
-448.909	800.000	-0.014	0.041
-447.895	124.476	0.073	-0.092
-446.880	147.432	-0.024	0.032
-445.865	238.721	-0.105	-0.175
-444.851	233.128	0.097	0.160
-443.836	54.827	-0.246	0.238
-442.822	152.870	-0.115	0.158
-441.807	-15.937	-0.201	-0.128
-440.792	-61.425	0.288	-0.121
-439.778	-58.990	0.119	0.052
-438.763	121.532	0.149	-0.186
-437.749	39.765	-0.209	0.188
-436.734	-4.938	0.186	-0.128
-435.719	158.755	-0.087	0.121
-434.705	-158.756	-0.094	-0.005
-433.690	56.004	0.114	0.110
-432.676	-89.368	-0.088	0.026
-431.661	5.528	-0.121	-0.089
-430.646	-96.699	0.165	-0.044
-429.632	18.953	-0.203	-0.163
-428.617	151.138	-0.139	0.189
-427.603	18.208	-0.166	-0.132
-426.588	-195.012	0.237	-0.002
-425.573	157.741	0.058	0.080
-424.559	-1.017	-0.110	0.078
-423.544	800.000	-0.076	0.241
-422.530	10.779	-0.063	-0.048
-421.515	800.000	0.019	0.072
-420.500	-65.721	0.034	0.014
-419.486	-43.742	-0.236	0.119
-418.471	526.332	0.063	-0.148
-417.457	-4.775	0.266	0.184
-416.442	112.975	-0.102	-0.124
-415.428	-92.447	0.068	-0.019
-414.413	800.000	-0.148	0.415
-413.398	-200.000	-0.008	-0.327
-412.384	-200.000	0.028	-0.237
-411.369	503.807	-0.081	-0.188
-410.355	92.354	0.171	0.193
-409.340	-200.000	0.024	-0.279
-408.325	-18.270	-0.255	0.160
-407.311	-200.000	-0.053	0.318
-406.296	-93.207	0.123	-0.034
-405.282	459.581	0.072	0.161
-404.267	-93.670	-0.311	-0.086
-403.252	46.834	0.132	0.123
-402.238	-49.254	0.060	0.028
-401.223	-48.034	0.041	0.020
-400.209	594.725	-0.077	-0.191
-399.194	536.631	0.188	-0.447
-398.179	796.259	-0.100	0.276
-397.165	300.176	0.017	0.031
-396.150	-27.839	-0.438	0.254
-395.136	17.666	0.057	-0.045
-394.121	800.000	-0.028	-0.083
-393.106	7.614	0.247	-0.185
-392.092	198.197	0.216	-0.330
-391.077	314.418	0.169	-0.318
-390.063	-104.120	-0.061	-0.014
-389.048	438.501	-0.111	0.241
-388.033	253.748	0.027	-0.046
-387.019	175.707	0.157	-0.228
-386.004	17.854	-0.263	0.210
-384.990	-45.309	-0.279	0.138
-383.975	192.421	0.166	0.251
-382.960	-58.604	0.423	-0.183
-381.946	54.527	0.172	0.166
-380.931	16.622	-0.231	-0.182
-379.917	-50.030	0.240	-0.114
-378.902	133.324	-0.110	0.142
-377.888	-14.683	-0.136	-0.087
-376.873	88.406	0.156	-0.173
-375.858	-51.692	-0.109	-0.051
-374.844	-103.004	-0.233	0.055
-373.829	35.052	-0.280	-0.245
-372.815	316.835	-0.126	0.237
-371.800	99.769	0.213	0.246
-370.785	-200.000	-0.026	0.177
-369.771	142.422	0.065	0.086
-368.756	-200.000	-0.030	0.175
-367.742	135.020	-0.148	-0.192
-366.727	-153.962	0.014	0.001
-365.712	800.000	-0.099	0.341
-364.698	11.791	-0.174	0.134
-363.683	-82.127	-0.178	-0.058
-362.669	-94.269	0.063	-0.017
-361.654	121.822	0.106	0.132
-360.639	-122.154	0.306	0.050
-359.625	230.232	0.136	-0.223
-358.610	-120.106	0.349	-0.060
-357.596	144.797	-0.173	-0.231
-356.581	800.000	-0.027	-0.085
-355.566	-130.608	-0.469	0.063
-354.552	49.929	-0.076	0.071
-353.537	453.699	0.105	0.232
-352.523	-147.385	-0.138	-0.012
-351.508	-200.000	-0.012	0.139
-350.493	-137.021	-0.250	0.029
-349.479	-32.705	0.225	-0.125
-348.464	-122.888	-0.249	-0.040
-347.450	721.475	0.047	-0.124
-346.435	54.451	-0.118	-0.113
-345.420	800.000	0.047	0.155
-344.406	613.745	-0.075	0.188
-343.391	55.625	0.219	-0.212
-342.377	11.224	-0.351	-0.268
-341.362	-62.383	0.441	0.183
-340.348	-30.457	0.036	-0.021
-339.333	-53.752	-0.135	0.062
-338.318	-134.049	-0.165	0.020
-337.304	72.406	-0.310	-0.322
-336.289	-200.000	0.026	-0.209
-335.275	65.226	-0.112	-0.113
-334.260	-141.201	0.087	0.009
-333.245	402.080	0.048	0.100
-332.231	-149.250	-0.212	-0.017
-331.216	-126.768	0.024	-0.004
-330.202	364.555	-0.004	0.009
-329.187	-20.605	0.032	0.020
-328.172	-74.639	-0.450	0.161
-327.158	-200.000	-0.026	-0.148
-326.143	-88.255	0.294	-0.088
-325.129	34.276	-0.312	0.272
-324.114	43.519	0.050	0.045
-323.099	537.761	0.109	-0.258
-322.085	309.737	0.010	0.019
-321.070	-22.282	0.259	-0.156
-320.056	352.416	0.039	-0.078
-319.041	-200.000	0.023	0.319
-318.026	-111.908	0.299	0.060
-317.012	-90.276	-0.082	-0.024
-315.997	-130.014	0.326	-0.044
-314.983	-48.421	-0.490	0.235
-313.968	-200.000	0.042	-0.249
-312.953	163.020	0.192	0.269
-311.939	-74.019	-0.158	-0.057
-310.924	17.183	0.274	-0.216
-309.910	-41.300	0.256	-0.131
-308.895	-112.584	-0.207	-0.041
-307.880	57.015	-0.139	0.135
-306.866	-200.000	0.068	0.451
-305.851	-200.000	0.011	0.229
-304.837	107.401	-0.154	0.182
-303.822	208.668	0.099	-0.154
-302.807	493.638	0.089	-0.202
-301.793	-11.689	-0.252	-0.165
-300.778	60.298	0.225	0.222
-299.764	-200.000	0.003	0.169
-298.749	-36.556	0.320	-0.171
-297.735	-200.000	-0.024	-0.235
-296.720	-200.000	0.024	-0.140
-295.705	800.000	-0.084	0.329
-294.691	-131.973	-0.336	-0.044
-293.676	1.975	0.251	0.180
-292.662	800.000	0.013	0.054
-291.647	229.055	0.188	-0.305
-290.632	-200.000	0.011	0.240
-289.618	114.000	0.144	0.174
-288.603	104.324	0.037	0.044
-287.589	70.795	-0.078	0.080
-286.574	-200.000	-0.049	0.311
-285.559	-121.780	0.267	0.044
-284.545	244.182	-0.057	0.096
-283.530	-73.268	0.282	0.103
-282.516	264.499	0.141	-0.245
-281.501	-200.000	-0.027	0.223
-280.486	-136.257	0.159	-0.018
-279.472	800.000	-0.047	-0.187
-278.457	-28.997	0.025	-0.014
-277.443	800.000	-0.048	-0.196
-276.428	-12.881	-0.101	0.066
-275.413	-200.000	-0.041	0.182
-274.399	-158.655	0.339	0.019
-273.384	514.733	0.045	0.104
-272.370	-51.544	0.180	0.084
-271.355	-6.750	-0.253	0.171
-270.340	-22.635	-0.204	0.123
-269.326	268.466	-0.133	0.232
-268.311	44.025	-0.062	-0.056
-267.297	800.000	-0.102	0.304
-266.282	97.763	-0.239	0.273
-265.267	263.608	-0.121	-0.209
-264.253	800.000	0.089	-0.337
-263.238	-8.836	0.406	0.271
-262.224	15.947	-0.137	-0.107
-261.209	582.199	-0.046	-0.113
-260.195	280.404	0.089	0.158
-259.180	-200.000	-0.059	-0.321
-258.165	-200.000	0.006	-0.585
-257.151	-157.875	0.389	0.023
-256.136	415.509	-0.039	-0.084
-255.122	459.524	0.051	-0.113
-254.107	567.458	0.102	0.247
-253.092	-114.514	-0.300	-0.057
-252.078	-74.201	-0.322	-0.116
-251.063	93.274	0.267	0.300
-250.049	-59.569	-0.158	-0.068
-249.034	800.000	-0.056	0.186
-248.019	-162.384	-0.256	-0.013
-247.005	62.282	0.123	-0.122
-245.990	-161.712	-0.345	0.017
-244.976	-82.993	-0.050	0.016
-243.961	800.000	0.019	0.069
-242.946	-125.324	-0.185	-0.028
-241.932	30.021	0.252	-0.214
-240.917	-89.896	0.177	-0.051
-239.903	-200.000	-0.015	0.126
-238.888	389.531	-0.152	0.313
-237.873	-69.819	-0.142	-0.054
-236.859	94.925	0.032	-0.037
-235.844	67.594	0.093	0.094
-234.830	117.727	-0.120	0.147
-233.815	-200.000	-0.025	-0.201
-232.800	439.757	-0.144	0.312
-231.786	748.581	0.102	0.273
-230.771	85.287	0.252	0.274
-229.757	-18.960	0.039	0.024
-228.742	250.452	-0.092	0.155
-227.727	-88.622	-0.287	-0.085
-226.713	-200.000	-0.060	0.295
-225.698	-74.502	0.367	-0.131
-224.684	101.319	0.187	0.216
-223.669	-200.000	-0.031	-0.215
-222.655	-40.263	0.127	0.066
-221.640	-106.024	0.174	0.039
-220.625	38.471	-0.072	0.064
-219.611	-98.741	-0.203	-0.051
-218.596	-8.956	0.138	-0.092
-217.582	76.974	0.111	-0.117
-216.567	94.706	-0.169	-0.191
-215.552	-50.526	0.206	-0.097
-214.538	800.000	-0.110	0.322
-213.523	53.076	-0.130	-0.124
-212.509	-200.000	-0.010	0.164
-211.494	-200.000	-0.080	-0.450
-210.479	276.087	0.123	-0.217
-209.465	-200.000	0.022	-0.106
-208.450	469.826	0.086	0.192
-207.436	-41.982	-0.017	0.009
-206.421	-163.363	0.293	-0.014
-205.406	-50.385	0.235	0.110
-204.392	137.008	-0.332	-0.431
-203.377	-89.661	-0.041	-0.012
-202.363	-89.491	-0.310	-0.090
-201.348	-200.000	0.031	0.199
-200.333	472.652	0.048	0.108
-199.319	124.020	-0.190	0.236
-198.304	-111.223	-0.128	0.026
-197.290	-77.732	0.261	0.090
-196.275	-200.000	-0.040	-0.307
-195.260	98.841	-0.095	0.109
-194.246	265.327	0.074	0.128
-193.231	197.259	0.151	0.229
-192.217	-88.620	0.140	0.041
-191.202	-200.000	0.042	0.278
-190.187	69.608	-0.327	-0.334
-189.173	86.491	-0.078	0.085
-188.158	800.000	-0.025	0.086
-187.144	-19.894	-0.134	-0.082
-186.129	654.108	-0.082	-0.208
-185.114	-200.000	0.033	-0.205
-184.100	433.598	0.203	0.438
-183.085	-200.000	-0.002	0.111
-182.071	-186.388	-0.329	-0.005
-181.056	180.769	0.110	0.160
-180.042	404.606	0.036	0.075
-179.027	-200.000	-0.033	-0.219
-178.012	-98.333	0.328	-0.083
-176.998	221.850	-0.246	0.393
-175.983	800.000	0.093	-0.272
-174.969	-104.701	0.305	0.070
-173.954	-158.463	0.342	0.020
-172.939	0.189	0.376	-0.266
-171.925	755.861	-0.018	0.047
-170.910	-58.304	-0.074	0.032
-169.896	800.000	0.081	-0.292
-168.881	-39.759	-0.216	-0.112
-167.866	-7.852	0.048	0.032
-166.852	-200.000	-0.028	-0.185
-165.837	-10.233	0.322	0.212
-164.823	-55.549	0.130	0.058
-163.808	728.871	0.011	-0.029
-162.793	34.281	-0.364	0.315
-161.779	493.688	0.108	0.246
-160.764	-200.000	0.044	0.191
-159.750	-61.212	0.363	-0.152
-158.735	536.883	-0.021	-0.048
-157.720	-114.320	0.283	-0.054
-156.706	326.852	-0.157	-0.298
-155.691	-200.000	0.015	0.147
-154.677	-127.404	0.445	0.064
-153.662	-200.000	0.004	0.187
-152.647	64.000	0.124	-0.123
-151.633	-128.691	-0.240	-0.034
-150.618	-200.000	-0.016	-0.094
-149.604	-200.000	-0.016	-0.169
-148.589	18.679	0.042	0.033
-147.574	393.532	0.187	0.385
-146.560	-200.000	0.010	-0.112
-145.545	-10.322	-0.062	-0.041
-144.531	-49.521	0.265	0.125
-143.516	62.901	-0.191	-0.190
-142.502	-200.000	-0.052	-0.328
-141.487	24.145	0.094	0.077
-140.472	-82.428	-0.233	-0.075
-139.458	-78.301	0.075	-0.025
-138.443	-200.000	0.059	0.381
-137.429	800.000	-0.032	-0.120
-136.414	-88.629	-0.346	-0.102
-135.399	-97.315	0.225	0.058
-134.385	800.000	-0.092	0.271
-133.370	800.000	0.097	0.333
-132.356	715.886	-0.037	-0.098
-131.341	-200.000	-0.023	-0.148
-130.326	-155.460	-0.281	-0.018
-129.312	72.241	-0.198	0.205
-128.297	-124.238	-0.111	0.017
-127.283	33.928	-0.095	0.082
-126.268	-185.343	0.168	-0.003
-125.253	102.167	0.059	-0.068
-124.239	-200.000	0.038	0.227
-123.224	258.436	-0.017	-0.030
-122.210	272.976	-0.085	-0.149
-121.195	25.156	-0.258	-0.212
-120.180	101.812	0.202	-0.233
-119.166	253.224	-0.174	0.294
-118.151	215.269	0.141	-0.222
-117.137	-39.298	0.097	-0.051
-116.122	-14.991	0.024	-0.015
-115.107	123.883	0.181	0.225
-114.093	800.000	-0.028	-0.099
-113.078	83.182	0.084	0.091
-112.064	800.000	0.047	0.133
-111.049	375.056	0.044	0.088
-110.034	-14.520	0.425	-0.270
-109.020	-113.465	0.157	0.030
-108.005	74.132	0.101	-0.105
-106.991	-99.686	0.061	0.015
-105.976	196.413	0.056	0.084
-104.962	-154.348	-0.010	0.001
-103.947	-26.166	-0.323	-0.188
-102.932	138.271	-0.187	-0.242
-101.918	22.476	0.241	0.195
-100.903	-115.847	0.275	0.051
-99.889	800.000	-0.018	0.078
-98.874	118.415	-0.203	0.248
-97.859	-200.000	-0.039	0.282
-96.845	-96.632	-0.243	0.063
-95.830	-44.700	0.113	-0.056
-94.816	800.000	-0.053	0.168
-93.801	-200.000	-0.016	0.188
-92.786	340.379	0.249	0.480
-91.772	-199.216	0.485	-0.003
-90.757	-70.112	-0.199	0.075
-89.743	38.746	0.261	-0.230
-88.728	75.191	-0.402	0.419
-87.713	-126.540	0.192	-0.028
-86.699	-46.653	-0.154	-0.074
-85.684	130.179	0.164	0.207
-84.670	165.656	0.036	-0.051
-83.655	154.195	-0.142	0.193
-82.640	-77.116	0.180	0.062
-81.626	800.000	0.035	-0.127
-80.611	56.213	-0.086	-0.082
-79.597	233.047	-0.210	-0.342
-78.582	85.347	0.191	-0.207
-77.567	800.000	-0.084	-0.304
-76.553	-114.045	-0.377	-0.072
-75.538	-154.634	0.255	0.017
-74.524	-128.225	0.133	-0.019
-73.509	137.578	-0.222	-0.287
-72.494	74.235	0.142	0.147
-71.480	252.998	0.164	0.276
-70.465	455.599	-0.181	0.396
-69.451	48.691	0.142	-0.132
-68.436	800.000	0.064	-0.202
-67.422	63.958	-0.029	-0.029
-66.407	62.962	-0.315	0.311
-65.392	-200.000	0.032	0.286
-64.378	-0.315	0.378	0.266
-63.363	800.000	-0.031	-0.098
-62.349	-18.275	0.203	0.125
-61.334	15.509	-1.096	-0.849
-60.319	246.754	0.117	0.194
-59.305	-200.000	0.089	-0.771
-58.290	198.404	0.496	0.750
-57.276	624.696	0.619	1.540
-56.261	-200.000	90.014	506.100
-55.246	465.564	1398.092	3088.200
-54.232	147.545	2615.428	3476.687
-53.217	105.530	2330.070	2717.306
-52.203	45.310	1940.757	1766.477
-51.188	39.447	1728.730	1528.113
-50.173	36.770	1683.939	1468.188
-49.159	52.179	1728.825	1626.016
-48.144	55.697	1747.126	1670.197
-47.130	39.375	1704.954	1506.306
-46.115	36.455	1690.519	1471.297
-45.100	36.228	1685.745	1465.360
-44.086	36.183	1682.696	1462.306
-43.071	36.154	1680.442	1460.067
-42.057	36.060	1678.231	1457.380
-41.042	36.164	1676.058	1456.222
-40.027	36.180	1674.321	1454.776
-39.013	36.225	1671.961	1453.003
-37.998	36.045	1670.958	1450.718
-36.984	36.162	1669.697	1450.453
-35.969	36.243	1668.008	1449.533
-34.954	36.344	1665.837	1448.344
-33.940	36.356	1663.945	1446.733
-32.925	36.272	1662.591	1444.872
-31.911	36.366	1660.589	1443.775
-30.896	36.266	1658.767	1441.389
-29.881	36.273	1657.083	1439.918
-28.867	36.291	1655.481	1438.603
-27.852	36.383	1653.977	1437.929
-26.838	36.366	1652.386	1436.359
-25.823	36.346	1651.407	1435.306
-24.809	36.286	1649.937	1433.526
-23.794	36.375	1648.282	1432.687
-22.779	36.296	1647.166	1431.076
-21.765	36.325	1644.966	1429.324
-20.750	36.334	1643.374	1427.952
-19.736	36.351	1642.025	1426.845
-18.721	36.308	1640.810	1425.412
-17.706	36.344	1639.029	1424.081
-16.692	36.290	1637.907	1422.649
-15.677	36.345	1636.147	1421.465
-14.663	36.386	1634.618	1420.385
-13.648	36.353	1633.982	1419.536
-12.633	36.339	1631.950	1417.605
-11.619	36.345	1630.596	1416.423
-10.604	36.314	1628.748	1414.528
-9.590	36.442	1627.134	1414.010
-8.575	36.402	1626.032	1412.701
-7.560	36.350	1624.841	1411.234
-6.546	36.357	1623.950	1410.453
-5.531	36.392	1622.510	1409.400
-4.517	36.344	1621.610	1408.215
-3.502	36.320	1620.835	1407.308
-2.487	36.411	1618.901	1406.240
-1.473	36.255	1607.904	1395.503
-0.458	33.964	1588.796	1362.466
0.556	30.451	1588.656	1330.247
1.571	28.091	1613.691	1333.900
2.586	27.617	1627.916	1342.052
3.600	23.889	1572.213	1269.452
4.615	12.952	1454.130	1101.377
5.629	3.513	1384.292	988.149
6.644	2.021	1375.354	972.185
7.659	1.900	1373.739	970.185
8.673	1.728	1373.278	968.681
9.688	1.801	1370.820	967.324
10.702	1.567	1368.554	964.159
11.717	5.099	1375.604	991.510
12.731	15.826	1396.534	1075.397
13.746	24.564	1410.917	1142.530
14.761	26.418	1413.099	1156.057
15.775	26.654	1412.887	1157.294
16.790	26.701	1412.589	1157.248
17.804	26.718	1411.716	1156.539
18.819	26.871	1411.970	1157.619
19.834	27.176	1410.584	1158.324
20.848	27.147	1409.908	1157.478
21.863	27.016	1409.262	1156.016
22.877	27.003	1408.237	1154.990
23.892	27.144	1407.693	1155.340
24.907	26.969	1407.154	1153.683
25.921	27.108	1405.670	1153.246
26.936	27.141	1404.723	1152.575
27.950	27.112	1403.733	1151.478
28.965	26.998	1402.888	1149.956
29.980	26.986	1401.390	1148.552
30.994	27.104	1399.735	1147.842
32.009	27.057	1399.136	1146.950
33.023	27.090	1397.664	1145.851
34.038	27.038	1396.787	1144.705
35.053	27.034	1395.812	1143.776
36.067	27.075	1394.650	1142.982
37.082	27.025	1393.794	1141.863
38.096	27.033	1392.305	1140.595
39.111	27.084	1391.887	1140.470
40.126	27.060	1391.630	1140.012
41.140	27.005	1390.607	1138.725
42.155	26.973	1390.830	1138.604
43.169	26.937	1390.977	1138.400
44.184	27.003	1390.225	1138.097
45.199	26.931	1390.308	1137.615
46.213	27.102	1389.068	1137.571
47.228	27.058	1387.982	1136.305
48.242	27.176	1386.870	1136.031
49.257	27.030	1385.355	1133.779
50.271	27.036	1384.036	1132.638
51.286	27.075	1382.517	1131.535
52.301	27.048	1381.619	1130.531
53.315	27.157	1380.450	1130.155
54.330	27.022	1380.066	1128.899
55.344	26.906	1379.318	1127.467
56.359	27.003	1378.261	1127.106
57.374	27.050	1377.260	1126.479
58.388	27.103	1376.486	1126.073
59.403	26.951	1376.479	1125.028
60.417	27.031	1375.306	1124.464
61.432	26.959	1375.076	1123.731
62.447	27.071	1373.523	1123.056
63.461	27.057	1372.817	1122.290
64.476	27.070	1371.556	1121.243
65.490	26.985	1370.541	1119.786
66.505	27.066	1369.102	1119.013
67.520	27.119	1367.939	1118.291
68.534	27.107	1366.661	1117.072
69.549	27.049	1365.848	1115.955
70.563	27.068	1365.007	1115.283
71.578	27.033	1363.979	1114.129
72.593	27.103	1363.048	1113.697
73.607	27.094	1362.265	1112.910
74.622	27.130	1361.841	1112.685
75.636	27.088	1360.595	1111.311
76.651	27.093	1359.997	1110.754
77.666	27.053	1359.681	1110.152
78.680	26.983	1359.652	1109.605
79.695	27.106	1358.239	1109.102
80.709	27.062	1357.802	1108.379
81.724	27.088	1356.985	1107.773
82.739	27.046	1355.879	1106.516
83.753	27.008	1354.817	1105.321
84.768	27.015	1353.721	1104.369
85.782	26.996	1352.806	1103.411
86.797	27.054	1351.546	1102.633
87.812	27.131	1350.218	1101.922
88.826	27.172	1349.228	1101.268
89.841	26.988	1348.703	1099.626
90.855	27.180	1346.945	1099.253
91.870	27.153	1346.277	1098.450
92.884	27.107	1345.817	1097.701
93.899	27.105	1344.903	1096.846
94.914	27.205	1343.695	1096.364
95.928	27.082	1343.499	1095.364
96.943	27.169	1342.355	1094.860
97.957	27.071	1341.683	1093.629
98.972	27.219	1340.660	1093.583
99.987	27.164	1339.701	1092.379
101.001	27.162	1338.774	1091.515
102.016	27.125	1338.181	1090.710
103.030	27.092	1337.218	1089.631
104.045	27.075	1336.445	1088.801
105.060	27.222	1334.995	1088.404
106.074	27.148	1334.329	1087.325
107.089	27.185	1333.080	1086.431
108.103	27.166	1332.205	1085.507
109.118	27.240	1331.394	1085.190
110.133	27.238	1330.118	1084.042
111.147	27.213	1328.936	1082.837
112.162	27.195	1327.851	1081.749
113.176	27.229	1326.957	1081.129
114.191	27.161	1326.255	1080.056
115.206	27.064	1325.494	1078.761
116.220	27.226	1323.514	1078.019
117.235	27.216	1322.977	1077.426
118.249	27.151	1322.558	1076.603
119.264	27.273	1321.346	1076.246
120.279	27.172	1321.069	1075.323
121.293	27.220	1320.079	1074.709
122.308	27.275	1319.232	1074.247
123.322	27.316	1318.459	1073.767
124.337	27.210	1318.138	1072.782
125.352	27.249	1316.661	1071.715
126.366	27.315	1315.333	1070.932
127.381	27.333	1314.692	1070.418
128.395	27.242	1314.005	1069.227
129.410	27.309	1312.909	1068.638
130.424	27.216	1312.694	1067.821
131.439	27.266	1311.701	1067.214
132.454	27.203	1310.954	1066.139
133.468	27.283	1309.932	1065.687
134.483	27.315	1309.616	1065.518
135.497	27.236	1309.054	1064.508
136.512	27.187	1307.950	1063.227
137.527	27.208	1307.234	1062.676
138.541	27.268	1305.595	1061.598
139.556	27.219	1304.129	1060.024
140.570	27.285	1303.039	1059.431
141.585	27.204	1302.086	1058.092
142.600	27.162	1301.226	1057.055
143.614	27.120	1300.883	1056.439
144.629	27.152	1299.334	1055.275
145.643	27.048	1298.283	1053.724
146.658	27.131	1297.359	1053.358
147.673	27.219	1296.382	1052.986
148.687	27.051	1295.536	1051.230
149.702	27.194	1294.205	1050.885
150.716	27.188	1292.860	1049.664
151.731	27.200	1292.042	1048.978
152.746	27.133	1291.107	1047.738
153.760	27.066	1290.002	1046.361
154.775	27.263	1289.193	1046.751
155.789	27.215	1288.559	1045.866
156.804	27.297	1287.244	1045.178
157.819	27.184	1286.283	1043.653
158.833	27.241	1285.797	1043.493
159.848	27.296	1284.815	1042.920
160.862	27.325	1283.896	1042.248
161.877	27.255	1283.752	1041.640
162.892	27.305	1283.258	1041.433
163.906	27.304	1281.628	1040.012
164.921	27.329	1281.519	1039.972
165.935	27.251	1280.659	1038.740
166.950	27.315	1279.957	1038.443
167.964	27.300	1279.673	1038.036
168.979	27.369	1278.599	1037.467
169.994	27.322	1278.137	1036.730
171.008	27.350	1277.515	1036.294
172.023	27.324	1276.750	1035.431
173.037	27.375	1275.855	1034.904
174.052	27.289	1275.233	1033.824
175.067	27.317	1274.164	1033.025
176.081	27.319	1273.454	1032.367
177.096	27.251	1272.724	1031.300
178.110	27.341	1271.837	1031.001
179.125	27.342	1270.860	1030.120
180.140	27.435	1269.740	1029.647
181.154	27.333	1268.851	1028.260
182.169	27.268	1267.934	1027.058
183.183	27.318	1266.601	1026.167
184.198	27.383	1265.464	1025.525
185.213	27.512	1264.257	1025.183
186.227	27.489	1263.382	1024.251
187.242	27.378	1262.801	1023.063
188.256	27.397	1261.703	1022.192
189.271	27.450	1260.886	1021.737
190.286	27.505	1260.042	1021.270
191.300	27.451	1259.746	1020.640
192.315	27.364	1259.799	1020.102
193.329	27.364	1258.845	1019.243
194.344	27.374	1258.855	1019.213
195.359	27.371	1257.991	1018.410
196.373	27.400	1257.118	1017.775
197.388	27.370	1257.032	1017.448
198.402	27.343	1256.806	1017.020
199.417	27.348	1256.150	1016.431
200.432	27.449	1255.395	1016.293
201.446	27.457	1254.937	1015.875
202.461	27.491	1253.885	1015.126
203.475	27.444	1253.370	1014.356
204.490	27.328	1252.080	1012.576
205.504	27.415	1251.429	1012.441
206.519	27.550	1250.045	1011.984
207.534	27.502	1249.238	1010.977
208.548	27.497	1248.531	1010.283
209.563	27.565	1247.473	1009.718
210.577	27.591	1246.696	1009.141
211.592	27.502	1245.999	1007.996
212.607	27.562	1245.261	1007.640
213.621	27.527	1244.788	1006.979
214.636	27.594	1243.549	1006.255
215.650	27.515	1243.211	1005.454
216.665	27.703	1241.780	1005.246
217.680	27.616	1241.018	1004.063
218.694	27.535	1240.717	1003.281
219.709	27.538	1239.808	1002.476
220.723	27.582	1239.188	1002.127
221.738	27.479	1238.712	1001.090
222.753	27.518	1237.681	1000.379
223.767	27.494	1236.775	999.428
224.782	27.598	1236.378	999.589
225.796	27.615	1235.929	999.230
226.811	27.608	1235.476	998.736
227.826	27.664	1234.917	998.507
228.840	27.683	1234.037	997.806
229.855	27.500	1233.733	996.471
230.869	27.589	1232.590	995.947
231.884	27.681	1231.777	995.706
232.899	27.493	1231.725	994.549
233.913	27.700	1230.674	994.741
234.928	27.611	1230.553	994.071
235.942	27.760	1229.844	994.224
236.957	27.613	1229.138	992.763
237.972	27.669	1228.280	992.286
238.986	27.815	1226.950	991.918
240.001	27.877	1226.543	991.836
241.015	27.805	1225.992	990.912
242.030	27.802	1225.355	990.294
243.045	27.901	1224.575	990.114
244.059	27.778	1224.048	988.932
245.074	27.886	1222.739	988.372
246.088	27.742	1222.297	987.147
247.103	27.784	1221.503	986.648
248.117	27.744	1220.985	985.926
249.132	27.876	1219.780	985.576
250.147	27.867	1219.484	985.204
251.161	27.944	1218.540	984.768
252.176	27.891	1217.665	983.689
253.190	27.957	1217.374	983.722
254.205	27.937	1216.673	982.960
255.220	27.897	1216.378	982.420
256.234	27.904	1215.429	981.602
257.249	27.805	1215.250	980.838
258.263	27.934	1213.925	980.377
259.278	27.906	1214.092	980.273
260.293	27.903	1213.443	979.646
261.307	28.024	1212.552	979.492
262.322	28.008	1212.083	978.941
263.336	28.002	1211.123	978.047
264.351	27.985	1210.714	977.538
265.366	27.991	1210.163	977.039
266.380	27.967	1209.738	976.479
267.395	27.916	1208.619	975.217
268.409	27.995	1207.813	974.904
269.424	27.947	1207.416	974.239
270.439	27.985	1207.210	974.192
271.453	27.902	1206.447	973.044
272.468	27.870	1205.713	972.199
273.482	27.940	1205.173	972.050
274.497	27.926	1204.641	971.460
275.512	28.091	1203.972	971.711
276.526	28.166	1202.817	971.090
277.541	28.092	1202.380	970.259
278.555	28.106	1201.909	969.867
279.570	28.163	1200.947	969.309
280.585	28.102	1199.950	968.094
281.599	28.098	1199.496	967.621
282.614	27.978	1198.867	966.391
283.628	28.214	1197.454	966.417
284.643	28.210	1196.384	965.443
285.657	28.108	1195.943	964.464
286.672	28.135	1195.161	963.891
287.687	28.178	1194.282	963.322
288.701	28.182	1193.707	962.798
289.716	28.259	1193.110	962.632
290.730	28.223	1192.278	961.690
291.745	28.195	1191.745	961.026
292.760	28.227	1191.182	960.656
293.774	28.175	1190.881	960.057
294.789	28.211	1190.352	959.733
295.803	28.255	1189.688	959.343
296.818	28.185	1188.818	958.188
297.833	28.290	1188.018	958.008
298.847	28.259	1187.592	957.420
299.862	28.311	1186.435	956.674
300.876	28.227	1186.046	955.838
301.891	28.217	1185.938	955.614
302.906	28.332	1184.422	954.906
303.920	28.373	1184.079	954.758
304.935	28.447	1183.597	954.673
305.949	28.349	1182.782	953.419
306.964	28.411	1182.340	953.303
307.979	28.343	1181.776	952.409
308.993	28.352	1181.431	952.093
310.008	28.320	1180.108	950.776
311.022	28.342	1179.478	950.297
312.037	28.503	1178.268	950.075
313.052	28.299	1177.882	948.623
314.066	28.388	1176.785	948.114
315.081	28.438	1176.362	947.947
316.095	28.379	1176.100	947.348
317.110	28.382	1175.788	947.031
318.125	28.474	1174.457	946.347
319.139	28.577	1173.335	945.890
320.154	28.503	1172.926	945.097
321.168	28.538	1172.429	944.794
322.183	28.431	1172.317	944.067
323.197	28.467	1171.839	943.787
324.212	28.520	1171.017	943.314
325.227	28.440	1170.652	942.521
326.241	28.534	1170.135	942.504
327.256	28.615	1168.867	941.820
328.270	28.622	1168.178	941.213
329.285	28.580	1167.401	940.291
330.300	28.617	1166.605	939.756
331.314	28.547	1165.959	938.792
332.329	28.603	1165.005	938.229
333.343	28.574	1164.406	937.514
334.358	28.549	1163.783	936.804
335.373	28.609	1163.110	936.486
336.387	28.638	1162.416	935.991
337.402	28.680	1161.498	935.384
338.416	28.748	1160.709	935.010
339.431	28.665	1160.514	934.351
340.446	28.727	1159.412	933.695
341.460	28.837	1158.925	933.776
342.475	28.705	1158.398	932.599
343.489	28.749	1157.361	931.904
344.504	28.666	1156.475	930.691
345.519	28.701	1155.835	930.270
346.533	28.736	1154.826	929.553
347.548	28.761	1153.872	928.827
348.562	28.820	1153.471	928.720
349.577	28.778	1152.770	927.863
350.592	28.730	1151.739	926.706
351.606	28.749	1151.315	926.380
352.621	28.771	1151.004	926.159
353.635	28.870	1150.114	925.858
354.650	28.860	1149.453	925.196
355.665	28.919	1148.788	924.877
356.679	28.818	1148.503	924.059
357.694	28.820	1147.971	923.557
358.708	28.863	1147.012	922.918
359.723	28.883	1146.403	922.446
360.738	28.736	1145.642	921.017
361.752	28.776	1145.595	921.098
362.767	28.874	1145.044	921.064
363.781	28.933	1143.917	920.374
364.796	28.996	1143.237	920.057
365.810	28.985	1142.826	919.589
366.825	28.988	1142.185	919.011
367.840	29.040	1141.698	918.796
368.854	29.131	1141.295	918.845
369.869	29.026	1140.575	917.662
370.883	29.089	1139.692	917.181
371.898	29.034	1139.094	916.348
372.913	29.027	1138.547	915.791
373.927	28.995	1137.857	914.993
374.942	29.038	1137.433	914.787
375.956	29.136	1136.923	914.785
376.971	29.230	1136.022	914.445
377.986	29.157	1135.973	913.959
379.000	29.221	1134.829	913.278
380.015	29.103	1134.838	912.618
381.029	29.101	1133.874	911.751
382.044	29.162	1133.182	911.417
383.059	29.265	1132.544	911.333
384.073	29.184	1131.785	910.241
385.088	29.271	1130.666	909.690
386.102	29.225	1129.928	908.790
387.117	29.306	1129.105	908.447
388.132	29.204	1128.415	907.309
389.146	29.215	1128.122	907.046
390.161	29.106	1127.784	906.156
391.175	29.278	1126.367	905.782
392.190	29.254	1126.100	905.369
393.205	29.260	1125.536	904.867
394.219	29.283	1124.470	904.042
395.234	29.384	1123.700	903.839
396.248	29.389	1122.752	903.023
397.263	29.437	1122.121	902.669
398.278	29.372	1121.552	901.811
399.292	29.486	1120.659	901.573
400.307	29.456	1120.327	901.076
401.321	29.449	1119.655	900.425
402.336	29.384	1119.040	899.531
403.350	29.355	1118.443	898.833
404.365	29.458	1117.926	898.841
405.380	29.482	1117.302	898.376
406.394	29.461	1115.997	897.142
407.409	29.469	1115.491	896.695
408.423	29.524	1114.927	896.431
409.438	29.580	1113.952	895.836
410.453	29.572	1113.356	895.243
411.467	29.635	1112.561	894.828
412.482	29.609	1111.963	894.139
413.496	29.676	1111.261	893.820
414.511	29.566	1111.096	893.079
415.526	29.577	1110.644	892.691
416.540	29.615	1110.175	892.416
417.555	29.621	1109.667	891.961
418.569	29.616	1108.801	891.158
419.584	29.767	1108.514	891.579
420.599	29.758	1107.965	891.015
421.613	97.442	1317.315	1428.723
422.628	91.259	1347.818	1428.841
