DTS Sentinel unit serial number:	SN413079Multiplexer serial number:	ORYXHardware model number:	OX4-SRSoftware version number:	ORYX F/W v4.00 Oryx Data Collector v3.7.2.0data status	okinstallation	princeton_trtdifferential loss correction	single-endedforward channel	channel 2reverse channel	N/Adate	2019/09/14time	22:31:35forward acquisition time	60.00reverse acquisition time	0.00gamma	496.2192k internal	0.2323k external	0.2323temperature offset calibration	1.0063default loss term (dB/km)	0.3790temperature slope calibration	1.0000multiplexer offset coefficient	1.0000multiplexer slope coefficient	1.0000fibre end	0.00T internal ref (°C)	32.55T ext. ref 1 (°C)	4.69T ext. ref 2 (°C)	27.56length (m)	temperature (°C)	Stokes	anti-Stokes-747.200	149.777	0.083	0.114
-746.185	127.567	0.312	0.400
-745.171	800.000	-0.095	-0.352
-744.156	-51.341	0.152	0.072
-743.142	17.376	0.056	0.045
-742.127	-139.079	0.286	0.031
-741.112	-69.034	-0.160	-0.062
-740.098	-82.707	-0.313	0.102
-739.083	59.034	-0.248	-0.246
-738.069	-200.000	0.043	0.248
-737.054	-131.453	-0.317	-0.042
-736.039	-154.132	0.248	0.017
-735.025	51.934	0.148	0.142
-734.010	-65.979	-0.235	-0.095
-732.996	800.000	-0.018	-0.071
-731.981	119.394	-0.208	0.259
-730.966	123.357	0.119	-0.151
-729.952	-81.987	-0.230	-0.076
-728.937	-89.572	0.241	-0.071
-727.923	-113.253	-0.128	0.025
-726.908	-200.000	-0.037	0.196
-725.894	-191.200	0.191	-0.002
-724.879	-60.606	-0.299	-0.128
-723.864	800.000	0.066	-0.214
-722.850	-200.000	0.022	-0.156
-721.835	800.000	-0.062	0.236
-720.821	402.156	-0.048	-0.102
-719.806	-166.410	0.125	0.005
-718.791	23.852	-0.232	0.193
-717.777	569.985	-0.037	0.090
-716.762	-132.879	-0.246	0.032
-715.748	800.000	-0.112	0.314
-714.733	-200.000	0.013	0.153
-713.718	-100.987	0.226	-0.056
-712.704	-200.000	0.037	0.174
-711.689	800.000	0.066	-0.276
-710.675	89.320	-0.177	-0.199
-709.660	92.176	0.210	-0.239
-708.645	12.773	0.254	-0.198
-707.631	-37.907	-0.382	-0.205
-706.616	-45.339	0.449	-0.224
-705.602	-200.000	-0.022	-0.250
-704.587	800.000	-0.118	-0.473
-703.572	800.000	0.050	-0.191
-702.558	-200.000	0.013	-0.141
-701.543	-95.390	-0.238	-0.064
-700.529	-91.324	0.089	-0.026
-699.514	-21.827	-0.163	0.100
-698.499	800.000	0.079	0.338
-697.485	800.000	-0.021	-0.073
-696.470	-1.604	0.063	0.045
-695.456	161.944	0.216	0.306
-694.441	31.504	0.138	-0.120
-693.426	7.258	0.040	0.030
-692.412	-99.222	0.059	-0.015
-691.397	-11.992	-0.305	-0.201
-690.383	800.000	-0.090	0.337
-689.368	-64.474	-0.189	0.077
-688.354	-86.622	-0.026	0.008
-687.339	-0.031	0.222	-0.159
-686.324	-200.000	-0.055	-0.255
-685.310	127.549	-0.072	-0.092
-684.295	240.934	0.119	-0.199
-683.281	48.397	-0.248	-0.234
-682.266	51.258	-0.039	0.037
-681.251	391.259	-0.169	-0.354
-680.237	800.000	0.068	-0.270
-679.222	219.718	-0.236	-0.381
-678.208	352.003	0.118	-0.235
-677.193	-200.000	0.032	-0.343
-676.178	51.209	0.093	0.089
-675.164	254.744	-0.265	-0.457
-674.149	-102.414	0.117	0.028
-673.135	92.364	0.095	-0.108
-672.120	80.862	-0.276	-0.300
-671.105	-3.477	-0.249	0.174
-670.091	76.049	0.085	-0.091
-669.076	-200.000	0.041	0.185
-668.062	-200.000	-0.039	-0.239
-667.047	-85.840	-0.410	0.128
-666.032	527.483	0.178	-0.423
-665.018	84.437	-0.327	-0.360
-664.003	-53.425	0.150	-0.069
-662.989	-52.831	-0.152	0.071
-661.974	-169.862	0.126	-0.005
-660.959	-200.000	-0.046	-0.333
-659.945	-125.741	-0.225	0.034
-658.930	-44.699	-0.145	0.073
-657.916	-40.655	-0.249	-0.130
-656.901	104.590	-0.174	0.207
-655.886	800.000	-0.052	-0.169
-654.872	-200.000	-0.007	0.062
-653.857	800.000	0.057	-0.197
-652.843	-200.000	-0.036	0.195
-651.828	-200.000	-0.001	0.145
-650.814	-200.000	0.001	0.093
-649.799	800.000	0.027	0.085
-648.784	23.589	-0.022	-0.018
-647.770	-70.476	-0.300	-0.114
-646.755	593.607	-0.106	-0.264
-645.741	800.000	-0.051	-0.148
-644.726	-51.830	0.228	-0.107
-643.711	800.000	-0.050	0.157
-642.697	426.265	-0.049	0.107
-641.682	-200.000	0.249	-0.000
-640.668	-12.010	0.304	-0.200
-639.653	-200.000	-0.004	-0.100
-638.638	-97.690	-0.261	-0.068
-637.624	-94.675	-0.149	-0.041
-636.609	180.900	0.150	-0.221
-635.595	-71.056	0.332	0.126
-634.580	-40.470	0.039	0.020
-633.565	247.857	-0.068	-0.115
-632.551	3.456	-0.166	-0.122
-631.536	800.000	-0.081	-0.326
-630.522	175.463	0.198	0.288
-629.507	-200.000	-0.064	-0.465
-628.492	-84.953	0.225	0.071
-627.478	-200.000	-0.003	0.046
-626.463	-200.000	-0.020	0.185
-625.449	-200.000	-0.010	-0.182
-624.434	800.000	0.030	0.115
-623.419	-186.127	0.097	-0.001
-622.405	-28.606	-0.351	-0.203
-621.390	75.602	-0.188	-0.199
-620.376	114.513	0.094	-0.116
-619.361	-5.529	-0.189	-0.130
-618.346	-66.939	-0.141	0.056
-617.332	-12.651	0.193	-0.127
-616.317	-37.269	0.204	-0.110
-615.303	75.619	0.222	-0.235
-614.288	-200.000	-0.057	-0.276
-613.273	599.575	-0.035	-0.088
-612.259	70.458	-0.042	-0.044
-611.244	127.392	-0.210	0.268
-610.230	-200.000	-0.052	-0.373
-609.215	-108.545	-0.398	-0.086
-608.201	-18.162	-0.076	-0.048
-607.186	388.943	-0.060	0.126
-606.171	-200.000	-0.038	-0.170
-605.157	-54.717	-0.155	-0.071
-604.142	238.828	0.153	0.256
-603.128	-57.495	0.137	-0.061
-602.113	147.165	-0.245	0.332
-601.098	-18.420	-0.143	-0.090
-600.084	567.648	0.022	-0.054
-599.069	-200.000	0.018	-0.403
-598.055	-84.896	-0.203	-0.064
-597.040	1.520	0.300	0.216
-596.025	536.315	0.067	0.160
-595.011	-23.075	0.264	0.160
-593.996	488.374	0.120	0.275
-592.982	49.362	-0.159	0.150
-591.967	42.666	-0.338	-0.309
-590.952	-110.627	-0.249	0.052
-589.938	37.256	0.035	0.031
-588.923	-118.787	-0.470	0.083
-587.909	18.652	-0.114	0.092
-586.894	432.184	0.185	0.403
-585.879	-200.000	-0.017	0.271
-584.865	-32.843	0.054	0.030
-583.850	800.000	0.091	0.295
-582.836	121.484	0.166	-0.207
-581.821	-200.000	-0.022	0.211
-580.806	5.841	0.427	-0.317
-579.792	-53.055	-0.015	-0.007
-578.777	-101.837	-0.109	0.026
-577.763	-154.530	-0.227	-0.015
-576.748	160.934	-0.171	0.239
-575.733	-176.895	0.277	-0.007
-574.719	402.853	-0.159	-0.336
-573.704	586.547	-0.067	-0.166
-572.690	342.213	-0.057	0.111
-571.675	39.807	0.108	0.098
-570.661	34.577	-0.156	-0.137
-569.646	800.000	0.078	-0.315
-568.631	-22.962	0.074	-0.045
-567.617	-65.498	0.137	0.055
-566.602	-89.172	-0.172	-0.051
-565.588	209.499	-0.228	-0.359
-564.573	-200.000	-0.027	0.154
-563.558	558.831	-0.099	0.239
-562.544	800.000	0.049	-0.198
-561.529	-120.168	-0.090	0.015
-560.515	71.700	0.073	-0.076
-559.500	-75.226	0.173	0.062
-558.485	-85.074	0.419	0.131
-557.471	800.000	-0.037	0.110
-556.456	-89.161	-0.151	0.045
-555.442	287.249	0.051	-0.093
-554.427	-65.190	-0.128	-0.052
-553.412	68.287	0.132	-0.135
-552.398	252.823	0.075	0.129
-551.383	115.680	-0.153	0.188
-550.369	19.449	-0.061	0.049
-549.354	670.766	-0.044	-0.114
-548.339	-165.811	0.214	0.009
-547.325	368.391	-0.318	-0.643
-546.310	-115.946	0.023	-0.004
-545.296	-72.083	-0.294	0.109
-544.281	215.198	-0.051	0.081
-543.266	44.531	0.206	-0.190
-542.252	-105.477	-0.158	0.036
-541.237	-124.422	-0.192	0.030
-540.223	-106.092	0.280	0.063
-539.208	11.167	-0.139	-0.107
-538.193	-79.370	-0.327	-0.111
-537.179	-133.065	-0.185	0.024
-536.164	-179.792	0.252	-0.005
-535.150	41.943	-0.177	-0.161
-534.135	309.695	0.156	0.293
-533.121	-151.954	0.316	0.023
-532.106	64.066	-0.453	-0.456
-531.091	268.561	-0.057	0.099
-530.077	-119.345	0.177	0.031
-529.062	-26.056	-0.261	0.154
-528.048	-42.618	-0.097	0.050
-527.033	99.296	-0.138	0.159
-526.018	112.717	0.152	0.185
-525.004	168.082	-0.144	0.205
-523.989	-102.337	0.142	0.034
-522.975	176.351	-0.010	-0.015
-521.960	-33.306	-0.149	0.083
-520.945	-200.000	-0.007	0.038
-519.931	-167.189	0.024	-0.001
-518.916	603.651	0.068	0.170
-517.902	65.885	0.103	0.104
-516.887	800.000	0.060	-0.255
-515.872	-34.465	0.278	0.153
-514.858	64.224	-0.159	-0.160
-513.843	-169.857	-0.423	-0.015
-512.829	246.994	0.142	-0.239
-511.814	184.917	0.113	-0.167
-510.799	210.510	0.247	0.388
-509.785	-200.000	-0.062	0.371
-508.770	57.100	0.063	-0.061
-507.756	192.329	0.045	-0.068
-506.741	230.843	0.068	-0.112
-505.726	-132.141	0.140	-0.018
-504.712	22.322	0.162	0.133
-503.697	-46.064	-0.170	0.084
-502.683	718.207	-0.098	-0.261
-501.668	18.578	0.130	-0.104
-500.653	176.968	-0.205	-0.299
-499.639	-200.000	0.012	0.073
-498.624	240.670	0.173	-0.289
-497.610	110.034	0.030	0.036
-496.595	187.163	0.147	0.219
-495.581	-131.211	-0.187	0.025
-494.566	119.158	-0.095	0.117
-493.551	-69.387	-0.145	-0.056
-492.537	8.927	-0.153	0.115
-491.522	103.214	0.058	-0.068
-490.508	800.000	0.064	0.215
-489.493	-200.000	0.019	0.284
-488.478	-87.085	0.069	-0.021
-487.464	-200.000	0.026	0.227
-486.449	154.586	-0.231	-0.317
-485.435	418.739	-0.067	-0.144
-484.420	800.000	-0.059	-0.200
-483.405	-53.353	0.119	0.055
-482.391	-55.615	0.310	0.139
-481.376	-18.798	0.333	0.207
-480.362	800.000	0.040	0.115
-479.347	800.000	-0.026	-0.074
-478.332	666.059	0.122	-0.315
-477.318	-200.000	-0.021	0.115
-476.303	-44.419	0.055	-0.028
-475.289	-95.397	-0.228	0.061
-474.274	-12.415	0.132	-0.086
-473.259	-171.757	0.116	-0.004
-472.245	-57.164	-0.042	-0.018
-471.230	183.317	0.047	-0.069
-470.216	-72.856	-0.196	-0.072
-469.201	-200.000	0.055	0.332
-468.186	9.064	0.125	-0.094
-467.172	-46.904	-0.181	-0.088
-466.157	70.731	0.210	0.217
-465.143	45.099	0.182	0.168
-464.128	768.262	0.163	-0.443
-463.113	-187.626	-0.276	-0.004
-462.099	800.000	-0.028	0.090
-461.084	208.064	0.091	0.143
-460.070	-200.000	0.012	-0.171
-459.055	-154.621	0.213	0.014
-458.040	187.779	-0.111	-0.165
-457.026	-117.996	0.104	-0.019
-456.011	-200.000	0.037	0.277
-454.997	-135.493	-0.175	-0.021
-453.982	-177.956	-0.152	-0.004
-452.968	-137.436	0.444	-0.050
-451.953	-85.927	0.180	0.056
-450.938	800.000	-0.035	-0.149
-449.924	-200.000	-0.018	0.300
-448.909	-74.245	0.157	-0.057
-447.895	-89.899	-0.121	-0.035
-446.880	111.815	0.117	0.141
-445.865	-37.516	0.076	-0.040
-444.851	-200.000	-0.043	0.269
-443.836	800.000	-0.031	0.095
-442.822	-200.000	-0.008	-0.169
-441.807	-99.525	0.194	0.049
-440.792	-19.402	-0.086	-0.053
-439.778	387.612	-0.088	-0.182
-438.763	-35.379	-0.381	0.206
-437.749	162.089	-0.139	-0.195
-436.734	774.837	-0.047	-0.128
-435.719	28.308	-0.089	-0.075
-434.705	-200.000	0.026	0.329
-433.690	19.245	0.119	0.095
-432.676	582.566	0.098	-0.240
-431.661	-200.000	0.023	0.343
-430.646	223.654	0.052	0.083
-429.632	23.260	0.279	0.229
-428.617	102.075	0.103	0.120
-427.603	122.400	-0.163	-0.203
-426.588	396.177	-0.112	-0.232
-425.573	100.455	0.387	-0.448
-424.559	28.636	-0.118	-0.100
-423.544	495.330	-0.115	-0.263
-422.530	79.518	-0.164	0.176
-421.515	317.804	0.047	0.088
-420.500	60.924	-0.156	-0.154
-419.486	-114.745	0.177	-0.034
-418.471	-100.322	-0.249	0.062
-417.457	-182.141	-0.154	-0.003
-416.442	800.000	-0.047	0.189
-415.428	168.529	0.092	0.130
-414.413	-147.699	-0.336	-0.028
-413.398	35.732	0.075	0.066
-412.384	315.544	0.049	-0.092
-411.369	-11.541	0.185	0.121
-410.355	53.225	-0.231	0.221
-409.340	344.825	0.189	0.371
-408.325	-139.424	-0.316	-0.034
-407.311	-200.000	0.020	-0.153
-406.296	18.563	0.374	-0.298
-405.282	800.000	0.086	-0.326
-404.267	-125.357	0.323	-0.049
-403.252	22.042	-0.155	-0.126
-402.238	-117.149	-0.457	-0.083
-401.223	-97.391	-0.278	-0.072
-400.209	52.541	0.072	-0.068
-399.194	-72.554	-0.078	-0.029
-398.179	-200.000	0.062	-0.366
-397.165	-129.291	0.184	0.025
-396.150	-93.815	-0.138	0.038
-395.136	-160.859	0.137	0.007
-394.121	-129.617	0.175	-0.024
-393.106	166.959	0.086	-0.121
-392.092	-170.767	0.075	0.003
-391.077	800.000	0.033	0.130
-390.063	-200.000	0.021	-0.135
-389.048	-200.000	-0.049	-0.276
-388.033	-143.314	-0.138	-0.013
-387.019	263.721	0.169	-0.293
-386.004	-200.000	0.023	-0.193
-384.990	730.213	-0.092	-0.245
-383.975	-20.142	0.217	0.133
-382.960	-200.000	-0.035	0.306
-381.946	-126.133	-0.091	-0.014
-380.931	800.000	0.050	-0.202
-379.917	146.903	-0.077	-0.103
-378.902	-87.245	0.166	-0.050
-377.888	-32.347	-0.280	0.156
-376.873	253.078	0.142	0.240
-375.858	-7.121	-0.076	0.051
-374.844	447.502	0.161	-0.353
-373.829	800.000	0.026	-0.109
-372.815	-16.764	-0.154	0.097
-371.800	-24.075	0.041	-0.024
-370.785	-123.422	0.021	0.003
-369.771	-75.995	0.242	0.085
-368.756	-134.555	-0.289	0.035
-367.742	181.385	0.133	0.194
-366.727	49.935	0.077	0.072
-365.712	-169.807	0.130	0.005
-364.698	-89.434	-0.241	0.071
-363.683	13.134	0.214	-0.165
-362.669	-52.851	-0.285	0.131
-361.654	407.140	-0.101	0.213
-360.639	800.000	0.074	0.220
-359.625	60.893	0.176	0.174
-358.610	-200.000	0.028	-0.243
-357.596	108.871	-0.083	0.098
-356.581	189.856	0.227	0.339
-355.566	-200.000	-0.010	0.227
-354.552	-200.000	-0.087	0.407
-353.537	-101.436	0.447	0.108
-352.523	-6.963	0.372	0.251
-351.508	261.961	0.063	-0.108
-350.493	-28.842	0.271	-0.155
-349.479	-200.000	0.026	-0.234
-348.464	-7.805	0.384	-0.258
-347.450	-93.824	-0.271	-0.074
-346.435	186.602	-0.108	-0.159
-345.420	-70.311	-0.367	-0.138
-344.406	-22.041	-0.156	0.094
-343.391	44.458	-0.228	0.208
-342.377	1.733	-0.104	-0.075
-341.362	162.195	0.213	-0.297
-340.348	2.590	-0.063	-0.045
-339.333	33.820	-0.339	0.293
-338.318	230.821	-0.056	-0.091
-337.304	242.278	0.114	-0.189
-336.289	800.000	0.027	0.112
-335.275	-107.005	0.307	0.067
-334.260	-101.501	-0.284	-0.069
-333.245	-33.332	-0.024	0.013
-332.231	-88.278	0.103	0.030
-331.216	405.560	-0.028	-0.058
-330.202	72.337	0.336	0.348
-329.187	-9.340	0.104	-0.069
-328.172	-200.000	0.018	0.192
-327.158	-107.119	-0.073	0.016
-326.143	-143.864	0.382	0.036
-325.129	56.926	0.169	-0.164
-324.114	-74.409	0.136	0.049
-323.099	194.660	-0.179	-0.270
-322.085	800.000	0.108	-0.318
-321.070	112.327	0.035	-0.042
-320.056	59.945	0.064	-0.063
-319.041	-200.000	0.178	0.000
-318.026	800.000	0.107	0.314
-317.012	-166.676	0.174	0.007
-315.997	23.740	-0.086	-0.071
-314.983	265.701	-0.025	-0.043
-313.968	-138.648	-0.241	0.026
-312.953	252.125	0.255	-0.431
-311.939	800.000	0.007	0.025
-310.924	207.195	0.048	0.075
-309.910	800.000	-0.059	0.199
-308.895	-13.592	0.100	0.065
-307.880	-200.000	0.032	0.322
-306.866	-130.336	-0.459	0.062
-305.851	42.278	-0.171	0.154
-304.837	-65.385	-0.353	-0.141
-303.822	800.000	0.071	-0.246
-302.807	61.550	0.053	-0.052
-301.793	-200.000	-0.003	-0.148
-300.778	10.094	0.098	0.074
-299.764	-200.000	0.012	0.052
-298.749	-77.783	0.457	0.157
-297.735	218.665	-0.067	0.106
-296.720	554.547	0.082	-0.197
-295.705	96.827	-0.186	0.212
-294.691	-144.508	-0.288	-0.026
-293.676	-200.000	0.001	0.351
-292.662	-106.703	0.585	0.129
-291.647	727.614	-0.099	-0.262
-290.632	11.839	-0.024	0.018
-289.618	-200.000	-0.016	0.206
-288.603	-46.427	0.456	0.222
-287.589	299.462	-0.132	-0.242
-286.574	-48.012	-0.006	-0.003
-285.559	626.561	0.106	0.265
-284.545	366.309	0.148	0.295
-283.530	-200.000	0.003	0.077
-282.516	-3.931	-0.260	-0.179
-281.501	-7.557	-0.135	-0.090
-280.486	-200.000	-0.009	0.099
-279.472	4.526	0.305	-0.222
-278.457	-102.528	0.025	-0.006
-277.443	-90.005	-0.011	-0.003
-276.428	-200.000	0.015	-0.069
-275.413	-49.470	0.090	0.043
-274.399	36.431	0.200	-0.175
-273.384	-200.000	0.056	-0.388
-272.370	-200.000	0.001	0.200
-271.355	800.000	0.149	0.473
-270.340	-136.505	-0.193	0.022
-269.326	131.732	-0.359	0.458
-268.311	-142.070	-0.104	0.010
-267.297	-17.879	-0.045	0.028
-266.282	616.648	-0.083	-0.208
-265.267	800.000	0.017	-0.069
-264.253	-200.000	-0.032	-0.190
-263.238	212.008	-0.154	-0.240
-262.224	-200.000	-0.046	-0.216
-261.209	109.510	0.181	0.215
-260.195	-200.000	-0.006	0.260
-259.180	105.496	-0.123	0.145
-258.165	186.176	-0.130	0.192
-257.151	800.000	-0.057	0.163
-256.136	95.782	0.025	0.029
-255.122	-27.933	0.075	-0.043
-254.107	429.935	0.138	-0.296
-253.092	-200.000	0.006	-0.076
-252.078	623.149	0.041	0.103
-251.063	-200.000	-0.039	-0.269
-250.049	154.360	0.094	0.127
-249.034	15.548	0.200	0.156
-248.019	-77.966	-0.123	0.042
-247.005	250.483	-0.112	-0.188
-245.990	800.000	-0.083	0.288
-244.976	-109.189	-0.318	-0.067
-243.961	-8.239	0.092	0.061
-242.946	-200.000	-0.023	-0.124
-241.932	-200.000	0.034	0.231
-240.917	-106.502	0.378	0.084
-239.903	-200.000	-0.029	-0.191
-238.888	800.000	0.020	0.082
-237.873	111.777	-0.235	-0.281
-236.859	800.000	0.026	0.109
-235.844	-119.497	0.169	0.029
-234.830	-24.107	0.086	0.051
-233.815	-0.041	-0.111	-0.078
-232.800	-200.000	-0.001	0.058
-231.786	69.730	0.070	-0.071
-230.771	800.000	-0.043	-0.185
-229.757	-98.059	0.429	0.109
-228.742	-20.545	0.285	-0.173
-227.727	114.402	0.117	0.140
-226.713	32.887	-0.086	0.073
-225.698	199.309	-0.227	-0.344
-224.684	42.385	-0.164	-0.148
-223.669	99.208	-0.067	0.076
-222.655	-19.291	-0.134	0.082
-221.640	19.285	-0.094	-0.075
-220.625	243.649	0.062	-0.103
-219.611	85.653	-0.040	0.043
-218.596	800.000	0.129	0.403
-217.582	187.004	0.039	0.058
-216.567	-55.390	0.088	-0.039
-215.552	89.442	0.215	-0.238
-214.538	-193.990	0.115	-0.001
-213.523	-200.000	-0.023	0.289
-212.509	490.521	-0.130	-0.293
-211.494	65.672	0.042	-0.042
-210.479	183.431	-0.110	0.161
-209.465	800.000	0.080	0.224
-208.450	60.068	-0.228	0.223
-207.436	136.030	-0.057	0.073
-206.421	66.516	-0.140	-0.141
-205.406	358.991	-0.133	0.263
-204.392	32.019	0.090	-0.076
-203.377	800.000	-0.029	0.086
-202.363	-200.000	-0.083	0.417
-201.348	-26.236	-0.307	-0.178
-200.333	-200.000	0.004	0.089
-199.319	-164.246	0.491	-0.022
-198.304	-105.543	-0.251	-0.056
-197.290	-150.464	-0.257	-0.020
-196.275	240.032	-0.160	0.263
-195.260	-187.173	0.205	-0.003
-194.246	107.051	0.142	-0.167
-193.231	-191.268	-0.303	-0.003
-192.217	800.000	0.033	0.115
-191.202	44.853	-0.212	-0.193
-190.187	-94.548	-0.200	0.054
-189.173	-52.574	-0.375	0.171
-188.158	436.081	0.220	-0.472
-187.144	-108.307	-0.027	0.006
-186.129	526.460	-0.085	0.197
-185.114	-200.000	-0.118	0.000
-184.100	-75.727	-0.199	0.070
-183.085	24.138	0.194	0.158
-182.071	800.000	0.138	-0.426
-181.056	800.000	-0.087	-0.370
-180.042	46.379	-0.245	-0.225
-179.027	437.968	-0.181	-0.390
-178.012	-200.000	0.051	0.301
-176.998	-54.981	-0.145	0.064
-175.983	-200.000	-0.031	0.343
-174.969	-73.535	-0.123	-0.044
-173.954	-6.413	0.169	-0.114
-172.939	-24.162	0.362	0.214
-171.925	118.676	-0.118	-0.144
-170.910	-117.805	0.361	0.064
-169.896	63.763	0.221	0.219
-168.881	245.017	-0.100	-0.166
-167.866	800.000	0.029	-0.093
-166.852	-170.566	0.370	-0.013
-165.837	-53.584	-0.121	0.055
-164.823	800.000	-0.041	0.167
-163.808	20.617	0.181	0.145
-162.793	-22.201	0.363	-0.218
-161.779	134.803	0.070	-0.090
-160.764	295.285	-0.193	0.348
-159.750	-200.000	-0.034	-0.342
-158.735	328.065	-0.138	0.262
-157.720	138.572	-0.248	0.321
-156.706	117.628	-0.103	0.125
-155.691	-118.127	-0.175	-0.031
-154.677	95.953	-0.124	0.140
-153.662	584.150	-0.163	0.395
-152.647	-139.071	0.181	-0.019
-151.633	-200.000	-0.006	-0.038
-150.618	141.691	0.073	-0.095
-149.604	-59.033	-0.218	-0.093
-148.589	-66.299	0.132	-0.052
-147.574	400.341	0.085	0.175
-146.560	75.328	-0.166	0.173
-145.545	-200.000	0.003	0.138
-144.531	368.090	-0.119	-0.238
-143.516	361.436	0.051	-0.101
-142.502	-200.000	-0.011	-0.097
-141.487	-116.067	-0.372	-0.068
-140.472	-183.626	0.310	0.005
-139.458	800.000	0.057	0.209
-138.443	351.273	0.085	-0.166
-137.429	265.902	0.155	-0.266
-136.414	89.040	-0.254	0.279
-135.399	273.461	-0.054	0.095
-134.385	379.220	-0.153	-0.308
-133.370	800.000	0.096	-0.266
-132.356	-187.343	0.051	-0.001
-131.341	-74.950	0.226	0.080
-130.326	127.669	-0.144	-0.181
-129.312	348.026	0.203	-0.395
-128.297	-68.852	-0.219	0.084
-127.283	-89.467	0.375	0.109
-126.268	-74.594	-0.226	0.080
-125.253	800.000	0.043	0.137
-124.239	122.032	-0.092	0.114
-123.224	146.948	0.147	0.195
-122.210	144.662	-0.088	0.116
-121.195	800.000	-0.079	-0.286
-120.180	-95.442	-0.047	0.013
-119.166	-48.137	-0.097	-0.046
-118.151	-67.674	0.267	0.103
-117.137	-5.724	0.237	0.160
-116.122	-70.280	-0.190	0.071
-115.107	-200.000	0.010	-0.293
-114.093	-200.000	-0.012	0.076
-113.078	-116.154	0.260	-0.048
-112.064	-200.000	-0.010	0.100
-111.049	-187.783	0.168	0.002
-110.034	-200.000	0.045	-0.315
-109.020	123.977	-0.230	0.285
-108.005	356.310	-0.084	0.164
-106.991	-200.000	-0.065	0.298
-105.976	-153.168	-0.251	-0.017
-104.962	-200.000	-0.029	0.191
-103.947	-27.556	-0.077	-0.044
-102.932	-44.259	-0.132	0.065
-101.918	-12.418	0.259	-0.167
-100.903	63.347	-0.130	-0.129
-99.889	800.000	-0.063	0.254
-98.874	-200.000	0.001	0.516
-97.859	-200.000	0.026	0.145
-96.845	-113.634	0.140	0.027
-95.830	73.969	-0.166	-0.171
-94.816	69.759	-0.162	0.165
-93.801	293.941	-0.096	-0.172
-92.786	0.186	-0.109	0.076
-91.772	134.678	-0.266	0.340
-90.757	-100.972	0.288	-0.070
-89.743	-22.482	0.135	0.080
-88.728	44.834	0.030	0.027
-87.713	-200.000	0.019	0.271
-86.699	-200.000	0.001	0.464
-85.684	156.175	0.173	-0.235
-84.670	800.000	-0.087	-0.239
-83.655	-158.685	-0.035	0.002
-82.640	-200.000	0.010	0.173
-81.626	-87.235	-0.176	-0.053
-80.611	438.812	0.077	-0.165
-79.597	384.997	0.147	0.298
-78.582	19.189	0.141	-0.111
-77.567	-129.218	0.207	0.028
-76.553	800.000	-0.025	-0.069
-75.538	-65.610	-0.082	0.032
-74.524	800.000	-0.020	0.069
-73.509	49.836	-0.127	-0.118
-72.494	-30.146	-0.254	0.142
-71.480	-34.651	0.379	0.204
-70.465	311.604	-0.121	0.224
-69.451	158.538	0.182	0.249
-68.436	-24.031	0.140	0.082
-67.422	-52.278	0.320	0.146
-66.407	-200.000	-0.009	-0.257
-65.392	-200.000	-0.015	0.106
-64.378	131.333	-0.095	0.120
-63.363	-147.279	-0.217	0.018
-62.349	800.000	-0.111	0.413
-61.334	115.634	-0.652	-0.784
-60.319	120.946	0.263	0.322
-59.305	800.000	-0.278	-0.864
-58.290	800.000	0.269	1.011
-57.276	347.565	0.677	1.312
-56.261	-200.000	95.194	580.033
-55.246	664.299	1369.986	3475.488
-54.232	199.434	2549.130	3841.885
-53.217	114.028	2266.767	2709.885
-52.203	42.090	1894.460	1690.419
-51.188	35.873	1684.905	1456.517
-50.173	33.144	1640.889	1398.262
-49.159	50.492	1686.659	1567.588
-48.144	52.105	1703.063	1594.854
-47.130	35.471	1664.392	1435.549
-46.115	32.613	1650.177	1401.998
-45.100	32.531	1644.670	1396.659
-44.086	32.426	1642.660	1394.116
-43.071	32.542	1639.543	1392.274
-42.057	32.407	1637.389	1389.392
-41.042	32.492	1635.028	1387.965
-40.027	32.428	1633.897	1386.475
-39.013	32.481	1631.421	1384.709
-37.998	32.357	1630.327	1382.811
-36.984	32.385	1629.129	1381.948
-35.969	32.561	1626.925	1381.315
-34.954	32.598	1625.623	1380.427
-33.940	32.432	1624.332	1378.057
-32.925	32.525	1622.589	1377.209
-31.911	32.474	1621.180	1375.581
-30.896	32.521	1618.730	1373.794
-29.881	32.529	1617.327	1372.606
-28.867	32.552	1615.597	1371.249
-27.852	32.551	1614.323	1370.108
-26.838	32.488	1613.188	1368.632
-25.823	32.596	1611.176	1367.654
-24.809	32.595	1609.707	1366.349
-23.794	32.586	1608.068	1364.834
-22.779	32.546	1606.524	1363.183
-21.765	32.521	1605.512	1362.086
-20.750	32.518	1603.711	1360.482
-19.736	32.599	1602.057	1359.612
-18.721	32.593	1600.543	1358.232
-17.706	32.687	1599.195	1357.708
-16.692	32.552	1597.619	1355.347
-15.677	32.684	1596.038	1354.898
-14.663	32.611	1595.340	1353.731
-13.648	32.626	1593.836	1352.506
-12.633	32.628	1592.409	1351.256
-11.619	32.675	1590.517	1349.937
-10.604	32.579	1589.073	1347.971
-9.590	32.507	1588.308	1346.751
-8.575	32.560	1587.064	1346.023
-7.560	32.627	1585.172	1344.838
-6.546	32.578	1584.060	1343.494
-5.531	32.517	1583.230	1342.299
-4.517	32.568	1581.873	1341.463
-3.502	32.576	1580.870	1340.614
-2.487	32.755	1578.496	1339.818
-1.473	32.377	1567.263	1327.566
-0.458	29.593	1548.213	1291.939
0.556	26.048	1548.655	1261.461
1.571	23.572	1572.784	1263.401
2.586	23.128	1584.709	1269.679
3.600	20.485	1531.835	1208.848
4.615	12.513	1423.539	1071.538
5.629	5.833	1361.073	982.696
6.644	4.742	1353.609	970.420
7.659	4.684	1351.838	968.700
8.673	4.633	1350.772	967.535
9.688	4.701	1349.465	966.933
10.702	4.594	1346.483	964.048
11.717	7.599	1352.308	986.827
12.731	15.231	1365.611	1044.161
13.746	19.839	1372.446	1078.079
14.761	19.352	1370.942	1073.770
15.775	18.386	1368.004	1065.372
16.790	17.270	1365.494	1056.387
17.804	16.497	1363.467	1049.931
18.819	16.107	1361.796	1046.132
19.834	15.825	1360.472	1043.275
20.848	15.559	1359.466	1040.760
21.863	15.425	1358.206	1038.875
22.877	15.240	1357.526	1037.118
23.892	15.225	1356.228	1035.943
24.907	15.205	1355.728	1035.342
25.921	15.273	1354.542	1034.768
26.936	15.194	1354.011	1033.785
27.950	15.308	1352.365	1033.139
28.965	15.300	1351.949	1032.677
29.980	15.499	1350.559	1032.747
30.994	15.521	1349.341	1031.860
32.009	15.546	1348.416	1031.219
33.023	15.651	1346.779	1030.520
34.038	15.410	1345.286	1027.810
35.053	15.454	1344.219	1027.173
36.067	15.533	1343.125	1026.730
37.082	15.454	1342.493	1025.672
38.096	15.449	1341.500	1024.792
39.111	15.440	1340.910	1024.193
40.126	15.437	1339.683	1023.146
41.140	15.184	1339.204	1021.149
42.155	15.155	1337.994	1019.960
43.169	15.125	1337.987	1019.680
44.184	15.087	1338.388	1019.669
45.199	15.136	1337.305	1019.051
46.213	15.303	1336.735	1019.539
47.228	15.372	1335.993	1019.301
48.242	15.411	1334.637	1018.415
49.257	15.283	1333.788	1016.902
50.271	15.300	1332.137	1015.657
51.286	15.376	1330.359	1014.672
52.301	15.357	1329.407	1013.736
53.315	15.281	1328.163	1012.241
54.330	15.292	1327.281	1011.548
55.344	15.222	1326.342	1010.319
56.359	15.224	1324.571	1008.894
57.374	15.200	1323.797	1008.068
58.388	15.232	1323.151	1007.682
59.403	15.091	1322.865	1006.528
60.417	15.048	1322.268	1005.723
61.432	15.139	1321.304	1005.447
62.447	14.988	1320.045	1003.499
63.461	14.951	1318.783	1002.228
64.476	14.897	1318.106	1001.297
65.490	14.954	1317.072	1000.769
66.505	15.086	1315.367	1000.171
67.520	15.024	1314.307	998.906
68.534	15.017	1313.450	998.123
69.549	15.035	1312.146	997.151
70.563	15.060	1311.140	996.447
71.578	14.961	1310.111	994.989
72.593	14.869	1309.006	993.519
73.607	14.870	1308.399	992.972
74.622	14.912	1307.836	992.708
75.636	14.914	1307.249	992.187
76.651	14.956	1306.310	991.634
77.666	14.998	1305.659	991.299
78.680	14.984	1305.670	991.139
79.695	14.936	1304.947	990.217
80.709	15.091	1303.570	990.004
81.724	15.075	1303.071	989.442
82.739	15.150	1301.510	988.612
83.753	15.340	1301.001	989.256
84.768	15.416	1299.764	988.675
85.782	15.361	1299.229	987.857
86.797	15.359	1297.731	986.619
87.812	15.302	1296.696	985.412
88.826	15.348	1295.498	984.686
89.841	15.306	1294.517	983.606
90.855	15.442	1293.868	983.820
91.870	15.360	1292.762	982.417
92.884	15.405	1292.034	982.037
93.899	15.382	1291.931	981.737
94.914	15.434	1290.887	981.161
95.928	15.425	1290.014	980.357
96.943	15.460	1288.941	979.662
97.957	15.358	1288.030	978.286
98.972	15.414	1286.875	977.652
99.987	15.443	1285.471	976.667
101.001	15.509	1284.478	976.210
102.016	15.382	1283.994	975.016
103.030	15.347	1283.416	974.286
104.045	15.490	1281.512	973.587
105.060	15.359	1280.496	971.969
106.074	15.246	1279.246	970.277
107.089	14.989	1278.058	967.805
108.103	15.006	1276.784	966.855
109.118	15.083	1275.075	965.916
110.133	15.130	1273.760	965.106
111.147	15.037	1272.763	963.729
112.162	15.130	1271.689	963.367
113.176	15.200	1269.872	962.309
114.191	15.192	1269.553	961.938
115.206	15.241	1268.093	961.023
116.220	15.182	1267.111	959.855
117.235	15.257	1266.013	959.368
118.249	15.151	1265.000	957.908
119.264	15.105	1263.986	956.798
120.279	15.094	1262.879	955.810
121.293	15.121	1261.698	954.988
122.308	15.131	1260.632	954.150
123.322	15.015	1259.608	952.630
124.337	14.969	1258.771	951.653
125.352	14.996	1257.475	950.743
126.366	15.030	1256.719	950.279
127.381	15.047	1255.400	949.293
128.395	15.087	1253.884	948.292
129.410	15.030	1253.897	947.895
130.424	15.163	1252.554	947.549
131.439	15.270	1251.929	947.597
132.454	15.153	1251.111	946.230
133.468	15.211	1250.516	946.028
134.483	15.213	1249.684	945.325
135.497	15.210	1248.664	944.454
136.512	15.191	1247.449	943.343
137.527	15.313	1245.684	942.611
138.541	15.290	1244.535	941.528
139.556	15.298	1243.448	940.667
140.570	15.346	1242.471	940.116
141.585	15.420	1241.046	939.368
142.600	15.496	1239.757	938.731
143.614	15.445	1239.624	938.262
144.629	15.482	1238.788	937.754
145.643	15.434	1237.316	936.289
146.658	15.389	1236.040	934.990
147.673	15.293	1234.749	933.395
148.687	15.267	1233.615	932.315
149.702	15.272	1231.941	930.991
150.716	15.255	1230.868	930.006
151.731	15.323	1229.842	929.527
152.746	15.316	1228.778	928.597
153.760	15.474	1227.324	928.293
154.775	15.344	1226.253	926.682
155.789	15.355	1225.836	926.343
156.804	15.523	1224.502	926.182
157.819	15.524	1223.589	925.413
158.833	15.528	1222.468	924.509
159.848	15.615	1221.613	924.258
160.862	15.541	1220.925	923.251
161.877	15.414	1219.684	921.529
162.892	15.376	1218.395	920.266
163.906	15.361	1217.982	919.790
164.921	15.358	1216.701	918.723
165.935	15.377	1216.132	918.320
166.950	15.451	1215.605	918.243
167.964	15.526	1214.447	917.700
168.979	15.465	1213.545	916.604
169.994	15.454	1212.929	915.995
171.008	15.475	1211.936	915.280
172.023	15.572	1211.382	915.309
173.037	15.626	1210.589	914.924
174.052	15.611	1209.719	914.103
175.067	15.421	1208.620	912.159
176.081	15.394	1207.531	911.108
177.096	15.495	1206.884	911.090
178.110	15.512	1205.924	910.379
179.125	15.499	1204.487	909.138
180.140	15.480	1203.520	908.230
181.154	15.567	1202.442	907.801
182.169	15.711	1200.852	907.302
183.183	15.740	1199.700	906.504
184.198	15.756	1198.878	905.890
185.213	15.804	1197.679	905.161
186.227	15.709	1196.685	903.821
187.242	15.730	1195.778	903.166
188.256	15.836	1194.914	903.004
189.271	15.933	1193.579	902.433
190.286	15.655	1192.770	900.254
191.300	15.560	1192.236	899.265
192.315	15.475	1190.977	897.781
193.329	15.370	1191.043	897.187
194.344	15.527	1189.956	897.130
195.359	15.654	1189.699	897.533
196.373	15.690	1188.978	897.105
197.388	15.741	1188.739	897.115
198.402	15.911	1187.733	897.183
199.417	15.983	1187.515	897.322
200.432	16.070	1186.444	896.895
201.446	16.041	1185.926	896.273
202.461	16.070	1185.105	895.728
203.475	16.107	1184.258	895.205
204.490	16.093	1182.600	893.796
205.504	15.949	1181.219	891.911
206.519	15.980	1180.344	891.333
207.534	15.965	1179.336	890.418
208.548	15.933	1178.441	889.494
209.563	15.936	1177.240	888.525
210.577	15.989	1176.470	888.145
211.592	16.001	1175.690	887.537
212.607	16.123	1174.925	887.524
213.621	16.167	1173.940	886.934
214.636	16.043	1173.323	885.739
215.650	16.079	1172.552	885.264
216.665	16.180	1171.179	884.682
217.680	16.182	1170.587	884.167
218.694	16.329	1169.694	884.184
219.709	16.213	1169.380	883.260
220.723	16.182	1168.654	882.470
221.738	16.240	1167.683	881.965
222.753	16.271	1166.931	881.478
223.767	16.215	1165.949	880.366
224.782	16.334	1165.251	880.381
225.796	16.475	1164.602	880.548
226.811	16.308	1164.238	879.324
227.826	16.262	1163.515	878.465
228.840	16.184	1162.952	877.553
229.855	16.217	1161.855	876.820
230.869	16.239	1160.890	876.126
231.884	16.258	1160.267	875.679
232.899	16.204	1159.325	874.612
233.913	16.196	1158.967	874.223
234.928	16.200	1158.271	873.639
235.942	16.244	1157.120	872.923
236.957	16.202	1156.674	872.291
237.972	16.140	1155.989	871.379
238.986	16.202	1155.157	870.993
240.001	16.135	1154.565	870.124
241.015	16.225	1153.695	869.855
242.030	16.346	1152.998	869.876
243.045	16.433	1151.907	869.426
244.059	16.397	1151.310	868.713
245.074	16.462	1150.679	868.491
246.088	16.463	1149.979	867.890
247.103	16.516	1148.914	867.284
248.117	16.456	1148.534	866.614
249.132	16.580	1147.882	866.677
250.147	16.803	1147.001	867.080
251.161	16.793	1145.996	866.191
252.176	16.884	1145.604	866.284
253.190	16.923	1144.811	865.804
254.205	16.969	1144.308	865.585
255.220	16.911	1144.018	864.994
256.234	16.886	1143.163	864.139
257.249	16.888	1142.645	863.684
258.263	16.830	1141.861	862.720
259.278	16.871	1141.372	862.481
260.293	16.926	1140.788	862.244
261.307	16.979	1140.098	861.917
262.322	16.916	1139.829	861.319
263.336	17.054	1138.828	861.184
264.351	16.944	1138.295	860.149
265.366	16.987	1137.841	859.944
266.380	17.139	1136.766	859.826
267.395	17.038	1136.160	858.781
268.409	16.941	1135.711	857.877
269.424	17.009	1134.958	857.576
270.439	16.949	1133.991	856.466
271.453	16.959	1133.333	855.943
272.468	16.940	1132.342	855.022
273.482	16.852	1131.710	854.026
274.497	16.901	1131.266	853.863
275.512	16.998	1130.443	853.655
276.526	16.958	1129.556	852.705
277.541	17.085	1128.667	852.597
278.555	16.988	1128.647	852.022
279.570	17.131	1127.683	851.937
280.585	17.362	1126.315	851.985
281.599	17.276	1125.735	851.037
282.614	17.183	1124.422	849.504
283.628	17.271	1122.664	848.544
284.643	17.200	1122.358	847.879
285.657	17.164	1121.771	847.181
286.672	17.186	1120.842	846.515
287.687	17.180	1120.059	845.822
288.701	17.225	1119.136	845.272
289.716	17.219	1118.452	844.652
290.730	17.168	1117.871	843.883
291.745	17.263	1117.063	843.669
292.760	17.166	1116.548	842.724
293.774	17.319	1115.993	842.993
294.789	17.487	1115.638	843.484
295.803	17.394	1114.789	842.304
296.818	17.432	1114.046	841.856
297.833	17.428	1113.111	841.053
298.847	17.285	1112.392	839.732
299.862	17.393	1111.683	839.656
300.876	17.417	1111.087	839.247
301.891	17.502	1110.272	838.980
302.906	17.376	1109.924	838.018
303.920	17.449	1109.443	837.941
304.935	17.579	1108.411	837.726
305.949	17.716	1107.517	837.651
306.964	17.705	1107.045	837.167
307.979	17.602	1106.541	836.207
308.993	17.547	1105.550	835.114
310.008	17.526	1104.956	834.486
311.022	17.604	1104.622	834.545
312.037	17.664	1103.266	833.737
313.052	17.544	1102.517	832.511
314.066	17.553	1101.435	831.665
315.081	17.505	1100.681	830.788
316.095	17.429	1099.798	829.678
317.110	17.441	1099.211	829.220
318.125	17.440	1098.425	828.549
319.139	17.403	1097.849	827.860
320.154	17.503	1096.946	827.592
321.168	17.501	1096.755	827.366
322.183	17.532	1096.038	826.903
323.197	17.557	1095.362	826.442
324.212	17.593	1094.670	826.022
325.227	17.603	1094.407	825.794
326.241	17.562	1093.738	825.019
327.256	17.670	1092.521	824.553
328.270	17.638	1091.507	823.557
329.285	17.722	1090.612	823.215
330.300	17.589	1089.946	821.999
331.314	17.631	1089.137	821.518
332.329	17.693	1087.922	820.829
333.343	17.669	1087.143	820.052
334.358	17.769	1086.409	819.905
335.373	17.675	1085.959	819.043
336.387	17.788	1085.362	819.062
337.402	17.864	1084.158	818.448
338.416	17.921	1083.546	818.183
339.431	17.927	1083.059	817.775
340.446	18.014	1082.238	817.497
341.460	18.007	1081.675	816.968
342.475	18.064	1080.778	816.489
343.489	18.238	1079.738	816.464
344.504	18.169	1079.247	815.689
345.519	18.142	1078.604	815.000
346.533	18.084	1077.920	814.139
347.548	18.211	1077.045	814.008
348.562	18.144	1076.311	813.063
349.577	18.144	1075.268	812.201
350.592	18.084	1074.748	811.452
351.606	18.017	1074.020	810.515
352.621	18.011	1073.088	809.711
353.635	18.038	1072.495	809.320
354.650	18.093	1071.788	808.972
355.665	18.011	1071.308	808.151
356.679	18.157	1070.433	808.113
357.694	18.257	1069.873	808.090
358.708	18.268	1069.104	807.488
359.723	18.291	1068.494	807.064
360.738	18.339	1068.030	806.869
361.752	18.237	1067.493	805.913
362.767	18.345	1067.017	805.992
363.781	18.218	1066.261	804.750
364.796	18.278	1065.893	804.684
365.810	18.211	1065.795	804.221
366.825	18.424	1064.777	804.382
367.840	18.520	1064.100	804.252
368.854	18.532	1063.706	803.941
369.869	18.619	1062.498	803.363
370.883	18.495	1062.031	802.359
371.898	18.459	1061.164	801.463
372.913	18.397	1060.965	800.950
373.927	18.463	1060.227	800.631
374.942	18.495	1059.995	800.538
375.956	18.558	1059.421	800.326
376.971	18.517	1058.303	799.221
377.986	18.557	1057.981	799.089
379.000	18.663	1057.610	799.233
380.015	18.767	1056.885	799.101
381.029	18.782	1056.557	798.853
382.044	18.785	1055.617	798.082
383.059	18.735	1055.017	797.328
384.073	18.704	1054.055	796.388
385.088	18.750	1053.176	795.862
386.102	18.746	1052.374	795.169
387.117	18.677	1051.320	793.981
388.132	18.584	1050.311	792.722
389.146	18.641	1049.461	792.275
390.161	18.613	1048.922	791.669
391.175	18.513	1048.377	790.722
392.190	18.749	1047.351	790.967
393.205	18.727	1046.859	790.425
394.219	18.781	1046.048	789.990
395.234	18.687	1045.388	788.990
396.248	18.841	1043.844	788.461
397.263	18.808	1043.129	787.702
398.278	18.639	1042.791	786.600
399.292	18.591	1042.097	785.786
400.307	18.543	1041.208	784.830
401.321	18.669	1040.425	784.743
402.336	18.725	1039.695	784.383
403.350	18.658	1039.319	783.720
404.365	18.784	1038.383	783.523
405.380	18.686	1038.201	782.870
406.394	18.841	1037.403	782.903
407.409	18.849	1036.361	782.084
408.423	19.006	1035.471	782.057
409.438	19.069	1034.757	781.733
410.453	19.042	1034.418	781.287
411.467	18.961	1034.304	780.764
412.482	19.132	1033.231	780.658
413.496	19.306	1032.212	780.611
414.511	19.152	1032.643	780.168
415.526	19.341	1031.759	780.285
416.540	19.327	1030.928	779.528
417.555	19.233	1030.479	778.693
418.569	19.215	1029.732	777.977
419.584	19.415	1029.388	778.553
420.599	19.284	1029.219	777.765
421.613	151.248	1401.308	1794.656
422.628	137.955	1455.521	1794.767
