DTS Sentinel unit serial number:	SN413079Multiplexer serial number:	ORYXHardware model number:	OX4-SRSoftware version number:	ORYX F/W v4.00 Oryx Data Collector v3.7.2.0data status	okinstallation	princeton_trtdifferential loss correction	single-endedforward channel	channel 2reverse channel	N/Adate	2019/09/15time	17:11:35forward acquisition time	60.00reverse acquisition time	0.00gamma	496.2192k internal	0.2284k external	0.2284temperature offset calibration	0.9927default loss term (dB/km)	0.3790temperature slope calibration	1.0000multiplexer offset coefficient	1.0000multiplexer slope coefficient	1.0000fibre end	0.00T internal ref (°C)	44.66T ext. ref 1 (°C)	5.97T ext. ref 2 (°C)	40.39length (m)	temperature (°C)	Stokes	anti-Stokes-747.200	-97.581	-0.406	0.108
-746.185	-200.000	0.004	0.217
-745.171	-96.072	0.171	-0.047
-744.156	-99.983	-0.054	0.014
-743.142	-25.772	0.363	0.220
-742.127	-200.000	-0.018	0.187
-741.112	-108.044	-0.257	-0.057
-740.098	-200.000	-0.165	0.001
-739.083	-143.482	0.290	-0.028
-738.069	289.682	-0.197	0.367
-737.054	-88.088	-0.120	0.037
-736.039	-50.540	0.205	-0.099
-735.025	-84.483	0.255	0.083
-734.010	-134.593	0.520	0.065
-732.996	22.676	0.094	-0.079
-731.981	23.004	0.267	-0.225
-730.966	395.785	0.086	-0.185
-729.952	483.387	0.104	-0.242
-728.937	-200.000	0.021	-0.106
-727.923	153.987	0.145	-0.204
-726.908	169.252	-0.174	-0.255
-725.894	634.955	-0.048	0.124
-724.879	-135.980	-0.321	-0.039
-723.864	527.483	-0.083	-0.200
-722.850	-72.740	0.154	-0.058
-721.835	645.178	0.085	0.223
-720.821	-9.095	0.359	-0.247
-719.806	-63.893	0.069	0.029
-718.791	-18.297	-0.160	0.103
-717.777	800.000	-0.046	0.139
-716.762	800.000	-0.063	-0.204
-715.748	-153.258	-0.286	-0.020
-714.733	-184.805	0.395	-0.006
-713.718	-9.530	-0.144	-0.099
-712.704	-127.309	0.149	0.022
-711.689	-20.710	-0.207	-0.130
-710.675	763.126	-0.143	-0.397
-709.660	120.392	-0.128	-0.164
-708.645	-187.371	0.176	0.002
-707.631	-67.748	-0.301	-0.121
-706.616	194.417	-0.035	0.055
-705.602	639.085	0.018	0.048
-704.587	329.246	0.112	-0.221
-703.572	-200.000	0.017	-0.169
-702.558	-21.279	0.212	0.133
-701.543	-130.995	-0.063	-0.009
-700.529	-97.769	0.094	0.025
-699.514	52.441	-0.060	-0.059
-698.499	21.580	0.118	0.098
-697.485	-200.000	0.017	0.248
-696.470	-200.000	0.055	-0.338
-695.456	180.063	0.226	-0.339
-694.441	-10.142	0.157	0.107
-693.426	129.881	0.058	0.077
-692.412	-139.279	0.152	0.017
-691.397	-200.000	-0.006	-0.304
-690.383	-67.091	-0.153	-0.062
-689.368	76.072	0.153	0.166
-688.354	-200.000	0.056	-0.259
-687.339	42.608	-0.028	-0.026
-686.324	22.992	-0.126	-0.106
-685.310	-76.715	-0.520	-0.187
-684.295	-135.414	-0.325	0.040
-683.281	800.000	-0.034	-0.135
-682.266	-163.136	0.161	-0.008
-681.251	12.458	-0.028	-0.022
-680.237	-200.000	0.016	-0.268
-679.222	-200.000	0.019	-0.093
-678.208	-123.160	-0.279	-0.046
-677.193	-53.399	0.263	-0.123
-676.178	-173.308	0.264	-0.008
-675.164	311.123	-0.084	-0.161
-674.149	800.000	0.050	0.204
-673.135	-200.000	0.080	0.391
-672.120	456.175	0.059	0.134
-671.105	-177.652	-0.298	0.007
-670.091	-148.620	0.349	0.029
-669.076	49.255	-0.199	0.192
-668.062	-82.068	-0.077	-0.026
-667.047	-49.965	0.399	-0.194
-666.032	800.000	0.071	0.205
-665.018	-81.536	-0.236	0.079
-664.003	313.925	-0.079	-0.152
-662.989	-140.429	-0.239	0.025
-661.974	-126.594	-0.128	0.019
-660.959	-66.027	-0.531	-0.217
-659.945	98.895	0.294	-0.348
-658.930	-60.974	-0.221	-0.096
-657.916	-32.001	0.036	-0.021
-656.901	478.028	-0.056	0.130
-655.886	251.220	-0.174	-0.302
-654.872	-200.000	0.002	-0.418
-653.857	-129.107	-0.371	0.053
-652.843	-152.890	-0.147	-0.011
-651.828	498.675	-0.026	0.062
-650.814	123.286	0.203	0.261
-649.799	121.707	0.013	0.017
-648.784	16.712	0.335	0.271
-647.770	800.000	0.123	0.488
-646.755	-197.235	0.205	0.001
-645.741	-200.000	0.008	-0.196
-644.726	-183.321	0.141	-0.003
-643.711	-135.585	-0.013	-0.002
-642.697	-28.619	0.200	-0.118
-641.682	-200.000	0.029	-0.322
-640.668	-28.705	0.136	-0.080
-639.653	155.840	0.190	-0.268
-638.638	331.370	0.162	0.320
-637.624	613.907	-0.198	0.508
-636.609	-200.000	-0.058	-0.345
-635.595	608.492	0.068	-0.174
-634.580	-43.814	-0.151	-0.078
-633.565	134.310	-0.222	0.294
-632.551	12.002	-0.150	0.118
-631.536	-120.507	0.035	-0.006
-630.522	-34.292	-0.166	0.093
-629.507	-108.227	0.250	0.055
-628.492	-143.768	-0.311	0.030
-627.478	113.579	-0.164	-0.204
-626.463	-200.000	-0.021	-0.164
-625.449	156.634	0.179	-0.253
-624.434	155.451	0.069	0.098
-623.419	497.603	-0.047	0.111
-622.405	142.917	0.122	-0.166
-621.390	-200.000	-0.010	-0.070
-620.376	-200.000	-0.005	-0.116
-619.361	800.000	-0.093	0.384
-618.346	21.968	-0.252	-0.210
-617.332	-33.086	-0.226	-0.128
-616.317	146.668	-0.164	0.225
-615.303	230.596	0.212	0.355
-614.288	-94.228	0.105	0.030
-613.273	800.000	0.062	-0.258
-612.259	22.115	0.085	0.071
-611.244	238.724	-0.038	0.064
-610.230	800.000	0.052	0.170
-609.215	-133.515	0.053	-0.007
-608.201	-83.218	0.195	0.064
-607.186	-200.000	0.026	0.263
-606.171	800.000	0.039	0.169
-605.157	-64.785	0.240	-0.099
-604.142	239.510	-0.386	-0.656
-603.128	-150.116	-0.133	0.011
-602.113	159.768	-0.128	0.183
-601.098	277.318	-0.147	-0.267
-600.084	10.786	-0.200	-0.156
-599.069	-200.000	0.043	0.357
-598.055	-117.899	-0.308	-0.056
-597.040	401.932	0.139	-0.298
-596.025	123.800	0.134	-0.172
-595.011	-41.983	-0.244	-0.128
-593.996	-53.036	0.125	-0.059
-592.982	107.702	0.111	-0.135
-591.967	219.973	0.072	0.118
-590.952	-200.000	0.047	0.466
-589.938	322.423	0.061	0.120
-588.923	584.693	0.104	0.260
-587.909	58.522	0.174	0.175
-586.894	33.749	0.026	0.023
-585.879	-200.000	0.032	-0.272
-584.865	-15.060	-0.170	0.111
-583.850	20.931	-0.108	0.089
-582.836	-21.108	-0.382	-0.239
-581.821	-43.789	-0.124	-0.064
-580.806	-200.000	0.045	-0.325
-579.792	3.284	-0.093	-0.069
-578.777	40.930	-0.062	0.057
-577.763	238.802	-0.086	-0.146
-576.748	-200.000	-0.015	0.419
-575.733	227.810	-0.126	0.208
-574.719	-200.000	-0.007	0.169
-573.704	-86.334	-0.042	0.013
-572.690	-200.000	-0.037	-0.403
-571.675	800.000	-0.065	-0.278
-570.661	220.556	0.231	-0.378
-569.646	-200.000	0.008	-0.283
-568.631	374.620	0.157	0.326
-567.617	181.348	-0.059	-0.089
-566.602	672.377	0.082	-0.216
-565.588	182.234	0.059	0.088
-564.573	271.089	0.020	0.036
-563.558	-48.201	0.255	-0.126
-562.544	-182.817	0.158	-0.003
-561.529	-200.000	-0.076	-0.398
-560.515	554.966	-0.127	-0.312
-559.500	-59.070	-0.282	-0.124
-558.485	-200.000	-0.073	-0.327
-557.471	-179.231	-0.033	0.001
-556.456	233.477	0.277	-0.465
-555.442	-200.000	0.008	0.129
-554.427	44.562	-0.200	-0.187
-553.412	341.173	0.128	-0.255
-552.398	119.536	0.234	-0.296
-551.383	135.073	-0.031	-0.041
-550.369	-185.457	-0.394	0.006
-549.354	800.000	-0.045	-0.165
-548.339	592.406	-0.051	-0.129
-547.325	254.730	-0.231	-0.404
-546.310	289.638	0.174	0.321
-545.296	-104.645	-0.335	0.079
-544.281	530.707	-0.081	-0.196
-543.266	41.844	-0.140	-0.129
-542.252	389.293	-0.060	0.127
-541.237	-200.000	0.048	0.228
-540.223	-200.000	-0.405	-0.002
-539.208	-36.587	0.064	-0.035
-538.193	-89.372	-0.362	-0.108
-537.179	800.000	0.053	-0.157
-536.164	-12.477	-0.297	-0.197
-535.150	-200.000	-0.001	-0.086
-534.135	162.806	0.183	-0.261
-533.121	185.108	0.093	-0.140
-532.106	-99.678	-0.177	0.045
-531.091	-5.457	-0.154	-0.108
-530.077	119.390	0.082	0.104
-529.062	-200.000	0.025	0.254
-528.048	-10.973	-0.134	0.090
-527.033	-1.568	0.181	-0.130
-526.018	670.207	-0.047	-0.123
-525.004	-127.825	-0.267	-0.039
-523.989	49.420	0.044	0.042
-522.975	-200.000	0.010	0.183
-521.960	-104.883	0.138	0.032
-520.945	-200.000	-0.014	0.198
-519.931	-200.000	-0.059	0.481
-518.916	19.039	0.228	0.186
-517.902	-200.000	-0.010	-0.136
-516.887	-200.000	-0.018	0.127
-515.872	-50.358	-0.172	-0.083
-514.858	25.539	-0.177	0.150
-513.843	-200.000	0.039	0.392
-512.829	215.047	-0.108	-0.175
-511.814	-142.340	0.370	0.037
-510.799	47.714	0.212	-0.201
-509.785	58.016	-0.176	0.176
-508.770	-170.507	-0.301	0.011
-507.756	30.622	0.289	0.251
-506.741	6.858	0.286	-0.217
-505.726	-109.915	-0.237	-0.051
-504.712	-87.197	-0.096	0.030
-503.697	90.277	0.076	0.086
-502.683	146.892	0.138	-0.188
-501.668	-151.777	-0.179	0.013
-500.653	77.200	0.268	0.290
-499.639	99.585	0.089	-0.105
-498.624	599.951	0.043	0.109
-497.610	-32.345	-0.123	0.070
-496.595	64.792	0.303	-0.311
-495.581	54.245	-0.247	-0.242
-494.566	-200.000	0.017	-0.300
-493.551	135.433	-0.041	0.055
-492.537	-123.025	0.185	0.030
-491.522	415.535	0.020	0.043
-490.508	-13.210	0.081	-0.053
-489.493	-104.463	0.076	0.018
-488.478	-196.122	0.585	-0.004
-487.464	-189.721	0.234	0.003
-486.449	216.693	-0.126	-0.204
-485.435	126.520	-0.057	-0.073
-484.420	-15.766	-0.259	0.168
-483.405	-65.139	0.277	-0.114
-482.391	-176.730	0.149	-0.004
-481.376	-130.967	-0.061	-0.008
-480.362	326.494	0.152	-0.296
-479.347	-104.890	0.220	-0.051
-478.332	800.000	0.044	0.148
-477.318	-200.000	-0.060	0.380
-476.303	-200.000	0.006	0.155
-475.289	1.748	-0.351	-0.257
-474.274	-200.000	0.003	0.149
-473.259	-16.724	-0.137	0.088
-472.245	800.000	0.089	0.254
-471.230	-22.673	0.195	0.120
-470.216	43.207	-0.157	-0.146
-469.201	188.863	0.391	-0.595
-468.186	-82.971	0.267	-0.087
-467.172	14.806	-0.186	0.147
-466.157	-12.039	-0.058	-0.039
-465.143	-143.637	0.217	0.021
-464.128	102.827	0.056	0.067
-463.113	-200.000	-0.009	-0.122
-462.099	-92.280	0.236	-0.067
-461.084	-77.876	-0.042	-0.015
-460.070	470.035	-0.167	0.381
-459.055	119.099	-0.127	-0.159
-458.040	75.048	-0.289	0.309
-457.026	-139.903	0.176	0.019
-456.011	209.212	0.177	-0.281
-454.997	-200.000	0.014	-0.359
-453.982	-119.059	0.170	0.030
-452.968	-24.442	0.173	0.105
-451.953	-111.434	0.067	-0.014
-450.938	-200.000	-0.010	0.441
-449.924	174.823	0.013	-0.019
-448.909	-55.571	-0.171	-0.078
-447.895	-36.451	-0.304	0.167
-446.880	-17.852	0.148	0.094
-445.865	-120.091	0.466	0.081
-444.851	-135.302	-0.136	0.017
-443.836	-87.426	-0.154	-0.047
-442.822	-200.000	0.051	0.252
-441.807	800.000	0.066	-0.197
-440.792	260.880	-0.030	-0.053
-439.778	492.727	0.030	-0.070
-438.763	107.645	0.207	-0.250
-437.749	-124.913	0.182	-0.028
-436.734	-182.892	-0.225	-0.004
-435.719	-174.387	0.187	0.005
-434.705	-1.225	-0.128	0.092
-433.690	-200.000	-0.023	-0.163
-432.676	-20.176	0.114	-0.071
-431.661	-200.000	0.025	-0.248
-430.646	-200.000	-0.106	0.493
-429.632	-200.000	0.045	0.324
-428.617	-129.199	0.050	0.007
-427.603	-20.205	0.126	-0.079
-426.588	-89.523	0.175	-0.052
-425.573	59.135	0.046	0.046
-424.559	-138.648	0.201	0.022
-423.544	-17.741	0.251	0.160
-422.530	215.613	-0.089	0.144
-421.515	800.000	0.074	0.297
-420.500	-74.982	0.094	-0.034
-419.486	800.000	-0.068	0.199
-418.471	-165.370	-0.548	-0.024
-417.457	78.814	0.241	0.262
-416.442	28.820	-0.113	-0.097
-415.428	-200.000	-0.014	-0.064
-414.413	79.126	0.113	-0.123
-413.398	-36.225	0.103	0.056
-412.384	-17.454	0.196	0.125
-411.369	-200.000	-0.017	0.177
-410.355	572.988	-0.096	-0.236
-409.340	108.009	0.148	-0.178
-408.325	-105.767	0.173	0.040
-407.311	368.273	0.099	-0.204
-406.296	-200.000	0.049	0.223
-405.282	488.678	0.099	-0.228
-404.267	196.940	-0.119	0.184
-403.252	261.343	-0.104	-0.182
-402.238	-42.929	-0.127	-0.065
-401.223	-35.643	0.293	0.161
-400.209	-17.874	0.465	-0.296
-399.194	453.337	0.143	-0.322
-398.179	-200.000	0.065	-0.493
-397.165	-108.037	-0.050	-0.011
-396.150	297.122	-0.112	0.209
-395.136	-180.381	-0.141	-0.003
-394.121	-128.737	0.396	-0.057
-393.106	-137.181	0.399	0.046
-392.092	96.574	-0.178	-0.207
-391.077	257.557	-0.210	-0.366
-390.063	-182.807	-0.247	0.005
-389.048	-23.894	-0.123	-0.075
-388.033	-125.380	-0.395	-0.061
-387.019	800.000	0.053	-0.173
-386.004	105.490	0.071	0.085
-384.990	-200.000	0.048	-0.324
-383.975	694.480	0.083	-0.221
-382.960	800.000	0.095	0.311
-381.946	-118.362	-0.137	0.025
-380.931	6.794	-0.159	0.120
-379.917	-141.075	-0.114	-0.012
-378.902	-60.402	0.075	0.032
-377.888	-108.646	0.219	-0.048
-376.873	-51.962	-0.098	0.046
-375.858	-85.544	0.070	-0.022
-374.844	58.475	-0.037	0.037
-373.829	195.946	0.092	0.142
-372.815	54.513	-0.199	0.195
-371.800	-200.000	0.038	0.184
-370.785	-200.000	0.013	0.321
-369.771	104.438	0.162	0.193
-368.756	-80.697	-0.213	0.072
-367.742	-38.039	0.156	0.084
-366.727	740.212	-0.108	0.293
-365.712	-200.000	0.204	0.000
-364.698	-152.924	-0.328	-0.023
-363.683	-200.000	-0.023	0.186
-362.669	-125.235	-0.380	0.059
-361.654	-200.000	-0.035	-0.235
-360.639	-200.000	-0.004	-0.020
-359.625	-140.730	-0.376	0.039
-358.610	-200.000	0.034	-0.255
-357.596	410.976	-0.076	-0.163
-356.581	-125.874	0.073	0.011
-355.566	406.964	-0.105	-0.224
-354.552	151.760	0.062	0.086
-353.537	538.741	-0.036	-0.086
-352.523	-87.629	0.342	-0.105
-351.508	-159.789	-0.119	-0.007
-350.493	-200.000	-0.023	0.262
-349.479	218.791	-0.133	0.214
-348.464	53.703	-0.085	-0.083
-347.450	-7.900	0.250	0.171
-346.435	342.758	-0.128	-0.254
-345.420	351.165	0.063	0.126
-344.406	329.652	-0.150	0.293
-343.391	0.274	-0.328	0.236
-342.377	-200.000	-0.043	-0.299
-341.362	-138.927	0.245	0.027
-340.348	-38.814	-0.106	0.056
-339.333	39.299	0.090	-0.081
-338.318	-64.182	-0.268	-0.111
-337.304	-200.000	-0.026	0.249
-336.289	-58.482	-0.245	-0.108
-335.275	120.993	-0.229	-0.288
-334.260	-200.000	0.063	0.308
-333.245	-131.415	-0.090	0.012
-332.231	226.319	0.058	0.095
-331.216	-176.285	0.099	-0.003
-330.202	-142.180	-0.195	-0.020
-329.187	11.948	-0.030	0.024
-328.172	-200.000	-0.037	-0.274
-327.158	-91.336	-0.404	0.117
-326.143	-24.706	-0.201	-0.121
-325.129	221.413	0.105	0.170
-324.114	6.040	-0.082	0.062
-323.099	-37.985	0.290	0.156
-322.085	-41.820	-0.277	-0.144
-321.070	-130.699	0.020	-0.003
-320.056	277.781	-0.053	-0.096
-319.041	800.000	0.029	-0.090
-318.026	-70.152	0.142	-0.054
-317.012	111.033	0.146	-0.178
-315.997	-63.201	-0.086	0.036
-314.983	-200.000	0.008	-0.107
-313.968	-90.375	0.360	0.106
-312.953	-125.630	0.076	0.012
-311.939	-153.665	-0.079	0.005
-310.924	12.448	0.172	-0.134
-309.910	-37.881	0.404	-0.217
-308.895	463.158	-0.041	0.092
-307.880	-75.136	0.366	-0.132
-306.866	47.492	-0.118	0.112
-305.851	17.844	0.103	0.082
-304.837	-126.994	-0.255	0.038
-303.822	66.795	-0.215	0.221
-302.807	-96.409	0.193	-0.052
-301.793	-48.577	0.099	-0.048
-300.778	-17.511	-0.307	0.195
-299.764	116.186	0.174	0.215
-298.749	260.033	-0.093	0.162
-297.735	128.898	-0.164	-0.211
-296.720	455.114	0.153	-0.343
-295.705	-104.216	-0.135	-0.032
-294.691	36.087	-0.202	0.180
-293.676	19.827	0.178	-0.145
-292.662	252.087	0.033	-0.057
-291.647	-25.254	-0.128	0.077
-290.632	356.303	-0.076	-0.152
-289.618	-172.653	-0.271	-0.009
-288.603	51.519	-0.299	-0.287
-287.589	62.446	0.123	-0.124
-286.574	-200.000	-0.019	0.236
-285.559	105.633	-0.220	-0.263
-284.545	-200.000	-0.067	-0.324
-283.530	-110.325	-0.241	0.051
-282.516	67.107	0.092	0.094
-281.501	55.549	0.208	0.204
-280.486	4.581	0.140	0.104
-279.472	-17.839	0.095	0.060
-278.457	-114.427	0.122	0.024
-277.443	800.000	-0.051	0.163
-276.428	265.243	-0.072	-0.126
-275.413	395.084	0.112	-0.236
-274.399	167.764	-0.150	-0.215
-273.384	-176.888	-0.244	-0.006
-272.370	628.695	-0.061	0.154
-271.355	24.491	0.199	-0.166
-270.340	-200.000	-0.010	-0.061
-269.326	9.914	-0.008	-0.006
-268.311	331.049	-0.223	0.433
-267.297	-181.917	-0.039	-0.001
-266.282	-157.728	0.345	-0.021
-265.267	800.000	-0.036	-0.103
-264.253	-200.000	-0.016	0.347
-263.238	205.655	-0.157	-0.246
-262.224	-89.220	-0.436	-0.130
-261.209	324.971	-0.043	0.083
-260.195	743.397	0.073	0.198
-259.180	-140.478	-0.059	-0.006
-258.165	-200.000	0.019	0.289
-257.151	53.680	0.203	0.197
-256.136	-40.640	0.246	0.128
-255.122	186.439	-0.103	0.154
-254.107	-39.018	-0.375	0.199
-253.092	59.740	-0.179	-0.178
-252.078	-79.150	-0.269	-0.092
-251.063	-24.146	-0.113	0.068
-250.049	-200.000	0.060	-0.346
-249.034	-200.000	-0.010	-0.288
-248.019	-165.243	-0.199	-0.009
-247.005	-136.537	0.321	-0.038
-245.990	-48.388	0.299	0.145
-244.976	567.955	-0.070	-0.171
-243.961	-200.000	0.056	0.330
-242.946	-34.317	0.316	0.175
-241.932	65.576	-0.210	0.214
-240.917	152.111	-0.304	0.418
-239.903	-108.000	0.213	-0.046
-238.888	-113.661	-0.152	-0.030
-237.873	-132.455	0.186	0.024
-236.859	-200.000	-0.001	0.240
-235.844	-29.639	0.235	0.135
-234.830	-151.467	-0.292	-0.022
-233.815	-47.803	0.369	0.180
-232.800	-25.950	-0.069	0.041
-231.786	74.742	0.158	-0.168
-230.771	103.036	0.120	-0.142
-229.757	20.308	0.254	-0.206
-228.742	800.000	-0.030	0.107
-227.727	600.695	-0.016	0.041
-226.713	772.033	-0.113	0.309
-225.698	307.311	-0.101	-0.190
-224.684	42.530	0.062	0.057
-223.669	-200.000	-0.014	-0.127
-222.655	800.000	0.035	-0.098
-221.640	-44.341	0.157	0.079
-220.625	-47.543	0.103	-0.050
-219.611	-125.789	0.171	-0.026
-218.596	-73.273	-0.218	-0.080
-217.582	9.439	-0.069	-0.053
-216.567	112.822	0.131	0.160
-215.552	122.678	-0.076	0.095
-214.538	-43.337	0.131	-0.066
-213.523	-94.537	0.165	0.045
-212.509	16.747	-0.235	0.187
-211.494	111.406	0.224	0.271
-210.479	335.023	-0.053	0.104
-209.465	-200.000	-0.008	0.120
-208.450	123.791	-0.189	-0.238
-207.436	800.000	-0.055	-0.211
-206.421	-102.698	0.373	-0.089
-205.406	38.330	0.200	-0.179
-204.392	250.128	0.133	0.227
-203.377	-77.678	0.131	-0.045
-202.363	14.533	-0.122	0.096
-201.348	-174.990	-0.387	0.011
-200.333	-19.107	-0.140	-0.087
-199.319	143.803	-0.078	-0.105
-198.304	800.000	0.077	0.303
-197.290	-200.000	0.003	-0.276
-196.275	-131.440	0.100	0.013
-195.260	791.359	0.019	0.052
-194.246	-200.000	0.024	0.265
-193.231	-200.000	0.050	0.405
-192.217	-200.000	0.005	-0.095
-191.202	800.000	-0.089	-0.353
-190.187	5.864	-0.122	0.091
-189.173	43.093	-0.186	0.170
-188.158	752.387	-0.023	0.062
-187.144	22.914	0.396	-0.326
-186.129	330.344	-0.101	-0.196
-185.114	150.501	0.100	-0.137
-184.100	222.090	0.140	-0.226
-183.085	416.720	-0.102	0.220
-182.071	147.989	-0.046	0.062
-181.056	-92.514	-0.094	-0.027
-180.042	-56.835	-0.112	-0.050
-179.027	145.542	0.136	0.183
-178.012	248.579	-0.150	0.256
-176.998	-67.186	-0.265	0.105
-175.983	128.939	-0.165	0.211
-174.969	-123.970	-0.333	0.053
-173.954	333.880	0.221	0.430
-172.939	199.989	0.101	-0.156
-171.925	75.584	-0.201	0.213
-170.910	-98.051	0.236	-0.061
-169.896	-15.693	-0.348	0.223
-168.881	669.816	0.080	-0.207
-167.866	800.000	-0.028	-0.080
-166.852	800.000	0.113	0.441
-165.837	-200.000	0.069	0.343
-164.823	800.000	-0.029	-0.114
-163.808	800.000	0.043	-0.121
-162.793	800.000	0.068	0.244
-161.779	800.000	0.018	-0.074
-160.764	319.849	0.069	-0.132
-159.750	-200.000	0.062	0.330
-158.735	416.804	-0.197	-0.422
-157.720	164.907	-0.182	0.259
-156.706	-35.580	0.197	-0.108
-155.691	-75.508	0.218	-0.078
-154.677	800.000	0.039	-0.152
-153.662	-200.000	0.058	0.293
-152.647	2.091	-0.147	0.106
-151.633	-24.842	0.430	-0.256
-150.618	-142.919	0.174	-0.017
-149.604	86.713	0.082	0.091
-148.589	-165.240	0.343	0.015
-147.574	-66.221	-0.117	-0.047
-146.560	-40.387	-0.288	-0.150
-145.545	-200.000	-0.002	-0.299
-144.531	95.985	0.059	0.068
-143.516	-107.416	-0.232	0.051
-142.502	70.120	0.086	-0.089
-141.487	-110.010	-0.177	-0.037
-140.472	-66.984	-0.268	0.106
-139.458	-56.641	-0.175	-0.078
-138.443	-120.480	-0.459	-0.078
-137.429	-82.093	0.221	0.072
-136.414	-114.507	0.347	0.067
-135.399	454.351	0.050	-0.112
-134.385	305.190	0.130	0.242
-133.370	-200.000	-0.005	0.140
-132.356	800.000	0.055	-0.153
-131.341	-120.094	-0.317	0.054
-130.326	800.000	-0.054	0.201
-129.312	-200.000	0.023	0.122
-128.297	77.644	-0.212	0.227
-127.283	-200.000	0.013	-0.063
-126.268	800.000	-0.045	-0.143
-125.253	-42.392	0.131	0.067
-124.239	-200.000	-0.033	-0.222
-123.224	-109.368	0.264	-0.056
-122.210	-200.000	-0.017	0.134
-121.195	16.486	-0.190	0.150
-120.180	-200.000	-0.014	-0.156
-119.166	461.511	0.107	-0.239
-118.151	-138.215	-0.316	-0.035
-117.137	114.048	0.173	-0.211
-116.122	-34.904	0.106	-0.058
-115.107	-200.000	0.007	0.080
-114.093	144.532	-0.424	-0.568
-113.078	-115.861	-0.132	0.025
-112.064	-78.941	0.065	0.022
-111.049	24.926	0.180	-0.150
-110.034	-6.335	0.073	-0.050
-109.020	40.488	0.104	-0.094
-108.005	-200.000	0.017	0.143
-106.991	-200.000	-0.020	0.162
-105.976	71.446	-0.167	0.174
-104.962	-200.000	-0.022	0.123
-103.947	-166.727	-0.188	-0.008
-102.932	-121.698	-0.208	-0.034
-101.918	-200.000	0.005	0.064
-100.903	8.391	-0.047	0.035
-99.889	318.252	-0.086	0.163
-98.874	30.809	0.170	0.146
-97.859	214.015	0.151	-0.239
-96.845	-200.000	0.001	-0.022
-95.830	-32.012	0.073	0.041
-94.816	800.000	-0.051	0.144
-93.801	193.369	0.066	0.101
-92.786	-79.170	0.254	-0.086
-91.772	71.487	0.095	0.099
-90.757	-200.000	-0.043	-0.190
-89.743	38.460	-0.372	-0.332
-88.728	-148.639	0.198	0.016
-87.713	-47.891	0.134	-0.065
-86.699	800.000	0.032	-0.120
-85.684	-131.544	0.138	0.018
-84.670	800.000	0.044	-0.190
-83.655	276.686	0.132	0.236
-82.640	-1.854	0.200	0.141
-81.626	61.752	-0.127	0.127
-80.611	-3.272	-0.195	-0.136
-79.597	800.000	-0.031	-0.086
-78.582	800.000	-0.013	0.043
-77.567	-154.423	0.326	-0.022
-76.553	263.363	0.057	-0.100
-75.538	1.356	-0.042	0.030
-74.524	800.000	-0.071	0.243
-73.509	-99.966	-0.313	-0.078
-72.494	417.807	-0.126	0.270
-71.480	242.987	-0.134	0.224
-70.465	-97.140	0.099	-0.026
-69.451	501.507	0.052	-0.120
-68.436	-21.170	0.024	0.015
-67.422	800.000	0.091	-0.289
-66.407	94.680	0.107	-0.122
-65.392	29.004	0.102	0.087
-64.378	419.505	-0.142	-0.303
-63.363	0.446	-0.024	-0.017
-62.349	455.071	0.078	-0.173
-61.334	62.685	-0.606	-0.606
-60.319	-21.607	0.229	0.140
-59.305	-200.000	-0.048	-0.531
-58.290	221.972	0.448	0.721
-57.276	483.055	0.765	1.739
-56.261	-200.000	70.517	521.849
-55.246	577.958	1260.751	3083.671
-54.232	136.672	2525.840	3297.481
-53.217	111.894	2368.171	2859.779
-52.203	54.487	1987.238	1914.639
-51.188	48.084	1773.221	1657.565
-50.173	45.249	1724.878	1590.292
-49.159	58.405	1754.529	1720.750
-48.144	65.379	1773.901	1794.151
-47.130	48.016	1738.643	1624.459
-46.115	44.674	1725.110	1585.774
-45.100	44.559	1719.718	1579.861
-44.086	44.490	1717.577	1577.299
-43.071	44.422	1714.864	1574.216
-42.057	44.427	1712.664	1572.170
-41.042	44.415	1710.288	1569.835
-40.027	44.547	1708.303	1568.971
-39.013	44.505	1706.396	1566.832
-37.998	44.462	1704.895	1565.060
-36.984	44.574	1703.094	1564.211
-35.969	44.575	1701.920	1563.073
-34.954	44.685	1699.641	1561.761
-33.940	44.699	1698.098	1560.393
-32.925	44.669	1696.336	1558.479
-31.911	44.745	1694.361	1557.184
-30.896	44.690	1692.615	1555.095
-29.881	44.574	1690.755	1552.444
-28.867	44.633	1689.313	1551.508
-27.852	44.590	1687.809	1549.738
-26.838	44.717	1686.122	1549.091
-25.823	44.725	1684.560	1547.653
-24.809	44.782	1683.351	1546.916
-23.794	44.771	1681.300	1544.886
-22.779	44.653	1680.023	1542.758
-21.765	44.775	1678.105	1541.856
-20.750	44.700	1676.435	1539.693
-19.736	44.682	1675.246	1538.405
-18.721	44.719	1673.728	1537.236
-17.706	44.737	1671.818	1535.553
-16.692	44.558	1670.690	1533.105
-15.677	44.655	1669.264	1532.469
-14.663	44.706	1667.685	1531.343
-13.648	44.730	1665.787	1529.721
-12.633	44.655	1664.448	1527.863
-11.619	44.675	1662.432	1526.107
-10.604	44.580	1661.378	1524.366
-9.590	44.672	1659.764	1523.508
-8.575	44.671	1658.405	1522.199
-7.560	44.588	1657.533	1520.716
-6.546	44.740	1656.061	1520.435
-5.531	44.687	1655.188	1519.180
-4.517	44.699	1653.651	1517.802
-3.502	44.609	1652.984	1516.455
-2.487	44.729	1651.356	1515.793
-1.473	44.823	1640.331	1506.313
-0.458	42.255	1619.592	1468.430
0.556	34.742	1614.920	1421.487
1.571	30.709	1636.345	1409.741
2.586	29.041	1649.443	1408.148
3.600	25.562	1596.793	1337.256
4.615	16.336	1482.533	1177.440
5.629	7.961	1409.560	1063.659
6.644	6.153	1399.371	1043.879
7.659	5.914	1397.972	1041.157
8.673	5.973	1396.350	1040.246
9.688	5.821	1394.375	1037.680
10.702	5.630	1391.749	1034.374
11.717	9.120	1399.692	1063.330
12.731	16.751	1413.476	1124.559
13.746	19.382	1416.705	1144.512
14.761	17.407	1411.771	1127.353
15.775	16.018	1408.523	1115.473
16.790	14.999	1405.429	1106.186
17.804	14.119	1403.043	1098.401
18.819	13.645	1402.041	1094.395
19.834	13.357	1400.485	1091.180
20.848	13.180	1398.814	1088.619
21.863	12.856	1397.640	1085.476
22.877	12.729	1396.272	1083.480
23.892	12.664	1395.806	1082.596
24.907	12.698	1394.673	1081.841
25.921	12.731	1394.101	1081.523
26.936	12.727	1392.974	1080.524
27.950	12.774	1391.708	1079.757
28.965	12.903	1390.663	1079.693
29.980	12.975	1389.588	1079.233
30.994	12.972	1388.388	1078.185
32.009	13.100	1387.080	1077.913
33.023	13.025	1385.946	1076.443
34.038	12.943	1384.636	1074.802
35.053	12.828	1383.631	1073.172
36.067	12.946	1381.974	1072.563
37.082	12.939	1380.958	1071.630
38.096	12.907	1379.792	1070.423
39.111	12.907	1378.945	1069.676
40.126	12.895	1378.073	1068.822
41.140	12.759	1377.257	1067.216
42.155	12.754	1376.341	1066.382
43.169	12.679	1376.597	1065.997
44.184	12.727	1376.418	1066.078
45.199	12.661	1376.012	1065.243
46.213	12.807	1375.092	1065.376
47.228	12.851	1374.151	1064.837
48.242	12.893	1372.949	1064.085
49.257	12.872	1371.284	1062.562
50.271	12.891	1369.675	1061.349
51.286	12.877	1368.576	1060.312
52.301	12.844	1367.804	1059.407
53.315	12.694	1366.608	1057.423
54.330	12.668	1365.699	1056.457
55.344	12.624	1364.403	1055.080
56.359	12.672	1363.236	1054.394
57.374	12.710	1362.062	1053.635
58.388	12.643	1361.435	1052.630
59.403	12.635	1360.651	1051.879
60.417	12.648	1359.992	1051.361
61.432	12.607	1359.500	1050.620
62.447	12.571	1358.183	1049.285
63.461	12.565	1357.183	1048.377
64.476	12.529	1355.751	1046.949
65.490	12.559	1354.426	1046.026
66.505	12.478	1352.930	1044.266
67.520	12.547	1351.957	1043.857
68.534	12.559	1350.882	1043.009
69.549	12.569	1349.982	1042.290
70.563	12.682	1348.831	1042.018
71.578	12.474	1347.996	1039.969
72.593	12.474	1346.705	1038.879
73.607	12.433	1346.179	1038.125
74.622	12.537	1344.925	1037.718
75.636	12.459	1344.721	1036.980
76.651	12.474	1343.807	1036.276
77.666	12.430	1343.335	1035.543
78.680	12.440	1342.918	1035.198
79.695	12.551	1342.421	1035.419
80.709	12.579	1340.520	1034.036
81.724	12.570	1339.964	1033.463
82.739	12.624	1339.447	1033.311
83.753	12.679	1338.799	1033.063
84.768	12.858	1337.334	1032.963
85.782	12.881	1336.374	1032.274
86.797	12.898	1335.233	1031.408
87.812	12.799	1334.122	1029.840
88.826	12.774	1332.992	1028.718
89.841	12.839	1331.843	1028.147
90.855	12.888	1330.698	1027.476
91.870	12.957	1329.772	1027.104
92.884	12.936	1328.923	1026.223
93.899	12.901	1328.352	1025.475
94.914	12.933	1327.508	1024.930
95.928	12.949	1325.968	1023.753
96.943	12.898	1325.317	1022.839
97.957	12.925	1324.762	1022.491
98.972	12.902	1323.468	1021.258
99.987	12.765	1322.752	1019.769
101.001	12.865	1321.167	1019.077
102.016	12.915	1320.569	1018.830
103.030	12.967	1319.305	1018.087
104.045	12.860	1318.933	1017.047
105.060	12.862	1317.674	1016.002
106.074	12.702	1316.306	1013.871
107.089	12.659	1314.618	1012.219
108.103	12.493	1313.633	1010.347
109.118	12.604	1312.297	1009.912
110.133	12.770	1310.238	1009.254
111.147	12.617	1309.145	1007.391
112.162	12.582	1308.391	1006.508
113.176	12.746	1307.157	1006.471
114.191	12.744	1306.049	1005.517
115.206	12.747	1304.890	1004.555
116.220	12.748	1303.542	1003.432
117.235	12.753	1302.386	1002.482
118.249	12.764	1301.306	1001.628
119.264	12.803	1299.906	1000.700
120.279	12.727	1299.209	999.615
121.293	12.691	1298.102	998.455
122.308	12.537	1297.279	996.805
123.322	12.532	1296.198	995.853
124.337	12.533	1295.382	995.142
125.352	12.586	1294.224	994.490
126.366	12.591	1292.690	993.253
127.381	12.606	1291.739	992.523
128.395	12.640	1290.536	991.712
129.410	12.736	1289.600	991.488
130.424	12.641	1289.469	990.723
131.439	12.735	1288.394	990.380
132.454	12.709	1287.097	989.136
133.468	12.714	1286.657	988.739
134.483	12.770	1285.735	988.279
135.497	12.838	1284.466	987.623
136.512	12.790	1283.385	986.419
137.527	12.825	1281.550	985.131
138.541	12.910	1280.558	984.789
139.556	12.911	1279.007	983.516
140.570	12.865	1277.994	982.376
141.585	12.928	1276.867	981.797
142.600	12.958	1275.491	980.829
143.614	13.064	1274.663	980.739
144.629	13.151	1273.413	980.204
145.643	12.981	1272.558	978.448
146.658	13.015	1271.190	977.515
147.673	12.865	1269.923	975.564
148.687	12.886	1268.495	974.509
149.702	12.851	1267.184	973.208
150.716	12.855	1265.546	971.883
151.731	12.820	1264.787	971.009
152.746	12.745	1263.632	969.597
153.760	12.870	1262.303	969.224
154.775	12.872	1260.944	968.107
155.789	12.940	1259.945	967.656
156.804	13.050	1258.917	967.428
157.819	12.945	1258.068	966.071
158.833	13.027	1257.150	965.764
159.848	13.092	1256.012	965.180
160.862	13.102	1254.925	964.319
161.877	12.986	1253.398	962.386
162.892	12.896	1252.655	961.204
163.906	12.856	1252.100	960.459
164.921	12.912	1250.845	959.740
165.935	12.928	1250.274	959.309
166.950	12.942	1249.680	958.846
167.964	12.980	1248.716	958.245
168.979	12.955	1247.893	957.385
169.994	12.998	1247.043	956.898
171.008	12.966	1246.317	956.070
172.023	12.997	1245.306	955.388
173.037	13.042	1244.783	955.164
174.052	13.182	1243.565	954.956
175.067	13.004	1242.236	952.821
176.081	12.873	1241.739	951.598
177.096	12.896	1240.785	950.915
178.110	13.003	1239.499	950.461
179.125	13.032	1237.993	949.391
180.140	12.989	1237.226	948.470
181.154	13.042	1235.946	947.711
182.169	13.095	1234.437	946.776
183.183	13.178	1233.410	946.379
184.198	13.245	1232.119	945.688
185.213	13.261	1230.919	944.774
186.227	13.284	1229.837	943.993
187.242	13.185	1229.137	942.805
188.256	13.339	1228.031	942.752
189.271	13.342	1227.160	942.016
190.286	13.252	1225.775	940.358
191.300	13.026	1225.136	938.500
192.315	12.971	1224.443	937.572
193.329	12.925	1223.704	936.664
194.344	13.049	1222.934	936.692
195.359	13.109	1222.680	936.758
196.373	13.191	1221.682	936.376
197.388	13.216	1221.657	936.416
198.402	13.367	1221.133	936.786
199.417	13.454	1220.595	936.778
200.432	13.486	1219.112	935.739
201.446	13.511	1218.636	935.434
202.461	13.481	1218.220	934.863
203.475	13.606	1216.936	934.500
204.490	13.551	1215.626	933.101
205.504	13.554	1214.246	931.974
206.519	13.329	1213.208	929.834
207.534	13.436	1212.006	929.427
208.548	13.422	1210.889	928.412
209.563	13.464	1210.099	927.962
210.577	13.428	1209.314	927.073
211.592	13.543	1208.581	927.077
212.607	13.653	1207.506	926.784
213.621	13.624	1206.873	926.054
214.636	13.642	1205.567	925.071
215.650	13.605	1204.594	924.033
216.665	13.695	1203.795	923.842
217.680	13.732	1202.658	923.093
218.694	13.635	1202.085	922.031
219.709	13.760	1201.359	922.090
220.723	13.689	1200.643	921.062
221.738	13.672	1200.131	920.495
222.753	13.735	1199.122	919.990
223.767	13.709	1198.801	919.516
224.782	13.819	1197.898	919.351
225.796	13.840	1196.994	918.690
226.811	13.797	1196.338	917.868
227.826	13.750	1195.581	916.948
228.840	13.779	1194.641	916.305
229.855	13.731	1194.266	915.671
230.869	13.864	1193.582	915.802
231.884	13.802	1192.551	914.589
232.899	13.743	1191.864	913.652
233.913	13.643	1191.257	912.556
234.928	13.630	1190.102	911.518
235.942	13.708	1189.306	911.256
236.957	13.730	1188.243	910.485
237.972	13.689	1188.004	909.998
238.986	13.597	1187.812	909.260
240.001	13.768	1186.394	909.037
241.015	13.835	1185.462	908.608
242.030	13.811	1185.040	908.072
243.045	13.865	1184.449	907.831
244.059	13.801	1183.631	906.779
245.074	13.914	1182.441	906.399
246.088	13.839	1181.920	905.515
247.103	13.945	1180.873	905.210
248.117	14.179	1180.037	905.761
249.132	14.181	1179.266	905.101
250.147	14.283	1178.469	904.962
251.161	14.155	1178.156	903.948
252.176	14.292	1177.097	903.798
253.190	14.283	1176.963	903.568
254.205	14.327	1175.918	902.922
255.220	14.333	1175.485	902.541
256.234	14.342	1174.991	902.135
257.249	14.406	1174.286	901.859
258.263	14.335	1173.361	900.684
259.278	14.398	1172.849	900.551
260.293	14.399	1172.240	900.007
261.307	14.471	1171.933	900.085
262.322	14.605	1171.070	900.061
263.336	14.453	1170.267	898.545
264.351	14.581	1169.463	898.540
265.366	14.584	1169.021	898.134
266.380	14.493	1168.389	897.084
267.395	14.496	1167.639	896.443
268.409	14.498	1166.681	895.639
269.424	14.439	1166.173	894.853
270.439	14.469	1165.333	894.292
271.453	14.526	1164.679	894.012
272.468	14.533	1163.592	893.139
273.482	14.454	1162.753	891.994
274.497	14.439	1162.483	891.624
275.512	14.516	1161.881	891.496
276.526	14.520	1161.366	891.046
277.541	14.508	1160.169	889.985
278.555	14.503	1159.688	889.510
279.570	14.602	1159.027	889.449
280.585	14.633	1158.126	888.847
281.599	14.676	1156.723	887.919
282.614	14.588	1155.967	886.790
283.628	14.596	1154.776	885.842
284.643	14.625	1153.823	885.187
285.657	14.658	1152.960	884.621
286.672	14.699	1152.315	884.267
287.687	14.585	1151.265	882.781
288.701	14.675	1150.707	882.746
289.716	14.767	1149.386	882.145
290.730	14.750	1149.228	881.856
291.745	14.729	1148.496	881.106
292.760	14.702	1148.027	880.524
293.774	14.793	1147.263	880.337
294.789	14.791	1147.212	880.213
295.803	14.813	1146.108	879.404
296.818	14.881	1145.280	879.049
297.833	14.771	1144.126	877.506
298.847	14.939	1143.217	877.610
299.862	14.912	1142.463	876.814
300.876	14.899	1142.020	876.330
301.891	14.919	1141.383	875.865
302.906	14.977	1140.801	875.647
303.920	14.944	1139.880	874.690
304.935	14.997	1139.561	874.642
305.949	15.046	1138.562	874.055
306.964	15.075	1137.986	873.688
307.979	15.012	1137.367	872.805
308.993	14.984	1136.714	872.080
310.008	15.060	1135.719	871.640
311.022	15.108	1134.784	871.091
312.037	15.055	1133.594	869.828
313.052	15.039	1132.781	869.045
314.066	15.079	1131.832	868.447
315.081	15.067	1131.011	867.677
316.095	15.011	1129.785	866.372
317.110	15.010	1129.444	866.027
318.125	15.011	1128.686	865.372
319.139	15.009	1128.113	864.849
320.154	15.026	1127.239	864.190
321.168	14.994	1126.695	863.531
322.183	15.003	1126.165	863.095
323.197	15.129	1125.258	862.971
324.212	15.175	1124.739	862.735
325.227	15.061	1124.757	862.086
326.241	15.111	1123.900	861.607
327.256	15.226	1123.110	861.515
328.270	15.135	1121.912	860.055
329.285	15.041	1121.185	858.940
330.300	15.118	1120.096	858.422
331.314	15.178	1119.028	857.838
332.329	15.118	1118.473	857.028
333.343	15.086	1117.508	856.050
334.358	15.297	1116.641	856.388
335.373	15.259	1115.669	855.371
336.387	15.381	1114.976	855.388
337.402	15.290	1114.066	854.150
338.416	15.358	1113.365	853.881
339.431	15.277	1113.156	853.235
340.446	15.464	1112.367	853.505
341.460	15.565	1111.525	853.297
342.475	15.582	1110.544	852.554
343.489	15.584	1109.618	851.780
344.504	15.563	1109.102	851.198
345.519	15.561	1107.990	850.262
346.533	15.655	1107.036	849.930
347.548	15.710	1106.529	849.744
348.562	15.609	1105.785	848.586
349.577	15.604	1105.221	848.055
350.592	15.638	1104.072	847.270
351.606	15.469	1103.352	845.791
352.621	15.565	1102.334	845.419
353.635	15.562	1102.167	845.197
354.650	15.549	1101.230	844.342
355.665	15.478	1100.807	843.587
356.679	15.510	1099.936	843.002
357.694	15.692	1099.196	843.273
358.708	15.732	1098.594	842.938
359.723	15.567	1098.268	841.788
360.738	15.548	1097.388	840.945
361.752	15.656	1096.941	841.068
362.767	15.683	1096.468	840.764
363.781	15.656	1095.907	840.124
364.796	15.748	1095.216	839.979
365.810	15.748	1094.667	839.486
366.825	15.887	1094.180	839.729
367.840	15.953	1093.663	839.589
368.854	16.018	1092.967	839.304
369.869	15.974	1092.191	838.413
370.883	16.032	1091.200	837.866
371.898	15.901	1090.541	836.638
372.913	15.870	1090.161	836.116
373.927	15.965	1089.646	836.118
374.942	15.954	1088.998	835.492
375.956	15.988	1088.578	835.264
376.971	16.019	1087.604	834.601
377.986	16.052	1087.218	834.391
379.000	16.083	1086.402	833.847
380.015	16.165	1085.905	833.795
381.029	16.186	1085.385	833.428
382.044	16.144	1084.478	832.447
383.059	16.157	1083.798	831.915
384.073	16.182	1082.975	831.337
385.088	16.211	1081.907	830.583
386.102	16.266	1081.109	830.169
387.117	16.168	1080.152	828.878
388.132	16.086	1079.063	827.569
389.146	16.154	1078.363	827.293
390.161	16.110	1077.786	826.560
391.175	16.133	1077.147	826.111
392.190	16.240	1076.273	825.888
393.205	16.277	1075.865	825.686
394.219	16.319	1075.107	825.234
395.234	16.318	1074.052	824.345
396.248	16.193	1073.057	822.902
397.263	16.112	1072.099	821.699
398.278	16.121	1071.466	821.185
399.292	16.095	1070.745	820.435
400.307	16.100	1069.855	819.704
401.321	16.184	1069.260	819.581
402.336	16.107	1068.484	818.542
403.350	16.146	1067.891	818.204
404.365	16.224	1067.386	818.124
405.380	16.254	1066.550	817.556
406.394	16.356	1065.492	817.162
407.409	16.319	1065.074	816.591
408.423	16.389	1064.082	816.099
409.438	16.606	1063.485	816.614
410.453	16.530	1063.020	815.821
411.467	16.653	1061.873	815.462
412.482	16.594	1061.277	814.648
413.496	16.580	1060.865	814.192
414.511	16.532	1060.669	813.738
415.526	16.679	1059.828	813.727
416.540	16.795	1059.535	813.989
417.555	16.753	1058.869	813.199
418.569	16.629	1058.632	812.350
419.584	16.714	1057.783	812.035
420.599	16.601	1057.278	811.036
421.613	66.995	1263.816	1249.361
422.628	61.637	1293.938	1249.506
