DTS Sentinel unit serial number:	SN413079Multiplexer serial number:	ORYXHardware model number:	OX4-SRSoftware version number:	ORYX F/W v4.00 Oryx Data Collector v3.7.2.0data status	okinstallation	princeton_trtdifferential loss correction	single-endedforward channel	channel 2reverse channel	N/Adate	2019/09/14time	23:47:35forward acquisition time	60.00reverse acquisition time	0.00gamma	496.2192k internal	0.2324k external	0.2324temperature offset calibration	1.0052default loss term (dB/km)	0.3790temperature slope calibration	1.0000multiplexer offset coefficient	1.0000multiplexer slope coefficient	1.0000fibre end	0.00T internal ref (°C)	32.28T ext. ref 1 (°C)	4.63T ext. ref 2 (°C)	27.21length (m)	temperature (°C)	Stokes	anti-Stokes-747.200	-122.984	-0.181	-0.029
-746.185	-200.000	0.011	0.221
-745.171	182.531	0.050	0.075
-744.156	-66.524	-0.229	-0.092
-743.142	-147.565	-0.190	0.016
-742.127	701.093	-0.052	-0.139
-741.112	398.820	-0.051	0.108
-740.098	-191.027	-0.279	0.003
-739.083	134.313	0.146	0.191
-738.069	368.991	0.042	0.085
-737.054	-200.000	0.011	-0.242
-736.039	40.479	-0.131	-0.119
-735.025	464.073	0.057	-0.130
-734.010	800.000	0.013	-0.044
-732.996	-200.000	-0.037	-0.271
-731.981	-20.468	0.370	0.229
-730.966	63.939	0.012	0.012
-729.952	-20.680	-0.130	-0.080
-728.937	10.652	-0.259	-0.199
-727.923	800.000	-0.024	0.084
-726.908	18.514	0.165	0.133
-725.894	166.769	-0.146	0.209
-724.879	-200.000	-0.027	-0.380
-723.864	-127.821	-0.258	0.038
-722.850	-200.000	-0.021	0.121
-721.835	152.583	0.083	-0.115
-720.821	44.012	0.039	-0.036
-719.806	-51.598	0.353	0.166
-718.791	-172.853	-0.373	-0.012
-717.777	72.635	0.248	0.261
-716.762	20.688	0.112	-0.091
-715.748	-200.000	-0.018	-0.250
-714.733	-14.808	0.175	0.113
-713.718	-200.000	0.017	-0.241
-712.704	178.483	-0.039	-0.057
-711.689	44.369	0.364	-0.337
-710.675	-101.121	0.373	-0.092
-709.660	503.403	0.079	-0.184
-708.645	800.000	0.115	-0.440
-707.631	-159.786	-0.132	-0.007
-706.616	540.627	0.110	-0.265
-705.602	-152.061	-0.110	-0.008
-704.587	-62.582	-0.126	-0.053
-703.572	-60.204	0.275	-0.118
-702.558	-51.074	0.329	0.155
-701.543	-200.000	0.003	-0.114
-700.529	-200.000	0.004	-0.266
-699.514	108.961	0.136	-0.164
-698.499	-200.000	0.000	-0.150
-697.485	220.339	0.101	-0.163
-696.470	627.722	-0.049	0.125
-695.456	-176.409	0.322	0.008
-694.441	800.000	0.017	-0.066
-693.426	-44.438	-0.175	0.088
-692.412	800.000	-0.018	0.069
-691.397	169.631	0.213	-0.306
-690.383	800.000	-0.018	0.070
-689.368	421.401	0.144	-0.310
-688.354	470.282	-0.065	-0.147
-687.339	-61.389	0.303	-0.128
-686.324	-85.199	0.168	0.053
-685.310	-200.000	0.024	0.189
-684.295	-32.291	0.112	-0.063
-683.281	-23.824	0.071	0.043
-682.266	12.213	0.336	-0.260
-681.251	800.000	0.029	-0.106
-680.237	-69.481	0.453	0.175
-679.222	395.988	-0.072	-0.151
-678.208	5.936	-0.212	0.158
-677.193	149.607	0.159	0.218
-676.178	-101.157	0.066	0.016
-675.164	800.000	0.133	0.518
-674.149	-14.125	0.379	-0.246
-673.135	-200.000	-0.044	0.195
-672.120	-132.163	-0.182	0.024
-671.105	-200.000	0.042	0.305
-670.091	78.786	-0.147	0.158
-669.076	205.238	-0.059	-0.092
-668.062	-9.986	0.165	0.110
-667.047	-164.871	-0.099	-0.004
-666.032	-115.722	0.220	-0.042
-665.018	-37.935	0.230	-0.123
-664.003	145.898	-0.273	-0.368
-662.989	-200.000	0.019	-0.258
-661.974	33.649	-0.051	-0.045
-660.959	-39.191	0.155	-0.082
-659.945	-87.143	-0.166	0.051
-658.930	-25.467	0.163	0.097
-657.916	-36.981	-0.230	-0.124
-656.901	105.125	0.286	0.340
-655.886	-167.408	-0.206	0.008
-654.872	-73.371	-0.045	-0.017
-653.857	-135.829	-0.354	0.042
-652.843	-200.000	0.040	0.229
-651.828	-33.646	0.272	-0.151
-650.814	21.365	0.155	-0.127
-649.799	0.216	-0.038	-0.028
-648.784	800.000	-0.072	-0.211
-647.770	-110.256	-0.185	-0.039
-646.755	285.069	0.205	-0.372
-645.741	325.471	-0.179	-0.344
-644.726	341.661	-0.162	0.318
-643.711	473.482	0.106	0.240
-642.697	73.641	-0.169	-0.178
-641.682	34.114	0.089	-0.078
-640.668	-62.676	-0.150	0.063
-639.653	-200.000	-0.009	-0.180
-638.638	169.854	0.066	-0.095
-637.624	107.496	-0.105	0.126
-636.609	-192.669	-0.076	0.001
-635.595	324.852	0.128	-0.246
-634.580	66.441	-0.118	0.121
-633.565	-34.537	0.167	0.092
-632.551	416.988	-0.036	-0.077
-631.536	51.329	-0.195	-0.187
-630.522	104.072	-0.070	0.083
-629.507	-66.116	0.223	0.089
-628.492	-200.000	-0.029	-0.215
-627.478	-117.321	0.318	0.058
-626.463	-57.059	-0.146	0.065
-625.449	800.000	-0.110	-0.398
-624.434	69.253	0.043	-0.045
-623.419	48.841	-0.246	0.232
-622.405	-44.596	0.106	-0.053
-621.390	-90.119	0.173	0.051
-620.376	-73.177	0.076	0.028
-619.361	55.754	0.112	0.109
-618.346	40.212	-0.095	0.086
-617.332	27.616	0.172	0.145
-616.317	-80.217	-0.082	0.028
-615.303	627.208	-0.053	0.135
-614.288	60.990	0.196	-0.195
-613.273	-103.752	0.134	-0.031
-612.259	-148.650	-0.273	-0.022
-611.244	-71.719	0.159	-0.059
-610.230	8.517	-0.068	0.051
-609.215	432.305	0.101	-0.220
-608.201	-200.000	-0.039	-0.250
-607.186	-128.374	-0.077	-0.011
-606.171	-98.503	-0.306	-0.079
-605.157	-47.114	-0.223	0.109
-604.142	800.000	-0.020	0.059
-603.128	-200.000	-0.012	-0.219
-602.113	-82.999	0.106	-0.034
-601.098	-115.027	-0.460	-0.088
-600.084	-200.000	-0.005	-0.191
-599.069	10.249	-0.151	0.115
-598.055	-39.842	0.037	0.019
-597.040	377.296	-0.113	-0.232
-596.025	-200.000	-0.002	0.095
-595.011	800.000	0.063	0.243
-593.996	37.794	0.136	0.122
-592.982	587.004	-0.086	0.211
-591.967	-200.000	0.065	-0.432
-590.952	-139.257	-0.139	0.015
-589.938	800.000	0.070	0.231
-588.923	197.413	0.034	0.052
-587.909	-69.219	0.104	-0.040
-586.894	-87.632	-0.170	-0.052
-585.879	-169.358	-0.273	0.010
-584.865	-200.000	0.024	0.108
-583.850	-99.054	-0.216	0.055
-582.836	-200.000	0.004	0.125
-581.821	-200.000	0.050	-0.240
-580.806	-99.808	0.235	0.059
-579.792	-106.835	0.067	0.015
-578.777	211.240	0.122	0.192
-577.763	785.884	0.144	0.397
-576.748	-200.000	0.038	-0.355
-575.733	525.254	0.100	0.237
-574.719	94.870	0.124	0.142
-573.704	103.872	-0.074	0.088
-572.690	-200.000	-0.053	-0.255
-571.675	0.924	-0.178	0.128
-570.661	-139.532	-0.068	-0.007
-569.646	-58.334	-0.051	-0.022
-568.631	266.499	-0.073	-0.128
-567.617	-126.579	0.170	-0.025
-566.602	-47.539	-0.552	0.269
-565.588	246.243	0.139	0.235
-564.573	103.631	0.091	-0.107
-563.558	710.464	-0.069	-0.184
-562.544	413.993	-0.094	-0.201
-561.529	439.621	0.203	-0.445
-560.515	-79.499	0.532	0.180
-559.500	-102.467	-0.112	-0.027
-558.485	800.000	0.053	0.159
-557.471	-138.998	-0.133	0.015
-556.456	119.848	0.116	0.144
-555.442	-88.458	-0.351	0.105
-554.427	-169.480	0.203	0.007
-553.412	496.736	-0.038	-0.087
-552.398	299.214	-0.050	0.092
-551.383	-107.082	-0.068	0.015
-550.369	-40.769	-0.179	-0.093
-549.354	-115.570	0.448	0.084
-548.339	-130.658	-0.245	0.033
-547.325	-119.026	-0.124	-0.022
-546.310	306.540	0.170	0.317
-545.296	300.824	-0.124	-0.228
-544.281	-200.000	0.007	-0.132
-543.266	800.000	0.068	0.221
-542.252	92.105	-0.250	0.283
-541.237	9.778	0.175	-0.133
-540.223	358.395	-0.056	0.112
-539.208	800.000	0.074	0.227
-538.193	-73.525	-0.081	-0.030
-537.179	66.909	0.231	-0.235
-536.164	403.439	-0.104	0.219
-535.150	-200.000	0.011	0.254
-534.135	-163.795	-0.146	0.007
-533.121	-46.023	0.369	-0.182
-532.106	-141.155	0.119	-0.012
-531.091	-120.163	0.170	0.029
-530.077	110.526	0.042	0.051
-529.062	20.745	0.231	0.187
-528.048	69.786	-0.171	-0.176
-527.033	45.490	0.043	0.039
-526.018	-15.237	-0.133	-0.085
-525.004	800.000	-0.066	-0.193
-523.989	301.045	0.061	0.113
-522.975	800.000	-0.039	-0.149
-521.960	207.771	0.016	0.025
-520.945	-200.000	-0.013	-0.371
-519.931	51.926	0.274	-0.261
-518.916	168.952	0.246	-0.350
-517.902	-141.640	-0.407	0.041
-516.887	-116.764	0.066	-0.012
-515.872	-45.527	0.172	-0.085
-514.858	-50.983	0.458	0.215
-513.843	-200.000	0.026	-0.288
-512.829	498.952	-0.093	-0.214
-511.814	-3.904	-0.057	-0.039
-510.799	440.973	-0.055	-0.120
-509.785	-153.738	0.121	-0.008
-508.770	-130.160	-0.524	0.071
-507.756	-101.184	-0.344	-0.084
-506.741	-173.834	0.259	0.008
-505.726	142.517	0.166	0.221
-504.712	96.629	-0.198	0.227
-503.697	-200.000	0.015	-0.161
-502.683	347.623	-0.029	-0.057
-501.668	-200.000	0.000	-0.139
-500.653	800.000	0.068	-0.193
-499.639	138.052	-0.017	-0.022
-498.624	-6.255	-0.371	0.254
-497.610	-151.402	-0.251	-0.019
-496.595	301.684	-0.180	0.332
-495.581	800.000	-0.056	0.197
-494.566	281.228	-0.041	-0.074
-493.551	381.949	-0.014	0.029
-492.537	-108.434	-0.171	0.037
-491.522	-26.635	0.135	-0.079
-490.508	-200.000	-0.021	0.301
-489.493	-71.082	-0.233	-0.087
-488.478	-31.681	0.056	0.031
-487.464	-13.135	0.336	0.218
-486.449	28.454	0.374	-0.316
-485.435	-61.444	-0.131	-0.055
-484.420	-200.000	-0.017	-0.216
-483.405	3.166	0.197	-0.143
-482.391	-200.000	0.001	0.201
-481.376	-6.083	-0.089	0.061
-480.362	-200.000	0.044	0.216
-479.347	-101.897	-0.402	-0.097
-478.332	-200.000	0.002	-0.110
-477.318	-200.000	-0.003	-0.303
-476.303	81.845	0.162	0.175
-475.289	56.372	-0.277	-0.269
-474.274	-165.883	-0.158	0.007
-473.259	-5.986	0.272	-0.186
-472.245	210.740	0.092	0.144
-471.230	-132.823	-0.189	0.024
-470.216	-70.010	0.088	0.034
-469.201	135.494	-0.110	-0.143
-468.186	180.039	-0.099	0.145
-467.172	-166.960	0.443	0.018
-466.157	205.391	0.182	0.283
-465.143	359.673	0.061	-0.121
-464.128	-200.000	0.009	0.153
-463.113	446.574	0.062	-0.136
-462.099	232.198	0.111	-0.182
-461.084	-126.335	0.212	-0.032
-460.070	-127.001	-0.212	-0.031
-459.055	96.632	0.081	0.093
-458.040	-34.029	-0.119	0.066
-457.026	112.248	0.144	0.174
-456.011	-24.326	0.161	-0.096
-454.997	-150.919	0.181	0.014
-453.982	-144.300	0.093	-0.009
-452.968	-37.280	0.387	-0.206
-451.953	90.963	-0.105	-0.118
-450.938	-200.000	-0.006	0.442
-449.924	218.767	0.060	-0.095
-448.909	-73.425	0.312	-0.114
-447.895	-25.195	-0.075	0.044
-446.880	-60.151	0.125	0.053
-445.865	12.782	0.212	0.164
-444.851	85.610	0.220	0.242
-443.836	388.980	0.114	0.235
-442.822	136.138	-0.064	-0.083
-441.807	339.447	-0.184	-0.358
-440.792	-98.867	-0.307	-0.078
-439.778	-120.092	0.190	0.032
-438.763	-47.786	0.265	-0.128
-437.749	-56.800	0.126	0.055
-436.734	-200.000	-0.012	0.199
-435.719	800.000	0.049	-0.209
-434.705	-58.921	-0.160	0.069
-433.690	-59.943	-0.259	-0.110
-432.676	-200.000	0.023	-0.230
-431.661	800.000	0.093	0.297
-430.646	25.838	0.308	0.256
-429.632	-105.444	0.227	-0.051
-428.617	23.014	-0.059	0.048
-427.603	-121.992	-0.217	0.036
-426.588	-51.492	0.120	0.056
-425.573	-44.491	0.292	0.146
-424.559	-110.781	-0.286	-0.059
-423.544	-84.365	0.109	-0.034
-422.530	80.451	-0.189	-0.203
-421.515	800.000	0.128	0.458
-420.500	800.000	-0.011	0.032
-419.486	800.000	-0.060	-0.176
-418.471	-102.665	0.275	-0.065
-417.457	-91.716	0.163	0.046
-416.442	40.065	-0.192	0.172
-415.428	-13.966	-0.247	0.159
-414.413	-94.670	0.188	0.051
-413.398	-74.696	-0.253	0.091
-412.384	368.458	0.102	0.206
-411.369	-126.865	-0.195	0.029
-410.355	-5.231	-0.214	-0.147
-409.340	-15.640	0.352	-0.224
-408.325	97.027	-0.252	0.288
-407.311	-96.413	-0.280	-0.074
-406.296	297.954	-0.106	-0.193
-405.282	800.000	0.043	-0.148
-404.267	134.109	0.027	0.035
-403.252	109.809	-0.255	0.304
-402.238	-200.000	0.014	-0.143
-401.223	374.610	0.048	-0.097
-400.209	6.254	0.407	0.301
-399.194	-45.516	-0.325	-0.160
-398.179	800.000	-0.071	0.231
-397.165	-111.097	0.055	-0.011
-396.150	-109.455	-0.091	-0.019
-395.136	-200.000	-0.044	-0.321
-394.121	28.863	0.279	-0.236
-393.106	-13.553	0.029	0.019
-392.092	-51.351	-0.230	-0.107
-391.077	-42.432	0.067	0.034
-390.063	-32.979	-0.136	0.075
-389.048	-124.383	0.606	-0.094
-388.033	-14.259	-0.290	-0.186
-387.019	3.210	0.341	-0.247
-386.004	47.277	-0.053	-0.049
-384.990	207.009	-0.233	0.362
-383.975	-126.842	-0.232	0.034
-382.960	-151.195	0.197	0.015
-381.946	348.452	0.164	-0.323
-380.931	-46.453	-0.045	0.022
-379.917	-68.494	-0.299	0.115
-378.902	-132.251	-0.089	-0.011
-377.888	-6.053	-0.016	-0.011
-376.873	-132.151	0.140	-0.018
-375.858	-128.116	-0.153	0.022
-374.844	-101.414	0.228	0.055
-373.829	-82.059	-0.225	-0.073
-372.815	-200.000	-0.053	-0.376
-371.800	-47.861	0.113	0.054
-370.785	251.469	0.158	0.268
-369.771	-51.082	0.259	0.121
-368.756	-5.134	-0.086	-0.059
-367.742	-96.956	-0.212	-0.055
-366.727	329.674	-0.152	-0.292
-365.712	800.000	-0.056	-0.173
-364.698	116.766	-0.146	-0.179
-363.683	-200.000	0.061	-0.294
-362.669	-27.664	0.171	0.099
-361.654	-200.000	-0.067	0.455
-360.639	35.696	-0.093	0.081
-359.625	-65.374	-0.362	0.145
-358.610	51.361	-0.139	-0.132
-357.596	-97.841	-0.268	-0.069
-356.581	471.310	-0.088	0.197
-355.566	-81.466	-0.135	0.044
-354.552	-101.821	-0.286	-0.069
-353.537	-200.000	-0.039	0.233
-352.523	-122.860	0.244	-0.039
-351.508	-112.856	0.135	0.027
-350.493	-80.465	-0.294	0.098
-349.479	-200.000	-0.023	-0.169
-348.464	-200.000	0.082	0.481
-347.450	-108.726	0.332	-0.071
-346.435	-200.000	-0.009	-0.433
-345.420	7.779	-0.125	0.093
-344.406	142.468	0.141	-0.187
-343.391	-83.847	0.283	0.090
-342.377	800.000	-0.051	-0.170
-341.362	446.574	0.034	-0.075
-340.348	800.000	-0.085	-0.253
-339.333	171.391	-0.060	0.085
-338.318	-19.611	0.206	0.127
-337.304	148.473	-0.026	-0.034
-336.289	-68.094	-0.264	0.102
-335.275	229.035	-0.166	0.269
-334.260	194.036	0.288	-0.433
-333.245	52.529	0.331	0.314
-332.231	-200.000	-0.003	0.291
-331.216	-195.164	-0.116	-0.001
-330.202	-106.555	0.075	-0.017
-329.187	-129.863	-0.229	0.031
-328.172	187.059	-0.107	0.158
-327.158	172.105	-0.094	-0.134
-326.143	759.689	0.094	0.253
-325.129	-78.709	0.298	-0.101
-324.114	191.135	-0.079	-0.119
-323.099	307.771	-0.055	-0.103
-322.085	45.916	0.091	0.083
-321.070	-133.310	-0.342	0.043
-320.056	-87.032	-0.326	-0.099
-319.041	-89.653	0.262	0.076
-318.026	214.415	0.213	0.334
-317.012	171.394	0.167	-0.237
-315.997	800.000	0.020	0.083
-314.983	197.170	0.187	0.283
-313.968	-135.908	0.298	0.035
-312.953	-200.000	-0.028	-0.384
-311.939	22.641	-0.074	-0.060
-310.924	-200.000	0.000	0.170
-309.910	763.034	0.031	0.085
-308.895	124.873	-0.259	-0.324
-307.880	182.760	-0.154	0.226
-306.866	37.367	0.174	0.153
-305.851	-200.000	-0.009	0.060
-304.837	-149.536	-0.070	0.006
-303.822	-200.000	-0.002	-0.070
-302.807	-97.050	0.159	0.041
-301.793	236.264	0.138	-0.227
-300.778	130.415	0.043	0.055
-299.764	-200.000	0.013	-0.333
-298.749	-167.011	0.118	0.005
-297.735	-200.000	0.014	0.185
-296.720	-35.712	-0.031	-0.017
-295.705	-132.855	-0.182	0.023
-294.691	-112.956	-0.368	0.072
-293.676	-200.000	0.033	0.213
-292.662	265.089	0.075	0.129
-291.647	16.545	0.368	-0.288
-290.632	-145.376	0.068	-0.006
-289.618	19.309	-0.107	-0.086
-288.603	-200.000	-0.012	0.056
-287.589	-52.120	0.353	-0.162
-286.574	-200.000	-0.242	0.001
-285.559	107.546	0.030	0.035
-284.545	-42.950	0.373	0.188
-283.530	200.604	0.132	0.201
-282.516	800.000	0.062	-0.190
-281.501	603.394	-0.147	-0.364
-280.486	126.462	0.059	0.075
-279.472	438.776	0.100	0.216
-278.457	800.000	0.022	0.085
-277.443	-98.934	0.055	-0.014
-276.428	89.986	-0.178	-0.197
-275.413	-54.434	0.132	-0.059
-274.399	800.000	-0.070	0.250
-273.384	800.000	0.043	-0.140
-272.370	-37.657	0.099	0.052
-271.355	213.001	-0.010	0.016
-270.340	484.326	-0.106	-0.238
-269.326	26.458	-0.128	0.106
-268.311	-118.736	-0.100	-0.017
-267.297	10.350	-0.189	0.143
-266.282	-200.000	-0.049	0.295
-265.267	-53.746	-0.426	0.193
-264.253	-161.658	0.272	-0.014
-263.238	-200.000	0.049	-0.257
-262.224	150.259	-0.235	-0.315
-261.209	-99.395	-0.045	0.011
-260.195	-200.000	0.044	-0.197
-259.180	-107.504	-0.053	-0.012
-258.165	-200.000	0.009	-0.132
-257.151	-200.000	-0.031	0.227
-256.136	-200.000	0.037	-0.164
-255.122	800.000	0.123	0.511
-254.107	800.000	-0.055	0.217
-253.092	-136.114	0.112	-0.013
-252.078	154.236	0.108	-0.147
-251.063	-111.799	-0.116	0.023
-250.049	-67.054	-0.285	0.111
-249.034	-200.000	-0.095	-0.000
-248.019	288.202	0.187	-0.336
-247.005	-200.000	-0.000	-0.035
-245.990	-200.000	0.253	-0.001
-244.976	-26.144	-0.213	-0.124
-243.961	-200.000	0.023	0.169
-242.946	470.560	0.129	-0.287
-241.932	-172.377	0.175	0.006
-240.917	-200.000	0.518	-0.000
-239.903	597.214	-0.072	-0.178
-238.888	-200.000	-0.002	-0.183
-237.873	-200.000	-0.047	-0.303
-236.859	64.479	-0.154	0.153
-235.844	-52.885	-0.283	0.129
-234.830	61.807	0.034	-0.033
-233.815	75.076	0.194	-0.202
-232.800	-200.000	-0.009	-0.058
-231.786	800.000	0.045	0.189
-230.771	-32.985	0.092	0.051
-229.757	-200.000	0.057	0.374
-228.742	-123.350	0.121	-0.019
-227.727	-72.184	0.266	-0.097
-226.713	-64.966	-0.221	-0.088
-225.698	-82.588	0.337	-0.108
-224.684	122.135	0.127	-0.156
-223.669	-120.207	0.127	0.021
-222.655	25.076	0.202	-0.166
-221.640	8.331	-0.089	-0.066
-220.625	289.753	-0.090	0.161
-219.611	-200.000	-0.001	-0.136
-218.596	-109.843	-0.201	0.042
-217.582	-81.900	-0.322	-0.104
-216.567	-56.592	-0.308	0.135
-215.552	-122.290	-0.334	0.054
-214.538	9.106	-0.149	-0.111
-213.523	-51.337	0.094	-0.043
-212.509	372.587	-0.062	0.124
-211.494	-144.802	0.162	0.015
-210.479	89.343	0.203	0.223
-209.465	-91.240	0.197	0.056
-208.450	-200.000	0.048	0.335
-207.436	-54.915	0.096	-0.043
-206.421	84.502	-0.083	-0.090
-205.406	800.000	0.062	0.229
-204.392	-0.321	-0.254	0.178
-203.377	-176.120	-0.199	-0.005
-202.363	-200.000	0.043	-0.228
-201.348	240.991	-0.159	0.262
-200.333	232.885	0.055	0.089
-199.319	800.000	0.049	-0.145
-198.304	240.031	0.066	0.109
-197.290	-19.003	0.137	0.084
-196.275	-200.000	-0.051	-0.257
-195.260	-130.784	-0.444	0.059
-194.246	187.238	0.061	0.090
-193.231	-200.000	0.111	-0.000
-192.217	28.459	0.111	-0.093
-191.202	58.600	-0.115	-0.111
-190.187	800.000	-0.065	0.236
-189.173	-31.729	0.098	-0.054
-188.158	373.571	-0.059	0.118
-187.144	-91.974	-0.075	0.021
-186.129	-50.925	-0.204	0.095
-185.114	-16.994	0.110	-0.068
-184.100	-200.000	-0.038	-0.169
-183.085	352.769	-0.050	0.098
-182.071	-83.682	0.076	-0.024
-181.056	569.089	0.115	0.275
-180.042	-116.444	-0.359	-0.065
-179.027	95.451	-0.035	0.040
-178.012	85.699	-0.105	0.114
-176.998	-176.197	0.228	-0.006
-175.983	-1.149	-0.271	0.189
-174.969	74.148	0.235	-0.244
-173.954	-54.088	-0.022	-0.010
-172.939	800.000	0.085	0.239
-171.925	-14.116	0.147	0.094
-170.910	-113.708	0.191	0.037
-169.896	-95.157	-0.170	0.045
-168.881	29.078	-0.049	-0.041
-167.866	-7.490	0.163	0.109
-166.852	-105.216	-0.208	0.047
-165.837	-154.309	-0.280	-0.019
-164.823	113.813	-0.150	0.180
-163.808	800.000	-0.033	-0.121
-162.793	119.698	0.103	0.126
-161.779	-160.430	-0.188	-0.010
-160.764	-200.000	0.093	0.480
-159.750	800.000	0.056	0.189
-158.735	-141.567	0.084	0.008
-157.720	563.248	0.067	-0.159
-156.706	800.000	-0.115	-0.451
-155.691	66.186	0.121	0.121
-154.677	259.568	-0.135	-0.231
-153.662	-132.170	0.141	0.018
-152.647	-123.015	0.242	0.038
-151.633	-200.000	-0.005	-0.379
-150.618	-144.781	-0.280	0.025
-149.604	-200.000	-0.010	0.330
-148.589	-200.000	-0.019	-0.141
-147.574	-73.764	-0.298	-0.107
-146.560	-200.000	-0.004	0.030
-145.545	34.389	-0.062	0.053
-144.531	-65.659	-0.068	-0.027
-143.516	-33.567	0.216	-0.118
-142.502	152.759	-0.074	0.100
-141.487	-200.000	-0.033	-0.293
-140.472	102.796	0.070	-0.081
-139.458	-105.840	-0.109	-0.024
-138.443	-200.000	0.011	0.196
-137.429	-59.715	-0.042	0.018
-136.414	800.000	-0.153	0.421
-135.399	211.862	0.176	-0.273
-134.385	283.773	0.091	-0.161
-133.370	-161.675	-0.014	0.001
-132.356	-200.000	-0.006	-0.224
-131.341	-200.000	0.004	0.328
-130.326	-1.043	-0.057	0.040
-129.312	135.700	-0.010	0.012
-128.297	-200.000	-0.037	-0.403
-127.283	800.000	0.080	0.218
-126.268	49.442	-0.079	0.074
-125.253	-1.202	-0.065	-0.045
-124.239	589.728	0.150	0.366
-123.224	-136.230	-0.223	-0.026
-122.210	-60.948	0.388	0.162
-121.195	-101.960	-0.160	0.038
-120.180	-83.435	0.021	-0.007
-119.166	-200.000	0.071	-0.387
-118.151	-183.846	-0.153	0.003
-117.137	-200.000	0.014	-0.261
-116.122	17.912	0.165	0.129
-115.107	-97.716	0.077	0.020
-114.093	-114.016	-0.145	0.028
-113.078	800.000	0.058	0.222
-112.064	-6.661	-0.192	-0.129
-111.049	-200.000	-0.017	0.243
-110.034	-98.142	-0.152	-0.039
-109.020	37.799	0.230	-0.201
-108.005	124.817	0.232	-0.287
-106.991	-104.278	-0.228	-0.052
-105.976	-200.000	0.010	0.059
-104.962	-6.926	0.252	-0.169
-103.947	349.208	-0.010	0.020
-102.932	-140.464	0.281	0.029
-101.918	-200.000	-0.030	0.406
-100.903	-64.646	0.190	-0.076
-99.889	-105.467	0.112	-0.025
-98.874	-200.000	0.005	-0.311
-97.859	-18.808	-0.152	0.093
-96.845	-157.825	0.216	0.013
-95.830	69.440	0.295	0.298
-94.816	36.135	0.131	-0.113
-93.801	-200.000	-0.026	-0.135
-92.786	-200.000	-0.003	0.127
-91.772	-200.000	-0.008	-0.043
-90.757	84.081	0.121	0.130
-89.743	-200.000	-0.027	-0.212
-88.728	-75.956	-0.049	0.017
-87.713	-178.949	0.540	-0.012
-86.699	51.938	0.089	0.083
-85.684	294.835	0.016	-0.029
-84.670	-200.000	-0.036	-0.195
-83.655	-150.987	0.260	-0.019
-82.640	37.200	-0.017	0.015
-81.626	-200.000	-0.063	0.517
-80.611	-115.487	0.167	-0.031
-79.597	176.384	-0.062	-0.089
-78.582	-138.480	0.196	0.021
-77.567	-200.000	0.072	0.377
-76.553	124.641	0.172	0.213
-75.538	-200.000	0.038	-0.311
-74.524	800.000	0.057	0.163
-73.509	-129.100	0.416	0.057
-72.494	169.722	-0.267	-0.375
-71.480	23.340	0.172	0.139
-70.465	24.800	0.153	0.124
-69.451	215.482	0.069	-0.107
-68.436	292.135	0.113	-0.203
-67.422	231.085	-0.212	0.341
-66.407	-3.969	0.189	-0.129
-65.392	526.334	0.062	0.144
-64.378	199.857	-0.085	-0.128
-63.363	-200.000	0.054	0.279
-62.349	123.676	0.066	0.081
-61.334	82.153	-0.899	-0.958
-60.319	-32.087	0.543	0.299
-59.305	800.000	-0.312	-0.860
-58.290	394.346	0.367	0.752
-57.276	800.000	0.469	1.739
-56.261	-200.000	95.462	592.027
-55.246	667.401	1369.027	3478.036
-54.232	199.163	2550.898	3841.034
-53.217	114.706	2267.977	2716.565
-52.203	41.882	1896.005	1689.515
-51.188	35.579	1686.093	1454.858
-50.173	32.847	1642.123	1396.673
-49.159	50.256	1687.981	1566.577
-48.144	52.063	1703.766	1594.700
-47.130	35.134	1666.068	1434.022
-46.115	32.313	1651.751	1400.664
-45.100	32.322	1645.941	1395.749
-44.086	32.223	1643.808	1393.150
-43.071	32.164	1641.087	1390.356
-42.057	32.144	1638.995	1388.378
-41.042	32.115	1636.957	1386.385
-40.027	32.216	1635.184	1385.570
-39.013	32.110	1632.927	1382.827
-37.998	32.090	1631.688	1381.575
-36.984	32.162	1630.216	1380.798
-35.969	32.215	1628.979	1380.089
-34.954	32.240	1626.969	1378.513
-33.940	32.276	1624.582	1376.703
-32.925	32.256	1623.803	1375.837
-31.911	32.248	1622.153	1374.326
-30.896	32.212	1620.393	1372.515
-29.881	32.366	1618.312	1371.822
-28.867	32.328	1616.424	1369.893
-27.852	32.184	1615.796	1368.260
-26.838	32.263	1613.879	1367.154
-25.823	32.352	1612.616	1366.677
-24.809	32.356	1610.883	1365.180
-23.794	32.264	1609.920	1363.643
-22.779	32.222	1608.805	1362.340
-21.765	32.335	1606.283	1360.973
-20.750	32.386	1604.826	1360.054
-19.736	32.346	1603.508	1358.589
-18.721	32.363	1602.415	1357.735
-17.706	32.338	1600.937	1356.246
-16.692	32.293	1599.232	1354.426
-15.677	32.305	1598.238	1353.617
-14.663	32.375	1596.254	1352.382
-13.648	32.339	1594.755	1350.807
-12.633	32.351	1593.331	1349.632
-11.619	32.355	1591.749	1348.265
-10.604	32.293	1590.635	1346.822
-9.590	32.348	1589.323	1346.051
-8.575	32.297	1588.148	1344.637
-7.560	32.384	1586.594	1343.894
-6.546	32.292	1585.777	1342.487
-5.531	32.268	1584.630	1341.290
-4.517	32.327	1583.290	1340.527
-3.502	32.366	1582.160	1339.793
-2.487	32.475	1580.228	1338.879
-1.473	32.167	1568.578	1326.784
-0.458	29.385	1549.611	1291.242
0.556	25.426	1550.277	1259.383
1.571	23.131	1573.025	1261.406
2.586	22.637	1585.738	1267.935
3.600	20.149	1532.385	1207.853
4.615	12.276	1424.627	1071.625
5.629	5.684	1362.209	983.320
6.644	4.776	1354.374	971.915
7.659	4.554	1353.431	969.767
8.673	4.571	1352.380	969.031
9.688	4.619	1350.174	967.662
10.702	4.501	1347.666	965.047
11.717	7.469	1353.206	987.421
12.731	14.933	1367.163	1044.278
13.746	19.577	1373.607	1078.174
14.761	19.218	1371.878	1074.483
15.775	18.124	1369.136	1065.424
16.790	16.990	1366.519	1056.236
17.804	16.165	1364.240	1049.256
18.819	15.827	1362.635	1045.827
19.834	15.634	1361.347	1043.549
20.848	15.420	1360.119	1041.187
21.863	15.179	1358.914	1038.675
22.877	15.172	1357.778	1037.675
23.892	14.963	1357.246	1035.879
24.907	14.994	1356.031	1035.051
25.921	15.022	1355.019	1034.362
26.936	14.975	1354.737	1033.763
27.950	15.029	1353.722	1033.237
28.965	15.100	1352.488	1032.640
29.980	15.211	1351.575	1032.532
30.994	15.385	1350.127	1032.407
32.009	15.287	1348.980	1030.838
33.023	15.293	1347.909	1029.963
34.038	15.339	1346.190	1028.841
35.053	15.227	1345.254	1027.350
36.067	15.229	1344.115	1026.401
37.082	15.247	1343.023	1025.583
38.096	15.168	1342.685	1024.756
39.111	15.125	1342.095	1023.948
40.126	15.225	1340.393	1023.170
41.140	15.027	1339.899	1021.494
42.155	14.913	1339.283	1020.239
43.169	14.851	1339.376	1019.843
44.184	14.950	1338.771	1019.896
45.199	14.898	1338.267	1019.104
46.213	14.958	1337.640	1018.899
47.228	15.067	1337.265	1019.187
48.242	15.171	1335.810	1018.623
49.257	15.111	1334.057	1016.833
50.271	15.025	1333.271	1015.622
51.286	15.202	1331.436	1015.205
52.301	15.152	1329.826	1013.588
53.315	15.045	1329.442	1012.555
54.330	14.917	1328.386	1010.888
55.344	14.923	1327.120	1009.872
56.359	15.011	1325.776	1009.290
57.374	14.909	1325.461	1008.348
58.388	14.885	1324.143	1007.112
59.403	14.775	1323.951	1006.210
60.417	14.942	1322.953	1006.367
61.432	14.865	1322.075	1005.150
62.447	14.804	1320.804	1003.726
63.461	14.813	1319.982	1003.065
64.476	14.841	1318.874	1002.304
65.490	14.758	1317.815	1000.916
66.505	14.693	1316.083	999.123
67.520	14.788	1315.288	998.996
68.534	14.823	1314.149	998.253
69.549	14.898	1313.158	997.862
70.563	14.869	1312.354	996.990
71.578	14.767	1310.693	995.032
72.593	14.770	1309.564	994.103
73.607	14.623	1309.701	993.246
74.622	14.611	1308.351	992.062
75.636	14.623	1307.928	991.725
76.651	14.691	1307.116	991.425
77.666	14.750	1307.010	991.604
78.680	14.732	1306.373	990.926
79.695	14.914	1305.586	991.324
80.709	14.828	1304.917	990.218
81.724	14.866	1304.275	989.865
82.739	14.999	1303.143	989.708
83.753	15.041	1302.446	989.336
84.768	15.101	1301.111	988.593
85.782	15.231	1300.069	988.480
86.797	15.204	1298.714	987.205
87.812	15.113	1297.727	985.826
88.826	15.029	1296.981	984.678
89.841	15.154	1295.533	984.226
90.855	15.163	1295.050	983.829
91.870	15.225	1293.432	982.875
92.884	15.235	1292.978	982.504
93.899	15.204	1292.368	981.769
94.914	15.324	1291.240	981.529
95.928	15.233	1290.850	980.615
96.943	15.236	1289.579	979.578
97.957	15.247	1288.709	978.894
98.972	15.123	1287.876	977.450
99.987	15.253	1286.327	976.949
101.001	15.196	1285.354	975.790
102.016	15.210	1284.533	975.159
103.030	15.213	1283.611	974.393
104.045	15.148	1283.133	973.563
105.060	15.062	1281.573	971.799
106.074	14.952	1280.377	970.167
107.089	14.893	1279.174	968.828
108.103	14.868	1277.736	967.506
109.118	14.790	1276.811	966.272
110.133	14.812	1275.153	965.057
111.147	14.838	1273.721	964.035
112.162	14.848	1272.204	962.863
113.176	15.000	1271.351	963.008
114.191	15.012	1269.972	961.948
115.206	15.097	1269.542	962.023
116.220	14.937	1268.124	959.943
117.235	14.980	1266.597	958.952
118.249	14.902	1265.636	957.690
119.264	14.908	1264.930	957.109
120.279	14.906	1263.450	955.889
121.293	14.864	1262.615	954.935
122.308	14.815	1261.462	953.701
123.322	14.760	1260.917	952.890
124.337	14.887	1259.134	952.179
125.352	14.782	1258.618	951.110
126.366	14.848	1257.081	950.237
127.381	14.701	1256.587	948.945
128.395	14.870	1254.990	948.614
129.410	14.847	1254.461	947.999
130.424	14.826	1253.914	947.385
131.439	14.922	1252.486	946.765
132.454	15.083	1251.504	946.848
133.468	15.009	1250.959	945.934
134.483	15.022	1250.171	945.326
135.497	15.052	1249.394	944.829
136.512	14.935	1248.201	943.180
137.527	15.052	1246.526	942.491
138.541	14.918	1245.150	940.613
139.556	15.065	1243.807	940.342
140.570	15.113	1243.195	940.066
141.585	15.225	1241.615	939.416
142.600	15.155	1240.986	938.463
143.614	15.398	1239.748	938.803
144.629	15.290	1239.230	937.724
145.643	15.236	1238.257	936.604
146.658	15.221	1236.445	935.065
147.673	15.117	1235.269	933.517
148.687	15.011	1234.323	932.129
149.702	14.992	1232.871	930.844
150.716	15.021	1231.798	930.110
151.731	15.079	1230.262	929.192
152.746	15.077	1229.184	928.286
153.760	15.030	1228.260	927.245
154.775	15.081	1227.056	926.537
155.789	15.233	1226.065	926.544
156.804	15.239	1225.067	925.740
157.819	15.295	1223.592	924.857
158.833	15.269	1223.198	924.331
159.848	15.313	1222.417	923.900
160.862	15.402	1220.911	923.173
161.877	15.199	1219.746	921.091
162.892	15.167	1219.099	920.345
163.906	15.122	1218.253	919.379
164.921	15.110	1217.711	918.823
165.935	15.161	1216.172	917.859
166.950	15.263	1215.794	918.051
167.964	15.241	1215.067	917.303
168.979	15.251	1214.262	916.669
169.994	15.285	1213.669	916.326
171.008	15.274	1212.983	915.667
172.023	15.382	1211.799	915.279
173.037	15.468	1211.389	915.356
174.052	15.420	1210.315	914.203
175.067	15.260	1209.195	912.408
176.081	15.198	1208.322	911.331
177.096	15.167	1207.709	910.616
178.110	15.212	1206.563	909.916
179.125	15.254	1205.273	909.091
180.140	15.431	1203.839	908.888
181.154	15.334	1203.290	907.870
182.169	15.370	1201.469	906.608
183.183	15.437	1200.532	906.187
184.198	15.524	1199.391	905.715
185.213	15.578	1198.288	905.090
186.227	15.504	1197.285	903.855
187.242	15.523	1196.552	903.323
188.256	15.710	1195.314	903.311
189.271	15.636	1194.549	902.261
190.286	15.465	1193.128	900.187
191.300	15.408	1191.992	898.945
192.315	15.268	1191.410	897.678
193.329	15.256	1190.805	897.076
194.344	15.370	1190.294	897.223
195.359	15.376	1189.810	896.811
196.373	15.417	1190.003	897.096
197.388	15.462	1189.317	896.741
198.402	15.570	1188.858	896.890
199.417	15.731	1187.951	896.986
200.432	15.819	1187.170	896.784
201.446	15.769	1186.372	895.840
202.461	15.873	1185.309	895.509
203.475	15.950	1184.262	895.046
204.490	15.970	1182.842	894.003
205.504	15.716	1181.844	891.822
206.519	15.644	1180.728	890.517
207.534	15.793	1179.000	889.927
208.548	15.757	1178.508	889.287
209.563	15.695	1177.942	888.453
210.577	15.663	1177.112	887.580
211.592	15.730	1176.540	887.422
212.607	15.934	1175.357	887.526
213.621	15.903	1174.633	886.739
214.636	15.774	1174.059	885.548
215.650	15.886	1173.111	885.345
216.665	15.941	1172.055	884.754
217.680	15.892	1171.445	883.963
218.694	15.980	1170.622	883.721
219.709	15.993	1169.793	883.088
220.723	15.938	1169.193	882.266
221.738	15.963	1168.323	881.662
222.753	16.047	1167.036	881.054
223.767	16.080	1166.717	880.905
224.782	16.137	1166.312	880.821
225.796	16.189	1165.561	880.447
226.811	16.061	1164.530	878.925
227.826	16.064	1164.448	878.798
228.840	16.127	1163.030	877.979
229.855	16.085	1162.205	877.060
230.869	16.090	1162.028	876.874
231.884	15.994	1160.874	875.428
232.899	15.969	1160.255	874.757
233.913	15.943	1159.685	874.114
234.928	15.959	1158.769	873.428
235.942	16.036	1157.792	873.012
236.957	16.030	1156.926	872.254
237.972	15.967	1156.405	871.456
238.986	16.096	1155.843	871.621
240.001	16.127	1154.748	870.881
241.015	16.110	1153.923	870.090
242.030	16.019	1153.465	869.199
243.045	16.206	1152.295	869.207
244.059	16.191	1151.908	868.761
245.074	16.186	1150.867	867.873
246.088	16.211	1150.582	867.707
247.103	16.344	1149.770	867.704
248.117	16.360	1148.651	866.863
249.132	16.467	1148.103	866.921
250.147	16.520	1147.730	866.837
251.161	16.577	1146.806	866.351
252.176	16.560	1146.058	865.624
253.190	16.677	1145.651	865.836
254.205	16.709	1145.325	865.680
255.220	16.726	1144.504	865.071
256.234	16.650	1143.891	864.140
257.249	16.803	1143.121	864.265
258.263	16.687	1142.988	863.493
259.278	16.778	1141.791	862.975
260.293	16.683	1141.258	862.013
261.307	16.721	1141.007	861.941
262.322	16.797	1140.038	861.523
263.336	16.882	1139.398	861.391
264.351	16.850	1138.725	860.643
265.366	16.880	1138.021	860.188
266.380	16.835	1137.209	859.272
267.395	16.883	1136.548	858.939
268.409	16.813	1135.675	857.849
269.424	16.840	1134.865	857.298
270.439	16.672	1134.800	856.321
271.453	16.742	1133.611	855.704
272.468	16.693	1132.886	854.833
273.482	16.781	1132.186	854.674
274.497	16.747	1131.535	853.935
275.512	16.843	1130.901	853.866
276.526	16.759	1130.202	852.838
277.541	16.820	1129.139	852.270
278.555	16.847	1128.517	851.858
279.570	16.888	1127.815	851.457
280.585	17.015	1127.304	851.634
281.599	17.060	1125.724	850.589
282.614	16.985	1125.116	849.681
283.628	16.975	1124.147	848.827
284.643	16.843	1123.471	847.578
285.657	16.867	1122.694	847.038
286.672	16.992	1121.177	846.443
287.687	16.993	1120.346	845.743
288.701	17.001	1119.909	845.378
289.716	16.970	1119.367	844.741
290.730	17.010	1118.294	844.055
291.745	17.083	1117.542	843.775
292.760	17.055	1117.074	843.209
293.774	17.122	1116.475	843.013
294.789	17.226	1115.974	843.078
295.803	17.167	1115.577	842.414
296.818	17.068	1114.674	841.162
297.833	17.126	1113.860	840.764
298.847	17.017	1113.192	839.646
299.862	17.218	1112.007	839.671
300.876	17.169	1111.846	839.230
301.891	17.204	1111.192	838.836
302.906	17.382	1110.270	838.943
303.920	17.298	1109.655	837.994
304.935	17.319	1109.414	837.841
305.949	17.497	1108.091	837.641
306.964	17.570	1107.585	837.545
307.979	17.418	1107.033	836.304
308.993	17.301	1106.392	835.172
310.008	17.408	1105.638	835.055
311.022	17.458	1104.730	834.540
312.037	17.455	1104.227	834.073
313.052	17.394	1103.279	832.981
314.066	17.281	1102.010	831.397
315.081	17.269	1100.972	830.482
316.095	17.252	1100.864	830.245
317.110	17.253	1099.832	829.399
318.125	17.346	1098.988	829.141
319.139	17.172	1098.867	828.128
320.154	17.259	1097.478	827.434
321.168	17.231	1097.667	827.367
322.183	17.295	1096.351	826.611
323.197	17.323	1095.743	826.215
324.212	17.435	1095.298	826.352
325.227	17.317	1094.962	825.450
326.241	17.394	1094.464	825.377
327.256	17.337	1093.388	824.214
328.270	17.446	1092.403	823.930
329.285	17.390	1091.582	822.968
330.300	17.536	1090.007	822.410
331.314	17.389	1089.501	821.248
332.329	17.436	1089.146	821.133
333.343	17.491	1088.215	820.621
334.358	17.604	1087.065	820.228
335.373	17.596	1086.487	819.680
336.387	17.520	1086.265	819.074
337.402	17.661	1085.231	818.899
338.416	17.517	1085.167	818.090
339.431	17.653	1083.924	817.732
340.446	17.728	1083.555	817.740
341.460	17.853	1082.518	817.483
342.475	17.859	1082.004	817.053
343.489	17.957	1080.727	816.484
344.504	17.944	1079.988	815.789
345.519	17.993	1078.979	815.190
346.533	18.057	1078.141	814.791
347.548	17.935	1077.836	813.908
348.562	18.000	1077.073	813.566
349.577	17.815	1076.531	812.207
350.592	17.840	1075.181	811.236
351.606	17.964	1074.297	811.083
352.621	17.777	1074.088	809.966
353.635	17.700	1073.651	809.201
354.650	17.828	1072.325	808.736
355.665	17.925	1071.914	808.813
356.679	17.955	1071.240	808.376
357.694	17.897	1070.836	807.723
358.708	17.953	1070.198	807.435
359.723	17.975	1069.353	806.834
360.738	17.915	1068.854	806.101
361.752	17.972	1068.333	805.907
362.767	18.081	1067.581	805.779
363.781	18.052	1067.216	805.299
364.796	17.982	1067.054	804.773
365.810	18.159	1066.200	804.894
366.825	18.172	1065.532	804.379
367.840	18.216	1065.422	804.432
368.854	18.393	1064.373	804.398
369.869	18.354	1063.732	803.662
370.883	18.325	1062.722	802.690
371.898	18.170	1061.941	801.301
372.913	18.324	1061.866	801.899
373.927	18.264	1061.116	800.980
374.942	18.466	1060.063	801.059
375.956	18.227	1059.783	799.655
376.971	18.177	1059.792	799.361
377.986	18.443	1058.498	799.554
379.000	18.519	1058.067	799.515
380.015	18.492	1057.457	798.857
381.029	18.602	1056.436	798.524
382.044	18.464	1056.342	797.739
383.059	18.540	1055.522	797.407
384.073	18.485	1054.831	796.555
385.088	18.575	1053.633	796.000
386.102	18.508	1053.520	795.532
387.117	18.486	1052.037	794.242
388.132	18.477	1050.769	793.170
389.146	18.370	1050.577	792.461
390.161	18.319	1050.061	791.765
391.175	18.426	1048.947	791.350
392.190	18.475	1048.287	791.009
393.205	18.615	1047.329	790.862
394.219	18.558	1046.845	790.161
395.234	18.436	1045.927	788.839
396.248	18.602	1044.590	788.522
397.263	18.489	1044.009	787.496
398.278	18.447	1043.161	786.594
399.292	18.457	1042.668	786.196
400.307	18.422	1041.902	785.392
401.321	18.457	1041.302	785.031
402.336	18.360	1040.434	783.861
403.350	18.438	1039.878	783.728
404.365	18.495	1039.081	783.323
405.380	18.547	1038.463	783.023
406.394	18.626	1037.786	782.805
407.409	18.712	1036.880	782.444
408.423	18.680	1036.613	782.027
409.438	18.776	1036.100	782.005
410.453	18.886	1035.068	781.658
411.467	18.694	1034.722	780.454
412.482	18.899	1033.614	780.482
413.496	19.034	1032.945	780.522
414.511	19.070	1032.483	780.267
415.526	19.106	1032.238	780.174
416.540	19.058	1031.660	779.452
417.555	19.058	1031.251	779.075
418.569	18.968	1030.738	778.212
419.584	18.991	1029.807	777.540
420.599	19.030	1029.625	777.510
421.613	150.959	1400.609	1793.689
422.628	137.716	1454.644	1793.782
