DTS Sentinel unit serial number:	SN413079Multiplexer serial number:	ORYXHardware model number:	OX4-SRSoftware version number:	ORYX F/W v4.00 Oryx Data Collector v3.7.2.0data status	okinstallation	princeton_trtdifferential loss correction	single-endedforward channel	channel 2reverse channel	N/Adate	2019/09/15time	05:11:35forward acquisition time	60.00reverse acquisition time	0.00gamma	496.2192k internal	0.2326k external	0.2326temperature offset calibration	1.0035default loss term (dB/km)	0.3790temperature slope calibration	1.0000multiplexer offset coefficient	1.0000multiplexer slope coefficient	1.0000fibre end	0.00T internal ref (°C)	30.62T ext. ref 1 (°C)	4.78T ext. ref 2 (°C)	25.32length (m)	temperature (°C)	Stokes	anti-Stokes-747.200	423.704	0.062	-0.134
-746.185	81.939	-0.143	-0.157
-745.171	86.917	0.111	-0.124
-744.156	-200.000	0.000	-0.070
-743.142	-30.739	0.204	0.116
-742.127	-73.918	-0.233	0.085
-741.112	187.056	0.173	0.259
-740.098	102.817	0.129	0.153
-739.083	86.882	-0.130	-0.145
-738.069	800.000	-0.013	0.042
-737.054	-10.931	-0.284	-0.189
-736.039	-200.000	-0.029	0.241
-735.025	-77.727	-0.399	-0.139
-734.010	-139.579	0.149	-0.016
-732.996	-55.086	-0.274	-0.124
-731.981	326.401	-0.202	-0.390
-730.966	-54.332	-0.144	-0.066
-729.952	412.736	-0.117	-0.251
-728.937	-122.721	-0.357	0.058
-727.923	-200.000	-0.014	0.075
-726.908	773.779	-0.032	-0.087
-725.894	-139.616	-0.378	-0.041
-724.879	523.402	0.099	-0.235
-723.864	545.607	-0.049	0.119
-722.850	-180.222	-0.241	-0.005
-721.835	-88.784	-0.266	0.080
-720.821	195.213	-0.210	-0.321
-719.806	-37.763	-0.127	0.068
-718.791	514.661	0.121	-0.285
-717.777	-29.641	0.146	-0.084
-716.762	-12.598	0.343	-0.225
-715.748	-7.186	-0.253	-0.173
-714.733	-200.000	-0.000	-0.179
-713.718	-40.580	0.219	0.114
-712.704	-22.534	-0.119	0.072
-711.689	-125.155	-0.160	-0.025
-710.675	124.712	0.187	-0.237
-709.660	-200.000	-0.007	-0.141
-708.645	-19.910	-0.223	0.139
-707.631	-200.000	0.003	0.221
-706.616	29.750	-0.078	-0.067
-705.602	91.201	-0.144	-0.163
-704.587	576.920	-0.085	-0.209
-703.572	603.119	0.099	-0.248
-702.558	5.203	-0.523	-0.388
-701.543	473.478	0.036	0.082
-700.529	-85.802	-0.226	0.071
-699.514	2.503	0.170	-0.124
-698.499	800.000	0.027	-0.114
-697.485	202.447	0.269	-0.418
-696.470	-58.021	-0.050	-0.022
-695.456	-200.000	0.026	-0.161
-694.441	54.369	-0.151	0.146
-693.426	105.677	-0.089	-0.105
-692.412	64.273	-0.098	0.099
-691.397	-200.000	0.058	-0.304
-690.383	4.046	-0.097	-0.071
-689.368	-51.162	-0.187	0.088
-688.354	105.161	0.034	0.041
-687.339	-119.830	0.099	0.017
-686.324	-28.887	-0.293	-0.170
-685.310	141.825	-0.214	0.286
-684.295	795.160	-0.064	0.177
-683.281	-200.000	-0.010	0.203
-682.266	-156.585	-0.182	-0.011
-681.251	406.018	-0.126	-0.267
-680.237	-40.638	-0.018	0.010
-679.222	378.810	-0.107	0.221
-678.208	-200.000	-0.022	0.497
-677.193	65.958	0.052	-0.053
-676.178	49.559	0.120	-0.114
-675.164	-200.000	-0.024	0.120
-674.149	-67.511	-0.307	-0.121
-673.135	-200.000	0.010	-0.192
-672.120	113.771	0.166	-0.202
-671.105	800.000	-0.030	-0.112
-670.091	6.082	-0.271	0.202
-669.076	-34.115	0.228	0.126
-668.062	800.000	-0.047	-0.176
-667.047	-136.191	-0.215	0.025
-666.032	-200.000	-0.008	0.270
-665.018	-81.215	-0.073	-0.024
-664.003	-200.000	-0.008	-0.184
-662.989	19.912	-0.073	0.060
-661.974	333.539	-0.061	0.118
-660.959	-95.453	0.318	0.086
-659.945	-42.950	0.296	-0.151
-658.930	-200.000	-0.037	-0.323
-657.916	12.357	0.141	-0.109
-656.901	-200.000	-0.010	0.150
-655.886	-102.418	-0.083	-0.020
-654.872	-200.000	0.027	-0.303
-653.857	31.548	-0.137	-0.118
-652.843	-200.000	0.020	-0.120
-651.828	-111.063	-0.312	-0.064
-650.814	32.074	-0.155	-0.134
-649.799	54.095	-0.266	-0.257
-648.784	-76.983	-0.131	0.046
-647.770	31.559	0.431	0.372
-646.755	-45.111	-0.131	-0.065
-645.741	696.561	0.009	-0.023
-644.726	-2.201	-0.334	-0.236
-643.711	-57.961	-0.156	-0.068
-642.697	11.430	-0.215	0.166
-641.682	-18.146	-0.157	0.099
-640.668	244.206	0.170	-0.287
-639.653	-122.074	-0.080	-0.013
-638.638	-25.048	0.226	0.135
-637.624	111.011	0.024	-0.029
-636.609	-200.000	0.032	-0.247
-635.595	-111.844	-0.387	0.079
-634.580	800.000	-0.156	-0.458
-633.565	197.162	-0.121	-0.185
-632.551	800.000	-0.065	0.252
-631.536	-66.984	-0.259	0.103
-630.522	-106.022	0.324	-0.073
-629.507	346.492	0.072	0.142
-628.492	259.066	0.061	0.105
-627.478	192.851	-0.183	0.277
-626.463	-200.000	0.078	-0.359
-625.449	-200.000	0.042	-0.247
-624.434	681.551	0.042	-0.110
-623.419	132.067	-0.160	0.207
-622.405	43.933	-0.239	-0.220
-621.390	-4.331	-0.318	-0.221
-620.376	28.041	-0.101	-0.086
-619.361	547.618	-0.051	-0.121
-618.346	117.469	-0.261	0.322
-617.332	-87.900	-0.135	0.041
-616.317	367.240	-0.053	-0.108
-615.303	-10.381	0.147	-0.098
-614.288	-27.993	-0.119	0.069
-613.273	-156.846	0.552	0.034
-612.259	688.535	0.036	-0.094
-611.244	-83.804	0.427	0.137
-610.230	800.000	-0.078	-0.263
-609.215	168.549	0.247	-0.354
-608.201	187.024	0.028	0.041
-607.186	-34.301	0.101	-0.056
-606.171	800.000	0.031	0.125
-605.157	-200.000	0.038	0.264
-604.142	-12.038	-0.251	0.165
-603.128	287.121	0.052	0.095
-602.113	-31.735	0.177	-0.100
-601.098	-186.674	0.068	-0.001
-600.084	-200.000	-0.044	0.220
-599.069	-200.000	0.008	-0.059
-598.055	-200.000	-0.004	0.401
-597.040	-200.000	0.045	-0.254
-596.025	-96.567	0.331	0.088
-595.011	111.274	-0.175	-0.211
-593.996	-200.000	-0.086	0.392
-592.982	800.000	-0.106	0.317
-591.967	-48.601	0.186	-0.090
-590.952	-200.000	0.007	0.427
-589.938	384.503	-0.109	-0.226
-588.923	216.266	0.100	-0.159
-587.909	10.297	-0.205	-0.157
-586.894	-155.435	0.072	-0.005
-585.879	179.578	0.093	0.137
-584.865	-45.473	0.164	-0.081
-583.850	10.636	0.064	0.049
-582.836	-88.505	-0.043	-0.013
-581.821	223.985	-0.089	0.145
-580.806	83.583	0.265	-0.289
-579.792	124.408	-0.094	-0.118
-578.777	97.511	0.364	-0.419
-577.763	-82.295	-0.177	-0.058
-576.748	-200.000	0.014	0.206
-575.733	55.857	-0.226	-0.220
-574.719	71.349	-0.187	0.194
-573.704	-30.349	-0.027	-0.016
-572.690	119.905	0.090	0.111
-571.675	161.981	0.210	-0.294
-570.661	-66.212	-0.022	0.009
-569.646	550.691	0.105	-0.252
-568.631	151.891	0.111	-0.151
-567.617	29.074	-0.173	-0.147
-566.602	-57.745	-0.071	0.031
-565.588	-161.651	0.163	0.008
-564.573	186.504	-0.066	-0.098
-563.558	-200.000	0.018	0.084
-562.544	-66.432	0.289	0.115
-561.529	-140.072	0.172	0.018
-560.515	-200.000	0.017	-0.141
-559.500	-91.287	0.150	-0.043
-558.485	-61.903	-0.158	-0.066
-557.471	-104.908	-0.194	0.045
-556.456	-38.975	-0.160	0.084
-555.442	-112.386	-0.182	-0.036
-554.427	-116.704	-0.061	0.011
-553.412	-111.030	-0.173	0.035
-552.398	1.984	-0.425	-0.307
-551.383	108.664	-0.201	0.240
-550.369	114.631	-0.084	-0.103
-549.354	67.783	0.206	-0.211
-548.339	-200.000	-0.015	0.334
-547.325	-118.617	-0.096	-0.017
-546.310	-119.466	0.260	-0.045
-545.296	-200.000	0.019	-0.240
-544.281	800.000	-0.039	-0.153
-543.266	426.263	-0.033	-0.072
-542.252	257.287	-0.040	0.068
-541.237	-108.797	0.119	0.025
-540.223	527.536	0.024	-0.056
-539.208	59.004	-0.088	-0.087
-538.193	-73.754	-0.108	-0.039
-537.179	102.407	0.120	-0.140
-536.164	-200.000	-0.013	0.134
-535.150	-59.513	-0.127	0.055
-534.135	-200.000	-0.065	-0.381
-533.121	267.104	-0.167	0.293
-532.106	-92.872	0.241	-0.067
-531.091	392.302	0.116	0.241
-530.077	-111.478	-0.316	0.064
-529.062	-145.293	0.268	0.024
-528.048	177.401	-0.067	-0.097
-527.033	192.852	-0.075	0.113
-526.018	131.555	0.252	-0.325
-525.004	-92.578	-0.228	0.064
-523.989	800.000	0.042	-0.170
-522.975	-167.055	0.310	0.013
-521.960	1.232	-0.190	0.136
-520.945	800.000	0.132	0.379
-519.931	-168.634	-0.041	-0.002
-518.916	28.484	-0.355	-0.300
-517.902	-46.540	0.041	-0.020
-516.887	89.988	-0.205	-0.229
-515.872	-36.926	-0.312	0.167
-514.858	-161.404	0.235	-0.012
-513.843	383.761	-0.116	0.239
-512.829	7.310	-0.050	0.037
-511.814	119.125	-0.183	0.226
-510.799	-34.809	0.216	0.118
-509.785	-47.932	0.029	-0.014
-508.770	-65.437	0.123	0.049
-507.756	-200.000	0.027	0.265
-506.741	-87.143	-0.331	0.101
-505.726	170.902	-0.008	-0.011
-504.712	-88.123	-0.264	0.079
-503.697	212.989	-0.107	0.169
-502.683	505.429	0.103	0.238
-501.668	-200.000	0.032	-0.219
-500.653	800.000	-0.067	-0.215
-499.639	105.891	0.184	0.218
-498.624	-200.000	-0.033	0.206
-497.610	82.777	0.044	-0.047
-496.595	-34.403	-0.102	0.056
-495.581	-77.856	-0.317	-0.109
-494.566	-97.407	-0.208	0.054
-493.551	-48.189	-0.226	0.109
-492.537	175.966	0.096	-0.140
-491.522	549.834	-0.103	-0.246
-490.508	800.000	-0.030	0.097
-489.493	-174.813	-0.103	0.003
-488.478	132.735	-0.143	0.184
-487.464	-106.247	0.197	0.044
-486.449	-124.491	-0.540	-0.084
-485.435	800.000	-0.120	0.461
-484.420	-42.732	0.113	0.057
-483.405	34.949	-0.088	0.077
-482.391	-129.945	0.060	-0.008
-481.376	-42.090	-0.148	0.076
-480.362	-200.000	0.010	0.169
-479.347	432.655	0.127	-0.276
-478.332	697.377	-0.098	0.257
-477.318	150.653	0.155	-0.210
-476.303	237.868	0.083	0.138
-475.289	800.000	-0.057	-0.199
-474.274	800.000	-0.107	-0.323
-473.259	800.000	0.058	-0.238
-472.245	-50.553	0.355	-0.167
-471.230	-130.342	0.107	0.014
-470.216	311.666	-0.162	0.303
-469.201	1.371	0.168	-0.121
-468.186	800.000	0.031	-0.116
-467.172	224.968	-0.098	0.158
-466.157	-57.059	0.172	0.076
-465.143	800.000	-0.089	0.307
-464.128	-152.598	-0.297	-0.021
-463.113	20.673	-0.152	0.123
-462.099	246.401	-0.134	0.225
-461.084	762.233	-0.044	0.118
-460.070	800.000	-0.059	-0.215
-459.055	23.433	-0.220	0.181
-458.040	800.000	-0.024	-0.095
-457.026	-200.000	-0.015	-0.082
-456.011	-45.524	0.161	-0.080
-454.997	204.756	0.188	-0.291
-453.982	386.837	0.012	0.024
-452.968	-29.007	-0.264	-0.151
-451.953	-144.196	-0.056	0.005
-450.938	124.585	-0.118	0.148
-449.924	175.741	-0.299	0.433
-448.909	-190.723	-0.202	-0.002
-447.895	-70.210	-0.308	-0.117
-446.880	-127.478	-0.364	0.053
-445.865	101.545	0.193	-0.224
-444.851	164.095	-0.028	0.039
-443.836	-200.000	-0.010	-0.127
-442.822	-119.122	0.065	0.011
-441.807	128.099	0.017	-0.022
-440.792	-200.000	-0.034	-0.330
-439.778	-95.617	-0.367	0.098
-438.763	97.750	0.178	0.204
-437.749	222.307	-0.109	-0.175
-436.734	181.889	-0.063	0.093
-435.719	-40.788	0.138	0.071
-434.705	272.217	-0.218	0.384
-433.690	577.149	0.136	-0.331
-432.676	143.460	0.255	-0.338
-431.661	-200.000	0.100	0.000
-430.646	-127.293	-0.051	0.007
-429.632	289.720	0.080	0.144
-428.617	80.007	0.159	-0.171
-427.603	44.037	-0.112	-0.102
-426.588	321.118	0.142	-0.269
-425.573	180.112	-0.228	-0.333
-424.559	-109.467	0.136	-0.029
-423.544	-117.979	-0.162	0.029
-422.530	-136.689	0.155	0.018
-421.515	148.102	-0.123	-0.165
-420.500	71.291	-0.129	0.133
-419.486	-200.000	0.040	-0.204
-418.471	800.000	0.036	0.112
-417.457	57.632	0.117	-0.114
-416.442	537.214	-0.072	0.169
-415.428	65.345	0.042	-0.042
-414.413	187.305	-0.176	0.262
-413.398	-91.764	0.416	0.118
-412.384	50.550	-0.110	0.103
-411.369	-200.000	0.016	-0.111
-410.355	676.365	0.072	0.186
-409.340	-200.000	0.038	-0.321
-408.325	332.489	-0.179	-0.344
-407.311	-63.414	0.256	0.105
-406.296	135.683	-0.053	0.068
-405.282	6.057	0.136	0.101
-404.267	-25.801	-0.142	0.083
-403.252	9.074	-0.155	0.116
-402.238	-48.806	0.310	-0.148
-401.223	-43.741	0.160	-0.080
-400.209	-200.000	0.051	-0.397
-399.194	178.351	-0.154	0.223
-398.179	800.000	-0.070	-0.225
-397.165	800.000	0.052	0.177
-396.150	725.597	-0.049	-0.130
-395.136	102.911	0.366	0.427
-394.121	-200.000	-0.055	0.453
-393.106	-141.443	-0.105	0.011
-392.092	-200.000	0.005	0.397
-391.077	413.422	-0.116	0.246
-390.063	0.448	0.165	0.118
-389.048	-200.000	-0.018	0.282
-388.033	-95.493	0.184	-0.049
-387.019	-71.321	0.043	-0.016
-386.004	-66.417	-0.216	-0.085
-384.990	-200.000	-0.035	0.208
-383.975	124.089	0.034	-0.042
-382.960	-99.610	-0.349	-0.087
-381.946	-200.000	-0.007	0.053
-380.931	-73.163	-0.027	-0.010
-379.917	-200.000	0.044	-0.282
-378.902	-109.836	0.212	-0.044
-377.888	-132.813	-0.093	0.012
-376.873	-67.066	0.238	-0.093
-375.858	-200.000	-0.051	-0.251
-374.844	-9.103	0.069	-0.046
-373.829	-3.835	0.363	0.250
-372.815	40.781	-0.107	-0.096
-371.800	-200.000	0.006	0.133
-370.785	51.461	0.222	0.210
-369.771	-200.000	0.018	0.261
-368.756	-200.000	0.049	0.283
-367.742	-103.385	0.328	0.077
-366.727	-200.000	0.002	-0.036
-365.712	740.105	0.144	-0.384
-364.698	-137.040	0.158	0.018
-363.683	120.694	0.149	0.184
-362.669	713.266	0.135	0.355
-361.654	-96.340	-0.326	-0.086
-360.639	7.651	-0.050	-0.037
-359.625	469.402	-0.039	-0.086
-358.610	-200.000	-0.017	0.148
-357.596	-200.000	0.032	0.199
-356.581	637.434	0.046	-0.116
-355.566	-139.004	0.174	-0.019
-354.552	-126.748	0.090	-0.013
-353.537	800.000	0.056	-0.201
-352.523	-200.000	0.039	0.375
-351.508	386.584	-0.032	0.066
-350.493	-200.000	0.032	-0.221
-349.479	-93.369	0.082	0.022
-348.464	-30.312	0.200	-0.113
-347.450	86.647	0.236	0.259
-346.435	756.008	0.037	0.099
-345.420	-124.503	0.203	-0.031
-344.406	800.000	-0.055	0.156
-343.391	-100.211	-0.146	0.036
-342.377	-200.000	-0.058	-0.256
-341.362	209.254	-0.079	-0.123
-340.348	-89.430	0.087	0.026
-339.333	-37.040	0.237	-0.126
-338.318	747.825	0.084	-0.224
-337.304	-186.449	0.162	0.002
-336.289	-6.867	0.110	-0.074
-335.275	-200.000	-0.044	-0.247
-334.260	-200.000	0.194	0.000
-333.245	800.000	0.049	0.141
-332.231	55.086	-0.092	-0.088
-331.216	-51.413	-0.336	0.156
-330.202	28.267	-0.173	-0.145
-329.187	18.233	-0.147	0.116
-328.172	-10.237	-0.128	-0.084
-327.158	-61.033	0.272	-0.114
-326.143	800.000	0.040	0.158
-325.129	-7.954	0.136	0.091
-324.114	179.313	-0.092	-0.134
-323.099	-200.000	-0.026	0.279
-322.085	-173.744	-0.109	-0.003
-321.070	204.244	0.176	0.271
-320.056	800.000	-0.040	0.170
-319.041	-118.427	-0.287	-0.050
-318.026	-103.959	0.125	0.029
-317.012	-24.408	-0.239	-0.142
-315.997	-37.410	0.206	-0.109
-314.983	215.108	0.085	-0.133
-313.968	-200.000	-0.027	0.174
-312.953	-22.559	0.073	-0.044
-311.939	146.214	0.032	-0.043
-310.924	-102.622	-0.305	0.072
-309.910	70.864	0.133	-0.136
-308.895	63.654	-0.108	-0.107
-307.880	-30.743	-0.123	0.069
-306.866	800.000	0.061	-0.179
-305.851	126.886	-0.234	-0.295
-304.837	97.045	0.017	0.019
-303.822	800.000	0.018	-0.075
-302.807	86.147	0.172	0.188
-301.793	276.510	-0.100	-0.177
-300.778	-189.358	-0.325	-0.004
-299.764	800.000	-0.086	0.288
-298.749	800.000	0.070	0.253
-297.735	-53.844	0.088	0.040
-296.720	-74.727	-0.147	-0.052
-295.705	588.284	-0.072	0.176
-294.691	184.284	-0.073	-0.107
-293.676	-149.834	0.308	0.024
-292.662	-12.136	-0.052	0.033
-291.647	56.786	-0.019	-0.018
-290.632	-200.000	0.077	0.503
-289.618	-79.316	0.264	0.089
-288.603	55.898	0.215	0.206
-287.589	800.000	0.107	-0.293
-286.574	-90.769	-0.160	-0.046
-285.559	2.112	0.115	-0.082
-284.545	179.211	0.217	-0.314
-283.530	-200.000	-0.007	-0.208
-282.516	282.323	-0.181	-0.321
-281.501	-27.577	0.228	0.131
-280.486	-29.637	0.193	-0.109
-279.472	-95.428	0.330	0.088
-278.457	-111.569	0.130	0.026
-277.443	65.158	0.176	-0.176
-276.428	517.705	-0.096	-0.224
-275.413	46.024	0.235	0.216
-274.399	48.235	0.165	0.153
-273.384	82.999	-0.268	0.288
-272.370	-200.000	-0.015	-0.163
-271.355	-159.725	-0.158	0.009
-270.340	-148.335	0.203	-0.017
-269.326	800.000	0.092	-0.255
-268.311	-101.897	0.077	-0.018
-267.297	-145.915	0.455	0.040
-266.282	116.882	0.105	0.127
-265.267	-200.000	-0.006	-0.151
-264.253	800.000	0.044	0.127
-263.238	-38.643	0.147	-0.077
-262.224	351.316	0.098	-0.192
-261.209	-69.919	-0.249	0.094
-260.195	-17.670	-0.124	0.077
-259.180	-138.522	0.068	-0.007
-258.165	429.446	-0.072	-0.155
-257.151	-73.011	-0.329	0.120
-256.136	386.412	0.086	0.176
-255.122	48.952	-0.081	0.076
-254.107	41.664	0.184	0.165
-253.092	-200.000	0.030	0.171
-252.078	800.000	-0.091	0.363
-251.063	12.017	-0.153	0.116
-250.049	-47.001	0.194	-0.094
-249.034	-165.036	-0.375	0.016
-248.019	-70.251	0.236	-0.089
-247.005	-141.719	0.102	0.010
-245.990	405.823	0.082	0.171
-244.976	207.176	-0.206	0.318
-243.961	-200.000	0.068	0.380
-242.946	-15.471	0.082	-0.052
-241.932	71.176	-0.080	-0.082
-240.917	-200.000	-0.012	0.320
-239.903	525.016	-0.152	0.353
-238.888	45.255	0.099	-0.090
-237.873	-200.000	0.050	-0.245
-236.859	84.284	-0.129	-0.140
-235.844	800.000	0.039	-0.118
-234.830	114.900	-0.059	0.071
-233.815	-200.000	0.018	-0.206
-232.800	45.367	0.090	0.082
-231.786	-130.989	-0.185	-0.024
-230.771	-200.000	0.017	0.201
-229.757	-28.270	-0.151	0.086
-228.742	129.867	0.084	-0.106
-227.727	34.883	0.185	0.160
-226.713	-10.744	0.150	0.098
-225.698	-98.948	-0.492	-0.123
-224.684	-114.711	0.119	0.023
-223.669	-95.573	0.336	0.089
-222.655	1.037	0.207	-0.146
-221.640	-123.143	0.241	-0.038
-220.625	-200.000	0.031	-0.316
-219.611	32.990	0.331	-0.284
-218.596	-200.000	-0.009	-0.038
-217.582	202.788	-0.065	-0.099
-216.567	96.157	-0.116	-0.132
-215.552	286.515	-0.114	0.204
-214.538	-1.408	0.205	0.143
-213.523	209.414	0.259	0.402
-212.509	89.449	0.309	0.341
-211.494	-69.312	0.254	0.096
-210.479	-148.486	-0.178	-0.014
-209.465	151.359	0.103	0.139
-208.450	378.591	0.108	-0.219
-207.436	-40.163	-0.162	-0.083
-206.421	706.130	0.057	-0.148
-205.406	-153.518	-0.400	0.027
-204.392	-200.000	-0.041	-0.261
-203.377	473.513	0.015	-0.033
-202.363	96.424	-0.143	0.161
-201.348	349.616	-0.035	0.069
-200.333	17.495	-0.218	-0.171
-199.319	222.390	0.125	0.198
-198.304	-200.000	-0.004	-0.205
-197.290	-41.208	-0.221	0.112
-196.275	30.037	-0.200	-0.168
-195.260	563.580	0.031	-0.073
-194.246	-42.388	-0.293	0.148
-193.231	800.000	0.094	-0.275
-192.217	800.000	-0.014	0.046
-191.202	-200.000	-0.046	0.275
-190.187	580.893	0.289	0.699
-189.173	-33.028	0.035	-0.019
-188.158	84.510	0.152	0.164
-187.144	-64.843	-0.336	-0.134
-186.129	-200.000	-0.026	-0.220
-185.114	-88.850	0.118	0.034
-184.100	-169.091	0.338	-0.012
-183.085	648.256	-0.118	-0.298
-182.071	147.411	-0.208	-0.276
-181.056	-172.024	-0.313	-0.010
-180.042	-174.341	-0.163	0.005
-179.027	-139.609	0.247	-0.026
-178.012	-85.131	0.197	-0.061
-176.998	292.889	0.051	-0.092
-175.983	56.128	-0.066	0.064
-174.969	800.000	0.014	0.057
-173.954	-61.603	-0.144	-0.059
-172.939	69.176	0.223	-0.226
-171.925	-145.511	0.384	0.034
-170.910	-200.000	0.011	-0.535
-169.896	-91.613	0.287	-0.080
-168.881	-200.000	0.087	0.427
-167.866	-122.737	-0.310	0.049
-166.852	64.215	0.153	0.151
-165.837	-149.884	-0.325	-0.025
-164.823	0.014	0.208	-0.146
-163.808	-200.000	-0.029	-0.182
-162.793	-200.000	-0.016	-0.323
-161.779	-199.868	0.306	0.002
-160.764	475.596	-0.087	-0.193
-159.750	-89.140	-0.211	-0.062
-158.735	-121.025	-0.198	0.033
-157.720	100.062	-0.057	-0.065
-156.706	-200.000	0.023	-0.104
-155.691	-86.490	0.035	0.011
-154.677	800.000	-0.099	-0.273
-153.662	-102.056	0.344	0.082
-152.647	-36.438	-0.160	0.085
-151.633	800.000	-0.053	-0.189
-150.618	-148.541	-0.292	-0.024
-149.604	161.411	0.115	0.159
-148.589	-200.000	0.001	-0.166
-147.574	97.371	0.337	0.382
-146.560	-50.278	-0.127	0.059
-145.545	-42.157	-0.204	0.103
-144.531	-200.000	0.083	-0.556
-143.516	-125.861	-0.467	-0.069
-142.502	-81.782	0.075	-0.024
-141.487	800.000	0.067	0.199
-140.472	-34.634	-0.024	0.013
-139.458	-200.000	0.002	0.137
-138.443	468.627	0.154	0.339
-137.429	-1.788	0.082	0.057
-136.414	91.927	-0.169	0.188
-135.399	142.970	0.141	0.185
-134.385	-200.000	0.022	0.213
-133.370	-200.000	0.051	-0.268
-132.356	800.000	0.043	0.170
-131.341	-200.000	0.021	-0.390
-130.326	800.000	0.012	-0.048
-129.312	319.041	0.112	0.209
-128.297	-12.337	0.203	0.131
-127.283	-200.000	-0.026	-0.218
-126.268	800.000	0.023	-0.091
-125.253	174.169	-0.186	-0.264
-124.239	45.549	0.029	0.026
-123.224	-93.609	0.281	-0.076
-122.210	75.178	-0.105	-0.109
-121.195	800.000	-0.049	-0.153
-120.180	-200.000	-0.028	0.148
-119.166	666.467	0.089	-0.227
-118.151	404.452	-0.203	0.421
-117.137	93.473	-0.134	0.149
-116.122	-118.470	0.180	0.031
-115.107	-97.344	-0.168	0.043
-114.093	350.023	0.136	0.265
-113.078	-93.156	-0.242	-0.066
-112.064	800.000	0.013	0.047
-111.049	-35.959	-0.091	0.048
-110.034	-200.000	-0.006	-0.111
-109.020	47.051	0.138	-0.126
-108.005	-33.173	0.189	0.103
-106.991	-96.266	0.413	-0.108
-105.976	-200.000	0.033	-0.411
-104.962	-32.755	-0.062	0.034
-103.947	694.345	0.062	0.161
-102.932	800.000	0.085	0.273
-101.918	1.041	-0.131	-0.093
-100.903	-89.524	0.193	0.056
-99.889	800.000	0.038	0.112
-98.874	-98.650	-0.167	0.042
-97.859	156.651	-0.233	-0.317
-96.845	-136.048	0.270	0.031
-95.830	167.361	0.153	0.213
-94.816	81.431	-0.057	0.060
-93.801	-166.439	-0.193	0.008
-92.786	-64.292	-0.123	-0.049
-91.772	-63.757	-0.024	0.010
-90.757	88.356	0.026	-0.028
-89.743	800.000	-0.073	-0.211
-88.728	-200.000	0.006	-0.047
-87.713	347.329	0.014	0.027
-86.699	-174.791	0.279	0.008
-85.684	800.000	0.059	0.227
-84.670	250.694	0.073	0.123
-83.655	26.534	-0.124	-0.102
-82.640	-142.645	-0.135	-0.013
-81.626	-51.730	0.444	0.203
-80.611	107.167	0.148	0.173
-79.597	-200.000	-0.027	0.331
-78.582	-74.271	-0.113	-0.040
-77.567	-56.030	-0.426	0.187
-76.553	-126.743	-0.102	0.015
-75.538	23.384	-0.100	-0.080
-74.524	-149.621	-0.209	0.016
-73.509	800.000	0.031	-0.121
-72.494	360.238	0.135	-0.266
-71.480	-200.000	0.021	0.218
-70.465	-98.728	0.054	-0.013
-69.451	-200.000	0.008	-0.134
-68.436	-95.738	-0.100	-0.026
-67.422	179.837	0.120	-0.173
-66.407	26.451	-0.233	0.191
-65.392	-103.100	0.294	-0.068
-64.378	525.988	-0.115	-0.266
-63.363	-63.934	0.174	-0.070
-62.349	-200.000	0.049	0.286
-61.334	-60.277	-1.253	-0.524
-60.319	-30.014	0.844	0.472
-59.305	-200.000	-0.220	-1.148
-58.290	210.241	0.662	1.021
-57.276	-200.000	0.293	1.285
-56.261	-200.000	103.090	586.521
-55.246	551.123	1434.637	3379.838
-54.232	186.182	2632.120	3843.439
-53.217	108.730	2280.494	2674.668
-52.203	39.702	1897.366	1670.556
-51.188	33.843	1685.660	1439.847
-50.173	31.223	1642.319	1383.390
-49.159	49.369	1693.955	1563.896
-48.144	50.510	1709.313	1586.593
-47.130	33.409	1668.268	1421.506
-46.115	30.726	1654.175	1389.441
-45.100	30.523	1649.315	1383.794
-44.086	30.525	1646.397	1381.302
-43.071	30.547	1643.702	1379.150
-42.057	30.490	1641.675	1376.973
-41.042	30.468	1639.473	1374.914
-40.027	30.463	1637.951	1373.543
-39.013	30.522	1635.645	1371.994
-37.998	30.524	1634.172	1370.712
-36.984	30.491	1633.380	1369.755
-35.969	30.657	1631.193	1369.084
-34.954	30.674	1629.775	1367.964
-33.940	30.573	1628.607	1366.192
-32.925	30.567	1626.806	1364.582
-31.911	30.599	1625.043	1363.285
-30.896	30.684	1622.616	1361.816
-29.881	30.619	1621.570	1360.406
-28.867	30.674	1619.807	1359.278
-27.852	30.721	1618.071	1358.113
-26.838	30.600	1616.692	1356.017
-25.823	30.560	1615.757	1354.884
-24.809	30.638	1614.653	1354.476
-23.794	30.633	1613.063	1353.050
-22.779	30.601	1611.460	1351.416
-21.765	30.595	1609.605	1349.764
-20.750	30.614	1607.722	1348.273
-19.736	30.679	1606.406	1347.589
-18.721	30.677	1605.088	1346.410
-17.706	30.620	1603.713	1344.795
-16.692	30.524	1602.206	1342.784
-15.677	30.573	1600.673	1341.795
-14.663	30.713	1599.535	1341.800
-13.648	30.673	1598.398	1340.506
-12.633	30.712	1596.150	1338.849
-11.619	30.712	1594.751	1337.623
-10.604	30.706	1593.273	1336.281
-9.590	30.751	1591.908	1335.407
-8.575	30.622	1591.418	1334.017
-7.560	30.636	1589.636	1332.572
-6.546	30.711	1588.461	1332.073
-5.531	30.647	1587.409	1330.683
-4.517	30.645	1586.665	1329.987
-3.502	30.670	1585.036	1328.748
-2.487	30.659	1583.758	1327.547
-1.473	30.321	1572.148	1315.371
-0.458	27.636	1552.783	1280.292
0.556	23.393	1554.008	1248.877
1.571	21.178	1578.417	1252.507
2.586	20.849	1591.559	1260.446
3.600	18.571	1538.446	1202.322
4.615	11.525	1431.530	1072.546
5.629	5.664	1371.087	990.216
6.644	4.901	1363.927	980.158
7.659	4.687	1362.808	977.920
8.673	4.770	1361.483	977.405
9.688	4.742	1359.727	975.884
10.702	4.593	1356.970	972.886
11.717	7.329	1361.990	993.564
12.731	14.340	1374.316	1046.667
13.746	18.804	1381.319	1080.036
14.761	18.689	1379.978	1078.166
15.775	17.824	1377.012	1070.331
16.790	16.699	1374.556	1061.283
17.804	15.899	1372.358	1054.484
18.819	15.508	1370.852	1050.786
19.834	15.287	1369.630	1048.371
20.848	15.059	1368.728	1046.163
21.863	14.902	1367.336	1044.029
22.877	14.637	1366.348	1041.527
23.892	14.620	1365.590	1040.753
24.907	14.642	1364.461	1039.936
25.921	14.580	1363.524	1038.743
26.936	14.745	1362.150	1038.634
27.950	14.777	1361.727	1038.417
28.965	14.780	1360.796	1037.633
29.980	14.893	1359.680	1037.393
30.994	14.907	1358.180	1036.241
32.009	15.016	1357.107	1036.007
33.023	14.926	1355.739	1034.312
34.038	14.931	1354.324	1033.177
35.053	14.875	1353.098	1031.802
36.067	14.756	1352.450	1030.483
37.082	14.850	1351.210	1030.029
38.096	14.815	1350.324	1029.046
39.111	14.954	1349.365	1029.078
40.126	14.834	1348.915	1027.907
41.140	14.703	1347.930	1026.260
42.155	14.582	1347.438	1025.053
43.169	14.558	1347.459	1024.829
44.184	14.644	1347.088	1024.983
45.199	14.570	1346.623	1024.085
46.213	14.638	1345.578	1023.617
47.228	14.740	1344.681	1023.469
48.242	14.773	1344.132	1023.159
49.257	14.824	1342.558	1022.187
50.271	14.748	1340.824	1020.310
51.286	14.722	1340.011	1019.441
52.301	14.770	1338.649	1018.610
53.315	14.697	1337.296	1017.042
54.330	14.648	1336.321	1015.913
55.344	14.565	1335.190	1014.458
56.359	14.592	1334.560	1014.058
57.374	14.624	1333.349	1013.242
58.388	14.456	1332.912	1011.798
59.403	14.507	1332.051	1011.365
60.417	14.522	1331.617	1011.040
61.432	14.545	1330.560	1010.283
62.447	14.520	1329.452	1009.201
63.461	14.390	1328.752	1007.797
64.476	14.378	1327.730	1006.861
65.490	14.474	1326.125	1006.131
66.505	14.503	1324.723	1005.156
67.520	14.548	1323.150	1004.141
68.534	14.553	1322.439	1003.543
69.549	14.498	1321.044	1002.064
70.563	14.590	1319.865	1001.635
71.578	14.359	1319.474	999.867
72.593	14.291	1318.398	998.554
73.607	14.344	1317.225	997.895
74.622	14.385	1316.595	997.575
75.636	14.350	1316.809	997.437
76.651	14.410	1315.369	996.616
77.666	14.446	1314.554	996.130
78.680	14.433	1314.208	995.697
79.695	14.434	1313.342	994.964
80.709	14.435	1313.229	994.790
81.724	14.524	1312.128	994.400
82.739	14.681	1310.862	994.287
83.753	14.574	1310.790	993.512
84.768	14.698	1309.360	993.074
85.782	14.865	1308.196	993.098
86.797	14.734	1307.091	991.392
87.812	14.672	1305.864	990.004
88.826	14.587	1305.083	988.822
89.841	14.784	1303.588	988.770
90.855	14.842	1302.512	988.209
91.870	14.881	1301.870	987.865
92.884	14.780	1301.038	986.546
93.899	14.900	1300.091	986.454
94.914	14.906	1299.852	986.218
95.928	15.031	1298.498	985.837
96.943	14.803	1298.108	984.116
97.957	14.839	1296.591	983.091
98.972	14.916	1295.696	982.777
99.987	14.796	1294.617	981.164
101.001	14.879	1293.788	980.938
102.016	14.997	1292.345	980.450
103.030	14.911	1291.770	979.421
104.045	14.819	1290.896	978.134
105.060	14.790	1289.660	976.939
106.074	14.687	1288.606	975.455
107.089	14.569	1287.041	973.498
108.103	14.532	1285.664	972.153
109.118	14.519	1284.237	970.911
110.133	14.427	1283.459	969.700
111.147	14.640	1281.645	969.482
112.162	14.524	1280.584	967.919
113.176	14.645	1279.410	967.647
114.191	14.612	1278.638	966.789
115.206	14.715	1277.538	966.468
116.220	14.651	1275.819	964.714
117.235	14.657	1275.153	964.160
118.249	14.546	1274.215	962.723
119.264	14.596	1272.755	961.821
120.279	14.543	1271.578	960.544
121.293	14.523	1271.025	959.924
122.308	14.500	1270.175	959.068
123.322	14.431	1269.052	957.737
124.337	14.467	1267.723	956.858
125.352	14.472	1266.779	956.086
126.366	14.459	1265.726	955.134
127.381	14.532	1264.577	954.597
128.395	14.548	1263.743	953.978
129.410	14.575	1262.537	953.138
130.424	14.633	1261.736	952.778
131.439	14.610	1260.838	951.886
132.454	14.659	1259.798	951.297
133.468	14.735	1258.884	950.955
134.483	14.712	1258.512	950.456
135.497	14.692	1257.406	949.423
136.512	14.636	1255.906	947.892
137.527	14.709	1254.536	947.189
138.541	14.711	1253.424	946.272
139.556	14.766	1251.998	945.426
140.570	14.699	1251.440	944.542
141.585	14.901	1249.796	944.355
142.600	14.899	1248.782	943.497
143.614	14.933	1247.894	942.936
144.629	14.962	1246.977	942.322
145.643	14.937	1245.896	941.278
146.658	14.815	1244.428	939.400
147.673	14.676	1243.550	937.874
148.687	14.733	1241.994	936.938
149.702	14.699	1240.673	935.670
150.716	14.738	1239.270	934.744
151.731	14.760	1238.346	934.091
152.746	14.744	1237.099	932.977
153.760	14.861	1235.903	932.644
154.775	14.840	1235.125	931.858
155.789	14.919	1233.508	930.994
156.804	14.953	1232.913	930.652
157.819	15.008	1231.554	929.852
158.833	15.028	1230.813	929.319
159.848	14.991	1230.560	928.839
160.862	14.898	1229.323	927.307
161.877	14.923	1228.044	926.402
162.892	14.823	1226.547	924.637
163.906	14.810	1225.817	923.935
164.921	14.969	1224.998	924.110
165.935	14.774	1224.429	922.523
166.950	14.891	1223.484	922.374
167.964	14.850	1222.537	921.354
168.979	14.996	1222.078	921.734
169.994	14.950	1221.416	920.900
171.008	15.045	1220.016	920.281
172.023	15.076	1219.909	920.290
173.037	15.192	1218.773	919.989
174.052	14.981	1218.091	918.237
175.067	15.067	1216.612	917.513
176.081	14.902	1216.065	916.112
177.096	14.910	1215.302	915.503
178.110	15.070	1214.164	915.440
179.125	15.138	1212.501	914.474
180.140	15.149	1211.220	913.489
181.154	15.052	1210.047	911.996
182.169	15.083	1209.223	911.459
183.183	15.205	1208.112	911.203
184.198	15.180	1207.200	910.302
185.213	15.144	1206.698	909.649
186.227	15.253	1204.939	908.833
187.242	15.279	1204.066	908.234
188.256	15.339	1202.722	907.464
189.271	15.368	1201.797	906.843
190.286	15.158	1200.719	904.816
191.300	14.934	1200.109	903.068
192.315	14.874	1199.557	902.246
193.329	14.973	1198.370	901.810
194.344	14.942	1198.129	901.379
195.359	15.093	1197.534	901.667
196.373	15.205	1197.086	901.852
197.388	15.274	1196.777	901.908
198.402	15.401	1196.245	902.110
199.417	15.459	1196.148	902.268
200.432	15.543	1194.778	901.611
201.446	15.471	1194.385	900.847
202.461	15.522	1193.159	900.115
203.475	15.612	1191.974	899.623
204.490	15.453	1191.216	898.119
205.504	15.392	1189.403	896.349
206.519	15.376	1188.249	895.312
207.534	15.412	1187.610	894.944
208.548	15.305	1186.631	893.558
209.563	15.340	1185.777	893.025
210.577	15.431	1184.707	892.620
211.592	15.413	1184.163	892.037
212.607	15.642	1183.055	892.338
213.621	15.613	1182.140	891.416
214.636	15.431	1181.441	889.848
215.650	15.564	1180.382	889.672
216.665	15.626	1179.237	889.063
217.680	15.634	1178.769	888.673
218.694	15.784	1177.505	888.434
219.709	15.701	1177.299	887.761
220.723	15.664	1176.351	886.771
221.738	15.705	1175.852	886.530
222.753	15.741	1174.453	885.590
223.767	15.624	1174.527	884.951
224.782	15.850	1173.378	885.195
225.796	15.849	1172.809	884.681
226.811	15.813	1172.426	884.127
227.826	15.799	1171.548	883.313
228.840	15.711	1170.774	882.189
229.855	15.665	1170.052	881.323
230.869	15.722	1169.241	880.934
231.884	15.664	1168.268	879.821
232.899	15.653	1167.511	879.113
233.913	15.687	1166.958	878.798
234.928	15.616	1165.848	877.514
235.942	15.735	1164.870	877.319
236.957	15.721	1164.167	876.642
237.972	15.741	1163.331	876.036
238.986	15.660	1163.372	875.571
240.001	15.694	1162.633	875.111
241.015	15.754	1161.290	874.337
242.030	15.843	1160.707	874.284
243.045	15.905	1159.966	873.970
244.059	15.877	1159.671	873.526
245.074	15.874	1158.194	872.319
246.088	15.849	1157.980	871.951
247.103	15.967	1157.013	871.754
248.117	16.013	1156.147	871.262
249.132	16.143	1155.638	871.476
250.147	16.114	1155.205	870.921
251.161	16.258	1154.577	871.115
252.176	16.265	1153.757	870.455
253.190	16.495	1152.498	870.610
254.205	16.394	1152.882	870.307
255.220	16.337	1152.249	869.454
256.234	16.460	1150.929	869.014
257.249	16.444	1150.770	868.739
258.263	16.381	1149.551	867.417
259.278	16.312	1149.382	866.858
260.293	16.429	1148.366	866.614
261.307	16.417	1148.271	866.406
262.322	16.482	1147.334	865.952
263.336	16.577	1146.513	865.747
264.351	16.554	1145.861	865.055
265.366	16.579	1145.421	864.779
266.380	16.568	1144.629	864.047
267.395	16.584	1143.531	863.224
268.409	16.423	1143.193	862.069
269.424	16.474	1142.266	861.553
270.439	16.538	1141.701	861.378
271.453	16.468	1141.212	860.579
272.468	16.438	1140.012	859.443
273.482	16.454	1139.251	858.875
274.497	16.478	1138.951	858.693
275.512	16.484	1138.119	858.023
276.526	16.474	1137.088	857.120
277.541	16.561	1136.510	857.047
278.555	16.599	1135.838	856.656
279.570	16.574	1135.469	856.178
280.585	16.568	1134.720	855.505
281.599	16.741	1133.519	855.398
282.614	16.715	1132.087	854.109
283.628	16.670	1131.132	853.085
284.643	16.482	1130.489	851.579
285.657	16.520	1129.701	851.103
286.672	16.632	1128.879	850.972
287.687	16.783	1127.758	850.810
288.701	16.779	1127.046	850.175
289.716	16.672	1126.557	849.197
290.730	16.704	1125.725	848.652
291.745	16.847	1124.951	848.710
292.760	16.713	1124.336	847.503
293.774	16.855	1123.838	847.761
294.789	16.908	1123.148	847.430
295.803	16.780	1123.077	846.665
296.818	16.892	1121.544	845.990
297.833	16.884	1120.603	845.166
298.847	16.747	1120.139	844.061
299.862	16.825	1119.517	843.907
300.876	16.767	1119.129	843.249
301.891	16.920	1118.319	843.326
302.906	16.964	1117.315	842.712
303.920	17.033	1117.100	842.820
304.935	17.082	1116.438	842.489
305.949	17.139	1115.585	842.054
306.964	17.050	1115.495	841.467
307.979	17.022	1114.321	840.371
308.993	17.017	1113.748	839.836
310.008	17.185	1112.787	839.867
311.022	17.143	1112.160	839.116
312.037	17.233	1111.031	838.634
313.052	17.138	1110.292	837.531
314.066	17.096	1109.126	836.371
315.081	16.942	1108.367	834.966
316.095	17.024	1107.921	834.959
317.110	17.023	1107.341	834.443
318.125	17.020	1106.475	833.705
319.139	17.004	1105.568	832.868
320.154	17.018	1105.210	832.595
321.168	16.951	1104.930	831.977
322.183	17.103	1103.829	831.822
323.197	17.058	1103.241	831.086
324.212	17.096	1102.734	830.817
325.227	17.089	1102.536	830.557
326.241	17.121	1101.500	829.860
327.256	17.146	1100.806	829.389
328.270	17.202	1099.839	828.856
329.285	17.185	1098.977	828.051
330.300	17.115	1097.995	826.897
331.314	17.137	1097.136	826.285
332.329	17.234	1095.977	825.810
333.343	17.333	1094.796	825.327
334.358	17.300	1093.976	824.477
335.373	17.337	1093.973	824.579
336.387	17.370	1093.022	823.949
337.402	17.303	1092.556	823.204
338.416	17.432	1091.777	823.168
339.431	17.469	1091.209	822.845
340.446	17.499	1090.881	822.670
341.460	17.527	1089.740	821.872
342.475	17.625	1088.920	821.653
343.489	17.637	1087.841	820.824
344.504	17.708	1087.200	820.611
345.519	17.487	1086.953	819.288
346.533	17.742	1085.763	819.544
347.548	17.785	1085.040	819.129
348.562	17.671	1084.306	817.958
349.577	17.599	1083.431	816.881
350.592	17.549	1082.844	816.126
351.606	17.463	1082.026	815.025
352.621	17.547	1081.315	814.820
353.635	17.496	1080.451	813.850
354.650	17.575	1079.796	813.666
355.665	17.501	1079.197	812.786
356.679	17.577	1078.607	812.634
357.694	17.767	1077.903	812.939
358.708	17.732	1077.138	812.120
359.723	17.700	1076.799	811.641
360.738	17.730	1076.180	811.245
361.752	17.685	1075.271	810.274
362.767	17.765	1074.838	810.255
363.781	17.829	1074.119	809.948
364.796	17.767	1074.108	809.572
365.810	18.006	1073.097	809.874
366.825	17.900	1072.882	809.138
367.840	18.057	1072.163	809.264
368.854	18.051	1071.754	808.856
369.869	18.000	1070.814	807.833
370.883	18.015	1070.148	807.331
371.898	17.838	1069.148	805.673
372.913	18.006	1068.657	806.024
373.927	17.965	1068.028	805.284
374.942	18.141	1067.566	805.694
375.956	18.075	1067.109	804.964
376.971	18.090	1066.552	804.545
377.986	18.168	1065.943	804.382
379.000	18.130	1065.053	803.460
380.015	18.139	1064.936	803.342
381.029	18.291	1064.277	803.489
382.044	18.178	1063.485	802.290
383.059	18.252	1062.356	801.715
384.073	18.187	1061.747	800.879
385.088	18.280	1060.830	800.553
386.102	18.292	1059.899	799.834
387.117	18.201	1058.982	798.648
388.132	18.226	1057.865	797.851
389.146	18.220	1056.825	796.969
390.161	18.165	1056.768	796.598
391.175	18.137	1056.197	795.966
392.190	18.176	1055.336	795.426
393.205	18.331	1054.141	795.178
394.219	18.489	1053.618	795.447
395.234	18.315	1052.785	793.937
396.248	18.201	1052.210	792.906
397.263	18.249	1050.865	792.044
398.278	18.184	1050.433	791.347
399.292	18.086	1049.736	790.301
400.307	18.204	1048.711	790.005
401.321	18.134	1048.118	789.165
402.336	18.222	1047.669	789.163
403.350	18.155	1047.007	788.286
404.365	18.231	1046.105	787.887
405.380	18.337	1045.488	787.838
406.394	18.370	1044.634	787.277
407.409	18.410	1044.217	787.078
408.423	18.498	1043.163	786.616
409.438	18.501	1042.794	786.284
410.453	18.653	1041.834	786.188
411.467	18.605	1041.482	785.629
412.482	18.643	1041.018	785.387
413.496	18.663	1040.153	784.756
414.511	18.621	1040.020	784.393
415.526	18.754	1039.154	784.276
416.540	18.736	1038.798	783.856
417.555	18.743	1037.835	783.095
418.569	18.832	1037.293	783.020
419.584	18.861	1036.968	782.837
420.599	18.852	1036.580	782.437
421.613	151.000	1401.732	1796.435
422.628	137.963	1454.914	1796.522
