DTS Sentinel unit serial number:	SN413079Multiplexer serial number:	ORYXHardware model number:	OX4-SRSoftware version number:	ORYX F/W v4.00 Oryx Data Collector v3.7.2.0data status	okinstallation	princeton_trtdifferential loss correction	single-endedforward channel	channel 2reverse channel	N/Adate	2019/09/18time	09:23:35forward acquisition time	60.00reverse acquisition time	0.00gamma	496.2192k internal	0.2338k external	0.2338temperature offset calibration	0.9979default loss term (dB/km)	0.3790temperature slope calibration	1.0000multiplexer offset coefficient	1.0000multiplexer slope coefficient	1.0000fibre end	0.00T internal ref (°C)	26.09T ext. ref 1 (°C)	0.26T ext. ref 2 (°C)	23.42length (m)	temperature (°C)	Stokes	anti-Stokes-747.200	156.180	-0.086	0.118
-746.185	-200.000	0.020	0.316
-745.171	-62.417	-0.199	-0.083
-744.156	-122.119	0.174	-0.029
-743.142	-60.199	-0.123	-0.053
-742.127	-200.000	0.004	0.083
-741.112	-200.000	0.013	0.194
-740.098	-51.462	-0.188	-0.088
-739.083	-200.000	-0.006	-0.165
-738.069	800.000	0.095	0.303
-737.054	-200.000	0.008	-0.061
-736.039	1.144	-0.279	0.201
-735.025	-200.000	0.065	0.432
-734.010	-200.000	-0.027	-0.122
-732.996	-200.000	-0.038	0.268
-731.981	-124.950	-0.319	-0.049
-730.966	-172.913	0.234	-0.007
-729.952	-128.493	-0.155	-0.022
-728.937	-101.326	-0.139	0.034
-727.923	718.410	-0.045	-0.120
-726.908	-200.000	0.012	-0.311
-725.894	-200.000	-0.029	-0.474
-724.879	536.579	-0.085	-0.202
-723.864	8.041	-0.280	-0.211
-722.850	-200.000	-0.010	0.115
-721.835	-200.000	0.058	-0.384
-720.821	250.241	-0.175	-0.298
-719.806	800.000	-0.042	-0.131
-718.791	175.401	-0.226	-0.328
-717.777	-146.797	-0.239	-0.021
-716.762	128.621	-0.167	0.213
-715.748	-6.567	-0.295	-0.202
-714.733	-77.480	-0.408	0.142
-713.718	260.286	-0.079	0.136
-712.704	-200.000	0.046	-0.213
-711.689	61.256	-0.158	-0.158
-710.675	-36.959	0.223	-0.120
-709.660	264.106	0.053	-0.093
-708.645	-142.155	0.288	-0.029
-707.631	-72.144	-0.255	0.095
-706.616	-190.528	0.249	-0.003
-705.602	-200.000	-0.030	0.161
-704.587	-2.595	-0.117	0.082
-703.572	164.221	-0.091	-0.129
-702.558	48.752	0.124	0.116
-701.543	-50.780	-0.140	-0.066
-700.529	155.487	-0.222	-0.306
-699.514	-30.049	-0.104	-0.059
-698.499	-200.000	-0.020	-0.097
-697.485	-11.979	-0.192	-0.126
-696.470	-200.000	-0.023	-0.288
-695.456	-91.125	-0.163	0.047
-694.441	460.483	0.131	-0.293
-693.426	132.362	0.038	0.050
-692.412	-36.247	-0.395	0.213
-691.397	24.373	0.083	0.069
-690.383	443.367	0.080	-0.175
-689.368	-200.000	0.003	-0.036
-688.354	133.033	-0.172	-0.222
-687.339	-148.236	-0.410	-0.034
-686.324	92.908	0.113	-0.128
-685.310	-133.132	0.268	-0.034
-684.295	800.000	-0.098	-0.353
-683.281	800.000	0.093	-0.355
-682.266	800.000	-0.013	-0.046
-681.251	-31.012	0.179	0.101
-680.237	-42.451	0.175	0.089
-679.222	118.658	0.135	0.167
-678.208	-74.633	0.145	-0.052
-677.193	586.173	-0.022	-0.054
-676.178	-200.000	-0.008	-0.261
-675.164	67.698	-0.147	-0.151
-674.149	-124.149	0.071	-0.011
-673.135	77.130	-0.058	0.062
-672.120	76.075	-0.338	-0.357
-671.105	-76.231	-0.429	-0.151
-670.091	-200.000	0.007	-0.164
-669.076	525.480	0.162	-0.382
-668.062	162.553	-0.205	-0.288
-667.047	227.750	0.070	-0.114
-666.032	-46.811	-0.094	0.046
-665.018	188.285	-0.230	-0.344
-664.003	-41.892	-0.297	-0.152
-662.989	-123.622	0.098	0.016
-661.974	-16.705	-0.012	-0.008
-660.959	14.506	-0.105	-0.082
-659.945	59.453	0.030	-0.030
-658.930	-119.872	0.096	-0.017
-657.916	-200.000	0.003	0.157
-656.901	-54.454	-0.123	0.056
-655.886	86.197	-0.266	-0.293
-654.872	800.000	0.039	0.126
-653.857	-123.174	-0.288	0.046
-652.843	-200.000	-0.017	0.208
-651.828	5.116	0.092	-0.067
-650.814	66.487	-0.077	-0.079
-649.799	800.000	0.038	-0.113
-648.784	614.643	0.118	0.295
-647.770	-93.579	-0.183	0.051
-646.755	363.929	-0.087	0.174
-645.741	19.086	0.243	0.195
-644.726	-20.475	-0.111	-0.068
-643.711	-23.804	-0.139	-0.083
-642.697	-1.229	0.075	-0.053
-641.682	800.000	-0.026	-0.087
-640.668	800.000	0.065	0.234
-639.653	-156.218	-0.386	0.024
-638.638	800.000	-0.062	-0.217
-637.624	119.858	-0.078	-0.096
-636.609	-200.000	0.045	0.263
-635.595	-130.436	-0.118	0.016
-634.580	-74.866	0.183	-0.065
-633.565	-146.155	-0.189	-0.017
-632.551	89.351	-0.182	0.203
-631.536	143.066	-0.061	-0.082
-630.522	152.687	-0.139	0.190
-629.507	298.808	0.138	0.254
-628.492	491.492	0.184	0.420
-627.478	800.000	-0.103	0.292
-626.463	-29.253	-0.079	0.045
-625.449	149.619	0.154	-0.208
-624.434	297.452	-0.064	-0.117
-623.419	208.487	-0.151	-0.236
-622.405	-200.000	0.047	-0.262
-621.390	156.928	-0.132	0.182
-620.376	-200.000	0.002	0.134
-619.361	166.404	-0.222	0.314
-618.346	-200.000	-0.030	-0.160
-617.332	22.422	0.111	-0.091
-616.317	-183.626	-0.092	0.002
-615.303	-200.000	0.005	-0.287
-614.288	-200.000	-0.003	-0.117
-613.273	171.398	-0.114	0.163
-612.259	-133.658	-0.126	-0.016
-611.244	-124.939	0.201	0.031
-610.230	-140.421	-0.157	-0.016
-609.215	-98.748	-0.178	0.045
-608.201	117.562	-0.115	-0.142
-607.186	-161.209	0.209	-0.011
-606.171	23.322	-0.247	-0.203
-605.157	330.751	0.085	0.164
-604.142	-200.000	-0.018	-0.168
-603.128	-75.588	-0.326	0.116
-602.113	110.983	-0.098	0.118
-601.098	-74.768	-0.182	0.065
-600.084	699.655	-0.047	0.125
-599.069	-14.353	-0.249	-0.160
-598.055	-35.024	-0.220	-0.120
-597.040	20.374	0.164	-0.132
-596.025	-96.377	0.101	0.027
-595.011	656.820	0.012	-0.030
-593.996	-152.391	-0.437	0.031
-592.982	24.206	-0.184	0.151
-591.967	-200.000	-0.014	0.318
-590.952	647.515	-0.139	0.355
-589.938	-147.359	-0.144	-0.012
-588.923	-59.051	0.302	0.130
-587.909	80.948	0.092	0.099
-586.894	-29.635	0.136	-0.077
-585.879	70.271	-0.203	-0.209
-584.865	-156.289	0.170	0.011
-583.850	-200.000	0.002	0.042
-582.836	-127.360	0.331	-0.048
-581.821	30.022	0.186	-0.158
-580.806	-200.000	-0.022	0.218
-579.792	-4.119	0.228	0.158
-578.777	-51.039	-0.227	0.106
-577.763	19.953	0.516	-0.415
-576.748	-108.130	-0.321	-0.069
-575.733	292.929	0.069	-0.125
-574.719	412.350	0.074	0.156
-573.704	800.000	-0.049	0.197
-572.690	-16.898	0.059	0.037
-571.675	-200.000	0.001	0.184
-570.661	-56.976	-0.298	-0.131
-569.646	800.000	0.031	0.126
-568.631	748.122	0.083	0.223
-567.617	-111.712	-0.290	0.059
-566.602	-200.000	0.002	-0.083
-565.588	-18.515	-0.271	0.169
-564.573	-18.412	-0.064	-0.040
-563.558	-53.165	0.259	0.118
-562.544	800.000	-0.072	-0.269
-561.529	-0.649	0.113	-0.080
-560.515	-200.000	0.001	-0.101
-559.500	-200.000	-0.015	-0.271
-558.485	423.598	0.227	0.486
-557.471	-43.825	-0.119	0.060
-556.456	-85.921	-0.147	0.045
-555.442	-59.685	0.085	0.036
-554.427	154.203	0.069	0.094
-553.412	-94.338	-0.452	0.123
-552.398	-102.469	0.260	-0.062
-551.383	-36.154	-0.207	0.111
-550.369	800.000	-0.049	-0.169
-549.354	-19.169	0.379	-0.235
-548.339	248.188	0.150	-0.253
-547.325	46.724	-0.081	0.075
-546.310	-200.000	-0.024	0.116
-545.296	260.547	-0.190	0.328
-544.281	71.599	-0.094	0.097
-543.266	800.000	0.024	-0.093
-542.252	-200.000	0.020	-0.116
-541.237	-148.075	-0.355	0.029
-540.223	800.000	0.005	0.013
-539.208	-27.146	-0.162	0.094
-538.193	198.481	0.178	0.271
-537.179	-200.000	0.035	0.231
-536.164	-71.912	-0.339	-0.125
-535.150	-163.933	-0.465	0.022
-534.135	-70.428	0.112	-0.042
-533.121	-136.246	0.349	-0.041
-532.106	-110.104	-0.183	-0.038
-531.091	242.150	-0.108	0.180
-530.077	-200.000	0.007	-0.093
-529.062	-137.857	-0.267	0.030
-528.048	-200.000	0.007	0.064
-527.033	88.289	0.224	0.248
-526.018	-200.000	-0.009	0.043
-525.004	66.527	-0.278	0.281
-523.989	57.352	0.139	-0.135
-522.975	-200.000	-0.003	-0.142
-521.960	-35.255	-0.121	-0.065
-520.945	474.416	0.064	-0.143
-519.931	14.818	0.134	0.104
-518.916	173.887	-0.047	0.067
-517.902	189.932	-0.064	0.096
-516.887	-99.437	-0.214	0.053
-515.872	-200.000	-0.005	-0.209
-514.858	-70.001	-0.133	0.050
-513.843	-46.927	0.062	-0.030
-512.829	88.730	0.279	-0.308
-511.814	158.872	-0.148	-0.204
-510.799	-82.673	-0.222	0.071
-509.785	-23.475	0.154	0.092
-508.770	95.493	-0.066	-0.075
-507.756	78.387	0.141	0.149
-506.741	-56.739	0.208	-0.091
-505.726	800.000	-0.048	-0.182
-504.712	236.642	0.164	0.271
-503.697	-28.463	-0.333	-0.191
-502.683	-100.621	-0.174	0.043
-501.668	71.988	-0.099	0.102
-500.653	800.000	-0.134	0.391
-499.639	101.561	-0.167	0.194
-498.624	-27.996	-0.152	-0.088
-497.610	-200.000	0.004	0.160
-496.595	-102.611	-0.378	-0.090
-495.581	-29.182	-0.241	-0.137
-494.566	75.444	-0.269	0.282
-493.551	12.742	-0.155	0.119
-492.537	-200.000	0.010	-0.262
-491.522	496.102	-0.159	-0.362
-490.508	-200.000	-0.018	-0.356
-489.493	-152.650	-0.157	0.011
-488.478	238.271	-0.041	-0.067
-487.464	684.351	-0.115	-0.297
-486.449	-98.283	0.190	-0.049
-485.435	146.892	0.089	0.118
-484.420	-74.686	-0.241	-0.086
-483.405	-3.176	0.216	0.149
-482.391	-98.032	-0.267	0.068
-481.376	241.332	-0.074	-0.123
-480.362	-119.444	0.321	-0.055
-479.347	127.365	0.230	-0.290
-478.332	800.000	-0.051	-0.156
-477.318	-74.503	0.286	-0.102
-476.303	-53.890	0.128	-0.058
-475.289	-200.000	0.009	0.066
-474.274	-156.849	0.064	-0.004
-473.259	-61.891	-0.129	-0.053
-472.245	-117.805	-0.185	-0.033
-471.230	-200.000	-0.019	-0.210
-470.216	-200.000	0.166	0.001
-469.201	-97.668	0.227	-0.058
-468.186	-46.503	0.265	0.129
-467.172	-89.330	-0.232	-0.068
-466.157	-84.963	0.167	-0.052
-465.143	-200.000	0.004	-0.111
-464.128	405.127	0.158	-0.331
-463.113	159.381	-0.089	-0.123
-462.099	-200.000	-0.007	0.106
-461.084	-76.765	0.165	0.057
-460.070	-38.117	0.207	0.109
-459.055	142.805	0.081	-0.107
-458.040	-200.000	0.002	0.084
-457.026	-164.552	-0.187	0.008
-456.011	-36.045	-0.202	-0.108
-454.997	361.081	-0.125	-0.248
-453.982	-200.000	0.014	0.128
-452.968	-200.000	-0.004	0.195
-451.953	-69.221	-0.348	-0.133
-450.938	-91.874	0.085	0.024
-449.924	19.982	0.198	-0.159
-448.909	-200.000	0.022	-0.169
-447.895	271.377	0.057	0.100
-446.880	800.000	-0.086	-0.258
-445.865	6.432	-0.137	-0.101
-444.851	-125.572	-0.169	0.025
-443.836	800.000	-0.157	-0.495
-442.822	800.000	-0.066	0.190
-441.807	-103.165	0.040	0.009
-440.792	800.000	-0.045	0.167
-439.778	-200.000	-0.043	0.190
-438.763	66.758	-0.019	-0.019
-437.749	800.000	0.028	0.099
-436.734	-160.744	0.116	-0.006
-435.719	45.732	0.303	-0.278
-434.705	-200.000	-0.058	0.313
-433.690	77.588	-0.106	0.112
-432.676	-200.000	0.040	-0.184
-431.661	-82.531	-0.281	-0.090
-430.646	-117.344	0.334	0.060
-429.632	800.000	0.149	0.445
-428.617	800.000	-0.086	0.277
-427.603	-38.187	0.264	0.139
-426.588	-133.591	-0.183	0.023
-425.573	-5.326	-0.147	-0.100
-424.559	-186.410	0.252	-0.004
-423.544	362.617	0.316	-0.629
-422.530	-200.000	-0.039	-0.234
-421.515	168.525	-0.067	0.094
-420.500	755.173	0.027	0.074
-419.486	-76.196	-0.077	-0.027
-418.471	-164.218	-0.468	-0.021
-417.457	-200.000	0.007	-0.179
-416.442	-105.034	0.283	0.064
-415.428	-31.965	0.310	0.172
-414.413	-34.667	-0.100	-0.054
-413.398	-81.308	0.203	-0.066
-412.384	-100.713	-0.126	0.031
-411.369	-200.000	0.009	-0.201
-410.355	-71.566	0.211	0.078
-409.340	225.190	0.192	0.308
-408.325	-96.003	0.222	0.058
-407.311	244.476	0.216	-0.359
-406.296	461.498	0.031	0.069
-405.282	692.695	-0.062	-0.162
-404.267	202.838	0.170	0.260
-403.252	-200.000	-0.033	-0.197
-402.238	288.903	0.045	-0.081
-401.223	758.542	-0.104	0.279
-400.209	800.000	-0.014	-0.058
-399.194	-131.872	0.130	-0.017
-398.179	-24.527	0.250	-0.148
-397.165	-153.311	-0.385	-0.027
-396.150	486.035	-0.144	-0.324
-395.136	-200.000	-0.010	-0.117
-394.121	800.000	-0.110	-0.335
-393.106	15.021	0.227	-0.176
-392.092	800.000	-0.053	0.194
-391.077	359.607	-0.066	0.130
-390.063	-61.704	-0.228	-0.095
-389.048	800.000	0.067	0.199
-388.033	49.486	-0.045	-0.042
-387.019	-200.000	0.023	-0.582
-386.004	800.000	0.040	0.115
-384.990	287.899	0.216	-0.387
-383.975	65.983	0.152	0.152
-382.960	407.630	-0.095	0.200
-381.946	-35.543	0.305	0.164
-380.931	-137.676	0.297	0.033
-379.917	348.988	-0.006	-0.011
-378.902	-51.089	0.385	0.179
-377.888	44.998	0.052	0.047
-376.873	800.000	0.044	-0.183
-375.858	-200.000	0.007	-0.105
-374.844	316.118	-0.138	0.259
-373.829	800.000	-0.013	-0.047
-372.815	-90.704	0.229	-0.065
-371.800	-74.893	0.142	-0.050
-370.785	-200.000	0.047	0.283
-369.771	-200.000	-0.024	-0.126
-368.756	-42.956	0.040	0.020
-367.742	-100.075	-0.065	-0.016
-366.727	89.290	0.070	-0.077
-365.712	-85.326	0.251	0.077
-364.698	-72.909	-0.212	-0.077
-363.683	703.749	-0.124	-0.324
-362.669	-200.000	0.002	0.018
-361.654	485.544	-0.089	-0.201
-360.639	415.745	-0.085	-0.179
-359.625	120.815	0.132	0.162
-358.610	118.484	0.112	-0.137
-357.596	360.903	-0.054	0.107
-356.581	5.293	0.179	0.131
-355.566	-125.855	0.220	0.033
-354.552	68.468	0.150	0.152
-353.537	-43.365	0.084	0.042
-352.523	290.110	-0.183	-0.329
-351.508	-200.000	-0.067	-0.395
-350.493	403.083	-0.100	0.207
-349.479	-76.767	0.181	-0.063
-348.464	-160.237	-0.077	0.004
-347.450	239.987	0.122	0.201
-346.435	383.195	0.181	-0.367
-345.420	-200.000	0.003	-0.037
-344.406	13.942	0.216	-0.166
-343.391	800.000	-0.074	0.279
-342.377	83.296	0.167	0.180
-341.362	-200.000	0.006	-0.085
-340.348	373.173	-0.065	-0.131
-339.333	-6.671	-0.170	-0.114
-338.318	-42.861	0.276	-0.139
-337.304	-3.643	-0.200	-0.138
-336.289	112.170	-0.115	0.138
-335.275	-93.790	-0.316	0.086
-334.260	121.833	0.096	0.118
-333.245	-20.679	-0.168	0.102
-332.231	-7.592	0.270	0.180
-331.216	259.710	-0.128	-0.218
-330.202	120.689	0.245	0.301
-329.187	-10.518	0.326	0.213
-328.172	-39.209	0.149	-0.077
-327.158	121.903	-0.099	-0.122
-326.143	-60.596	0.140	0.059
-325.129	65.680	-0.250	-0.250
-324.114	-200.000	0.051	-0.351
-323.099	81.513	0.312	-0.333
-322.085	63.017	-0.185	-0.183
-321.070	335.789	-0.080	-0.152
-320.056	-74.352	-0.249	0.089
-319.041	98.102	0.098	0.111
-318.026	-79.958	0.189	-0.062
-317.012	800.000	-0.038	-0.150
-315.997	265.992	0.085	0.147
-314.983	-144.732	-0.237	-0.022
-313.968	121.986	-0.326	0.402
-312.953	-80.753	0.306	-0.100
-311.939	307.949	-0.099	-0.182
-310.924	-200.000	-0.083	-0.407
-309.910	-30.213	0.351	0.197
-308.895	-200.000	0.035	0.304
-307.880	-93.766	-0.265	-0.072
-306.866	-159.635	0.114	0.006
-305.851	88.036	-0.101	0.110
-304.837	800.000	-0.034	-0.141
-303.822	-126.892	-0.309	0.045
-302.807	-38.385	-0.058	-0.030
-301.793	59.559	0.220	0.214
-300.778	29.616	0.197	-0.166
-299.764	800.000	0.110	-0.385
-298.749	-200.000	0.071	-0.399
-297.735	-200.000	-0.014	-0.150
-296.720	-67.378	0.445	-0.172
-295.705	15.298	0.069	-0.054
-294.691	-174.800	0.500	0.014
-293.676	-105.211	0.169	0.038
-292.662	-140.764	-0.056	-0.006
-291.647	-200.000	-0.006	0.128
-290.632	350.380	0.117	0.229
-289.618	-140.146	0.296	0.031
-288.603	106.418	0.110	-0.129
-287.589	-57.065	-0.172	-0.075
-286.574	143.854	0.227	0.299
-285.559	725.839	0.064	0.169
-284.545	120.018	-0.091	-0.111
-283.530	-61.197	-0.113	-0.047
-282.516	0.520	0.165	0.116
-281.501	260.920	0.230	-0.392
-280.486	119.500	-0.131	-0.160
-279.472	-166.675	-0.260	0.011
-278.457	4.685	0.176	-0.127
-277.443	-200.000	-0.049	0.293
-276.428	-73.915	-0.094	-0.034
-275.413	-91.879	0.212	0.059
-274.399	800.000	-0.114	0.312
-273.384	-185.853	0.287	-0.004
-272.370	13.419	0.119	0.091
-271.355	-188.708	-0.436	0.005
-270.340	-88.671	0.247	0.072
-269.326	-71.233	0.187	0.069
-268.311	-10.979	0.210	-0.136
-267.297	1.341	0.116	0.082
-266.282	-5.912	-0.071	0.048
-265.267	-200.000	0.002	0.027
-264.253	192.779	-0.116	0.173
-263.238	800.000	-0.058	-0.225
-262.224	325.300	-0.065	-0.121
-261.209	100.583	0.080	0.091
-260.195	-200.000	-0.003	-0.035
-259.180	-200.000	0.023	0.188
-258.165	-39.225	0.278	0.144
-257.151	-200.000	0.057	-0.261
-256.136	-200.000	-0.048	0.241
-255.122	800.000	-0.045	-0.148
-254.107	800.000	-0.022	-0.066
-253.092	-78.356	-0.174	-0.059
-252.078	800.000	0.119	-0.353
-251.063	-175.087	-0.285	0.008
-250.049	-46.636	-0.276	-0.133
-249.034	-200.000	0.016	0.270
-248.019	800.000	0.047	-0.153
-247.005	65.885	-0.300	0.299
-245.990	-89.285	0.391	-0.113
-244.976	800.000	0.007	-0.030
-243.961	-71.751	0.089	0.033
-242.946	76.058	-0.139	-0.144
-241.932	273.911	0.051	0.089
-240.917	-153.644	0.082	-0.006
-239.903	-200.000	-0.006	0.222
-238.888	135.868	0.132	-0.170
-237.873	15.316	-0.308	0.238
-236.859	-164.515	0.094	-0.004
-235.844	181.108	0.182	0.262
-234.830	153.014	-0.127	-0.171
-233.815	-103.456	-0.159	-0.037
-232.800	-157.284	-0.099	0.006
-231.786	-200.000	0.025	0.330
-230.771	800.000	0.093	0.300
-229.757	150.337	-0.142	0.189
-228.742	-200.000	-0.029	0.176
-227.727	-17.820	0.159	0.098
-226.713	72.611	0.071	0.073
-225.698	-51.352	-0.205	-0.094
-224.684	1.595	-0.197	-0.140
-223.669	-124.515	-0.137	0.021
-222.655	254.851	-0.092	-0.155
-221.640	344.612	-0.111	-0.215
-220.625	433.632	0.183	-0.392
-219.611	-200.000	-0.023	-0.109
-218.596	-40.685	0.120	-0.061
-217.582	-170.443	0.087	-0.003
-216.567	-96.367	0.213	-0.056
-215.552	-42.960	-0.178	-0.089
-214.538	164.897	0.176	0.244
-213.523	-150.521	0.118	-0.009
-212.509	-43.871	0.177	0.088
-211.494	117.570	0.025	0.031
-210.479	-61.312	-0.085	0.035
-209.465	-200.000	-0.023	-0.260
-208.450	-100.926	-0.062	-0.015
-207.436	-92.872	0.297	-0.081
-206.421	67.004	0.179	0.180
-205.406	-80.417	-0.144	0.047
-204.392	-59.446	0.243	0.103
-203.377	-184.656	-0.252	0.004
-202.363	-51.071	0.283	-0.131
-201.348	-167.692	0.445	0.017
-200.333	75.336	0.127	-0.131
-199.319	-200.000	0.006	0.257
-198.304	-46.087	0.178	-0.086
-197.290	661.529	-0.094	0.239
-196.275	800.000	-0.102	0.336
-195.260	114.520	-0.160	-0.191
-194.246	-55.362	-0.166	-0.073
-193.231	-23.876	-0.222	0.131
-192.217	800.000	-0.105	0.306
-191.202	421.308	-0.024	0.050
-190.187	-170.425	-0.335	0.012
-189.173	238.490	-0.069	0.113
-188.158	-1.477	-0.180	-0.125
-187.144	-15.057	0.172	-0.108
-186.129	57.491	-0.169	-0.162
-185.114	781.952	-0.158	0.426
-184.100	-163.032	0.348	-0.017
-183.085	-200.000	-0.003	0.147
-182.071	479.981	-0.076	0.170
-181.056	-200.000	0.024	0.118
-180.042	800.000	-0.021	-0.089
-179.027	763.301	-0.010	0.026
-178.012	-158.508	0.190	0.011
-176.998	-36.572	-0.349	0.184
-175.983	-149.376	-0.083	0.006
-174.969	800.000	-0.094	0.263
-173.954	-146.119	-0.190	0.016
-172.939	-52.474	0.155	0.070
-171.925	-80.341	0.064	-0.021
-170.910	69.538	0.151	0.153
-169.896	-34.790	0.057	0.031
-168.881	-200.000	0.044	-0.229
-167.866	-200.000	0.053	-0.360
-166.852	82.314	-0.152	0.161
-165.837	334.627	-0.122	0.231
-164.823	800.000	0.100	0.270
-163.808	96.134	-0.057	0.064
-162.793	-200.000	0.024	-0.162
-161.779	-14.358	0.109	-0.069
-160.764	13.187	-0.249	0.189
-159.750	203.365	0.040	-0.060
-158.735	76.363	0.061	-0.064
-157.720	800.000	0.053	0.189
-156.706	26.479	-0.070	-0.057
-155.691	294.406	-0.041	-0.073
-154.677	-142.471	0.180	0.017
-153.662	-54.720	-0.211	0.093
-152.647	-100.350	0.239	0.058
-151.633	0.699	-0.139	-0.097
-150.618	32.621	0.405	-0.344
-149.604	-68.939	-0.197	0.075
-148.589	-200.000	0.038	-0.217
-147.574	-67.712	-0.277	-0.106
-146.560	400.994	-0.038	0.079
-145.545	-87.914	-0.243	0.072
-144.531	-93.402	-0.271	0.074
-143.516	-101.144	-0.296	-0.071
-142.502	62.308	0.284	0.278
-141.487	800.000	0.113	0.399
-140.472	-200.000	-0.028	0.134
-139.458	-164.225	0.202	-0.009
-138.443	-125.557	0.251	-0.037
-137.429	67.052	-0.130	0.130
-136.414	-120.419	-0.108	0.018
-135.399	23.001	0.064	0.051
-134.385	-76.162	-0.188	-0.065
-133.370	-200.000	0.015	0.377
-132.356	706.938	-0.072	-0.187
-131.341	-200.000	-0.070	0.425
-130.326	42.695	-0.224	-0.200
-129.312	-175.833	-0.077	0.002
-128.297	800.000	-0.070	-0.190
-127.283	-200.000	-0.002	-0.207
-126.268	-40.558	0.358	-0.182
-125.253	-28.888	0.005	-0.003
-124.239	-200.000	0.023	0.098
-123.224	22.543	-0.235	-0.188
-122.210	-160.877	0.135	-0.007
-121.195	-30.398	-0.066	0.037
-120.180	-79.303	0.081	-0.027
-119.166	-200.000	-0.006	0.042
-118.151	-4.308	-0.343	0.232
-117.137	173.553	-0.107	-0.151
-116.122	800.000	0.079	-0.284
-115.107	-181.254	-0.171	-0.003
-114.093	-200.000	0.035	-0.205
-113.078	-200.000	-0.082	0.364
-112.064	-50.172	0.132	0.061
-111.049	61.209	0.166	-0.162
-110.034	-39.029	-0.163	-0.084
-109.020	-200.000	-0.008	-0.062
-108.005	-61.534	-0.224	0.092
-106.991	-169.049	0.282	-0.010
-105.976	-132.502	0.206	-0.026
-104.962	-200.000	-0.100	0.522
-103.947	22.719	0.135	0.109
-102.932	11.668	0.068	-0.051
-101.918	13.187	0.035	-0.027
-100.903	1.690	0.028	-0.020
-99.889	282.585	0.163	0.286
-98.874	112.108	0.151	0.178
-97.859	210.642	0.130	-0.199
-96.845	6.960	-0.251	0.183
-95.830	800.000	0.090	0.249
-94.816	222.372	0.061	0.096
-93.801	-12.860	-0.358	0.228
-92.786	-200.000	-0.011	0.166
-91.772	800.000	-0.045	-0.130
-90.757	-130.692	0.224	-0.029
-89.743	-200.000	-0.016	-0.149
-88.728	-105.561	-0.206	-0.046
-87.713	-93.242	-0.223	-0.061
-86.699	-200.000	-0.010	0.144
-85.684	136.371	-0.104	0.133
-84.670	194.481	0.102	0.151
-83.655	62.449	0.257	0.251
-82.640	470.212	0.112	0.247
-81.626	401.692	-0.116	-0.238
-80.611	-52.263	-0.200	0.091
-79.597	493.617	-0.081	-0.182
-78.582	113.591	-0.199	0.236
-77.567	-144.508	0.224	0.020
-76.553	-200.000	-0.008	0.050
-75.538	-51.375	-0.444	0.203
-74.524	800.000	-0.039	-0.164
-73.509	-143.529	-0.239	-0.022
-72.494	-5.142	0.259	0.174
-71.480	295.282	0.038	0.068
-70.465	139.335	-0.061	0.079
-69.451	-41.160	0.448	0.226
-68.436	-200.000	-0.035	0.291
-67.422	-106.163	-0.083	0.018
-66.407	-117.520	0.302	-0.053
-65.392	-68.093	-0.066	0.025
-64.378	-36.426	-0.195	0.103
-63.363	-200.000	-0.009	0.227
-62.349	21.729	-0.169	-0.135
-61.334	89.464	-0.927	-1.010
-60.319	51.808	0.736	0.685
-59.305	-200.000	-0.007	-1.133
-58.290	287.888	0.765	1.352
-57.276	800.000	0.601	1.637
-56.261	-200.000	113.788	615.860
-55.246	440.258	1525.261	3256.504
-54.232	142.229	2722.717	3529.027
-53.217	93.576	2321.595	2567.984
-52.203	35.013	1926.665	1647.853
-51.188	29.153	1716.191	1422.674
-50.173	26.796	1674.163	1369.994
-49.159	46.928	1730.073	1570.928
-48.144	45.532	1744.145	1572.932
-47.130	28.730	1702.900	1408.190
-46.115	26.111	1688.558	1376.332
-45.100	25.941	1683.512	1370.866
-44.086	26.040	1680.434	1369.058
-43.071	26.039	1677.434	1366.551
-42.057	25.885	1675.613	1363.847
-41.042	25.852	1673.774	1362.048
-40.027	25.996	1671.158	1360.953
-39.013	25.933	1669.171	1358.806
-37.998	25.862	1668.066	1357.320
-36.984	25.884	1667.086	1356.633
-35.969	26.158	1665.119	1357.039
-34.954	26.067	1663.884	1355.297
-33.940	26.059	1661.730	1353.427
-32.925	26.098	1660.272	1352.478
-31.911	26.075	1658.702	1350.975
-30.896	26.159	1656.707	1349.925
-29.881	26.113	1655.047	1348.175
-28.867	26.085	1653.455	1346.616
-27.852	26.097	1652.102	1345.546
-26.838	26.056	1650.834	1344.153
-25.823	26.190	1649.143	1343.724
-24.809	26.071	1647.830	1341.716
-23.794	26.107	1646.704	1341.014
-22.779	26.274	1645.158	1340.939
-21.765	26.139	1642.928	1338.068
-20.750	26.105	1641.623	1336.700
-19.736	26.090	1640.642	1335.734
-18.721	26.166	1638.677	1334.643
-17.706	26.136	1637.238	1333.198
-16.692	26.076	1635.491	1331.279
-15.677	26.115	1634.098	1330.379
-14.663	26.135	1632.839	1329.453
-13.648	26.202	1631.440	1328.755
-12.633	26.122	1630.109	1327.031
-11.619	26.142	1628.385	1325.722
-10.604	26.125	1626.846	1324.287
-9.590	26.113	1625.254	1322.849
-8.575	26.164	1623.747	1321.944
-7.560	26.066	1623.091	1320.643
-6.546	26.082	1621.962	1319.788
-5.531	26.157	1620.026	1318.710
-4.517	26.133	1619.495	1318.052
-3.502	26.107	1618.509	1317.007
-2.487	26.203	1616.787	1316.254
-1.473	26.134	1604.903	1306.022
-0.458	23.852	1587.103	1275.141
0.556	19.120	1589.971	1247.855
1.571	17.472	1614.567	1254.909
2.586	17.148	1627.608	1262.520
3.600	15.601	1572.671	1208.678
4.615	8.557	1461.568	1075.948
5.629	1.652	1399.038	985.239
6.644	0.340	1390.871	970.954
7.659	0.296	1389.452	969.594
8.673	0.214	1388.934	968.622
9.688	0.180	1386.654	966.730
10.702	0.050	1383.318	963.482
11.717	3.215	1388.296	987.187
12.731	10.728	1400.028	1043.884
13.746	15.899	1407.004	1082.319
14.761	16.747	1407.395	1087.971
15.775	16.190	1405.172	1082.580
16.790	15.235	1402.786	1074.531
17.804	14.449	1400.281	1067.485
18.819	14.111	1398.990	1064.240
19.834	13.849	1397.331	1061.210
20.848	13.622	1396.523	1059.054
21.863	13.424	1394.915	1056.479
22.877	13.266	1393.569	1054.359
23.892	13.103	1393.077	1052.851
24.907	13.214	1391.768	1052.473
25.921	13.135	1391.403	1051.607
26.936	13.226	1390.392	1051.323
27.950	13.199	1389.481	1050.371
28.965	13.282	1388.110	1049.772
29.980	13.250	1387.266	1048.833
30.994	13.444	1386.168	1049.142
32.009	13.432	1385.360	1048.360
33.023	13.354	1384.147	1046.855
34.038	13.399	1382.813	1046.040
35.053	13.347	1381.657	1044.745
36.067	13.351	1380.550	1043.840
37.082	13.275	1379.705	1042.634
38.096	13.350	1378.992	1042.470
39.111	13.308	1378.332	1041.614
40.126	13.323	1377.251	1040.800
41.140	13.302	1376.403	1039.936
42.155	13.163	1376.502	1039.048
43.169	13.184	1375.888	1038.624
44.184	13.186	1375.648	1038.363
45.199	13.202	1374.931	1037.831
46.213	13.096	1374.838	1037.003
47.228	13.181	1373.448	1036.395
48.242	13.255	1372.219	1035.835
49.257	13.264	1370.971	1034.862
50.271	13.174	1369.873	1033.376
51.286	13.320	1368.096	1032.860
52.301	13.301	1367.068	1031.871
53.315	13.251	1365.852	1030.553
54.330	13.241	1365.530	1030.151
55.344	13.194	1363.405	1028.165
56.359	13.173	1362.700	1027.414
57.374	13.193	1361.487	1026.536
58.388	13.222	1361.116	1026.346
59.403	13.090	1360.814	1025.204
60.417	13.050	1360.162	1024.375
61.432	13.169	1358.900	1024.074
62.447	13.062	1357.896	1022.560
63.461	13.124	1356.402	1021.726
64.476	13.006	1356.102	1020.683
65.490	13.081	1354.510	1019.859
66.505	13.144	1352.696	1018.790
67.520	13.156	1351.501	1017.876
68.534	13.157	1350.482	1017.020
69.549	13.175	1349.231	1016.102
70.563	13.121	1348.286	1014.967
71.578	13.098	1347.437	1014.100
72.593	13.098	1345.967	1012.904
73.607	13.079	1345.459	1012.313
74.622	13.017	1344.410	1011.053
75.636	13.083	1343.764	1010.882
76.651	13.012	1342.702	1009.561
77.666	13.087	1342.049	1009.438
78.680	13.100	1341.448	1008.980
79.695	13.100	1340.761	1008.369
80.709	13.056	1340.304	1007.671
81.724	13.153	1339.142	1007.301
82.739	13.118	1338.275	1006.344
83.753	13.202	1337.155	1005.922
84.768	13.217	1336.618	1005.523
85.782	13.355	1335.123	1005.147
86.797	13.291	1333.557	1003.493
87.812	13.321	1331.959	1002.379
88.826	13.241	1330.899	1001.010
89.841	13.141	1330.354	999.908
90.855	13.234	1329.293	999.585
91.870	13.313	1327.925	998.942
92.884	13.265	1327.485	998.232
93.899	13.256	1326.593	997.419
94.914	13.412	1325.170	997.201
95.928	13.287	1324.956	996.202
96.943	13.300	1323.752	995.284
97.957	13.311	1322.833	994.574
98.972	13.312	1322.257	994.056
99.987	13.336	1320.715	992.953
101.001	13.345	1319.714	992.166
102.016	13.218	1318.918	990.719
103.030	13.230	1317.701	989.788
104.045	13.408	1316.688	990.006
105.060	13.331	1315.494	988.563
106.074	13.305	1313.967	987.172
107.089	13.162	1312.890	985.424
108.103	13.249	1311.678	984.944
109.118	13.088	1310.627	983.107
110.133	13.159	1309.151	982.334
111.147	13.170	1307.756	981.270
112.162	13.191	1306.741	980.544
113.176	13.288	1304.960	979.694
114.191	13.297	1304.025	978.960
115.206	13.186	1303.313	977.680
116.220	13.202	1301.932	976.657
117.235	13.242	1300.585	975.795
118.249	13.220	1299.531	974.786
119.264	13.315	1298.329	974.359
120.279	13.209	1297.642	973.137
121.293	13.132	1296.578	971.796
122.308	13.169	1295.038	970.775
123.322	13.179	1294.358	970.238
124.337	13.183	1293.185	969.298
125.352	13.199	1292.171	968.544
126.366	13.210	1290.759	967.464
127.381	13.189	1289.686	966.454
128.395	13.148	1288.910	965.546
129.410	13.198	1288.192	965.212
130.424	13.188	1287.354	964.440
131.439	13.189	1286.580	963.781
132.454	13.262	1285.156	963.055
133.468	13.248	1284.177	962.157
134.483	13.257	1283.524	961.635
135.497	13.226	1282.258	960.420
136.512	13.252	1281.027	959.565
137.527	13.190	1279.897	958.274
138.541	13.260	1278.388	957.466
139.556	13.318	1276.740	956.480
140.570	13.349	1275.709	955.803
141.585	13.371	1274.230	954.734
142.600	13.320	1273.222	953.603
143.614	13.435	1272.243	953.447
144.629	13.375	1271.162	952.205
145.643	13.415	1270.499	951.855
146.658	13.280	1269.015	949.883
147.673	13.395	1267.124	949.043
148.687	13.196	1266.451	947.317
149.702	13.293	1265.101	946.778
150.716	13.215	1264.057	945.468
151.731	13.432	1262.280	945.291
152.746	13.351	1261.172	943.921
153.760	13.432	1259.941	943.377
154.775	13.509	1258.795	942.874
155.789	13.418	1258.504	942.051
156.804	13.432	1257.189	941.064
157.819	13.474	1255.593	940.026
158.833	13.601	1254.431	939.795
159.848	13.574	1253.873	939.138
160.862	13.549	1253.014	938.268
161.877	13.520	1251.661	937.011
162.892	13.587	1250.691	936.581
163.906	13.502	1249.597	935.198
164.921	13.456	1248.930	934.357
165.935	13.570	1248.124	934.316
166.950	13.562	1247.596	933.792
167.964	13.563	1246.799	933.115
168.979	13.572	1246.311	932.720
169.994	13.576	1245.428	931.996
171.008	13.615	1244.401	931.366
172.023	13.634	1243.461	930.686
173.037	13.669	1242.417	930.018
174.052	13.656	1241.984	929.539
175.067	13.697	1240.724	928.745
176.081	13.569	1239.927	927.349
177.096	13.683	1238.322	926.703
178.110	13.584	1237.770	925.659
179.125	13.695	1235.791	924.717
180.140	13.676	1234.911	923.865
181.154	13.638	1234.072	922.945
182.169	13.752	1232.602	922.400
183.183	13.878	1230.849	921.707
184.198	13.718	1230.483	920.462
185.213	13.692	1229.304	919.356
186.227	13.789	1228.363	919.106
187.242	13.818	1227.226	918.337
188.256	13.926	1225.745	917.742
189.271	13.849	1224.901	916.603
190.286	13.805	1224.083	915.670
191.300	13.737	1223.403	914.706
192.315	13.651	1222.767	913.671
193.329	13.709	1222.290	913.556
194.344	13.764	1221.014	912.823
195.359	13.893	1220.748	913.254
196.373	13.814	1220.448	912.513
197.388	13.761	1219.976	911.791
198.402	13.914	1219.398	912.116
199.417	13.899	1218.617	911.372
200.432	14.011	1217.542	911.097
201.446	13.970	1216.718	910.178
202.461	14.078	1215.550	909.815
203.475	14.058	1214.844	909.094
204.490	13.968	1213.560	907.564
205.504	14.065	1212.285	907.059
206.519	14.022	1210.918	905.721
207.534	14.091	1209.960	905.297
208.548	13.980	1209.141	904.000
209.563	14.090	1207.984	903.657
210.577	14.123	1207.170	903.148
211.592	14.054	1206.403	902.119
212.607	14.147	1205.724	902.036
213.621	14.211	1204.621	901.476
214.636	14.212	1203.737	900.741
215.650	14.139	1203.274	899.918
216.665	14.087	1202.165	898.732
217.680	14.243	1201.169	898.749
218.694	14.275	1199.981	897.951
219.709	14.308	1199.564	897.737
220.723	14.457	1198.219	897.456
221.738	14.348	1197.887	896.541
222.753	14.234	1197.203	895.337
223.767	14.348	1196.441	895.298
224.782	14.370	1195.500	894.636
225.796	14.272	1195.101	893.730
226.811	14.448	1194.314	894.005
227.826	14.396	1193.393	892.959
228.840	14.346	1192.674	892.076
229.855	14.419	1192.141	891.989
230.869	14.359	1191.213	890.894
231.884	14.447	1189.946	890.340
232.899	14.321	1189.626	889.348
233.913	14.383	1188.753	888.948
234.928	14.407	1187.665	888.182
235.942	14.374	1187.210	887.585
236.957	14.408	1186.232	886.957
237.972	14.446	1185.617	886.622
238.986	14.408	1185.428	886.198
240.001	14.400	1184.711	885.541
241.015	14.509	1182.882	884.678
242.030	14.434	1182.432	883.862
243.045	14.448	1181.971	883.513
244.059	14.517	1181.057	883.119
245.074	14.614	1180.076	882.818
246.088	14.594	1179.337	882.083
247.103	14.590	1178.800	881.580
248.117	14.613	1177.909	880.957
249.132	14.611	1177.433	880.515
250.147	14.735	1176.199	880.168
251.161	14.714	1175.641	879.560
252.176	14.815	1174.851	879.426
253.190	14.831	1174.086	878.858
254.205	14.766	1173.838	878.251
255.220	14.882	1173.010	878.163
256.234	14.856	1172.111	877.276
257.249	14.887	1171.471	876.886
258.263	14.851	1171.176	876.397
259.278	14.889	1170.724	876.179
260.293	14.842	1170.269	875.518
261.307	15.008	1169.458	875.698
262.322	14.929	1168.710	874.649
263.336	15.024	1167.893	874.456
264.351	15.066	1167.866	874.580
265.366	15.030	1166.804	873.520
266.380	15.001	1166.143	872.797
267.395	15.031	1164.925	871.962
268.409	14.966	1164.316	871.091
269.424	15.100	1163.646	871.213
270.439	15.136	1163.218	871.002
271.453	14.999	1162.164	869.424
272.468	15.006	1161.097	868.584
273.482	15.149	1159.973	868.406
274.497	15.169	1159.763	868.278
275.512	14.987	1159.504	867.060
276.526	15.102	1158.807	867.059
277.541	15.079	1157.844	866.144
278.555	15.140	1156.687	865.516
279.570	15.222	1156.013	865.360
280.585	15.208	1155.700	864.978
281.599	15.290	1154.399	864.348
282.614	15.267	1153.290	863.321
283.628	15.279	1152.456	862.683
284.643	15.203	1151.588	861.570
285.657	15.307	1150.903	861.514
286.672	15.302	1149.680	860.495
287.687	15.315	1148.988	859.970
288.701	15.212	1149.030	859.396
289.716	15.366	1147.681	859.099
290.730	15.404	1146.434	858.284
291.745	15.256	1146.466	857.475
292.760	15.403	1145.191	857.195
293.774	15.488	1144.526	857.060
294.789	15.505	1144.560	857.092
295.803	15.550	1143.717	856.614
296.818	15.408	1142.854	855.173
297.833	15.463	1142.005	854.740
298.847	15.489	1141.057	854.086
299.862	15.560	1140.345	853.840
300.876	15.509	1139.904	853.176
301.891	15.493	1139.793	852.932
302.906	15.566	1138.459	852.232
303.920	15.510	1137.921	851.468
304.935	15.690	1137.115	851.701
305.949	15.663	1136.762	851.228
306.964	15.621	1135.999	850.365
307.979	15.691	1135.112	849.982
308.993	15.744	1134.290	849.556
310.008	15.730	1133.296	848.666
311.022	15.725	1133.315	848.582
312.037	15.726	1131.611	847.233
313.052	15.646	1130.841	846.182
314.066	15.672	1130.156	845.725
315.081	15.621	1129.087	844.595
316.095	15.686	1128.428	844.355
317.110	15.663	1128.090	843.911
318.125	15.645	1127.137	843.033
319.139	15.755	1126.146	842.766
320.154	15.748	1125.772	842.378
321.168	15.705	1125.004	841.516
322.183	15.682	1124.486	840.936
323.197	15.766	1123.611	840.629
324.212	15.729	1123.111	839.996
325.227	15.744	1122.634	839.639
326.241	15.874	1121.716	839.527
327.256	15.882	1121.091	839.022
328.270	15.804	1119.970	837.721
329.285	15.760	1119.138	836.808
330.300	15.781	1118.198	836.134
331.314	15.876	1117.220	835.801
332.329	15.884	1116.448	835.188
333.343	15.841	1115.576	834.251
334.358	15.997	1114.450	834.104
335.373	15.889	1113.960	833.130
336.387	15.961	1113.241	832.876
337.402	15.980	1112.430	832.290
338.416	15.960	1111.553	831.461
339.431	15.899	1111.347	830.932
340.446	16.033	1110.750	831.070
341.460	16.049	1110.173	830.646
342.475	16.103	1108.800	829.811
343.489	16.192	1107.928	829.520
344.504	16.162	1107.217	828.770
345.519	16.245	1106.091	828.262
346.533	16.338	1104.932	827.774
347.548	16.191	1104.796	826.882
348.562	16.242	1103.915	826.397
349.577	16.223	1103.135	825.649
350.592	16.176	1102.526	824.889
351.606	16.287	1101.733	824.765
352.621	16.214	1101.021	823.802
353.635	16.202	1100.343	823.162
354.650	16.309	1099.540	823.013
355.665	16.245	1098.763	822.046
356.679	16.324	1098.266	821.986
357.694	16.294	1097.899	821.491
358.708	16.326	1096.948	820.864
359.723	16.442	1096.434	820.970
360.738	16.255	1095.778	819.495
361.752	16.355	1095.045	819.360
362.767	16.440	1094.802	819.519
363.781	16.359	1094.113	818.540
364.796	16.409	1093.519	818.266
365.810	16.431	1092.676	817.665
366.825	16.527	1092.082	817.615
367.840	16.510	1091.528	817.044
368.854	16.505	1091.123	816.645
369.869	16.623	1090.126	816.395
370.883	16.467	1089.735	815.282
371.898	16.546	1088.549	814.703
372.913	16.559	1087.857	814.175
373.927	16.577	1087.869	814.198
374.942	16.584	1087.105	813.587
375.956	16.601	1086.697	813.290
376.971	16.669	1085.819	812.890
377.986	16.704	1085.511	812.755
379.000	16.770	1084.567	812.290
380.015	16.887	1084.146	812.467
381.029	16.807	1083.335	811.404
382.044	16.807	1082.771	810.910
383.059	16.776	1082.038	810.139
384.073	16.895	1080.905	809.788
385.088	16.885	1080.135	809.091
386.102	16.848	1079.363	808.264
387.117	16.857	1078.283	807.426
388.132	16.814	1077.332	806.439
389.146	16.780	1076.769	805.787
390.161	16.834	1076.014	805.406
391.175	16.900	1075.214	805.048
392.190	16.872	1074.276	804.145
393.205	16.858	1073.877	803.707
394.219	16.978	1072.946	803.506
395.234	16.945	1072.055	802.612
396.248	16.904	1071.204	801.708
397.263	16.894	1070.052	800.732
398.278	16.847	1069.490	800.017
399.292	16.895	1069.262	800.001
400.307	16.853	1068.112	798.873
401.321	16.915	1067.552	798.677
402.336	16.993	1066.573	798.240
403.350	16.990	1065.941	797.680
404.365	16.961	1065.481	797.132
405.380	16.995	1064.578	796.543
406.394	17.142	1063.815	796.591
407.409	17.167	1062.618	795.745
408.423	17.165	1062.269	795.404
409.438	17.151	1061.537	794.718
410.453	17.205	1060.757	794.314
411.467	17.116	1060.474	793.619
412.482	17.303	1059.288	793.534
413.496	17.433	1058.598	793.553
414.511	17.270	1058.418	792.588
415.526	17.275	1057.935	792.180
416.540	17.243	1057.792	791.852
417.555	17.320	1057.075	791.602
418.569	17.406	1056.417	791.439
419.584	17.345	1055.782	790.613
420.599	17.516	1055.342	791.005
421.613	105.503	1329.371	1481.414
422.628	97.192	1369.241	1481.495
