DTS Sentinel unit serial number:	SN413079Multiplexer serial number:	ORYXHardware model number:	OX4-SRSoftware version number:	ORYX F/W v4.00 Oryx Data Collector v3.7.2.0data status	okinstallation	princeton_trtdifferential loss correction	single-endedforward channel	channel 2reverse channel	N/Adate	2019/09/12time	19:33:49forward acquisition time	15.00reverse acquisition time	0.00gamma	496.2192k internal	0.2326k external	0.2326temperature offset calibration	1.0156default loss term (dB/km)	0.3790temperature slope calibration	1.0000multiplexer offset coefficient	1.0000multiplexer slope coefficient	1.0000fibre end	0.00T internal ref (°C)	32.19T ext. ref 1 (°C)	3.38T ext. ref 2 (°C)	26.74length (m)	temperature (°C)	Stokes	anti-Stokes-747.200	-200.000	0.886	-0.004
-746.185	-108.899	0.684	-0.147
-745.171	104.026	-0.335	-0.398
-744.156	94.246	0.799	0.915
-743.142	85.592	-0.554	0.614
-742.127	-0.767	0.749	0.535
-741.112	800.000	0.230	0.794
-740.098	800.000	-0.154	-0.433
-739.083	401.194	0.415	-0.879
-738.069	370.988	0.465	0.951
-737.054	22.670	0.195	-0.161
-736.039	-113.053	0.108	0.021
-735.025	21.248	-0.207	-0.169
-734.010	-200.000	0.012	0.477
-732.996	-123.532	-0.630	-0.101
-731.981	-157.279	0.424	-0.026
-730.966	174.168	-0.367	0.534
-729.952	193.897	0.311	0.474
-728.937	-200.000	-0.044	0.275
-727.923	-63.866	-0.069	0.029
-726.908	-52.002	0.537	0.251
-725.894	91.138	0.589	-0.666
-724.879	-157.129	0.383	0.023
-723.864	-86.015	-0.190	-0.059
-722.850	-98.178	0.725	0.188
-721.835	360.318	0.181	0.366
-720.821	-41.201	-0.409	0.213
-719.806	0.556	0.474	0.342
-718.791	-35.461	-0.497	0.272
-717.777	149.644	0.300	-0.409
-716.762	-103.231	-0.335	-0.080
-715.748	182.427	0.417	0.619
-714.733	800.000	0.165	-0.544
-713.718	-24.070	-0.251	0.151
-712.704	-200.000	-0.041	-0.195
-711.689	-77.536	-0.665	-0.232
-710.675	274.145	0.116	-0.207
-709.660	8.141	0.268	-0.203
-708.645	-45.740	-0.463	-0.230
-707.631	-113.618	0.877	-0.173
-706.616	-36.124	0.655	-0.356
-705.602	800.000	-0.129	-0.435
-704.587	740.942	0.142	0.383
-703.572	-200.000	0.081	-0.385
-702.558	-149.969	0.667	-0.052
-701.543	-60.103	0.545	0.234
-700.529	29.318	0.450	-0.385
-699.514	-7.770	0.492	-0.335
-698.499	-124.046	-0.830	-0.131
-697.485	187.774	-0.460	-0.691
-696.470	122.379	-0.297	0.373
-695.456	-77.191	-0.917	-0.322
-694.441	526.453	0.249	-0.590
-693.426	-200.000	-0.177	0.807
-692.412	-200.000	0.006	-0.373
-691.397	-138.504	-0.712	0.079
-690.383	-108.766	-1.023	-0.220
-689.368	-200.000	-0.083	-0.543
-688.354	341.634	0.273	0.537
-687.339	-32.994	0.228	-0.128
-686.324	800.000	-0.400	-1.436
-685.310	396.576	-0.106	0.223
-684.295	800.000	-0.257	0.899
-683.281	800.000	0.078	-0.296
-682.266	416.087	0.284	0.610
-681.251	-15.114	-0.150	0.097
-680.237	800.000	0.046	-0.198
-679.222	-200.000	0.378	0.001
-678.208	-200.000	0.144	-0.671
-677.193	-124.717	-0.619	-0.096
-676.178	-200.000	-0.075	-0.530
-675.164	-115.987	-0.665	-0.125
-674.149	153.261	-0.390	0.537
-673.135	142.602	0.251	-0.336
-672.120	800.000	0.339	1.060
-671.105	217.131	0.325	-0.521
-670.091	800.000	-0.247	0.971
-669.076	473.946	-0.258	0.585
-668.062	137.543	-0.354	-0.466
-667.047	131.543	0.386	0.499
-666.032	800.000	-0.209	0.831
-665.018	33.192	0.360	0.314
-664.003	58.236	0.336	-0.331
-662.989	291.282	-0.494	0.903
-661.974	-200.000	-0.002	-0.043
-660.959	3.946	0.327	0.240
-659.945	-179.578	0.087	-0.002
-658.930	118.839	0.046	0.057
-657.916	-200.000	-0.095	0.745
-656.901	-162.168	0.464	-0.023
-655.886	-194.998	-1.329	0.010
-654.872	800.000	0.116	-0.366
-653.857	-50.783	-0.369	-0.175
-652.843	342.397	-0.120	-0.237
-651.828	800.000	-0.090	0.397
-650.814	-119.198	0.721	0.126
-649.799	800.000	0.227	0.661
-648.784	131.527	0.065	-0.084
-647.770	-57.540	0.343	-0.151
-646.755	259.726	0.423	-0.734
-645.741	142.922	-0.409	0.546
-644.726	800.000	0.224	-0.717
-643.711	-126.134	-0.448	0.067
-642.697	88.127	-0.074	0.082
-641.682	-158.279	-0.152	0.009
-640.668	-200.000	0.220	-1.115
-639.653	111.628	-0.218	0.264
-638.638	-95.139	0.449	0.122
-637.624	155.036	0.158	0.219
-636.609	412.123	0.380	0.811
-635.595	-70.753	-0.267	-0.101
-634.580	-200.000	0.065	0.406
-633.565	-106.840	0.256	-0.057
-632.551	-54.491	0.830	0.377
-631.536	74.696	-0.132	0.139
-630.522	800.000	-0.200	0.796
-629.507	-55.637	-0.343	-0.154
-628.492	472.160	0.183	-0.413
-627.478	-125.094	-0.101	0.016
-626.463	-57.542	-0.205	-0.090
-625.449	91.630	0.588	-0.663
-624.434	-78.934	-0.436	-0.149
-623.419	-181.890	0.452	0.009
-622.405	11.984	0.194	0.150
-621.390	105.176	-0.495	-0.586
-620.376	611.882	0.402	1.009
-619.361	-91.707	-0.478	-0.136
-618.346	-200.000	0.133	-0.712
-617.332	154.817	-0.461	0.635
-616.317	-200.000	-0.128	-0.731
-615.303	207.650	0.148	-0.232
-614.288	-200.000	0.043	-0.409
-613.273	276.417	0.148	0.264
-612.259	106.696	0.450	0.535
-611.244	-141.859	-0.664	0.067
-610.230	26.788	0.266	0.224
-609.215	-139.158	-0.130	-0.014
-608.201	-85.912	-0.443	0.138
-607.186	11.301	-0.732	0.563
-606.171	144.817	-0.279	-0.374
-605.157	-46.695	0.151	-0.074
-604.142	-121.239	-0.715	0.120
-603.128	800.000	-0.175	-0.548
-602.113	305.641	0.366	-0.682
-601.098	800.000	0.117	-0.387
-600.084	-127.388	-0.727	-0.106
-599.069	342.894	0.039	-0.076
-598.055	-41.140	-0.617	0.319
-597.040	-200.000	0.082	-0.427
-596.025	-200.000	0.029	-1.238
-595.011	145.522	-0.148	0.199
-593.996	121.420	0.325	-0.407
-592.982	1.206	-0.186	-0.134
-591.967	181.595	-0.142	0.210
-590.952	-200.000	0.153	1.007
-589.938	129.936	0.202	0.259
-588.923	211.651	0.379	-0.598
-587.909	-68.012	-0.449	-0.176
-586.894	-1.351	-0.539	-0.382
-585.879	-200.000	0.189	-0.857
-584.865	59.649	0.162	0.160
-583.850	-102.535	-1.142	0.274
-582.836	-66.889	-0.857	-0.340
-581.821	800.000	-0.070	-0.212
-580.806	248.213	-0.387	-0.655
-579.792	3.146	0.131	-0.095
-578.777	-117.816	0.466	-0.084
-577.763	-130.041	0.397	0.054
-576.748	-68.093	-0.362	0.141
-575.733	6.405	0.537	-0.399
-574.719	-169.274	0.307	-0.011
-573.704	-77.122	-0.196	0.068
-572.690	627.716	-0.034	0.086
-571.675	158.874	0.249	-0.347
-570.661	1.114	0.441	-0.317
-569.646	-15.038	-0.437	0.281
-568.631	800.000	-0.078	-0.265
-567.617	207.287	0.452	0.707
-566.602	-38.977	0.065	0.035
-565.588	-95.072	-0.492	0.133
-564.573	-8.738	-0.404	0.272
-563.558	139.511	0.182	-0.239
-562.544	58.408	0.218	0.215
-561.529	77.126	-0.527	-0.561
-560.515	-28.711	-0.600	0.346
-559.500	-136.022	-0.179	0.021
-558.485	-78.007	0.640	0.221
-557.471	-142.136	0.877	0.087
-556.456	-158.715	0.581	-0.033
-555.442	-142.928	-0.865	-0.084
-554.427	33.033	-0.383	-0.332
-553.412	-69.875	-0.211	-0.081
-552.398	72.632	-0.338	-0.353
-551.383	555.384	0.130	-0.312
-550.369	-200.000	0.098	-0.457
-549.354	744.347	-0.036	-0.097
-548.339	48.097	-0.206	0.193
-547.325	-42.738	0.233	0.119
-546.310	52.580	0.810	-0.774
-545.296	-74.591	0.488	-0.176
-544.281	80.268	0.496	0.535
-543.266	226.058	-0.271	-0.440
-542.252	-59.547	-0.628	0.270
-541.237	-120.582	0.403	0.068
-540.223	-200.000	-0.131	-0.646
-539.208	-200.000	-0.132	-0.714
-538.193	240.323	-0.144	-0.240
-537.179	-121.654	0.378	-0.063
-536.164	-118.821	-0.626	0.110
-535.150	98.213	0.105	-0.121
-534.135	33.381	0.906	-0.786
-533.121	464.210	0.230	0.515
-532.106	-17.976	-0.201	-0.126
-531.091	111.226	-0.240	-0.289
-530.077	-71.264	-0.507	-0.190
-529.062	-163.431	-0.673	-0.032
-528.048	503.845	0.574	-1.327
-527.033	111.602	-0.441	0.532
-526.018	-200.000	0.017	-0.522
-525.004	800.000	-0.052	0.180
-523.989	800.000	-0.126	-0.388
-522.975	-129.208	-0.526	-0.073
-521.960	-200.000	-0.011	-0.279
-520.945	-82.213	0.834	0.272
-519.931	252.428	-0.247	-0.422
-518.916	800.000	0.089	0.384
-517.902	-162.782	-0.363	0.018
-516.887	-135.230	-0.640	0.077
-515.872	-32.553	-0.704	-0.392
-514.858	-124.617	0.667	0.103
-513.843	-11.362	0.314	-0.207
-512.829	374.621	-0.167	-0.340
-511.814	800.000	-0.226	0.664
-510.799	-21.862	-0.962	0.585
-509.785	800.000	0.202	0.702
-508.770	-35.140	0.657	0.358
-507.756	-84.404	0.578	0.183
-506.741	-81.773	0.379	0.124
-505.726	294.379	0.423	-0.772
-504.712	-125.352	0.476	-0.072
-503.697	-35.928	0.438	-0.237
-502.683	-74.999	-0.898	0.321
-501.668	-200.000	0.027	-0.766
-500.653	-107.558	0.430	0.094
-499.639	-105.779	0.109	0.025
-498.624	274.048	0.394	0.696
-497.610	-27.611	0.751	0.436
-496.595	261.700	-0.129	-0.224
-495.581	-137.338	0.995	-0.113
-494.566	152.776	-0.261	-0.356
-493.551	-21.659	-0.330	0.201
-492.537	-42.369	-0.757	-0.386
-491.522	121.768	-0.317	0.395
-490.508	-200.000	0.028	0.377
-489.493	-24.782	0.494	0.293
-488.478	181.322	0.366	0.538
-487.464	-83.778	-0.624	-0.199
-486.449	-41.387	0.423	-0.218
-485.435	-72.162	0.265	-0.098
-484.420	-200.000	0.016	0.213
-483.405	-94.661	0.556	-0.151
-482.391	800.000	-0.101	0.355
-481.376	-43.303	0.088	0.044
-480.362	-60.446	-0.579	-0.246
-479.347	800.000	0.217	-0.653
-478.332	287.966	-0.219	-0.395
-477.318	97.868	0.280	-0.321
-476.303	365.569	0.050	0.101
-475.289	-96.381	-1.269	-0.335
-474.274	358.864	-0.193	-0.384
-473.259	375.261	-0.137	-0.278
-472.245	-87.456	-0.985	0.298
-471.230	-81.485	0.377	-0.124
-470.216	-131.136	0.390	-0.052
-469.201	800.000	-0.117	0.384
-468.186	-200.000	0.041	0.440
-467.172	446.998	0.291	0.639
-466.157	97.877	-0.295	0.338
-465.143	54.664	0.072	0.069
-464.128	-33.260	-0.743	-0.411
-463.113	59.887	0.236	0.232
-462.099	11.412	-0.596	-0.455
-461.084	51.805	-0.753	0.715
-460.070	800.000	-0.148	0.420
-459.055	-128.665	0.050	0.007
-458.040	605.904	0.081	0.202
-457.026	-200.000	0.012	0.278
-456.011	-200.000	0.061	-0.331
-454.997	-82.718	0.683	0.220
-453.982	432.794	0.347	0.750
-452.968	-89.321	0.307	-0.090
-451.953	154.505	0.330	-0.452
-450.938	12.426	0.498	0.382
-449.924	-74.328	-0.358	0.129
-448.909	-36.718	0.349	0.187
-447.895	65.041	0.875	0.881
-446.880	168.104	0.189	0.268
-445.865	44.998	-0.329	-0.302
-444.851	305.221	0.439	0.812
-443.836	-200.000	0.096	-0.566
-442.822	-200.000	-0.018	-0.265
-441.807	-106.032	-0.741	-0.166
-440.792	800.000	-0.249	0.769
-439.778	19.738	-0.106	0.085
-438.763	-83.220	-0.529	0.169
-437.749	-186.455	0.590	0.008
-436.734	-160.431	-1.086	0.058
-435.719	-200.000	0.026	0.134
-434.705	-71.075	-0.314	0.118
-433.690	9.670	0.897	-0.678
-432.676	-143.466	0.543	0.052
-431.661	-163.884	-0.037	-0.002
-430.646	-73.877	0.246	-0.089
-429.632	-124.757	1.012	-0.156
-428.617	-0.111	-0.632	-0.448
-427.603	-136.422	-0.209	-0.024
-426.588	-0.713	0.744	-0.526
-425.573	-27.446	0.372	-0.215
-424.559	-200.000	-0.137	1.054
-423.544	-200.000	0.657	0.002
-422.530	-188.599	-0.109	-0.001
-421.515	-1.465	0.551	0.387
-420.500	-101.321	0.444	0.108
-419.486	-53.385	-0.298	0.136
-418.471	92.981	-0.482	0.542
-417.457	800.000	0.140	-0.542
-416.442	121.336	0.624	-0.774
-415.428	224.203	0.079	0.128
-414.413	-85.752	-0.555	0.171
-413.398	69.428	0.582	-0.597
-412.384	407.803	0.187	0.393
-411.369	189.702	-0.234	0.350
-410.355	800.000	-0.198	0.589
-409.340	127.319	-0.185	0.234
-408.325	195.255	-0.262	0.396
-407.311	-132.989	-0.533	-0.067
-406.296	800.000	-0.039	-0.118
-405.282	-200.000	0.029	0.184
-404.267	250.109	-0.135	0.228
-403.252	37.929	-0.558	0.494
-402.238	-9.861	0.522	-0.346
-401.223	-200.000	-0.030	-0.212
-400.209	666.947	0.190	0.489
-399.194	-136.537	-0.622	-0.072
-398.179	-29.418	0.568	-0.323
-397.165	-54.987	0.715	-0.321
-396.150	670.893	-0.206	0.532
-395.136	23.105	0.474	0.387
-394.121	800.000	-0.128	0.528
-393.106	340.756	-0.084	-0.163
-392.092	113.553	-0.209	-0.253
-391.077	-49.157	-1.089	0.518
-390.063	229.353	-0.154	0.250
-389.048	56.130	0.397	-0.384
-388.033	-75.265	0.340	0.121
-387.019	114.860	-0.562	0.682
-386.004	17.788	0.681	0.539
-384.990	-200.000	0.043	-0.772
-383.975	-200.000	-0.089	0.539
-382.960	-43.977	0.299	0.150
-381.946	223.259	-0.202	-0.324
-380.931	-200.000	0.139	-0.695
-379.917	-114.396	-0.216	-0.041
-378.902	-13.243	0.590	0.381
-377.888	70.430	-0.467	0.480
-376.873	50.352	-0.120	-0.113
-375.858	221.210	0.381	0.608
-374.844	-133.205	-0.734	-0.092
-373.829	69.179	-0.305	-0.312
-372.815	-38.466	0.304	0.160
-371.800	-200.000	-0.027	0.151
-370.785	-42.476	-0.211	0.107
-369.771	-200.000	0.064	0.465
-368.756	-200.000	-0.017	0.433
-367.742	-61.946	-0.193	-0.080
-366.727	-137.604	0.950	-0.106
-365.712	-120.134	-0.451	-0.077
-364.698	800.000	0.122	0.456
-363.683	326.479	-0.501	0.953
-362.669	800.000	0.121	0.459
-361.654	-47.543	0.302	-0.146
-360.639	-154.823	0.134	-0.009
-359.625	36.878	0.759	-0.667
-358.610	136.966	0.137	0.177
-357.596	-200.000	-0.011	-0.413
-356.581	54.108	-0.534	-0.510
-355.566	161.415	0.282	0.392
-354.552	-145.306	0.680	0.061
-353.537	800.000	-0.025	-0.108
-352.523	18.029	-0.626	-0.495
-351.508	800.000	-0.136	-0.392
-350.493	173.264	0.132	-0.189
-349.479	-89.826	-0.447	-0.130
-348.464	-200.000	-0.065	-0.588
-347.450	622.218	0.129	0.322
-346.435	3.853	0.301	-0.218
-345.420	-145.770	0.300	0.027
-344.406	-200.000	0.005	-0.257
-343.391	800.000	-0.106	-0.324
-342.377	-24.423	0.628	-0.372
-341.362	-111.159	-0.329	0.067
-340.348	123.301	0.436	-0.543
-339.333	-176.387	0.423	-0.011
-338.318	800.000	-0.255	0.740
-337.304	491.723	0.170	0.386
-336.289	-109.348	0.502	-0.106
-335.275	16.969	-0.025	-0.019
-334.260	241.242	-0.312	-0.516
-333.245	-200.000	0.045	0.526
-332.231	329.716	0.108	0.206
-331.216	548.441	0.417	-0.992
-330.202	-60.298	0.359	-0.152
-329.187	89.603	-0.361	-0.400
-328.172	-200.000	0.006	-0.269
-327.158	397.872	0.257	-0.533
-326.143	-21.518	-0.439	-0.266
-325.129	-68.194	0.135	0.052
-324.114	101.112	-0.568	0.656
-323.099	111.641	0.167	0.200
-322.085	225.096	0.150	0.240
-321.070	-112.856	-0.145	0.029
-320.056	800.000	0.166	0.497
-319.041	-200.000	0.102	0.921
-318.026	-93.023	0.439	-0.121
-317.012	-163.260	-0.312	0.015
-315.997	-49.653	0.641	0.302
-314.983	543.418	0.194	-0.460
-313.968	800.000	0.089	0.289
-312.953	-200.000	0.018	-0.563
-311.939	-49.125	-0.092	-0.044
-310.924	-69.503	0.075	0.028
-309.910	417.287	0.133	0.281
-308.895	800.000	-0.086	-0.327
-307.880	-136.002	-0.576	-0.067
-306.866	459.720	-0.168	0.370
-305.851	-200.000	0.029	0.694
-304.837	350.335	-0.208	0.408
-303.822	800.000	0.040	0.163
-302.807	-63.147	-0.506	0.207
-301.793	502.868	-0.563	1.290
-300.778	79.303	-0.523	-0.556
-299.764	193.176	-0.443	0.663
-298.749	-200.000	-0.038	0.190
-297.735	-200.000	-0.022	0.689
-296.720	-200.000	0.158	-0.754
-295.705	-144.753	-0.723	-0.066
-294.691	220.819	-0.441	-0.702
-293.676	-200.000	0.007	-0.439
-292.662	-143.114	0.661	-0.063
-291.647	-200.000	0.064	-0.836
-290.632	-57.481	0.261	-0.113
-289.618	-200.000	0.009	-0.079
-288.603	63.019	0.160	-0.159
-287.589	-200.000	-0.034	0.820
-286.574	800.000	-0.075	0.284
-285.559	-108.964	-0.858	0.181
-284.545	-137.834	-0.261	0.029
-283.530	-161.412	-0.501	0.026
-282.516	-118.281	0.168	-0.030
-281.501	158.250	0.588	-0.808
-280.486	-128.150	-1.036	-0.147
-279.472	-117.892	0.351	0.062
-278.457	170.737	-0.277	0.393
-277.443	5.027	-0.933	-0.680
-276.428	157.923	-0.439	0.602
-275.413	-17.905	0.779	0.484
-274.399	-200.000	-0.040	-0.469
-273.384	-153.871	-0.316	-0.021
-272.370	-177.383	-0.465	-0.011
-271.355	-200.000	0.039	0.625
-270.340	800.000	-0.119	-0.435
-269.326	-149.277	-1.042	-0.082
-268.311	-200.000	-0.148	-0.785
-267.297	-200.000	-0.008	-0.565
-266.282	-126.616	-0.427	-0.063
-265.267	198.624	0.543	-0.823
-264.253	-115.764	0.480	-0.089
-263.238	-172.667	-0.492	-0.015
-262.224	-96.956	-0.700	0.182
-261.209	53.387	0.758	-0.719
-260.195	303.198	0.223	0.409
-259.180	-200.000	0.014	0.376
-258.165	-200.000	-0.184	1.003
-257.151	225.387	-0.114	-0.183
-256.136	52.957	-0.421	-0.399
-255.122	-200.000	-0.039	-0.595
-254.107	27.108	-0.849	0.705
-253.092	602.491	0.007	0.016
-252.078	-200.000	-0.127	0.747
-251.063	20.661	-0.397	-0.318
-250.049	-200.000	0.019	-0.383
-249.034	61.492	-0.163	-0.160
-248.019	28.843	-0.256	-0.215
-247.005	-95.032	0.213	0.057
-245.990	228.386	-0.272	0.439
-244.976	226.162	0.206	0.331
-243.961	-18.542	-0.418	0.258
-242.946	546.062	0.261	-0.617
-241.932	800.000	0.113	0.404
-240.917	-124.897	-1.358	0.207
-239.903	-200.000	0.100	-0.914
-238.888	-68.344	-0.547	-0.210
-237.873	6.889	0.572	0.422
-236.859	749.148	0.284	-0.758
-235.844	-54.684	0.809	0.362
-234.830	-200.000	0.309	-0.000
-233.815	340.154	-0.413	-0.796
-232.800	124.996	0.441	0.550
-231.786	-30.355	0.958	0.538
-230.771	67.641	-0.796	-0.803
-229.757	11.035	-0.307	-0.232
-228.742	453.394	-0.248	-0.543
-227.727	410.390	0.140	-0.294
-226.713	-172.732	0.203	0.006
-225.698	-57.559	0.086	-0.037
-224.684	-68.462	0.693	-0.266
-223.669	71.684	-0.243	0.250
-222.655	377.994	0.169	-0.341
-221.640	800.000	0.146	-0.532
-220.625	-61.261	0.551	0.230
-219.611	-200.000	-0.040	-0.477
-218.596	19.055	-0.382	0.303
-217.582	-108.835	0.404	-0.085
-216.567	-151.519	0.241	-0.018
-215.552	-133.795	-0.288	-0.035
-214.538	713.745	-0.345	0.902
-213.523	-30.973	0.855	0.477
-212.509	160.554	0.323	-0.445
-211.494	-14.950	-0.046	0.029
-210.479	9.480	0.342	0.256
-209.465	669.922	0.039	0.100
-208.450	-71.850	0.928	-0.341
-207.436	99.120	-0.146	-0.167
-206.421	162.465	0.126	0.174
-205.406	64.922	0.511	0.510
-204.392	12.023	-0.376	0.286
-203.377	41.437	0.380	-0.340
-202.363	395.545	-0.120	0.246
-201.348	449.010	-0.149	0.324
-200.333	-102.558	-1.132	0.267
-199.319	-69.522	0.671	0.254
-198.304	-200.000	0.034	0.881
-197.290	-200.000	0.013	-0.517
-196.275	-112.202	0.453	-0.090
-195.260	-50.558	0.644	0.300
-194.246	85.357	-0.244	0.264
-193.231	47.124	0.341	-0.313
-192.217	257.050	-0.155	0.264
-191.202	800.000	-0.101	-0.322
-190.187	-200.000	0.151	0.752
-189.173	354.286	-0.391	0.767
-188.158	-74.367	0.168	0.060
-187.144	-182.102	-0.804	-0.015
-186.129	318.186	-0.041	0.077
-185.114	-89.395	1.359	-0.395
-184.100	-11.763	0.433	-0.280
-183.085	-200.000	0.102	-0.699
-182.071	398.533	-0.253	0.523
-181.056	800.000	-0.101	0.354
-180.042	800.000	-0.114	0.365
-179.027	800.000	0.133	0.464
-178.012	13.066	0.604	0.461
-176.998	-43.884	-0.508	0.252
-175.983	-88.312	0.757	0.223
-174.969	139.759	0.511	0.665
-173.954	-123.863	-0.635	0.099
-172.939	-200.000	0.062	0.327
-171.925	-91.533	-0.570	0.160
-170.910	339.493	-0.309	-0.594
-169.896	-44.463	0.455	-0.224
-168.881	-32.415	0.259	0.143
-167.866	-29.156	-0.467	-0.264
-166.852	-200.000	-0.101	-0.920
-165.837	251.008	-0.228	0.382
-164.823	-108.417	0.977	0.208
-163.808	-57.450	0.533	0.231
-162.793	-50.072	-0.804	0.375
-161.779	673.832	0.088	-0.226
-160.764	800.000	0.192	-0.524
-159.750	-107.033	-0.410	0.089
-158.735	-200.000	-0.013	0.451
-157.720	-116.783	0.779	-0.141
-156.706	-70.947	1.174	-0.436
-155.691	-86.794	-1.087	-0.327
-154.677	-17.025	-0.986	-0.613
-153.662	-68.971	0.817	0.311
-152.647	-200.000	-0.043	0.228
-151.633	269.785	0.071	-0.124
-150.618	175.854	-0.550	0.787
-149.604	38.010	-0.743	-0.651
-148.589	123.894	0.373	-0.461
-147.574	-43.523	0.090	-0.045
-146.560	102.096	0.540	0.622
-145.545	38.729	-0.181	-0.159
-144.531	-200.000	-0.146	-1.032
-143.516	-66.911	0.256	0.100
-142.502	-37.692	-0.206	0.108
-141.487	238.512	-0.437	-0.715
-140.472	218.989	0.358	0.563
-139.458	125.891	-0.293	-0.365
-138.443	93.151	-0.244	0.271
-137.429	421.158	-0.225	-0.476
-136.414	258.691	-0.340	0.577
-135.399	91.047	-0.611	0.675
-134.385	187.948	-0.422	0.621
-133.370	-51.102	0.713	0.329
-132.356	-41.201	-0.722	0.367
-131.341	576.762	-0.100	-0.242
-130.326	252.643	0.370	-0.621
-129.312	77.641	-0.302	0.317
-128.297	41.065	0.138	0.123
-127.283	-24.668	0.692	-0.405
-126.268	3.755	0.658	0.473
-125.253	-39.220	-0.457	0.236
-124.239	-37.635	-0.548	0.288
-123.224	-135.141	0.750	0.089
-122.210	10.947	-0.519	-0.390
-121.195	-200.000	0.056	-0.404
-120.180	565.035	0.074	-0.175
-119.166	-200.000	-0.185	0.889
-118.151	-115.033	-0.060	-0.011
-117.137	800.000	-0.347	1.050
-116.122	-87.155	0.323	-0.097
-115.107	65.167	0.536	0.533
-114.093	713.838	-0.136	-0.354
-113.078	-200.000	-0.108	1.064
-112.064	-200.000	-0.079	-0.504
-111.049	-169.151	0.578	0.021
-110.034	-18.300	0.205	-0.126
-109.020	11.875	-0.220	-0.166
-108.005	-86.801	0.822	-0.247
-106.991	-93.756	0.389	-0.106
-105.976	17.044	-0.457	-0.356
-104.962	470.620	0.204	-0.451
-103.947	684.274	0.169	0.434
-102.932	44.729	0.629	-0.569
-101.918	-129.232	0.809	-0.111
-100.903	-200.000	0.040	0.425
-99.889	-200.000	0.038	0.231
-98.874	-66.166	-0.336	0.132
-97.859	2.620	0.525	-0.374
-96.845	46.441	-0.434	0.396
-95.830	-25.151	-0.542	-0.316
-94.816	-119.236	0.997	0.171
-93.801	-123.156	-0.697	-0.110
-92.786	-81.244	-0.602	-0.196
-91.772	800.000	0.015	0.063
-90.757	-70.548	-0.175	-0.065
-89.743	110.198	0.340	-0.402
-88.728	122.186	0.463	0.569
-87.713	-200.000	-0.065	-0.429
-86.699	-48.934	1.136	-0.535
-85.684	-200.000	0.065	-0.409
-84.670	-200.000	-0.018	-0.703
-83.655	444.327	0.142	-0.306
-82.640	-152.336	-0.852	0.060
-81.626	39.680	-0.313	-0.276
-80.611	209.957	-0.483	-0.744
-79.597	-200.000	0.039	-0.290
-78.582	800.000	0.232	0.654
-77.567	-90.176	-0.573	0.164
-76.553	-156.759	0.504	0.031
-75.538	78.595	0.433	-0.455
-74.524	11.085	0.578	-0.434
-73.509	172.404	-0.074	0.105
-72.494	31.304	-0.751	0.633
-71.480	-200.000	0.120	-0.564
-70.465	800.000	0.155	0.443
-69.451	-200.000	-0.099	0.533
-68.436	-58.514	0.548	-0.234
-67.422	-9.192	-0.326	0.214
-66.407	566.628	-0.247	0.588
-65.392	382.365	0.232	-0.468
-64.378	800.000	-0.136	0.460
-63.363	-200.000	-1.005	0.002
-62.349	155.940	0.200	0.271
-61.334	-58.146	-0.696	-0.298
-60.319	222.090	0.418	-0.660
-59.305	671.798	0.472	-1.200
-58.290	246.548	0.583	0.965
-57.276	90.590	1.319	1.450
-56.261	-200.000	96.264	598.673
-55.246	674.735	1354.292	3451.378
-54.232	203.460	2528.485	3839.848
-53.217	113.000	2245.188	2671.563
-52.203	41.578	1880.307	1671.379
-51.188	35.574	1673.106	1442.233
-50.173	32.922	1630.349	1385.888
-49.159	50.975	1679.927	1562.925
-48.144	51.888	1695.491	1584.137
-47.130	35.091	1654.686	1422.547
-46.115	32.135	1642.073	1389.812
-45.100	31.966	1637.548	1384.677
-44.086	32.219	1633.017	1382.655
-43.071	32.044	1631.104	1379.696
-42.057	32.069	1628.556	1377.670
-41.042	32.139	1626.794	1376.637
-40.027	32.133	1625.242	1375.223
-39.013	32.129	1622.921	1373.177
-37.998	31.898	1622.869	1371.388
-36.984	32.052	1619.138	1369.303
-35.969	32.205	1617.560	1369.033
-34.954	32.289	1616.905	1369.036
-33.940	32.039	1615.761	1366.193
-32.925	32.230	1612.919	1365.119
-31.911	32.214	1612.445	1364.548
-30.896	31.900	1612.234	1362.036
-29.881	32.255	1608.742	1361.606
-28.867	32.189	1606.378	1359.076
-27.852	32.141	1605.087	1357.581
-26.838	32.333	1603.328	1357.427
-25.823	32.437	1601.966	1356.969
-24.809	32.471	1600.030	1355.521
-23.794	32.379	1599.201	1354.098
-22.779	32.119	1598.526	1351.601
-21.765	32.353	1596.397	1351.429
-20.750	32.288	1594.942	1349.678
-19.736	32.319	1593.087	1348.281
-18.721	32.194	1593.036	1347.288
-17.706	32.166	1592.077	1346.218
-16.692	31.885	1590.578	1342.890
-15.677	32.107	1587.424	1341.761
-14.663	32.208	1586.712	1341.826
-13.648	32.159	1585.287	1340.218
-12.633	32.117	1584.437	1339.145
-11.619	32.189	1582.628	1338.079
-10.604	32.210	1581.262	1337.014
-9.590	32.406	1579.433	1336.810
-8.575	32.004	1579.176	1333.684
-7.560	32.248	1577.171	1333.671
-6.546	32.147	1576.077	1331.971
-5.531	32.332	1574.358	1331.778
-4.517	32.174	1573.154	1329.590
-3.502	32.182	1572.378	1328.935
-2.487	32.257	1570.348	1327.700
-1.473	31.964	1557.951	1315.110
-0.458	28.998	1539.530	1278.932
0.556	26.762	1540.018	1246.265
1.571	24.259	1562.963	1247.228
2.586	23.478	1576.000	1252.012
3.600	21.073	1522.547	1193.016
4.615	12.285	1415.202	1052.697
5.629	4.761	1350.972	958.631
6.644	3.495	1342.972	945.117
7.659	3.510	1341.927	944.392
8.673	3.459	1339.823	942.518
9.688	3.056	1339.447	939.707
10.702	3.231	1335.519	937.934
11.717	6.531	1341.970	962.559
12.731	16.069	1358.069	1032.707
13.746	23.462	1369.854	1087.086
14.761	24.817	1373.472	1098.182
15.775	24.768	1370.864	1095.701
16.790	24.638	1369.637	1093.830
17.804	24.073	1369.134	1089.873
18.819	24.138	1369.736	1090.651
19.834	24.100	1368.346	1089.216
20.848	24.052	1367.022	1087.770
21.863	24.264	1366.396	1088.471
22.877	24.556	1364.554	1088.692
23.892	24.426	1364.900	1088.078
24.907	24.424	1364.276	1087.470
25.921	24.374	1362.982	1086.038
26.936	24.394	1361.884	1085.186
27.950	24.335	1360.711	1083.799
28.965	24.499	1359.556	1083.780
29.980	24.638	1359.085	1084.152
30.994	24.352	1359.255	1082.456
32.009	24.562	1356.271	1081.254
33.023	24.630	1354.746	1080.356
34.038	24.613	1354.327	1079.820
35.053	24.479	1353.924	1078.597
36.067	24.495	1351.391	1076.580
37.082	24.451	1351.923	1076.643
38.096	24.421	1350.849	1075.513
39.111	24.464	1350.141	1075.108
40.126	24.321	1349.149	1073.368
41.140	24.069	1349.654	1072.152
42.155	24.103	1347.721	1070.730
43.169	23.821	1348.440	1069.509
44.184	24.079	1347.413	1070.153
45.199	24.137	1346.690	1069.833
46.213	24.095	1347.629	1070.229
47.228	23.903	1347.649	1068.997
48.242	24.463	1344.745	1069.955
49.257	24.278	1343.129	1067.469
50.271	24.096	1343.088	1066.248
51.286	24.501	1340.632	1066.629
52.301	24.316	1340.114	1065.018
53.315	24.308	1339.158	1064.113
54.330	24.106	1338.844	1062.566
55.344	24.276	1337.002	1062.019
56.359	24.123	1335.496	1059.822
57.374	24.015	1334.615	1058.386
58.388	24.177	1333.967	1058.742
59.403	23.969	1334.484	1057.819
60.417	23.821	1333.367	1055.965
61.432	23.960	1331.857	1055.501
62.447	23.777	1331.701	1054.196
63.461	23.764	1331.586	1053.937
64.476	23.892	1329.466	1052.921
65.490	23.658	1329.451	1051.433
66.505	23.820	1326.590	1050.030
67.520	24.086	1324.866	1050.141
68.534	23.913	1324.845	1049.016
69.549	23.806	1323.686	1047.372
70.563	23.754	1322.977	1046.410
71.578	23.789	1321.948	1045.713
72.593	23.717	1321.639	1044.949
73.607	23.740	1320.818	1044.348
74.622	23.788	1319.666	1043.625
75.636	23.704	1319.032	1042.536
76.651	23.828	1318.162	1042.483
77.666	23.972	1317.981	1043.093
78.680	23.666	1318.677	1041.754
79.695	23.928	1316.515	1041.493
80.709	24.017	1315.834	1041.383
81.724	23.919	1316.405	1041.168
82.739	24.000	1314.572	1040.098
83.753	24.241	1314.471	1041.334
84.768	24.415	1314.139	1041.994
85.782	24.416	1312.575	1040.670
86.797	24.471	1311.250	1039.844
87.812	24.371	1310.652	1038.697
88.826	24.621	1308.190	1038.107
89.841	24.372	1309.278	1037.432
90.855	24.679	1307.440	1037.664
91.870	24.522	1308.136	1037.214
92.884	24.748	1305.997	1036.738
93.899	24.783	1304.968	1036.033
94.914	24.910	1303.863	1035.797
95.928	25.067	1303.434	1036.275
96.943	24.690	1301.752	1032.668
97.957	24.413	1301.607	1030.859
98.972	24.431	1301.640	1030.899
99.987	24.572	1300.223	1030.501
101.001	24.670	1298.741	1029.798
102.016	24.619	1297.553	1028.472
103.030	24.368	1297.545	1026.931
104.045	24.672	1296.468	1027.735
105.060	24.518	1295.402	1025.911
106.074	24.282	1293.239	1022.755
107.089	24.094	1292.038	1020.637
108.103	23.643	1291.819	1017.793
109.118	24.040	1289.743	1018.336
110.133	23.815	1288.471	1015.953
111.147	23.688	1288.771	1015.376
112.162	23.772	1287.738	1014.953
113.176	24.050	1285.072	1014.344
114.191	23.755	1285.450	1012.871
115.206	24.060	1284.985	1014.155
116.220	24.229	1282.840	1013.331
117.235	23.857	1283.308	1011.496
118.249	23.864	1281.064	1009.680
119.264	23.902	1279.287	1008.403
120.279	23.941	1278.290	1007.752
121.293	23.866	1277.979	1006.988
122.308	23.600	1277.617	1005.110
123.322	23.652	1276.154	1004.163
124.337	23.675	1275.803	1003.928
125.352	23.639	1274.140	1002.327
126.366	23.845	1273.296	1002.737
127.381	23.721	1272.427	1001.265
128.395	23.572	1271.351	999.494
129.410	23.404	1270.087	997.464
130.424	23.307	1269.905	996.688
131.439	23.642	1268.317	997.234
132.454	23.914	1267.963	998.398
133.468	24.070	1268.185	999.357
134.483	23.935	1267.795	998.202
135.497	24.125	1266.857	998.443
136.512	23.948	1266.454	997.044
137.527	24.168	1264.695	996.801
138.541	23.849	1263.759	994.194
139.556	24.067	1262.010	993.948
140.570	24.455	1261.845	995.893
141.585	24.130	1261.572	993.774
142.600	24.246	1261.550	994.317
143.614	24.628	1259.336	994.615
144.629	24.628	1258.305	993.709
145.643	24.549	1257.703	992.711
146.658	24.255	1256.180	989.786
147.673	23.927	1255.476	987.325
148.687	24.139	1254.833	987.904
149.702	23.977	1252.152	984.809
150.716	23.793	1250.750	982.606
151.731	23.682	1250.026	981.333
152.746	23.748	1249.133	980.912
153.760	24.015	1247.977	981.389
154.775	24.283	1246.721	981.793
155.789	24.325	1246.457	981.730
156.804	24.189	1245.926	980.473
157.819	23.910	1245.508	978.525
158.833	24.191	1244.613	979.280
159.848	24.321	1242.980	978.623
160.862	24.395	1242.721	978.737
161.877	24.141	1240.911	975.836
162.892	23.952	1240.144	974.108
163.906	23.629	1239.378	971.652
164.921	23.874	1237.504	971.439
165.935	24.312	1236.915	973.280
166.950	24.130	1238.009	973.060
167.964	24.202	1236.038	971.818
168.979	23.959	1235.216	969.762
169.994	23.967	1234.996	969.545
171.008	23.811	1234.481	968.208
172.023	24.227	1234.126	970.104
173.037	23.964	1234.474	968.859
174.052	24.263	1233.039	969.276
175.067	24.195	1231.011	967.228
176.081	24.149	1229.788	965.930
177.096	23.934	1229.521	964.468
178.110	23.818	1228.186	962.709
179.125	24.097	1227.117	963.293
180.140	24.250	1225.810	963.011
181.154	24.326	1225.866	963.381
182.169	24.326	1224.414	962.153
183.183	24.414	1223.768	962.035
184.198	24.260	1222.795	960.355
185.213	24.236	1222.117	959.609
186.227	24.305	1221.403	959.335
187.242	24.284	1221.005	958.828
188.256	24.474	1218.346	957.673
189.271	24.427	1218.284	957.286
190.286	24.525	1217.037	956.744
191.300	24.050	1216.129	953.404
192.315	24.122	1216.360	953.887
193.329	24.158	1214.973	952.907
194.344	24.034	1214.944	952.138
195.359	24.187	1212.936	951.299
196.373	23.905	1212.514	949.375
197.388	23.578	1213.110	948.009
198.402	24.144	1212.674	950.612
199.417	24.827	1212.348	953.912
200.432	24.563	1211.591	951.827
201.446	24.465	1211.068	950.808
202.461	24.351	1211.429	950.398
203.475	24.778	1209.616	951.163
204.490	23.995	1208.925	946.376
205.504	23.847	1207.447	944.347
206.519	24.148	1205.605	944.418
207.534	23.936	1203.991	941.951
208.548	23.484	1205.125	940.356
209.563	23.983	1203.713	941.813
210.577	23.867	1200.904	938.922
211.592	24.163	1201.090	940.545
212.607	24.317	1202.232	942.170
213.621	24.411	1201.269	941.827
214.636	24.362	1198.869	939.606
215.650	24.228	1198.209	938.301
216.665	24.635	1197.964	940.168
217.680	24.651	1198.034	940.220
218.694	24.556	1196.777	938.655
219.709	24.677	1194.793	937.647
220.723	24.504	1195.192	936.972
221.738	24.657	1193.647	936.478
222.753	23.935	1193.100	932.185
223.767	24.172	1192.795	933.108
224.782	24.512	1192.502	934.573
225.796	24.755	1191.892	935.284
226.811	24.933	1190.081	934.708
227.826	24.577	1189.018	931.933
228.840	24.515	1188.345	931.003
229.855	24.303	1187.687	929.298
230.869	24.544	1187.699	930.480
231.884	24.147	1187.290	928.010
232.899	23.787	1186.121	925.140
233.913	24.048	1184.467	925.124
234.928	24.378	1184.047	926.428
235.942	23.827	1183.726	923.235
236.957	23.551	1183.821	921.796
237.972	23.899	1181.714	921.876
238.986	23.798	1181.491	921.099
240.001	23.928	1181.530	921.722
241.015	23.952	1179.763	920.386
242.030	24.120	1179.658	921.088
243.045	24.370	1179.304	922.026
244.059	24.124	1179.465	920.797
245.074	24.464	1178.101	921.405
246.088	24.564	1177.287	921.204
247.103	24.590	1176.570	920.695
248.117	24.454	1175.440	919.029
249.132	24.673	1175.752	920.317
250.147	25.055	1175.670	922.138
251.161	25.063	1175.283	921.793
252.176	25.340	1173.827	921.992
253.190	25.271	1172.827	920.773
254.205	25.369	1171.800	920.389
255.220	25.404	1172.047	920.681
256.234	25.295	1171.794	919.841
257.249	25.540	1170.820	920.252
258.263	25.159	1171.010	918.365
259.278	25.204	1168.960	916.906
260.293	25.329	1168.783	917.325
261.307	25.349	1168.056	916.779
262.322	25.471	1167.970	917.249
263.336	25.127	1166.776	914.476
264.351	25.202	1166.514	914.572
265.366	25.249	1166.434	914.671
266.380	25.206	1165.239	913.431
267.395	25.466	1164.056	913.746
268.409	25.327	1163.518	912.537
269.424	25.290	1162.146	911.192
270.439	24.993	1162.838	910.148
271.453	24.975	1161.456	908.890
272.468	24.984	1160.516	908.123
273.482	24.911	1159.742	907.064
274.497	24.465	1160.249	905.119
275.512	24.676	1159.480	905.512
276.526	24.494	1158.033	903.378
277.541	24.782	1156.901	903.871
278.555	24.957	1157.375	905.048
279.570	25.124	1156.662	905.254
280.585	25.311	1155.750	905.400
281.599	24.864	1155.180	902.623
282.614	25.010	1153.158	901.697
283.628	24.704	1152.583	899.626
284.643	24.997	1151.311	900.029
285.657	24.877	1150.780	898.930
286.672	24.761	1149.906	897.583
287.687	24.728	1149.104	896.713
288.701	24.936	1148.857	897.487
289.716	24.880	1148.233	896.640
290.730	25.088	1146.797	896.479
291.745	24.897	1146.167	894.951
292.760	24.649	1147.630	894.774
293.774	24.751	1145.717	893.712
294.789	25.107	1145.187	894.998
295.803	25.033	1145.336	894.663
296.818	25.001	1144.146	893.496
297.833	24.799	1143.288	891.740
298.847	24.839	1142.419	891.181
299.862	24.919	1141.806	891.024
300.876	24.930	1140.389	889.893
301.891	24.957	1139.735	889.438
302.906	25.245	1140.109	891.083
303.920	25.499	1139.275	891.612
304.935	25.362	1140.236	891.606
305.949	25.465	1138.015	890.301
306.964	25.498	1137.233	889.773
307.979	25.441	1136.099	888.524
308.993	25.222	1135.281	886.723
310.008	25.424	1134.459	887.000
311.022	25.317	1134.832	886.688
312.037	25.518	1133.080	886.228
313.052	25.120	1133.078	884.186
314.066	25.096	1130.690	882.129
315.081	24.800	1130.098	880.130
316.095	24.395	1130.111	878.069
317.110	24.764	1128.786	878.780
318.125	24.938	1127.876	878.845
319.139	24.786	1127.034	877.366
320.154	24.964	1125.791	877.194
321.168	24.832	1126.192	876.782
322.183	24.520	1126.167	875.154
323.197	24.909	1125.417	876.401
324.212	24.899	1124.278	875.387
325.227	25.013	1124.657	876.159
326.241	25.048	1123.769	875.564
327.256	24.888	1123.117	874.197
328.270	24.857	1121.845	872.977
329.285	24.971	1120.947	872.754
330.300	24.936	1120.885	872.460
331.314	25.060	1118.821	871.379
332.329	24.777	1119.117	870.158
333.343	24.510	1119.183	868.833
334.358	24.901	1117.772	869.560
335.373	25.281	1117.125	870.823
336.387	25.319	1116.204	870.211
337.402	25.309	1116.248	870.122
338.416	25.435	1114.749	869.484
339.431	25.378	1114.468	868.912
340.446	25.485	1114.311	869.231
341.460	25.872	1114.280	871.001
342.475	25.916	1113.097	870.214
343.489	25.703	1113.032	869.058
344.504	25.610	1112.530	868.139
345.519	25.825	1110.503	867.516
346.533	26.060	1109.551	867.826
347.548	25.919	1108.914	866.571
348.562	26.059	1107.768	866.275
349.577	25.585	1106.223	862.715
350.592	25.549	1104.723	861.296
351.606	25.266	1104.866	859.978
352.621	25.182	1104.952	859.565
353.635	24.972	1104.102	857.819
354.650	25.022	1103.274	857.343
355.665	24.841	1103.085	856.251
356.679	25.240	1101.792	857.082
357.694	25.378	1101.133	857.147
358.708	25.445	1100.423	856.841
359.723	25.503	1100.472	857.080
360.738	25.323	1099.620	855.481
361.752	25.350	1099.587	855.512
362.767	25.215	1098.542	853.980
363.781	25.325	1098.448	854.354
364.796	25.366	1098.394	854.429
365.810	25.921	1097.426	856.239
366.825	25.957	1098.227	856.958
367.840	26.271	1096.731	857.204
368.854	26.228	1096.267	856.565
369.869	25.865	1095.938	854.510
370.883	25.939	1094.413	853.594
371.898	25.867	1093.048	852.115
372.913	25.960	1092.316	851.910
373.927	25.816	1091.626	850.615
374.942	25.994	1092.364	851.957
375.956	25.765	1091.231	849.917
376.971	25.718	1091.799	850.060
377.986	25.744	1091.109	849.572
379.000	26.147	1089.140	849.861
380.015	26.171	1089.959	850.537
381.029	26.140	1089.396	849.878
382.044	26.289	1087.344	848.902
383.059	26.217	1087.487	848.599
384.073	26.005	1086.673	846.892
385.088	25.974	1085.252	845.564
386.102	26.164	1084.401	845.720
387.117	25.974	1082.884	843.571
388.132	25.563	1081.474	840.480
389.146	25.408	1081.713	839.867
390.161	25.357	1081.330	839.253
391.175	25.565	1079.832	838.987
392.190	25.980	1079.672	840.727
393.205	26.161	1078.697	840.735
394.219	26.252	1078.504	840.935
395.234	25.781	1079.082	839.118
396.248	25.536	1076.479	835.881
397.263	25.726	1075.529	835.948
398.278	25.656	1074.905	835.064
399.292	25.964	1073.436	835.276
400.307	25.781	1073.466	834.381
401.321	25.618	1073.514	833.590
402.336	25.153	1072.778	830.786
403.350	25.354	1071.582	830.720
404.365	25.730	1071.101	832.011
405.380	25.643	1070.535	831.096
406.394	25.527	1070.165	830.200
407.409	25.925	1068.987	831.046
408.423	26.378	1069.067	833.124
409.438	26.299	1066.957	831.045
410.453	26.262	1067.658	831.345
411.467	26.327	1066.502	830.669
412.482	26.246	1066.046	829.867
413.496	26.177	1066.254	829.642
414.511	26.464	1065.537	830.326
415.526	26.635	1065.102	830.697
416.540	26.866	1063.478	830.418
417.555	26.503	1064.056	829.132
418.569	26.502	1063.879	828.916
419.584	26.418	1062.199	827.146
420.599	26.338	1062.270	826.764
421.613	153.951	1404.358	1793.035
422.628	141.569	1454.176	1793.180
