DTS Sentinel unit serial number:	SN413079Multiplexer serial number:	ORYXHardware model number:	OX4-SRSoftware version number:	ORYX F/W v4.00 Oryx Data Collector v3.7.2.0data status	okinstallation	princeton_trtdifferential loss correction	single-endedforward channel	channel 2reverse channel	N/Adate	2019/09/15time	01:47:35forward acquisition time	60.00reverse acquisition time	0.00gamma	496.2192k internal	0.2325k external	0.2325temperature offset calibration	1.0030default loss term (dB/km)	0.3790temperature slope calibration	1.0000multiplexer offset coefficient	1.0000multiplexer slope coefficient	1.0000fibre end	0.00T internal ref (°C)	31.81T ext. ref 1 (°C)	4.51T ext. ref 2 (°C)	26.70length (m)	temperature (°C)	Stokes	anti-Stokes-747.200	-54.285	0.140	-0.064
-746.185	-74.264	0.284	-0.104
-745.171	800.000	-0.066	0.274
-744.156	-73.941	-0.108	-0.040
-743.142	-46.678	0.288	-0.142
-742.127	-43.238	-0.399	0.204
-741.112	178.513	-0.076	0.112
-740.098	655.917	-0.077	-0.201
-739.083	231.886	-0.084	0.139
-738.069	-200.000	0.005	0.299
-737.054	216.639	-0.037	-0.060
-736.039	79.074	-0.196	-0.212
-735.025	-200.000	0.012	0.144
-734.010	-200.000	-0.027	0.169
-732.996	-26.038	-0.243	-0.144
-731.981	-200.000	0.024	0.281
-730.966	-200.000	-0.032	-0.304
-729.952	19.956	0.202	-0.164
-728.937	-60.101	0.178	0.076
-727.923	27.036	0.179	0.152
-726.908	-199.383	0.180	-0.001
-725.894	-93.425	-0.136	-0.038
-724.879	-191.280	-0.282	0.003
-723.864	-86.526	0.182	-0.056
-722.850	30.436	-0.449	-0.387
-721.835	-27.608	0.393	0.230
-720.821	41.629	-0.106	0.097
-719.806	800.000	0.038	0.136
-718.791	-0.737	-0.303	0.216
-717.777	-48.321	0.109	0.053
-716.762	-91.677	0.193	-0.055
-715.748	428.506	-0.009	0.020
-714.733	-149.970	-0.071	0.006
-713.718	-200.000	0.015	0.114
-712.704	278.465	-0.260	-0.468
-711.689	-200.000	-0.002	-0.022
-710.675	-3.557	-0.224	-0.157
-709.660	800.000	0.028	-0.122
-708.645	800.000	-0.008	0.022
-707.631	800.000	0.050	-0.216
-706.616	366.764	0.113	-0.229
-705.602	570.444	0.151	-0.370
-704.587	780.667	-0.092	-0.255
-703.572	-91.838	0.076	0.022
-702.558	24.652	0.193	0.161
-701.543	-86.723	0.063	0.019
-700.529	294.387	0.093	-0.172
-699.514	264.181	-0.065	0.115
-698.499	-129.384	0.215	-0.030
-697.485	-200.000	0.000	0.106
-696.470	-200.000	-0.019	-0.137
-695.456	57.517	0.327	0.322
-694.441	-200.000	0.088	-0.408
-693.426	-200.000	-0.036	0.238
-692.412	-13.412	-0.142	-0.093
-691.397	-118.414	0.489	0.087
-690.383	-200.000	-0.017	0.085
-689.368	508.141	0.061	0.143
-688.354	-129.046	0.236	-0.033
-687.339	-90.851	0.290	0.084
-686.324	-200.000	0.014	0.197
-685.310	-178.052	-0.203	0.005
-684.295	22.662	-0.246	0.202
-683.281	496.303	-0.058	-0.134
-682.266	17.607	-0.327	-0.262
-681.251	382.735	0.156	-0.322
-680.237	-8.117	0.104	0.071
-679.222	149.629	-0.132	0.180
-678.208	-78.872	0.120	-0.041
-677.193	49.899	-0.161	0.152
-676.178	-64.177	-0.318	-0.131
-675.164	64.260	-0.514	-0.521
-674.149	-200.000	0.015	-0.094
-673.135	37.275	-0.319	-0.284
-672.120	-0.324	0.313	-0.224
-671.105	-64.903	-0.315	-0.128
-670.091	745.022	0.121	-0.327
-669.076	-185.241	0.273	0.004
-668.062	746.111	0.097	0.262
-667.047	220.592	-0.070	0.113
-666.032	-14.298	0.147	-0.095
-665.018	187.018	0.090	0.136
-664.003	29.801	-0.346	0.296
-662.989	253.810	0.215	0.370
-661.974	55.048	-0.132	0.128
-660.959	13.393	0.217	-0.169
-659.945	-87.612	0.031	0.009
-658.930	9.051	0.221	0.168
-657.916	272.464	-0.053	-0.095
-656.901	-89.404	-0.210	0.062
-655.886	340.996	-0.090	0.178
-654.872	219.230	0.064	0.103
-653.857	-200.000	-0.029	0.168
-652.843	50.179	0.180	0.171
-651.828	-42.065	0.208	-0.107
-650.814	-200.000	0.037	0.297
-649.799	-0.376	-0.273	0.195
-648.784	-101.991	0.149	-0.036
-647.770	341.883	0.060	-0.119
-646.755	800.000	0.054	-0.216
-645.741	3.712	-0.134	0.098
-644.726	-58.324	0.137	0.060
-643.711	444.330	-0.064	0.140
-642.697	-200.000	0.051	-0.541
-641.682	112.583	0.036	-0.044
-640.668	-182.580	0.212	-0.004
-639.653	117.766	-0.324	-0.401
-638.638	580.594	-0.033	-0.081
-637.624	431.879	0.130	0.283
-636.609	111.847	0.092	0.111
-635.595	-200.000	0.044	-0.212
-634.580	235.763	0.114	0.189
-633.565	-107.333	-0.655	-0.145
-632.551	194.091	0.031	0.047
-631.536	800.000	-0.043	0.131
-630.522	-20.525	-0.114	-0.070
-629.507	-47.469	-0.094	-0.046
-628.492	-200.000	-0.062	-0.349
-627.478	-184.781	0.292	0.005
-626.463	-87.377	-0.369	-0.112
-625.449	-5.172	0.130	0.090
-624.434	800.000	0.037	-0.136
-623.419	179.854	-0.129	-0.189
-622.405	800.000	-0.018	-0.061
-621.390	-157.171	0.082	0.005
-620.376	143.332	-0.175	-0.233
-619.361	208.726	0.021	-0.033
-618.346	-12.229	0.468	0.307
-617.332	-200.000	-0.371	0.001
-616.317	-22.522	-0.315	0.191
-615.303	68.897	-0.075	0.078
-614.288	29.011	-0.016	-0.013
-613.273	58.990	-0.131	0.130
-612.259	510.421	0.139	0.325
-611.244	-140.992	-0.250	-0.026
-610.230	800.000	0.044	0.135
-609.215	-49.191	-0.006	0.003
-608.201	-110.649	0.104	-0.022
-607.186	-83.947	-0.336	-0.107
-606.171	-19.796	0.305	0.189
-605.157	-198.671	-0.328	-0.002
-604.142	96.105	0.178	-0.204
-603.128	-7.956	-0.101	-0.068
-602.113	-54.943	0.141	0.064
-601.098	-67.551	-0.092	-0.036
-600.084	188.311	-0.067	-0.100
-599.069	-200.000	-0.017	0.358
-598.055	-200.000	0.011	0.151
-597.040	-98.404	-0.281	0.072
-596.025	18.264	-0.241	0.193
-595.011	-200.000	-0.024	0.190
-593.996	800.000	-0.035	0.111
-592.982	84.010	0.132	-0.145
-591.967	-200.000	-0.019	-0.188
-590.952	2.887	0.203	-0.148
-589.938	800.000	-0.077	-0.227
-588.923	328.217	0.167	0.321
-587.909	419.679	0.037	0.079
-586.894	779.398	-0.023	-0.063
-585.879	103.238	0.152	0.179
-584.865	44.787	0.134	-0.123
-583.850	-170.243	-0.106	-0.004
-582.836	-35.173	0.348	0.190
-581.821	800.000	-0.093	0.330
-580.806	-75.872	-0.217	-0.077
-579.792	62.196	0.102	-0.102
-578.777	-200.000	-0.002	0.259
-577.763	-82.035	-0.223	0.073
-576.748	-36.614	0.203	0.110
-575.733	-173.026	-0.085	0.003
-574.719	12.835	0.055	0.043
-573.704	-104.910	-0.135	0.031
-572.690	363.093	0.022	-0.045
-571.675	-1.470	-0.099	0.070
-570.661	27.612	-0.131	0.110
-569.646	-200.000	0.036	-0.171
-568.631	-56.167	0.241	-0.107
-567.617	-95.995	-0.239	0.064
-566.602	800.000	0.093	-0.324
-565.588	146.608	0.005	-0.007
-564.573	-189.153	-0.353	-0.004
-563.558	650.360	-0.059	-0.152
-562.544	-38.001	-0.149	0.079
-561.529	288.447	-0.093	-0.169
-560.515	800.000	-0.054	-0.178
-559.500	5.277	0.208	-0.154
-558.485	-79.655	-0.351	-0.119
-557.471	800.000	0.033	-0.100
-556.456	-200.000	0.011	-0.054
-555.442	273.032	0.153	0.271
-554.427	24.508	-0.146	0.121
-553.412	205.569	0.133	0.207
-552.398	3.801	0.146	0.107
-551.383	158.583	-0.111	-0.155
-550.369	800.000	-0.040	-0.157
-549.354	701.123	0.061	-0.160
-548.339	144.129	-0.163	-0.218
-547.325	246.617	-0.029	0.048
-546.310	800.000	-0.078	-0.300
-545.296	6.559	-0.086	-0.064
-544.281	-200.000	0.056	-0.268
-543.266	-111.435	0.252	0.051
-542.252	-4.171	0.139	-0.096
-541.237	-163.937	-0.485	0.023
-540.223	-51.926	0.482	0.224
-539.208	-82.961	-0.239	-0.077
-538.193	-123.838	-0.126	-0.020
-537.179	642.723	-0.035	0.089
-536.164	-60.788	0.105	-0.045
-535.150	800.000	0.044	0.123
-534.135	-5.960	-0.102	-0.070
-533.121	-200.000	0.051	-0.359
-532.106	200.416	0.170	0.262
-531.091	-61.376	0.231	0.097
-530.077	437.424	-0.150	-0.327
-529.062	32.717	0.008	0.007
-528.048	800.000	0.132	-0.392
-527.033	-93.950	-0.129	0.036
-526.018	147.124	0.128	0.172
-525.004	-184.206	-0.388	-0.006
-523.989	-200.000	-0.038	-0.249
-522.975	-122.010	-0.344	0.057
-521.960	84.464	-0.187	0.204
-520.945	88.206	0.043	-0.048
-519.931	-152.033	0.074	-0.005
-518.916	-82.800	-0.142	-0.046
-517.902	710.607	0.076	-0.201
-516.887	0.129	-0.087	0.062
-515.872	344.513	-0.051	0.100
-514.858	84.479	0.267	0.293
-513.843	79.613	0.264	-0.283
-512.829	-74.579	0.404	0.145
-511.814	-118.161	-0.154	0.028
-510.799	-56.279	-0.363	0.161
-509.785	800.000	-0.051	-0.211
-508.770	421.624	-0.120	-0.256
-507.756	-200.000	-0.031	0.244
-506.741	-91.392	0.075	-0.021
-505.726	187.588	-0.176	0.262
-504.712	17.281	0.111	-0.088
-503.697	-172.166	0.339	-0.011
-502.683	753.375	0.008	-0.023
-501.668	-200.000	0.031	-0.302
-500.653	800.000	0.056	-0.216
-499.639	29.903	-0.099	0.084
-498.624	39.787	0.126	0.113
-497.610	43.710	-0.198	0.181
-496.595	-44.017	-0.160	0.080
-495.581	12.071	-0.041	-0.031
-494.566	-123.746	0.179	-0.028
-493.551	800.000	-0.033	0.114
-492.537	-29.557	0.060	0.034
-491.522	-118.527	-0.343	-0.061
-490.508	139.544	-0.120	-0.157
-489.493	-103.089	-0.301	-0.071
-488.478	242.590	-0.172	0.288
-487.464	800.000	0.109	-0.329
-486.449	-95.954	0.367	-0.098
-485.435	-200.000	0.007	-0.212
-484.420	-107.275	-0.267	-0.059
-483.405	-144.031	0.075	0.007
-482.391	-84.453	0.092	-0.029
-481.376	-67.852	0.312	0.122
-480.362	-62.503	0.352	-0.146
-479.347	-72.417	-0.311	-0.115
-478.332	569.256	-0.138	-0.335
-477.318	-178.362	0.481	0.011
-476.303	148.102	-0.048	-0.065
-475.289	251.204	0.106	-0.179
-474.274	800.000	0.051	0.193
-473.259	84.998	0.104	0.114
-472.245	45.632	-0.087	-0.080
-471.230	219.016	-0.215	0.344
-470.216	-160.797	0.349	-0.018
-469.201	364.168	-0.227	-0.456
-468.186	228.200	-0.144	-0.233
-467.172	-200.000	-0.035	0.288
-466.157	-85.845	0.029	0.009
-465.143	250.792	-0.057	0.096
-464.128	-200.000	0.000	0.071
-463.113	395.409	-0.038	-0.079
-462.099	37.714	0.139	-0.123
-461.084	-85.088	0.482	0.151
-460.070	-120.782	-0.112	-0.019
-459.055	-7.059	0.143	-0.097
-458.040	53.381	0.070	0.067
-457.026	147.058	-0.239	0.321
-456.011	-29.930	0.119	0.067
-454.997	147.208	0.018	-0.025
-453.982	211.854	-0.106	-0.167
-452.968	-200.000	0.009	-0.141
-451.953	33.557	0.117	-0.101
-450.938	-200.000	0.006	0.117
-449.924	-91.529	-0.357	-0.101
-448.909	344.551	-0.032	-0.062
-447.895	68.160	0.064	-0.066
-446.880	-95.733	-0.156	0.041
-445.865	800.000	0.066	0.218
-444.851	352.768	-0.120	-0.237
-443.836	-200.000	-0.040	0.384
-442.822	800.000	0.116	0.357
-441.807	-107.664	0.041	0.009
-440.792	-17.887	0.177	0.111
-439.778	-130.334	-0.233	0.032
-438.763	-33.374	-0.367	-0.202
-437.749	-144.606	-0.163	-0.015
-436.734	301.685	0.173	-0.319
-435.719	800.000	0.047	-0.144
-434.705	-22.753	-0.203	-0.122
-433.690	404.316	-0.022	-0.045
-432.676	-137.543	-0.209	0.024
-431.661	-200.000	0.038	0.391
-430.646	-182.593	-0.191	-0.003
-429.632	-22.917	-0.047	-0.029
-428.617	-123.281	0.295	0.047
-427.603	137.890	-0.118	-0.154
-426.588	-200.000	-0.011	-0.367
-425.573	-55.231	0.166	0.074
-424.559	-200.000	-0.000	-0.138
-423.544	-50.336	-0.441	0.208
-422.530	-200.000	-0.006	0.201
-421.515	-142.806	-0.260	-0.025
-420.500	-86.489	0.195	0.060
-419.486	347.258	0.122	0.240
-418.471	126.482	0.126	-0.159
-417.457	549.590	-0.062	-0.148
-416.442	800.000	0.065	-0.281
-415.428	-200.000	0.001	0.235
-414.413	-152.258	-0.207	0.015
-413.398	-154.991	-0.311	-0.020
-412.384	-200.000	-0.122	0.572
-411.369	-52.132	-0.248	0.115
-410.355	-103.496	0.219	-0.051
-409.340	-200.000	-0.051	-0.249
-408.325	-200.000	-0.005	0.072
-407.311	775.079	0.095	-0.257
-406.296	122.701	0.117	0.145
-405.282	324.032	0.243	-0.462
-404.267	-120.026	0.086	0.015
-403.252	176.522	0.201	-0.291
-402.238	-49.757	-0.052	0.024
-401.223	551.153	-0.099	0.237
-400.209	-200.000	-0.018	-0.204
-399.194	-59.177	-0.151	-0.065
-398.179	-200.000	0.027	0.358
-397.165	132.656	-0.023	0.030
-396.150	132.555	-0.200	0.257
-395.136	135.359	0.193	0.250
-394.121	83.367	-0.052	0.057
-393.106	-75.357	-0.125	0.044
-392.092	692.061	-0.046	-0.120
-391.077	-173.217	0.272	0.008
-390.063	-200.000	-0.071	-0.321
-389.048	-57.490	0.017	0.008
-388.033	323.295	0.165	-0.313
-387.019	-165.804	0.210	0.009
-386.004	-73.466	-0.104	0.038
-384.990	171.851	0.126	-0.180
-383.975	-86.048	0.174	0.053
-382.960	17.968	-0.179	0.142
-381.946	-200.000	-0.004	-0.017
-380.931	-195.545	0.157	0.001
-379.917	-1.842	0.253	-0.177
-378.902	800.000	-0.093	-0.271
-377.888	-81.103	-0.164	-0.054
-376.873	40.185	0.035	-0.031
-375.858	-200.000	0.002	-0.194
-374.844	-91.184	-0.089	0.025
-373.829	-144.297	0.400	0.037
-372.815	-200.000	0.003	-0.079
-371.800	-117.483	0.183	0.033
-370.785	128.261	-0.217	-0.275
-369.771	279.817	-0.050	-0.089
-368.756	-87.822	-0.074	-0.022
-367.742	-119.639	0.134	-0.023
-366.727	-200.000	0.068	0.410
-365.712	-200.000	-0.017	0.129
-364.698	-48.848	-0.240	-0.115
-363.683	-24.998	0.068	-0.040
-362.669	63.166	-0.171	-0.170
-361.654	66.522	0.089	0.090
-360.639	2.193	0.190	-0.136
-359.625	800.000	-0.127	-0.450
-358.610	800.000	0.015	-0.065
-357.596	-82.533	0.179	0.058
-356.581	22.711	0.131	-0.106
-355.566	-127.360	0.152	-0.022
-354.552	-64.583	-0.131	-0.053
-353.537	800.000	0.092	0.259
-352.523	-134.792	-0.512	0.062
-351.508	-94.723	-0.339	-0.091
-350.493	-200.000	-0.027	0.212
-349.479	-129.891	0.237	-0.032
-348.464	192.603	0.118	0.177
-347.450	-200.000	-0.030	0.226
-346.435	44.158	-0.268	-0.244
-345.420	135.425	0.036	0.047
-344.406	-114.165	-0.050	-0.010
-343.391	-114.561	-0.345	0.066
-342.377	-52.482	-0.232	-0.107
-341.362	34.606	0.225	0.195
-340.348	-200.000	-0.102	-0.512
-339.333	-91.349	0.308	0.087
-338.318	462.418	-0.094	-0.207
-337.304	-89.296	-0.152	0.045
-336.289	136.138	-0.238	0.308
-335.275	-200.000	0.001	-0.164
-334.260	800.000	-0.116	0.367
-333.245	14.292	0.340	0.264
-332.231	172.461	-0.200	-0.286
-331.216	-200.000	0.002	-0.110
-330.202	800.000	-0.030	0.120
-329.187	-200.000	0.042	0.200
-328.172	73.309	0.221	0.230
-327.158	-200.000	-0.009	0.115
-326.143	-32.435	-0.113	-0.063
-325.129	-23.325	0.186	-0.111
-324.114	-16.460	0.250	-0.158
-323.099	-40.513	0.034	0.017
-322.085	457.707	-0.054	-0.119
-321.070	295.783	0.060	-0.110
-320.056	-32.960	0.136	0.075
-319.041	800.000	-0.070	0.252
-318.026	-144.627	0.350	0.032
-317.012	800.000	0.074	0.261
-315.997	-96.473	0.201	0.053
-314.983	-34.885	0.120	-0.065
-313.968	-19.148	-0.149	-0.092
-312.953	-20.128	0.011	0.006
-311.939	163.058	0.043	0.060
-310.924	-200.000	-0.011	0.107
-309.910	377.414	0.030	0.060
-308.895	-36.298	0.355	0.190
-307.880	-21.203	-0.069	0.042
-306.866	123.941	0.062	-0.078
-305.851	-78.838	-0.232	0.079
-304.837	-1.449	0.264	0.185
-303.822	-176.435	-0.244	-0.006
-302.807	-75.399	-0.076	0.027
-301.793	-63.312	-0.413	0.169
-300.778	-33.206	0.048	0.026
-299.764	-200.000	0.016	-0.293
-298.749	8.784	-0.168	-0.125
-297.735	28.228	0.185	0.155
-296.720	-38.565	-0.047	-0.025
-295.705	800.000	-0.023	-0.066
-294.691	-46.470	-0.236	0.115
-293.676	-114.758	-0.149	-0.028
-292.662	-200.000	-0.010	-0.156
-291.647	110.221	0.183	0.218
-290.632	264.564	0.149	0.257
-289.618	12.051	0.116	-0.088
-288.603	-137.753	-0.202	-0.022
-287.589	-48.194	0.163	-0.078
-286.574	-87.567	0.215	0.064
-285.559	406.252	-0.028	-0.059
-284.545	98.656	-0.054	0.061
-283.530	800.000	-0.026	0.085
-282.516	-73.542	0.103	0.037
-281.501	148.667	0.199	0.266
-280.486	-158.048	-0.144	-0.008
-279.472	800.000	0.100	0.374
-278.457	-12.523	-0.174	-0.113
-277.443	-127.727	0.155	-0.022
-276.428	-23.906	-0.137	-0.081
-275.413	55.338	-0.335	0.321
-274.399	-31.758	0.208	0.115
-273.384	-27.495	0.343	-0.197
-272.370	-26.435	-0.303	0.176
-271.355	-200.000	0.019	-0.303
-270.340	202.267	-0.041	-0.062
-269.326	-16.334	-0.234	0.147
-268.311	125.263	0.216	-0.270
-267.297	-165.263	0.560	0.024
-266.282	54.777	0.146	0.139
-265.267	257.090	0.260	0.442
-264.253	800.000	-0.057	0.194
-263.238	-200.000	0.022	0.134
-262.224	-94.283	-0.224	-0.061
-261.209	12.488	-0.178	0.136
-260.195	-35.979	-0.351	0.188
-259.180	800.000	-0.047	-0.185
-258.165	-31.374	-0.216	-0.120
-257.151	-64.774	0.039	-0.015
-256.136	800.000	0.056	-0.201
-255.122	344.576	0.088	-0.170
-254.107	-90.548	-0.135	-0.039
-253.092	443.972	-0.135	0.294
-252.078	-96.496	-0.122	0.032
-251.063	108.784	-0.110	-0.130
-250.049	159.206	-0.137	0.188
-249.034	-158.950	-0.027	-0.002
-248.019	66.543	0.197	-0.198
-247.005	-47.626	-0.318	0.153
-245.990	412.286	0.110	-0.232
-244.976	263.939	0.127	-0.218
-243.961	-64.461	0.289	-0.116
-242.946	222.742	-0.197	0.315
-241.932	-200.000	-0.034	-0.305
-240.917	-45.257	0.311	-0.153
-239.903	74.110	0.179	0.186
-238.888	-73.541	0.277	0.100
-237.873	-9.685	0.151	-0.100
-236.859	99.482	0.041	-0.047
-235.844	-200.000	-0.003	-0.028
-234.830	-158.352	0.131	0.008
-233.815	-200.000	-0.024	0.136
-232.800	315.018	-0.114	-0.212
-231.786	-153.676	0.079	-0.005
-230.771	52.040	-0.178	-0.168
-229.757	800.000	-0.013	0.044
-228.742	-200.000	-0.004	-0.056
-227.727	32.312	-0.296	0.253
-226.713	-51.351	-0.048	0.022
-225.698	-190.898	0.022	0.000
-224.684	-108.773	-0.144	0.031
-223.669	-34.157	-0.143	-0.077
-222.655	474.389	-0.089	0.198
-221.640	800.000	-0.052	0.221
-220.625	477.735	0.098	-0.220
-219.611	23.851	-0.192	-0.156
-218.596	-58.470	0.342	-0.147
-217.582	47.914	0.164	0.151
-216.567	182.765	0.080	0.117
-215.552	-55.802	-0.162	0.072
-214.538	-200.000	0.002	0.228
-213.523	-74.087	-0.183	-0.066
-212.509	-88.890	-0.131	0.038
-211.494	193.406	0.064	0.096
-210.479	279.751	-0.098	-0.173
-209.465	97.913	0.138	0.157
-208.450	-200.000	0.033	-0.192
-207.436	-200.000	-0.019	-0.248
-206.421	265.755	0.174	0.300
-205.406	-77.235	0.456	-0.157
-204.392	800.000	0.068	-0.190
-203.377	83.335	0.164	-0.177
-202.363	324.771	-0.040	-0.076
-201.348	226.710	-0.061	-0.098
-200.333	-140.865	0.329	0.033
-199.319	-72.009	-0.186	-0.068
-198.304	-90.590	0.282	0.080
-197.290	-188.382	0.138	0.002
-196.275	-111.620	-0.158	-0.032
-195.260	289.217	0.123	0.220
-194.246	-89.262	-0.185	0.054
-193.231	17.100	0.131	-0.103
-192.217	-200.000	-0.022	0.146
-191.202	-37.445	0.159	0.084
-190.187	-200.000	-0.070	-0.562
-189.173	23.838	0.234	0.190
-188.158	232.113	0.151	-0.244
-187.144	-82.544	-0.140	0.045
-186.129	-43.491	0.127	-0.063
-185.114	31.011	0.090	0.076
-184.100	38.649	0.197	0.173
-183.085	-100.656	-0.098	-0.024
-182.071	-200.000	-0.027	-0.178
-181.056	800.000	0.011	-0.045
-180.042	-86.904	0.209	0.063
-179.027	-200.000	-0.012	0.330
-178.012	510.965	0.067	0.153
-176.998	-9.358	0.281	-0.185
-175.983	-124.047	0.140	0.022
-174.969	800.000	0.061	-0.186
-173.954	-129.627	-0.156	0.021
-172.939	108.808	-0.063	0.074
-171.925	-1.944	-0.071	-0.050
-170.910	-142.746	-0.075	0.007
-169.896	370.627	-0.078	0.155
-168.881	800.000	0.045	-0.183
-167.866	-72.204	0.377	0.138
-166.852	83.714	-0.054	-0.058
-165.837	-200.000	0.042	0.316
-164.823	17.964	0.142	0.111
-163.808	-87.179	0.177	0.053
-162.793	42.227	-0.341	0.306
-161.779	7.377	0.095	0.070
-160.764	-179.722	0.192	0.004
-159.750	263.930	-0.114	-0.196
-158.735	390.097	0.060	0.123
-157.720	-121.865	-0.273	-0.044
-156.706	-200.000	0.002	0.327
-155.691	192.817	0.253	0.377
-154.677	498.156	0.039	-0.090
-153.662	738.143	0.122	0.322
-152.647	800.000	0.010	-0.034
-151.633	-122.029	0.144	-0.023
-150.618	44.768	-0.118	-0.107
-149.604	-36.092	0.156	-0.083
-148.589	-85.682	-0.273	-0.084
-147.574	199.843	0.029	0.044
-146.560	470.379	0.168	0.372
-145.545	118.555	0.167	0.203
-144.531	800.000	-0.125	0.486
-143.516	567.447	0.081	0.193
-142.502	-13.965	-0.054	0.034
-141.487	-110.369	0.291	-0.060
-140.472	-136.536	-0.376	-0.043
-139.458	800.000	-0.047	0.178
-138.443	146.339	0.245	0.325
-137.429	-95.739	0.223	-0.059
-136.414	-95.130	0.126	0.034
-135.399	-45.900	0.187	0.091
-134.385	-25.563	-0.260	-0.151
-133.370	-80.867	0.214	0.070
-132.356	65.192	-0.261	-0.260
-131.341	9.105	-0.229	0.170
-130.326	-200.000	-0.045	0.225
-129.312	-86.943	-0.228	0.068
-128.297	-40.503	0.206	-0.105
-127.283	-81.511	0.227	0.074
-126.268	-146.089	0.231	0.020
-125.253	-13.504	-0.132	0.084
-124.239	-200.000	-0.019	0.184
-123.224	-200.000	-0.007	0.213
-122.210	800.000	0.058	0.203
-121.195	-153.385	0.105	-0.007
-120.180	-53.936	-0.103	0.046
-119.166	-93.555	0.208	0.057
-118.151	-200.000	-0.044	-0.296
-117.137	615.066	-0.038	-0.094
-116.122	24.736	0.163	0.133
-115.107	-51.444	-0.195	-0.090
-114.093	-137.370	0.330	-0.037
-113.078	191.384	-0.091	-0.136
-112.064	216.050	0.085	-0.132
-111.049	-72.572	0.320	-0.116
-110.034	683.210	-0.168	-0.432
-109.020	-200.000	0.015	-0.087
-108.005	-122.522	-0.149	0.024
-106.991	329.827	-0.155	0.293
-105.976	-200.000	-0.013	0.202
-104.962	-200.000	0.043	0.285
-103.947	-114.377	-0.359	-0.068
-102.932	-200.000	0.015	0.087
-101.918	289.226	0.030	0.054
-100.903	94.292	-0.173	-0.193
-99.889	-160.909	-0.030	0.002
-98.874	-101.359	-0.228	0.055
-97.859	-200.000	-0.002	-0.033
-96.845	653.389	0.086	0.217
-95.830	800.000	0.022	-0.087
-94.816	355.382	0.050	0.098
-93.801	-136.661	0.226	0.026
-92.786	-21.046	0.117	-0.070
-91.772	-120.311	-0.239	0.040
-90.757	11.005	0.326	0.245
-89.743	68.716	0.051	-0.052
-88.728	800.000	0.022	-0.081
-87.713	-200.000	0.016	0.183
-86.699	-32.900	0.330	0.180
-85.684	33.788	-0.215	-0.184
-84.670	-121.493	0.250	0.041
-83.655	43.035	0.168	-0.151
-82.640	-159.382	0.196	0.011
-81.626	107.397	-0.126	0.147
-80.611	-99.260	-0.188	-0.047
-79.597	142.276	0.063	-0.082
-78.582	98.776	-0.159	0.180
-77.567	-200.000	-0.018	0.216
-76.553	113.617	-0.155	0.185
-75.538	25.567	0.282	0.231
-74.524	-88.721	0.173	0.051
-73.509	77.945	0.122	0.128
-72.494	-21.751	0.271	-0.162
-71.480	-69.234	-0.286	0.108
-70.465	-89.214	0.087	-0.025
-69.451	-200.000	-0.014	-0.154
-68.436	681.402	-0.086	-0.221
-67.422	-95.415	0.322	0.085
-66.407	800.000	0.112	0.339
-65.392	-200.000	0.030	0.139
-64.378	-99.341	-0.163	-0.040
-63.363	-147.488	-0.072	0.006
-62.349	235.284	-0.167	-0.271
-61.334	137.069	-0.811	-1.041
-60.319	377.642	0.287	0.576
-59.305	800.000	-0.291	-1.101
-58.290	313.676	0.636	1.176
-57.276	800.000	0.483	1.489
-56.261	-200.000	96.534	600.416
-55.246	650.769	1375.972	3460.805
-54.232	197.962	2559.960	3842.337
-53.217	114.045	2268.602	2709.949
-52.203	41.480	1895.602	1684.872
-51.188	35.077	1686.470	1450.614
-50.173	32.368	1642.383	1392.615
-49.159	50.136	1689.011	1565.810
-48.144	51.747	1705.380	1592.999
-47.130	34.742	1666.324	1430.550
-46.115	31.974	1652.282	1397.849
-45.100	31.851	1647.453	1392.796
-44.086	31.744	1644.956	1389.835
-43.071	31.621	1642.348	1386.666
-42.057	31.687	1640.006	1385.120
-41.042	31.782	1637.487	1383.637
-40.027	31.754	1635.980	1382.106
-39.013	31.679	1633.950	1379.785
-37.998	31.588	1632.795	1378.084
-36.984	31.722	1630.954	1377.459
-35.969	31.807	1629.592	1376.877
-34.954	31.794	1628.063	1375.436
-33.940	31.880	1626.070	1374.326
-32.925	31.821	1624.538	1372.549
-31.911	31.778	1622.567	1370.515
-30.896	31.796	1620.723	1369.032
-29.881	31.834	1619.580	1368.293
-28.867	31.821	1617.425	1366.318
-27.852	31.798	1615.861	1364.775
-26.838	31.787	1614.448	1363.450
-25.823	31.716	1613.690	1362.236
-24.809	31.927	1611.542	1361.903
-23.794	31.877	1610.625	1360.714
-22.779	31.896	1608.717	1359.185
-21.765	31.849	1607.397	1357.672
-20.750	31.863	1605.633	1356.231
-19.736	31.830	1604.229	1354.756
-18.721	31.818	1603.094	1353.654
-17.706	31.892	1601.165	1352.504
-16.692	31.811	1599.791	1350.709
-15.677	31.798	1598.992	1349.884
-14.663	31.944	1597.279	1349.435
-13.648	31.906	1596.299	1348.285
-12.633	31.839	1594.916	1346.577
-11.619	31.854	1593.211	1345.197
-10.604	31.785	1591.620	1343.301
-9.590	31.775	1590.349	1342.105
-8.575	31.861	1589.168	1341.674
-7.560	31.784	1587.721	1339.843
-6.546	31.827	1586.377	1338.964
-5.531	31.906	1584.964	1338.283
-4.517	31.826	1583.894	1336.757
-3.502	31.920	1582.996	1336.615
-2.487	31.928	1581.236	1335.132
-1.473	31.604	1569.726	1323.070
-0.458	28.897	1550.429	1287.823
0.556	24.664	1550.939	1256.665
1.571	22.242	1574.407	1258.260
2.586	21.788	1587.089	1265.007
3.600	19.363	1533.061	1204.912
4.615	11.702	1426.364	1070.962
5.629	5.414	1364.807	985.143
6.644	4.594	1356.947	974.247
7.659	4.463	1355.580	972.359
8.673	4.438	1354.692	971.475
9.688	4.525	1353.045	970.752
10.702	4.262	1350.690	967.339
11.717	7.166	1355.552	988.887
12.731	14.444	1368.649	1044.097
13.746	19.049	1375.309	1078.006
14.761	18.804	1373.908	1075.275
15.775	17.749	1371.538	1066.731
16.790	16.682	1368.451	1057.576
17.804	15.925	1366.279	1051.078
18.819	15.503	1365.354	1047.642
19.834	15.306	1363.601	1044.976
20.848	14.980	1362.901	1042.318
21.863	14.817	1361.025	1039.777
22.877	14.698	1360.496	1038.542
23.892	14.737	1358.997	1037.545
24.907	14.595	1358.387	1036.109
25.921	14.679	1357.492	1035.853
26.936	14.643	1356.683	1034.923
27.950	14.720	1355.770	1034.613
28.965	14.767	1354.780	1034.054
29.980	14.836	1353.268	1033.236
30.994	14.934	1352.526	1033.184
32.009	15.003	1351.461	1032.703
33.023	15.008	1349.964	1031.499
34.038	14.914	1348.592	1029.778
35.053	14.751	1347.354	1027.739
36.067	14.819	1345.950	1026.997
37.082	14.861	1345.210	1026.601
38.096	14.922	1344.159	1026.079
39.111	14.849	1343.414	1024.977
40.126	14.738	1342.475	1023.487
41.140	14.658	1341.684	1022.301
42.155	14.586	1341.229	1021.424
43.169	14.618	1341.046	1021.392
44.184	14.530	1340.993	1020.724
45.199	14.619	1340.248	1020.607
46.213	14.618	1339.902	1020.252
47.228	14.739	1338.930	1020.156
48.242	14.784	1337.970	1019.610
49.257	14.793	1336.035	1018.098
50.271	14.683	1334.892	1016.470
51.286	14.777	1333.727	1016.066
52.301	14.802	1332.042	1014.844
53.315	14.678	1331.116	1013.294
54.330	14.615	1330.329	1012.225
55.344	14.750	1328.587	1011.628
56.359	14.613	1328.092	1010.334
57.374	14.670	1326.720	1009.545
58.388	14.482	1326.475	1008.131
59.403	14.461	1325.963	1007.528
60.417	14.458	1324.887	1006.598
61.432	14.561	1323.928	1006.403
62.447	14.503	1323.279	1005.469
63.461	14.449	1321.861	1003.983
64.476	14.417	1320.930	1002.995
65.490	14.377	1319.668	1001.706
66.505	14.401	1318.241	1000.679
67.520	14.423	1317.196	999.924
68.534	14.430	1316.069	999.027
69.549	14.456	1314.781	998.113
70.563	14.524	1313.757	997.658
71.578	14.416	1312.799	996.193
72.593	14.294	1312.113	994.855
73.607	14.269	1311.263	993.977
74.622	14.302	1310.221	993.296
75.636	14.304	1309.737	992.853
76.651	14.314	1308.993	992.261
77.666	14.456	1308.250	992.451
78.680	14.385	1307.702	991.528
79.695	14.408	1307.086	991.109
80.709	14.462	1306.342	990.780
81.724	14.423	1306.033	990.226
82.739	14.605	1304.884	990.344
83.753	14.646	1303.826	989.696
84.768	14.695	1303.314	989.510
85.782	14.840	1301.658	989.025
86.797	14.781	1300.371	987.615
87.812	14.703	1299.312	986.259
88.826	14.721	1298.168	985.410
89.841	14.782	1297.036	984.821
90.855	14.741	1296.617	984.174
91.870	14.941	1295.022	984.056
92.884	14.853	1295.013	983.442
93.899	14.983	1293.531	982.992
94.914	14.846	1293.193	981.849
95.928	14.908	1292.353	981.488
96.943	14.939	1291.079	980.614
97.957	14.806	1290.263	979.130
98.972	14.768	1289.236	978.039
99.987	14.835	1288.113	977.492
101.001	14.779	1287.312	976.472
102.016	14.867	1286.183	976.039
103.030	14.891	1285.337	975.454
104.045	14.807	1285.048	974.660
105.060	14.751	1283.328	972.939
106.074	14.645	1281.955	971.196
107.089	14.484	1280.424	969.017
108.103	14.493	1279.109	967.985
109.118	14.482	1277.773	966.826
110.133	14.702	1276.197	966.824
111.147	14.547	1275.157	965.051
112.162	14.568	1273.856	964.106
113.176	14.580	1272.608	963.145
114.191	14.628	1272.010	962.884
115.206	14.560	1271.136	961.744
116.220	14.554	1269.806	960.618
117.235	14.608	1268.448	959.819
118.249	14.505	1268.310	959.032
119.264	14.526	1266.520	957.720
120.279	14.503	1265.269	956.553
121.293	14.510	1264.318	955.789
122.308	14.459	1263.286	954.634
123.322	14.455	1262.379	953.843
124.337	14.387	1261.012	952.334
125.352	14.483	1260.030	952.058
126.366	14.439	1259.001	950.947
127.381	14.495	1257.803	950.277
128.395	14.490	1256.971	949.534
129.410	14.558	1255.895	949.024
130.424	14.487	1255.750	948.428
131.439	14.620	1254.164	947.901
132.454	14.671	1253.013	947.234
133.468	14.553	1252.545	946.127
134.483	14.636	1252.009	946.110
135.497	14.659	1250.732	945.195
136.512	14.683	1249.262	944.137
137.527	14.620	1248.250	942.930
138.541	14.702	1246.624	942.082
139.556	14.654	1245.287	940.717
140.570	14.802	1244.323	940.739
141.585	14.779	1243.397	939.827
142.600	14.902	1242.047	939.412
143.614	14.884	1241.315	938.674
144.629	14.919	1240.168	937.922
145.643	14.944	1239.075	937.154
146.658	14.810	1237.879	935.414
147.673	14.712	1236.844	934.004
148.687	14.773	1235.212	933.024
149.702	14.628	1234.019	931.235
150.716	14.689	1232.737	930.522
151.731	14.748	1231.531	929.861
152.746	14.722	1230.701	929.009
153.760	14.689	1229.706	927.989
154.775	14.811	1228.309	927.531
155.789	14.786	1227.760	926.897
156.804	14.940	1226.538	926.745
157.819	14.940	1225.186	925.639
158.833	14.924	1224.740	925.134
159.848	14.981	1223.745	924.615
160.862	14.968	1222.919	923.837
161.877	14.861	1221.508	922.098
162.892	14.707	1220.303	920.258
163.906	14.864	1219.215	920.221
164.921	14.808	1218.718	919.457
165.935	14.911	1217.517	919.038
166.950	14.894	1217.030	918.495
167.964	14.854	1216.152	917.528
168.979	14.919	1215.309	917.171
169.994	14.916	1214.605	916.540
171.008	14.956	1213.731	916.019
172.023	14.986	1213.365	915.826
173.037	15.021	1212.375	915.190
174.052	15.053	1211.507	914.627
175.067	14.902	1210.424	912.906
176.081	14.791	1209.592	911.590
177.096	14.863	1208.424	911.025
178.110	14.950	1207.303	910.573
179.125	14.992	1206.049	909.774
180.140	14.996	1204.912	908.853
181.154	15.080	1203.741	908.346
182.169	15.093	1202.424	907.342
183.183	15.091	1201.721	906.724
184.198	15.123	1200.560	905.942
185.213	15.206	1199.524	905.529
186.227	15.047	1199.017	904.207
187.242	15.238	1197.377	903.917
188.256	15.258	1196.687	903.423
189.271	15.178	1195.642	902.128
190.286	15.072	1194.419	900.554
191.300	14.996	1193.182	899.130
192.315	14.918	1192.707	898.277
193.329	14.905	1192.003	897.597
194.344	14.956	1191.364	897.308
195.359	15.044	1190.953	897.393
196.373	15.150	1190.684	897.679
197.388	15.154	1190.409	897.414
198.402	15.244	1189.768	897.330
199.417	15.377	1189.067	897.437
200.432	15.436	1188.054	896.906
201.446	15.574	1187.372	897.048
202.461	15.483	1186.569	895.876
203.475	15.456	1185.621	894.940
204.490	15.426	1184.056	893.516
205.504	15.360	1182.766	892.113
206.519	15.360	1181.483	891.070
207.534	15.347	1180.190	889.944
208.548	15.396	1179.592	889.677
209.563	15.437	1178.857	889.257
210.577	15.385	1177.890	888.179
211.592	15.430	1177.439	887.997
212.607	15.489	1176.613	887.605
213.621	15.504	1175.491	886.761
214.636	15.519	1174.114	885.725
215.650	15.479	1173.439	884.921
216.665	15.591	1172.390	884.646
217.680	15.692	1171.796	884.648
218.694	15.668	1171.102	883.919
219.709	15.702	1170.387	883.484
220.723	15.682	1169.599	882.706
221.738	15.745	1168.850	882.390
222.753	15.734	1168.056	881.658
223.767	15.822	1166.968	881.219
224.782	15.816	1166.947	881.093
225.796	15.822	1166.157	880.449
226.811	15.787	1165.210	879.471
227.826	15.679	1164.828	878.544
228.840	15.772	1163.996	878.322
229.855	15.611	1163.513	877.042
230.869	15.641	1162.928	876.678
231.884	15.672	1161.614	875.774
232.899	15.722	1160.617	875.205
233.913	15.619	1160.208	874.282
234.928	15.586	1159.653	873.614
235.942	15.689	1158.759	873.396
236.957	15.648	1157.789	872.377
237.972	15.686	1156.836	871.781
238.986	15.681	1156.499	871.420
240.001	15.673	1156.020	870.943
241.015	15.666	1155.179	870.196
242.030	15.708	1154.277	869.655
243.045	15.774	1153.486	869.323
244.059	15.920	1152.686	869.399
245.074	15.921	1151.648	868.543
246.088	15.824	1151.172	867.607
247.103	15.996	1150.262	867.730
248.117	15.957	1149.575	866.935
249.132	16.086	1149.087	867.154
250.147	16.218	1148.776	867.524
251.161	16.234	1147.974	866.920
252.176	16.188	1147.382	866.160
253.190	16.204	1146.609	865.581
254.205	16.225	1146.493	865.524
255.220	16.382	1145.512	865.515
256.234	16.401	1144.708	864.925
257.249	16.285	1144.257	863.915
258.263	16.232	1143.199	862.772
259.278	16.406	1142.638	863.161
260.293	16.443	1142.241	862.971
261.307	16.402	1141.854	862.394
262.322	16.445	1141.079	861.952
263.336	16.413	1140.664	861.398
264.351	16.562	1139.751	861.390
265.366	16.395	1139.257	860.093
266.380	16.505	1138.540	860.037
267.395	16.525	1137.135	858.999
268.409	16.464	1136.613	858.218
269.424	16.483	1135.714	857.558
270.439	16.493	1135.123	857.088
271.453	16.423	1134.892	856.483
272.468	16.415	1133.997	855.693
273.482	16.397	1133.176	854.904
274.497	16.395	1132.727	854.482
275.512	16.390	1131.761	853.652
276.526	16.383	1131.277	853.175
277.541	16.486	1130.309	852.888
278.555	16.589	1129.608	852.805
279.570	16.533	1129.304	852.217
280.585	16.664	1128.002	851.821
281.599	16.671	1127.088	851.090
282.614	16.577	1126.011	849.727
283.628	16.544	1124.941	848.680
284.643	16.587	1124.127	848.208
285.657	16.594	1123.151	847.430
286.672	16.668	1122.125	846.951
287.687	16.690	1121.399	846.438
288.701	16.769	1120.773	846.288
289.716	16.641	1120.106	845.067
290.730	16.663	1119.279	844.481
291.745	16.706	1119.056	844.450
292.760	16.799	1117.685	843.806
293.774	16.710	1117.742	843.330
294.789	16.830	1117.301	843.521
295.803	16.791	1116.501	842.644
296.818	16.709	1115.613	841.492
297.833	16.694	1114.767	840.705
298.847	16.734	1113.917	840.190
299.862	16.674	1113.354	839.394
300.876	16.934	1112.457	839.932
301.891	16.971	1111.867	839.593
302.906	16.836	1111.317	838.437
303.920	17.025	1110.483	838.667
304.935	17.038	1109.917	838.230
305.949	17.184	1109.113	838.268
306.964	17.057	1108.652	837.222
307.979	17.174	1107.614	836.937
308.993	17.087	1106.917	835.912
310.008	17.096	1106.082	835.250
311.022	17.097	1105.782	834.955
312.037	17.155	1104.530	834.222
313.052	17.084	1103.952	833.359
314.066	17.054	1103.181	832.559
315.081	16.842	1102.295	830.777
316.095	16.850	1101.620	830.236
317.110	16.873	1101.071	829.861
318.125	16.958	1100.115	829.482
319.139	17.040	1099.214	829.128
320.154	16.931	1098.556	828.025
321.168	16.850	1098.323	827.383
322.183	16.992	1097.229	827.176
323.197	17.129	1096.424	827.166
324.212	17.056	1095.832	826.289
325.227	17.064	1096.228	826.555
326.241	17.148	1095.109	826.043
327.256	17.067	1094.398	825.045
328.270	17.114	1093.421	824.461
329.285	16.987	1092.615	823.163
330.300	17.180	1090.977	822.795
331.314	17.035	1090.691	821.803
332.329	17.161	1089.223	821.235
333.343	17.161	1088.553	820.657
334.358	17.249	1087.657	820.334
335.373	17.271	1087.463	820.219
336.387	17.295	1086.516	819.549
337.402	17.362	1085.858	819.303
338.416	17.292	1085.110	818.326
339.431	17.345	1084.666	818.176
340.446	17.318	1084.110	817.555
341.460	17.378	1083.419	817.249
342.475	17.397	1082.842	816.833
343.489	17.684	1081.294	816.966
344.504	17.510	1080.995	815.837
345.519	17.564	1080.446	815.606
346.533	17.650	1079.278	815.065
347.548	17.722	1078.368	814.648
348.562	17.786	1077.512	814.235
349.577	17.586	1076.885	812.737
350.592	17.625	1075.929	812.130
351.606	17.486	1075.217	810.857
352.621	17.511	1074.548	810.402
353.635	17.547	1074.065	810.138
354.650	17.581	1072.981	809.410
355.665	17.577	1072.373	808.858
356.679	17.567	1072.201	808.613
357.694	17.655	1071.603	808.506
358.708	17.790	1070.538	808.270
359.723	17.582	1070.195	806.953
360.738	17.623	1069.416	806.490
361.752	17.619	1069.040	806.113
362.767	17.632	1068.557	805.741
363.781	17.742	1067.836	805.649
364.796	17.858	1067.176	805.624
365.810	17.932	1066.623	805.487
366.825	17.900	1066.211	804.950
367.840	17.981	1065.668	804.851
368.854	18.009	1065.299	804.633
369.869	17.986	1064.418	803.792
370.883	17.896	1063.493	802.595
371.898	17.903	1062.480	801.794
372.913	17.989	1062.391	802.059
373.927	18.030	1061.589	801.577
374.942	17.965	1061.444	801.090
375.956	18.105	1060.507	800.967
376.971	18.025	1059.851	800.026
377.986	18.175	1059.304	800.246
379.000	18.246	1058.869	800.178
380.015	18.239	1058.389	799.713
381.029	18.208	1057.903	799.128
382.044	18.231	1056.979	798.465
383.059	18.257	1056.332	798.027
384.073	18.128	1055.554	796.768
385.088	18.211	1054.716	796.454
386.102	18.254	1054.096	796.117
387.117	18.184	1052.641	794.622
388.132	18.149	1051.816	793.763
389.146	18.143	1051.094	793.122
390.161	18.066	1050.391	792.163
391.175	18.244	1049.438	792.199
392.190	18.236	1049.009	791.770
393.205	18.296	1048.180	791.353
394.219	18.287	1047.403	790.652
395.234	18.245	1046.521	789.723
396.248	18.169	1045.380	788.441
397.263	18.185	1044.396	787.704
398.278	18.241	1043.785	787.431
399.292	18.147	1042.925	786.280
400.307	18.183	1042.248	785.864
401.321	18.168	1041.578	785.220
402.336	18.076	1040.712	784.078
403.350	18.172	1040.278	784.119
404.365	18.205	1039.796	783.838
405.380	18.255	1038.906	783.326
406.394	18.219	1038.322	782.655
407.409	18.435	1037.782	783.166
408.423	18.291	1037.341	782.104
409.438	18.349	1036.893	781.965
410.453	18.525	1035.711	781.804
411.467	18.521	1035.015	781.194
412.482	18.632	1034.123	780.956
413.496	18.766	1033.252	780.837
414.511	18.730	1033.071	780.468
415.526	18.712	1032.768	780.089
416.540	18.660	1032.208	779.358
417.555	18.678	1031.824	779.084
418.569	18.671	1031.059	778.404
419.584	18.656	1030.691	777.990
420.599	18.698	1030.302	777.816
421.613	150.514	1400.935	1794.894
422.628	137.316	1454.926	1795.012
