DTS Sentinel unit serial number:	SN413079Multiplexer serial number:	ORYXHardware model number:	OX4-SRSoftware version number:	ORYX F/W v4.00 Oryx Data Collector v3.7.2.0data status	okinstallation	princeton_trtdifferential loss correction	single-endedforward channel	channel 2reverse channel	N/Adate	2019/09/12time	06:37:11forward acquisition time	60.00reverse acquisition time	0.00gamma	496.2192k internal	0.2324k external	0.2324temperature offset calibration	1.0066default loss term (dB/km)	0.3790temperature slope calibration	1.0000multiplexer offset coefficient	1.0000multiplexer slope coefficient	1.0000fibre end	0.00T internal ref (°C)	32.14T ext. ref 1 (°C)	1.57T ext. ref 2 (°C)	27.16length (m)	temperature (°C)	Stokes	anti-Stokes-747.200	155.747	-0.143	-0.199
-746.185	800.000	-0.090	0.314
-745.171	143.979	-0.132	0.178
-744.156	-200.000	0.014	0.095
-743.142	-102.153	-0.253	0.061
-742.127	-200.000	-0.024	0.129
-741.112	87.440	0.082	0.092
-740.098	-95.617	0.158	-0.043
-739.083	235.714	-0.106	0.177
-738.069	425.889	0.160	0.347
-737.054	-13.698	-0.246	0.161
-736.039	-10.059	-0.096	0.065
-735.025	800.000	0.094	0.312
-734.010	175.984	-0.030	-0.044
-732.996	-65.195	-0.277	0.113
-731.981	-102.017	-0.116	0.028
-730.966	236.408	0.037	-0.062
-729.952	800.000	-0.024	0.097
-728.937	-200.000	-0.007	0.237
-727.923	-200.000	-0.089	-0.523
-726.908	50.011	0.111	0.106
-725.894	37.985	-0.189	-0.170
-724.879	88.628	-0.122	-0.137
-723.864	63.985	0.249	-0.253
-722.850	-67.733	-0.182	0.072
-721.835	-200.000	-0.049	0.230
-720.821	-200.000	0.013	-0.239
-719.806	-68.966	-0.056	0.022
-718.791	-59.341	-0.283	-0.123
-717.777	-163.200	-0.331	0.016
-716.762	-200.000	0.022	0.116
-715.748	-113.584	0.389	0.077
-714.733	-109.149	0.163	-0.035
-713.718	-30.258	-0.073	0.042
-712.704	476.500	0.091	-0.207
-711.689	800.000	0.025	0.077
-710.675	-95.914	0.213	-0.057
-709.660	-44.459	0.209	0.106
-708.645	-49.314	0.289	0.139
-707.631	-79.991	0.561	0.190
-706.616	800.000	-0.010	0.037
-705.602	-15.006	0.204	0.132
-704.587	-94.847	-0.194	-0.053
-703.572	214.695	-0.066	-0.106
-702.558	-112.764	0.222	-0.044
-701.543	-200.000	0.009	0.140
-700.529	800.000	-0.038	0.149
-699.514	219.517	0.218	0.352
-698.499	280.014	-0.031	0.055
-697.485	-89.705	-0.114	0.034
-696.470	-167.300	-0.168	-0.007
-695.456	-200.000	-0.003	0.360
-694.441	-200.000	0.044	-0.365
-693.426	181.866	0.073	-0.109
-692.412	-22.319	0.313	-0.191
-691.397	336.030	-0.114	-0.224
-690.383	47.476	-0.175	-0.165
-689.368	-70.907	-0.080	-0.031
-688.354	68.834	-0.108	0.111
-687.339	10.157	0.109	0.084
-686.324	9.636	-0.172	0.131
-685.310	-129.476	0.630	0.088
-684.295	-66.770	0.227	-0.091
-683.281	16.586	0.134	0.107
-682.266	-34.194	0.480	-0.265
-681.251	-200.000	0.028	-0.165
-680.237	-181.832	-0.062	-0.001
-679.222	800.000	0.048	0.147
-678.208	-87.192	-0.208	-0.064
-677.193	-46.145	-0.194	0.096
-676.178	6.147	0.181	0.135
-675.164	-200.000	-0.004	-0.137
-674.149	164.187	-0.146	0.207
-673.135	35.466	0.193	-0.171
-672.120	800.000	0.053	-0.149
-671.105	-104.972	-0.389	-0.090
-670.091	-61.255	0.149	0.063
-669.076	23.733	-0.161	-0.133
-668.062	-122.568	-0.171	0.028
-667.047	42.742	-0.357	-0.327
-666.032	7.659	0.069	-0.052
-665.018	53.783	-0.260	-0.251
-664.003	-67.526	-0.070	0.028
-662.989	74.337	-0.115	-0.122
-661.974	151.107	-0.108	-0.148
-660.959	-200.000	-0.023	0.181
-659.945	800.000	-0.076	0.224
-658.930	-200.000	-0.020	-0.174
-657.916	-67.245	-0.242	-0.096
-656.901	-17.729	-0.040	0.025
-655.886	14.322	-0.140	-0.110
-654.872	-200.000	0.040	-0.206
-653.857	203.881	-0.112	0.174
-652.843	279.172	-0.118	0.211
-651.828	-200.000	0.137	0.667
-650.814	-200.000	-0.028	0.404
-649.799	215.840	-0.107	-0.171
-648.784	22.821	0.301	0.248
-647.770	69.287	0.077	-0.080
-646.755	276.365	0.089	0.159
-645.741	393.359	-0.065	0.137
-644.726	277.665	-0.133	0.238
-643.711	800.000	-0.094	-0.296
-642.697	34.123	0.141	0.124
-641.682	-200.000	-0.018	0.111
-640.668	-69.841	-0.099	-0.038
-639.653	320.002	0.146	0.278
-638.638	197.913	0.024	-0.037
-637.624	800.000	-0.142	-0.409
-636.609	-66.262	0.201	0.080
-635.595	31.215	0.252	-0.217
-634.580	6.748	0.268	-0.201
-633.565	239.313	-0.111	-0.186
-632.551	-84.608	-0.065	-0.021
-631.536	12.500	0.234	0.181
-630.522	800.000	-0.050	-0.177
-629.507	-65.471	-0.230	-0.093
-628.492	-200.000	-0.022	-0.145
-627.478	800.000	0.078	0.242
-626.463	-133.341	-0.176	0.022
-625.449	-145.708	0.217	0.019
-624.434	9.429	0.299	0.227
-623.419	307.885	-0.136	0.254
-622.405	-17.071	0.156	-0.099
-621.390	-121.520	-0.074	0.012
-620.376	446.343	-0.153	0.338
-619.361	181.292	0.090	-0.134
-618.346	-29.806	-0.233	-0.134
-617.332	-42.738	0.279	0.143
-616.317	40.233	0.058	0.052
-615.303	-51.039	0.284	-0.134
-614.288	-79.398	-0.032	-0.011
-613.273	-200.000	0.033	-0.230
-612.259	74.553	-0.047	0.050
-611.244	-200.000	0.013	-0.131
-610.230	787.011	-0.024	-0.067
-609.215	-138.661	0.131	0.014
-608.201	-33.255	0.296	-0.165
-607.186	-96.436	0.239	-0.063
-606.171	122.333	0.089	-0.111
-605.157	63.516	0.254	-0.256
-604.142	-69.628	0.111	-0.043
-603.128	-79.576	-0.078	0.027
-602.113	459.699	-0.056	-0.126
-601.098	197.269	0.177	-0.271
-600.084	53.678	-0.076	-0.073
-599.069	169.629	0.218	-0.313
-598.055	-5.970	-0.104	-0.071
-597.040	800.000	-0.062	-0.184
-596.025	-200.000	0.010	0.106
-595.011	-131.976	0.297	-0.039
-593.996	0.777	-0.295	-0.212
-592.982	-29.250	-0.468	0.269
-591.967	-80.037	0.321	0.108
-590.952	83.821	0.171	0.188
-589.938	101.598	0.254	-0.297
-588.923	138.260	-0.052	0.069
-587.909	-32.470	-0.249	-0.139
-586.894	-43.763	-0.236	-0.119
-585.879	359.891	-0.003	-0.007
-584.865	119.021	-0.270	0.335
-583.850	276.298	0.101	0.179
-582.836	-170.241	-0.189	-0.007
-581.821	-53.539	-0.400	0.184
-580.806	-200.000	-0.002	0.237
-579.792	74.531	0.058	0.061
-578.777	570.885	0.135	-0.330
-577.763	622.028	-0.104	0.263
-576.748	800.000	-0.081	0.235
-575.733	-66.109	0.118	-0.047
-574.719	-59.789	-0.061	-0.026
-573.704	29.557	-0.215	-0.184
-572.690	521.502	0.170	-0.399
-571.675	-160.324	-0.290	-0.016
-570.661	-200.000	0.018	0.196
-569.646	-130.829	-0.210	-0.028
-568.631	373.340	-0.030	-0.062
-567.617	480.280	0.155	-0.353
-566.602	-59.474	0.086	0.037
-565.588	-200.000	-0.058	0.000
-564.573	68.349	-0.239	0.246
-563.558	-53.859	0.107	-0.049
-562.544	65.183	0.022	0.022
-561.529	-200.000	-0.089	-0.541
-560.515	51.694	-0.124	0.118
-559.500	131.406	0.143	-0.184
-558.485	-129.309	0.418	0.058
-557.471	-117.920	0.207	-0.037
-556.456	132.647	-0.016	-0.020
-555.442	800.000	0.052	-0.181
-554.427	-200.000	-0.012	0.198
-553.412	800.000	-0.029	-0.119
-552.398	27.482	0.344	-0.290
-551.383	-122.995	-0.303	0.049
-550.369	-140.076	0.298	-0.031
-549.354	-145.124	0.469	0.043
-548.339	190.465	0.158	-0.237
-547.325	-33.085	0.236	0.131
-546.310	-135.375	0.104	-0.012
-545.296	-200.000	-0.020	0.276
-544.281	479.178	-0.136	0.310
-543.266	90.578	-0.077	0.086
-542.252	20.487	0.301	-0.244
-541.237	55.588	-0.062	-0.060
-540.223	-200.000	0.010	-0.094
-539.208	77.423	-0.128	-0.136
-538.193	-200.000	0.063	-0.311
-537.179	47.428	-0.063	0.058
-536.164	99.130	-0.163	0.189
-535.150	248.268	0.022	-0.037
-534.135	-200.000	0.014	-0.098
-533.121	-154.750	-0.163	-0.011
-532.106	-136.480	-0.310	-0.036
-531.091	363.967	0.132	0.266
-530.077	-108.491	0.030	0.007
-529.062	-161.861	0.297	-0.015
-528.048	171.369	0.067	0.096
-527.033	398.824	-0.027	0.057
-526.018	-14.890	0.116	-0.075
-525.004	598.587	-0.050	-0.124
-523.989	158.834	-0.066	0.092
-522.975	-200.000	-0.010	0.084
-521.960	276.608	0.197	0.350
-520.945	-200.000	-0.009	0.062
-519.931	77.524	-0.013	0.014
-518.916	-98.281	-0.204	0.052
-517.902	504.293	0.083	0.191
-516.887	-200.000	0.014	0.138
-515.872	427.537	0.072	0.155
-514.858	79.879	0.228	-0.245
-513.843	-16.018	-0.106	-0.067
-512.829	380.627	-0.114	-0.234
-511.814	-31.424	0.176	0.099
-510.799	-108.694	-0.149	-0.032
-509.785	-200.000	-0.007	0.185
-508.770	-200.000	0.007	0.537
-507.756	213.772	0.093	-0.146
-506.741	421.578	0.118	-0.253
-505.726	-70.091	-0.128	-0.049
-504.712	51.720	-0.092	0.088
-503.697	4.187	-0.012	-0.009
-502.683	12.471	0.125	0.097
-501.668	-200.000	-0.018	-0.108
-500.653	-128.498	0.053	0.008
-499.639	-152.786	0.222	-0.016
-498.624	-75.302	0.014	-0.005
-497.610	800.000	0.112	0.425
-496.595	-200.000	0.059	0.300
-495.581	-149.480	-0.328	-0.026
-494.566	48.644	-0.230	-0.216
-493.551	-33.375	-0.101	0.056
-492.537	-71.817	-0.186	-0.069
-491.522	-64.162	0.127	0.052
-490.508	-95.178	-0.158	-0.043
-489.493	-200.000	-0.032	0.357
-488.478	800.000	0.035	0.131
-487.464	800.000	-0.022	-0.077
-486.449	-157.874	-0.146	0.009
-485.435	275.805	-0.085	0.151
-484.420	583.277	0.094	-0.232
-483.405	800.000	0.017	-0.063
-482.391	70.526	0.223	-0.230
-481.376	-200.000	-0.015	0.241
-480.362	130.389	0.181	0.232
-479.347	168.912	0.315	0.449
-478.332	-200.000	0.047	0.227
-477.318	225.559	-0.110	0.178
-476.303	800.000	-0.049	-0.171
-475.289	58.707	-0.080	0.078
-474.274	-200.000	-0.009	0.067
-473.259	800.000	-0.004	-0.015
-472.245	-200.000	0.023	0.118
-471.230	-102.904	0.113	-0.027
-470.216	-94.226	-0.201	0.055
-469.201	-198.687	-0.214	-0.001
-468.186	10.161	-0.114	0.087
-467.172	-200.000	-0.029	-0.153
-466.157	156.001	-0.127	0.175
-465.143	-197.736	0.197	-0.001
-464.128	-43.429	-0.136	-0.069
-463.113	-200.000	0.049	-0.253
-462.099	181.080	-0.146	-0.214
-461.084	-186.628	0.210	-0.003
-460.070	-200.000	-0.009	0.106
-459.055	-123.698	0.330	0.052
-458.040	-69.863	-0.290	0.111
-457.026	-200.000	-0.078	0.611
-456.011	-200.000	-0.011	-0.182
-454.997	800.000	0.019	-0.073
-453.982	15.090	-0.399	0.312
-452.968	36.920	0.327	-0.289
-451.953	259.912	0.173	-0.298
-450.938	-10.886	-0.133	-0.088
-449.924	-53.402	0.413	0.189
-448.909	3.914	-0.133	-0.097
-447.895	419.125	-0.202	-0.431
-446.880	-100.614	-0.251	0.062
-445.865	162.956	-0.152	-0.213
-444.851	-17.429	-0.320	0.201
-443.836	25.108	-0.108	-0.090
-442.822	5.691	0.146	0.108
-441.807	-117.443	0.250	0.045
-440.792	96.771	0.227	-0.260
-439.778	-180.666	0.166	-0.003
-438.763	-200.000	-0.032	-0.342
-437.749	397.476	0.138	-0.288
-436.734	-102.017	0.373	-0.090
-435.719	106.092	0.134	-0.159
-434.705	-200.000	-0.014	-0.221
-433.690	485.069	-0.112	-0.255
-432.676	69.773	-0.137	-0.141
-431.661	-200.000	-0.003	-0.081
-430.646	-30.643	-0.440	-0.249
-429.632	-53.288	0.228	0.104
-428.617	-24.414	0.326	-0.194
-427.603	-25.038	0.151	0.089
-426.588	-168.778	-0.079	0.003
-425.573	-31.873	0.043	0.024
-424.559	-12.185	-0.209	0.136
-423.544	50.856	0.165	-0.156
-422.530	-121.527	-0.331	-0.055
-421.515	742.531	-0.093	0.249
-420.500	-169.258	0.250	0.009
-419.486	800.000	-0.074	0.237
-418.471	249.165	-0.094	0.160
-417.457	-78.931	-0.348	0.118
-416.442	800.000	-0.139	-0.389
-415.428	-200.000	-0.071	-0.332
-414.413	-51.891	-0.208	0.097
-413.398	17.726	0.171	-0.136
-412.384	-190.926	-0.084	0.001
-411.369	45.107	-0.109	0.100
-410.355	36.326	0.147	0.129
-409.340	800.000	0.081	0.341
-408.325	-112.694	-0.140	-0.028
-407.311	-182.612	-0.189	0.003
-406.296	-197.514	-0.095	0.001
-405.282	12.582	0.112	0.086
-404.267	-0.508	0.059	-0.042
-403.252	800.000	0.105	0.388
-402.238	-182.910	0.166	0.003
-401.223	90.386	0.121	-0.134
-400.209	800.000	-0.029	-0.106
-399.194	665.767	-0.084	-0.215
-398.179	81.048	0.105	0.112
-397.165	800.000	0.036	0.122
-396.150	-139.327	0.195	0.021
-395.136	-138.117	-0.303	-0.033
-394.121	10.030	0.253	-0.191
-393.106	-73.780	0.116	0.042
-392.092	-28.938	-0.152	0.087
-391.077	-116.168	0.113	-0.021
-390.063	40.454	-0.203	-0.182
-389.048	25.483	-0.240	-0.199
-388.033	62.055	0.082	0.081
-387.019	410.171	0.220	0.465
-386.004	-66.418	0.183	0.073
-384.990	143.578	0.189	0.251
-383.975	-46.456	0.203	0.099
-382.960	198.702	-0.132	0.201
-381.946	-200.000	-0.028	0.246
-380.931	122.577	-0.232	0.289
-379.917	-107.735	-0.115	0.025
-378.902	800.000	-0.072	-0.268
-377.888	800.000	0.104	0.361
-376.873	176.698	0.121	0.175
-375.858	-104.373	0.133	-0.031
-374.844	241.042	-0.072	0.120
-373.829	56.454	-0.192	0.186
-372.815	7.947	0.082	-0.061
-371.800	-56.323	-0.160	-0.071
-370.785	-174.377	0.187	0.005
-369.771	317.669	-0.107	-0.201
-368.756	-200.000	0.003	-0.145
-367.742	-38.464	0.266	0.140
-366.727	-143.821	0.323	-0.030
-365.712	-115.536	-0.431	-0.081
-364.698	-200.000	0.018	-0.113
-363.683	-74.176	0.049	-0.018
-362.669	800.000	0.084	0.261
-361.654	-32.768	-0.082	0.046
-360.639	-200.000	0.009	0.088
-359.625	397.952	-0.020	0.042
-358.610	-97.537	0.332	0.086
-357.596	-200.000	-0.062	-0.309
-356.581	-67.142	-0.118	-0.046
-355.566	-96.353	0.143	0.038
-354.552	-200.000	-0.027	-0.323
-353.537	82.731	-0.229	-0.247
-352.523	800.000	0.127	-0.442
-351.508	454.853	-0.063	-0.140
-350.493	521.123	-0.036	0.084
-349.479	33.290	-0.020	-0.018
-348.464	-78.224	0.149	0.051
-347.450	153.096	0.195	-0.266
-346.435	19.434	-0.231	-0.185
-345.420	-85.337	-0.087	-0.027
-344.406	-184.419	0.248	0.004
-343.391	-200.000	0.027	-0.251
-342.377	-200.000	-0.043	-0.211
-341.362	-56.429	0.194	0.086
-340.348	-86.672	0.232	0.070
-339.333	292.110	0.170	-0.308
-338.318	-51.806	-0.165	0.076
-337.304	-200.000	-0.010	0.058
-336.289	37.177	-0.142	0.125
-335.275	-107.724	-0.160	0.035
-334.260	62.066	-0.087	-0.086
-333.245	-200.000	-0.018	0.168
-332.231	102.520	0.094	-0.109
-331.216	-100.086	-0.202	-0.050
-330.202	88.879	0.125	0.138
-329.187	66.812	-0.119	0.120
-328.172	240.945	-0.354	0.587
-327.158	-117.040	-0.173	0.031
-326.143	109.923	0.184	-0.220
-325.129	76.209	-0.181	0.191
-324.114	240.045	-0.112	-0.185
-323.099	48.977	-0.123	-0.114
-322.085	77.374	0.046	0.049
-321.070	332.178	-0.137	0.263
-320.056	96.587	-0.183	-0.208
-319.041	-94.764	-0.199	-0.054
-318.026	-65.029	-0.199	0.080
-317.012	-28.221	0.234	-0.134
-315.997	202.135	0.074	0.113
-314.983	800.000	-0.025	-0.084
-313.968	800.000	0.082	-0.277
-312.953	150.112	-0.246	0.331
-311.939	-61.514	0.246	-0.102
-310.924	-36.811	0.222	-0.118
-309.910	-43.015	-0.201	-0.101
-308.895	-200.000	0.022	0.143
-307.880	-152.213	-0.394	-0.028
-306.866	407.858	0.169	0.354
-305.851	-150.423	-0.197	0.015
-304.837	-116.876	0.218	-0.040
-303.822	-31.789	0.021	0.011
-302.807	50.485	-0.310	-0.291
-301.793	-79.280	0.048	0.016
-300.778	62.405	-0.292	0.290
-299.764	-200.000	0.046	-0.388
-298.749	-200.000	0.018	-0.135
-297.735	104.660	0.048	-0.057
-296.720	-125.168	0.107	-0.016
-295.705	-200.000	-0.027	-0.223
-294.691	566.722	0.050	-0.121
-293.676	-30.009	0.162	-0.091
-292.662	-22.483	0.227	-0.136
-291.647	-20.417	-0.060	-0.036
-290.632	-97.212	-0.124	0.032
-289.618	317.237	-0.054	0.101
-288.603	-200.000	0.044	0.198
-287.589	69.555	-0.191	-0.195
-286.574	-131.941	0.065	-0.008
-285.559	3.198	-0.202	0.146
-284.545	131.308	-0.131	-0.166
-283.530	39.297	0.161	-0.143
-282.516	649.884	0.175	-0.444
-281.501	47.574	0.160	0.148
-280.486	-164.765	0.123	0.005
-279.472	125.002	-0.087	0.109
-278.457	-165.176	0.240	0.011
-277.443	-40.584	0.211	0.109
-276.428	118.748	-0.079	0.096
-275.413	-107.531	-0.180	0.039
-274.399	146.070	-0.162	0.216
-273.384	-29.175	0.263	-0.150
-272.370	-151.708	0.053	-0.004
-271.355	362.928	0.033	0.067
-270.340	-76.697	-0.095	0.033
-269.326	-50.590	0.134	0.062
-268.311	220.566	-0.120	0.190
-267.297	67.141	0.091	-0.091
-266.282	534.744	-0.022	-0.052
-265.267	-109.471	0.123	0.026
-264.253	276.720	0.051	0.091
-263.238	-200.000	0.024	-0.207
-262.224	-200.000	0.006	0.068
-261.209	115.276	0.103	-0.124
-260.195	-107.704	0.114	0.025
-259.180	-82.144	-0.283	0.091
-258.165	104.622	-0.203	-0.236
-257.151	-69.969	0.364	-0.137
-256.136	-75.834	-0.180	-0.063
-255.122	158.192	-0.107	0.147
-254.107	133.904	-0.132	-0.169
-253.092	361.385	-0.075	0.149
-252.078	800.000	0.059	-0.210
-251.063	-200.000	-0.046	-0.300
-250.049	-118.271	-0.149	-0.026
-249.034	-31.563	0.221	0.123
-248.019	-200.000	-0.005	0.031
-247.005	164.443	-0.140	0.195
-245.990	28.258	-0.244	-0.204
-244.976	-122.313	-0.125	0.020
-243.961	20.902	0.165	-0.132
-242.946	7.137	-0.111	0.082
-241.932	25.656	0.087	0.072
-240.917	140.563	0.064	0.084
-239.903	-122.534	0.295	-0.047
-238.888	-97.035	0.084	-0.022
-237.873	192.680	0.192	-0.287
-236.859	-200.000	-0.025	-0.169
-235.844	85.548	-0.114	0.124
-234.830	223.777	0.113	0.180
-233.815	311.215	-0.129	-0.239
-232.800	-200.000	0.022	0.175
-231.786	800.000	-0.036	-0.101
-230.771	-151.861	0.442	-0.032
-229.757	-114.620	-0.124	-0.023
-228.742	40.935	-0.086	0.077
-227.727	126.095	0.165	0.206
-226.713	-200.000	-0.018	-0.276
-225.698	-37.560	0.195	-0.103
-224.684	-200.000	0.018	-0.360
-223.669	800.000	0.085	0.308
-222.655	-75.891	-0.076	0.027
-221.640	74.055	-0.152	0.158
-220.625	-200.000	-0.035	0.161
-219.611	-86.956	-0.310	-0.093
-218.596	270.866	-0.122	-0.213
-217.582	134.821	0.134	-0.172
-216.567	-128.673	0.112	-0.016
-215.552	118.175	-0.146	0.178
-214.538	-200.000	-0.051	0.437
-213.523	-163.359	0.317	0.015
-212.509	-128.299	-0.199	0.028
-211.494	800.000	0.132	0.375
-210.479	-30.053	-0.226	0.127
-209.465	-17.631	-0.327	-0.203
-208.450	31.214	-0.087	0.074
-207.436	35.021	0.215	-0.186
-206.421	-163.795	0.320	-0.015
-205.406	800.000	-0.080	-0.275
-204.392	140.146	0.089	0.116
-203.377	738.018	-0.088	0.232
-202.363	-200.000	-0.030	0.135
-201.348	103.974	-0.242	0.281
-200.333	102.667	0.167	-0.193
-199.319	-99.422	-0.279	0.070
-198.304	-102.688	0.201	0.047
-197.290	-42.356	-0.121	-0.061
-196.275	369.579	0.124	-0.248
-195.260	-163.873	-0.254	0.012
-194.246	-102.012	-0.213	-0.051
-193.231	103.602	0.158	-0.183
-192.217	800.000	0.059	-0.181
-191.202	-200.000	-0.015	-0.300
-190.187	299.748	-0.161	-0.293
-189.173	-200.000	-0.018	0.214
-188.158	-97.828	-0.312	-0.080
-187.144	-13.631	0.195	-0.125
-186.129	-172.475	-0.198	-0.006
-185.114	-97.760	-0.200	-0.051
-184.100	737.090	0.037	-0.097
-183.085	70.704	-0.160	0.164
-182.071	-131.192	0.199	-0.026
-181.056	132.057	-0.266	-0.338
-180.042	-200.000	-0.045	0.332
-179.027	800.000	0.052	0.187
-178.012	30.722	-0.266	0.224
-176.998	-37.706	-0.379	0.199
-175.983	266.304	-0.187	0.323
-174.969	149.054	0.086	0.115
-173.954	-200.000	-0.044	0.339
-172.939	800.000	0.049	0.136
-171.925	-200.000	0.057	-0.286
-170.910	-58.414	0.224	-0.096
-169.896	-19.936	0.150	0.092
-168.881	93.197	-0.403	0.450
-167.866	-200.000	-0.068	0.335
-166.852	-200.000	-0.025	-0.179
-165.837	15.783	-0.330	0.256
-164.823	-152.226	0.154	-0.011
-163.808	124.925	-0.094	-0.117
-162.793	403.225	0.117	0.242
-161.779	-200.000	0.001	0.118
-160.764	-64.831	-0.060	0.024
-159.750	648.221	0.081	-0.205
-158.735	227.800	0.180	0.290
-157.720	-52.699	0.125	0.057
-156.706	16.371	0.168	0.131
-155.691	503.273	-0.120	0.273
-154.677	-200.000	-0.003	0.183
-153.662	-95.351	0.084	-0.022
-152.647	14.715	-0.210	-0.162
-151.633	627.473	0.076	0.190
-150.618	-63.710	-0.348	0.141
-149.604	104.244	-0.184	-0.214
-148.589	-137.424	-0.352	-0.039
-147.574	74.367	-0.353	-0.366
-146.560	-151.929	0.037	0.003
-145.545	619.053	0.032	-0.080
-144.531	126.017	-0.126	-0.157
-143.516	-28.002	-0.315	-0.180
-142.502	-35.898	0.013	0.007
-141.487	325.304	0.198	0.374
-140.472	-46.068	-0.100	0.049
-139.458	138.789	-0.248	0.321
-138.443	-200.000	0.027	-0.355
-137.429	230.852	0.205	-0.331
-136.414	-48.202	0.178	0.085
-135.399	-198.739	0.347	-0.002
-134.385	-47.221	0.385	0.185
-133.370	-113.227	-0.112	0.022
-132.356	61.439	-0.156	-0.153
-131.341	-78.074	0.229	0.078
-130.326	-43.566	0.282	0.140
-129.312	34.109	-0.143	-0.123
-128.297	800.000	0.083	-0.252
-127.283	-62.518	-0.185	-0.076
-126.268	16.894	-0.140	-0.109
-125.253	-119.546	0.197	0.034
-124.239	-188.548	0.205	0.003
-123.224	53.492	0.101	0.096
-122.210	-36.036	0.141	0.075
-121.195	483.994	-0.050	0.112
-120.180	327.264	0.091	-0.171
-119.166	36.052	-0.123	0.107
-118.151	-125.698	-0.251	-0.037
-117.137	-43.751	0.353	-0.175
-116.122	75.414	0.162	-0.168
-115.107	800.000	0.108	-0.315
-114.093	111.128	-0.064	0.076
-113.078	-103.239	-0.207	0.048
-112.064	178.700	0.102	0.147
-111.049	126.814	0.321	0.400
-110.034	-19.385	-0.101	-0.062
-109.020	-200.000	0.038	0.340
-108.005	-153.252	-0.315	-0.022
-106.991	-158.568	-0.105	0.006
-105.976	79.910	-0.247	0.262
-104.962	-200.000	-0.010	-0.069
-103.947	-93.200	-0.197	-0.054
-102.932	-63.984	0.229	-0.092
-101.918	800.000	0.046	0.194
-100.903	211.703	0.239	0.370
-99.889	800.000	-0.101	-0.280
-98.874	800.000	-0.026	0.095
-97.859	800.000	0.086	-0.239
-96.845	109.361	0.050	0.059
-95.830	-200.000	0.076	0.327
-94.816	5.914	-0.254	0.185
-93.801	227.017	-0.115	-0.184
-92.786	-93.384	-0.361	0.098
-91.772	335.621	0.151	-0.287
-90.757	-200.000	0.011	0.104
-89.743	-200.000	-0.016	-0.272
-88.728	10.933	-0.406	-0.305
-87.713	572.313	0.115	-0.275
-86.699	24.616	0.085	-0.070
-85.684	-82.114	0.269	0.086
-84.670	-55.793	-0.106	0.046
-83.655	361.145	-0.083	-0.164
-82.640	265.160	0.044	-0.076
-81.626	800.000	-0.043	-0.140
-80.611	34.048	0.418	-0.358
-79.597	265.953	-0.126	-0.217
-78.582	-200.000	-0.013	0.074
-77.567	-200.000	0.094	0.506
-76.553	-2.184	0.275	0.190
-75.538	-181.695	0.289	0.005
-74.524	-200.000	0.039	-0.291
-73.509	-56.396	0.128	0.056
-72.494	-200.000	-0.017	0.152
-71.480	780.329	-0.046	-0.125
-70.465	-154.084	-0.042	-0.003
-69.451	-0.266	-0.220	0.154
-68.436	-87.752	-0.197	-0.058
-67.422	-7.241	0.047	0.031
-66.407	289.382	0.021	0.038
-65.392	-200.000	0.013	0.084
-64.378	292.016	0.067	0.120
-63.363	428.858	-0.071	0.152
-62.349	148.841	0.236	-0.314
-61.334	45.866	-1.069	-0.972
-60.319	-114.708	0.444	0.084
-59.305	-200.000	-0.227	-1.303
-58.290	214.333	0.554	0.863
-57.276	408.534	0.817	1.699
-56.261	-200.000	95.955	596.319
-55.246	569.325	1371.928	3277.878
-54.232	160.086	2559.570	3505.739
-53.217	106.728	2270.331	2647.371
-52.203	41.628	1897.139	1688.430
-51.188	35.401	1687.469	1454.737
-50.173	32.800	1642.779	1396.929
-49.159	50.289	1689.717	1568.478
-48.144	52.032	1705.719	1596.346
-47.130	35.071	1666.215	1433.722
-46.115	32.251	1652.199	1400.625
-45.100	32.095	1647.051	1395.047
-44.086	32.140	1643.978	1392.719
-43.071	32.033	1642.052	1390.241
-42.057	32.010	1639.075	1387.496
-41.042	32.078	1637.265	1386.409
-40.027	31.972	1635.946	1384.458
-39.013	31.978	1633.983	1382.786
-37.998	31.989	1632.293	1381.382
-36.984	32.075	1631.134	1380.977
-35.969	32.107	1629.479	1379.756
-34.954	32.231	1627.785	1379.182
-33.940	32.054	1626.267	1376.543
-32.925	32.121	1624.424	1375.419
-31.911	32.220	1621.998	1374.030
-30.896	32.098	1620.552	1371.860
-29.881	32.053	1619.304	1370.424
-28.867	32.142	1617.343	1369.356
-27.852	32.150	1615.960	1368.192
-26.838	32.117	1613.962	1366.200
-25.823	32.104	1613.086	1365.315
-24.809	32.232	1611.808	1365.111
-23.794	32.183	1610.154	1363.300
-22.779	32.136	1608.852	1361.797
-21.765	32.164	1607.488	1360.794
-20.750	32.204	1605.447	1359.302
-19.736	32.232	1604.057	1358.276
-18.721	32.217	1602.705	1356.964
-17.706	32.183	1601.281	1355.459
-16.692	32.184	1599.739	1354.110
-15.677	32.091	1598.790	1352.582
-14.663	32.224	1597.380	1352.290
-13.648	32.152	1595.475	1350.109
-12.633	32.201	1594.209	1349.340
-11.619	32.153	1592.629	1347.601
-10.604	32.175	1590.799	1346.158
-9.590	32.144	1590.014	1345.215
-8.575	32.157	1588.837	1344.263
-7.560	32.218	1587.223	1343.277
-6.546	32.173	1586.104	1341.954
-5.531	32.169	1585.123	1341.042
-4.517	32.169	1583.791	1339.866
-3.502	32.201	1582.629	1339.055
-2.487	32.270	1581.021	1338.136
-1.473	31.961	1569.552	1326.189
-0.458	29.280	1550.642	1291.405
0.556	25.717	1550.682	1260.005
1.571	23.484	1574.514	1263.367
2.586	23.052	1588.221	1271.150
3.600	20.257	1533.799	1208.049
4.615	11.023	1422.092	1060.081
5.629	3.000	1357.269	961.622
6.644	1.727	1349.787	948.312
7.659	1.590	1348.483	946.460
8.673	1.490	1347.357	944.965
9.688	1.474	1345.039	943.159
10.702	1.246	1341.994	939.531
11.717	4.740	1348.942	966.027
12.731	14.877	1368.048	1043.160
13.746	23.414	1382.918	1108.018
14.761	25.822	1386.431	1125.805
15.775	26.262	1386.197	1128.265
16.790	26.380	1385.322	1128.185
17.804	26.444	1384.974	1128.205
18.819	26.644	1384.910	1129.296
19.834	26.718	1384.322	1129.178
20.848	26.759	1383.285	1128.489
21.863	26.761	1382.770	1127.981
22.877	26.878	1381.419	1127.510
23.892	26.847	1380.683	1126.615
24.907	26.805	1379.916	1125.627
25.921	26.628	1379.285	1123.917
26.936	26.755	1378.193	1123.716
27.950	26.781	1376.863	1122.690
28.965	26.787	1375.777	1121.741
29.980	26.766	1374.701	1120.638
30.994	26.793	1373.189	1119.471
32.009	26.763	1372.264	1118.435
33.023	26.670	1371.769	1117.359
34.038	26.757	1370.093	1116.430
35.053	26.862	1369.211	1116.261
36.067	26.715	1368.391	1114.587
37.082	26.765	1367.473	1114.046
38.096	26.841	1366.262	1113.428
39.111	26.691	1365.736	1111.983
40.126	26.825	1364.795	1111.940
41.140	26.826	1364.115	1111.294
42.155	26.798	1363.980	1110.916
43.169	26.789	1364.497	1111.181
44.184	26.754	1364.130	1110.571
45.199	26.807	1363.221	1110.053
46.213	26.776	1362.552	1109.220
47.228	26.824	1361.462	1108.531
48.242	26.818	1360.591	1107.687
49.257	26.840	1359.020	1106.445
50.271	26.731	1357.704	1104.612
51.286	26.633	1356.676	1103.081
52.301	26.772	1355.154	1102.591
53.315	26.780	1354.140	1101.717
54.330	26.818	1353.565	1101.381
55.344	26.779	1352.758	1100.390
56.359	26.778	1351.486	1099.254
57.374	26.708	1351.370	1098.636
58.388	26.742	1350.563	1098.087
59.403	26.736	1349.857	1097.383
60.417	26.799	1349.050	1097.012
61.432	26.800	1348.362	1096.361
62.447	26.773	1347.580	1095.464
63.461	26.747	1346.359	1094.215
64.476	26.707	1345.688	1093.333
65.490	26.821	1343.947	1092.512
66.505	26.756	1342.728	1091.028
67.520	26.759	1341.555	1090.001
68.534	26.790	1340.208	1088.994
69.549	26.837	1339.510	1088.612
70.563	26.801	1338.677	1087.622
71.578	26.888	1337.462	1087.059
72.593	26.845	1336.693	1086.080
73.607	26.775	1336.498	1085.408
74.622	26.911	1335.486	1085.303
75.636	26.809	1335.081	1084.272
76.651	26.826	1334.178	1083.541
77.666	26.775	1333.783	1082.822
78.680	26.785	1333.583	1082.624
79.695	26.745	1332.406	1081.334
80.709	26.832	1331.471	1080.997
81.724	26.776	1330.658	1079.905
82.739	26.812	1330.003	1079.495
83.753	26.823	1328.773	1078.466
84.768	26.675	1328.289	1077.098
85.782	26.723	1327.065	1076.295
86.797	26.847	1325.641	1075.777
87.812	26.794	1324.696	1074.605
88.826	26.832	1323.847	1074.043
89.841	26.838	1322.824	1073.156
90.855	26.927	1321.539	1072.541
91.870	26.878	1320.628	1071.423
92.884	26.876	1319.816	1070.656
93.899	26.775	1319.484	1069.696
94.914	26.770	1318.550	1068.812
95.928	26.787	1317.537	1068.001
96.943	26.825	1317.073	1067.752
97.957	26.934	1316.119	1067.523
98.972	26.843	1315.495	1066.387
99.987	26.847	1314.450	1065.474
101.001	26.831	1313.492	1064.506
102.016	26.903	1312.197	1063.786
103.030	26.881	1311.428	1062.938
104.045	26.724	1311.428	1061.926
105.060	26.867	1310.132	1061.615
106.074	26.856	1309.231	1060.730
107.089	26.886	1307.687	1059.562
108.103	26.935	1307.087	1059.264
109.118	26.850	1306.075	1057.854
110.133	26.958	1304.645	1057.236
111.147	26.907	1303.713	1056.086
112.162	26.951	1302.381	1055.172
113.176	26.851	1301.866	1054.080
114.191	26.882	1301.425	1053.809
115.206	26.850	1300.135	1052.484
116.220	26.932	1298.795	1051.781
117.235	26.849	1298.002	1050.566
118.249	26.918	1296.802	1049.903
119.264	26.895	1296.484	1049.419
120.279	26.877	1296.116	1048.924
121.293	26.987	1294.942	1048.516
122.308	26.932	1294.302	1047.588
123.322	27.023	1292.845	1046.842
124.337	27.016	1292.206	1046.193
125.352	27.004	1291.388	1045.367
126.366	27.008	1290.380	1044.482
127.381	26.867	1289.891	1043.181
128.395	26.956	1288.969	1042.858
129.410	27.042	1287.933	1042.417
130.424	26.982	1287.296	1041.469
131.439	27.048	1286.638	1041.220
132.454	26.994	1285.466	1039.874
133.468	26.952	1285.077	1039.221
134.483	27.055	1284.211	1039.019
135.497	26.925	1283.658	1037.738
136.512	26.965	1283.120	1037.439
137.527	26.876	1281.686	1035.681
138.541	26.843	1280.675	1034.581
139.556	27.013	1278.941	1034.062
140.570	26.953	1278.464	1033.239
141.585	27.097	1276.943	1032.738
142.600	26.885	1276.345	1030.959
143.614	26.944	1275.537	1030.551
144.629	26.974	1274.441	1029.746
145.643	26.871	1273.318	1028.161
146.658	26.837	1272.524	1027.239
147.673	26.890	1271.526	1026.643
148.687	26.854	1270.659	1025.647
149.702	26.791	1269.222	1024.038
150.716	26.903	1268.307	1023.843
151.731	26.855	1267.539	1022.862
152.746	26.883	1266.678	1022.234
153.760	26.982	1265.249	1021.545
154.775	26.942	1264.876	1020.932
155.789	27.019	1263.456	1020.125
156.804	26.993	1262.569	1019.174
157.819	26.990	1261.918	1018.544
158.833	26.977	1261.343	1017.914
159.848	27.021	1260.453	1017.354
160.862	27.026	1259.741	1016.719
161.877	27.011	1258.931	1015.889
162.892	26.967	1257.932	1014.748
163.906	27.042	1257.415	1014.660
164.921	27.087	1256.640	1014.194
165.935	27.021	1255.993	1013.214
166.950	27.152	1255.114	1013.148
167.964	27.126	1254.464	1012.386
168.979	27.035	1254.260	1011.624
169.994	27.111	1253.442	1011.303
171.008	27.067	1252.997	1010.605
172.023	27.031	1252.419	1009.853
173.037	27.011	1251.513	1008.923
174.052	27.022	1250.913	1008.409
175.067	27.129	1249.800	1008.014
176.081	27.065	1249.410	1007.259
177.096	27.055	1248.631	1006.484
178.110	27.127	1247.237	1005.668
179.125	27.091	1246.369	1004.681
180.140	27.190	1245.309	1004.283
181.154	27.102	1244.122	1002.754
182.169	27.063	1243.590	1002.020
183.183	27.070	1242.355	1000.974
184.198	27.127	1241.437	1000.465
185.213	27.046	1240.421	999.107
186.227	27.099	1239.337	998.438
187.242	27.120	1238.781	998.018
188.256	27.225	1237.851	997.757
189.271	27.153	1237.154	996.710
190.286	27.116	1236.540	995.926
191.300	27.131	1236.182	995.632
192.315	27.133	1235.498	995.001
193.329	27.165	1235.003	994.692
194.344	27.188	1234.381	994.226
195.359	27.179	1234.229	993.968
196.373	27.164	1233.693	993.370
197.388	27.044	1233.665	992.603
198.402	27.161	1232.744	992.414
199.417	27.132	1232.414	991.902
200.432	27.107	1231.923	991.278
201.446	27.252	1230.848	991.118
202.461	27.208	1230.303	990.351
203.475	27.260	1229.445	989.855
204.490	27.163	1228.569	988.537
205.504	27.225	1227.481	987.907
206.519	27.131	1226.761	986.732
207.534	27.307	1225.415	986.517
208.548	27.327	1224.883	986.110
209.563	27.142	1224.292	984.545
210.577	27.192	1223.339	983.960
211.592	27.187	1222.418	983.109
212.607	27.396	1221.520	983.428
213.621	27.362	1220.801	982.577
214.636	27.336	1220.028	981.726
215.650	27.224	1219.583	980.680
216.665	27.218	1218.599	979.767
217.680	27.298	1217.677	979.370
218.694	27.303	1216.903	978.689
219.709	27.300	1216.429	978.205
220.723	27.275	1215.474	977.219
221.738	27.318	1214.728	976.762
222.753	27.251	1213.946	975.684
223.767	27.262	1213.556	975.343
224.782	27.346	1213.080	975.327
225.796	27.447	1212.457	975.282
226.811	27.373	1211.606	974.111
227.826	27.491	1211.193	974.327
228.840	27.434	1210.711	973.549
229.855	27.457	1210.132	973.121
230.869	27.466	1208.759	971.976
231.884	27.365	1208.391	971.058
232.899	27.460	1207.374	970.659
233.913	27.426	1207.069	970.148
234.928	27.566	1206.574	970.407
235.942	27.440	1206.473	969.570
236.957	27.510	1205.544	969.110
237.972	27.374	1204.794	967.699
238.986	27.395	1204.492	967.484
240.001	27.516	1203.593	967.316
241.015	27.652	1202.567	967.130
242.030	27.706	1201.600	966.554
243.045	27.666	1200.954	965.735
244.059	27.470	1200.948	964.605
245.074	27.545	1199.965	964.127
246.088	27.479	1198.946	962.878
247.103	27.567	1198.044	962.531
248.117	27.572	1197.078	961.695
249.132	27.600	1196.405	961.219
250.147	27.622	1195.778	960.747
251.161	27.496	1195.514	959.782
252.176	27.618	1194.753	959.732
253.190	27.663	1194.024	959.297
254.205	27.646	1193.726	958.884
255.220	27.616	1192.791	957.889
256.234	27.707	1191.800	957.488
257.249	27.551	1191.910	956.670
258.263	27.596	1191.018	956.107
259.278	27.710	1190.844	956.480
260.293	27.721	1189.893	955.689
261.307	27.727	1189.416	955.252
262.322	27.817	1188.478	954.886
263.336	27.732	1188.182	954.117
264.351	27.605	1187.571	952.880
265.366	27.681	1186.964	952.707
266.380	27.830	1186.028	952.650
267.395	27.732	1185.459	951.598
268.409	27.621	1184.832	950.431
269.424	27.674	1184.573	950.412
270.439	27.794	1183.949	950.453
271.453	27.736	1183.193	949.462
272.468	27.731	1182.255	948.600
273.482	27.837	1181.318	948.313
274.497	27.790	1181.130	947.833
275.512	27.778	1180.684	947.330
276.526	27.790	1180.116	946.854
277.541	27.771	1179.485	946.163
278.555	27.776	1178.898	945.635
279.570	27.961	1177.807	945.634
280.585	27.821	1177.195	944.335
281.599	27.818	1176.540	943.713
282.614	27.812	1175.720	942.937
283.628	27.879	1174.583	942.288
284.643	27.815	1173.953	941.373
285.657	27.848	1173.218	940.866
286.672	27.895	1172.279	940.275
287.687	27.898	1171.452	939.544
288.701	27.828	1171.049	938.775
289.716	27.989	1170.382	938.986
290.730	28.024	1169.482	938.358
291.745	27.907	1168.802	937.130
292.760	28.017	1168.123	937.069
293.774	27.968	1167.945	936.591
294.789	28.000	1167.117	936.005
295.803	27.974	1166.610	935.384
296.818	28.011	1165.961	934.973
297.833	27.989	1165.810	934.653
298.847	27.980	1165.029	933.901
299.862	28.109	1163.723	933.430
300.876	27.988	1163.331	932.415
301.891	28.067	1163.076	932.529
302.906	28.116	1161.830	931.696
303.920	28.149	1161.087	931.189
304.935	28.022	1160.803	930.234
305.949	28.071	1159.699	929.513
306.964	28.105	1159.733	929.634
307.979	28.124	1158.875	928.957
308.993	28.042	1158.615	928.249
310.008	28.205	1157.721	928.278
311.022	28.158	1156.667	927.113
312.037	28.154	1156.452	926.838
313.052	28.026	1155.708	925.512
314.066	28.139	1154.546	925.072
315.081	28.188	1153.601	924.481
316.095	28.281	1152.603	924.068
317.110	28.242	1152.286	923.536
318.125	28.208	1152.052	923.094
319.139	28.225	1151.217	922.428
320.154	28.278	1150.550	922.081
321.168	28.180	1150.370	921.362
322.183	28.256	1149.494	920.962
323.197	28.174	1149.168	920.208
324.212	28.324	1148.270	920.157
325.227	28.392	1147.487	919.793
326.241	28.351	1147.240	919.306
327.256	28.286	1146.619	918.400
328.270	28.298	1145.700	917.645
329.285	28.355	1144.750	917.088
330.300	28.292	1144.482	916.478
331.314	28.291	1143.259	915.411
332.329	28.294	1142.941	915.092
333.343	28.299	1142.460	914.651
334.358	28.346	1141.263	913.845
335.373	28.434	1140.642	913.705
336.387	28.385	1139.957	912.831
337.402	28.535	1139.107	912.816
338.416	28.394	1138.653	911.670
339.431	28.344	1138.597	911.295
340.446	28.462	1137.743	911.118
341.460	28.489	1136.814	910.429
342.475	28.571	1135.818	909.957
343.489	28.497	1135.002	908.856
344.504	28.482	1134.093	907.975
345.519	28.614	1133.167	907.805
346.533	28.477	1132.583	906.578
347.548	28.683	1131.848	906.928
348.562	28.642	1131.080	906.032
349.577	28.498	1130.890	905.087
350.592	28.545	1129.674	904.265
351.606	28.407	1129.532	903.393
352.621	28.488	1128.916	903.220
353.635	28.559	1128.002	902.757
354.650	28.554	1127.874	902.551
355.665	28.683	1126.552	902.043
356.679	28.722	1125.783	901.542
357.694	28.659	1125.431	900.868
358.708	28.792	1124.617	900.791
359.723	28.711	1124.436	900.168
360.738	28.648	1123.914	899.364
361.752	28.653	1123.161	898.703
362.767	28.704	1122.779	898.571
363.781	28.721	1122.434	898.297
364.796	28.819	1121.324	897.808
365.810	28.690	1120.889	896.752
366.825	28.743	1120.016	896.232
367.840	28.755	1120.172	896.334
368.854	28.980	1119.264	896.627
369.869	28.883	1118.457	895.428
370.883	28.808	1117.872	894.514
371.898	28.759	1116.853	893.385
372.913	28.879	1116.360	893.493
373.927	28.900	1115.942	893.182
374.942	28.897	1115.584	892.801
375.956	28.997	1114.842	892.612
376.971	28.802	1114.704	891.479
377.986	28.872	1114.190	891.326
379.000	28.905	1113.167	890.592
380.015	28.983	1112.534	890.383
381.029	28.919	1111.946	889.525
382.044	28.893	1111.962	889.330
383.059	29.025	1110.822	888.981
384.073	29.089	1110.214	888.722
385.088	28.998	1109.257	887.439
386.102	29.022	1108.623	886.971
387.117	28.978	1107.983	886.168
388.132	28.927	1107.068	885.111
389.146	29.041	1106.621	885.226
390.161	28.998	1106.054	884.484
391.175	28.933	1105.309	883.496
392.190	29.004	1104.505	883.118
393.205	29.055	1103.975	882.863
394.219	29.140	1103.124	882.510
395.234	29.080	1102.415	881.578
396.248	29.061	1101.465	880.649
397.263	29.149	1100.364	880.112
398.278	29.199	1100.025	880.003
399.292	29.162	1099.269	879.142
400.307	29.150	1099.115	878.882
401.321	29.249	1098.192	878.541
402.336	29.126	1097.730	877.505
403.350	29.092	1097.085	876.752
404.365	29.065	1096.685	876.224
405.380	29.219	1095.690	876.086
406.394	29.247	1095.319	875.843
407.409	29.394	1094.513	875.818
408.423	29.348	1093.569	874.768
409.438	29.262	1092.875	873.728
410.453	29.371	1092.212	873.637
411.467	29.319	1091.648	872.862
412.482	29.293	1090.866	872.035
413.496	29.325	1090.296	871.655
414.511	29.322	1089.703	871.089
415.526	29.409	1089.333	871.127
416.540	29.325	1088.819	870.243
417.555	29.348	1088.277	869.842
418.569	29.484	1087.835	870.054
419.584	29.521	1087.104	869.564
420.599	29.465	1086.837	869.009
421.613	103.078	1322.903	1457.768
422.628	95.944	1357.279	1457.873
