DTS Sentinel unit serial number:	SN413079Multiplexer serial number:	ORYXHardware model number:	OX4-SRSoftware version number:	ORYX F/W v4.00 Oryx Data Collector v3.7.2.0data status	okinstallation	princeton_trtdifferential loss correction	single-endedforward channel	channel 2reverse channel	N/Adate	2019/09/11time	15:21:11forward acquisition time	60.00reverse acquisition time	0.00gamma	496.2192k internal	0.2289k external	0.2289temperature offset calibration	1.0012default loss term (dB/km)	0.3790temperature slope calibration	1.0000multiplexer offset coefficient	1.0000multiplexer slope coefficient	1.0000fibre end	0.00T internal ref (°C)	42.87T ext. ref 1 (°C)	0.97T ext. ref 2 (°C)	35.89length (m)	temperature (°C)	Stokes	anti-Stokes-747.200	140.001	-0.176	0.238
-746.185	-152.516	-0.126	-0.009
-745.171	-140.787	0.076	0.008
-744.156	310.337	0.085	-0.162
-743.142	-69.315	-0.374	-0.147
-742.127	-26.103	0.282	0.170
-741.112	51.438	-0.176	-0.171
-740.098	58.730	0.097	-0.098
-739.083	106.059	-0.089	-0.107
-738.069	-87.610	0.068	0.021
-737.054	69.232	-0.117	-0.123
-736.039	-200.000	0.008	-0.116
-735.025	-24.988	-0.044	0.027
-734.010	-59.244	0.116	0.051
-732.996	157.389	0.099	-0.140
-731.981	583.801	-0.026	0.066
-730.966	449.696	-0.073	0.165
-729.952	365.657	-0.052	-0.107
-728.937	800.000	-0.111	-0.390
-727.923	-200.000	-0.010	-0.120
-726.908	121.217	-0.158	-0.202
-725.894	150.523	0.082	-0.115
-724.879	159.010	-0.259	-0.368
-723.864	-91.412	-0.141	0.041
-722.850	-99.317	-0.088	-0.023
-721.835	441.005	0.109	0.245
-720.821	-200.000	-0.021	0.472
-719.806	19.707	0.147	-0.121
-718.791	-102.358	0.385	-0.095
-717.777	800.000	-0.100	-0.296
-716.762	567.023	-0.128	0.317
-715.748	-95.831	-0.478	0.131
-714.733	92.165	0.100	-0.116
-713.718	79.390	0.231	-0.254
-712.704	165.016	0.098	-0.142
-711.689	-13.935	0.343	-0.227
-710.675	132.281	-0.154	0.203
-709.660	-118.801	0.091	0.016
-708.645	-121.249	-0.021	-0.004
-707.631	154.992	-0.129	-0.182
-706.616	800.000	-0.061	-0.265
-705.602	-33.849	0.095	0.053
-704.587	667.007	0.051	0.134
-703.572	800.000	-0.055	0.162
-702.558	-32.662	-0.230	-0.131
-701.543	270.481	-0.101	0.182
-700.529	261.307	-0.120	0.212
-699.514	80.657	0.235	0.259
-698.499	225.581	0.227	0.377
-697.485	-137.292	0.219	0.025
-696.470	-172.951	0.157	0.005
-695.456	69.624	0.193	0.203
-694.441	800.000	-0.052	0.191
-693.426	275.027	-0.191	0.345
-692.412	-127.931	-0.255	-0.038
-691.397	-49.603	0.171	0.083
-690.383	-153.272	-0.146	0.010
-689.368	69.707	-0.059	-0.062
-688.354	121.505	0.094	0.120
-687.339	-103.338	0.058	-0.014
-686.324	521.061	0.271	0.651
-685.310	335.474	-0.123	-0.244
-684.295	428.833	0.059	-0.131
-683.281	-42.965	0.117	-0.060
-682.266	-105.394	-0.366	-0.085
-681.251	-45.963	-0.167	0.084
-680.237	800.000	0.067	0.237
-679.222	670.930	-0.108	-0.285
-678.208	99.638	-0.051	-0.061
-677.193	220.680	-0.115	-0.189
-676.178	800.000	0.038	0.132
-675.164	5.497	0.140	-0.106
-674.149	297.283	-0.107	-0.201
-673.135	-67.714	0.206	0.082
-672.120	-200.000	-0.004	0.058
-671.105	800.000	0.026	0.078
-670.091	-51.604	0.209	0.100
-669.076	71.903	-0.145	-0.154
-668.062	-108.072	-0.171	-0.038
-667.047	375.584	-0.071	0.147
-666.032	564.396	-0.168	0.416
-665.018	153.756	-0.100	0.140
-664.003	-97.139	0.349	-0.093
-662.989	-111.134	-0.293	0.061
-661.974	-81.674	-0.040	0.013
-660.959	-87.813	0.082	0.025
-659.945	294.399	-0.121	-0.226
-658.930	101.238	-0.163	-0.194
-657.916	474.463	0.130	-0.300
-656.901	-108.266	-0.208	-0.046
-655.886	-87.144	0.200	0.062
-654.872	-1.957	-0.098	-0.070
-653.857	-80.918	0.572	-0.194
-652.843	800.000	-0.055	-0.176
-651.828	634.647	-0.136	0.352
-650.814	3.786	-0.109	0.081
-649.799	-200.000	0.017	0.108
-648.784	-121.823	-0.296	-0.050
-647.770	-200.000	-0.020	0.344
-646.755	-91.312	0.311	-0.091
-645.741	-193.285	-0.456	0.004
-644.726	800.000	-0.007	0.026
-643.711	-118.070	0.182	0.033
-642.697	-92.862	0.428	-0.122
-641.682	199.315	0.130	-0.204
-640.668	-57.538	-0.205	-0.092
-639.653	127.406	-0.104	-0.135
-638.638	746.195	-0.061	-0.168
-637.624	-108.607	0.447	0.098
-636.609	80.414	0.199	-0.218
-635.595	-43.156	0.198	0.102
-634.580	385.362	0.136	0.286
-633.565	238.220	0.123	0.208
-632.551	-16.296	0.089	-0.057
-631.536	725.740	-0.125	0.339
-630.522	-200.000	-0.033	0.342
-629.507	496.012	0.091	0.214
-628.492	-200.000	-0.008	0.101
-627.478	-200.000	-0.007	0.243
-626.463	-200.000	0.058	0.296
-625.449	800.000	0.013	0.048
-624.434	-200.000	-0.026	0.155
-623.419	289.452	-0.142	-0.262
-622.405	-109.812	-0.350	-0.075
-621.390	-49.691	0.266	0.129
-620.376	-200.000	0.038	0.293
-619.361	-65.585	-0.234	-0.096
-618.346	139.340	0.295	-0.396
-617.332	-33.630	0.202	-0.114
-616.317	-35.098	-0.130	0.072
-615.303	-4.057	-0.234	0.165
-614.288	303.739	0.098	-0.185
-613.273	-191.430	-0.008	0.000
-612.259	800.000	-0.079	0.279
-611.244	-200.000	-0.016	-0.306
-610.230	69.458	-0.217	-0.227
-609.215	98.456	0.080	0.094
-608.201	-200.000	-0.027	-0.318
-607.186	-87.069	-0.413	-0.128
-606.171	-51.683	-0.350	-0.166
-605.157	-113.392	-0.249	0.050
-604.142	-5.744	-0.094	0.066
-603.128	427.296	-0.249	-0.548
-602.113	43.937	-0.209	-0.195
-601.098	69.632	0.174	0.183
-600.084	-82.963	-0.159	-0.052
-599.069	-15.478	-0.089	-0.058
-598.055	-138.989	0.211	-0.023
-597.040	-27.638	0.101	0.060
-596.025	577.228	0.183	-0.457
-595.011	-101.170	-0.046	0.011
-593.996	-17.451	-0.156	0.100
-592.982	113.386	0.050	0.062
-591.967	-96.668	0.219	-0.059
-590.952	18.263	0.213	-0.173
-589.938	-49.514	0.148	0.072
-588.923	-200.000	0.025	0.467
-587.909	-66.728	-0.261	0.105
-586.894	800.000	0.044	-0.196
-585.879	151.448	0.059	0.081
-584.865	-200.000	0.012	-0.098
-583.850	-9.059	0.139	-0.095
-582.836	389.363	-0.096	-0.203
-581.821	-80.517	0.107	0.036
-580.806	-37.824	-0.142	0.077
-579.792	-128.287	-0.387	-0.056
-578.777	-38.220	0.333	0.180
-577.763	73.800	-0.198	0.211
-576.748	-84.617	-0.149	-0.048
-575.733	51.588	0.035	-0.034
-574.719	-200.000	-0.015	0.091
-573.704	152.679	0.137	-0.190
-572.690	459.892	0.110	-0.249
-571.675	-83.978	0.162	0.053
-570.661	-53.284	0.203	-0.095
-569.646	129.192	-0.280	0.363
-568.631	47.402	0.214	-0.202
-567.617	-200.000	0.040	0.364
-566.602	-164.804	-0.365	0.017
-565.588	6.418	0.371	-0.280
-564.573	44.805	0.055	-0.051
-563.558	109.023	-0.171	0.208
-562.544	58.353	-0.107	0.107
-561.529	239.728	-0.125	-0.212
-560.515	-145.694	-0.242	0.022
-559.500	800.000	-0.054	0.169
-558.485	-200.000	-0.027	0.203
-557.471	-200.000	0.015	0.234
-556.456	-11.227	-0.169	0.113
-555.442	-64.533	0.348	-0.144
-554.427	149.121	0.076	-0.104
-553.412	-200.000	-0.036	0.210
-552.398	-107.686	-0.269	-0.060
-551.383	-17.777	-0.152	-0.097
-550.369	-163.403	0.228	-0.011
-549.354	354.973	-0.195	-0.394
-548.339	-200.000	0.021	-0.163
-547.325	-12.072	0.221	-0.147
-546.310	-41.775	0.246	0.128
-545.296	-117.136	-0.193	-0.036
-544.281	-61.623	-0.437	0.186
-543.266	-53.476	-0.343	0.160
-542.252	-108.786	0.401	-0.087
-541.237	-200.000	0.048	0.256
-540.223	-176.229	-0.197	-0.005
-539.208	-200.000	-0.003	0.128
-538.193	800.000	0.055	-0.186
-537.179	800.000	-0.043	-0.122
-536.164	107.448	-0.197	-0.238
-535.150	375.022	-0.076	0.158
-534.135	79.467	0.188	-0.205
-533.121	-91.554	-0.369	0.107
-532.106	-84.409	0.144	0.046
-531.091	1.009	-0.231	-0.169
-530.077	72.931	-0.194	-0.206
-529.062	330.531	0.049	0.096
-528.048	132.241	-0.234	0.306
-527.033	-36.019	-0.147	0.081
-526.018	447.608	0.125	0.279
-525.004	26.111	-0.102	0.086
-523.989	-95.037	0.419	-0.115
-522.975	544.512	0.129	-0.312
-521.960	-123.962	0.096	-0.015
-520.945	800.000	-0.041	-0.118
-519.931	800.000	-0.050	0.208
-518.916	-200.000	-0.010	-0.269
-517.902	-200.000	-0.011	0.175
-516.887	-165.108	0.131	0.006
-515.872	19.735	0.075	-0.061
-514.858	185.836	-0.199	0.301
-513.843	213.168	-0.135	0.217
-512.829	800.000	-0.027	0.115
-511.814	267.475	-0.107	0.190
-510.799	-27.936	-0.291	0.171
-509.785	65.574	-0.224	-0.230
-508.770	71.195	0.253	-0.266
-507.756	72.863	-0.033	-0.035
-506.741	-200.000	0.009	0.125
-505.726	800.000	0.055	-0.154
-504.712	-142.508	-0.166	0.017
-503.697	-51.738	-0.239	-0.113
-502.683	284.679	-0.179	0.327
-501.668	-103.430	-0.300	-0.072
-500.653	800.000	-0.104	0.297
-499.639	-120.509	-0.111	0.019
-498.624	-200.000	-0.044	0.395
-497.610	-56.490	0.349	-0.157
-496.595	-114.840	0.415	-0.080
-495.581	-9.920	-0.025	-0.017
-494.566	-40.971	-0.113	-0.059
-493.551	-46.861	0.271	-0.134
-492.537	332.822	0.046	0.089
-491.522	-186.623	-0.036	-0.001
-490.508	221.657	0.023	0.037
-489.493	483.983	-0.116	0.268
-488.478	800.000	-0.077	0.324
-487.464	-116.732	0.107	-0.020
-486.449	73.206	0.142	-0.151
-485.435	48.430	-0.168	-0.159
-484.420	-200.000	-0.013	-0.340
-483.405	-60.061	0.135	0.058
-482.391	526.305	-0.020	0.049
-481.376	800.000	-0.148	-0.593
-480.362	32.010	0.155	-0.135
-479.347	760.609	-0.077	0.211
-478.332	-160.338	0.410	-0.022
-477.318	362.952	-0.046	-0.093
-476.303	-137.458	0.427	0.049
-475.289	-200.000	0.038	0.210
-474.274	800.000	0.051	0.213
-473.259	-164.590	0.134	-0.006
-472.245	800.000	-0.029	0.099
-471.230	-24.992	0.221	-0.133
-470.216	-140.556	0.142	0.015
-469.201	-146.186	-0.317	-0.028
-468.186	-190.608	0.044	-0.000
-467.172	116.784	0.166	0.207
-466.157	33.614	0.102	-0.090
-465.143	566.081	0.057	-0.140
-464.128	-143.778	0.073	-0.007
-463.113	58.302	0.224	-0.222
-462.099	38.667	0.171	-0.155
-461.084	-34.039	0.238	0.133
-460.070	637.179	-0.046	-0.119
-459.055	308.894	-0.084	-0.159
-458.040	-200.000	-0.022	-0.221
-457.026	59.633	-0.177	-0.177
-456.011	-79.376	-0.171	0.059
-454.997	-32.149	0.396	-0.224
-453.982	33.752	0.163	0.143
-452.968	23.143	-0.033	0.027
-451.953	141.729	0.060	-0.081
-450.938	800.000	0.101	0.304
-449.924	-122.180	-0.050	0.008
-448.909	180.269	0.030	-0.045
-447.895	-127.192	0.183	-0.027
-446.880	304.608	-0.069	0.129
-445.865	199.210	-0.150	-0.233
-444.851	800.000	-0.055	-0.166
-443.836	70.390	-0.131	-0.137
-442.822	29.856	0.058	0.050
-441.807	290.831	0.163	0.300
-440.792	114.818	0.172	0.212
-439.778	-200.000	-0.014	-0.362
-438.763	-200.000	-0.025	-0.315
-437.749	23.064	-0.151	-0.126
-436.734	34.366	-0.183	-0.161
-435.719	-134.382	0.397	-0.049
-434.705	-200.000	0.036	-0.264
-433.690	17.933	0.245	0.198
-432.676	-52.477	0.214	-0.100
-431.661	800.000	-0.019	0.059
-430.646	-4.537	0.265	-0.185
-429.632	89.328	-0.057	0.065
-428.617	-200.000	-0.019	-0.348
-427.603	796.315	0.126	-0.351
-426.588	281.284	-0.053	-0.097
-425.573	526.864	-0.071	0.170
-424.559	248.132	-0.150	0.256
-423.544	-112.974	0.067	-0.013
-422.530	-131.194	-0.223	0.030
-421.515	-86.516	-0.217	-0.067
-420.500	-11.632	0.347	0.230
-419.486	-200.000	0.068	0.358
-418.471	201.866	0.095	-0.148
-417.457	800.000	-0.149	0.516
-416.442	188.449	-0.223	0.338
-415.428	-33.316	-0.359	-0.201
-414.413	381.517	-0.131	-0.273
-413.398	-200.000	0.000	0.192
-412.384	754.109	-0.018	0.050
-411.369	-19.962	0.298	-0.186
-410.355	-184.198	-0.359	0.006
-409.340	197.639	0.241	-0.372
-408.325	-200.000	0.029	0.199
-407.311	-200.000	0.016	0.156
-406.296	-102.328	-0.286	0.069
-405.282	182.936	0.126	0.188
-404.267	160.004	0.174	0.245
-403.252	-93.238	-0.377	-0.106
-402.238	-174.441	-0.253	0.007
-401.223	-200.000	-0.029	-0.234
-400.209	-53.520	0.218	-0.101
-399.194	24.377	0.162	0.135
-398.179	-21.652	0.266	0.164
-397.165	-151.762	0.028	-0.002
-396.150	168.520	0.110	0.158
-395.136	43.636	-0.160	0.148
-394.121	251.347	-0.078	-0.133
-393.106	800.000	-0.091	-0.262
-392.092	494.693	0.193	-0.448
-391.077	228.598	0.134	-0.221
-390.063	-57.855	0.093	0.041
-389.048	29.905	0.331	-0.285
-388.033	15.934	0.054	0.043
-387.019	-200.000	0.017	0.288
-386.004	237.199	-0.096	0.161
-384.990	-17.064	-0.236	0.151
-383.975	465.266	-0.151	-0.341
-382.960	-200.000	-0.006	-0.115
-381.946	-119.592	-0.227	0.040
-380.931	204.390	0.085	-0.133
-379.917	-200.000	-0.022	0.213
-378.902	-144.689	-0.046	0.004
-377.888	-83.417	-0.229	0.074
-376.873	-78.398	-0.085	0.029
-375.858	-200.000	0.029	-0.208
-374.844	-116.337	0.230	0.043
-373.829	24.363	-0.089	-0.075
-372.815	395.359	0.076	-0.159
-371.800	13.054	0.285	0.223
-370.785	-77.598	0.110	-0.039
-369.771	-31.675	0.184	-0.104
-368.756	-121.342	-0.266	0.045
-367.742	136.672	-0.208	0.275
-366.727	-180.325	-0.321	0.007
-365.712	-187.188	-0.092	0.001
-364.698	23.134	0.180	-0.149
-363.683	-81.177	-0.062	-0.021
-362.669	800.000	0.081	0.300
-361.654	-200.000	0.054	0.389
-360.639	-134.113	-0.172	0.021
-359.625	-6.813	0.210	-0.144
-358.610	229.101	-0.134	-0.221
-357.596	-168.603	0.175	-0.007
-356.581	-200.000	0.020	0.183
-355.566	-159.738	-0.233	0.013
-354.552	66.804	-0.202	-0.208
-353.537	480.673	0.065	0.149
-352.523	76.550	0.175	-0.187
-351.508	-198.094	-0.163	0.001
-350.493	-79.928	0.141	0.048
-349.479	226.763	0.117	0.192
-348.464	42.053	0.145	0.133
-347.450	-100.655	0.074	-0.018
-346.435	-69.218	-0.254	-0.099
-345.420	-67.065	-0.202	0.081
-344.406	314.211	-0.000	0.001
-343.391	-31.687	-0.355	0.201
-342.377	800.000	0.037	-0.112
-341.362	800.000	0.018	0.056
-340.348	-18.514	0.155	-0.097
-339.333	-33.638	0.139	0.077
-338.318	233.392	-0.138	0.229
-337.304	-73.183	0.042	0.015
-336.289	-128.922	-0.049	0.007
-335.275	-200.000	-0.051	-0.324
-334.260	131.214	0.016	0.021
-333.245	-48.215	-0.321	0.156
-332.231	-122.256	-0.305	0.050
-331.216	775.827	-0.042	0.115
-330.202	87.424	-0.226	0.253
-329.187	81.215	-0.107	-0.117
-328.172	781.706	-0.041	-0.114
-327.158	261.645	-0.059	0.103
-326.143	264.795	0.131	-0.230
-325.129	-200.000	0.016	-0.347
-324.114	306.039	-0.166	0.312
-323.099	223.714	-0.165	-0.269
-322.085	-47.072	-0.331	-0.163
-321.070	108.748	0.104	0.125
-320.056	-100.524	0.145	-0.036
-319.041	-79.637	0.321	0.109
-318.026	-135.667	-0.238	0.028
-317.012	-89.021	-0.253	0.075
-315.997	280.664	-0.194	-0.350
-314.983	-80.939	-0.259	0.086
-313.968	-200.000	0.024	-0.212
-312.953	-178.445	0.136	-0.003
-311.939	-28.089	0.213	-0.124
-310.924	-47.377	0.210	0.103
-309.910	-152.473	-0.119	-0.009
-308.895	-200.000	0.017	-0.125
-307.880	-131.195	-0.165	0.022
-306.866	68.888	-0.083	-0.086
-305.851	-93.970	0.115	0.032
-304.837	-200.000	0.010	-0.102
-303.822	-42.524	0.165	0.085
-302.807	244.572	0.027	-0.045
-301.793	-101.162	-0.343	0.085
-300.778	117.324	0.099	0.122
-299.764	486.021	0.077	0.177
-298.749	-114.666	-0.168	0.032
-297.735	3.822	-0.151	0.111
-296.720	-126.641	-0.135	-0.020
-295.705	533.670	0.114	-0.273
-294.691	800.000	0.089	-0.371
-293.676	-177.857	0.143	-0.003
-292.662	-200.000	0.029	0.138
-291.647	520.674	0.123	0.290
-290.632	22.431	0.261	0.215
-289.618	-171.234	0.224	-0.008
-288.603	-200.000	-0.028	-0.343
-287.589	-50.149	-0.109	0.052
-286.574	92.362	0.297	-0.337
-285.559	800.000	-0.043	-0.155
-284.545	-174.094	-0.133	-0.004
-283.530	-65.142	-0.089	0.036
-282.516	-27.192	0.245	-0.144
-281.501	800.000	-0.039	-0.123
-280.486	169.706	-0.104	0.150
-279.472	49.523	-0.091	0.086
-278.457	381.062	0.111	-0.229
-277.443	-74.771	-0.241	-0.087
-276.428	-200.000	0.052	0.237
-275.413	800.000	0.058	0.163
-274.399	200.687	-0.064	-0.099
-273.384	160.731	-0.131	-0.184
-272.370	-200.000	-0.018	0.177
-271.355	239.763	-0.227	-0.380
-270.340	320.810	0.081	-0.155
-269.326	-139.901	0.189	0.020
-268.311	162.038	-0.093	-0.131
-267.297	7.282	0.185	-0.139
-266.282	217.290	-0.132	-0.212
-265.267	34.736	0.173	-0.152
-264.253	-200.000	0.012	-0.160
-263.238	-86.253	-0.180	-0.056
-262.224	-11.459	-0.139	0.092
-261.209	42.733	0.212	0.194
-260.195	407.307	0.123	-0.262
-259.180	-117.298	-0.218	-0.040
-258.165	-39.998	-0.182	0.096
-257.151	-46.994	0.094	0.046
-256.136	-11.946	0.079	0.052
-255.122	18.934	-0.184	0.148
-254.107	53.905	-0.125	-0.121
-253.092	-13.225	-0.140	-0.091
-252.078	128.269	0.057	-0.073
-251.063	-62.408	0.385	0.161
-250.049	-102.620	0.099	0.024
-249.034	-200.000	0.033	-0.463
-248.019	-121.538	-0.259	0.043
-247.005	89.081	0.180	0.202
-245.990	-7.670	0.144	-0.098
-244.976	-129.526	0.141	-0.020
-243.961	85.583	0.217	-0.240
-242.946	55.028	-0.054	-0.053
-241.932	518.492	0.089	-0.209
-240.917	-25.349	0.081	-0.048
-239.903	-75.901	0.209	0.074
-238.888	800.000	-0.056	-0.214
-237.873	-42.433	-0.522	0.267
-236.859	75.585	-0.264	-0.280
-235.844	623.606	-0.030	0.077
-234.830	-43.033	0.098	0.050
-233.815	-128.899	0.149	0.021
-232.800	-125.511	0.266	-0.041
-231.786	32.367	0.336	-0.292
-230.771	399.486	0.098	0.205
-229.757	-200.000	0.026	0.214
-228.742	102.488	-0.079	-0.093
-227.727	800.000	-0.086	0.260
-226.713	-134.761	0.201	0.025
-225.698	800.000	0.061	0.211
-224.684	-45.892	0.176	-0.087
-223.669	-200.000	0.029	0.215
-222.655	145.020	0.038	0.051
-221.640	-200.000	-0.010	0.235
-220.625	-12.320	-0.392	-0.257
-219.611	-200.000	-0.014	0.227
-218.596	-200.000	0.000	0.106
-217.582	-86.876	0.171	0.053
-216.567	111.286	-0.075	0.090
-215.552	-130.897	-0.064	-0.009
-214.538	-200.000	0.024	-0.206
-213.523	308.078	-0.261	0.489
-212.509	0.812	0.190	-0.136
-211.494	4.463	0.201	0.148
-210.479	-163.538	-0.322	-0.015
-209.465	-108.411	-0.407	0.088
-208.450	-177.292	-0.312	-0.008
-207.436	180.696	0.047	-0.069
-206.421	-115.440	-0.224	-0.042
-205.406	-12.712	0.071	0.047
-204.392	480.926	0.023	-0.052
-203.377	41.203	0.198	0.179
-202.363	-118.221	0.332	0.059
-201.348	150.694	0.053	0.072
-200.333	-200.000	0.007	0.140
-199.319	-26.032	0.165	-0.098
-198.304	-100.218	0.326	-0.081
-197.290	184.284	0.191	-0.284
-196.275	-26.823	-0.136	0.080
-195.260	660.928	0.056	-0.145
-194.246	-19.613	0.181	-0.112
-193.231	781.753	-0.069	0.190
-192.217	31.664	0.158	0.136
-191.202	800.000	0.062	-0.183
-190.187	105.427	0.172	0.203
-189.173	204.735	-0.051	0.079
-188.158	430.337	0.073	0.159
-187.144	106.334	-0.095	0.113
-186.129	17.905	-0.155	0.124
-185.114	-98.320	0.366	-0.094
-184.100	119.072	0.283	-0.351
-183.085	-200.000	-0.049	-0.311
-182.071	-200.000	-0.001	0.278
-181.056	488.163	-0.128	0.294
-180.042	301.402	-0.159	0.295
-179.027	133.388	-0.188	-0.244
-178.012	-200.000	-0.006	-0.340
-176.998	135.251	0.175	0.229
-175.983	-138.339	0.381	0.042
-174.969	54.771	-0.011	0.011
-173.954	800.000	0.102	0.327
-172.939	211.036	-0.134	-0.211
-171.925	-200.000	-0.031	0.282
-170.910	-125.595	0.233	-0.035
-169.896	-72.641	-0.191	-0.070
-168.881	111.319	-0.249	0.301
-167.866	-94.778	0.100	0.027
-166.852	15.177	-0.096	0.075
-165.837	-55.311	-0.070	-0.032
-164.823	-68.305	-0.141	0.055
-163.808	17.219	0.104	-0.082
-162.793	382.472	-0.056	0.116
-161.779	25.896	-0.415	0.347
-160.764	-200.000	-0.048	-0.237
-159.750	-200.000	-0.013	0.195
-158.735	-200.000	-0.011	-0.062
-157.720	-44.346	0.383	0.192
-156.706	-200.000	-0.004	0.196
-155.691	-44.487	0.362	-0.181
-154.677	-71.433	0.130	-0.049
-153.662	367.526	0.045	0.091
-152.647	-126.175	0.119	0.018
-151.633	8.363	-0.283	0.213
-150.618	-124.587	0.338	0.053
-149.604	800.000	-0.051	-0.217
-148.589	14.475	-0.074	0.058
-147.574	800.000	0.024	0.073
-146.560	75.046	-0.215	-0.226
-145.545	-38.584	-0.117	0.062
-144.531	-37.420	-0.174	-0.093
-143.516	800.000	0.036	-0.106
-142.502	-200.000	0.019	0.205
-141.487	11.021	0.102	-0.078
-140.472	800.000	0.156	0.487
-139.458	126.391	-0.056	-0.071
-138.443	68.435	0.050	0.051
-137.429	-200.000	0.013	0.100
-136.414	-200.000	-0.034	-0.165
-135.399	-29.505	0.085	0.049
-134.385	33.587	-0.153	-0.133
-133.370	-102.579	0.182	-0.043
-132.356	-200.000	-0.015	0.212
-131.341	-200.000	0.020	0.192
-130.326	-61.282	0.348	0.147
-129.312	-71.122	0.101	0.038
-128.297	-95.965	-0.147	0.039
-127.283	800.000	0.064	0.229
-126.268	159.341	-0.127	0.177
-125.253	330.626	0.150	0.289
-124.239	-42.992	0.182	0.092
-123.224	297.517	0.056	0.102
-122.210	177.847	-0.068	0.099
-121.195	95.040	0.029	-0.033
-120.180	-77.986	0.120	-0.041
-119.166	-80.457	0.150	-0.050
-118.151	84.017	-0.084	0.092
-117.137	78.341	0.199	0.212
-116.122	800.000	0.077	-0.269
-115.107	458.432	0.102	-0.226
-114.093	-20.093	0.039	-0.024
-113.078	282.621	0.071	0.128
-112.064	273.692	0.117	0.207
-111.049	-200.000	-0.023	-0.287
-110.034	119.281	0.052	0.064
-109.020	-74.208	0.252	0.091
-108.005	-200.000	0.029	0.170
-106.991	-76.317	-0.126	-0.044
-105.976	-22.452	-0.250	0.152
-104.962	-37.929	-0.099	-0.052
-103.947	-102.490	0.170	-0.041
-102.932	711.891	0.018	0.048
-101.918	-149.225	-0.361	-0.029
-100.903	-36.353	-0.343	0.185
-99.889	-138.093	0.038	0.004
-98.874	670.548	-0.096	-0.248
-97.859	-8.709	-0.110	-0.074
-96.845	800.000	0.023	0.083
-95.830	-200.000	0.050	0.301
-94.816	325.661	-0.162	0.310
-93.801	78.248	0.144	0.154
-92.786	-200.000	-0.035	-0.159
-91.772	-200.000	0.067	0.327
-90.757	-24.221	0.198	0.118
-89.743	-47.140	0.252	-0.123
-88.728	66.115	-0.144	-0.146
-87.713	-200.000	0.010	0.093
-86.699	-170.603	-0.121	-0.004
-85.684	-164.831	0.246	0.011
-84.670	-95.122	-0.236	0.064
-83.655	-56.748	0.270	-0.119
-82.640	800.000	-0.034	0.145
-81.626	541.254	-0.088	-0.209
-80.611	-58.236	0.293	0.128
-79.597	800.000	0.075	0.263
-78.582	220.652	-0.116	0.185
-77.567	-200.000	0.011	-0.093
-76.553	36.326	-0.053	0.047
-75.538	126.552	0.172	-0.217
-74.524	800.000	-0.061	0.251
-73.509	-53.012	-0.433	0.199
-72.494	-131.129	0.252	-0.034
-71.480	-123.984	-0.141	0.022
-70.465	-174.932	-0.295	0.008
-69.451	-200.000	-0.018	-0.223
-68.436	333.005	0.027	0.053
-67.422	-76.364	0.366	0.129
-66.407	204.285	0.152	-0.236
-65.392	-107.146	0.325	0.071
-64.378	-200.000	0.030	0.231
-63.363	252.588	0.163	-0.277
-62.349	70.500	-0.053	-0.054
-61.334	36.529	-0.922	-0.812
-60.319	30.770	0.512	0.438
-59.305	800.000	0.176	-0.691
-58.290	-3.635	0.696	0.482
-57.276	679.933	0.529	1.374
-56.261	-200.000	75.597	545.959
-55.246	579.193	1299.179	3172.175
-54.232	145.403	2532.668	3382.256
-53.217	114.571	2346.523	2851.621
-52.203	52.920	1961.088	1870.920
-51.188	46.523	1749.439	1618.878
-50.173	43.441	1702.114	1551.402
-49.159	57.658	1734.903	1691.407
-48.144	63.816	1753.076	1756.554
-47.130	46.235	1717.002	1586.388
-46.115	42.935	1703.709	1548.718
-45.100	42.768	1699.254	1543.323
-44.086	42.715	1696.485	1540.344
-43.071	42.785	1693.419	1538.031
-42.057	42.730	1690.873	1535.235
-41.042	42.748	1689.138	1533.738
-40.027	42.676	1687.599	1531.734
-39.013	42.797	1685.032	1530.259
-37.998	42.698	1683.368	1527.939
-36.984	42.804	1681.954	1527.402
-35.969	42.843	1680.842	1526.624
-34.954	42.976	1678.639	1525.572
-33.940	42.798	1677.025	1522.698
-32.925	42.884	1675.139	1521.573
-31.911	42.866	1673.929	1520.276
-30.896	42.929	1671.372	1518.370
-29.881	42.969	1669.575	1516.979
-28.867	42.817	1668.090	1514.424
-27.852	42.830	1667.050	1513.517
-26.838	42.808	1665.612	1511.991
-25.823	42.897	1664.285	1511.390
-24.809	42.945	1662.138	1509.741
-23.794	42.887	1661.241	1508.435
-22.779	42.872	1659.808	1506.962
-21.765	42.891	1657.794	1505.214
-20.750	42.857	1655.928	1503.203
-19.736	42.922	1654.628	1502.453
-18.721	42.909	1653.174	1500.970
-17.706	42.795	1651.849	1498.859
-16.692	42.905	1649.817	1497.779
-15.677	42.922	1648.631	1496.765
-14.663	42.922	1647.082	1495.300
-13.648	42.883	1645.737	1493.731
-12.633	42.907	1643.789	1492.079
-11.619	43.011	1641.876	1491.059
-10.604	42.824	1641.058	1488.874
-9.590	42.923	1639.753	1488.358
-8.575	43.023	1638.333	1487.748
-7.560	42.979	1637.585	1486.690
-6.546	42.899	1635.981	1484.584
-5.531	42.830	1635.239	1483.342
-4.517	42.859	1633.734	1482.128
-3.502	42.865	1632.811	1481.282
-2.487	43.016	1630.825	1480.525
-1.473	42.846	1619.447	1468.900
-0.458	40.279	1598.305	1431.137
0.556	35.432	1597.038	1395.265
1.571	32.951	1621.096	1397.824
2.586	32.190	1636.680	1405.446
3.600	28.544	1583.316	1333.060
4.615	15.729	1460.891	1143.335
5.629	3.494	1383.461	1003.437
6.644	1.195	1372.740	980.719
7.659	0.960	1370.943	977.832
8.673	0.849	1370.173	976.482
9.688	0.877	1368.138	975.128
10.702	0.639	1365.742	971.799
11.717	4.977	1375.309	1006.578
12.731	17.211	1398.123	1103.063
13.746	24.745	1410.748	1162.082
14.761	24.782	1409.147	1160.902
15.775	24.751	1408.323	1159.923
16.790	24.679	1407.940	1159.038
17.804	24.734	1407.455	1158.893
18.819	24.932	1407.165	1159.831
19.834	24.973	1406.445	1159.400
20.848	25.018	1405.314	1158.657
21.863	25.030	1404.801	1158.210
22.877	25.035	1403.915	1157.410
23.892	25.002	1402.561	1155.977
24.907	24.899	1402.173	1154.893
25.921	24.978	1401.148	1154.450
26.936	24.943	1400.151	1153.306
27.950	24.963	1398.827	1152.239
28.965	25.054	1397.720	1151.808
29.980	25.029	1396.250	1150.336
30.994	25.077	1394.681	1149.251
32.009	24.955	1394.191	1147.960
33.023	25.004	1392.648	1146.907
34.038	24.957	1391.840	1145.835
35.053	25.030	1390.697	1145.262
36.067	25.041	1389.712	1144.417
37.082	24.947	1388.776	1142.946
38.096	24.989	1387.923	1142.410
39.111	24.939	1387.381	1141.547
40.126	25.046	1386.197	1141.155
41.140	24.901	1385.898	1139.880
42.155	24.920	1385.609	1139.666
43.169	25.049	1385.476	1140.275
44.184	24.967	1385.319	1139.523
45.199	24.900	1384.688	1138.479
46.213	25.058	1383.659	1138.536
47.228	24.948	1383.118	1137.289
48.242	24.994	1382.099	1136.640
49.257	24.976	1380.316	1134.962
50.271	24.941	1378.904	1133.480
51.286	25.030	1377.444	1132.740
52.301	24.967	1376.503	1131.470
53.315	24.994	1375.538	1130.748
54.330	24.941	1374.894	1129.780
55.344	25.006	1373.502	1128.949
56.359	25.136	1372.313	1128.687
57.374	24.959	1372.101	1127.302
58.388	25.042	1371.058	1126.868
59.403	25.052	1370.703	1126.536
60.417	24.971	1369.923	1125.287
61.432	24.951	1369.116	1124.400
62.447	24.979	1368.464	1123.944
63.461	24.918	1367.690	1122.822
64.476	25.123	1365.835	1122.485
65.490	24.849	1365.549	1120.433
66.505	25.054	1363.859	1120.232
67.520	25.026	1362.030	1118.456
68.534	25.079	1361.193	1118.003
69.549	24.898	1360.748	1116.403
70.563	24.942	1359.844	1115.841
71.578	25.031	1358.457	1115.158
72.593	25.057	1357.705	1114.601
73.607	24.937	1357.085	1113.247
74.622	25.066	1356.207	1113.230
75.636	25.083	1355.223	1112.430
76.651	25.037	1354.701	1111.622
77.666	24.937	1354.225	1110.513
78.680	24.879	1354.298	1110.113
79.695	24.931	1353.174	1109.414
80.709	25.003	1352.595	1109.285
81.724	24.956	1351.504	1108.003
82.739	25.017	1350.275	1107.274
83.753	25.035	1349.347	1106.526
84.768	24.830	1348.465	1104.443
85.782	25.066	1347.084	1104.668
86.797	24.962	1345.872	1102.933
87.812	25.032	1344.844	1102.428
88.826	24.992	1343.967	1101.364
89.841	24.994	1342.859	1100.370
90.855	24.992	1341.825	1099.413
91.870	24.960	1341.172	1098.584
92.884	25.090	1339.900	1098.241
93.899	24.985	1339.790	1097.410
94.914	25.111	1338.112	1096.711
95.928	25.023	1338.067	1096.040
96.943	25.134	1336.956	1095.709
97.957	25.076	1336.256	1094.683
98.972	25.178	1335.000	1094.178
99.987	25.158	1334.620	1093.653
101.001	25.073	1333.398	1092.037
102.016	24.987	1332.622	1090.778
103.030	25.023	1332.230	1090.582
104.045	25.048	1330.993	1089.621
105.060	25.017	1330.315	1088.784
106.074	24.925	1329.216	1087.226
107.089	25.081	1328.073	1087.142
108.103	25.045	1326.908	1085.876
109.118	25.130	1325.564	1085.195
110.133	25.109	1324.645	1084.223
111.147	25.189	1323.190	1083.416
112.162	25.093	1322.663	1082.309
113.176	25.259	1321.106	1081.938
114.191	25.123	1320.607	1080.615
115.206	25.134	1319.658	1079.809
116.220	25.092	1318.499	1078.511
117.235	25.081	1317.340	1077.404
118.249	25.038	1316.764	1076.582
119.264	25.173	1315.399	1076.176
120.279	25.085	1315.025	1075.247
121.293	25.079	1313.938	1074.232
122.308	25.140	1313.205	1073.901
123.322	25.210	1312.323	1073.505
124.337	25.265	1310.770	1072.468
125.352	25.190	1310.503	1071.703
126.366	25.245	1309.331	1070.982
127.381	25.217	1308.357	1069.923
128.395	25.179	1307.846	1069.183
129.410	25.112	1306.898	1067.912
130.424	25.137	1306.449	1067.598
131.439	25.123	1305.393	1066.560
132.454	25.163	1304.626	1066.079
133.468	25.207	1304.046	1065.772
134.483	25.144	1303.607	1064.941
135.497	25.244	1302.551	1064.579
136.512	25.233	1301.585	1063.630
137.527	25.219	1300.175	1062.299
138.541	25.277	1298.764	1061.397
139.556	25.193	1297.844	1060.057
140.570	25.196	1297.217	1059.466
141.585	25.240	1295.616	1058.324
142.600	25.152	1294.840	1057.082
143.614	25.276	1293.699	1056.784
144.629	25.195	1292.647	1055.357
145.643	25.118	1292.041	1054.317
146.658	25.044	1290.899	1052.851
147.673	25.114	1289.727	1052.217
148.687	25.136	1289.062	1051.712
149.702	25.012	1288.225	1050.208
150.716	24.961	1286.629	1048.514
151.731	25.006	1285.762	1047.977
152.746	25.109	1284.664	1047.594
153.760	25.074	1283.152	1046.063
154.775	25.191	1282.426	1046.062
155.789	25.096	1281.387	1044.570
156.804	25.113	1280.677	1043.994
157.819	25.111	1279.787	1043.163
158.833	25.078	1279.484	1042.637
159.848	25.149	1277.949	1041.702
160.862	25.125	1277.800	1041.350
161.877	25.199	1276.554	1040.670
162.892	25.231	1275.687	1040.056
163.906	25.251	1275.203	1039.689
164.921	25.246	1274.139	1038.700
165.935	25.230	1273.619	1038.094
166.950	25.203	1273.052	1037.379
167.964	25.185	1272.456	1036.699
168.979	25.304	1271.049	1036.149
169.994	25.327	1270.871	1036.042
171.008	25.191	1270.861	1035.161
172.023	25.307	1269.638	1034.743
173.037	25.337	1269.037	1034.334
174.052	25.365	1268.252	1033.759
175.067	25.213	1267.936	1032.539
176.081	25.308	1266.542	1031.857
177.096	25.337	1265.727	1031.268
178.110	25.260	1265.122	1030.240
179.125	25.289	1264.247	1029.608
180.140	25.300	1263.102	1028.645
181.154	25.342	1261.941	1027.849
182.169	25.345	1260.820	1026.864
183.183	25.318	1259.683	1025.692
184.198	25.365	1258.441	1024.855
185.213	25.262	1258.065	1023.874
186.227	25.390	1256.327	1023.096
187.242	25.414	1255.984	1022.862
188.256	25.354	1255.303	1021.876
189.271	25.412	1254.235	1021.245
190.286	25.493	1253.443	1020.970
191.300	25.335	1253.042	1019.659
192.315	25.294	1252.529	1018.915
193.329	25.347	1251.954	1018.661
194.344	25.479	1251.848	1019.232
195.359	25.307	1251.455	1017.844
196.373	25.282	1250.805	1017.087
197.388	25.291	1250.000	1016.395
198.402	25.292	1250.196	1016.468
199.417	25.195	1250.210	1015.838
200.432	25.246	1249.207	1015.225
201.446	25.285	1248.652	1014.904
202.461	25.316	1247.610	1014.143
203.475	25.328	1246.320	1013.070
204.490	25.383	1245.578	1012.686
205.504	25.290	1244.623	1011.301
206.519	25.408	1243.923	1011.305
207.534	25.291	1243.131	1009.911
208.548	25.413	1241.668	1009.319
209.563	25.332	1241.419	1008.577
210.577	25.416	1240.266	1008.017
211.592	25.485	1239.177	1007.432
212.607	25.459	1238.820	1006.909
213.621	25.531	1237.593	1006.224
214.636	25.431	1237.343	1005.372
215.650	25.457	1236.119	1004.433
216.665	25.480	1234.957	1003.531
217.680	25.351	1234.801	1002.594
218.694	25.527	1233.567	1002.486
219.709	25.391	1233.028	1001.197
220.723	25.436	1232.345	1000.809
221.738	25.450	1231.182	999.849
222.753	25.456	1230.435	999.189
223.767	25.527	1230.040	999.174
224.782	25.518	1229.659	998.728
225.796	25.539	1229.151	998.345
226.811	25.554	1228.329	997.671
227.826	25.567	1227.954	997.351
228.840	25.492	1227.258	996.280
229.855	25.530	1226.483	995.772
230.869	25.586	1226.085	995.674
231.884	25.526	1225.351	994.654
232.899	25.559	1224.430	994.001
233.913	25.491	1224.113	993.280
234.928	25.534	1223.940	993.289
235.942	25.680	1222.780	993.067
236.957	25.716	1221.761	992.350
237.972	25.551	1221.567	991.196
238.986	25.671	1220.876	991.210
240.001	25.634	1220.013	990.214
241.015	25.778	1219.018	990.115
242.030	25.740	1218.365	989.286
243.045	25.631	1217.902	988.221
244.059	25.731	1217.065	988.005
245.074	25.811	1215.984	987.478
246.088	25.773	1215.382	986.697
247.103	25.687	1214.989	985.819
248.117	25.691	1213.941	984.902
249.132	25.711	1213.182	984.309
250.147	25.793	1212.574	984.176
251.161	25.824	1211.326	983.245
252.176	25.677	1211.212	982.265
253.190	25.793	1210.346	982.107
254.205	25.829	1209.506	981.534
255.220	25.837	1209.045	981.117
256.234	25.765	1208.572	980.256
257.249	25.786	1208.191	979.975
258.263	25.751	1207.378	979.034
259.278	25.859	1206.548	978.863
260.293	25.764	1206.587	978.293
261.307	25.765	1206.016	977.749
262.322	25.854	1205.020	977.338
263.336	25.828	1204.483	976.673
264.351	25.938	1203.892	976.703
265.366	25.970	1203.117	976.162
266.380	25.886	1202.404	975.045
267.395	25.887	1201.539	974.262
268.409	25.815	1201.332	973.616
269.424	25.904	1200.906	973.670
270.439	25.857	1200.836	973.272
271.453	25.882	1199.717	972.410
272.468	25.842	1198.537	971.155
273.482	25.812	1198.150	970.593
274.497	25.895	1197.530	970.450
275.512	26.009	1196.930	970.496
276.526	26.034	1196.021	969.802
277.541	26.037	1195.287	969.141
278.555	26.032	1194.741	968.586
279.570	26.013	1194.482	968.190
280.585	26.059	1193.678	967.696
281.599	26.120	1192.215	966.750
282.614	26.036	1191.499	965.635
283.628	26.014	1190.595	964.702
284.643	26.028	1189.999	964.207
285.657	25.981	1189.336	963.335
286.672	25.999	1188.501	962.668
287.687	26.135	1187.767	962.712
288.701	26.196	1186.634	962.034
289.716	26.038	1186.433	960.942
290.730	26.099	1185.489	960.421
291.745	26.146	1184.663	959.917
292.760	26.082	1184.092	959.028
293.774	26.062	1183.636	958.470
294.789	26.153	1183.131	958.456
295.803	26.154	1182.669	958.004
296.818	26.168	1181.951	957.409
297.833	26.196	1181.117	956.801
298.847	26.239	1180.625	956.542
299.862	26.250	1179.976	955.993
300.876	26.234	1179.132	955.136
301.891	26.167	1179.146	954.711
302.906	26.317	1178.038	954.524
303.920	26.364	1177.029	953.868
304.935	26.299	1176.503	953.013
305.949	26.187	1176.119	952.031
306.964	26.219	1175.677	951.756
307.979	26.289	1174.776	951.309
308.993	26.413	1173.756	951.050
310.008	26.331	1172.911	949.852
311.022	26.390	1172.482	949.729
312.037	26.299	1172.191	948.934
313.052	26.354	1171.031	948.198
314.066	26.259	1170.207	946.949
315.081	26.461	1169.015	946.961
316.095	26.282	1168.681	945.669
317.110	26.418	1168.322	946.007
318.125	26.372	1167.765	945.228
319.139	26.369	1166.686	944.256
320.154	26.339	1166.267	943.678
321.168	26.361	1165.729	943.273
322.183	26.345	1165.619	943.015
323.197	26.302	1164.847	942.087
324.212	26.453	1163.661	941.831
325.227	26.507	1163.530	941.923
326.241	26.499	1162.948	941.322
327.256	26.466	1162.187	940.452
328.270	26.484	1161.411	939.839
329.285	26.367	1160.612	938.501
330.300	26.491	1159.727	938.345
331.314	26.436	1159.003	937.389
332.329	26.546	1158.043	937.100
333.343	26.574	1157.332	936.589
334.358	26.448	1156.792	935.414
335.373	26.535	1156.035	935.169
336.387	26.513	1155.184	934.286
337.402	26.594	1154.564	934.117
338.416	26.658	1153.781	933.733
339.431	26.566	1153.617	933.041
340.446	26.594	1153.187	932.756
341.460	26.564	1152.254	931.763
342.475	26.722	1150.989	931.473
343.489	26.534	1150.443	929.982
344.504	26.683	1149.516	929.917
345.519	26.573	1148.708	928.615
346.533	26.750	1147.777	928.687
347.548	26.721	1147.142	927.945
348.562	26.625	1146.603	926.935
349.577	26.609	1146.022	926.300
350.592	26.549	1145.219	925.263
351.606	26.645	1144.546	925.127
352.621	26.601	1143.830	924.241
353.635	26.739	1143.282	924.420
354.650	26.842	1142.191	923.980
355.665	26.681	1141.989	922.916
356.679	26.746	1141.422	922.706
357.694	26.806	1140.560	922.233
358.708	26.871	1140.069	922.085
359.723	26.820	1139.350	921.165
360.738	26.835	1138.800	920.716
361.752	26.815	1137.940	919.834
362.767	26.823	1137.890	919.753
363.781	26.863	1136.860	919.043
364.796	26.941	1136.427	919.009
365.810	26.902	1135.625	918.081
366.825	26.928	1135.148	917.744
367.840	26.965	1134.700	917.486
368.854	27.050	1133.829	917.132
369.869	26.911	1133.519	916.100
370.883	27.035	1132.578	915.879
371.898	26.946	1132.091	914.957
372.913	26.938	1131.338	914.231
373.927	26.947	1131.122	914.016
374.942	27.054	1130.717	914.146
375.956	27.014	1130.241	913.480
376.971	26.999	1129.307	912.572
377.986	26.967	1128.955	912.044
379.000	27.090	1128.525	912.232
380.015	26.988	1128.015	911.231
381.029	27.090	1127.286	911.073
382.044	27.033	1126.741	910.266
383.059	27.098	1125.970	909.889
384.073	27.102	1124.887	908.951
385.088	26.979	1124.506	907.946
386.102	27.218	1123.467	908.223
387.117	27.183	1122.279	907.007
388.132	27.058	1121.776	905.898
389.146	27.131	1121.119	905.652
390.161	27.097	1120.647	905.017
391.175	27.099	1119.760	904.232
392.190	27.055	1119.283	903.549
393.205	27.160	1118.267	903.172
394.219	27.165	1117.671	902.634
395.234	27.305	1116.607	902.389
396.248	27.303	1115.569	901.461
397.263	27.235	1115.165	900.718
398.278	27.286	1114.315	900.203
399.292	27.270	1113.973	899.770
400.307	27.229	1113.717	899.278
401.321	27.331	1112.509	898.727
402.336	27.307	1112.144	898.234
403.350	27.313	1111.476	897.646
404.365	27.308	1110.945	897.115
405.380	27.304	1110.123	896.352
406.394	27.364	1109.129	895.765
407.409	27.341	1108.541	895.097
408.423	27.448	1107.554	894.745
409.438	27.479	1107.414	894.705
410.453	27.425	1106.601	893.707
411.467	27.533	1105.775	893.490
412.482	27.536	1105.133	892.907
413.496	27.407	1104.496	891.682
414.511	27.433	1104.221	891.505
415.526	27.456	1103.235	890.746
416.540	27.585	1102.980	891.090
417.555	27.508	1102.711	890.419
418.569	27.652	1101.749	890.263
419.584	27.569	1101.836	889.849
420.599	27.552	1101.205	889.182
421.613	81.051	1287.936	1334.209
422.628	75.877	1315.177	1334.309
