DTS Sentinel unit serial number:	SN413079Multiplexer serial number:	ORYXHardware model number:	OX4-SRSoftware version number:	ORYX F/W v4.00 Oryx Data Collector v3.7.2.0data status	okinstallation	princeton_trtdifferential loss correction	single-endedforward channel	channel 2reverse channel	N/Adate	2019/09/12time	18:50:49forward acquisition time	15.00reverse acquisition time	0.00gamma	496.2192k internal	0.2325k external	0.2325temperature offset calibration	1.0124default loss term (dB/km)	0.3790temperature slope calibration	1.0000multiplexer offset coefficient	1.0000multiplexer slope coefficient	1.0000fibre end	0.00T internal ref (°C)	32.94T ext. ref 1 (°C)	2.97T ext. ref 2 (°C)	27.43length (m)	temperature (°C)	Stokes	anti-Stokes-747.200	-102.760	-1.082	-0.260
-746.185	-200.000	-0.033	-0.768
-745.171	136.341	-0.449	-0.591
-744.156	162.427	-0.167	0.236
-743.142	-200.000	-0.002	0.234
-742.127	62.608	-0.358	0.361
-741.112	-200.000	0.060	-0.316
-740.098	-200.000	0.056	-0.371
-739.083	-56.940	0.824	-0.367
-738.069	-34.975	0.977	0.538
-737.054	71.856	-0.454	-0.476
-736.039	303.744	-0.445	0.833
-735.025	800.000	-0.190	0.839
-734.010	-134.559	0.142	0.017
-732.996	-12.068	0.518	0.342
-731.981	481.820	-0.031	0.072
-730.966	-200.000	0.060	-0.263
-729.952	556.856	-0.142	-0.344
-728.937	190.055	-0.167	0.253
-727.923	-200.000	-0.085	-0.930
-726.908	-200.000	-0.025	-0.276
-725.894	-136.286	-0.441	0.052
-724.879	-121.882	-0.204	0.034
-723.864	-6.199	-0.249	-0.171
-722.850	124.560	-0.162	0.206
-721.835	289.647	-0.217	-0.397
-720.821	800.000	0.167	-0.490
-719.806	-200.000	-0.005	-0.377
-718.791	-34.169	0.167	-0.092
-717.777	181.533	-0.476	0.705
-716.762	-200.000	-0.041	-0.392
-715.748	800.000	0.198	0.660
-714.733	57.625	0.147	0.144
-713.718	-138.451	0.176	-0.020
-712.704	756.481	0.113	-0.309
-711.689	-200.000	0.216	-1.078
-710.675	119.120	-0.639	-0.796
-709.660	800.000	-0.205	0.679
-708.645	176.149	-0.525	0.769
-707.631	-116.293	0.243	0.045
-706.616	800.000	-0.035	-0.146
-705.602	207.741	-0.203	-0.319
-704.587	-200.000	-0.036	-0.740
-703.572	17.524	0.318	0.255
-702.558	-58.820	-0.707	-0.308
-701.543	800.000	-0.187	-0.579
-700.529	69.685	0.359	0.373
-699.514	-16.398	0.213	0.136
-698.499	152.859	0.179	-0.247
-697.485	800.000	0.184	0.690
-696.470	368.630	0.110	-0.225
-695.456	-118.737	-0.579	0.103
-694.441	10.468	-0.602	0.462
-693.426	-5.887	-0.366	0.253
-692.412	125.491	0.106	-0.135
-691.397	-90.755	-0.118	-0.034
-690.383	-81.972	-0.547	-0.180
-689.368	84.983	0.471	-0.519
-688.354	-126.327	1.167	-0.175
-687.339	-112.398	-0.286	0.058
-686.324	242.722	0.316	-0.532
-685.310	300.023	0.127	-0.236
-684.295	262.469	0.138	0.241
-683.281	-30.150	-0.769	-0.440
-682.266	-29.120	0.475	0.274
-681.251	430.206	-0.233	-0.507
-680.237	-52.146	0.407	0.190
-679.222	-8.449	-0.680	-0.460
-678.208	-2.353	-0.942	-0.665
-677.193	-200.000	-0.011	-0.438
-676.178	45.487	-0.502	-0.467
-675.164	660.823	0.304	0.787
-674.149	-84.876	-0.872	0.276
-673.135	-88.763	0.640	-0.191
-672.120	-117.763	-0.884	-0.160
-671.105	-25.436	0.615	0.366
-670.091	800.000	-0.129	-0.358
-669.076	-200.000	0.046	-0.328
-668.062	-140.488	1.059	-0.111
-667.047	-200.000	0.046	0.317
-666.032	-89.928	-0.525	-0.154
-665.018	25.354	0.425	0.355
-664.003	800.000	0.028	-0.080
-662.989	-77.985	-0.596	0.207
-661.974	104.869	0.110	0.130
-660.959	612.454	-0.220	-0.553
-659.945	693.592	-0.215	0.568
-658.930	9.474	-0.281	0.214
-657.916	800.000	-0.048	-0.145
-656.901	-97.243	0.869	0.228
-655.886	679.758	-0.095	-0.249
-654.872	-5.610	0.676	-0.466
-653.857	55.116	0.229	0.223
-652.843	139.257	0.133	-0.175
-651.828	-155.142	-0.433	0.028
-650.814	-154.792	0.052	-0.003
-649.799	-28.255	0.605	0.352
-648.784	-133.731	-0.495	-0.062
-647.770	174.262	0.411	-0.598
-646.755	-132.246	-0.271	0.035
-645.741	-200.000	0.069	-0.309
-644.726	-200.000	-0.013	-0.068
-643.711	-11.819	0.515	0.340
-642.697	-200.000	0.069	0.564
-641.682	800.000	-0.082	-0.361
-640.668	8.703	-0.706	0.535
-639.653	-200.000	-0.119	0.759
-638.638	282.409	0.527	0.949
-637.624	-200.000	0.606	-0.002
-636.609	-125.918	0.394	0.060
-635.595	14.751	0.549	0.432
-634.580	-41.624	-0.182	0.094
-633.565	-120.760	-0.528	-0.090
-632.551	289.726	-0.275	-0.502
-631.536	82.174	0.441	-0.481
-630.522	26.203	-0.178	0.150
-629.507	800.000	0.255	0.790
-628.492	302.932	0.080	0.148
-627.478	92.489	0.402	-0.455
-626.463	604.080	0.182	0.455
-625.449	-200.000	0.192	-0.930
-624.434	-100.262	0.723	0.180
-623.419	-59.493	-0.543	-0.234
-622.405	-92.475	-0.668	0.189
-621.390	-35.846	-0.245	-0.133
-620.376	800.000	0.164	0.657
-619.361	-84.694	1.028	-0.325
-618.346	0.953	0.307	-0.221
-617.332	-44.273	0.518	0.261
-616.317	-19.167	0.564	0.352
-615.303	487.853	0.293	-0.671
-614.288	-200.000	-0.023	-0.532
-613.273	7.847	0.146	0.110
-612.259	327.315	-0.302	-0.581
-611.244	-38.143	-0.611	0.326
-610.230	-183.631	0.401	-0.007
-609.215	-77.565	-0.711	0.247
-608.201	-38.151	0.308	0.164
-607.186	570.675	-0.254	-0.620
-606.171	-200.000	-0.025	-0.388
-605.157	-200.000	-0.033	-0.408
-604.142	-200.000	-0.483	0.001
-603.128	-200.000	0.069	0.416
-602.113	27.536	0.273	-0.231
-601.098	-200.000	-0.054	0.248
-600.084	142.638	-0.353	0.470
-599.069	-154.170	-0.774	-0.053
-598.055	673.723	0.422	1.097
-597.040	-134.785	0.459	-0.056
-596.025	-200.000	-0.028	-0.263
-595.011	-200.000	-0.047	-0.283
-593.996	615.101	-0.448	-1.127
-592.982	-43.068	0.342	-0.174
-591.967	-200.000	-0.012	-0.291
-590.952	2.711	0.313	-0.227
-589.938	-60.857	0.588	0.250
-588.923	800.000	-0.129	-0.382
-587.909	-152.573	-0.265	0.019
-586.894	708.353	0.160	0.424
-585.879	180.948	-0.504	-0.743
-584.865	-53.568	0.458	0.210
-583.850	169.175	-0.423	0.605
-582.836	-200.000	0.031	0.163
-581.821	-65.073	-0.269	-0.109
-580.806	65.812	-0.077	-0.078
-579.792	-200.000	-0.014	0.717
-578.777	-55.249	-0.583	0.263
-577.763	-28.477	0.086	-0.050
-576.748	30.923	-0.360	-0.309
-575.733	-200.000	-0.085	0.856
-574.719	800.000	0.152	0.426
-573.704	-7.774	0.452	-0.306
-572.690	800.000	0.241	0.899
-571.675	106.263	0.541	-0.642
-570.661	-125.227	0.946	0.145
-569.646	-200.000	-0.008	-0.067
-568.631	656.431	0.347	0.893
-567.617	800.000	-0.218	0.638
-566.602	-200.000	0.054	0.479
-565.588	-110.895	0.106	0.022
-564.573	-98.392	-0.677	0.174
-563.558	-45.780	0.542	0.268
-562.544	-17.325	0.361	-0.228
-561.529	-109.006	-0.173	0.037
-560.515	518.199	-0.224	-0.526
-559.500	100.394	0.247	0.287
-558.485	-200.000	-0.004	-0.407
-557.471	-125.109	0.270	0.042
-556.456	-4.047	0.778	-0.540
-555.442	-102.069	0.493	0.119
-554.427	13.331	0.797	0.619
-553.412	-200.000	-0.027	-0.179
-552.398	2.645	-0.808	0.586
-551.383	-24.028	-0.270	-0.161
-550.369	102.581	0.143	0.168
-549.354	458.472	-0.233	0.518
-548.339	-0.428	0.298	0.212
-547.325	-107.143	0.289	0.064
-546.310	-138.721	0.588	-0.064
-545.296	615.916	-0.151	-0.379
-544.281	370.247	-0.441	0.894
-543.266	135.653	0.339	-0.442
-542.252	691.862	-0.051	0.133
-541.237	-127.987	0.329	-0.047
-540.223	800.000	-0.272	0.844
-539.208	-59.593	-0.401	0.172
-538.193	-23.987	0.274	-0.164
-537.179	800.000	-0.260	-0.967
-536.164	78.210	0.285	0.304
-535.150	436.619	-0.311	-0.677
-534.135	180.679	-0.326	-0.479
-533.121	648.662	-0.265	-0.678
-532.106	-200.000	-0.011	0.267
-531.091	-112.963	0.520	-0.103
-530.077	-55.362	-0.425	0.191
-529.062	-3.469	-0.347	-0.241
-528.048	800.000	-0.319	-1.060
-527.033	-84.931	-0.282	0.089
-526.018	-69.125	0.302	-0.116
-525.004	180.615	-0.365	-0.536
-523.989	-200.000	-0.036	-0.758
-522.975	-199.321	-0.457	0.002
-521.960	116.944	0.589	-0.723
-520.945	-200.000	-0.054	-0.829
-519.931	-93.502	0.482	0.134
-518.916	-117.133	0.486	-0.089
-517.902	-200.000	0.086	-0.620
-516.887	-84.258	-0.324	0.103
-515.872	-55.607	-0.615	-0.276
-514.858	-200.000	-0.138	-0.702
-513.843	-75.870	-0.607	-0.215
-512.829	290.297	-0.467	0.848
-511.814	-138.618	-0.631	0.069
-510.799	-65.715	-0.248	0.100
-509.785	517.733	0.132	0.309
-508.770	-164.299	-0.468	0.021
-507.756	204.422	-0.250	0.388
-506.741	800.000	0.294	0.868
-505.726	-195.158	0.305	0.002
-504.712	38.603	-0.533	0.475
-503.697	-19.246	0.478	0.297
-502.683	-101.558	-0.273	-0.066
-501.668	202.251	0.261	0.402
-500.653	100.817	0.428	-0.498
-499.639	710.256	-0.123	0.326
-498.624	-200.000	0.031	-0.978
-497.610	-131.564	0.954	0.126
-496.595	-200.000	-0.096	0.955
-495.581	-162.076	-0.658	-0.033
-494.566	743.424	0.148	-0.397
-493.551	-200.000	-0.024	-0.193
-492.537	800.000	-0.242	-0.915
-491.522	-113.241	-1.306	-0.257
-490.508	-88.866	0.621	0.184
-489.493	199.952	0.631	-0.968
-488.478	-200.000	-0.059	-0.323
-487.464	-200.000	-0.026	0.125
-486.449	-12.928	0.741	-0.482
-485.435	-200.000	-0.053	-0.252
-484.420	-200.000	-0.127	-0.690
-483.405	-11.776	-1.102	0.722
-482.391	81.990	0.506	0.548
-481.376	-11.603	0.613	0.402
-480.362	681.995	-0.146	0.380
-479.347	-21.517	0.121	-0.074
-478.332	109.747	-0.287	0.343
-477.318	-109.546	-0.820	0.173
-476.303	79.481	0.202	0.216
-475.289	34.631	-0.473	-0.413
-474.274	-200.000	0.106	-0.858
-473.259	10.764	0.227	-0.173
-472.245	28.752	-0.189	-0.160
-471.230	-142.980	0.768	-0.074
-470.216	-200.000	-0.029	-0.165
-469.201	328.495	0.150	0.287
-468.186	-106.237	-0.392	0.088
-467.172	-85.436	-1.449	0.451
-466.157	-200.000	0.000	0.126
-465.143	-200.000	0.005	-0.342
-464.128	54.721	-0.802	-0.772
-463.113	30.206	0.084	-0.071
-462.099	-200.000	-0.085	0.662
-461.084	85.289	-0.533	0.584
-460.070	-161.525	-1.391	0.071
-459.055	800.000	0.333	-0.929
-458.040	-200.000	0.005	0.328
-457.026	-200.000	-0.045	0.323
-456.011	40.445	0.316	-0.284
-454.997	800.000	-0.147	0.553
-453.982	800.000	-0.219	0.649
-452.968	-200.000	0.188	1.038
-451.953	-200.000	-0.072	0.343
-450.938	157.317	0.224	0.309
-449.924	-17.341	0.665	-0.418
-448.909	800.000	0.093	-0.329
-447.895	321.107	0.130	-0.247
-446.880	-2.520	-0.383	0.268
-445.865	390.002	0.081	-0.169
-444.851	13.588	-0.452	0.350
-443.836	-200.000	0.010	0.237
-442.822	77.583	-0.377	-0.400
-441.807	-107.487	0.575	-0.126
-440.792	-80.260	0.074	-0.025
-439.778	800.000	0.092	0.302
-438.763	445.922	-0.146	-0.319
-437.749	-200.000	-0.101	0.854
-436.734	-163.315	-0.600	-0.029
-435.719	-74.296	0.989	-0.356
-434.705	195.057	0.265	0.402
-433.690	66.288	-0.087	0.088
-432.676	-200.000	0.004	0.240
-431.661	-148.206	-0.414	0.034
-430.646	94.764	-0.319	0.362
-429.632	-166.844	-0.660	-0.027
-428.617	646.063	0.115	-0.293
-427.603	-107.633	-0.663	0.145
-426.588	622.034	0.287	0.720
-425.573	-28.370	0.250	0.144
-424.559	-17.359	-0.615	0.386
-423.544	-98.843	0.277	0.070
-422.530	251.976	-0.381	0.647
-421.515	10.687	-0.908	-0.690
-420.500	212.366	-0.259	0.407
-419.486	-200.000	-0.067	0.707
-418.471	114.094	-0.465	0.564
-417.457	800.000	-0.469	-1.532
-416.442	25.073	-0.318	-0.263
-415.428	214.905	-0.337	-0.532
-414.413	-173.338	0.818	-0.025
-413.398	373.862	-0.248	0.502
-412.384	-200.000	-0.059	1.130
-411.369	419.947	0.454	0.969
-410.355	-62.372	-0.084	0.035
-409.340	-97.490	-0.047	-0.012
-408.325	-59.065	0.760	0.327
-407.311	86.002	-0.249	-0.273
-406.296	105.134	-0.159	-0.187
-405.282	266.973	0.439	-0.765
-404.267	-200.000	-0.097	0.585
-403.252	-41.282	0.106	0.054
-402.238	-36.472	-0.691	-0.371
-401.223	-200.000	-0.115	0.580
-400.209	-200.000	0.042	-0.722
-399.194	-200.000	0.037	-0.182
-398.179	-200.000	-0.019	0.241
-397.165	78.375	0.484	0.515
-396.150	-200.000	-0.142	-0.702
-395.136	-200.000	0.121	-0.574
-394.121	40.735	-0.376	0.337
-393.106	800.000	0.130	0.414
-392.092	-68.519	-0.818	-0.316
-391.077	-100.552	0.301	0.074
-390.063	137.491	-0.257	-0.334
-389.048	-53.319	0.820	-0.374
-388.033	-100.372	-0.222	-0.055
-387.019	-137.793	-0.782	-0.087
-386.004	70.537	0.306	0.315
-384.990	-80.676	0.235	0.078
-383.975	-64.149	0.347	0.141
-382.960	800.000	0.145	-0.604
-381.946	-200.000	0.016	-0.084
-380.931	-45.824	0.410	-0.202
-379.917	-26.683	-1.442	-0.840
-378.902	51.463	0.376	-0.355
-377.888	-38.980	0.433	0.227
-376.873	-35.073	0.293	-0.159
-375.858	-63.401	0.586	0.240
-374.844	-200.000	-0.062	0.581
-373.829	-70.061	-0.389	-0.147
-372.815	21.814	-0.302	0.244
-371.800	509.520	0.086	-0.199
-370.785	-158.107	-0.775	0.045
-369.771	-200.000	0.051	0.246
-368.756	67.872	0.725	0.737
-367.742	345.929	0.336	-0.657
-366.727	138.454	0.101	0.131
-365.712	-102.101	-1.022	-0.245
-364.698	-200.000	-0.179	-0.924
-363.683	-95.231	-0.382	0.102
-362.669	-167.672	0.876	0.035
-361.654	-52.145	-0.395	-0.182
-360.639	584.898	0.187	-0.457
-359.625	-94.191	0.792	0.216
-358.610	111.480	0.337	-0.404
-357.596	-130.044	0.725	-0.098
-356.581	-200.000	-0.077	-0.579
-355.566	-200.000	0.241	-1.395
-354.552	-45.590	-0.176	-0.087
-353.537	-200.000	-0.012	-0.531
-352.523	68.269	0.294	0.299
-351.508	-200.000	-0.109	1.077
-350.493	690.388	0.412	-1.072
-349.479	800.000	0.089	0.298
-348.464	-194.717	-0.581	0.005
-347.450	800.000	-0.253	-0.705
-346.435	-51.400	-0.796	-0.370
-345.420	12.334	-0.272	0.208
-344.406	83.866	-0.645	0.699
-343.391	75.343	-0.216	0.227
-342.377	-200.000	-0.020	0.557
-341.362	-200.000	0.063	-0.615
-340.348	-193.762	0.116	0.001
-339.333	-200.000	-0.101	0.465
-338.318	71.705	-0.228	-0.235
-337.304	-200.000	-0.018	0.151
-336.289	-200.000	0.035	0.240
-335.275	-32.253	-0.295	0.164
-334.260	167.014	-0.274	-0.387
-333.245	-200.000	0.155	-0.836
-332.231	-156.171	-0.580	-0.036
-331.216	341.077	-0.193	0.374
-330.202	-87.301	0.509	-0.153
-329.187	732.780	0.310	-0.822
-328.172	-57.265	-0.579	0.253
-327.158	800.000	-0.110	0.419
-326.143	240.296	0.229	-0.380
-325.129	106.962	0.268	0.316
-324.114	208.289	-0.245	-0.379
-323.099	213.512	-0.503	-0.790
-322.085	0.028	-0.101	-0.071
-321.070	-9.524	0.482	0.319
-320.056	-121.116	-0.445	-0.074
-319.041	-200.000	0.026	0.343
-318.026	243.953	-0.217	0.361
-317.012	79.772	-0.280	-0.298
-315.997	-76.704	-0.283	-0.098
-314.983	-200.000	0.162	0.824
-313.968	-50.609	0.227	0.106
-312.953	0.192	-0.108	0.077
-311.939	21.426	0.969	-0.781
-310.924	-172.096	0.803	-0.026
-309.910	6.481	-0.284	0.209
-308.895	10.779	0.727	-0.550
-307.880	-86.444	-0.135	0.041
-306.866	-79.084	0.270	0.091
-305.851	-37.717	0.117	0.062
-304.837	-159.367	-0.246	-0.014
-303.822	46.807	-0.479	0.441
-302.807	-36.972	0.862	0.458
-301.793	-41.241	0.388	-0.198
-300.778	5.261	0.920	0.673
-299.764	-200.000	-0.003	0.096
-298.749	800.000	-0.050	-0.214
-297.735	520.655	0.177	-0.412
-296.720	-58.974	0.650	0.279
-295.705	-47.760	0.348	0.167
-294.691	-57.658	0.509	0.221
-293.676	14.418	-0.321	-0.248
-292.662	-94.568	0.440	-0.119
-291.647	-142.241	-0.457	0.045
-290.632	285.839	0.108	-0.193
-289.618	18.664	0.330	-0.262
-288.603	-103.995	-1.035	-0.239
-287.589	196.685	0.588	-0.888
-286.574	-91.361	0.588	-0.167
-285.559	229.482	0.512	0.829
-284.545	541.436	0.280	-0.661
-283.530	800.000	-0.113	0.440
-282.516	232.803	-0.222	-0.362
-281.501	-173.061	0.253	0.008
-280.486	-57.402	-0.538	-0.234
-279.472	800.000	-0.126	-0.470
-278.457	-89.549	0.314	-0.091
-277.443	25.142	0.838	0.690
-276.428	50.233	0.163	0.153
-275.413	-153.203	0.566	0.039
-274.399	-135.198	0.699	0.083
-273.384	286.145	0.593	1.060
-272.370	76.383	0.273	-0.286
-271.355	-200.000	-0.025	0.432
-270.340	245.524	-0.222	0.371
-269.326	559.212	0.265	-0.633
-268.311	-142.415	-0.099	0.010
-267.297	-146.813	0.180	0.015
-266.282	-17.738	-0.923	0.574
-265.267	-115.825	0.269	0.050
-264.253	253.449	0.192	-0.325
-263.238	-107.897	-0.389	0.084
-262.224	341.283	-0.170	0.330
-261.209	800.000	0.176	0.750
-260.195	-109.664	-0.387	-0.081
-259.180	-125.157	0.612	0.093
-258.165	800.000	0.160	-0.453
-257.151	-89.778	0.559	0.162
-256.136	-200.000	0.044	0.563
-255.122	129.962	0.742	0.939
-254.107	800.000	0.111	-0.362
-253.092	-83.524	-0.613	-0.194
-252.078	-200.000	-0.068	-0.349
-251.063	-123.444	-1.006	-0.159
-250.049	-31.688	0.491	-0.273
-249.034	100.929	-0.868	-0.999
-248.019	-74.516	0.571	-0.204
-247.005	-200.000	-0.066	0.621
-245.990	-49.666	0.791	0.372
-244.976	-137.271	0.276	0.031
-243.961	177.738	0.384	-0.555
-242.946	-93.303	-0.122	-0.034
-241.932	-200.000	-0.007	-0.393
-240.917	248.147	0.111	0.186
-239.903	497.611	-0.157	0.358
-238.888	-37.903	-0.633	-0.333
-237.873	-59.452	-0.543	-0.231
-236.859	-100.031	-0.342	0.084
-235.844	123.121	-0.426	0.528
-234.830	-169.298	-0.213	-0.008
-233.815	-83.252	-1.037	-0.329
-232.800	9.232	-0.256	-0.191
-231.786	379.341	-0.163	0.330
-230.771	800.000	0.294	0.803
-229.757	1.089	0.587	0.417
-228.742	163.042	0.293	0.407
-227.727	800.000	0.154	-0.505
-226.713	407.238	-0.112	-0.233
-225.698	800.000	-0.138	0.541
-224.684	-200.000	0.022	-0.159
-223.669	800.000	-0.036	0.122
-222.655	-62.133	-0.510	0.211
-221.640	200.281	0.337	-0.512
-220.625	800.000	-0.097	0.345
-219.611	-163.059	-1.059	-0.051
-218.596	10.378	-0.534	-0.402
-217.582	-26.547	-0.566	0.328
-216.567	800.000	-0.130	-0.564
-215.552	-83.988	0.755	0.237
-214.538	-26.806	-0.510	-0.294
-213.523	-123.939	-0.443	0.069
-212.509	288.577	-0.174	-0.312
-211.494	-102.260	-0.409	-0.097
-210.479	331.396	0.566	-1.078
-209.465	-200.000	-0.064	-0.473
-208.450	725.848	-0.341	0.899
-207.436	-200.000	0.032	0.390
-206.421	-96.330	-0.143	-0.037
-205.406	606.955	-0.195	-0.481
-204.392	593.275	-0.154	0.377
-203.377	99.961	-0.205	0.234
-202.363	764.969	0.073	0.196
-201.348	800.000	-0.314	-0.934
-200.333	233.532	0.238	0.387
-199.319	-200.000	0.024	0.317
-198.304	-145.494	-0.277	0.025
-197.290	6.714	0.450	-0.330
-196.275	-200.000	-0.040	0.199
-195.260	312.496	-0.224	0.416
-194.246	116.628	0.283	0.342
-193.231	19.187	-0.747	-0.592
-192.217	-162.625	-0.864	0.042
-191.202	63.315	0.304	-0.301
-190.187	-90.703	0.639	0.182
-189.173	269.110	-0.011	0.019
-188.158	214.557	0.237	-0.370
-187.144	800.000	-0.207	0.564
-186.129	-92.663	0.220	-0.061
-185.114	-98.574	0.206	0.052
-184.100	173.776	-0.037	0.053
-183.085	90.460	0.376	0.416
-182.071	-46.745	0.337	-0.163
-181.056	-126.213	0.772	0.114
-180.042	44.204	0.903	-0.818
-179.027	349.083	-0.432	-0.842
-178.012	195.172	0.162	0.243
-176.998	-164.600	0.627	-0.028
-175.983	44.790	-0.243	-0.221
-174.969	125.803	-0.195	0.242
-173.954	-200.000	-0.009	0.610
-172.939	800.000	0.083	-0.276
-171.925	-142.027	0.459	0.045
-170.910	272.323	0.257	0.447
-169.896	3.355	0.378	0.272
-168.881	31.842	-0.390	-0.332
-167.866	-22.378	-0.507	-0.303
-166.852	-73.307	0.634	-0.229
-165.837	-200.000	0.093	0.432
-164.823	-159.658	0.386	0.021
-163.808	-200.000	-0.014	0.277
-162.793	-68.625	0.248	0.095
-161.779	-200.000	-0.085	0.515
-160.764	461.180	-0.430	-0.945
-159.750	-77.822	0.407	0.139
-158.735	379.677	-0.064	0.129
-157.720	71.657	0.179	-0.184
-156.706	-29.794	-0.341	0.192
-155.691	122.602	-0.137	0.169
-154.677	-83.426	-0.337	-0.107
-153.662	-112.565	-0.157	0.031
-152.647	15.665	-0.521	-0.404
-151.633	-23.006	0.442	0.263
-150.618	-109.079	-0.935	-0.196
-149.604	181.180	0.360	0.521
-148.589	111.439	0.769	0.914
-147.574	800.000	-0.219	0.773
-146.560	19.114	0.388	-0.307
-145.545	-124.769	0.482	-0.074
-144.531	800.000	-0.052	-0.161
-143.516	800.000	0.098	-0.362
-142.502	-86.220	0.300	0.091
-141.487	800.000	0.232	-0.691
-140.472	651.699	-0.155	0.392
-139.458	307.215	-0.795	-1.461
-138.443	-118.971	-0.454	0.078
-137.429	36.327	0.269	0.234
-136.414	-119.751	0.075	0.013
-135.399	-200.000	-0.084	0.877
-134.385	-200.000	0.007	0.449
-133.370	198.867	-0.414	-0.625
-132.356	-96.342	0.394	-0.103
-131.341	-158.430	-0.605	0.035
-130.326	546.559	0.254	-0.599
-129.312	160.684	-0.565	-0.777
-128.297	47.917	0.641	-0.590
-127.283	34.502	-0.665	-0.572
-126.268	403.421	0.185	-0.384
-125.253	-46.463	0.386	-0.186
-124.239	207.219	0.375	-0.576
-123.224	32.772	-0.937	-0.798
-122.210	-200.000	-0.063	-0.460
-121.195	-57.592	-0.507	-0.219
-120.180	-200.000	-0.041	0.321
-119.166	458.200	-0.207	0.454
-118.151	-84.208	0.520	0.162
-117.137	83.651	0.519	0.557
-116.122	-65.741	0.391	0.154
-115.107	197.067	0.164	0.246
-114.093	-127.862	-0.035	-0.005
-113.078	129.725	0.564	0.710
-112.064	121.225	-0.290	-0.356
-111.049	464.810	0.164	0.361
-110.034	800.000	0.229	-0.704
-109.020	289.210	-0.183	0.327
-108.005	-200.000	0.114	0.543
-106.991	-101.143	-0.418	0.101
-105.976	294.477	-0.151	-0.271
-104.962	-14.641	-0.257	-0.163
-103.947	-145.502	0.343	0.030
-102.932	-183.321	-0.366	0.006
-101.918	87.626	-0.286	0.312
-100.903	41.775	0.340	0.303
-99.889	-200.000	0.063	-0.410
-98.874	-200.000	-0.052	-0.708
-97.859	44.641	-0.295	-0.267
-96.845	-53.460	-0.858	0.387
-95.830	131.286	0.532	0.673
-94.816	40.319	-0.385	-0.341
-93.801	-0.698	0.407	0.284
-92.786	-17.961	0.542	0.334
-91.772	-41.364	-0.095	-0.048
-90.757	-94.771	0.546	0.146
-89.743	-57.077	-0.933	-0.405
-88.728	-38.844	0.461	-0.239
-87.713	242.524	0.409	-0.674
-86.699	79.939	0.229	0.242
-85.684	-126.303	-1.026	0.151
-84.670	89.970	0.159	0.175
-83.655	-37.406	-0.189	-0.099
-82.640	66.637	1.151	-1.152
-81.626	-143.054	-0.477	0.045
-80.611	-11.099	-0.768	-0.498
-79.597	800.000	-0.222	0.831
-78.582	-200.000	0.106	0.512
-77.567	800.000	-0.316	-0.895
-76.553	-29.102	0.358	0.202
-75.538	-200.000	-0.086	0.590
-74.524	-12.393	-0.753	0.484
-73.509	285.553	0.391	-0.693
-72.494	-200.000	-0.132	-0.599
-71.480	-152.370	-0.716	-0.051
-70.465	-98.881	-0.216	0.054
-69.451	82.545	0.223	-0.238
-68.436	800.000	0.164	0.682
-67.422	-25.037	0.135	0.079
-66.407	278.149	-0.205	-0.359
-65.392	88.509	-0.237	-0.259
-64.378	-200.000	0.039	-0.866
-63.363	-116.807	0.566	-0.102
-62.349	337.270	-0.243	-0.464
-61.334	-38.489	-0.682	0.354
-60.319	-107.381	0.956	-0.206
-59.305	159.547	-0.709	-0.969
-58.290	49.034	1.470	1.357
-57.276	800.000	0.520	1.613
-56.261	-200.000	95.527	580.097
-55.246	667.494	1360.515	3455.429
-54.232	202.450	2532.765	3840.230
-53.217	112.782	2251.572	2678.875
-52.203	42.391	1882.124	1680.847
-51.188	36.160	1674.663	1448.878
-50.173	33.439	1630.546	1390.714
-49.159	51.978	1679.095	1570.519
-48.144	52.491	1695.410	1589.528
-47.130	35.747	1655.217	1428.756
-46.115	32.777	1642.651	1395.915
-45.100	32.983	1636.714	1392.337
-44.086	32.847	1633.017	1388.136
-43.071	32.669	1630.895	1384.970
-42.057	33.105	1626.596	1384.456
-41.042	32.974	1624.853	1381.958
-40.027	32.972	1625.020	1382.031
-39.013	32.934	1622.337	1379.418
-37.998	32.839	1621.221	1377.720
-36.984	32.706	1620.015	1375.673
-35.969	32.870	1618.332	1375.377
-34.954	32.970	1616.588	1374.574
-33.940	32.881	1615.696	1373.114
-32.925	32.905	1613.400	1371.280
-31.911	32.839	1611.302	1368.961
-30.896	32.874	1610.150	1368.185
-29.881	33.175	1607.854	1368.354
-28.867	33.080	1606.377	1366.356
-27.852	32.935	1605.052	1364.131
-26.838	33.038	1602.256	1362.442
-25.823	32.889	1602.135	1361.208
-24.809	32.905	1600.585	1359.958
-23.794	32.929	1599.229	1358.925
-22.779	32.927	1597.561	1357.439
-21.765	32.807	1596.469	1355.590
-20.750	32.855	1594.577	1354.275
-19.736	32.928	1593.880	1354.157
-18.721	33.025	1592.093	1353.274
-17.706	32.845	1591.437	1351.381
-16.692	32.942	1589.077	1350.013
-15.677	32.866	1588.218	1348.688
-14.663	33.104	1585.749	1348.237
-13.648	33.004	1584.386	1346.313
-12.633	32.979	1583.114	1344.995
-11.619	33.174	1581.158	1344.673
-10.604	32.806	1580.766	1341.667
-9.590	32.946	1579.094	1341.190
-8.575	32.964	1578.075	1340.397
-7.560	33.120	1575.996	1339.682
-6.546	33.061	1575.009	1338.377
-5.531	32.993	1574.639	1337.526
-4.517	32.832	1573.206	1335.115
-3.502	32.965	1571.548	1334.592
-2.487	33.047	1569.611	1333.479
-1.473	32.578	1559.241	1321.326
-0.458	29.808	1538.529	1284.520
0.556	27.160	1539.199	1253.069
1.571	24.682	1561.899	1254.076
2.586	24.145	1574.984	1260.674
3.600	21.215	1521.436	1197.639
4.615	12.304	1413.288	1055.383
5.629	4.359	1347.277	957.157
6.644	2.688	1340.070	941.699
7.659	3.005	1337.981	942.090
8.673	3.160	1336.299	941.773
9.688	3.028	1335.254	940.147
10.702	2.690	1332.496	936.057
11.717	6.377	1338.649	962.876
12.731	15.826	1356.152	1033.671
13.746	23.163	1368.485	1088.279
14.761	24.790	1370.078	1099.459
15.775	24.783	1369.983	1099.242
16.790	24.737	1369.459	1098.442
17.804	24.912	1368.274	1098.469
18.819	25.122	1367.362	1098.930
19.834	24.925	1366.732	1097.120
20.848	25.052	1365.852	1097.092
21.863	25.103	1366.259	1097.636
22.877	25.275	1365.141	1097.691
23.892	24.959	1364.220	1094.923
24.907	24.905	1364.198	1094.480
25.921	25.164	1362.651	1094.718
26.936	25.153	1362.012	1094.043
27.950	24.844	1360.740	1091.038
28.965	25.063	1361.149	1092.604
29.980	25.349	1358.203	1091.886
30.994	25.285	1357.858	1091.123
32.009	25.390	1356.729	1090.757
33.023	25.532	1354.252	1089.529
34.038	25.378	1353.606	1087.977
35.053	25.337	1353.625	1087.647
36.067	25.302	1352.129	1086.138
37.082	25.036	1352.268	1084.548
38.096	25.171	1351.380	1084.553
39.111	25.252	1350.601	1084.325
40.126	24.922	1349.107	1081.038
41.140	25.151	1349.028	1082.257
42.155	24.888	1348.608	1080.241
43.169	25.068	1348.693	1081.299
44.184	25.134	1348.665	1081.577
45.199	25.271	1347.075	1081.031
46.213	25.106	1347.000	1079.879
47.228	25.301	1346.001	1080.160
48.242	25.162	1344.994	1078.421
49.257	25.356	1343.710	1078.460
50.271	25.279	1341.867	1076.426
51.286	25.186	1341.074	1075.133
52.301	25.283	1339.889	1074.672
53.315	25.379	1338.636	1074.144
54.330	25.412	1338.139	1073.851
55.344	25.356	1336.523	1072.120
56.359	25.425	1336.702	1072.585
57.374	25.108	1335.819	1069.889
58.388	25.219	1335.989	1070.590
59.403	25.170	1334.950	1069.374
60.417	25.307	1334.365	1069.626
61.432	25.240	1333.588	1068.507
62.447	25.440	1332.703	1068.893
63.461	25.550	1331.086	1068.156
64.476	25.435	1329.846	1066.386
65.490	25.495	1329.529	1066.391
66.505	25.280	1328.485	1064.184
67.520	25.250	1326.936	1062.675
68.534	25.341	1325.609	1062.058
69.549	25.391	1323.773	1060.782
70.563	25.375	1323.859	1060.665
71.578	25.386	1323.947	1060.706
72.593	25.442	1321.923	1059.321
73.607	25.268	1321.332	1057.727
74.622	25.402	1320.682	1057.907
75.636	25.228	1321.069	1057.098
76.651	25.355	1319.381	1056.397
77.666	25.268	1319.507	1055.895
78.680	25.352	1319.163	1056.017
79.695	25.267	1317.759	1054.306
80.709	25.252	1318.016	1054.326
81.724	25.587	1316.716	1055.160
82.739	25.121	1316.628	1052.260
83.753	25.018	1315.735	1050.849
84.768	25.516	1312.957	1051.451
85.782	25.639	1312.788	1051.942
86.797	25.531	1310.455	1049.349
87.812	25.328	1310.431	1048.053
88.826	25.690	1308.428	1048.468
89.841	25.367	1308.710	1046.718
90.855	25.378	1307.330	1045.589
91.870	25.466	1306.362	1045.232
92.884	25.278	1306.022	1043.776
93.899	25.229	1305.599	1043.060
94.914	25.395	1304.543	1043.086
95.928	25.288	1303.173	1041.279
96.943	25.484	1303.629	1042.686
97.957	25.471	1302.104	1041.299
98.972	25.374	1301.994	1040.557
99.987	25.274	1300.693	1038.845
101.001	25.325	1299.100	1037.781
102.016	25.276	1298.815	1037.178
103.030	25.508	1298.100	1037.851
104.045	25.615	1296.905	1037.420
105.060	25.540	1295.467	1035.749
106.074	25.479	1294.588	1034.603
107.089	25.252	1293.770	1032.555
108.103	25.135	1293.429	1031.518
109.118	25.355	1290.536	1030.379
110.133	25.565	1289.735	1030.852
111.147	25.503	1288.553	1029.459
112.162	25.382	1287.927	1028.177
113.176	25.269	1288.841	1028.167
114.191	25.415	1286.533	1027.069
115.206	25.266	1285.783	1025.533
116.220	25.465	1284.120	1025.248
117.235	25.393	1283.026	1023.878
118.249	25.220	1282.949	1022.738
119.264	25.232	1281.203	1021.321
120.279	25.069	1282.190	1021.089
121.293	25.458	1279.365	1020.962
122.308	25.349	1279.496	1020.357
123.322	25.481	1278.807	1020.465
124.337	25.473	1277.442	1019.240
125.352	25.319	1277.279	1018.146
126.366	25.417	1276.296	1017.832
127.381	25.194	1275.223	1015.621
128.395	25.169	1274.034	1014.445
129.410	25.509	1272.661	1015.180
130.424	25.359	1272.235	1013.901
131.439	24.882	1272.186	1011.082
132.454	25.288	1272.196	1013.293
133.468	25.463	1270.688	1012.989
134.483	25.304	1270.622	1011.949
135.497	25.550	1269.266	1012.166
136.512	25.312	1268.536	1010.154
137.527	25.533	1266.410	1009.612
138.541	25.458	1265.934	1008.725
139.556	25.292	1264.415	1006.491
140.570	25.585	1263.559	1007.367
141.585	25.541	1262.309	1006.032
142.600	25.549	1261.846	1005.619
143.614	25.589	1260.588	1004.753
144.629	25.304	1261.127	1003.501
145.643	25.517	1258.286	1002.337
146.658	25.619	1257.497	1002.191
147.673	25.151	1257.566	999.549
148.687	25.371	1256.890	1000.149
149.702	25.270	1253.867	997.090
150.716	25.123	1253.748	996.093
151.731	25.202	1251.726	994.833
152.746	25.022	1251.718	993.745
153.760	25.222	1250.706	993.960
154.775	25.511	1249.731	994.696
155.789	25.560	1247.814	993.353
156.804	25.780	1247.199	993.992
157.819	25.507	1245.920	991.377
158.833	25.317	1245.810	990.156
159.848	25.457	1245.829	990.851
160.862	25.251	1245.433	989.313
161.877	25.416	1243.378	988.506
162.892	25.590	1242.939	989.025
163.906	25.388	1243.551	988.312
164.921	25.243	1242.936	986.938
165.935	25.438	1240.539	986.019
166.950	25.420	1241.264	986.406
167.964	25.444	1240.218	985.622
168.979	25.528	1239.900	985.743
169.994	25.258	1238.183	982.814
171.008	25.512	1238.119	984.063
172.023	25.574	1237.465	983.796
173.037	25.244	1237.110	981.625
174.052	25.369	1235.945	981.296
175.067	25.552	1234.271	980.879
176.081	25.190	1234.535	979.027
177.096	25.448	1233.575	979.582
178.110	25.427	1232.802	978.771
179.125	25.525	1230.736	977.574
180.140	25.457	1228.783	975.565
181.154	25.495	1229.506	976.264
182.169	25.307	1227.074	973.225
183.183	25.195	1227.254	972.677
184.198	25.343	1225.044	971.639
185.213	25.653	1224.102	972.479
186.227	25.283	1223.378	969.821
187.242	25.523	1223.928	971.468
188.256	25.862	1221.379	971.186
189.271	25.685	1220.580	969.511
190.286	25.374	1220.389	967.599
191.300	25.318	1219.331	966.370
192.315	25.175	1220.416	966.377
193.329	25.579	1220.292	968.369
194.344	25.692	1218.814	967.716
195.359	25.349	1218.278	965.361
196.373	25.034	1218.463	963.728
197.388	25.011	1217.284	962.591
198.402	25.092	1216.483	962.308
199.417	25.743	1215.959	965.296
200.432	25.521	1215.527	963.679
201.446	25.681	1215.129	964.133
202.461	25.646	1214.163	963.094
203.475	25.639	1213.110	962.139
204.490	25.194	1212.545	959.227
205.504	25.271	1209.731	957.329
206.519	25.252	1209.123	956.658
207.534	25.284	1207.969	955.829
208.548	25.075	1208.305	954.901
209.563	25.041	1207.545	954.033
210.577	25.234	1205.983	953.741
211.592	25.214	1205.409	953.094
212.607	25.560	1205.515	954.935
213.621	25.263	1205.297	953.098
214.636	25.448	1202.654	951.907
215.650	25.484	1201.827	951.359
216.665	25.360	1201.729	950.537
217.680	25.631	1200.704	951.079
218.694	25.463	1200.312	949.796
219.709	25.420	1199.514	948.853
220.723	25.764	1197.364	948.880
221.738	25.298	1198.054	946.886
222.753	25.443	1197.004	946.735
223.767	25.414	1196.064	945.757
224.782	25.586	1195.933	946.473
225.796	25.610	1195.317	946.026
226.811	25.534	1194.461	944.871
227.826	25.677	1193.218	944.551
228.840	25.447	1193.918	943.817
229.855	25.251	1192.703	941.741
230.869	25.305	1191.845	941.263
231.884	25.589	1190.161	941.341
232.899	25.293	1190.173	939.716
233.913	25.204	1189.704	938.798
234.928	25.452	1188.798	939.293
235.942	25.560	1188.660	939.669
236.957	25.035	1188.236	936.503
237.972	25.059	1187.563	936.018
238.986	24.981	1186.871	934.983
240.001	25.470	1185.471	936.347
241.015	25.483	1184.519	935.576
242.030	25.292	1184.804	934.726
243.045	25.478	1182.806	934.034
244.059	25.508	1182.891	934.173
245.074	25.356	1183.484	933.767
246.088	25.708	1180.936	933.503
247.103	25.861	1180.225	933.649
248.117	25.689	1180.621	932.990
249.132	25.724	1178.823	931.667
250.147	25.904	1178.409	932.191
251.161	26.194	1178.345	933.553
252.176	26.214	1177.001	932.510
253.190	25.820	1176.700	930.153
254.205	26.057	1177.369	931.826
255.220	26.109	1176.314	931.178
256.234	25.931	1175.646	929.648
257.249	26.082	1174.191	929.191
258.263	25.660	1174.174	926.924
259.278	25.802	1173.497	927.036
260.293	26.006	1172.563	927.268
261.307	26.000	1172.102	926.788
262.322	26.112	1171.598	926.887
263.336	25.892	1170.637	924.915
264.351	26.014	1170.236	925.141
265.366	25.968	1169.695	924.397
266.380	26.007	1169.279	924.185
267.395	25.823	1168.764	922.753
268.409	26.028	1167.087	922.394
269.424	25.929	1167.320	921.994
270.439	25.857	1166.818	921.147
271.453	25.952	1165.064	920.166
272.468	25.848	1164.753	919.308
273.482	25.476	1164.882	917.427
274.497	25.964	1163.271	918.566
275.512	25.661	1163.475	917.103
276.526	26.042	1161.347	917.283
277.541	25.633	1161.595	915.313
278.555	25.715	1161.466	915.550
279.570	25.795	1159.591	914.396
280.585	26.191	1160.120	916.745
281.599	26.109	1159.153	915.485
282.614	25.788	1158.455	913.224
283.628	25.753	1156.412	911.352
284.643	25.752	1156.301	911.181
285.657	26.066	1154.651	911.388
286.672	26.081	1153.535	910.501
287.687	25.916	1154.145	910.070
288.701	25.904	1152.687	908.779
289.716	25.958	1151.458	908.003
290.730	25.846	1151.401	907.312
291.745	25.750	1151.242	906.623
292.760	25.836	1150.722	906.567
293.774	25.785	1150.381	905.961
294.789	26.119	1149.610	906.950
295.803	25.897	1148.882	905.182
296.818	25.671	1148.199	903.431
297.833	25.745	1147.857	903.452
298.847	26.054	1146.814	904.101
299.862	25.951	1145.689	902.617
300.876	25.853	1145.187	901.653
301.891	25.995	1145.572	902.584
302.906	26.103	1143.608	901.499
303.920	26.284	1143.039	901.872
304.935	26.017	1143.067	900.481
305.949	25.977	1141.601	899.050
306.964	25.970	1142.029	899.269
307.979	26.286	1140.606	899.643
308.993	25.889	1140.085	897.175
310.008	26.252	1138.425	897.597
311.022	26.245	1138.357	897.429
312.037	26.407	1136.659	896.816
313.052	26.294	1135.989	895.648
314.066	25.644	1136.219	892.524
315.081	25.629	1135.622	891.903
316.095	25.934	1133.796	891.901
317.110	26.082	1132.983	891.911
318.125	25.768	1133.200	890.449
319.139	25.396	1133.402	888.690
320.154	25.882	1131.488	889.509
321.168	25.833	1131.110	888.892
322.183	25.955	1130.495	888.933
323.197	25.839	1130.134	887.999
324.212	25.962	1128.370	887.139
325.227	25.890	1129.488	887.587
326.241	26.083	1128.751	887.878
327.256	25.802	1128.155	885.950
328.270	25.626	1127.703	884.647
329.285	25.604	1127.120	884.005
330.300	25.925	1125.286	884.062
331.314	26.072	1124.161	883.821
332.329	25.704	1124.021	881.831
333.343	26.067	1122.244	882.136
334.358	26.018	1122.692	882.168
335.373	26.100	1121.683	881.696
336.387	26.320	1121.192	882.310
337.402	26.175	1120.257	880.785
338.416	26.219	1119.368	880.224
339.431	26.189	1118.733	879.503
340.446	26.618	1116.939	880.096
341.460	26.622	1117.630	880.583
342.475	26.793	1116.440	880.399
343.489	26.267	1115.671	877.164
344.504	26.624	1114.531	877.917
345.519	26.367	1115.051	877.006
346.533	26.512	1113.865	876.698
347.548	26.619	1113.194	876.611
348.562	26.390	1112.186	874.629
349.577	26.373	1111.446	873.888
350.592	26.329	1109.749	872.263
351.606	26.294	1109.429	871.766
352.621	25.959	1109.098	869.814
353.635	26.014	1107.647	868.865
354.650	25.918	1107.741	868.399
355.665	26.285	1106.384	869.024
356.679	26.295	1105.807	868.542
357.694	26.214	1105.968	868.199
358.708	26.123	1105.694	867.472
359.723	26.089	1105.248	866.881
360.738	26.191	1103.303	865.770
361.752	25.861	1103.854	864.541
362.767	26.257	1102.793	865.530
363.781	26.156	1102.725	864.920
364.796	26.284	1102.689	865.425
365.810	26.535	1102.124	866.105
366.825	26.401	1102.315	865.541
367.840	26.530	1101.153	865.166
368.854	26.658	1099.475	864.381
369.869	26.772	1098.340	863.957
370.883	26.515	1098.290	862.618
371.898	26.140	1098.404	860.845
372.913	26.349	1096.773	860.481
373.927	26.317	1097.380	860.730
374.942	26.665	1096.032	861.250
375.956	26.366	1095.253	859.141
376.971	26.507	1095.116	859.630
377.986	26.450	1095.031	859.215
379.000	26.551	1094.741	859.391
380.015	26.614	1093.456	858.604
381.029	26.645	1093.022	858.337
382.044	26.548	1091.887	856.910
383.059	26.729	1090.688	856.747
384.073	26.355	1090.163	854.494
385.088	26.266	1090.314	854.114
386.102	26.522	1088.735	854.012
387.117	26.405	1087.751	852.612
388.132	26.131	1087.873	851.338
389.146	26.482	1085.629	851.159
390.161	25.976	1085.943	848.950
391.175	26.086	1085.566	849.099
392.190	26.539	1084.467	850.289
393.205	26.487	1083.548	849.253
394.219	26.484	1083.952	849.480
395.234	26.301	1082.609	847.491
396.248	26.148	1082.119	846.316
397.263	25.948	1080.340	843.916
398.278	26.332	1079.504	844.981
399.292	26.426	1079.154	845.072
400.307	26.534	1079.320	845.632
401.321	26.432	1078.051	844.087
402.336	26.267	1077.161	842.547
403.350	25.816	1076.653	839.970
404.365	26.287	1076.386	841.883
405.380	26.297	1075.840	841.431
406.394	26.304	1074.575	840.400
407.409	26.280	1074.624	840.251
408.423	26.496	1073.475	840.283
409.438	26.589	1071.616	839.182
410.453	26.695	1071.573	839.566
411.467	26.706	1070.834	838.963
412.482	26.619	1071.231	838.799
413.496	26.828	1069.332	838.204
414.511	27.091	1068.413	838.624
415.526	26.699	1068.269	836.625
416.540	26.351	1069.078	835.578
417.555	26.558	1068.039	835.645
418.569	26.216	1067.896	833.881
419.584	26.370	1067.358	834.099
420.599	26.808	1066.159	835.104
421.613	152.555	1404.952	1793.751
422.628	140.340	1454.371	1793.836
