DTS Sentinel unit serial number:	SN413079Multiplexer serial number:	ORYXHardware model number:	OX4-SRSoftware version number:	ORYX F/W v4.00 Oryx Data Collector v3.7.2.0data status	okinstallation	princeton_trtdifferential loss correction	single-endedforward channel	channel 2reverse channel	N/Adate	2019/09/13time	09:31:35forward acquisition time	60.00reverse acquisition time	0.00gamma	496.2192k internal	0.2327k external	0.2327temperature offset calibration	1.0198default loss term (dB/km)	0.3790temperature slope calibration	1.0000multiplexer offset coefficient	1.0000multiplexer slope coefficient	1.0000fibre end	0.00T internal ref (°C)	29.50T ext. ref 1 (°C)	4.42T ext. ref 2 (°C)	25.92length (m)	temperature (°C)	Stokes	anti-Stokes-747.200	800.000	0.090	0.369
-746.185	378.051	-0.104	0.214
-745.171	-200.000	-0.024	0.327
-744.156	163.068	0.165	0.233
-743.142	255.218	0.091	-0.157
-742.127	-88.730	-0.274	0.082
-741.112	-99.569	-0.242	0.061
-740.098	-126.493	-0.533	0.080
-739.083	239.833	0.075	0.126
-738.069	51.865	-0.133	0.128
-737.054	-109.431	-0.599	-0.128
-736.039	-107.963	-0.132	0.029
-735.025	-200.000	0.011	0.192
-734.010	338.042	-0.162	0.317
-732.996	800.000	-0.061	-0.176
-731.981	34.070	-0.083	0.073
-730.966	253.319	-0.106	-0.183
-729.952	4.736	-0.290	-0.215
-728.937	251.070	-0.061	-0.105
-727.923	12.118	-0.221	0.171
-726.908	-126.715	0.322	-0.048
-725.894	-129.803	-0.031	0.004
-724.879	200.765	-0.038	0.058
-723.864	57.836	-0.118	-0.116
-722.850	21.560	0.318	0.261
-721.835	-60.698	0.144	-0.062
-720.821	800.000	0.038	0.160
-719.806	-72.723	0.226	0.084
-718.791	33.857	-0.174	-0.153
-717.777	41.534	0.092	-0.084
-716.762	-24.768	0.351	0.210
-715.748	167.146	0.180	-0.258
-714.733	81.548	0.192	-0.209
-713.718	97.494	-0.073	-0.084
-712.704	171.823	-0.118	0.171
-711.689	112.217	0.145	-0.176
-710.675	132.747	-0.076	0.099
-709.660	800.000	0.014	-0.051
-708.645	-47.488	-0.307	-0.150
-707.631	16.671	0.072	0.057
-706.616	-200.000	0.036	-0.180
-705.602	-103.070	0.528	-0.126
-704.587	-200.000	0.101	0.475
-703.572	800.000	0.050	-0.193
-702.558	-200.000	0.021	-0.266
-701.543	16.811	0.117	-0.093
-700.529	183.927	-0.304	-0.453
-699.514	-200.000	0.033	0.153
-698.499	-78.440	-0.362	0.125
-697.485	1.832	-0.254	-0.184
-696.470	-200.000	-0.049	-0.281
-695.456	61.625	-0.162	0.162
-694.441	-200.000	-0.044	-0.208
-693.426	800.000	-0.080	-0.258
-692.412	-200.000	0.035	0.222
-691.397	-200.000	0.008	-0.076
-690.383	-102.245	-0.222	0.054
-689.368	51.475	0.029	-0.028
-688.354	190.052	-0.106	-0.160
-687.339	-200.000	-0.028	-0.149
-686.324	-64.798	0.405	0.165
-685.310	275.127	0.141	-0.251
-684.295	93.296	-0.082	0.093
-683.281	-200.000	0.000	-0.084
-682.266	-26.899	0.180	-0.106
-681.251	213.534	-0.047	0.075
-680.237	-99.314	0.120	-0.031
-679.222	-200.000	0.011	-0.064
-678.208	-34.963	-0.110	-0.060
-677.193	-105.031	-0.252	0.058
-676.178	458.006	0.039	0.087
-675.164	362.739	0.104	-0.211
-674.149	70.646	-0.199	-0.207
-673.135	-41.155	-0.293	-0.152
-672.120	-0.529	0.029	0.021
-671.105	556.060	0.024	0.059
-670.091	54.048	-0.110	0.106
-669.076	-141.873	0.058	0.006
-668.062	-58.084	-0.112	-0.049
-667.047	338.037	0.136	-0.266
-666.032	203.270	-0.238	-0.370
-665.018	-200.000	0.003	-0.040
-664.003	-142.468	0.354	-0.035
-662.989	-200.000	-0.068	0.305
-661.974	-200.000	-0.028	-0.170
-660.959	154.900	0.097	0.134
-659.945	123.901	0.062	0.078
-658.930	-155.871	0.246	0.016
-657.916	-27.915	-0.288	-0.168
-656.901	-63.731	0.313	-0.129
-655.886	-153.658	0.306	-0.021
-654.872	-200.000	-0.036	-0.227
-653.857	95.591	0.149	-0.170
-652.843	-96.289	-0.185	-0.049
-651.828	800.000	0.087	0.353
-650.814	-200.000	0.005	-0.096
-649.799	-200.000	-0.063	-0.528
-648.784	-111.208	0.061	-0.012
-647.770	53.007	-0.226	-0.217
-646.755	-105.570	0.169	0.038
-645.741	-50.459	-0.054	-0.026
-644.726	-81.480	-0.304	0.101
-643.711	-165.791	0.054	-0.002
-642.697	-93.500	-0.263	-0.073
-641.682	110.375	0.184	-0.222
-640.668	-140.519	-0.314	-0.033
-639.653	-11.271	-0.190	-0.126
-638.638	-200.000	-0.041	-0.213
-637.624	308.471	0.034	0.063
-636.609	70.588	-0.183	-0.190
-635.595	207.008	0.120	-0.188
-634.580	800.000	-0.028	-0.097
-633.565	-89.385	-0.201	0.059
-632.551	8.216	-0.074	0.056
-631.536	-76.098	-0.111	0.039
-630.522	728.585	0.072	0.193
-629.507	-200.000	0.003	0.178
-628.492	-132.048	0.110	-0.014
-627.478	252.801	0.239	0.410
-626.463	309.608	0.093	-0.175
-625.449	-200.000	-0.031	0.152
-624.434	-94.521	0.114	0.031
-623.419	800.000	-0.108	-0.434
-622.405	45.992	-0.080	0.074
-621.390	800.000	0.077	-0.246
-620.376	118.178	0.240	0.297
-619.361	0.394	-0.393	-0.282
-618.346	-200.000	0.005	-0.280
-617.332	800.000	0.024	0.082
-616.317	300.345	-0.029	-0.054
-615.303	800.000	-0.141	-0.391
-614.288	204.400	-0.053	-0.082
-613.273	55.060	-0.269	-0.261
-612.259	324.046	-0.090	0.172
-611.244	-2.142	0.102	0.072
-610.230	634.354	-0.157	-0.398
-609.215	569.477	0.095	0.232
-608.201	-22.165	0.137	0.084
-607.186	-51.325	0.074	-0.035
-606.171	-145.256	0.167	0.015
-605.157	570.508	0.018	-0.045
-604.142	-200.000	0.033	0.159
-603.128	800.000	-0.062	-0.192
-602.113	-200.000	-0.018	0.085
-601.098	-200.000	-0.011	-0.051
-600.084	-68.611	-0.100	0.039
-599.069	-59.309	0.092	0.040
-598.055	-200.000	0.013	-0.162
-597.040	800.000	-0.038	-0.141
-596.025	-200.000	-0.035	-0.544
-595.011	-200.000	-0.007	0.085
-593.996	-13.708	-0.103	-0.067
-592.982	800.000	0.039	0.112
-591.967	140.649	-0.037	-0.048
-590.952	800.000	0.057	-0.205
-589.938	-200.000	-0.011	0.075
-588.923	38.186	-0.166	-0.148
-587.909	9.776	0.288	-0.219
-586.894	-200.000	-0.041	0.000
-585.879	-200.000	0.028	0.259
-584.865	800.000	0.077	0.251
-583.850	800.000	-0.009	0.036
-582.836	-95.374	-0.226	0.061
-581.821	-111.966	-0.341	0.069
-580.806	-140.601	-0.123	-0.013
-579.792	-113.107	-0.407	-0.081
-578.777	-200.000	-0.038	-0.252
-577.763	800.000	0.075	-0.272
-576.748	51.500	0.164	0.156
-575.733	30.548	-0.062	0.053
-574.719	-1.330	0.168	-0.119
-573.704	128.876	0.022	-0.028
-572.690	-45.328	0.365	-0.181
-571.675	-14.758	0.159	0.102
-570.661	14.563	-0.148	0.116
-569.646	-164.515	0.267	0.012
-568.631	-38.546	0.296	0.157
-567.617	-200.000	0.096	-0.484
-566.602	800.000	0.098	-0.278
-565.588	-200.000	-0.055	0.303
-564.573	177.029	-0.130	-0.190
-563.558	532.736	-0.124	0.294
-562.544	198.746	-0.031	-0.047
-561.529	499.399	0.062	-0.144
-560.515	167.036	-0.160	0.228
-559.500	52.487	0.220	-0.210
-558.485	800.000	-0.027	-0.078
-557.471	-200.000	-0.011	-0.176
-556.456	800.000	0.089	0.355
-555.442	-113.489	0.132	0.026
-554.427	637.229	-0.072	0.184
-553.412	-200.000	0.005	0.064
-552.398	-15.975	-0.182	0.116
-551.383	-37.814	-0.125	-0.067
-550.369	291.470	-0.080	-0.145
-549.354	141.033	0.156	-0.207
-548.339	-114.079	0.225	0.044
-547.325	-142.193	-0.072	-0.007
-546.310	421.258	0.099	-0.213
-545.296	134.424	-0.145	-0.188
-544.281	78.081	-0.130	-0.139
-543.266	111.814	0.103	0.124
-542.252	241.935	-0.145	0.242
-541.237	-56.447	0.136	0.060
-540.223	800.000	-0.081	0.321
-539.208	-200.000	0.020	-0.138
-538.193	26.041	-0.023	0.019
-537.179	64.625	-0.116	0.117
-536.164	200.195	0.061	-0.094
-535.150	558.323	-0.063	-0.152
-534.135	32.139	0.381	0.329
-533.121	-94.560	0.144	-0.039
-532.106	-200.000	-0.018	0.236
-531.091	-200.000	-0.028	-0.230
-530.077	-48.468	-0.050	0.024
-529.062	477.325	-0.031	0.070
-528.048	800.000	0.091	0.275
-527.033	5.344	-0.200	-0.148
-526.018	172.362	-0.035	0.050
-525.004	-75.469	0.226	0.080
-523.989	-55.905	0.225	0.100
-522.975	417.470	-0.163	-0.348
-521.960	-164.990	0.179	-0.008
-520.945	-55.236	0.215	0.096
-519.931	100.997	0.138	0.161
-518.916	172.256	0.068	0.098
-517.902	-127.918	0.084	0.012
-516.887	-200.000	0.013	-0.098
-515.872	-105.712	-0.177	-0.040
-514.858	-200.000	0.039	0.325
-513.843	45.646	0.107	-0.099
-512.829	-121.993	0.175	0.029
-511.814	356.734	0.078	0.155
-510.799	-9.817	-0.144	-0.096
-509.785	-96.989	-0.166	-0.044
-508.770	60.917	-0.307	-0.304
-507.756	-200.000	0.056	0.259
-506.741	272.578	0.058	-0.102
-505.726	-124.407	-0.292	0.045
-504.712	-200.000	0.023	-0.127
-503.697	-63.981	-0.073	-0.030
-502.683	800.000	0.027	-0.083
-501.668	-200.000	0.009	-0.080
-500.653	-43.931	0.170	0.085
-499.639	330.797	-0.075	0.144
-498.624	77.309	0.220	0.234
-497.610	95.251	-0.135	0.154
-496.595	-100.830	-0.158	-0.039
-495.581	567.331	-0.029	-0.071
-494.566	-130.752	0.316	0.042
-493.551	8.585	0.227	-0.170
-492.537	-88.073	0.246	0.074
-491.522	94.074	-0.053	-0.060
-490.508	-92.984	-0.160	0.044
-489.493	341.793	-0.026	0.050
-488.478	-94.307	-0.134	0.037
-487.464	-108.832	-0.274	0.059
-486.449	-200.000	0.054	-0.244
-485.435	107.077	-0.230	-0.273
-484.420	634.900	0.014	-0.036
-483.405	-147.519	-0.042	-0.004
-482.391	800.000	-0.049	0.183
-481.376	-200.000	-0.023	0.148
-480.362	96.201	0.211	0.240
-479.347	-47.726	-0.145	0.070
-478.332	-30.556	-0.386	-0.218
-477.318	366.652	-0.064	0.129
-476.303	-16.038	-0.232	0.147
-475.289	-80.107	0.106	-0.035
-474.274	-86.314	-0.200	0.061
-473.259	129.932	-0.105	-0.134
-472.245	-54.145	-0.351	0.159
-471.230	-85.778	-0.382	-0.118
-470.216	-114.066	0.199	0.038
-469.201	800.000	0.068	0.211
-468.186	312.761	0.126	0.237
-467.172	1.092	-0.329	-0.235
-466.157	-56.500	0.176	-0.078
-465.143	-6.548	0.285	0.193
-464.128	444.191	0.081	0.177
-463.113	-177.026	0.272	-0.007
-462.099	-2.362	0.236	0.165
-461.084	71.070	0.135	-0.139
-460.070	8.061	0.160	0.119
-459.055	58.402	-0.099	0.097
-458.040	66.134	-0.181	0.183
-457.026	706.252	-0.067	0.175
-456.011	88.115	-0.142	0.157
-454.997	-103.964	0.364	0.085
-453.982	-118.688	0.195	-0.034
-452.968	-101.676	0.290	0.070
-451.953	280.238	-0.049	0.088
-450.938	-62.173	-0.095	0.039
-449.924	85.071	-0.124	0.135
-448.909	-200.000	0.008	-0.098
-447.895	-35.428	0.348	0.188
-446.880	590.686	0.075	-0.185
-445.865	50.249	0.080	0.076
-444.851	-9.576	-0.049	0.032
-443.836	48.080	0.280	-0.260
-442.822	-62.952	0.203	-0.083
-441.807	-130.437	-0.211	-0.028
-440.792	35.291	-0.016	0.014
-439.778	800.000	-0.020	0.078
-438.763	-43.794	0.151	-0.076
-437.749	-92.966	-0.365	-0.102
-436.734	-55.156	-0.386	-0.173
-435.719	-27.429	0.154	-0.089
-434.705	-200.000	0.006	0.072
-433.690	133.148	0.105	0.135
-432.676	-135.974	0.075	0.009
-431.661	124.789	0.220	-0.276
-430.646	200.242	0.052	-0.079
-429.632	138.422	0.088	0.116
-428.617	-200.000	0.023	0.166
-427.603	-149.923	-0.128	-0.010
-426.588	-200.000	-0.026	-0.137
-425.573	-200.000	-0.019	0.121
-424.559	21.513	0.353	0.286
-423.544	192.377	-0.171	0.257
-422.530	-91.368	0.414	-0.118
-421.515	26.553	0.193	-0.161
-420.500	-85.924	0.338	-0.104
-419.486	-200.000	0.016	0.124
-418.471	0.864	-0.342	0.244
-417.457	800.000	0.059	-0.234
-416.442	41.911	0.057	0.051
-415.428	-200.000	0.005	0.135
-414.413	-200.000	-0.014	0.180
-413.398	800.000	-0.053	-0.176
-412.384	-23.675	-0.133	-0.079
-411.369	-115.953	0.047	0.009
-410.355	800.000	-0.021	0.086
-409.340	725.068	-0.052	-0.139
-408.325	-116.443	-0.224	0.041
-407.311	522.628	-0.090	0.211
-406.296	-200.000	0.008	0.099
-405.282	68.826	-0.169	0.173
-404.267	102.224	0.119	0.139
-403.252	-200.000	0.037	-0.167
-402.238	-200.000	0.003	-0.251
-401.223	800.000	-0.051	-0.162
-400.209	-151.052	-0.220	0.016
-399.194	45.855	-0.065	0.060
-398.179	157.873	0.116	0.160
-397.165	-200.000	-0.040	-0.343
-396.150	402.976	-0.018	-0.039
-395.136	35.334	0.066	-0.058
-394.121	525.341	-0.156	0.366
-393.106	-171.881	0.292	0.009
-392.092	800.000	0.012	-0.051
-391.077	-110.505	-0.277	0.057
-390.063	530.043	-0.092	0.215
-389.048	-147.523	0.154	0.013
-388.033	130.835	-0.159	-0.203
-387.019	800.000	0.067	-0.237
-386.004	800.000	-0.021	0.075
-384.990	800.000	0.089	0.308
-383.975	-200.000	-0.046	-0.400
-382.960	-24.960	0.340	0.200
-381.946	-200.000	-0.020	-0.183
-380.931	-200.000	0.016	-0.233
-379.917	-180.406	-0.166	0.003
-378.902	344.647	0.044	-0.085
-377.888	-22.137	-0.114	-0.068
-376.873	-48.304	-0.165	0.079
-375.858	200.145	-0.093	0.142
-374.844	-115.178	0.265	-0.050
-373.829	-200.000	0.001	-0.185
-372.815	-78.489	-0.403	0.137
-371.800	330.446	-0.052	-0.100
-370.785	800.000	-0.073	-0.296
-369.771	173.647	0.347	-0.498
-368.756	-200.000	-0.016	0.089
-367.742	157.580	0.074	-0.102
-366.727	-105.738	-0.319	-0.072
-365.712	800.000	0.049	-0.210
-364.698	-200.000	0.008	-0.186
-363.683	-200.000	0.004	0.065
-362.669	391.205	0.151	-0.311
-361.654	163.686	0.255	-0.356
-360.639	-200.000	-0.022	-0.262
-359.625	-11.968	0.151	-0.099
-358.610	611.312	0.142	-0.352
-357.596	800.000	-0.113	-0.340
-356.581	-200.000	-0.012	0.187
-355.566	800.000	0.055	0.222
-354.552	-148.791	-0.088	0.007
-353.537	-200.000	0.019	-0.260
-352.523	-200.000	0.041	0.310
-351.508	-138.134	-0.112	0.012
-350.493	387.094	-0.116	0.237
-349.479	673.270	-0.044	0.113
-348.464	46.587	-0.110	-0.101
-347.450	-107.959	0.128	-0.028
-346.435	57.781	0.122	-0.118
-345.420	800.000	0.028	-0.087
-344.406	27.860	-0.013	0.011
-343.391	-97.281	-0.355	-0.092
-342.377	409.960	-0.138	0.291
-341.362	-4.283	0.464	0.319
-340.348	416.293	0.137	0.290
-339.333	38.836	-0.135	0.120
-338.318	-82.230	0.206	0.066
-337.304	-104.280	0.221	-0.051
-336.289	-200.000	0.016	-0.226
-335.275	-180.810	0.111	0.002
-334.260	800.000	-0.024	-0.082
-333.245	-113.667	0.130	0.025
-332.231	-42.128	0.023	-0.011
-331.216	-200.000	-0.031	0.229
-330.202	58.056	0.251	0.244
-329.187	-112.118	-0.129	-0.026
-328.172	54.668	-0.278	-0.266
-327.158	300.930	0.111	-0.204
-326.143	757.910	-0.081	0.218
-325.129	-55.050	-0.248	0.111
-324.114	74.040	-0.162	-0.169
-323.099	57.719	0.045	0.044
-322.085	800.000	-0.086	0.237
-321.070	-188.914	-0.184	-0.002
-320.056	136.736	0.119	0.154
-319.041	-108.358	-0.140	0.030
-318.026	-6.903	-0.318	0.214
-317.012	506.150	0.082	-0.188
-315.997	-41.421	0.334	0.170
-314.983	-121.827	-0.170	0.028
-313.968	70.233	-0.060	0.061
-312.953	223.377	0.140	0.224
-311.939	-65.054	-0.467	0.187
-310.924	-68.565	-0.178	0.068
-309.910	213.947	0.127	0.199
-308.895	-200.000	-0.040	-0.250
-307.880	-60.442	0.236	-0.100
-306.866	-200.000	0.022	-0.271
-305.851	800.000	0.013	0.036
-304.837	-200.000	0.039	-0.227
-303.822	800.000	0.040	-0.124
-302.807	382.822	0.212	0.433
-301.793	789.837	-0.069	0.187
-300.778	317.216	-0.111	-0.208
-299.764	-105.633	0.414	0.093
-298.749	121.706	0.155	0.192
-297.735	47.720	-0.042	-0.039
-296.720	140.823	0.051	-0.066
-295.705	13.242	-0.108	-0.083
-294.691	-14.561	-0.035	-0.022
-293.676	611.757	0.083	0.205
-292.662	-25.315	-0.291	-0.171
-291.647	143.725	-0.142	-0.187
-290.632	245.259	0.215	0.358
-289.618	-35.983	-0.060	0.032
-288.603	433.440	-0.139	0.298
-287.589	-200.000	-0.054	0.253
-286.574	-200.000	0.026	-0.122
-285.559	-46.715	0.216	0.105
-284.545	734.660	0.125	-0.332
-283.530	-200.000	0.000	0.003
-282.516	563.035	-0.059	0.142
-281.501	-72.105	-0.057	-0.021
-280.486	560.116	-0.131	-0.315
-279.472	-94.574	0.223	0.060
-278.457	200.979	0.169	0.258
-277.443	-200.000	-0.033	-0.397
-276.428	-39.591	0.306	-0.158
-275.413	-90.666	0.207	-0.059
-274.399	-17.581	0.144	0.090
-273.384	800.000	-0.060	0.226
-272.370	800.000	0.077	0.313
-271.355	188.527	-0.144	0.213
-270.340	452.741	0.066	0.145
-269.326	-67.298	-0.190	-0.074
-268.311	-143.708	-0.155	0.015
-267.297	-188.659	0.048	0.001
-266.282	-110.175	-0.183	0.038
-265.267	-13.135	-0.318	-0.205
-264.253	-200.000	0.002	-0.017
-263.238	-88.878	-0.143	0.042
-262.224	-124.502	0.163	-0.025
-261.209	301.497	0.088	-0.160
-260.195	29.161	0.053	-0.045
-259.180	-79.034	-0.062	-0.021
-258.165	-104.661	-0.118	0.027
-257.151	-6.175	-0.150	0.101
-256.136	-200.000	0.067	0.301
-255.122	-98.445	0.109	-0.028
-254.107	55.278	-0.057	0.054
-253.092	220.757	0.096	0.152
-252.078	70.934	-0.087	0.089
-251.063	255.736	0.126	-0.213
-250.049	800.000	-0.164	0.506
-249.034	632.093	0.066	-0.164
-248.019	499.819	-0.132	-0.301
-247.005	75.180	-0.030	0.032
-245.990	-117.538	-0.086	-0.015
-244.976	-200.000	0.039	0.268
-243.961	-22.482	-0.068	0.041
-242.946	-200.000	-0.008	-0.076
-241.932	-2.628	-0.031	0.022
-240.917	350.760	-0.048	-0.095
-239.903	665.282	0.206	0.525
-238.888	153.381	0.207	-0.281
-237.873	-64.457	0.147	-0.059
-236.859	753.997	-0.010	-0.027
-235.844	-200.000	-0.033	-0.276
-234.830	240.140	-0.270	0.444
-233.815	9.133	-0.241	-0.180
-232.800	228.024	-0.076	0.122
-231.786	-200.000	0.050	-0.460
-230.771	-47.220	0.313	-0.151
-229.757	-7.602	-0.273	0.182
-228.742	-47.291	0.090	-0.043
-227.727	-161.177	0.349	0.018
-226.713	55.351	-0.475	-0.454
-225.698	-69.547	0.418	-0.158
-224.684	7.416	0.042	-0.031
-223.669	-5.477	0.031	-0.021
-222.655	19.110	0.036	-0.028
-221.640	-200.000	-0.007	-0.071
-220.625	-142.582	0.035	-0.003
-219.611	-119.198	-0.319	0.055
-218.596	313.695	0.203	0.378
-217.582	-134.496	0.199	-0.024
-216.567	800.000	0.058	-0.162
-215.552	-26.227	0.269	-0.156
-214.538	737.946	0.034	-0.090
-213.523	-24.882	-0.289	-0.170
-212.509	-200.000	0.005	-0.192
-211.494	133.210	-0.057	-0.073
-210.479	-200.000	-0.031	0.565
-209.465	-200.000	0.060	0.358
-208.450	-200.000	-0.233	-0.001
-207.436	-107.162	0.111	0.024
-206.421	511.885	0.173	-0.398
-205.406	158.534	0.084	0.115
-204.392	-173.466	0.313	0.009
-203.377	-18.264	0.189	-0.116
-202.363	337.640	0.099	0.190
-201.348	421.067	-0.093	0.196
-200.333	1.076	-0.095	0.067
-199.319	-200.000	-0.083	-0.442
-198.304	-200.000	-0.031	0.193
-197.290	65.065	0.168	0.167
-196.275	-200.000	0.029	-0.507
-195.260	-200.000	-0.049	0.214
-194.246	7.435	-0.071	0.053
-193.231	7.676	-0.170	0.126
-192.217	25.843	-0.200	-0.164
-191.202	-81.265	-0.183	0.059
-190.187	800.000	0.021	0.067
-189.173	-87.848	0.196	-0.058
-188.158	-44.832	0.145	0.071
-187.144	227.531	0.053	0.085
-186.129	135.660	-0.206	0.265
-185.114	-97.253	0.252	0.065
-184.100	17.027	-0.313	-0.245
-183.085	-83.244	-0.168	-0.053
-182.071	800.000	-0.034	-0.128
-181.056	-200.000	-0.033	-0.239
-180.042	-200.000	-0.002	0.277
-179.027	-44.076	-0.213	0.106
-178.012	-39.961	0.301	-0.155
-176.998	68.177	-0.112	0.113
-175.983	90.133	0.057	0.063
-174.969	-25.806	0.344	-0.200
-173.954	-9.745	-0.247	-0.162
-172.939	219.324	-0.259	0.408
-171.925	242.753	-0.103	0.170
-170.910	-42.707	0.165	-0.083
-169.896	-200.000	0.037	0.335
-168.881	-200.000	0.011	-0.212
-167.866	-33.258	0.131	0.072
-166.852	-200.000	-0.020	-0.172
-165.837	-98.462	-0.047	-0.012
-164.823	446.447	-0.172	0.372
-163.808	29.671	-0.171	-0.144
-162.793	-83.504	-0.341	-0.108
-161.779	68.882	0.185	0.187
-160.764	-150.221	0.130	-0.010
-159.750	4.360	-0.165	0.119
-158.735	-17.112	-0.237	0.147
-157.720	135.715	0.081	-0.104
-156.706	-27.003	0.251	0.144
-155.691	308.381	0.093	0.171
-154.677	24.666	0.098	-0.080
-153.662	128.757	-0.121	0.152
-152.647	800.000	0.090	0.299
-151.633	8.656	0.067	-0.049
-150.618	30.872	-0.088	-0.074
-149.604	73.536	0.114	0.117
-148.589	153.413	-0.220	0.297
-147.574	591.178	0.045	0.109
-146.560	-200.000	0.034	0.172
-145.545	800.000	0.120	-0.496
-144.531	-14.310	0.202	0.128
-143.516	331.284	-0.074	-0.141
-142.502	-31.654	-0.165	0.091
-141.487	687.283	0.107	-0.276
-140.472	-200.000	0.019	0.193
-139.458	-88.994	0.064	-0.019
-138.443	-137.198	-0.179	0.020
-137.429	4.587	0.177	0.128
-136.414	164.657	0.096	-0.133
-135.399	85.227	0.148	-0.160
-134.385	24.449	-0.225	0.183
-133.370	-200.000	0.048	0.271
-132.356	-5.932	0.113	0.076
-131.341	800.000	0.039	0.121
-130.326	168.901	-0.223	0.314
-129.312	-200.000	0.007	-0.247
-128.297	800.000	0.060	-0.257
-127.283	358.513	-0.094	0.185
-126.268	147.716	0.064	0.085
-125.253	-200.000	0.048	-0.255
-124.239	800.000	0.060	0.172
-123.224	800.000	-0.071	-0.241
-122.210	213.631	-0.126	0.197
-121.195	-200.000	0.021	0.338
-120.180	185.366	0.244	0.357
-119.166	-11.343	0.075	-0.048
-118.151	17.105	0.171	-0.133
-117.137	-200.000	0.012	-0.162
-116.122	17.315	0.138	-0.108
-115.107	-200.000	0.001	-0.131
-114.093	-139.236	0.187	-0.020
-113.078	-173.528	-0.100	0.003
-112.064	-59.559	0.077	0.033
-111.049	800.000	0.057	-0.212
-110.034	70.468	0.241	-0.245
-109.020	800.000	-0.053	-0.206
-108.005	-44.071	0.198	0.098
-106.991	-82.920	-0.205	0.065
-105.976	-9.259	-0.243	0.160
-104.962	-46.078	0.296	-0.143
-103.947	-155.315	0.406	0.026
-102.932	-200.000	0.036	-0.192
-101.918	337.471	-0.066	0.126
-100.903	-88.047	-0.149	-0.044
-99.889	606.848	0.068	0.166
-98.874	-200.000	-0.001	-0.096
-97.859	-134.347	-0.063	-0.008
-96.845	-125.281	-0.243	-0.036
-95.830	19.569	0.219	-0.173
-94.816	-200.000	0.023	-0.137
-93.801	-200.000	-0.033	0.158
-92.786	-172.913	0.156	-0.005
-91.772	84.853	-0.303	-0.326
-90.757	800.000	0.078	0.277
-89.743	4.567	0.231	-0.166
-88.728	-200.000	-0.028	0.358
-87.713	800.000	-0.067	0.234
-86.699	7.694	-0.111	0.082
-85.684	-38.963	-0.265	-0.137
-84.670	-200.000	0.019	0.159
-83.655	66.207	0.076	0.076
-82.640	123.198	-0.155	0.191
-81.626	259.157	0.084	-0.143
-80.611	800.000	-0.016	0.056
-79.597	216.955	-0.117	0.183
-78.582	-200.000	-0.030	-0.143
-77.567	-200.000	-0.018	-0.282
-76.553	-200.000	-0.010	0.380
-75.538	-55.802	-0.065	0.028
-74.524	800.000	0.064	-0.220
-73.509	-200.000	-0.010	0.406
-72.494	31.641	0.413	0.349
-71.480	359.333	0.126	-0.247
-70.465	800.000	-0.047	-0.165
-69.451	196.982	0.144	0.215
-68.436	-93.905	0.239	-0.065
-67.422	783.247	-0.087	-0.234
-66.407	-70.662	0.245	-0.091
-65.392	124.122	0.021	0.026
-64.378	-31.107	0.349	-0.193
-63.363	-48.753	0.199	0.094
-62.349	81.972	0.117	0.124
-61.334	65.880	-0.959	-0.954
-60.319	105.366	0.736	0.854
-59.305	800.000	-0.387	-1.122
-58.290	76.505	1.033	1.074
-57.276	800.000	0.622	1.695
-56.261	-200.000	104.606	578.543
-55.246	505.737	1475.267	3355.273
-54.232	177.319	2688.119	3842.109
-53.217	104.416	2308.657	2667.418
-52.203	38.587	1915.989	1677.173
-51.188	32.681	1702.056	1444.745
-50.173	30.042	1658.823	1388.249
-49.159	48.897	1710.489	1575.380
-48.144	48.886	1726.783	1590.237
-47.130	32.290	1684.762	1426.870
-46.115	29.553	1670.652	1394.233
-45.100	29.487	1665.295	1389.208
-44.086	29.392	1662.697	1386.276
-43.071	29.349	1660.276	1383.875
-42.057	29.348	1657.391	1381.409
-41.042	29.304	1655.937	1379.814
-40.027	29.408	1653.885	1378.826
-39.013	29.382	1651.458	1376.555
-37.998	29.365	1650.154	1375.289
-36.984	29.432	1648.852	1374.649
-35.969	29.571	1646.915	1374.010
-34.954	29.564	1645.597	1372.803
-33.940	29.496	1644.009	1370.919
-32.925	29.529	1642.442	1369.805
-31.911	29.493	1640.603	1367.949
-30.896	29.459	1638.909	1366.235
-29.881	29.418	1637.332	1364.563
-28.867	29.520	1635.148	1363.437
-27.852	29.496	1634.127	1362.355
-26.838	29.512	1632.727	1361.251
-25.823	29.470	1631.376	1359.765
-24.809	29.476	1630.534	1359.054
-23.794	29.421	1629.284	1357.551
-22.779	29.634	1627.020	1357.177
-21.765	29.474	1625.642	1354.801
-20.750	29.468	1623.692	1353.078
-19.736	29.543	1622.372	1352.469
-18.721	29.619	1620.532	1351.442
-17.706	29.474	1619.691	1349.626
-16.692	29.503	1618.149	1348.500
-15.677	29.451	1617.017	1347.124
-14.663	29.549	1615.475	1346.495
-13.648	29.614	1613.570	1345.326
-12.633	29.518	1612.568	1343.742
-11.619	29.503	1610.657	1341.990
-10.604	29.526	1608.995	1340.713
-9.590	29.522	1608.529	1340.247
-8.575	29.590	1607.243	1339.613
-7.560	29.568	1605.728	1338.139
-6.546	29.530	1605.102	1337.288
-5.531	29.557	1603.714	1336.276
-4.517	29.495	1602.811	1335.019
-3.502	29.532	1601.318	1333.994
-2.487	29.645	1599.441	1333.193
-1.473	29.425	1588.086	1322.098
-0.458	26.704	1568.773	1286.675
0.556	25.333	1570.039	1255.078
1.571	23.041	1594.092	1257.903
2.586	22.290	1605.984	1261.793
3.600	19.689	1552.278	1201.433
4.615	12.188	1443.515	1068.481
5.629	5.505	1381.493	980.714
6.644	4.426	1373.091	967.939
7.659	4.383	1372.385	967.085
8.673	4.408	1371.511	966.540
9.688	4.453	1369.525	965.339
10.702	4.451	1366.826	963.338
11.717	7.588	1371.642	986.145
12.731	15.200	1386.783	1044.567
13.746	21.276	1396.095	1089.498
14.761	22.412	1397.157	1097.318
15.775	21.911	1395.046	1092.442
16.790	20.902	1392.879	1084.372
17.804	20.158	1390.531	1077.824
18.819	19.820	1389.119	1074.539
19.834	19.758	1388.012	1073.200
20.848	19.657	1387.760	1072.283
21.863	19.484	1386.285	1069.976
22.877	19.352	1385.000	1068.074
23.892	19.309	1383.998	1066.940
24.907	19.262	1383.567	1066.223
25.921	19.334	1382.039	1065.394
26.936	19.344	1381.394	1064.864
27.950	19.366	1380.159	1063.957
28.965	19.388	1379.779	1063.703
29.980	19.597	1378.389	1063.825
30.994	19.747	1377.609	1064.052
32.009	19.747	1376.538	1063.129
33.023	19.760	1374.884	1061.840
34.038	19.557	1374.455	1060.168
35.053	19.448	1372.779	1058.114
36.067	19.478	1371.966	1057.575
37.082	19.445	1371.290	1056.757
38.096	19.617	1369.850	1056.608
39.111	19.604	1369.405	1056.091
40.126	19.553	1367.871	1054.506
41.140	19.189	1367.227	1051.690
42.155	18.998	1366.596	1049.949
43.169	18.998	1366.595	1049.858
44.184	19.014	1365.633	1049.118
45.199	19.028	1365.612	1049.096
46.213	19.219	1365.538	1050.109
47.228	19.384	1364.898	1050.529
48.242	19.427	1363.359	1049.515
49.257	19.333	1362.023	1047.822
50.271	19.445	1360.367	1047.136
51.286	19.424	1359.588	1046.319
52.301	19.474	1358.077	1045.365
53.315	19.240	1357.305	1043.263
54.330	19.200	1355.405	1041.464
55.344	19.215	1354.685	1040.912
56.359	19.183	1353.718	1039.885
57.374	19.133	1352.603	1038.632
58.388	18.965	1352.088	1037.133
59.403	18.973	1351.114	1036.341
60.417	18.912	1350.880	1035.700
61.432	18.876	1349.722	1034.505
62.447	18.733	1349.160	1033.121
63.461	18.715	1347.610	1031.737
64.476	18.708	1346.536	1030.784
65.490	18.738	1345.234	1029.877
66.505	18.688	1343.606	1028.237
67.520	18.784	1342.501	1027.873
68.534	18.828	1341.555	1027.325
69.549	18.885	1340.290	1026.604
70.563	18.702	1339.632	1024.915
71.578	18.645	1338.033	1023.259
72.593	18.565	1337.385	1022.199
73.607	18.485	1336.860	1021.233
74.622	18.628	1335.889	1021.249
75.636	18.559	1335.496	1020.451
76.651	18.629	1334.675	1020.145
77.666	18.705	1334.385	1020.290
78.680	18.754	1333.860	1020.086
79.695	18.855	1333.087	1020.007
80.709	18.923	1332.311	1019.726
81.724	19.163	1331.846	1020.702
82.739	19.099	1331.107	1019.664
83.753	19.312	1330.263	1020.188
84.768	19.430	1329.631	1020.315
85.782	19.522	1328.578	1019.957
86.797	19.607	1327.067	1019.207
87.812	19.353	1326.156	1016.923
88.826	19.459	1325.016	1016.579
89.841	19.409	1324.122	1015.513
90.855	19.593	1323.180	1015.780
91.870	19.669	1322.230	1015.409
92.884	19.669	1321.556	1014.804
93.899	19.725	1320.449	1014.189
94.914	19.666	1320.087	1013.478
95.928	19.763	1319.094	1013.191
96.943	19.740	1318.357	1012.400
97.957	19.572	1317.176	1010.424
98.972	19.562	1316.236	1009.556
99.987	19.566	1315.080	1008.603
101.001	19.560	1314.387	1007.942
102.016	19.608	1313.911	1007.773
103.030	19.639	1312.667	1006.908
104.045	19.576	1311.513	1005.569
105.060	19.450	1310.542	1004.000
106.074	19.137	1308.426	1000.476
107.089	18.864	1307.019	997.724
108.103	18.801	1305.634	996.215
109.118	18.814	1304.535	995.360
110.133	18.915	1303.051	994.728
111.147	18.846	1301.778	993.268
112.162	18.928	1300.644	992.788
113.176	19.027	1299.778	992.608
114.191	19.069	1299.100	992.246
115.206	19.048	1297.914	991.134
116.220	19.045	1296.316	989.808
117.235	18.917	1295.657	988.478
118.249	18.870	1294.425	987.181
119.264	18.789	1293.371	985.828
120.279	18.790	1291.786	984.536
121.293	18.691	1291.082	983.348
122.308	18.556	1290.391	981.962
123.322	18.603	1288.816	980.945
124.337	18.563	1287.978	979.987
125.352	18.557	1286.820	978.986
126.366	18.613	1285.434	978.164
127.381	18.579	1284.573	977.228
128.395	18.682	1283.137	976.638
129.410	18.498	1282.720	975.187
130.424	18.710	1282.033	975.785
131.439	18.778	1281.652	975.792
132.454	18.979	1280.450	975.932
133.468	18.958	1279.693	975.152
134.483	18.998	1278.912	974.698
135.497	19.013	1277.904	973.925
136.512	18.977	1277.113	973.036
137.527	18.992	1275.510	971.814
138.541	18.973	1274.392	970.764
139.556	19.147	1273.245	970.790
140.570	19.134	1272.373	969.962
141.585	19.389	1270.773	970.095
142.600	19.440	1269.932	969.652
143.614	19.527	1269.503	969.726
144.629	19.568	1268.313	968.961
145.643	19.514	1267.376	967.857
146.658	19.266	1265.921	965.270
147.673	19.222	1264.200	963.625
148.687	19.309	1262.234	962.528
149.702	19.033	1261.018	959.977
150.716	18.883	1260.016	958.297
151.731	19.016	1258.666	957.923
152.746	19.062	1257.422	957.145
153.760	19.156	1256.493	956.879
154.775	19.259	1255.230	956.401
155.789	19.301	1254.429	955.940
156.804	19.347	1253.860	955.681
157.819	19.388	1252.709	954.941
158.833	19.545	1252.146	955.300
159.848	19.648	1251.512	955.303
160.862	19.551	1250.059	953.573
161.877	19.303	1248.912	951.240
162.892	19.074	1247.722	948.988
163.906	18.956	1247.000	947.704
164.921	18.990	1245.631	946.771
165.935	19.029	1245.002	946.420
166.950	19.202	1244.914	947.224
167.964	19.231	1243.892	946.523
168.979	19.148	1243.103	945.379
169.994	19.223	1241.748	944.676
171.008	19.149	1241.417	943.939
172.023	19.478	1240.065	944.629
173.037	19.442	1240.251	944.486
174.052	19.586	1238.917	944.173
175.067	19.215	1237.578	941.043
176.081	19.053	1236.559	939.303
177.096	18.928	1236.204	938.269
178.110	19.166	1234.850	938.456
179.125	19.084	1233.787	937.115
180.140	19.217	1232.605	936.858
181.154	19.356	1231.745	936.880
182.169	19.531	1230.534	936.826
183.183	19.589	1229.412	936.200
184.198	19.660	1228.361	935.701
185.213	19.536	1227.258	934.107
186.227	19.643	1226.066	933.698
187.242	19.784	1224.775	933.394
188.256	19.752	1224.637	933.034
189.271	19.767	1224.033	932.569
190.286	19.560	1222.452	930.167
191.300	19.135	1221.121	926.786
192.315	19.013	1220.455	925.543
193.329	19.040	1220.100	925.335
194.344	19.202	1218.865	925.191
195.359	19.307	1218.744	925.581
196.373	19.274	1218.331	925.005
197.388	19.484	1217.999	925.798
198.402	19.752	1218.224	927.323
199.417	19.873	1217.531	927.365
200.432	19.843	1216.860	926.611
201.446	20.060	1216.275	927.243
202.461	20.113	1215.145	926.586
203.475	20.058	1214.123	925.430
204.490	19.833	1212.477	922.891
205.504	19.684	1211.019	920.906
206.519	19.721	1209.626	919.962
207.534	19.638	1208.608	918.668
208.548	19.665	1207.691	918.029
209.563	19.577	1207.275	917.169
210.577	19.664	1206.169	916.704
211.592	19.781	1205.423	916.677
212.607	19.990	1204.486	916.990
213.621	19.833	1204.148	915.824
214.636	19.859	1203.001	915.008
215.650	19.963	1201.915	914.650
216.665	19.993	1201.448	914.374
217.680	20.092	1200.621	914.184
218.694	20.195	1199.761	913.990
219.709	20.053	1199.501	912.965
220.723	20.007	1198.266	911.700
221.738	20.000	1197.495	910.994
222.753	20.049	1196.389	910.333
223.767	20.122	1195.901	910.261
224.782	20.008	1195.849	909.545
225.796	20.222	1195.260	910.141
226.811	20.258	1194.268	909.491
227.826	20.084	1193.699	908.067
228.840	19.935	1192.931	906.623
229.855	19.968	1191.864	905.904
230.869	19.958	1190.758	904.931
231.884	20.048	1190.071	904.796
232.899	19.840	1189.566	903.247
233.913	19.749	1188.356	901.774
234.928	19.720	1187.358	900.787
235.942	19.599	1186.997	899.803
236.957	19.635	1186.210	899.312
237.972	19.692	1185.388	898.906
238.986	19.687	1184.902	898.431
240.001	19.711	1184.081	897.855
241.015	19.803	1183.233	897.609
242.030	19.915	1182.628	897.654
243.045	19.962	1181.929	897.288
244.059	20.001	1180.830	896.575
245.074	20.133	1180.416	896.865
246.088	20.086	1179.629	895.945
247.103	20.215	1178.620	895.765
248.117	20.275	1178.712	896.067
249.132	20.542	1177.882	896.732
250.147	20.735	1177.077	897.035
251.161	20.801	1176.617	896.943
252.176	20.812	1176.502	896.836
253.190	20.948	1175.726	896.867
254.205	21.016	1175.102	896.660
255.220	20.998	1174.410	895.960
256.234	21.030	1173.944	895.688
257.249	21.045	1172.952	894.927
258.263	21.085	1172.054	894.370
259.278	20.930	1171.314	892.931
260.293	20.824	1171.534	892.477
261.307	21.029	1170.831	892.912
262.322	21.029	1169.901	892.125
263.336	21.059	1169.420	891.830
264.351	21.068	1168.727	891.268
265.366	21.111	1168.106	890.936
266.380	21.106	1167.662	890.496
267.395	21.069	1166.738	889.520
268.409	20.839	1165.820	887.573
269.424	20.821	1165.194	886.924
270.439	20.915	1164.206	886.574
271.453	20.736	1163.515	885.058
272.468	20.722	1162.221	883.926
273.482	20.659	1161.571	883.034
274.497	20.721	1160.790	882.672
275.512	20.654	1160.442	881.991
276.526	20.661	1159.608	881.314
277.541	20.734	1158.694	880.912
278.555	20.718	1158.255	880.422
279.570	21.008	1157.548	881.272
280.585	21.097	1157.276	881.433
281.599	21.075	1156.135	880.379
282.614	20.966	1154.718	878.672
283.628	20.951	1153.195	877.359
284.643	20.863	1152.557	876.350
285.657	20.964	1151.812	876.219
286.672	20.874	1151.197	875.221
287.687	20.911	1150.124	874.511
288.701	21.009	1149.254	874.262
289.716	20.977	1148.295	873.299
290.730	20.918	1148.016	872.711
291.745	20.880	1147.239	871.852
292.760	21.100	1146.496	872.313
293.774	21.082	1146.227	871.938
294.789	21.291	1145.842	872.615
295.803	21.141	1145.340	871.407
296.818	20.897	1144.461	869.442
297.833	20.933	1143.211	868.596
298.847	21.025	1142.347	868.319
299.862	20.934	1141.596	867.220
300.876	21.141	1140.746	867.528
301.891	21.190	1140.637	867.612
302.906	21.312	1140.017	867.668
303.920	21.370	1139.293	867.326
304.935	21.442	1138.900	867.309
305.949	21.552	1138.337	867.347
306.964	21.568	1137.292	866.556
307.979	21.534	1136.446	865.664
308.993	21.355	1135.978	864.345
310.008	21.341	1134.981	863.444
311.022	21.612	1134.415	864.272
312.037	21.435	1133.378	862.535
313.052	21.426	1132.134	861.469
314.066	21.102	1131.555	859.355
315.081	20.939	1130.643	857.782
316.095	20.928	1129.657	856.906
317.110	20.982	1128.881	856.508
318.125	21.023	1127.918	855.901
319.139	21.050	1127.443	855.596
320.154	21.053	1126.912	855.136
321.168	20.989	1126.597	854.507
322.183	21.085	1125.949	854.409
323.197	21.010	1125.510	853.634
324.212	21.183	1124.404	853.562
325.227	21.253	1124.210	853.685
326.241	21.234	1123.399	852.898
327.256	21.214	1122.304	851.895
328.270	21.158	1121.483	850.926
329.285	21.030	1120.681	849.618
330.300	21.076	1120.067	849.297
331.314	21.193	1118.809	848.838
332.329	21.125	1117.751	847.634
333.343	21.225	1117.116	847.562
334.358	21.330	1116.308	847.383
335.373	21.374	1115.970	847.264
336.387	21.435	1114.936	846.700
337.402	21.380	1114.137	845.751
338.416	21.645	1113.365	846.371
339.431	21.582	1113.320	845.958
340.446	21.788	1112.553	846.293
341.460	21.855	1111.764	845.944
342.475	21.906	1111.589	845.978
343.489	22.015	1110.309	845.456
344.504	22.107	1109.442	845.161
345.519	22.166	1108.724	844.823
346.533	22.112	1107.579	843.619
347.548	22.244	1107.204	843.892
348.562	22.138	1106.263	842.590
349.577	21.949	1105.131	840.750
350.592	21.718	1104.161	838.832
351.606	21.697	1103.330	838.024
352.621	21.439	1102.894	836.388
353.635	21.526	1102.092	836.120
354.650	21.473	1101.304	835.193
355.665	21.610	1100.676	835.299
356.679	21.787	1099.641	835.284
357.694	21.733	1099.538	834.872
358.708	21.810	1099.059	834.801
359.723	21.853	1098.564	834.560
360.738	21.766	1098.050	833.680
361.752	21.908	1097.253	833.676
362.767	21.915	1096.637	833.168
363.781	21.902	1096.236	832.727
364.796	22.017	1095.702	832.793
365.810	22.118	1095.220	832.829
366.825	22.234	1094.503	832.760
367.840	22.416	1094.397	833.471
368.854	22.477	1093.799	833.227
369.869	22.463	1092.845	832.360
370.883	22.334	1091.896	830.958
371.898	22.245	1091.230	829.958
372.913	22.216	1090.261	829.010
373.927	22.345	1090.000	829.347
374.942	22.469	1089.563	829.526
375.956	22.342	1088.839	828.301
376.971	22.256	1088.197	827.333
377.986	22.389	1087.888	827.652
379.000	22.553	1087.424	827.998
380.015	22.502	1087.069	827.415
381.029	22.684	1086.187	827.525
382.044	22.605	1085.427	826.501
383.059	22.597	1084.465	825.657
384.073	22.570	1083.742	824.906
385.088	22.645	1082.630	824.338
386.102	22.555	1081.660	823.108
387.117	22.313	1080.942	821.358
388.132	22.191	1080.005	820.005
389.146	22.173	1079.082	819.146
390.161	22.166	1078.498	818.598
391.175	22.222	1077.495	818.024
392.190	22.372	1077.022	818.291
393.205	22.512	1076.299	818.318
394.219	22.447	1075.797	817.563
395.234	22.421	1074.139	816.111
396.248	22.285	1073.180	814.682
397.263	22.231	1072.264	813.662
398.278	22.240	1071.760	813.251
399.292	22.157	1070.457	811.807
400.307	22.103	1069.835	811.015
401.321	22.054	1069.407	810.389
402.336	22.108	1068.164	809.626
403.350	22.071	1067.935	809.212
404.365	22.214	1067.532	809.491
405.380	22.313	1066.766	809.296
406.394	22.363	1066.034	808.898
407.409	22.454	1065.349	808.725
408.423	22.630	1064.901	809.120
409.438	22.676	1064.384	808.865
410.453	22.717	1064.062	808.741
411.467	22.863	1063.025	808.549
412.482	22.829	1062.674	808.051
413.496	22.898	1061.685	807.548
414.511	22.872	1061.639	807.320
415.526	23.077	1060.824	807.566
416.540	23.170	1060.649	807.785
417.555	23.090	1059.886	806.768
418.569	22.959	1059.333	805.678
419.584	22.968	1058.942	805.350
420.599	22.979	1058.509	804.998
421.613	156.608	1402.291	1795.498
422.628	143.978	1452.384	1795.587
