DTS Sentinel unit serial number:	SN413079Multiplexer serial number:	ORYXHardware model number:	OX4-SRSoftware version number:	ORYX F/W v4.00 Oryx Data Collector v3.7.2.0data status	okinstallation	princeton_trtdifferential loss correction	single-endedforward channel	channel 2reverse channel	N/Adate	2019/09/15time	00:31:35forward acquisition time	60.00reverse acquisition time	0.00gamma	496.2192k internal	0.2324k external	0.2324temperature offset calibration	1.0039default loss term (dB/km)	0.3790temperature slope calibration	1.0000multiplexer offset coefficient	1.0000multiplexer slope coefficient	1.0000fibre end	0.00T internal ref (°C)	32.12T ext. ref 1 (°C)	4.57T ext. ref 2 (°C)	27.17length (m)	temperature (°C)	Stokes	anti-Stokes-747.200	226.231	0.155	-0.254
-746.185	248.393	0.160	0.274
-745.171	115.872	0.082	-0.102
-744.156	800.000	-0.052	0.178
-743.142	149.022	-0.134	0.183
-742.127	-119.381	0.146	-0.026
-741.112	-200.000	-0.011	-0.159
-740.098	-10.197	-0.381	-0.255
-739.083	-200.000	-0.010	-0.071
-738.069	800.000	0.050	-0.152
-737.054	-143.516	-0.136	0.013
-736.039	126.563	-0.145	0.186
-735.025	-200.000	-0.016	0.184
-734.010	203.828	-0.061	0.095
-732.996	-99.241	-0.368	-0.094
-731.981	-124.963	-0.364	-0.057
-730.966	800.000	-0.043	-0.159
-729.952	-124.658	-0.257	-0.040
-728.937	2.956	-0.292	0.214
-727.923	-200.000	-0.015	-0.263
-726.908	-159.331	0.315	0.018
-725.894	-200.000	-0.121	-0.000
-724.879	94.821	-0.298	-0.341
-723.864	-56.209	0.267	-0.120
-722.850	39.702	-0.115	-0.104
-721.835	707.273	0.098	0.261
-720.821	50.546	-0.209	0.199
-719.806	156.241	-0.081	-0.112
-718.791	-46.094	0.083	0.041
-717.777	-136.575	-0.132	0.015
-716.762	-200.000	0.034	0.212
-715.748	-200.000	0.075	0.431
-714.733	-200.000	0.014	-0.061
-713.718	-40.686	0.232	-0.121
-712.704	-134.190	-0.186	-0.023
-711.689	-108.830	0.370	0.080
-710.675	-154.779	0.076	-0.005
-709.660	-118.287	0.166	0.030
-708.645	776.917	-0.058	-0.160
-707.631	-111.658	-0.230	-0.047
-706.616	-13.390	0.262	-0.172
-705.602	267.696	-0.054	-0.095
-704.587	170.527	-0.086	-0.124
-703.572	-38.682	0.189	-0.101
-702.558	19.634	-0.057	0.046
-701.543	800.000	-0.050	0.171
-700.529	-57.823	0.284	-0.125
-699.514	-140.851	0.151	0.016
-698.499	241.733	0.139	0.234
-697.485	-57.642	-0.220	0.097
-696.470	-71.134	-0.147	0.056
-695.456	-114.141	0.106	-0.021
-694.441	9.432	-0.073	-0.056
-693.426	1.829	0.370	-0.269
-692.412	-115.241	-0.203	-0.039
-691.397	800.000	0.016	-0.047
-690.383	95.915	0.251	-0.289
-689.368	2.639	0.173	-0.126
-688.354	-92.851	-0.508	0.143
-687.339	-200.000	-0.025	-0.446
-686.324	800.000	-0.113	0.327
-685.310	-63.287	-0.275	0.114
-684.295	-34.986	-0.129	-0.071
-683.281	335.925	0.153	-0.300
-682.266	228.506	-0.033	-0.055
-681.251	-177.690	-0.258	0.006
-680.237	-171.862	-0.167	0.005
-679.222	664.048	-0.116	0.302
-678.208	156.452	0.169	-0.235
-677.193	61.152	0.067	-0.067
-676.178	-108.633	-0.221	-0.048
-675.164	98.099	0.122	-0.142
-674.149	-123.621	0.173	0.028
-673.135	800.000	-0.123	-0.457
-672.120	-45.142	-0.263	-0.131
-671.105	307.477	-0.036	0.068
-670.091	-33.017	-0.227	-0.127
-669.076	-200.000	0.010	-0.207
-668.062	800.000	0.053	-0.205
-667.047	137.358	0.041	-0.054
-666.032	800.000	0.040	-0.125
-665.018	-186.320	-0.127	0.002
-664.003	-51.826	0.227	0.106
-662.989	800.000	-0.063	0.252
-661.974	-200.000	-0.032	-0.325
-660.959	-86.452	-0.156	-0.048
-659.945	-73.596	-0.276	0.101
-658.930	-61.139	-0.376	0.160
-657.916	800.000	0.126	-0.407
-656.901	-90.992	-0.281	0.081
-655.886	0.210	-0.350	-0.251
-654.872	-69.312	-0.350	0.135
-653.857	-116.626	0.238	0.044
-652.843	-74.457	-0.277	-0.101
-651.828	-103.669	-0.300	0.071
-650.814	-200.000	-0.008	-0.036
-649.799	127.281	0.051	0.066
-648.784	194.524	0.125	-0.190
-647.770	-200.000	-0.026	-0.302
-646.755	26.265	0.269	-0.226
-645.741	800.000	0.064	0.218
-644.726	800.000	-0.045	0.131
-643.711	-200.000	0.053	0.282
-642.697	800.000	-0.096	-0.374
-641.682	-95.401	0.119	0.032
-640.668	30.730	0.017	0.015
-639.653	-78.102	0.197	0.068
-638.638	-113.107	0.189	-0.038
-637.624	216.093	-0.045	-0.072
-636.609	102.525	0.263	-0.309
-635.595	374.542	0.141	-0.290
-634.580	62.030	0.260	0.261
-633.565	-117.411	0.262	0.048
-632.551	272.559	-0.151	-0.267
-631.536	153.659	0.128	0.177
-630.522	800.000	-0.045	0.161
-629.507	-88.135	0.244	0.073
-628.492	26.771	-0.308	-0.259
-627.478	-132.347	-0.227	0.029
-626.463	-50.216	0.258	-0.123
-625.449	177.668	-0.250	-0.366
-624.434	-200.000	-0.015	-0.103
-623.419	138.396	0.057	0.075
-622.405	51.315	-0.245	0.233
-621.390	-11.246	0.146	-0.097
-620.376	-30.959	-0.313	0.177
-619.361	450.703	0.009	0.020
-618.346	-200.000	0.005	0.179
-617.332	800.000	-0.064	-0.237
-616.317	176.450	-0.064	-0.094
-615.303	-120.932	-0.136	-0.023
-614.288	198.914	-0.377	-0.580
-613.273	-46.513	-0.312	-0.154
-612.259	170.965	0.027	0.039
-611.244	87.064	-0.174	-0.193
-610.230	392.135	-0.069	0.145
-609.215	-200.000	-0.021	-0.228
-608.201	731.820	0.045	0.121
-607.186	800.000	0.025	0.084
-606.171	-96.818	0.215	0.057
-605.157	36.523	0.136	0.121
-604.142	-200.000	-0.041	0.297
-603.128	-131.261	0.130	-0.017
-602.113	-42.182	-0.270	-0.138
-601.098	375.800	0.031	0.064
-600.084	-200.000	-0.004	-0.184
-599.069	11.410	0.143	0.110
-598.055	50.408	0.169	0.161
-597.040	-45.215	-0.352	0.175
-596.025	-118.331	0.255	-0.045
-595.011	-16.394	-0.077	0.049
-593.996	24.615	0.232	-0.192
-592.982	800.000	-0.148	0.492
-591.967	-200.000	-0.040	0.298
-590.952	-200.000	-0.036	0.232
-589.938	-31.672	0.231	-0.130
-588.923	-162.411	-0.164	0.008
-587.909	52.684	0.043	-0.042
-586.894	234.681	0.196	0.325
-585.879	-118.995	-0.063	-0.011
-584.865	-127.394	0.308	0.045
-583.850	392.383	0.098	-0.204
-582.836	-200.000	0.011	-0.433
-581.821	169.535	-0.116	-0.166
-580.806	-200.000	0.051	0.233
-579.792	800.000	-0.041	-0.125
-578.777	-109.012	-0.122	0.026
-577.763	-60.722	0.242	0.103
-576.748	197.345	0.261	-0.400
-575.733	-129.225	0.079	-0.011
-574.719	-121.976	-0.095	0.016
-573.704	-113.502	0.183	0.036
-572.690	-34.150	-0.208	0.114
-571.675	-98.198	0.432	-0.111
-570.661	-23.338	-0.246	-0.148
-569.646	183.685	-0.237	0.351
-568.631	241.173	-0.118	0.198
-567.617	113.085	0.145	-0.177
-566.602	99.360	-0.257	-0.298
-565.588	166.199	-0.161	-0.228
-564.573	-85.308	-0.232	0.072
-563.558	113.821	0.284	0.345
-562.544	-200.000	0.019	-0.216
-561.529	17.794	-0.311	-0.248
-560.515	47.652	-0.141	0.132
-559.500	-200.000	0.018	0.210
-558.485	-118.171	-0.290	-0.052
-557.471	-141.327	-0.253	-0.026
-556.456	62.630	0.127	0.127
-555.442	130.307	-0.188	-0.242
-554.427	-200.000	-0.005	0.042
-553.412	-112.121	0.209	0.042
-552.398	-168.258	0.242	0.009
-551.383	-200.000	-0.060	0.274
-550.369	173.917	-0.034	-0.049
-549.354	605.046	0.050	0.124
-548.339	-200.000	-0.007	0.265
-547.325	-151.870	0.246	0.018
-546.310	145.498	-0.133	-0.178
-545.296	-200.000	-0.065	-0.430
-544.281	215.800	-0.090	0.143
-543.266	641.519	0.093	-0.237
-542.252	-200.000	-0.018	0.213
-541.237	418.381	0.052	0.111
-540.223	-130.699	-0.176	0.024
-539.208	-131.847	-0.161	-0.021
-538.193	-73.642	-0.149	0.054
-537.179	279.390	0.082	0.146
-536.164	-139.126	0.360	-0.039
-535.150	8.263	-0.426	-0.320
-534.135	217.539	-0.105	-0.168
-533.121	21.286	-0.125	-0.101
-532.106	3.127	-0.105	-0.076
-531.091	35.512	0.112	-0.098
-530.077	-142.335	0.371	-0.037
-529.062	-154.035	-0.103	0.007
-528.048	-13.005	0.130	-0.085
-527.033	-142.081	-0.283	0.028
-526.018	16.258	-0.165	-0.130
-525.004	-37.806	-0.267	-0.142
-523.989	800.000	-0.034	-0.145
-522.975	288.491	0.127	-0.229
-521.960	-110.812	-0.036	-0.007
-520.945	7.581	-0.380	-0.285
-519.931	7.593	-0.267	-0.200
-518.916	-85.931	0.043	-0.013
-517.902	0.603	0.106	-0.076
-516.887	552.012	0.110	-0.264
-515.872	9.166	-0.257	0.194
-514.858	172.888	-0.089	0.128
-513.843	194.474	-0.090	-0.137
-512.829	800.000	-0.067	-0.192
-511.814	212.727	-0.137	-0.216
-510.799	-200.000	0.030	-0.392
-509.785	-150.214	-0.148	0.011
-508.770	6.429	0.263	-0.196
-507.756	312.686	0.082	-0.154
-506.741	-200.000	0.001	0.037
-505.726	-200.000	0.021	-0.194
-504.712	-200.000	0.004	0.069
-503.697	-98.946	0.170	-0.043
-502.683	800.000	0.092	-0.256
-501.668	-200.000	-0.002	0.129
-500.653	76.701	-0.183	0.195
-499.639	421.563	0.103	0.220
-498.624	208.391	0.071	0.112
-497.610	-200.000	0.024	0.204
-496.595	322.888	-0.040	0.076
-495.581	379.289	-0.091	0.186
-494.566	401.610	0.078	-0.164
-493.551	800.000	-0.238	-0.659
-492.537	29.010	-0.134	0.113
-491.522	-34.199	0.258	0.142
-490.508	-166.788	-0.341	-0.014
-489.493	8.375	0.085	0.064
-488.478	197.531	-0.056	0.086
-487.464	-200.000	-0.018	0.129
-486.449	-157.145	-0.356	-0.022
-485.435	800.000	-0.018	-0.078
-484.420	800.000	0.055	-0.173
-483.405	142.818	0.058	0.077
-482.391	-67.497	0.305	0.120
-481.376	-127.561	0.222	0.032
-480.362	301.374	-0.103	0.191
-479.347	61.378	0.121	0.120
-478.332	-23.891	-0.101	0.061
-477.318	-200.000	0.009	-0.101
-476.303	379.474	-0.067	-0.137
-475.289	65.654	0.082	-0.083
-474.274	793.772	-0.045	0.125
-473.259	800.000	0.041	0.177
-472.245	-54.530	0.222	0.100
-471.230	121.695	0.134	0.167
-470.216	18.818	0.076	-0.061
-469.201	388.452	-0.038	-0.078
-468.186	170.264	-0.107	0.153
-467.172	-128.494	-0.557	-0.079
-466.157	-107.524	0.116	0.025
-465.143	-200.000	0.040	0.178
-464.128	129.579	-0.153	-0.196
-463.113	-36.473	0.205	-0.110
-462.099	330.066	-0.082	-0.157
-461.084	800.000	-0.020	-0.066
-460.070	-173.192	-0.144	-0.004
-459.055	139.949	-0.125	0.164
-458.040	800.000	-0.030	0.115
-457.026	-23.595	-0.065	0.039
-456.011	-127.861	0.026	0.004
-454.997	124.508	-0.121	-0.152
-453.982	-22.999	0.243	-0.146
-452.968	3.473	0.144	0.104
-451.953	-100.686	-0.134	-0.033
-450.938	-30.833	0.032	-0.018
-449.924	120.948	-0.354	0.440
-448.909	308.779	-0.166	-0.309
-447.895	-41.528	-0.272	0.140
-446.880	2.258	0.076	-0.055
-445.865	112.555	0.074	-0.090
-444.851	24.113	-0.269	-0.221
-443.836	216.288	-0.138	-0.219
-442.822	265.651	-0.229	-0.399
-441.807	-84.688	0.068	0.021
-440.792	460.535	-0.115	-0.257
-439.778	-82.352	0.147	0.048
-438.763	351.977	-0.155	0.307
-437.749	-91.569	-0.123	-0.035
-436.734	-89.878	0.114	-0.033
-435.719	-108.587	0.190	0.041
-434.705	38.459	0.193	-0.172
-433.690	-76.967	0.169	-0.059
-432.676	60.230	-0.244	-0.241
-431.661	319.357	0.116	0.219
-430.646	-132.138	-0.351	0.045
-429.632	800.000	0.151	0.426
-428.617	-200.000	-0.002	0.071
-427.603	-22.924	0.311	0.187
-426.588	23.576	0.130	0.107
-425.573	-54.653	0.124	0.056
-424.559	-200.000	0.022	-0.107
-423.544	89.954	0.031	-0.035
-422.530	494.860	0.109	0.250
-421.515	-136.249	0.164	0.019
-420.500	-200.000	-0.048	0.296
-419.486	-101.654	-0.223	0.054
-418.471	-64.940	0.125	-0.050
-417.457	-142.925	-0.104	-0.010
-416.442	-200.000	0.037	0.175
-415.428	96.762	-0.078	0.089
-414.413	88.406	-0.099	-0.110
-413.398	800.000	0.033	-0.092
-412.384	297.107	0.043	0.079
-411.369	29.194	-0.197	-0.167
-410.355	-15.051	-0.270	-0.172
-409.340	-82.010	-0.179	0.058
-408.325	-38.999	-0.062	0.033
-407.311	-200.000	-0.028	0.220
-406.296	-47.243	0.140	0.068
-405.282	706.353	0.068	0.178
-404.267	-200.000	-0.037	0.227
-403.252	-177.173	-0.267	-0.007
-402.238	-18.926	-0.169	0.105
-401.223	252.861	-0.095	-0.161
-400.209	161.003	-0.238	-0.331
-399.194	-66.903	0.286	-0.113
-398.179	2.637	-0.231	0.167
-397.165	-140.150	0.302	0.032
-396.150	145.466	0.173	0.231
-395.136	269.543	-0.191	0.334
-394.121	47.505	-0.100	-0.093
-393.106	503.617	-0.060	-0.139
-392.092	-28.013	-0.132	-0.076
-391.077	1.369	-0.269	-0.192
-390.063	-142.556	0.488	-0.048
-389.048	171.277	0.300	0.429
-388.033	800.000	-0.065	0.187
-387.019	29.817	-0.222	0.188
-386.004	800.000	-0.010	0.028
-384.990	-174.644	0.354	0.010
-383.975	800.000	-0.141	0.445
-382.960	-200.000	-0.034	-0.240
-381.946	-34.300	-0.073	0.040
-380.931	-0.021	0.103	0.073
-379.917	-59.726	-0.277	0.118
-378.902	31.093	0.344	0.294
-377.888	-159.778	0.301	-0.016
-376.873	-99.879	0.268	0.067
-375.858	-31.210	-0.172	-0.096
-374.844	800.000	0.035	0.098
-373.829	800.000	-0.113	0.347
-372.815	286.665	0.107	0.192
-371.800	800.000	-0.018	0.055
-370.785	126.292	-0.051	0.064
-369.771	-47.419	-0.080	0.039
-368.756	199.529	0.068	-0.103
-367.742	-200.000	0.002	0.140
-366.727	-117.298	-0.194	0.035
-365.712	-135.490	0.073	-0.009
-364.698	76.085	-0.176	-0.185
-363.683	202.175	-0.105	0.161
-362.669	40.568	0.130	0.117
-361.654	55.520	-0.182	0.175
-360.639	477.126	0.011	0.024
-359.625	326.445	-0.033	-0.062
-358.610	-200.000	0.041	-0.301
-357.596	-3.009	0.190	-0.132
-356.581	-200.000	0.033	0.211
-355.566	247.019	-0.059	-0.098
-354.552	800.000	-0.061	-0.211
-353.537	-138.646	0.739	0.081
-352.523	317.080	0.055	0.104
-351.508	-51.506	-0.182	-0.084
-350.493	258.661	0.155	-0.265
-349.479	538.270	-0.026	-0.062
-348.464	-150.925	0.214	0.016
-347.450	-52.179	0.144	0.066
-346.435	-43.583	-0.327	0.164
-345.420	40.536	0.072	0.064
-344.406	-79.099	-0.277	0.094
-343.391	-200.000	0.045	-0.344
-342.377	436.834	-0.146	0.316
-341.362	-81.638	0.067	0.022
-340.348	452.964	-0.102	0.225
-339.333	-57.633	0.144	-0.063
-338.318	800.000	-0.049	0.183
-337.304	235.267	-0.154	0.252
-336.289	57.551	-0.030	0.029
-335.275	-121.889	0.095	-0.016
-334.260	-181.184	-0.394	0.008
-333.245	-156.304	0.124	0.008
-332.231	154.918	-0.143	0.195
-331.216	-2.354	0.430	-0.300
-330.202	-131.068	0.379	-0.050
-329.187	-200.000	-0.066	-0.433
-328.172	162.010	0.143	0.199
-327.158	-90.821	-0.134	-0.038
-326.143	-168.734	0.240	-0.009
-325.129	-156.367	0.402	-0.025
-324.114	-86.941	-0.138	0.042
-323.099	-200.000	-0.029	0.214
-322.085	-200.000	-0.052	-0.341
-321.070	48.098	0.237	0.220
-320.056	-200.000	0.019	-0.090
-319.041	800.000	-0.058	-0.165
-318.026	37.924	0.144	-0.127
-317.012	188.067	-0.042	0.063
-315.997	2.069	0.273	-0.196
-314.983	78.556	0.177	0.187
-313.968	65.731	0.045	0.045
-312.953	800.000	0.099	-0.283
-311.939	52.536	0.134	0.127
-310.924	-192.923	-0.149	0.001
-309.910	-134.906	0.237	-0.028
-308.895	437.409	0.207	0.447
-307.880	132.524	-0.179	-0.229
-306.866	107.911	0.333	-0.393
-305.851	-123.508	-0.147	-0.023
-304.837	-16.157	0.036	-0.022
-303.822	-12.616	0.129	-0.083
-302.807	58.933	-0.302	0.295
-301.793	280.293	0.185	0.328
-300.778	3.322	0.189	0.136
-299.764	-200.000	0.024	-0.120
-298.749	49.539	-0.071	-0.066
-297.735	-200.000	-0.058	0.384
-296.720	-147.833	-0.034	-0.003
-295.705	421.209	-0.098	0.208
-294.691	-55.043	0.296	0.132
-293.676	-116.527	-0.098	0.018
-292.662	6.868	0.303	-0.224
-291.647	25.731	-0.126	-0.104
-290.632	468.069	-0.132	-0.293
-289.618	-128.157	-0.316	0.045
-288.603	-41.700	0.069	-0.035
-287.589	58.061	-0.175	0.170
-286.574	-52.133	-0.154	-0.071
-285.559	-54.702	-0.224	-0.100
-284.545	-200.000	-0.010	0.401
-283.530	-65.202	-0.240	-0.096
-282.516	-200.000	0.039	-0.216
-281.501	128.387	0.163	-0.206
-280.486	177.018	0.145	-0.210
-279.472	-132.687	-0.314	0.040
-278.457	298.731	0.075	0.137
-277.443	-100.280	-0.267	0.066
-276.428	-64.380	0.147	0.059
-275.413	-63.758	-0.277	-0.112
-274.399	-79.060	-0.206	-0.069
-273.384	-200.000	0.011	0.136
-272.370	-97.326	-0.178	-0.046
-271.355	-200.000	-0.020	0.111
-270.340	540.313	-0.091	0.215
-269.326	-49.791	-0.194	-0.091
-268.311	-6.297	0.208	-0.141
-267.297	230.459	0.011	-0.018
-266.282	800.000	-0.129	-0.447
-265.267	-37.803	0.291	0.153
-264.253	359.733	-0.180	-0.356
-263.238	-88.190	-0.194	0.058
-262.224	357.048	-0.119	0.235
-261.209	760.097	0.117	-0.315
-260.195	-200.000	-0.026	0.142
-259.180	-114.520	-0.157	-0.030
-258.165	640.987	-0.039	-0.099
-257.151	111.787	0.110	0.131
-256.136	37.210	-0.248	-0.218
-255.122	-59.582	-0.155	0.066
-254.107	-69.364	-0.245	0.093
-253.092	-134.844	0.185	-0.022
-252.078	106.296	0.201	0.236
-251.063	486.075	0.052	-0.117
-250.049	-131.015	-0.338	-0.045
-249.034	-200.000	0.034	0.307
-248.019	64.520	0.320	-0.320
-247.005	116.091	0.147	-0.178
-245.990	-155.940	0.097	0.006
-244.976	-142.758	0.104	-0.010
-243.961	271.629	0.105	0.183
-242.946	800.000	-0.080	0.340
-241.932	-12.360	-0.185	-0.120
-240.917	111.480	0.160	0.191
-239.903	157.885	-0.258	0.354
-238.888	-21.257	-0.086	0.052
-237.873	-30.431	-0.141	-0.079
-236.859	-200.000	0.002	0.160
-235.844	538.281	0.014	0.033
-234.830	130.907	-0.182	0.231
-233.815	20.191	0.240	0.192
-232.800	800.000	0.038	-0.111
-231.786	144.024	-0.025	-0.033
-230.771	248.293	0.182	-0.305
-229.757	360.181	-0.150	-0.298
-228.742	-38.102	0.115	-0.060
-227.727	136.207	0.168	0.217
-226.713	284.850	-0.061	0.108
-225.698	-125.538	0.335	-0.050
-224.684	330.215	-0.028	0.054
-223.669	800.000	0.037	0.144
-222.655	-137.794	0.262	0.029
-221.640	-200.000	-0.018	0.166
-220.625	1.629	-0.118	0.084
-219.611	-70.580	-0.189	-0.071
-218.596	31.971	-0.139	-0.119
-217.582	328.386	0.060	0.115
-216.567	94.657	0.120	-0.134
-215.552	-200.000	0.002	-0.125
-214.538	112.922	0.167	0.200
-213.523	57.795	0.451	0.437
-212.509	46.377	-0.201	-0.184
-211.494	287.270	-0.063	-0.112
-210.479	-100.435	0.131	0.032
-209.465	-160.805	-0.367	-0.019
-208.450	-100.874	0.460	0.112
-207.436	44.754	-0.106	0.096
-206.421	226.946	0.046	-0.074
-205.406	54.200	0.160	0.152
-204.392	-200.000	-0.018	0.128
-203.377	-83.354	0.199	-0.063
-202.363	0.351	0.439	-0.310
-201.348	55.273	0.079	0.075
-200.333	-33.123	0.239	0.131
-199.319	-111.685	-0.390	-0.078
-198.304	184.255	-0.104	0.152
-197.290	800.000	0.083	0.315
-196.275	-31.504	0.296	-0.164
-195.260	-198.945	0.137	0.001
-194.246	146.302	-0.115	-0.153
-193.231	-153.257	0.170	0.012
-192.217	-7.380	-0.173	0.116
-191.202	492.900	0.071	0.161
-190.187	-73.751	0.106	0.038
-189.173	-63.340	-0.094	0.038
-188.158	-200.000	0.008	0.209
-187.144	-155.639	0.288	0.018
-186.129	-200.000	0.002	0.480
-185.114	-200.000	0.020	0.196
-184.100	-200.000	0.078	-0.458
-183.085	-78.975	-0.122	-0.041
-182.071	-12.623	-0.246	-0.159
-181.056	-200.000	0.015	0.190
-180.042	186.104	0.121	0.178
-179.027	-200.000	0.012	-0.104
-178.012	-33.169	-0.256	0.140
-176.998	-200.000	-0.006	-0.350
-175.983	204.110	0.096	-0.148
-174.969	-66.273	-0.249	-0.098
-173.954	-200.000	0.025	-0.117
-172.939	327.019	0.157	0.297
-171.925	126.831	0.217	0.272
-170.910	-153.231	-0.170	0.012
-169.896	-63.361	0.248	-0.101
-168.881	597.142	-0.045	-0.111
-167.866	-25.167	-0.211	-0.124
-166.852	800.000	0.029	-0.116
-165.837	-11.452	0.104	-0.067
-164.823	-200.000	0.038	-0.228
-163.808	-64.193	-0.042	0.017
-162.793	-120.245	0.384	-0.065
-161.779	221.476	-0.118	0.187
-160.764	-200.000	0.008	-0.185
-159.750	104.946	-0.133	0.155
-158.735	-74.068	0.249	-0.089
-157.720	-200.000	0.034	-0.462
-156.706	-200.000	-0.052	-0.255
-155.691	132.486	0.158	-0.201
-154.677	-200.000	0.013	-0.072
-153.662	448.732	-0.064	0.139
-152.647	-141.252	0.081	0.008
-151.633	104.965	-0.127	-0.147
-150.618	87.664	-0.131	-0.143
-149.604	-137.678	-0.423	-0.047
-148.589	-147.489	-0.091	-0.008
-147.574	-105.665	-0.089	-0.020
-146.560	85.977	-0.137	0.149
-145.545	-43.564	-0.191	-0.095
-144.531	-98.812	0.243	-0.061
-143.516	302.383	-0.105	0.192
-142.502	66.527	0.148	0.149
-141.487	263.182	-0.100	0.172
-140.472	-200.000	0.025	0.326
-139.458	-27.070	-0.093	-0.053
-138.443	-113.622	0.046	-0.009
-137.429	-200.000	-0.019	-0.227
-136.414	-200.000	-0.032	-0.265
-135.399	-200.000	0.016	0.339
-134.385	120.737	-0.242	0.296
-133.370	303.085	-0.099	0.181
-132.356	48.291	0.047	-0.043
-131.341	-37.198	-0.069	0.037
-130.326	-56.181	-0.088	0.038
-129.312	-174.457	0.459	0.013
-128.297	-48.490	0.175	0.083
-127.283	-44.713	0.127	0.062
-126.268	-79.325	0.055	0.018
-125.253	800.000	0.100	0.308
-124.239	-79.313	-0.188	-0.063
-123.224	18.590	0.268	0.211
-122.210	-200.000	-0.016	0.148
-121.195	-200.000	-0.003	0.144
-120.180	-200.000	0.005	-0.057
-119.166	-200.000	-0.231	-0.000
-118.151	-77.771	0.295	-0.100
-117.137	-200.000	-0.034	0.270
-116.122	-200.000	-0.032	0.203
-115.107	-156.660	0.162	-0.010
-114.093	125.518	-0.098	0.122
-113.078	-200.000	0.010	0.327
-112.064	77.744	0.219	0.230
-111.049	-57.451	-0.196	-0.085
-110.034	-200.000	0.033	0.234
-109.020	-200.000	-0.071	0.346
-108.005	20.919	-0.146	0.117
-106.991	800.000	0.042	0.159
-105.976	12.207	-0.137	-0.104
-104.962	-69.328	0.281	0.106
-103.947	377.007	-0.163	0.329
-102.932	92.041	-0.244	0.270
-101.918	-22.280	-0.195	-0.117
-100.903	354.860	-0.046	-0.089
-99.889	-200.000	0.004	-0.058
-98.874	-200.000	0.032	-0.165
-97.859	-200.000	-0.017	0.214
-96.845	-16.069	0.197	0.123
-95.830	800.000	-0.085	0.288
-94.816	613.462	0.104	0.256
-93.801	-10.511	0.124	-0.081
-92.786	-107.351	-0.113	-0.024
-91.772	-200.000	-0.027	-0.203
-90.757	800.000	0.183	-0.580
-89.743	-200.000	-0.006	0.258
-88.728	-46.077	-0.047	0.023
-87.713	-108.177	-0.121	-0.026
-86.699	188.151	-0.113	0.166
-85.684	27.218	-0.209	-0.173
-84.670	79.368	0.065	-0.068
-83.655	116.319	-0.268	0.323
-82.640	195.682	0.047	-0.070
-81.626	364.564	-0.029	0.057
-80.611	25.318	0.127	0.104
-79.597	-143.986	0.488	0.045
-78.582	252.776	-0.096	-0.162
-77.567	-164.835	-0.236	-0.010
-76.553	800.000	-0.040	0.166
-75.538	-30.093	0.489	0.274
-74.524	174.247	0.226	0.321
-73.509	800.000	-0.069	0.205
-72.494	-61.206	-0.185	-0.077
-71.480	136.306	0.203	0.260
-70.465	21.201	0.235	0.188
-69.451	-17.156	0.146	0.090
-68.436	-200.000	-0.022	0.264
-67.422	18.061	-0.237	0.186
-66.407	-102.685	-0.128	0.030
-65.392	-200.000	0.032	0.196
-64.378	130.918	0.102	0.129
-63.363	53.053	-0.119	-0.112
-62.349	-97.093	0.287	-0.074
-61.334	19.951	-0.903	-0.715
-60.319	-7.929	0.251	0.166
-59.305	800.000	-0.208	-0.789
-58.290	384.903	0.628	1.273
-57.276	800.000	0.464	1.888
-56.261	-200.000	95.540	592.093
-55.246	663.171	1366.472	3463.139
-54.232	199.679	2548.287	3841.345
-53.217	114.066	2266.964	2709.510
-52.203	41.636	1896.509	1687.819
-51.188	35.478	1685.993	1453.946
-50.173	32.761	1642.310	1396.143
-49.159	50.089	1688.115	1565.393
-48.144	51.741	1704.371	1592.792
-47.130	35.022	1665.837	1432.928
-46.115	32.234	1651.826	1400.084
-45.100	32.092	1646.644	1394.583
-44.086	32.060	1644.293	1392.299
-43.071	32.020	1641.604	1389.666
-42.057	31.984	1639.139	1387.259
-41.042	32.007	1637.162	1385.705
-40.027	32.081	1635.150	1384.494
-39.013	32.010	1633.119	1382.191
-37.998	31.962	1631.989	1380.826
-36.984	32.030	1630.795	1380.266
-35.969	32.166	1628.997	1379.684
-34.954	32.177	1627.316	1378.291
-33.940	32.046	1625.776	1375.967
-32.925	32.118	1623.845	1374.805
-31.911	32.148	1622.335	1373.696
-30.896	32.044	1620.693	1371.488
-29.881	32.057	1618.993	1370.088
-28.867	32.118	1617.160	1368.927
-27.852	32.135	1615.375	1367.487
-26.838	32.075	1614.321	1366.101
-25.823	32.138	1612.545	1365.004
-24.809	32.096	1611.429	1363.700
-23.794	32.125	1610.016	1362.661
-22.779	32.182	1608.546	1361.774
-21.765	32.102	1607.428	1360.196
-20.750	32.092	1605.133	1358.129
-19.736	32.248	1603.748	1358.027
-18.721	32.148	1602.615	1356.294
-17.706	32.088	1601.431	1354.806
-16.692	32.192	1599.395	1353.780
-15.677	32.116	1598.083	1352.071
-14.663	32.204	1596.544	1351.349
-13.648	32.211	1595.332	1350.316
-12.633	32.160	1593.858	1348.646
-11.619	32.226	1592.261	1347.716
-10.604	32.227	1590.748	1346.389
-9.590	32.111	1589.728	1344.645
-8.575	32.159	1588.477	1343.877
-7.560	32.184	1587.337	1343.036
-6.546	32.232	1585.950	1342.151
-5.531	32.182	1585.077	1341.005
-4.517	32.120	1583.331	1339.031
-3.502	32.131	1582.375	1338.250
-2.487	32.205	1580.475	1337.117
-1.473	31.941	1569.127	1325.594
-0.458	29.170	1550.019	1290.027
0.556	25.218	1550.204	1259.356
1.571	22.812	1573.264	1260.814
2.586	22.370	1586.010	1267.733
3.600	19.805	1532.948	1207.333
4.615	12.012	1425.260	1071.649
5.629	5.536	1363.198	984.274
6.644	4.647	1355.573	973.123
7.659	4.558	1354.084	971.411
8.673	4.520	1353.152	970.416
9.688	4.565	1351.486	969.419
10.702	4.413	1348.747	966.421
11.717	7.305	1354.691	988.656
12.731	14.665	1367.694	1044.252
13.746	19.280	1374.021	1077.921
14.761	18.903	1372.783	1074.500
15.775	17.928	1370.325	1066.392
16.790	16.866	1367.427	1057.425
17.804	15.993	1364.917	1049.952
18.819	15.779	1363.041	1047.083
19.834	15.434	1362.363	1044.324
20.848	15.202	1361.260	1041.940
21.863	14.998	1359.736	1039.416
22.877	14.914	1358.530	1037.881
23.892	14.856	1357.802	1036.875
24.907	14.790	1356.974	1035.743
25.921	14.785	1356.146	1034.984
26.936	14.903	1355.393	1035.051
27.950	14.861	1354.411	1033.951
28.965	14.944	1353.608	1033.755
29.980	15.078	1352.260	1033.460
30.994	15.184	1351.147	1033.175
32.009	15.182	1350.302	1032.427
33.023	15.188	1348.771	1031.202
34.038	15.092	1347.256	1029.363
35.053	15.029	1346.065	1027.970
36.067	15.034	1345.109	1027.185
37.082	15.012	1344.271	1026.314
38.096	15.093	1343.343	1026.012
39.111	15.024	1342.966	1025.211
40.126	14.887	1341.791	1023.383
41.140	14.820	1340.606	1021.984
42.155	14.765	1340.468	1021.449
43.169	14.732	1340.436	1021.133
44.184	14.740	1339.668	1020.505
45.199	14.746	1339.379	1020.233
46.213	14.822	1338.779	1020.149
47.228	14.922	1337.720	1019.864
48.242	14.982	1336.517	1019.220
49.257	14.906	1335.573	1017.945
50.271	14.919	1333.591	1016.423
51.286	14.941	1332.463	1015.608
52.301	14.878	1331.327	1014.272
53.315	14.905	1330.252	1013.528
54.330	14.903	1328.768	1012.294
55.344	14.783	1327.900	1010.817
56.359	14.787	1326.637	1009.793
57.374	14.778	1325.982	1009.147
58.388	14.791	1324.952	1008.352
59.403	14.736	1324.419	1007.525
60.417	14.690	1323.459	1006.429
61.432	14.604	1323.149	1005.589
62.447	14.630	1321.686	1004.545
63.461	14.540	1320.649	1003.128
64.476	14.495	1319.858	1002.164
65.490	14.495	1318.765	1001.245
66.505	14.584	1317.332	1000.604
67.520	14.623	1315.656	999.475
68.534	14.614	1314.956	998.804
69.549	14.550	1314.083	997.666
70.563	14.570	1312.828	996.747
71.578	14.483	1311.833	995.382
72.593	14.479	1311.108	994.721
73.607	14.487	1309.693	993.608
74.622	14.482	1309.328	993.214
75.636	14.658	1307.670	992.911
76.651	14.497	1307.796	991.961
77.666	14.562	1307.070	991.710
78.680	14.519	1306.975	991.296
79.695	14.619	1306.292	991.282
80.709	14.627	1305.193	990.411
81.724	14.665	1304.496	990.017
82.739	14.733	1303.763	989.776
83.753	14.829	1302.646	989.410
84.768	14.962	1301.700	989.393
85.782	15.050	1300.834	989.163
86.797	15.016	1299.516	987.875
87.812	14.775	1298.852	985.859
88.826	14.946	1297.035	985.402
89.841	14.929	1296.187	984.569
90.855	14.920	1295.356	983.800
91.870	14.853	1294.792	982.890
92.884	15.019	1293.525	982.816
93.899	14.973	1293.095	982.134
94.914	15.031	1292.068	981.603
95.928	15.088	1291.332	981.295
96.943	14.968	1290.321	979.738
97.957	14.975	1289.601	979.143
98.972	15.058	1287.890	978.241
99.987	15.054	1287.217	977.625
101.001	15.068	1286.158	976.814
102.016	14.967	1285.655	975.754
103.030	15.030	1284.381	975.071
104.045	14.987	1283.532	974.086
105.060	14.884	1282.256	972.436
106.074	14.878	1280.637	971.083
107.089	14.723	1279.566	969.289
108.103	14.719	1278.646	968.480
109.118	14.740	1276.549	966.933
110.133	14.641	1276.040	965.888
111.147	14.706	1274.386	964.924
112.162	14.683	1272.906	963.583
113.176	14.736	1272.374	963.402
114.191	14.765	1271.336	962.701
115.206	14.724	1269.700	961.139
116.220	14.736	1268.489	960.207
117.235	14.696	1267.906	959.449
118.249	14.745	1266.496	958.580
119.264	14.586	1265.234	956.631
120.279	14.678	1264.273	956.342
121.293	14.517	1263.642	954.858
122.308	14.709	1261.911	954.565
123.322	14.713	1260.870	953.718
124.337	14.589	1260.127	952.361
125.352	14.613	1259.114	951.650
126.366	14.534	1258.266	950.475
127.381	14.612	1257.579	950.317
128.395	14.625	1256.560	949.538
129.410	14.683	1255.392	948.899
130.424	14.784	1254.270	948.540
131.439	14.679	1253.949	947.617
132.454	14.731	1252.436	946.684
133.468	14.899	1251.468	946.824
134.483	14.875	1250.767	946.070
135.497	14.821	1250.036	945.128
136.512	14.830	1248.685	944.076
137.527	14.773	1247.482	942.761
138.541	14.767	1246.027	941.544
139.556	14.919	1244.549	941.200
140.570	14.894	1243.914	940.493
141.585	15.032	1242.428	940.064
142.600	14.981	1241.579	939.054
143.614	15.054	1240.595	938.634
144.629	15.064	1239.528	937.799
145.643	14.970	1238.591	936.481
146.658	14.965	1237.096	935.238
147.673	14.840	1235.985	933.620
148.687	14.898	1234.524	932.758
149.702	14.897	1232.787	931.353
150.716	14.880	1231.935	930.534
151.731	14.849	1230.553	929.234
152.746	14.861	1229.652	928.542
153.760	14.951	1228.435	928.039
154.775	15.051	1227.486	927.795
155.789	14.984	1226.833	926.845
156.804	15.154	1225.196	926.470
157.819	15.000	1224.856	925.277
158.833	15.192	1223.778	925.443
159.848	15.104	1223.264	924.484
160.862	15.099	1222.104	923.499
161.877	15.087	1220.721	922.306
162.892	14.928	1220.008	920.811
163.906	14.977	1219.100	920.314
164.921	15.084	1217.991	919.983
165.935	14.979	1217.547	918.991
166.950	15.102	1216.797	919.016
167.964	15.071	1215.930	918.110
168.979	15.088	1215.097	917.494
169.994	15.097	1214.241	916.819
171.008	15.124	1213.604	916.402
172.023	15.133	1213.082	915.979
173.037	15.155	1212.295	915.421
174.052	15.328	1211.136	915.411
175.067	15.217	1209.889	913.783
176.081	15.140	1209.002	912.610
177.096	14.998	1208.384	911.289
178.110	15.195	1206.494	910.858
179.125	15.037	1205.987	909.534
180.140	15.131	1204.650	908.954
181.154	15.100	1203.482	907.827
182.169	15.199	1202.610	907.625
183.183	15.266	1201.313	906.926
184.198	15.269	1200.292	906.094
185.213	15.286	1199.011	905.138
186.227	15.346	1197.809	904.474
187.242	15.359	1197.129	903.947
188.256	15.543	1195.891	903.922
189.271	15.490	1194.757	902.700
190.286	15.289	1193.904	900.899
191.300	15.212	1192.456	899.312
192.315	15.070	1192.010	898.135
193.329	15.004	1191.982	897.681
194.344	15.059	1191.434	897.480
195.359	15.207	1190.863	897.766
196.373	15.296	1189.970	897.488
197.388	15.308	1190.225	897.669
198.402	15.542	1189.411	898.227
199.417	15.552	1188.471	897.491
200.432	15.587	1187.668	896.993
201.446	15.686	1187.288	897.154
202.461	15.765	1185.966	896.496
203.475	15.731	1184.998	895.502
204.490	15.549	1183.748	893.512
205.504	15.455	1182.936	892.320
206.519	15.488	1181.342	891.213
207.534	15.515	1180.379	890.550
208.548	15.532	1179.271	889.726
209.563	15.544	1178.451	889.091
210.577	15.546	1177.496	888.303
211.592	15.575	1176.946	887.965
212.607	15.707	1175.882	887.782
213.621	15.654	1175.425	887.074
214.636	15.756	1174.146	886.573
215.650	15.729	1173.630	885.961
216.665	15.775	1172.481	885.259
217.680	15.814	1171.487	884.632
218.694	15.830	1170.781	884.105
219.709	15.785	1170.243	883.382
220.723	15.701	1169.655	882.420
221.738	15.763	1168.885	882.087
222.753	15.853	1167.716	881.601
223.767	15.788	1167.410	880.951
224.782	15.928	1167.022	881.313
225.796	15.943	1166.446	880.876
226.811	16.093	1165.119	880.583
227.826	15.951	1164.816	879.535
228.840	15.879	1163.746	878.269
229.855	15.761	1163.532	877.414
230.869	15.866	1162.730	877.279
231.884	15.881	1161.572	876.409
232.899	15.840	1160.702	875.463
233.913	15.753	1159.959	874.370
234.928	15.769	1159.104	873.729
235.942	15.754	1158.480	873.105
236.957	15.916	1157.414	873.067
237.972	15.866	1156.780	872.248
238.986	15.944	1156.110	872.070
240.001	15.821	1155.746	871.085
241.015	15.838	1154.716	870.319
242.030	15.810	1154.027	869.576
243.045	15.947	1153.330	869.685
244.059	16.031	1152.579	869.472
245.074	16.016	1151.402	868.429
246.088	16.127	1150.612	868.332
247.103	16.037	1150.488	867.696
248.117	16.123	1149.654	867.432
249.132	16.170	1148.981	867.087
250.147	16.265	1148.210	866.917
251.161	16.378	1147.293	866.730
252.176	16.400	1146.979	866.527
253.190	16.541	1145.968	866.409
254.205	16.517	1145.747	866.043
255.220	16.591	1145.216	865.945
256.234	16.498	1144.629	864.948
257.249	16.524	1143.703	864.307
258.263	16.492	1142.979	863.520
259.278	16.403	1142.514	862.637
260.293	16.549	1141.586	862.604
261.307	16.560	1141.465	862.493
262.322	16.639	1140.566	862.137
263.336	16.650	1139.508	861.320
264.351	16.656	1139.172	861.019
265.366	16.699	1138.495	860.647
266.380	16.600	1137.950	859.657
267.395	16.665	1136.846	859.080
268.409	16.613	1136.077	858.155
269.424	16.543	1135.527	857.311
270.439	16.469	1135.420	856.780
271.453	16.642	1134.342	856.765
272.468	16.523	1133.410	855.386
273.482	16.553	1132.831	855.024
274.497	16.717	1132.023	855.166
275.512	16.639	1131.358	854.195
276.526	16.671	1130.574	853.688
277.541	16.573	1130.407	852.991
278.555	16.681	1129.434	852.729
279.570	16.773	1128.686	852.552
280.585	16.875	1127.705	852.245
281.599	16.894	1126.737	851.533
282.614	16.728	1126.120	850.162
283.628	16.688	1125.194	849.185
284.643	16.644	1124.034	848.014
285.657	16.778	1123.430	848.155
286.672	16.715	1122.485	847.051
287.687	16.739	1121.652	846.469
288.701	16.766	1121.159	846.153
289.716	16.868	1119.813	845.570
290.730	16.880	1119.143	845.054
291.745	16.883	1118.424	844.447
292.760	16.892	1117.807	843.954
293.774	16.965	1117.221	843.797
294.789	16.965	1117.198	843.706
295.803	16.958	1115.969	842.669
296.818	16.984	1115.295	842.215
297.833	16.835	1114.574	840.856
298.847	16.907	1113.744	840.513
299.862	16.952	1113.012	840.112
300.876	16.866	1112.578	839.284
301.891	17.127	1111.691	839.830
302.906	17.048	1111.161	838.962
303.920	17.117	1110.417	838.669
304.935	17.211	1109.941	838.702
305.949	17.227	1109.476	838.353
306.964	17.212	1108.930	837.793
307.979	17.245	1107.684	836.941
308.993	17.235	1106.846	836.185
310.008	17.324	1106.084	835.971
311.022	17.361	1105.292	835.477
312.037	17.224	1105.069	834.562
313.052	17.190	1104.060	833.561
314.066	17.172	1102.886	832.516
315.081	17.040	1102.002	831.126
316.095	17.112	1101.019	830.664
317.110	17.172	1100.446	830.451
318.125	17.060	1100.177	829.626
319.139	17.130	1099.491	829.381
320.154	17.098	1098.813	828.639
321.168	16.988	1098.345	827.674
322.183	17.303	1097.159	828.244
323.197	17.123	1097.056	827.215
324.212	17.234	1096.630	827.360
325.227	17.207	1095.751	826.495
326.241	17.215	1094.736	825.692
327.256	17.190	1094.593	825.393
328.270	17.186	1093.241	824.280
329.285	17.128	1092.197	823.136
330.300	17.197	1091.469	822.851
331.314	17.268	1090.416	822.326
332.329	17.261	1089.437	821.484
333.343	17.332	1088.480	821.033
334.358	17.279	1088.114	820.425
335.373	17.345	1087.173	819.964
336.387	17.396	1086.520	819.645
337.402	17.452	1085.908	819.377
338.416	17.565	1085.312	819.398
339.431	17.483	1084.965	818.670
340.446	17.588	1084.372	818.658
341.460	17.657	1083.395	818.175
342.475	17.687	1082.627	817.671
343.489	17.657	1081.805	816.833
344.504	17.736	1081.040	816.562
345.519	17.806	1079.622	815.751
346.533	17.861	1079.039	815.500
347.548	17.755	1078.715	814.679
348.562	17.869	1077.809	814.468
349.577	17.755	1076.657	812.981
350.592	17.570	1076.245	811.717
351.606	17.608	1075.739	811.445
352.621	17.619	1074.754	810.680
353.635	17.556	1074.245	809.927
354.650	17.673	1073.176	809.606
355.665	17.704	1072.217	808.953
356.679	17.603	1072.288	808.459
357.694	17.768	1071.383	808.485
358.708	17.817	1071.223	808.529
359.723	17.766	1070.544	807.702
360.738	17.768	1069.503	806.853
361.752	17.817	1069.149	806.748
362.767	17.762	1068.702	806.078
363.781	17.784	1068.572	806.013
364.796	17.963	1067.489	805.968
365.810	17.916	1066.936	805.260
366.825	17.989	1066.463	805.173
367.840	18.101	1065.948	805.241
368.854	18.176	1065.226	804.977
369.869	18.200	1064.623	804.562
370.883	18.070	1063.660	803.157
371.898	18.034	1062.942	802.370
372.913	18.175	1061.939	802.203
373.927	17.972	1062.180	801.363
374.942	18.135	1061.435	801.495
375.956	18.184	1060.765	801.150
376.971	18.099	1060.410	800.412
377.986	18.243	1059.854	800.595
379.000	18.176	1059.504	799.948
380.015	18.355	1058.869	800.233
381.029	18.377	1058.094	799.678
382.044	18.274	1056.884	798.214
383.059	18.220	1056.670	797.729
384.073	18.339	1055.795	797.553
385.088	18.424	1054.636	797.003
386.102	18.346	1054.085	796.152
387.117	18.278	1052.930	794.896
388.132	18.250	1051.960	793.961
389.146	18.265	1051.312	793.471
390.161	18.199	1051.055	792.901
391.175	18.309	1049.864	792.441
392.190	18.328	1049.312	792.044
393.205	18.372	1048.906	791.871
394.219	18.363	1047.708	790.852
395.234	18.337	1046.746	789.938
396.248	18.312	1045.627	788.908
397.263	18.277	1044.380	787.735
398.278	18.286	1044.078	787.480
399.292	18.316	1042.905	786.662
400.307	18.137	1042.867	785.744
401.321	18.146	1042.142	785.168
402.336	18.261	1041.266	784.965
403.350	18.269	1040.797	784.579
404.365	18.301	1040.062	784.102
405.380	18.388	1039.282	783.846
406.394	18.358	1038.825	783.291
407.409	18.451	1037.798	782.875
408.423	18.558	1037.179	782.825
409.438	18.618	1036.654	782.636
410.453	18.679	1036.053	782.389
411.467	18.745	1035.387	782.117
412.482	18.649	1034.981	781.305
413.496	18.669	1034.234	780.764
414.511	18.871	1033.327	780.926
415.526	18.860	1033.170	780.688
416.540	18.806	1032.938	780.202
417.555	18.992	1032.268	780.470
418.569	18.863	1031.439	779.186
419.584	19.011	1030.508	779.086
420.599	18.852	1030.841	778.551
421.613	150.612	1400.477	1793.931
422.628	137.437	1454.321	1794.043
