DTS Sentinel unit serial number:	SN413079Multiplexer serial number:	ORYXHardware model number:	OX4-SRSoftware version number:	ORYX F/W v4.00 Oryx Data Collector v3.7.2.0data status	okinstallation	princeton_trtdifferential loss correction	single-endedforward channel	channel 2reverse channel	N/Adate	2019/09/18time	04:15:35forward acquisition time	60.00reverse acquisition time	0.00gamma	496.2192k internal	0.2348k external	0.2348temperature offset calibration	0.9983default loss term (dB/km)	0.3790temperature slope calibration	1.0000multiplexer offset coefficient	1.0000multiplexer slope coefficient	1.0000fibre end	0.00T internal ref (°C)	23.31T ext. ref 1 (°C)	0.18T ext. ref 2 (°C)	17.69length (m)	temperature (°C)	Stokes	anti-Stokes-747.200	-91.838	0.159	-0.045
-746.185	-200.000	-0.013	0.220
-745.171	-200.000	-0.073	0.411
-744.156	682.501	-0.108	0.281
-743.142	48.250	0.315	0.295
-742.127	0.443	-0.306	0.218
-741.112	104.969	0.159	-0.187
-740.098	2.781	-0.318	0.231
-739.083	184.413	0.079	0.117
-738.069	53.665	0.258	0.248
-737.054	800.000	-0.046	0.132
-736.039	-74.605	-0.205	-0.074
-735.025	800.000	0.085	0.323
-734.010	46.024	0.161	-0.149
-732.996	137.839	0.089	-0.117
-731.981	46.411	-0.155	0.143
-730.966	-100.937	-0.033	0.008
-729.952	451.529	-0.127	-0.281
-728.937	-200.000	0.043	0.199
-727.923	83.545	-0.169	0.184
-726.908	189.953	-0.163	-0.245
-725.894	401.462	-0.190	-0.399
-724.879	-200.000	0.008	-0.187
-723.864	278.328	0.182	-0.323
-722.850	-74.370	0.457	-0.165
-721.835	-61.718	-0.154	-0.064
-720.821	180.739	-0.140	-0.205
-719.806	-144.310	-0.331	0.031
-718.791	800.000	0.045	-0.173
-717.777	-9.243	0.265	-0.177
-716.762	-81.510	-0.148	0.049
-715.748	-133.694	-0.294	-0.037
-714.733	-19.657	0.199	-0.123
-713.718	-200.000	0.002	-0.233
-712.704	519.557	-0.064	0.150
-711.689	800.000	0.011	-0.030
-710.675	-97.775	-0.281	0.072
-709.660	-98.974	-0.244	-0.062
-708.645	342.771	0.021	-0.041
-707.631	800.000	-0.069	0.287
-706.616	-51.936	0.137	0.064
-705.602	-44.807	0.274	0.137
-704.587	539.241	0.120	0.285
-703.572	800.000	0.040	0.136
-702.558	230.612	-0.114	-0.186
-701.543	-200.000	0.044	-0.206
-700.529	-108.918	0.211	-0.045
-699.514	-200.000	0.014	-0.074
-698.499	518.737	0.040	-0.094
-697.485	800.000	0.055	-0.222
-696.470	-200.000	0.084	-0.369
-695.456	-200.000	0.005	-0.369
-694.441	-34.674	0.164	0.089
-693.426	252.264	-0.068	0.116
-692.412	-38.077	0.137	-0.072
-691.397	-62.101	0.221	0.092
-690.383	33.196	-0.127	-0.109
-689.368	78.658	-0.013	0.014
-688.354	431.853	-0.060	0.129
-687.339	313.479	-0.105	0.197
-686.324	434.223	-0.124	-0.269
-685.310	87.184	-0.200	-0.220
-684.295	184.819	0.096	0.142
-683.281	-200.000	-0.009	-0.121
-682.266	800.000	-0.072	-0.287
-681.251	42.492	-0.116	0.105
-680.237	-22.568	0.239	-0.144
-679.222	-85.921	-0.408	-0.126
-678.208	-104.163	0.237	0.055
-677.193	-40.330	0.088	-0.045
-676.178	-84.421	-0.108	0.034
-675.164	341.356	-0.084	-0.165
-674.149	33.992	0.162	-0.140
-673.135	-200.000	0.000	-0.045
-672.120	-200.000	0.101	0.535
-671.105	800.000	0.011	-0.033
-670.091	141.492	-0.212	-0.279
-669.076	113.225	-0.219	0.265
-668.062	-80.255	-0.080	-0.027
-667.047	-200.000	-0.004	0.136
-666.032	-200.000	0.015	-0.180
-665.018	30.580	-0.117	-0.099
-664.003	188.710	-0.094	0.140
-662.989	39.935	0.143	-0.128
-661.974	-12.870	-0.029	0.019
-660.959	738.211	0.111	-0.296
-659.945	154.790	-0.163	0.223
-658.930	6.303	0.146	0.108
-657.916	-60.338	0.236	-0.100
-656.901	-23.457	-0.347	-0.208
-655.886	497.904	-0.074	0.171
-654.872	147.419	0.226	0.302
-653.857	-200.000	0.031	-0.480
-652.843	-200.000	-0.024	0.141
-651.828	582.709	0.098	0.239
-650.814	-38.443	-0.330	0.174
-649.799	358.293	-0.065	0.130
-648.784	-125.633	-0.143	0.022
-647.770	800.000	-0.095	-0.278
-646.755	-200.000	-0.079	-0.401
-645.741	-72.804	-0.139	-0.051
-644.726	185.272	0.133	0.196
-643.711	249.525	0.155	0.262
-642.697	32.085	-0.041	0.035
-641.682	-200.000	0.038	-0.250
-640.668	-70.445	-0.198	0.075
-639.653	800.000	0.040	0.121
-638.638	-89.053	-0.182	-0.054
-637.624	165.790	-0.161	-0.227
-636.609	-200.000	0.021	0.105
-635.595	-200.000	-0.001	-0.221
-634.580	-135.085	-0.261	0.031
-633.565	158.781	-0.230	0.318
-632.551	232.856	-0.037	-0.060
-631.536	-200.000	-0.071	-0.611
-630.522	-200.000	0.003	-0.296
-629.507	-26.553	0.126	-0.073
-628.492	20.000	-0.312	0.251
-627.478	99.282	-0.155	-0.178
-626.463	-85.261	0.146	-0.045
-625.449	691.941	-0.045	-0.117
-624.434	36.645	-0.115	-0.101
-623.419	90.698	0.123	-0.137
-622.405	-5.844	0.090	-0.061
-621.390	-69.386	-0.161	0.061
-620.376	-200.000	0.007	0.160
-619.361	800.000	0.082	0.346
-618.346	-200.000	0.010	0.065
-617.332	-200.000	0.002	-0.062
-616.317	34.350	0.185	0.161
-615.303	127.892	-0.076	-0.096
-614.288	225.267	0.109	0.176
-613.273	-119.009	0.309	0.054
-612.259	-56.828	-0.128	0.056
-611.244	-200.000	0.008	-0.141
-610.230	-60.919	-0.395	0.166
-609.215	-133.779	0.357	-0.044
-608.201	-113.913	-0.024	0.005
-607.186	220.193	-0.273	0.434
-606.171	-113.724	0.261	0.051
-605.157	60.999	-0.116	0.114
-604.142	156.979	0.027	0.037
-603.128	800.000	-0.073	0.256
-602.113	413.755	0.147	-0.310
-601.098	-46.803	0.059	-0.029
-600.084	64.494	0.154	0.154
-599.069	800.000	0.066	0.198
-598.055	-59.482	-0.447	0.191
-597.040	-157.947	-0.055	0.003
-596.025	-200.000	-0.015	0.118
-595.011	800.000	-0.017	-0.057
-593.996	15.794	-0.246	-0.192
-592.982	-89.902	0.167	-0.049
-591.967	-107.913	-0.217	-0.047
-590.952	-102.200	0.368	0.088
-589.938	115.336	-0.125	-0.152
-588.923	-200.000	-0.037	0.336
-587.909	28.325	0.182	-0.153
-586.894	-200.000	0.006	0.093
-585.879	52.273	0.176	-0.167
-584.865	-200.000	0.032	-0.219
-583.850	-91.107	-0.047	-0.013
-582.836	146.266	0.080	-0.106
-581.821	-29.266	-0.249	-0.142
-580.806	800.000	0.048	0.182
-579.792	150.385	0.183	0.246
-578.777	-75.013	-0.189	-0.067
-577.763	-200.000	-0.009	-0.242
-576.748	-200.000	0.021	0.097
-575.733	800.000	0.033	-0.108
-574.719	463.202	-0.191	-0.423
-573.704	70.729	-0.069	-0.071
-572.690	-49.964	0.189	0.089
-571.675	-145.266	-0.252	0.023
-570.661	158.927	-0.184	-0.254
-569.646	628.271	-0.100	-0.251
-568.631	800.000	0.065	-0.187
-567.617	-146.360	0.019	-0.002
-566.602	328.724	0.040	0.075
-565.588	-59.575	0.435	-0.185
-564.573	-69.939	-0.130	-0.049
-563.558	53.523	0.190	-0.181
-562.544	685.929	-0.161	-0.416
-561.529	-200.000	0.039	-0.245
-560.515	-80.442	-0.172	0.057
-559.500	464.760	0.128	0.283
-558.485	-70.241	-0.245	0.092
-557.471	-41.646	0.198	-0.101
-556.456	-149.688	-0.338	0.026
-555.442	317.733	-0.156	0.293
-554.427	-40.855	-0.353	0.181
-553.412	55.474	0.136	0.130
-552.398	-200.000	0.009	-0.178
-551.383	-200.000	-0.019	0.169
-550.369	124.988	-0.038	0.048
-549.354	205.658	-0.200	-0.309
-548.339	710.746	0.051	0.135
-547.325	-109.100	-0.308	0.065
-546.310	-101.354	0.207	-0.050
-545.296	-88.819	-0.201	-0.059
-544.281	222.358	0.163	-0.260
-543.266	-123.683	-0.173	-0.027
-542.252	190.120	0.141	0.210
-541.237	107.349	-0.090	0.106
-540.223	14.193	0.219	0.169
-539.208	-200.000	-0.029	0.150
-538.193	369.820	-0.081	-0.162
-537.179	-17.300	0.093	-0.058
-536.164	175.900	-0.022	0.031
-535.150	41.045	-0.112	-0.100
-534.135	-178.862	0.104	0.002
-533.121	800.000	-0.088	-0.321
-532.106	657.768	-0.095	-0.242
-531.091	410.773	0.014	-0.030
-530.077	-198.326	0.211	-0.001
-529.062	83.556	-0.157	-0.169
-528.048	275.963	-0.127	0.224
-527.033	-200.000	0.010	0.148
-526.018	800.000	-0.032	0.111
-525.004	34.532	0.078	0.067
-523.989	-200.000	-0.043	0.275
-522.975	250.778	0.192	-0.323
-521.960	800.000	-0.018	-0.072
-520.945	445.923	-0.104	0.227
-519.931	163.974	-0.102	-0.142
-518.916	125.463	-0.145	-0.181
-517.902	687.784	-0.093	-0.242
-516.887	711.122	0.108	0.284
-515.872	-27.660	-0.065	0.038
-514.858	132.401	-0.084	-0.107
-513.843	-79.481	0.190	0.064
-512.829	-37.638	-0.277	-0.146
-511.814	266.114	0.158	0.274
-510.799	-200.000	0.078	-0.338
-509.785	-35.225	0.280	-0.151
-508.770	419.797	-0.087	0.184
-507.756	-4.582	0.226	-0.155
-506.741	-157.597	0.249	-0.015
-505.726	163.739	0.068	-0.094
-504.712	-156.018	-0.112	-0.007
-503.697	-66.396	0.149	-0.059
-502.683	-36.965	0.153	0.081
-501.668	153.621	-0.143	0.195
-500.653	800.000	0.042	-0.121
-499.639	52.035	-0.198	-0.187
-498.624	-200.000	0.087	0.400
-497.610	36.827	-0.027	0.024
-496.595	800.000	0.020	-0.073
-495.581	-200.000	-0.007	-0.241
-494.566	-200.000	0.040	-0.332
-493.551	-159.249	-0.310	-0.017
-492.537	800.000	-0.056	-0.195
-491.522	-117.101	0.663	-0.120
-490.508	450.565	0.132	-0.289
-489.493	66.169	0.121	0.121
-488.478	-200.000	-0.047	-0.261
-487.464	-200.000	-0.000	0.119
-486.449	116.672	0.086	-0.105
-485.435	264.873	-0.197	0.340
-484.420	-60.889	0.072	0.030
-483.405	508.266	0.082	0.188
-482.391	-75.446	-0.185	-0.065
-481.376	-21.182	0.165	0.100
-480.362	-38.144	-0.070	-0.037
-479.347	-200.000	-0.052	-0.379
-478.332	-60.109	0.437	-0.184
-477.318	-200.000	0.002	-0.195
-476.303	-18.098	-0.257	-0.159
-475.289	-54.369	-0.325	0.146
-474.274	-177.454	0.242	0.006
-473.259	-125.740	0.348	-0.052
-472.245	538.473	-0.154	-0.362
-471.230	-90.851	0.416	-0.119
-470.216	-75.849	0.327	-0.115
-469.201	-71.760	0.180	0.066
-468.186	-63.533	0.176	-0.072
-467.172	-126.783	0.176	-0.026
-466.157	-172.861	0.172	0.005
-465.143	70.173	-0.197	0.201
-464.128	800.000	-0.039	0.112
-463.113	-128.881	0.110	0.015
-462.099	87.879	0.153	0.168
-461.084	-200.000	-0.010	-0.091
-460.070	-2.258	-0.144	0.100
-459.055	-200.000	-0.081	-0.354
-458.040	-78.941	-0.206	-0.069
-457.026	-79.620	-0.116	0.039
-456.011	-200.000	0.001	0.219
-454.997	800.000	0.155	0.554
-453.982	429.473	0.049	0.105
-452.968	-94.502	-0.257	-0.069
-451.953	-11.651	-0.052	0.034
-450.938	-48.364	-0.245	-0.116
-449.924	-103.780	-0.233	0.054
-448.909	-28.961	0.333	0.189
-447.895	229.827	-0.121	-0.194
-446.880	8.942	-0.063	-0.047
-445.865	357.171	0.168	0.332
-444.851	-200.000	0.005	0.192
-443.836	800.000	0.032	-0.104
-442.822	312.134	-0.082	0.152
-441.807	223.096	0.065	-0.103
-440.792	-200.000	0.035	-0.160
-439.778	223.799	-0.087	-0.138
-438.763	-6.679	0.100	-0.067
-437.749	177.665	0.157	0.226
-436.734	147.743	0.180	-0.239
-435.719	-73.294	-0.117	0.042
-434.705	333.972	-0.063	0.121
-433.690	-200.000	-0.012	-0.084
-432.676	-161.350	0.240	0.012
-431.661	800.000	-0.091	0.383
-430.646	-200.000	0.025	0.229
-429.632	103.741	0.056	0.065
-428.617	-72.635	-0.209	-0.076
-427.603	-41.458	-0.475	0.241
-426.588	-120.266	-0.354	0.060
-425.573	196.095	0.127	-0.191
-424.559	-200.000	-0.014	0.123
-423.544	-200.000	0.055	0.254
-422.530	-60.079	-0.215	0.091
-421.515	-200.000	-0.040	0.318
-420.500	-82.498	-0.407	0.130
-419.486	-23.687	0.289	0.171
-418.471	-118.170	0.085	0.015
-417.457	-24.490	-0.132	0.077
-416.442	-71.714	-0.154	0.057
-415.428	-21.357	0.223	-0.134
-414.413	-11.321	0.281	-0.182
-413.398	106.729	-0.088	0.103
-412.384	-75.249	-0.192	0.068
-411.369	800.000	0.042	0.119
-410.355	-98.831	-0.186	-0.047
-409.340	358.724	0.245	-0.483
-408.325	167.160	0.100	-0.140
-407.311	-200.000	0.037	-0.167
-406.296	54.131	0.243	-0.230
-405.282	800.000	-0.086	0.318
-404.267	800.000	-0.034	0.109
-403.252	-19.143	-0.243	-0.149
-402.238	-71.251	0.352	-0.130
-401.223	800.000	0.036	0.125
-400.209	219.621	-0.173	0.273
-399.194	800.000	0.073	-0.248
-398.179	273.697	0.077	0.134
-397.165	107.561	0.224	0.263
-396.150	163.787	0.158	-0.219
-395.136	800.000	-0.109	0.330
-394.121	95.518	-0.155	-0.174
-393.106	-54.896	-0.486	-0.216
-392.092	-129.252	-0.193	0.027
-391.077	194.895	0.181	0.270
-390.063	-110.061	0.306	0.063
-389.048	288.073	0.136	-0.243
-388.033	96.825	0.145	0.164
-387.019	-40.924	0.082	-0.042
-386.004	-58.985	0.218	0.093
-384.990	59.350	0.176	-0.171
-383.975	225.609	0.015	0.024
-382.960	231.723	-0.083	0.134
-381.946	-200.000	0.247	0.001
-380.931	-177.707	0.029	0.001
-379.917	-8.159	-0.260	-0.172
-378.902	-200.000	0.002	-0.059
-377.888	-200.000	0.014	-0.238
-376.873	-17.568	-0.179	0.111
-375.858	-31.941	0.416	0.230
-374.844	-35.249	-0.188	-0.101
-373.829	7.707	0.228	0.168
-372.815	800.000	-0.074	-0.247
-371.800	128.530	-0.224	-0.281
-370.785	145.850	-0.053	0.070
-369.771	-200.000	0.034	0.163
-368.756	-200.000	0.007	0.059
-367.742	-59.991	-0.518	-0.218
-366.727	388.005	-0.206	-0.420
-365.712	123.541	-0.186	0.230
-364.698	-95.132	0.262	0.069
-363.683	-78.876	-0.239	-0.080
-362.669	-167.847	0.396	-0.015
-361.654	-200.000	-0.022	-0.447
-360.639	45.725	0.244	0.222
-359.625	-45.129	-0.104	0.051
-358.610	491.583	-0.036	0.082
-357.596	-2.192	-0.148	-0.102
-356.581	486.994	0.070	-0.156
-355.566	-200.000	-0.001	-0.123
-354.552	0.905	0.219	0.154
-353.537	800.000	0.047	0.188
-352.523	641.114	-0.121	-0.303
-351.508	337.824	-0.087	0.166
-350.493	196.856	-0.019	0.028
-349.479	-67.716	-0.249	-0.096
-348.464	2.172	-0.166	0.118
-347.450	-99.889	-0.215	-0.053
-346.435	-200.000	-0.063	-0.275
-345.420	46.369	0.098	-0.090
-344.406	800.000	-0.045	-0.145
-343.391	259.705	0.191	-0.324
-342.377	14.934	-0.167	0.129
-341.362	-200.000	-0.006	-0.138
-340.348	295.693	0.066	-0.118
-339.333	-200.000	0.002	-0.069
-338.318	453.051	0.062	-0.136
-337.304	76.414	0.182	0.189
-336.289	-59.103	-0.343	-0.146
-335.275	-89.389	0.104	-0.030
-334.260	779.991	0.017	0.045
-333.245	-200.000	-0.024	-0.325
-332.231	-31.544	0.543	0.300
-331.216	-187.876	-0.118	-0.002
-330.202	800.000	-0.065	0.244
-329.187	-150.192	-0.381	0.029
-328.172	364.531	0.169	0.334
-327.158	-200.000	0.039	0.411
-326.143	-30.432	-0.229	-0.128
-325.129	-86.847	-0.348	0.104
-324.114	-200.000	-0.017	0.130
-323.099	32.788	0.017	-0.015
-322.085	-138.120	0.236	-0.026
-321.070	-95.333	0.282	0.075
-320.056	-200.000	0.030	-0.156
-319.041	298.603	0.105	-0.189
-318.026	292.369	0.162	-0.290
-317.012	-103.732	-0.140	0.032
-315.997	-200.000	0.010	-0.058
-314.983	-140.568	0.187	0.019
-313.968	-200.000	-0.015	-0.206
-312.953	253.475	-0.140	-0.235
-311.939	-114.486	-0.044	0.008
-310.924	529.960	0.063	-0.145
-309.910	-200.000	-0.041	0.179
-308.895	145.403	-0.188	0.247
-307.880	372.345	-0.184	0.367
-306.866	800.000	0.066	-0.227
-305.851	211.986	0.235	0.364
-304.837	527.870	0.032	0.075
-303.822	77.061	0.267	-0.279
-302.807	713.402	0.105	-0.274
-301.793	-200.000	-0.010	0.090
-300.778	9.047	-0.208	-0.155
-299.764	-200.000	0.004	0.284
-298.749	-42.218	0.180	0.090
-297.735	182.313	0.097	-0.140
-296.720	3.667	0.069	0.050
-295.705	-200.000	0.043	-0.307
-294.691	53.688	-0.094	-0.089
-293.676	-88.684	0.330	0.096
-292.662	-126.420	0.016	0.002
-291.647	-200.000	-0.066	0.298
-290.632	-181.427	-0.400	0.008
-289.618	800.000	0.101	-0.312
-288.603	37.963	0.194	-0.169
-287.589	-33.800	-0.276	0.149
-286.574	-117.799	0.155	0.027
-285.559	186.076	0.228	0.333
-284.545	-200.000	-0.007	-0.037
-283.530	108.071	0.129	0.151
-282.516	-85.700	-0.243	0.074
-281.501	531.958	-0.080	0.185
-280.486	37.033	0.150	0.130
-279.472	43.362	-0.197	-0.176
-278.457	39.451	0.037	0.033
-277.443	275.523	0.150	-0.261
-276.428	166.770	-0.232	-0.323
-275.413	-181.091	0.147	-0.003
-274.399	198.697	-0.114	-0.171
-273.384	-77.102	-0.246	0.084
-272.370	581.170	-0.102	0.245
-271.355	-35.398	-0.473	-0.252
-270.340	151.971	0.165	0.221
-269.326	800.000	-0.026	0.080
-268.311	28.344	-0.341	0.282
-267.297	-7.891	-0.119	0.079
-266.282	489.021	-0.185	0.415
-265.267	236.046	-0.083	0.135
-264.253	-70.177	0.222	0.083
-263.238	-28.086	0.131	-0.074
-262.224	-200.000	-0.004	0.050
-261.209	-141.868	-0.228	0.022
-260.195	-200.000	0.042	-0.334
-259.180	-64.127	-0.405	-0.162
-258.165	800.000	0.082	0.222
-257.151	-200.000	-0.013	0.103
-256.136	800.000	0.049	0.135
-255.122	314.069	-0.161	0.298
-254.107	157.417	0.232	-0.315
-253.092	-103.333	0.284	-0.066
-252.078	141.716	0.088	0.114
-251.063	-138.910	0.122	0.013
-250.049	50.403	0.255	0.236
-249.034	-24.488	-0.263	0.153
-248.019	609.744	-0.068	0.168
-247.005	439.612	-0.049	0.104
-245.990	90.186	0.068	-0.074
-244.976	90.388	-0.201	0.221
-243.961	-113.530	0.289	-0.055
-242.946	800.000	-0.084	-0.260
-241.932	135.941	-0.100	-0.127
-240.917	-38.914	0.240	0.124
-239.903	14.213	0.235	0.180
-238.888	212.124	0.066	-0.102
-237.873	-107.702	0.196	-0.042
-236.859	196.968	0.076	0.114
-235.844	103.771	-0.034	-0.039
-234.830	107.655	0.089	-0.104
-233.815	800.000	0.029	-0.111
-232.800	275.957	-0.065	-0.113
-231.786	323.561	0.157	0.294
-230.771	261.095	-0.126	0.213
-229.757	589.965	-0.158	0.382
-228.742	26.664	0.201	0.164
-227.727	-46.192	0.048	0.023
-226.713	293.906	-0.189	0.338
-225.698	455.109	-0.114	0.247
-224.684	800.000	-0.029	-0.116
-223.669	-200.000	0.018	0.146
-222.655	126.414	-0.202	-0.250
-221.640	-178.312	-0.342	0.008
-220.625	-136.928	0.241	-0.027
-219.611	-200.000	-0.013	-0.211
-218.596	-107.075	0.160	0.034
-217.582	800.000	-0.021	-0.081
-216.567	130.794	-0.080	-0.101
-215.552	-40.183	0.069	-0.035
-214.538	-53.438	-0.082	0.037
-213.523	-33.481	0.140	-0.075
-212.509	-110.885	0.368	0.074
-211.494	-200.000	0.029	0.182
-210.479	27.314	0.172	-0.142
-209.465	-200.000	-0.031	-0.433
-208.450	445.294	0.136	0.291
-207.436	800.000	0.049	-0.195
-206.421	23.761	0.284	0.229
-205.406	-150.408	0.358	0.027
-204.392	800.000	0.051	0.165
-203.377	800.000	0.047	0.153
-202.363	70.903	0.013	-0.013
-201.348	-6.544	-0.283	0.189
-200.333	-68.394	0.117	0.044
-199.319	-52.319	0.190	-0.086
-198.304	92.570	-0.143	-0.158
-197.290	-40.842	0.027	0.014
-196.275	300.920	-0.196	0.353
-195.260	800.000	0.025	0.090
-194.246	-47.348	0.362	-0.172
-193.231	532.861	0.087	-0.201
-192.217	-69.027	0.072	0.027
-191.202	-78.569	0.050	0.017
-190.187	16.611	-0.080	-0.062
-189.173	-32.455	0.069	-0.038
-188.158	427.381	-0.103	0.217
-187.144	266.710	0.047	-0.080
-186.129	138.498	0.086	-0.111
-185.114	-2.829	-0.123	-0.084
-184.100	10.470	-0.052	-0.039
-183.085	142.303	0.073	-0.094
-182.071	315.585	0.018	-0.033
-181.056	-200.000	-0.033	0.197
-180.042	-152.712	0.372	-0.026
-179.027	-20.824	0.191	0.115
-178.012	-200.000	0.021	-0.181
-176.998	-2.283	0.159	-0.109
-175.983	191.090	-0.160	0.235
-174.969	-70.058	-0.146	0.054
-173.954	3.679	0.253	0.180
-172.939	333.225	-0.058	0.109
-171.925	-176.246	-0.217	-0.006
-170.910	-111.243	-0.576	-0.115
-169.896	-200.000	-0.010	-0.436
-168.881	-176.935	-0.284	-0.007
-167.866	-175.463	-0.337	0.009
-166.852	-128.681	-0.193	0.027
-165.837	-103.454	0.114	0.026
-164.823	75.331	0.140	-0.144
-163.808	-109.064	-0.112	-0.023
-162.793	-102.084	0.120	-0.028
-161.779	186.166	0.205	0.298
-160.764	-200.000	0.065	0.292
-159.750	-96.048	0.188	0.049
-158.735	-112.249	-0.218	0.043
-157.720	209.215	0.191	-0.293
-156.706	-153.540	-0.042	-0.003
-155.691	-61.371	-0.261	-0.107
-154.677	800.000	0.049	0.133
-153.662	-200.000	-0.026	-0.190
-152.647	153.235	0.186	0.249
-151.633	-200.000	0.038	0.325
-150.618	131.800	-0.229	0.288
-149.604	56.676	0.065	-0.062
-148.589	-110.517	-0.072	0.015
-147.574	-39.623	0.143	0.073
-146.560	148.904	-0.171	-0.226
-145.545	-200.000	0.047	-0.409
-144.531	102.295	-0.070	0.080
-143.516	160.198	-0.067	0.091
-142.502	-41.469	0.065	-0.032
-141.487	-121.710	0.066	-0.011
-140.472	-122.090	-0.085	-0.014
-139.458	-200.000	0.010	0.297
-138.443	55.651	-0.177	-0.168
-137.429	-86.914	0.121	0.036
-136.414	220.297	0.043	-0.067
-135.399	169.748	-0.187	0.261
-134.385	800.000	-0.018	0.076
-133.370	-200.000	-0.006	-0.086
-132.356	38.815	-0.210	-0.183
-131.341	800.000	-0.144	-0.433
-130.326	-200.000	0.020	-0.188
-129.312	800.000	-0.041	0.149
-128.297	-191.996	0.206	-0.002
-127.283	-67.668	0.182	0.069
-126.268	57.864	0.258	-0.246
-125.253	-0.445	0.064	-0.044
-124.239	424.319	0.026	0.054
-123.224	392.406	0.071	0.144
-122.210	99.608	0.145	-0.164
-121.195	-73.270	0.262	-0.094
-120.180	-140.015	0.154	0.016
-119.166	245.249	-0.278	0.456
-118.151	-17.875	0.276	-0.169
-117.137	56.237	-0.172	-0.163
-116.122	274.532	0.168	0.290
-115.107	453.873	0.169	0.366
-114.093	182.837	-0.307	0.442
-113.078	192.367	-0.146	0.214
-112.064	10.766	0.198	0.147
-111.049	70.793	0.181	-0.183
-110.034	800.000	0.057	-0.217
-109.020	-6.085	0.202	-0.135
-108.005	-98.356	-0.163	-0.041
-106.991	-8.263	0.149	-0.098
-105.976	-88.470	0.064	0.019
-104.962	-72.524	0.020	0.007
-103.947	-88.406	-0.188	-0.055
-102.932	729.329	0.077	0.201
-101.918	-140.970	-0.270	0.027
-100.903	132.937	-0.237	0.299
-99.889	156.680	0.140	0.188
-98.874	800.000	-0.031	0.083
-97.859	-132.080	0.076	-0.010
-96.845	-63.842	-0.243	-0.097
-95.830	-0.254	0.235	0.163
-94.816	-144.046	0.056	-0.005
-93.801	-200.000	0.069	-0.316
-92.786	-200.000	-0.044	0.259
-91.772	-84.050	-0.393	0.122
-90.757	387.817	0.094	0.190
-89.743	122.953	-0.062	-0.075
-88.728	-86.527	0.058	0.017
-87.713	29.940	-0.313	0.260
-86.699	-16.972	0.171	-0.105
-85.684	514.412	0.143	0.326
-84.670	800.000	0.102	-0.317
-83.655	82.231	-0.038	0.040
-82.640	-200.000	0.071	-0.354
-81.626	-18.481	0.214	-0.130
-80.611	800.000	-0.100	0.389
-79.597	93.420	0.238	0.262
-78.582	-200.000	-0.025	-0.116
-77.567	-42.799	-0.273	-0.135
-76.553	135.127	0.053	-0.067
-75.538	-56.245	0.167	-0.072
-74.524	-200.000	0.016	0.201
-73.509	-77.486	0.276	0.093
-72.494	800.000	-0.086	0.312
-71.480	29.541	0.171	0.141
-70.465	-32.091	-0.332	0.181
-69.451	291.044	0.156	0.275
-68.436	234.960	-0.063	-0.101
-67.422	-129.729	0.099	0.013
-66.407	80.488	-0.194	0.204
-65.392	-117.669	0.114	0.020
-64.378	22.034	-0.197	0.156
-63.363	16.107	0.237	-0.182
-62.349	-129.136	-0.404	0.055
-61.334	96.615	-1.043	-1.162
-60.319	-39.625	0.943	0.480
-59.305	800.000	-0.413	-1.232
-58.290	370.747	0.541	1.068
-57.276	800.000	0.512	1.722
-56.261	-200.000	124.347	640.311
-55.246	412.523	1562.457	3229.048
-54.232	143.062	2732.325	3534.289
-53.217	89.305	2305.655	2498.923
-52.203	32.340	1914.338	1607.275
-51.188	26.327	1710.621	1390.096
-50.173	24.107	1672.113	1342.037
-49.159	45.237	1740.695	1560.692
-48.144	43.261	1752.197	1555.728
-47.130	25.865	1704.243	1381.147
-46.115	23.399	1688.721	1349.763
-45.100	23.307	1683.089	1344.508
-44.086	23.246	1680.615	1342.015
-43.071	23.175	1678.788	1339.964
-42.057	23.164	1676.514	1338.016
-41.042	23.265	1674.334	1336.981
-40.027	23.171	1672.856	1335.044
-39.013	23.221	1670.659	1333.612
-37.998	23.191	1669.426	1332.349
-36.984	23.184	1668.475	1331.483
-35.969	23.324	1666.752	1331.109
-34.954	23.382	1664.669	1329.824
-33.940	23.225	1663.318	1327.516
-32.925	23.262	1661.651	1326.414
-31.911	23.322	1659.907	1325.417
-30.896	23.309	1657.989	1323.737
-29.881	23.267	1656.614	1322.272
-28.867	23.272	1655.263	1321.176
-27.852	23.316	1653.223	1319.822
-26.838	23.238	1652.519	1318.627
-25.823	23.330	1650.784	1317.873
-24.809	23.365	1649.542	1317.092
-23.794	23.289	1648.324	1315.501
-22.779	23.406	1646.357	1314.746
-21.765	23.349	1645.091	1313.264
-20.750	23.323	1642.885	1311.260
-19.736	23.333	1642.136	1310.684
-18.721	23.442	1640.418	1310.068
-17.706	23.385	1639.016	1308.470
-16.692	23.270	1637.562	1306.411
-15.677	23.317	1636.026	1305.482
-14.663	23.473	1634.529	1305.381
-13.648	23.374	1633.580	1303.845
-12.633	23.316	1632.409	1302.433
-11.619	23.390	1630.412	1301.327
-10.604	23.391	1628.734	1299.944
-9.590	23.343	1627.896	1298.877
-8.575	23.305	1626.685	1297.581
-7.560	23.308	1625.618	1296.699
-6.546	23.334	1623.711	1295.313
-5.531	23.290	1623.258	1294.583
-4.517	23.322	1622.400	1294.078
-3.502	23.331	1620.816	1292.828
-2.487	23.428	1618.652	1291.758
-1.473	23.037	1606.567	1279.233
-0.458	20.355	1587.248	1244.600
0.556	15.458	1589.359	1214.895
1.571	13.365	1613.067	1217.516
2.586	13.112	1625.290	1224.761
3.600	12.254	1570.658	1177.330
4.615	6.724	1462.876	1059.418
5.629	1.231	1403.592	980.949
6.644	0.292	1396.552	969.898
7.659	0.188	1395.680	968.537
8.673	0.162	1394.688	967.601
9.688	0.069	1392.352	965.295
10.702	-0.004	1389.200	962.560
11.717	2.804	1392.479	982.742
12.731	9.667	1402.925	1034.187
13.746	15.205	1411.563	1076.117
14.761	16.753	1412.737	1086.864
15.775	16.071	1411.649	1081.553
16.790	15.206	1408.377	1073.411
17.804	14.522	1405.635	1066.856
18.819	14.152	1404.603	1063.609
19.834	13.870	1403.303	1060.731
20.848	13.575	1402.643	1058.255
21.863	13.399	1400.544	1055.456
22.877	13.133	1399.835	1053.130
23.892	13.144	1398.807	1052.336
24.907	13.181	1397.892	1051.791
25.921	13.139	1397.045	1050.790
26.936	13.226	1396.014	1050.477
27.950	13.301	1394.668	1049.848
28.965	13.212	1394.490	1049.052
29.980	13.301	1393.830	1049.031
30.994	13.369	1392.453	1048.333
32.009	13.332	1391.279	1047.123
33.023	13.368	1390.072	1046.346
34.038	13.311	1388.892	1045.004
35.053	13.298	1387.686	1043.921
36.067	13.333	1386.746	1043.345
37.082	13.325	1385.457	1042.233
38.096	13.337	1384.411	1041.430
39.111	13.263	1384.103	1040.636
40.126	13.259	1382.930	1039.637
41.140	13.145	1382.098	1038.208
42.155	13.138	1381.220	1037.409
43.169	12.995	1381.650	1036.743
44.184	13.169	1380.833	1037.133
45.199	13.104	1380.468	1036.356
46.213	13.120	1380.196	1036.159
47.228	13.166	1379.093	1035.527
48.242	13.224	1377.454	1034.571
49.257	13.229	1376.226	1033.590
50.271	13.236	1374.377	1032.154
51.286	13.264	1373.425	1031.522
52.301	13.307	1372.310	1030.860
53.315	13.202	1371.479	1029.491
54.330	13.194	1370.085	1028.305
55.344	13.168	1368.829	1027.107
56.359	13.112	1367.744	1025.856
57.374	13.131	1366.939	1025.278
58.388	13.116	1366.121	1024.479
59.403	13.135	1365.446	1024.004
60.417	13.168	1364.519	1023.424
61.432	13.152	1363.490	1022.458
62.447	13.161	1362.680	1021.814
63.461	13.060	1361.682	1020.354
64.476	13.078	1360.678	1019.621
65.490	13.037	1359.153	1018.137
66.505	13.000	1357.620	1016.669
67.520	13.098	1356.489	1016.337
68.534	13.119	1355.177	1015.392
69.549	13.138	1354.502	1014.917
70.563	13.102	1353.236	1013.654
71.578	13.082	1351.546	1012.176
72.593	13.076	1351.229	1011.813
73.607	13.062	1350.147	1010.824
74.622	13.008	1349.409	1009.853
75.636	13.008	1348.759	1009.281
76.651	13.034	1348.150	1008.891
77.666	12.902	1347.821	1007.749
78.680	12.920	1346.775	1006.990
79.695	13.044	1345.855	1006.968
80.709	13.064	1345.146	1006.473
81.724	13.104	1344.216	1005.928
82.739	13.095	1343.209	1005.033
83.753	13.145	1342.751	1004.904
84.768	13.188	1341.701	1004.292
85.782	13.498	1339.270	1004.263
86.797	13.108	1338.754	1001.422
87.812	13.175	1337.610	1000.883
88.826	13.199	1336.503	1000.116
89.841	13.284	1335.066	999.464
90.855	13.233	1334.530	998.664
91.870	13.231	1333.712	997.952
92.884	13.172	1332.624	996.692
93.899	13.313	1331.690	996.757
94.914	13.465	1330.223	996.485
95.928	13.326	1329.735	995.195
96.943	13.318	1328.905	994.441
97.957	13.386	1327.689	993.853
98.972	13.293	1327.012	992.696
99.987	13.212	1325.979	991.352
101.001	13.315	1324.875	991.057
102.016	13.239	1324.097	989.931
103.030	13.202	1323.161	988.919
104.045	13.301	1322.275	988.760
105.060	13.265	1320.794	987.353
106.074	13.243	1319.003	985.795
107.089	13.166	1317.980	984.486
108.103	13.130	1316.739	983.256
109.118	13.225	1315.150	982.551
110.133	13.191	1314.099	981.472
111.147	13.109	1313.046	980.116
112.162	13.250	1311.714	979.871
113.176	13.206	1310.352	978.504
114.191	13.249	1309.624	978.130
115.206	13.206	1308.457	976.917
116.220	13.163	1306.984	975.478
117.235	13.281	1305.650	975.091
118.249	13.276	1304.842	974.370
119.264	13.279	1304.042	973.704
120.279	13.174	1302.392	971.768
121.293	13.217	1301.949	971.605
122.308	13.158	1300.692	970.237
123.322	13.249	1299.144	969.532
124.337	13.217	1297.999	968.399
125.352	13.124	1297.360	967.296
126.366	13.106	1296.209	966.243
127.381	13.184	1295.147	965.826
128.395	13.148	1294.010	964.677
129.410	13.153	1293.023	963.891
130.424	13.213	1292.016	963.403
131.439	13.206	1291.042	962.550
132.454	13.234	1290.328	962.093
133.468	13.187	1289.913	961.428
134.483	13.291	1288.006	960.525
135.497	13.184	1286.705	958.849
136.512	13.253	1285.509	958.275
137.527	13.216	1284.213	957.006
138.541	13.311	1282.323	956.065
139.556	13.232	1281.752	955.096
140.570	13.219	1280.711	954.159
141.585	13.270	1279.696	953.614
142.600	13.332	1277.935	952.578
143.614	13.376	1276.888	951.963
144.629	13.474	1276.007	951.784
145.643	13.391	1274.866	950.373
146.658	13.349	1273.542	949.060
147.673	13.308	1272.427	947.913
148.687	13.365	1270.975	947.075
149.702	13.416	1269.706	946.336
150.716	13.341	1268.441	944.878
151.731	13.301	1267.457	943.835
152.746	13.354	1266.275	943.176
153.760	13.417	1264.907	942.431
154.775	13.422	1263.692	941.472
155.789	13.442	1262.705	940.767
156.804	13.521	1261.753	940.424
157.819	13.477	1260.669	939.279
158.833	13.532	1259.578	938.696
159.848	13.629	1258.198	938.138
160.862	13.596	1258.069	937.768
161.877	13.378	1256.883	935.571
162.892	13.426	1256.058	935.143
163.906	13.442	1254.720	934.156
164.921	13.429	1254.160	933.579
165.935	13.554	1252.952	933.302
166.950	13.471	1252.248	932.229
167.964	13.552	1251.369	931.946
168.979	13.540	1250.952	931.489
169.994	13.592	1249.845	930.872
171.008	13.644	1249.230	930.623
172.023	13.614	1247.553	929.126
173.037	13.627	1247.454	929.043
174.052	13.673	1246.293	928.350
175.067	13.659	1245.213	927.386
176.081	13.587	1244.519	926.388
177.096	13.572	1243.644	925.570
178.110	13.605	1242.018	924.464
179.125	13.647	1241.018	923.870
180.140	13.643	1239.830	922.879
181.154	13.633	1238.657	921.874
182.169	13.743	1237.464	921.510
183.183	13.743	1236.112	920.426
184.198	13.789	1235.088	919.836
185.213	13.773	1234.123	918.945
186.227	13.831	1233.045	918.382
187.242	13.800	1231.813	917.211
188.256	13.899	1230.930	917.022
189.271	13.830	1229.769	915.694
190.286	13.686	1228.984	914.234
191.300	13.692	1228.412	913.761
192.315	13.609	1227.663	912.669
193.329	13.681	1226.959	912.458
194.344	13.624	1226.576	911.781
195.359	13.691	1226.075	911.695
196.373	13.892	1225.045	911.953
197.388	13.931	1224.587	911.745
198.402	13.989	1223.903	911.473
199.417	13.948	1223.633	910.965
200.432	13.966	1222.390	910.061
201.446	14.016	1221.759	909.785
202.461	14.080	1220.835	909.363
203.475	14.040	1219.779	908.280
204.490	13.976	1218.464	906.871
205.504	14.008	1216.831	905.750
206.519	14.077	1215.529	905.075
207.534	14.028	1214.666	904.084
208.548	14.059	1214.062	903.725
209.563	14.003	1213.109	902.631
210.577	14.049	1212.375	902.257
211.592	14.185	1211.562	902.311
212.607	14.103	1210.576	901.048
213.621	14.104	1209.382	900.087
214.636	14.077	1208.412	899.139
215.650	14.113	1207.634	898.674
216.665	14.113	1207.134	898.221
217.680	14.240	1205.822	897.854
218.694	14.260	1205.170	897.395
219.709	14.302	1204.433	896.994
220.723	14.301	1203.680	896.348
221.738	14.321	1202.690	895.639
222.753	14.223	1202.290	894.734
223.767	14.277	1201.132	894.086
224.782	14.378	1200.872	894.353
225.796	14.376	1200.107	893.693
226.811	14.400	1199.107	892.999
227.826	14.352	1198.553	892.250
228.840	14.353	1197.910	891.700
229.855	14.316	1197.399	891.039
230.869	14.343	1196.397	890.359
231.884	14.349	1195.351	889.535
232.899	14.351	1194.780	889.043
233.913	14.364	1194.073	888.507
234.928	14.329	1193.085	887.505
235.942	14.317	1192.481	886.916
236.957	14.387	1191.593	886.549
237.972	14.413	1190.641	885.901
238.986	14.369	1190.323	885.350
240.001	14.419	1189.490	884.917
241.015	14.439	1188.618	884.296
242.030	14.484	1187.577	883.686
243.045	14.526	1186.893	883.317
244.059	14.497	1186.172	882.549
245.074	14.563	1185.448	882.285
246.088	14.624	1184.298	881.672
247.103	14.588	1183.757	881.003
248.117	14.578	1182.826	880.177
249.132	14.636	1182.104	879.870
250.147	14.766	1181.624	880.119
251.161	14.766	1180.627	879.299
252.176	14.882	1179.840	879.242
253.190	14.836	1179.676	878.799
254.205	14.895	1179.172	878.658
255.220	14.781	1178.374	877.389
256.234	14.877	1177.384	877.075
257.249	14.914	1176.837	876.784
258.263	14.964	1176.208	876.503
259.278	14.939	1175.550	875.800
260.293	14.972	1174.837	875.368
261.307	14.934	1174.579	874.898
262.322	14.926	1173.831	874.220
263.336	14.993	1172.872	873.778
264.351	14.958	1172.130	872.968
265.366	15.025	1171.438	872.724
266.380	15.091	1170.843	872.548
267.395	15.104	1169.770	871.738
268.409	15.022	1169.254	870.849
269.424	15.010	1168.697	870.295
270.439	15.051	1168.118	870.001
271.453	15.069	1167.118	869.271
272.468	14.990	1166.400	868.248
273.482	15.036	1165.772	867.945
274.497	15.133	1164.971	867.776
275.512	15.005	1164.176	866.442
276.526	15.084	1163.526	866.288
277.541	15.084	1162.810	865.681
278.555	15.102	1161.965	865.066
279.570	15.139	1161.170	864.593
280.585	15.215	1160.557	864.452
281.599	15.224	1159.815	863.865
282.614	15.317	1158.183	863.053
283.628	15.280	1157.702	862.429
284.643	15.188	1156.452	860.948
285.657	15.266	1155.658	860.681
286.672	15.295	1154.560	859.934
287.687	15.272	1154.007	859.332
288.701	15.276	1153.437	858.852
289.716	15.278	1152.671	858.215
290.730	15.462	1151.661	858.327
291.745	15.432	1150.989	857.597
292.760	15.371	1150.308	856.704
293.774	15.435	1149.667	856.475
294.789	15.472	1149.014	856.102
295.803	15.458	1148.806	855.800
296.818	15.386	1147.877	854.667
297.833	15.441	1147.057	854.260
298.847	15.447	1146.166	853.553
299.862	15.515	1145.097	853.024
300.876	15.498	1144.973	852.772
301.891	15.435	1144.562	852.070
302.906	15.565	1143.371	851.768
303.920	15.591	1142.743	851.356
304.935	15.574	1142.257	850.829
305.949	15.611	1141.218	850.170
306.964	15.780	1140.576	850.472
307.979	15.693	1140.144	849.634
308.993	15.824	1139.211	849.526
310.008	15.773	1138.236	848.463
311.022	15.763	1137.268	847.616
312.037	15.660	1136.963	846.797
313.052	15.825	1135.672	846.591
314.066	15.598	1135.040	844.901
315.081	15.637	1133.891	844.168
316.095	15.668	1133.358	843.852
317.110	15.730	1132.282	843.289
318.125	15.756	1131.954	843.101
319.139	15.585	1131.326	841.699
320.154	15.716	1130.356	841.561
321.168	15.704	1129.725	840.954
322.183	15.739	1129.030	840.537
323.197	15.754	1128.626	840.240
324.212	15.768	1128.066	839.815
325.227	15.744	1127.752	839.388
326.241	15.783	1126.715	838.737
327.256	15.693	1126.067	837.731
328.270	15.876	1124.779	837.609
329.285	15.786	1124.017	836.520
330.300	15.800	1122.939	835.716
331.314	15.776	1122.234	834.995
332.329	15.892	1121.207	834.734
333.343	15.743	1120.939	833.720
334.358	15.930	1119.467	833.479
335.373	15.864	1119.143	832.838
336.387	15.929	1117.812	832.094
337.402	15.973	1117.561	832.052
338.416	16.096	1116.950	832.128
339.431	16.034	1116.313	831.277
340.446	16.048	1115.555	830.706
341.460	16.099	1114.542	830.129
342.475	16.022	1113.717	829.064
343.489	16.151	1112.812	828.951
344.504	16.185	1111.917	828.377
345.519	16.127	1111.267	827.538
346.533	16.285	1110.190	827.436
347.548	16.233	1109.497	826.590
348.562	16.206	1109.086	826.079
349.577	16.096	1108.652	825.144
350.592	16.247	1106.978	824.561
351.606	16.191	1106.095	823.558
352.621	16.330	1105.761	823.919
353.635	16.085	1105.362	822.348
354.650	16.155	1104.768	822.177
355.665	16.202	1103.675	821.517
356.679	16.355	1103.084	821.752
357.694	16.223	1102.747	820.787
358.708	16.304	1102.028	820.570
359.723	16.298	1101.026	819.725
360.738	16.280	1100.714	819.332
361.752	16.376	1099.965	819.169
362.767	16.329	1099.582	818.584
363.781	16.214	1099.210	817.677
364.796	16.494	1098.117	818.146
365.810	16.450	1097.696	817.544
366.825	16.483	1096.711	816.898
367.840	16.521	1096.473	816.832
368.854	16.647	1095.652	816.756
369.869	16.606	1094.989	815.992
370.883	16.532	1094.075	814.883
371.898	16.580	1093.364	814.515
372.913	16.532	1093.023	813.954
373.927	16.614	1092.449	813.852
374.942	16.696	1091.666	813.592
375.956	16.725	1090.926	813.104
376.971	16.643	1090.612	812.407
377.986	16.605	1090.303	811.922
379.000	16.637	1089.997	811.777
380.015	16.752	1088.959	811.482
381.029	16.860	1088.124	811.307
382.044	16.862	1087.232	810.579
383.059	16.741	1087.116	809.840
384.073	16.947	1085.538	809.578
385.088	16.921	1084.791	808.825
386.102	16.795	1084.410	807.867
387.117	16.876	1083.168	807.255
388.132	16.793	1082.350	806.180
389.146	16.864	1081.521	805.829
390.161	16.756	1080.965	804.829
391.175	16.916	1080.076	804.857
392.190	16.854	1079.293	803.910
393.205	16.989	1078.653	804.000
394.219	16.885	1077.854	802.840
395.234	16.904	1077.141	802.327
396.248	16.891	1076.144	801.454
397.263	16.935	1075.194	800.881
398.278	16.981	1074.172	800.266
399.292	16.858	1073.572	799.171
400.307	16.898	1072.471	798.466
401.321	16.945	1072.350	798.531
402.336	16.931	1071.378	797.669
403.350	16.941	1070.838	797.244
404.365	16.877	1070.354	796.511
405.380	16.989	1069.430	796.279
406.394	17.053	1068.740	795.993
407.409	17.074	1068.244	795.654
408.423	17.169	1067.303	795.325
409.438	17.211	1066.588	794.922
410.453	17.156	1065.772	793.985
411.467	17.181	1065.220	793.620
412.482	17.184	1064.484	793.014
413.496	17.305	1063.638	792.879
414.511	17.266	1063.202	792.302
415.526	17.345	1062.743	792.260
416.540	17.338	1062.279	791.810
417.555	17.462	1061.940	792.066
418.569	17.366	1061.389	791.135
419.584	17.475	1060.716	791.070
420.599	17.408	1059.992	790.148
421.613	107.574	1331.487	1487.164
422.628	99.263	1370.983	1487.248
