DTS Sentinel unit serial number:	SN413079Multiplexer serial number:	ORYXHardware model number:	OX4-SRSoftware version number:	ORYX F/W v4.00 Oryx Data Collector v3.7.2.0data status	okinstallation	princeton_trtdifferential loss correction	single-endedforward channel	channel 2reverse channel	N/Adate	2019/09/11time	00:45:11forward acquisition time	60.00reverse acquisition time	0.00gamma	496.2192k internal	0.2332k external	0.2332temperature offset calibration	0.9940default loss term (dB/km)	0.3790temperature slope calibration	1.0000multiplexer offset coefficient	1.0000multiplexer slope coefficient	1.0000fibre end	0.00T internal ref (°C)	29.19T ext. ref 1 (°C)	-0.31T ext. ref 2 (°C)	22.80length (m)	temperature (°C)	Stokes	anti-Stokes-747.200	-200.000	-0.032	0.237
-746.185	43.552	-0.138	-0.127
-745.171	-7.830	0.182	-0.124
-744.156	82.729	-0.227	0.249
-743.142	72.311	0.110	0.115
-742.127	-126.226	-0.353	-0.053
-741.112	-159.349	-0.174	0.010
-740.098	-181.363	0.215	-0.004
-739.083	513.773	0.065	0.153
-738.069	32.598	0.092	-0.080
-737.054	-24.218	-0.154	-0.093
-736.039	-200.000	0.027	0.222
-735.025	45.606	0.089	-0.083
-734.010	-200.000	-0.005	-0.044
-732.996	-14.534	-0.443	0.287
-731.981	-200.000	0.004	-0.292
-730.966	688.827	0.052	-0.136
-729.952	-93.260	-0.081	-0.023
-728.937	-62.252	-0.103	0.043
-727.923	800.000	0.073	-0.240
-726.908	-200.000	0.021	-0.232
-725.894	-200.000	0.015	0.170
-724.879	-83.060	0.254	-0.082
-723.864	541.807	0.143	-0.343
-722.850	-126.316	0.474	0.071
-721.835	-200.000	0.030	-0.212
-720.821	397.284	-0.205	0.431
-719.806	-19.841	-0.332	0.206
-718.791	616.597	-0.084	0.211
-717.777	109.332	-0.151	-0.181
-716.762	685.575	-0.056	-0.146
-715.748	-43.376	0.210	0.107
-714.733	-124.715	-0.167	-0.026
-713.718	800.000	-0.045	0.167
-712.704	-29.637	-0.179	-0.103
-711.689	-23.294	0.098	0.059
-710.675	-200.000	0.044	-0.356
-709.660	74.378	0.068	0.072
-708.645	-200.000	-0.020	-0.169
-707.631	469.409	-0.068	0.152
-706.616	226.451	-0.162	-0.264
-705.602	32.132	-0.043	-0.037
-704.587	302.566	-0.215	-0.400
-703.572	488.347	-0.232	-0.532
-702.558	800.000	-0.058	-0.254
-701.543	-115.954	-0.136	0.025
-700.529	-95.228	-0.120	-0.032
-699.514	-200.000	-0.018	0.130
-698.499	-120.721	-0.126	0.021
-697.485	-200.000	0.038	0.239
-696.470	87.333	-0.097	0.108
-695.456	5.169	0.144	-0.107
-694.441	-121.748	0.199	-0.033
-693.426	-39.396	-0.112	-0.059
-692.412	-200.000	0.005	-0.376
-691.397	-186.716	0.029	-0.000
-690.383	800.000	-0.051	0.185
-689.368	628.137	-0.057	-0.145
-688.354	61.961	-0.142	0.142
-687.339	-6.429	0.055	-0.037
-686.324	-90.189	-0.052	-0.015
-685.310	378.857	-0.039	-0.079
-684.295	-200.000	-0.004	0.043
-683.281	68.445	0.269	0.277
-682.266	-200.000	-0.049	-0.286
-681.251	-155.119	0.297	-0.020
-680.237	122.497	-0.205	0.258
-679.222	11.334	-0.194	-0.149
-678.208	800.000	0.044	-0.127
-677.193	128.721	-0.160	0.205
-676.178	-130.746	-0.230	-0.031
-675.164	-200.000	0.051	-0.319
-674.149	-119.364	0.279	-0.049
-673.135	-200.000	-0.072	-0.342
-672.120	335.542	-0.072	-0.140
-671.105	-142.875	-0.230	0.022
-670.091	-200.000	0.042	0.215
-669.076	232.129	-0.149	0.245
-668.062	-83.311	-0.248	0.080
-667.047	15.677	0.199	-0.157
-666.032	151.515	0.093	0.128
-665.018	97.625	0.060	0.069
-664.003	37.766	-0.079	-0.070
-662.989	-7.629	-0.155	-0.105
-661.974	-97.420	0.089	0.023
-660.959	-115.939	-0.213	-0.040
-659.945	238.045	-0.128	0.213
-658.930	182.256	0.261	-0.385
-657.916	-75.770	-0.430	0.153
-656.901	-200.000	-0.003	0.244
-655.886	-60.356	0.256	-0.109
-654.872	19.232	-0.188	-0.151
-653.857	476.536	0.111	0.251
-652.843	77.331	0.216	0.230
-651.828	63.201	-0.166	-0.167
-650.814	-47.587	-0.283	0.138
-649.799	419.159	0.051	-0.110
-648.784	800.000	-0.029	0.091
-647.770	-114.357	0.170	-0.033
-646.755	397.084	0.067	0.140
-645.741	-99.072	-0.235	-0.060
-644.726	-17.104	-0.079	0.050
-643.711	476.311	-0.055	0.125
-642.697	-85.659	0.110	0.034
-641.682	-51.870	-0.134	-0.063
-640.668	111.709	0.035	-0.042
-639.653	-200.000	-0.000	0.061
-638.638	104.743	-0.195	-0.231
-637.624	-55.214	-0.145	-0.065
-636.609	-5.257	0.039	0.027
-635.595	391.373	-0.016	-0.033
-634.580	-15.024	0.445	0.286
-633.565	-152.970	-0.292	0.021
-632.551	-123.782	0.256	0.041
-631.536	-200.000	-0.042	0.408
-630.522	-41.661	-0.210	-0.108
-629.507	194.218	0.084	0.127
-628.492	222.697	-0.115	0.186
-627.478	-129.140	0.041	-0.006
-626.463	-124.029	-0.337	0.053
-625.449	20.904	0.118	-0.096
-624.434	-199.467	-0.220	-0.001
-623.419	-0.097	-0.159	0.113
-622.405	-60.168	-0.047	-0.020
-621.390	-63.220	0.280	0.116
-620.376	207.089	-0.119	-0.185
-619.361	800.000	-0.032	0.099
-618.346	-104.764	-0.261	-0.060
-617.332	-55.869	-0.207	0.093
-616.317	-129.742	0.404	-0.056
-615.303	330.417	0.078	-0.150
-614.288	-119.557	-0.148	-0.026
-613.273	-56.615	-0.484	0.215
-612.259	800.000	0.033	0.123
-611.244	351.435	0.128	-0.254
-610.230	-200.000	0.001	0.153
-609.215	152.302	-0.110	0.151
-608.201	91.386	-0.267	0.300
-607.186	-89.412	0.170	0.050
-606.171	64.539	0.213	0.214
-605.157	248.308	-0.113	-0.192
-604.142	119.823	-0.145	0.180
-603.128	-188.232	-0.161	-0.002
-602.113	677.359	-0.099	-0.256
-601.098	-180.587	0.236	-0.005
-600.084	800.000	-0.053	-0.179
-599.069	306.669	0.029	-0.054
-598.055	148.798	0.054	0.073
-597.040	523.124	-0.061	0.144
-596.025	-112.042	-0.153	-0.031
-595.011	-149.035	0.433	-0.035
-593.996	800.000	-0.181	0.505
-592.982	800.000	-0.058	0.162
-591.967	-68.385	-0.059	0.023
-590.952	266.170	0.202	-0.352
-589.938	469.421	-0.049	0.111
-588.923	-116.501	0.068	0.012
-587.909	-200.000	-0.036	-0.223
-586.894	800.000	-0.017	-0.050
-585.879	-30.901	0.249	0.140
-584.865	-53.304	0.048	-0.022
-583.850	-200.000	0.053	-0.251
-582.836	-183.103	-0.283	-0.005
-581.821	-24.131	0.081	-0.049
-580.806	-200.000	0.020	0.184
-579.792	-141.675	-0.244	-0.025
-578.777	36.724	-0.219	-0.194
-577.763	800.000	-0.054	-0.167
-576.748	129.968	0.138	0.177
-575.733	58.982	0.123	-0.121
-574.719	800.000	0.063	0.227
-573.704	-163.374	0.326	-0.016
-572.690	-28.743	0.205	-0.118
-571.675	800.000	-0.072	0.230
-570.661	767.465	-0.111	0.303
-569.646	-39.499	-0.554	-0.290
-568.631	800.000	-0.066	-0.285
-567.617	50.980	-0.034	0.032
-566.602	-171.065	-0.248	-0.008
-565.588	167.191	0.275	-0.390
-564.573	-200.000	0.004	-0.132
-563.558	32.118	0.249	-0.214
-562.544	7.731	0.057	-0.043
-561.529	-200.000	-0.004	0.294
-560.515	94.821	-0.220	0.250
-559.500	104.990	0.091	-0.108
-558.485	140.244	-0.064	-0.084
-557.471	-110.165	0.288	0.060
-556.456	-200.000	0.027	-0.238
-555.442	63.000	0.276	-0.276
-554.427	-105.261	0.146	0.033
-553.412	364.868	0.096	0.193
-552.398	-109.801	0.084	-0.018
-551.383	12.533	0.176	-0.136
-550.369	800.000	-0.044	0.153
-549.354	114.342	0.185	0.224
-548.339	322.715	-0.071	-0.134
-547.325	30.278	-0.241	-0.205
-546.310	242.620	-0.106	-0.178
-545.296	-200.000	-0.042	0.195
-544.281	-200.000	0.051	0.237
-543.266	15.436	-0.222	-0.174
-542.252	-122.726	-0.146	0.024
-541.237	-26.774	-0.084	-0.049
-540.223	-6.332	-0.184	-0.125
-539.208	53.217	-0.154	-0.147
-538.193	3.242	0.144	0.105
-537.179	-200.000	0.047	0.370
-536.164	-200.000	-0.015	-0.217
-535.150	-113.365	0.328	0.064
-534.135	194.544	0.140	0.212
-533.121	800.000	0.051	-0.148
-532.106	0.416	0.212	0.151
-531.091	800.000	0.039	0.160
-530.077	-63.513	-0.239	-0.098
-529.062	800.000	0.036	0.155
-528.048	800.000	0.020	0.060
-527.033	-71.615	-0.187	-0.070
-526.018	224.718	0.240	0.386
-525.004	-200.000	0.010	-0.056
-523.989	-200.000	0.023	-0.459
-522.975	-27.522	0.064	0.037
-521.960	-132.005	0.170	-0.022
-520.945	-200.000	0.024	-0.337
-519.931	23.393	-0.223	-0.183
-518.916	-110.709	0.218	-0.045
-517.902	61.772	-0.233	-0.231
-516.887	1.756	-0.306	0.220
-515.872	119.013	0.110	0.136
-514.858	122.950	-0.073	-0.091
-513.843	-16.003	-0.235	-0.149
-512.829	-68.240	-0.242	0.094
-511.814	-111.908	0.244	0.049
-510.799	297.437	0.066	0.121
-509.785	-127.289	0.032	0.005
-508.770	84.293	0.150	-0.164
-507.756	666.778	0.108	-0.277
-506.741	-178.230	-0.055	-0.001
-505.726	171.658	0.118	0.168
-504.712	-200.000	0.035	0.253
-503.697	258.552	0.251	-0.432
-502.683	535.025	0.107	-0.252
-501.668	-4.404	0.369	-0.255
-500.653	-200.000	-0.013	-0.157
-499.639	-110.463	0.147	0.030
-498.624	800.000	0.101	0.392
-497.610	-128.724	-0.021	0.003
-496.595	-36.589	0.098	-0.053
-495.581	45.984	0.049	-0.045
-494.566	-144.094	-0.284	-0.027
-493.551	-90.430	0.326	0.094
-492.537	109.980	0.106	0.127
-491.522	-44.341	-0.234	-0.117
-490.508	-200.000	0.035	-0.460
-489.493	65.978	-0.074	-0.075
-488.478	17.359	-0.148	-0.117
-487.464	-155.801	-0.137	-0.009
-486.449	-98.383	0.245	-0.063
-485.435	185.110	-0.025	0.037
-484.420	312.344	0.060	-0.113
-483.405	47.546	-0.236	0.219
-482.391	300.752	-0.145	0.266
-481.376	800.000	-0.035	0.154
-480.362	-155.700	0.076	-0.005
-479.347	-93.571	-0.198	-0.054
-478.332	287.786	0.192	0.346
-477.318	2.466	0.204	0.147
-476.303	-200.000	-0.003	-0.181
-475.289	122.594	-0.180	0.224
-474.274	110.524	-0.203	0.244
-473.259	-5.341	-0.193	-0.132
-472.245	148.613	0.345	-0.464
-471.230	800.000	0.111	-0.348
-470.216	-81.998	-0.113	0.037
-469.201	228.556	0.137	0.222
-468.186	-13.012	0.359	0.232
-467.172	213.026	0.256	0.403
-466.157	183.606	0.169	-0.248
-465.143	88.946	0.097	-0.107
-464.128	405.357	-0.082	0.173
-463.113	-11.920	-0.121	-0.079
-462.099	-152.939	-0.186	0.013
-461.084	-135.882	-0.197	-0.023
-460.070	-69.499	-0.195	-0.074
-459.055	75.738	0.075	0.078
-458.040	182.978	0.061	0.090
-457.026	-64.561	-0.212	0.085
-456.011	-82.883	0.154	0.050
-454.997	-162.843	0.352	0.017
-453.982	-58.813	0.440	-0.189
-452.968	-56.369	-0.057	-0.025
-451.953	-200.000	0.064	-0.485
-450.938	132.296	-0.207	0.265
-449.924	109.184	0.122	-0.145
-448.909	-30.241	-0.136	-0.077
-447.895	800.000	-0.017	0.056
-446.880	-200.000	-0.018	0.356
-445.865	60.625	0.142	-0.140
-444.851	-5.318	-0.111	-0.076
-443.836	-200.000	0.047	-0.213
-442.822	-88.184	0.206	0.061
-441.807	800.000	-0.026	-0.079
-440.792	391.226	0.122	-0.253
-439.778	33.266	-0.193	-0.166
-438.763	-200.000	0.011	0.064
-437.749	-21.566	-0.072	0.044
-436.734	-200.000	-0.034	0.160
-435.719	-86.602	0.243	0.074
-434.705	222.702	-0.297	0.475
-433.690	-39.241	0.362	-0.189
-432.676	-59.180	-0.163	0.070
-431.661	-200.000	-0.000	-0.038
-430.646	78.147	0.210	0.223
-429.632	-200.000	-0.030	0.254
-428.617	-129.698	-0.322	0.044
-427.603	-200.000	-0.040	0.185
-426.588	-56.425	0.212	-0.094
-425.573	-200.000	0.005	-0.132
-424.559	-8.116	0.117	-0.078
-423.544	-42.227	0.133	0.067
-422.530	585.390	0.129	-0.315
-421.515	800.000	0.146	-0.417
-420.500	-200.000	-0.050	-0.387
-419.486	-167.498	-0.384	-0.015
-418.471	-120.735	0.189	0.032
-417.457	191.517	0.052	0.078
-416.442	-200.000	-0.024	0.295
-415.428	-106.466	-0.329	0.073
-414.413	283.060	-0.063	-0.113
-413.398	140.113	0.176	-0.231
-412.384	-12.878	-0.325	-0.210
-411.369	-60.391	0.214	0.091
-410.355	-120.218	-0.348	0.059
-409.340	516.225	0.098	-0.227
-408.325	-106.426	0.165	0.037
-407.311	800.000	-0.029	-0.113
-406.296	-5.196	-0.096	0.066
-405.282	-58.537	0.233	0.100
-404.267	476.697	0.132	0.297
-403.252	800.000	0.041	-0.146
-402.238	115.574	0.184	-0.224
-401.223	492.448	-0.055	-0.124
-400.209	-22.314	-0.041	-0.025
-399.194	78.213	-0.203	-0.215
-398.179	145.195	-0.096	0.128
-397.165	-15.375	-0.378	0.240
-396.150	149.306	0.154	-0.207
-395.136	-116.198	-0.071	0.013
-394.121	800.000	0.048	-0.155
-393.106	-85.655	-0.205	-0.063
-392.092	-200.000	0.013	0.118
-391.077	500.168	-0.104	-0.238
-390.063	-128.606	0.255	-0.036
-389.048	-200.000	-0.027	0.188
-388.033	-90.272	-0.141	0.041
-387.019	800.000	-0.053	-0.178
-386.004	-37.606	-0.067	-0.035
-384.990	-162.002	-0.248	-0.012
-383.975	30.338	0.319	0.270
-382.960	-200.000	0.007	0.200
-381.946	58.513	-0.053	0.051
-380.931	-119.934	0.137	0.023
-379.917	-200.000	-0.040	-0.221
-378.902	355.305	-0.090	0.177
-377.888	121.145	0.116	0.143
-376.873	800.000	-0.023	-0.082
-375.858	-40.357	-0.305	-0.157
-374.844	36.442	0.127	0.111
-373.829	-133.938	0.139	0.017
-372.815	-34.511	0.326	-0.177
-371.800	425.060	0.095	-0.202
-370.785	-168.820	-0.162	-0.006
-369.771	-148.560	0.221	-0.018
-368.756	232.708	0.063	0.102
-367.742	800.000	-0.025	0.077
-366.727	196.022	-0.051	0.077
-365.712	-40.249	0.023	0.012
-364.698	148.937	0.351	-0.471
-363.683	101.646	0.167	0.194
-362.669	-200.000	0.010	-0.199
-361.654	-200.000	-0.018	-0.102
-360.639	-138.146	0.141	0.015
-359.625	-22.548	0.263	0.158
-358.610	-99.039	-0.059	0.015
-357.596	209.970	0.101	-0.157
-356.581	-155.111	-0.276	-0.018
-355.566	-127.223	0.313	-0.045
-354.552	-136.028	0.030	-0.004
-353.537	-60.127	-0.153	0.065
-352.523	800.000	-0.057	0.167
-351.508	-76.066	-0.097	-0.034
-350.493	150.987	0.049	-0.067
-349.479	219.123	0.115	0.182
-348.464	800.000	-0.070	-0.265
-347.450	-107.042	-0.444	0.097
-346.435	-60.974	0.097	0.041
-345.420	274.406	0.077	-0.135
-344.406	202.434	0.178	-0.272
-343.391	24.388	0.201	-0.165
-342.377	-85.370	0.307	0.095
-341.362	131.275	-0.164	0.209
-340.348	-200.000	-0.012	0.172
-339.333	330.272	0.073	-0.139
-338.318	-136.400	0.345	-0.040
-337.304	800.000	-0.076	-0.230
-336.289	311.426	-0.076	0.140
-335.275	276.596	0.116	0.204
-334.260	-173.076	-0.232	-0.007
-333.245	-200.000	-0.048	-0.269
-332.231	800.000	0.061	0.205
-331.216	-200.000	0.060	0.402
-330.202	-121.322	-0.269	0.044
-329.187	-30.536	-0.335	-0.188
-328.172	-61.656	-0.248	-0.103
-327.158	-74.592	-0.084	0.030
-326.143	-200.000	0.067	-0.311
-325.129	165.013	0.181	-0.253
-324.114	483.504	-0.046	0.104
-323.099	-76.990	-0.262	-0.091
-322.085	81.141	-0.164	0.175
-321.070	283.645	-0.108	0.193
-320.056	-200.000	-0.017	0.091
-319.041	1.308	0.388	-0.276
-318.026	333.528	0.064	0.122
-317.012	-200.000	0.023	0.370
-315.997	-27.799	0.066	-0.038
-314.983	-54.815	0.211	0.094
-313.968	800.000	0.034	0.123
-312.953	363.588	0.153	-0.305
-311.939	-200.000	-0.046	-0.336
-310.924	800.000	-0.093	-0.262
-309.910	-142.525	0.147	0.014
-308.895	148.124	0.236	-0.316
-307.880	83.788	-0.081	0.087
-306.866	-181.129	-0.054	0.001
-305.851	348.580	-0.057	-0.110
-304.837	109.772	-0.129	-0.153
-303.822	714.115	0.113	-0.297
-302.807	-138.633	0.288	0.031
-301.793	-139.424	-0.459	-0.049
-300.778	-54.746	-0.333	-0.149
-299.764	-200.000	-0.036	0.211
-298.749	0.577	-0.150	-0.106
-297.735	-200.000	-0.019	0.283
-296.720	-160.879	-0.386	-0.020
-295.705	0.190	0.198	0.140
-294.691	-119.611	-0.194	-0.033
-293.676	547.588	0.052	0.122
-292.662	185.442	0.117	0.172
-291.647	-119.807	0.242	-0.041
-290.632	18.151	0.156	0.123
-289.618	-169.324	-0.091	0.003
-288.603	-200.000	0.018	0.251
-287.589	-34.964	-0.091	0.049
-286.574	-200.000	0.012	-0.100
-285.559	-200.000	0.019	0.101
-284.545	-190.857	-0.268	-0.003
-283.530	225.149	0.045	0.072
-282.516	-162.788	0.050	0.002
-281.501	-200.000	0.002	-0.072
-280.486	-20.974	-0.367	0.222
-279.472	-145.893	-0.311	-0.027
-278.457	66.532	0.245	-0.246
-277.443	298.084	0.014	0.025
-276.428	32.037	-0.035	0.030
-275.413	365.711	0.061	-0.121
-274.399	-200.000	-0.076	0.384
-273.384	800.000	0.071	0.271
-272.370	229.857	0.237	0.382
-271.355	-124.850	-0.057	-0.009
-270.340	-109.175	-0.316	0.066
-269.326	-51.667	0.271	0.125
-268.311	235.978	0.030	-0.049
-267.297	48.093	0.177	0.163
-266.282	6.975	-0.309	0.228
-265.267	6.969	-0.128	-0.094
-264.253	170.540	0.148	-0.209
-263.238	-79.203	-0.306	-0.103
-262.224	573.159	0.191	-0.459
-261.209	-137.373	-0.149	-0.017
-260.195	-2.199	0.143	0.099
-259.180	197.982	0.018	-0.027
-258.165	635.845	-0.032	-0.080
-257.151	768.421	0.150	0.402
-256.136	482.869	-0.118	-0.264
-255.122	180.336	-0.030	-0.044
-254.107	-33.223	-0.295	0.161
-253.092	-83.274	-0.323	-0.102
-252.078	-42.703	-0.206	0.104
-251.063	-22.264	-0.266	-0.159
-250.049	60.070	0.154	-0.150
-249.034	313.594	0.191	-0.355
-248.019	-72.498	0.283	0.103
-247.005	800.000	0.033	0.097
-245.990	25.264	0.041	0.034
-244.976	23.212	-0.137	0.111
-243.961	-71.517	0.269	0.099
-242.946	-13.019	-0.054	-0.035
-241.932	71.780	0.159	-0.163
-240.917	98.725	0.248	0.283
-239.903	194.798	-0.154	0.231
-238.888	-126.029	0.290	-0.043
-237.873	800.000	-0.078	0.312
-236.859	-200.000	-0.080	0.411
-235.844	271.977	0.127	-0.221
-234.830	0.773	-0.112	-0.079
-233.815	86.176	0.128	-0.139
-232.800	114.229	0.079	0.095
-231.786	23.068	0.169	0.137
-230.771	-200.000	-0.010	-0.150
-229.757	463.640	-0.039	-0.086
-228.742	-149.445	-0.322	-0.025
-227.727	-126.302	0.200	-0.029
-226.713	-21.275	-0.430	-0.259
-225.698	-154.170	-0.333	-0.022
-224.684	-45.635	0.160	-0.078
-223.669	211.180	-0.112	0.174
-222.655	0.288	-0.147	0.103
-221.640	-81.984	0.141	0.045
-220.625	-81.770	0.283	-0.091
-219.611	-200.000	0.011	-0.060
-218.596	-75.613	-0.165	0.058
-217.582	-200.000	-0.024	-0.231
-216.567	-104.290	0.258	-0.059
-215.552	568.441	-0.140	-0.336
-214.538	395.407	-0.130	0.267
-213.523	-200.000	0.002	0.036
-212.509	-109.727	0.336	0.070
-211.494	-175.350	0.361	-0.010
-210.479	143.200	-0.060	0.079
-209.465	800.000	-0.080	0.290
-208.450	67.950	-0.028	-0.028
-207.436	-5.661	-0.208	0.140
-206.421	-164.772	0.232	0.010
-205.406	-74.623	0.145	0.051
-204.392	92.033	-0.166	-0.185
-203.377	-146.970	0.224	-0.019
-202.363	-200.000	-0.028	0.414
-201.348	800.000	-0.053	-0.185
-200.333	-71.278	-0.154	0.057
-199.319	800.000	0.022	-0.089
-198.304	152.922	-0.098	-0.132
-197.290	-42.438	0.397	0.199
-196.275	-148.947	0.196	-0.016
-195.260	-90.548	-0.136	0.039
-194.246	17.430	-0.149	0.117
-193.231	-145.000	-0.166	-0.015
-192.217	131.866	-0.208	0.263
-191.202	429.628	-0.196	0.417
-190.187	-36.004	-0.109	0.058
-189.173	-0.047	-0.177	-0.124
-188.158	-200.000	0.029	0.148
-187.144	130.600	0.171	-0.215
-186.129	-128.953	-0.207	-0.029
-185.114	55.113	-0.343	-0.326
-184.100	86.517	-0.147	-0.159
-183.085	-58.392	0.081	0.035
-182.071	-161.561	0.209	0.011
-181.056	-16.128	-0.151	-0.095
-180.042	381.372	0.092	0.187
-179.027	64.279	0.156	-0.154
-178.012	-200.000	0.051	0.258
-176.998	-148.415	0.241	0.019
-175.983	-122.469	0.367	-0.059
-174.969	678.616	-0.038	0.096
-173.954	77.873	-0.143	0.150
-172.939	125.424	0.050	-0.062
-171.925	-200.000	0.043	0.194
-170.910	-53.376	-0.294	0.133
-169.896	169.203	0.008	0.011
-168.881	-200.000	-0.016	-0.281
-167.866	95.125	0.165	-0.185
-166.852	-200.000	0.007	0.284
-165.837	-86.359	0.153	-0.046
-164.823	201.188	-0.109	0.165
-163.808	6.974	-0.440	0.322
-162.793	105.221	0.232	-0.270
-161.779	800.000	0.039	-0.160
-160.764	-96.048	-0.220	-0.058
-159.750	800.000	-0.022	-0.071
-158.735	-77.475	0.164	-0.056
-157.720	-97.354	0.129	0.033
-156.706	85.124	-0.044	-0.047
-155.691	68.911	-0.052	-0.053
-154.677	-200.000	0.003	-0.249
-153.662	-171.447	-0.184	-0.006
-152.647	-200.000	-0.007	0.564
-151.633	-73.849	-0.161	-0.058
-150.618	137.845	0.110	0.141
-149.604	751.415	0.187	-0.495
-148.589	10.055	0.139	-0.104
-147.574	42.108	-0.194	0.173
-146.560	-140.245	0.059	-0.006
-145.545	-200.000	0.014	-0.114
-144.531	-175.277	-0.220	0.006
-143.516	-52.898	-0.134	0.061
-142.502	-89.773	0.269	0.077
-141.487	-62.059	0.238	-0.098
-140.472	-200.000	0.040	0.268
-139.458	180.049	0.060	-0.086
-138.443	198.402	-0.133	0.199
-137.429	800.000	-0.077	-0.319
-136.414	19.290	-0.256	0.202
-135.399	-200.000	-0.011	0.171
-134.385	-55.740	-0.224	0.098
-133.370	-200.000	-0.049	0.247
-132.356	800.000	0.057	0.190
-131.341	-20.880	-0.292	-0.176
-130.326	-170.833	0.208	0.007
-129.312	-29.712	-0.181	0.101
-128.297	-48.463	-0.074	-0.035
-127.283	71.671	0.025	0.026
-126.268	130.427	-0.098	-0.124
-125.253	0.201	-0.272	-0.190
-124.239	55.346	0.135	-0.128
-123.224	-96.717	0.164	-0.042
-122.210	350.413	0.149	-0.290
-121.195	296.224	0.061	0.110
-120.180	330.439	0.144	-0.272
-119.166	-51.868	0.141	0.065
-118.151	250.696	-0.202	0.336
-117.137	-121.518	-0.218	0.035
-116.122	-99.407	0.154	-0.038
-115.107	-200.000	0.020	-0.143
-114.093	-166.363	-0.303	0.012
-113.078	-12.309	-0.108	0.070
-112.064	156.323	0.038	0.051
-111.049	-200.000	-0.028	-0.170
-110.034	-27.172	0.177	0.101
-109.020	-44.732	-0.165	0.081
-108.005	-138.140	-0.309	-0.034
-106.991	742.700	0.048	0.125
-105.976	-200.000	-0.020	-0.086
-104.962	-44.519	-0.094	-0.046
-103.947	-125.573	0.169	0.025
-102.932	81.025	0.269	-0.284
-101.918	-114.899	0.306	-0.057
-100.903	800.000	0.041	0.154
-99.889	-38.732	0.076	0.039
-98.874	158.521	0.103	-0.140
-97.859	223.977	0.145	0.229
-96.845	342.656	-0.079	-0.152
-95.830	-114.500	0.313	-0.059
-94.816	51.204	-0.198	-0.184
-93.801	461.365	0.094	-0.205
-92.786	484.006	-0.122	0.273
-91.772	800.000	-0.068	0.271
-90.757	-106.503	-0.086	-0.019
-89.743	84.365	0.302	-0.324
-88.728	-78.445	0.194	-0.065
-87.713	86.649	0.014	0.015
-86.699	124.698	-0.155	-0.191
-85.684	-9.913	0.125	-0.081
-84.670	403.299	-0.090	-0.186
-83.655	800.000	-0.045	-0.178
-82.640	14.480	-0.091	0.070
-81.626	158.816	-0.080	-0.108
-80.611	43.227	0.140	-0.125
-79.597	-200.000	0.001	-0.234
-78.582	52.212	-0.163	0.152
-77.567	-200.000	0.001	0.239
-76.553	171.704	0.104	0.147
-75.538	-104.035	0.074	-0.017
-74.524	-34.315	0.127	0.068
-73.509	724.645	-0.102	-0.266
-72.494	-130.584	-0.058	-0.008
-71.480	-39.556	-0.274	0.140
-70.465	61.242	-0.272	-0.265
-69.451	-52.974	0.314	0.142
-68.436	-124.533	-0.201	-0.031
-67.422	-200.000	0.056	-0.288
-66.407	-200.000	-0.054	-0.497
-65.392	-165.279	-0.179	0.008
-64.378	-42.331	-0.180	0.090
-63.363	-100.560	0.154	0.037
-62.349	-68.888	0.309	-0.117
-61.334	43.010	-1.271	-1.136
-60.319	8.051	0.639	0.470
-59.305	800.000	-0.370	-1.087
-58.290	627.363	0.545	1.348
-57.276	397.228	0.838	1.715
-56.261	-200.000	107.171	625.940
-55.246	522.112	1513.170	3479.246
-54.232	175.007	2710.981	3844.355
-53.217	104.655	2293.987	2646.827
-52.203	38.477	1899.463	1658.114
-51.188	32.383	1685.954	1425.669
-50.173	29.755	1642.959	1369.818
-49.159	48.817	1696.785	1558.718
-48.144	48.909	1712.119	1573.436
-47.130	31.975	1669.156	1408.176
-46.115	29.299	1654.903	1376.152
-45.100	29.093	1650.071	1370.550
-44.086	29.208	1647.066	1368.850
-43.071	29.111	1644.397	1365.861
-42.057	28.999	1642.226	1363.174
-41.042	29.068	1640.442	1362.146
-40.027	29.026	1638.311	1360.016
-39.013	29.019	1635.995	1357.988
-37.998	29.082	1634.268	1356.964
-36.984	29.064	1633.761	1356.355
-35.969	29.144	1632.166	1355.567
-34.954	29.245	1630.391	1354.781
-33.940	29.153	1628.740	1352.678
-32.925	29.162	1627.085	1351.317
-31.911	29.176	1625.093	1349.710
-30.896	29.213	1623.442	1348.558
-29.881	29.148	1621.947	1346.786
-28.867	29.221	1620.433	1346.011
-27.852	29.180	1619.018	1344.482
-26.838	29.178	1617.404	1343.073
-25.823	29.161	1616.094	1341.809
-24.809	29.230	1614.718	1341.116
-23.794	29.254	1612.825	1339.667
-22.779	29.227	1611.615	1338.408
-21.765	29.241	1609.919	1337.053
-20.750	29.118	1609.022	1335.362
-19.736	29.139	1607.280	1334.013
-18.721	29.161	1605.633	1332.752
-17.706	29.166	1604.210	1331.557
-16.692	29.225	1602.358	1330.391
-15.677	29.286	1601.364	1329.957
-14.663	29.337	1600.123	1329.236
-13.648	29.212	1598.556	1326.983
-12.633	29.229	1596.690	1325.506
-11.619	29.186	1595.612	1324.247
-10.604	29.218	1593.949	1323.047
-9.590	29.184	1593.159	1322.089
-8.575	29.291	1591.217	1321.195
-7.560	29.241	1590.298	1320.024
-6.546	29.293	1588.679	1318.994
-5.531	29.226	1588.136	1318.012
-4.517	29.230	1587.007	1317.053
-3.502	29.257	1585.697	1316.107
-2.487	29.297	1584.318	1315.196
-1.473	29.049	1572.099	1303.242
-0.458	26.143	1553.028	1267.021
0.556	20.444	1554.247	1237.117
1.571	18.282	1579.041	1241.082
2.586	18.059	1592.704	1250.078
3.600	16.435	1540.425	1197.443
4.615	8.640	1431.442	1061.119
5.629	1.086	1368.216	966.137
6.644	-0.163	1359.568	952.036
7.659	-0.361	1358.606	950.020
8.673	-0.341	1357.218	949.095
9.688	-0.385	1355.865	947.782
10.702	-0.637	1352.634	943.856
11.717	2.539	1358.166	967.715
12.731	11.572	1375.438	1037.524
13.746	19.113	1388.803	1095.692
14.761	21.045	1391.315	1109.884
15.775	21.264	1390.915	1110.863
16.790	21.277	1390.447	1110.471
17.804	21.347	1389.878	1110.365
18.819	21.676	1389.555	1112.093
19.834	21.744	1389.098	1112.066
20.848	21.698	1388.129	1110.894
21.863	21.760	1387.319	1110.543
22.877	21.692	1386.455	1109.321
23.892	21.789	1385.665	1109.207
24.907	21.676	1385.061	1107.907
25.921	21.751	1383.787	1107.263
26.936	21.702	1383.046	1106.266
27.950	21.874	1381.582	1106.080
28.965	21.801	1380.732	1104.843
29.980	21.741	1379.255	1103.188
30.994	21.694	1378.389	1102.098
32.009	21.709	1377.128	1101.091
33.023	21.857	1375.762	1100.831
34.038	21.672	1375.035	1098.988
35.053	21.812	1373.469	1098.520
36.067	21.744	1372.691	1097.373
37.082	21.714	1371.731	1096.319
38.096	21.761	1370.614	1095.622
39.111	21.823	1370.178	1095.567
40.126	21.669	1369.794	1094.200
41.140	21.706	1369.277	1093.924
42.155	21.745	1368.727	1093.630
43.169	21.751	1368.415	1093.318
44.184	21.790	1368.130	1093.237
45.199	21.645	1368.299	1092.374
46.213	21.787	1367.166	1092.258
47.228	21.829	1366.327	1091.751
48.242	21.694	1364.893	1089.670
49.257	21.697	1363.719	1088.656
50.271	21.747	1361.962	1087.464
51.286	21.719	1360.985	1086.418
52.301	21.659	1359.601	1084.839
53.315	21.678	1358.766	1084.198
54.330	21.759	1358.205	1084.156
55.344	21.788	1357.170	1083.411
56.359	21.671	1356.086	1081.730
57.374	21.749	1355.267	1081.463
58.388	21.775	1354.514	1080.922
59.403	21.772	1354.298	1080.639
60.417	21.772	1353.598	1079.984
61.432	21.755	1352.599	1078.984
62.447	21.877	1351.189	1078.519
63.461	21.787	1350.733	1077.507
64.476	21.780	1349.865	1076.671
65.490	21.747	1348.607	1075.374
66.505	21.823	1346.647	1074.182
67.520	21.710	1345.750	1072.676
68.534	21.846	1344.380	1072.324
69.549	21.798	1343.400	1071.149
70.563	21.760	1342.758	1070.315
71.578	21.787	1341.821	1069.639
72.593	21.826	1340.714	1068.900
73.607	21.781	1340.168	1068.092
74.622	21.811	1339.248	1067.448
75.636	21.771	1338.607	1066.599
76.651	21.776	1337.985	1066.039
77.666	21.788	1337.464	1065.603
78.680	21.786	1336.714	1064.900
79.695	21.836	1335.791	1064.376
80.709	21.776	1335.347	1063.562
81.724	21.799	1334.133	1062.638
82.739	21.812	1332.885	1061.631
83.753	21.766	1332.484	1060.938
84.768	21.825	1330.493	1059.614
85.782	21.795	1330.227	1059.129
86.797	21.800	1328.869	1057.987
87.812	21.905	1327.475	1057.411
88.826	21.821	1326.539	1056.067
89.841	21.805	1325.829	1055.313
90.855	21.825	1325.004	1054.685
91.870	21.885	1324.004	1054.157
92.884	21.892	1323.056	1053.352
93.899	21.836	1322.346	1052.358
94.914	21.787	1321.667	1051.426
95.928	21.890	1320.632	1051.130
96.943	21.786	1320.265	1050.118
97.957	21.881	1319.288	1049.816
98.972	21.876	1317.869	1048.565
99.987	21.842	1317.471	1047.956
101.001	21.899	1316.201	1047.189
102.016	21.887	1315.122	1046.168
103.030	21.851	1314.267	1045.181
104.045	21.905	1313.353	1044.685
105.060	21.827	1312.433	1043.394
106.074	21.883	1311.704	1043.055
107.089	21.916	1310.819	1042.457
108.103	21.795	1309.480	1040.580
109.118	21.912	1308.259	1040.214
110.133	21.948	1306.989	1039.327
111.147	21.953	1306.118	1038.572
112.162	21.937	1304.458	1037.066
113.176	21.934	1303.831	1036.457
114.191	21.821	1303.079	1035.099
115.206	21.875	1302.120	1034.561
116.220	21.910	1300.898	1033.707
117.235	21.949	1299.658	1032.859
118.249	21.910	1299.038	1032.049
119.264	21.922	1297.870	1031.099
120.279	22.019	1297.039	1030.914
121.293	21.994	1296.067	1029.907
122.308	22.045	1295.413	1029.596
123.322	22.030	1294.057	1028.339
124.337	21.941	1293.513	1027.295
125.352	22.008	1292.293	1026.627
126.366	22.022	1291.531	1026.013
127.381	21.929	1290.914	1024.887
128.395	21.991	1289.779	1024.258
129.410	21.928	1288.838	1023.052
130.424	21.912	1288.198	1022.362
131.439	21.978	1287.190	1021.854
132.454	21.937	1286.629	1021.080
133.468	21.920	1285.790	1020.225
134.483	21.858	1285.494	1019.537
135.497	21.856	1284.347	1018.529
136.512	22.009	1283.039	1018.289
137.527	21.970	1281.936	1017.094
138.541	22.019	1280.609	1016.236
139.556	21.911	1279.247	1014.444
140.570	21.932	1278.718	1014.051
141.585	21.995	1276.878	1012.868
142.600	21.987	1275.609	1011.727
143.614	21.965	1275.209	1011.190
144.629	21.869	1274.221	1009.766
145.643	21.907	1273.354	1009.207
146.658	21.958	1272.433	1008.683
147.673	21.898	1271.245	1007.306
148.687	21.861	1270.802	1006.656
149.702	21.779	1269.289	1004.895
150.716	21.916	1267.980	1004.555
151.731	21.928	1267.074	1003.820
152.746	21.832	1266.428	1002.670
153.760	22.040	1264.671	1002.376
154.775	22.006	1264.212	1001.728
155.789	21.964	1263.043	1000.473
156.804	22.000	1262.006	999.769
157.819	22.027	1261.121	999.138
158.833	21.940	1260.805	998.304
159.848	22.067	1259.554	997.947
160.862	22.011	1258.819	996.957
161.877	22.071	1258.388	996.865
162.892	22.050	1257.333	995.825
163.906	22.133	1256.263	995.356
164.921	22.049	1255.769	994.401
165.935	22.166	1254.796	994.209
166.950	21.975	1254.497	992.802
167.964	22.061	1253.652	992.533
168.979	22.032	1252.997	991.760
169.994	22.067	1252.298	991.315
171.008	22.061	1251.905	990.883
172.023	22.085	1250.761	990.025
173.037	22.076	1250.547	989.721
174.052	22.175	1249.342	989.234
175.067	22.108	1248.360	987.993
176.081	22.158	1247.803	987.745
177.096	22.103	1247.151	986.832
178.110	22.065	1246.312	985.870
179.125	22.124	1245.051	985.115
180.140	22.133	1244.041	984.277
181.154	22.169	1243.031	983.597
182.169	22.059	1241.775	981.900
183.183	22.044	1241.213	981.281
184.198	22.196	1239.874	980.987
185.213	22.150	1238.898	979.872
186.227	22.200	1238.079	979.413
187.242	22.216	1237.289	978.790
188.256	22.201	1236.238	977.792
189.271	22.152	1235.821	977.105
190.286	22.259	1234.532	976.590
191.300	22.054	1234.577	975.403
192.315	22.196	1233.769	975.466
193.329	22.214	1233.221	975.044
194.344	22.268	1232.721	974.864
195.359	22.152	1232.318	973.813
196.373	22.162	1231.948	973.492
197.388	22.100	1231.848	972.984
198.402	22.138	1231.217	972.609
199.417	22.245	1230.607	972.635
200.432	22.240	1229.790	971.875
201.446	22.138	1229.518	971.007
202.461	22.204	1228.262	970.294
203.475	22.193	1227.592	969.618
204.490	22.169	1226.649	968.656
205.504	22.153	1226.199	968.126
206.519	22.227	1224.531	967.132
207.534	22.331	1223.617	966.896
208.548	22.213	1222.871	965.573
209.563	22.216	1222.142	964.927
210.577	22.262	1221.610	964.676
211.592	22.289	1220.358	963.751
212.607	22.344	1219.824	963.544
213.621	22.311	1219.129	962.728
214.636	22.349	1217.987	961.949
215.650	22.274	1217.785	961.297
216.665	22.403	1216.409	960.828
217.680	22.346	1215.378	959.615
218.694	22.251	1214.916	958.651
219.709	22.342	1214.085	958.406
220.723	22.268	1213.575	957.517
221.738	22.355	1212.589	957.123
222.753	22.233	1211.920	955.850
223.767	22.275	1211.377	955.563
224.782	22.381	1211.179	955.899
225.796	22.406	1210.580	955.481
226.811	22.404	1209.433	954.479
227.826	22.378	1208.917	953.847
228.840	22.517	1208.227	953.970
229.855	22.294	1207.969	952.471
230.869	22.271	1207.398	951.812
231.884	22.375	1206.269	951.402
232.899	22.322	1205.724	950.600
233.913	22.365	1205.485	950.559
234.928	22.373	1204.677	949.885
235.942	22.492	1203.888	949.817
236.957	22.488	1202.953	948.974
237.972	22.434	1202.605	948.326
238.986	22.452	1201.739	947.656
240.001	22.505	1201.385	947.579
241.015	22.657	1200.262	947.428
242.030	22.585	1199.630	946.458
243.045	22.600	1199.022	945.973
244.059	22.546	1198.176	944.934
245.074	22.568	1197.380	944.342
246.088	22.514	1196.977	943.646
247.103	22.610	1195.978	943.294
248.117	22.483	1195.866	942.441
249.132	22.631	1194.409	941.997
250.147	22.670	1193.437	941.359
251.161	22.495	1193.288	940.224
252.176	22.573	1192.427	939.876
253.190	22.689	1191.726	939.859
254.205	22.691	1190.748	939.016
255.220	22.616	1191.141	938.845
256.234	22.618	1189.823	937.733
257.249	22.697	1189.119	937.514
258.263	22.674	1188.842	937.092
259.278	22.725	1188.511	937.015
260.293	22.609	1187.380	935.427
261.307	22.698	1187.018	935.531
262.322	22.705	1186.601	935.155
263.336	22.631	1186.141	934.320
264.351	22.718	1185.155	933.918
265.366	22.723	1184.574	933.408
266.380	22.730	1183.825	932.769
267.395	22.755	1182.833	932.042
268.409	22.739	1182.211	931.384
269.424	22.742	1182.061	931.199
270.439	22.671	1181.392	930.213
271.453	22.659	1181.112	929.847
272.468	22.820	1179.821	929.595
273.482	22.681	1179.226	928.316
274.497	22.719	1178.872	928.153
275.512	22.736	1178.369	927.764
276.526	22.829	1177.554	927.530
277.541	22.733	1176.989	926.498
278.555	22.798	1176.487	926.359
279.570	22.825	1175.816	925.892
280.585	22.777	1174.993	924.913
281.599	22.900	1173.766	924.506
282.614	22.832	1172.652	923.193
283.628	22.843	1171.892	922.569
284.643	22.788	1171.309	921.741
285.657	22.850	1170.756	921.552
286.672	22.825	1169.710	920.516
287.687	22.858	1169.019	920.060
288.701	22.974	1168.150	919.897
289.716	22.906	1167.720	919.126
290.730	22.900	1167.242	918.638
291.745	22.989	1166.130	918.143
292.760	23.031	1165.558	917.830
293.774	22.969	1165.274	917.203
294.789	22.967	1164.733	916.683
295.803	22.991	1164.278	916.371
296.818	22.958	1163.310	915.357
297.833	23.103	1162.501	915.389
298.847	23.098	1161.942	914.840
299.862	23.060	1161.076	913.884
300.876	22.993	1160.722	913.177
301.891	23.126	1160.177	913.354
302.906	23.131	1159.207	912.537
303.920	23.143	1158.671	912.097
304.935	23.039	1158.392	911.258
305.949	23.106	1157.347	910.701
306.964	23.012	1157.090	909.936
307.979	23.088	1155.971	909.365
308.993	23.141	1155.213	908.958
310.008	23.036	1155.098	908.249
311.022	23.107	1154.180	907.815
312.037	23.110	1153.291	907.047
313.052	23.143	1152.328	906.378
314.066	23.157	1151.721	905.891
315.081	23.023	1151.366	904.851
316.095	23.230	1149.991	904.747
317.110	23.167	1149.727	904.136
318.125	23.132	1148.852	903.190
319.139	23.198	1148.446	903.129
320.154	23.139	1148.047	902.432
321.168	23.208	1146.864	901.772
322.183	23.233	1146.967	901.902
323.197	23.158	1146.282	900.904
324.212	23.285	1145.227	900.639
325.227	23.224	1144.884	899.982
326.241	23.300	1144.078	899.655
327.256	23.300	1143.501	899.119
328.270	23.250	1142.813	898.244
329.285	23.278	1142.221	897.841
330.300	23.396	1140.963	897.372
331.314	23.322	1140.278	896.378
332.329	23.452	1139.260	896.156
333.343	23.548	1138.173	895.705
334.358	23.362	1138.474	894.924
335.373	23.339	1137.884	894.265
336.387	23.419	1137.060	893.946
337.402	23.408	1136.154	893.098
338.416	23.442	1135.334	892.545
339.431	23.373	1135.289	892.080
340.446	23.549	1134.183	892.018
341.460	23.448	1133.656	891.016
342.475	23.493	1132.628	890.359
343.489	23.445	1132.324	889.799
344.504	23.515	1131.028	889.050
345.519	23.459	1130.155	888.005
346.533	23.466	1129.428	887.390
347.548	23.560	1128.532	887.079
348.562	23.561	1127.893	886.505
349.577	23.577	1127.178	885.945
350.592	23.504	1126.510	884.976
351.606	23.433	1125.948	884.104
352.621	23.609	1125.314	884.400
353.635	23.527	1124.982	883.657
354.650	23.529	1124.389	883.120
355.665	23.449	1123.940	882.291
356.679	23.569	1123.032	882.100
357.694	23.553	1122.587	881.590
358.708	23.587	1121.749	881.024
359.723	23.645	1120.789	880.481
360.738	23.539	1120.459	879.616
361.752	23.621	1120.000	879.583
362.767	23.687	1119.076	879.109
363.781	23.647	1118.770	878.593
364.796	23.705	1118.311	878.443
365.810	23.671	1117.479	877.544
366.825	23.736	1116.634	877.124
367.840	23.827	1116.246	877.186
368.854	23.814	1115.555	876.502
369.869	23.835	1115.214	876.260
370.883	23.814	1114.436	875.468
371.898	23.830	1113.215	874.512
372.913	23.830	1112.705	874.034
373.927	23.704	1112.660	873.303
374.942	23.794	1112.136	873.256
375.956	23.847	1111.579	873.001
376.971	23.807	1111.337	872.538
377.986	23.914	1110.834	872.589
379.000	23.849	1110.504	871.936
380.015	24.002	1109.443	871.772
381.029	23.771	1108.672	869.958
382.044	23.927	1107.927	870.059
383.059	23.826	1107.896	869.467
384.073	23.933	1106.916	869.144
385.088	24.042	1105.470	868.460
386.102	23.986	1104.976	867.722
387.117	23.989	1104.100	866.972
388.132	23.936	1103.135	865.883
389.146	23.901	1102.466	865.110
390.161	23.950	1102.082	864.970
391.175	23.986	1101.447	864.568
392.190	24.036	1100.722	864.167
393.205	23.944	1100.216	863.249
394.219	23.973	1099.342	862.628
395.234	24.106	1098.455	862.497
396.248	24.088	1097.478	861.567
397.263	24.174	1096.683	861.280
398.278	24.183	1095.946	860.669
399.292	24.044	1096.153	860.084
400.307	24.142	1094.905	859.505
401.321	24.170	1094.568	859.299
402.336	24.101	1093.873	858.345
403.350	24.202	1092.831	857.938
404.365	24.185	1092.257	857.329
405.380	24.206	1091.654	856.880
406.394	24.163	1091.029	856.105
407.409	24.208	1090.371	855.729
408.423	24.371	1089.512	855.762
409.438	24.191	1089.021	854.438
410.453	24.301	1088.276	854.305
411.467	24.354	1087.187	853.630
412.482	24.336	1086.772	853.143
413.496	24.240	1086.230	852.183
414.511	24.355	1085.488	852.073
415.526	24.341	1084.748	851.349
416.540	24.283	1084.578	850.865
417.555	24.219	1084.351	850.304
418.569	24.375	1083.442	850.259
419.584	24.418	1083.363	850.330
420.599	24.342	1082.609	849.301
421.613	148.669	1401.869	1797.920
422.628	137.332	1448.358	1798.001
