DTS Sentinel unit serial number:	SN413079Multiplexer serial number:	ORYXHardware model number:	OX4-SRSoftware version number:	ORYX F/W v4.00 Oryx Data Collector v3.7.2.0data status	okinstallation	princeton_trtdifferential loss correction	single-endedforward channel	channel 2reverse channel	N/Adate	2019/09/14time	06:15:35forward acquisition time	60.00reverse acquisition time	0.00gamma	496.2192k internal	0.2336k external	0.2336temperature offset calibration	1.0133default loss term (dB/km)	0.3790temperature slope calibration	1.0000multiplexer offset coefficient	1.0000multiplexer slope coefficient	1.0000fibre end	0.00T internal ref (°C)	26.67T ext. ref 1 (°C)	3.41T ext. ref 2 (°C)	20.73length (m)	temperature (°C)	Stokes	anti-Stokes-747.200	-200.000	-0.022	0.130
-746.185	260.264	-0.081	0.140
-745.171	-40.203	0.142	0.074
-744.156	-42.281	0.190	0.097
-743.142	-134.988	0.146	0.018
-742.127	-200.000	0.078	0.371
-741.112	800.000	-0.081	0.263
-740.098	-38.226	-0.274	0.146
-739.083	376.609	0.135	0.276
-738.069	89.808	-0.261	0.292
-737.054	-161.487	-0.171	0.009
-736.039	-170.374	-0.460	0.016
-735.025	-15.073	-0.323	0.208
-734.010	10.648	-0.076	-0.058
-732.996	-200.000	-0.035	0.177
-731.981	-11.081	-0.157	0.104
-730.966	-40.915	-0.151	0.079
-729.952	-149.290	0.139	0.011
-728.937	-118.853	0.131	0.023
-727.923	-200.000	0.001	-0.154
-726.908	255.077	0.091	0.157
-725.894	477.081	0.070	-0.159
-724.879	-144.018	-0.274	0.026
-723.864	-200.000	-0.001	-0.018
-722.850	-61.398	-0.119	0.050
-721.835	800.000	0.066	-0.277
-720.821	-185.925	0.094	0.001
-719.806	-200.000	-0.007	-0.153
-718.791	481.610	-0.050	-0.114
-717.777	-127.664	-0.120	0.017
-716.762	217.016	-0.080	0.127
-715.748	-147.569	-0.180	-0.015
-714.733	-83.875	0.264	-0.084
-713.718	81.753	-0.325	0.353
-712.704	-11.091	-0.159	0.105
-711.689	46.815	-0.150	-0.140
-710.675	-200.000	-0.018	-0.141
-709.660	800.000	-0.092	-0.330
-708.645	-200.000	0.024	-0.174
-707.631	-158.371	-0.125	0.007
-706.616	-77.704	-0.102	-0.035
-705.602	178.747	-0.077	-0.113
-704.587	-23.645	0.211	0.127
-703.572	-135.016	-0.248	0.030
-702.558	-51.687	-0.150	0.070
-701.543	-200.000	-0.029	-0.182
-700.529	-200.000	-0.044	0.240
-699.514	800.000	0.036	-0.120
-698.499	425.076	0.045	-0.098
-697.485	564.568	-0.080	-0.195
-696.470	-31.964	-0.326	0.183
-695.456	-171.206	0.131	-0.004
-694.441	-200.000	-0.023	-0.408
-693.426	404.120	0.219	-0.461
-692.412	-39.470	0.229	0.120
-691.397	-24.179	-0.157	-0.094
-690.383	30.520	0.210	0.180
-689.368	504.688	-0.152	0.352
-688.354	-13.045	-0.024	0.016
-687.339	-78.239	0.264	-0.091
-686.324	66.016	0.040	-0.041
-685.310	-39.848	0.195	-0.102
-684.295	32.921	-0.283	-0.245
-683.281	-19.884	0.106	0.065
-682.266	-37.206	-0.383	-0.205
-681.251	800.000	-0.057	-0.170
-680.237	-13.598	-0.350	-0.227
-679.222	-137.028	-0.157	0.018
-678.208	44.852	0.161	0.148
-677.193	256.964	0.121	-0.209
-676.178	-32.111	-0.260	-0.145
-675.164	113.012	0.035	-0.042
-674.149	71.513	-0.065	0.068
-673.135	-200.000	0.000	-0.074
-672.120	-200.000	0.037	0.216
-671.105	56.544	-0.204	-0.199
-670.091	-21.705	-0.184	-0.112
-669.076	-200.000	-0.059	0.330
-668.062	-200.000	0.017	0.118
-667.047	203.049	0.126	-0.195
-666.032	133.056	0.204	-0.264
-665.018	4.492	-0.165	-0.121
-664.003	800.000	-0.051	-0.159
-662.989	-69.208	0.049	0.019
-661.974	-180.656	-0.451	0.009
-660.959	528.658	-0.005	0.011
-659.945	-148.442	0.399	-0.033
-658.930	-48.677	-0.213	0.102
-657.916	55.366	-0.324	0.314
-656.901	-101.411	-0.165	-0.040
-655.886	207.834	0.241	-0.376
-654.872	233.605	0.022	-0.036
-653.857	16.240	-0.150	0.119
-652.843	450.993	0.060	-0.133
-651.828	34.001	0.039	0.034
-650.814	104.606	-0.120	-0.141
-649.799	-146.437	0.279	0.024
-648.784	44.456	-0.283	-0.260
-647.770	-200.000	-0.001	0.031
-646.755	-135.139	-0.127	-0.015
-645.741	-47.260	-0.272	-0.132
-644.726	-200.000	-0.040	-0.291
-643.711	-65.349	-0.325	0.131
-642.697	105.255	-0.106	0.125
-641.682	149.828	-0.193	0.261
-640.668	15.794	-0.061	-0.048
-639.653	-200.000	0.012	-0.221
-638.638	31.980	0.101	-0.087
-637.624	12.209	0.073	-0.056
-636.609	-200.000	0.029	0.172
-635.595	-50.568	-0.103	-0.049
-634.580	-200.000	0.011	0.270
-633.565	-125.951	-0.419	0.063
-632.551	24.522	0.080	0.066
-631.536	-200.000	-0.032	-0.211
-630.522	412.555	-0.062	0.132
-629.507	276.915	-0.123	-0.219
-628.492	248.717	-0.120	-0.203
-627.478	-45.748	-0.134	-0.066
-626.463	-26.510	0.081	-0.048
-625.449	-125.572	-0.219	0.033
-624.434	135.409	-0.166	-0.215
-623.419	-128.503	0.098	0.014
-622.405	-98.578	-0.225	-0.058
-621.390	-200.000	-0.001	-0.077
-620.376	-136.380	0.205	-0.024
-619.361	415.293	0.014	-0.030
-618.346	-133.481	-0.266	-0.033
-617.332	604.991	-0.077	-0.191
-616.317	-50.247	-0.171	0.081
-615.303	-29.118	0.398	0.228
-614.288	-76.970	-0.029	0.010
-613.273	800.000	0.120	0.353
-612.259	264.296	-0.092	0.161
-611.244	98.297	-0.327	0.376
-610.230	-177.445	0.158	0.004
-609.215	-194.373	-0.140	-0.001
-608.201	57.937	-0.063	0.061
-607.186	-57.282	0.233	-0.103
-606.171	64.646	0.151	-0.152
-605.157	-200.000	-0.041	0.212
-604.142	143.758	-0.120	-0.159
-603.128	800.000	0.071	-0.207
-602.113	-78.972	-0.299	0.102
-601.098	-34.754	0.194	0.106
-600.084	-22.629	0.341	-0.206
-599.069	-108.926	0.174	0.037
-598.055	-200.000	-0.030	-0.319
-597.040	-196.822	-0.145	0.001
-596.025	569.051	-0.049	-0.119
-595.011	68.762	0.284	-0.291
-593.996	800.000	0.027	0.093
-592.982	800.000	-0.076	0.280
-591.967	204.214	-0.144	0.223
-590.952	-119.416	0.130	-0.022
-589.938	20.659	-0.339	-0.274
-588.923	698.537	0.148	0.388
-587.909	-12.747	-0.215	-0.140
-586.894	-200.000	0.106	0.505
-585.879	62.107	-0.118	-0.118
-584.865	385.144	-0.074	-0.153
-583.850	260.261	-0.050	0.086
-582.836	800.000	0.054	0.179
-581.821	-200.000	0.001	0.191
-580.806	-65.864	-0.142	0.057
-579.792	-200.000	-0.047	-0.241
-578.777	-22.699	0.157	0.095
-577.763	-40.345	-0.261	0.135
-576.748	6.605	0.345	0.256
-575.733	-116.715	0.298	-0.055
-574.719	-131.523	-0.184	-0.024
-573.704	-200.000	0.042	0.298
-572.690	68.688	-0.112	-0.114
-571.675	-187.713	0.115	0.002
-570.661	-135.950	-0.358	-0.042
-569.646	800.000	-0.102	-0.289
-568.631	-200.000	0.006	-0.168
-567.617	-35.281	-0.129	-0.070
-566.602	157.528	0.041	0.056
-565.588	21.296	0.157	0.127
-564.573	-139.968	0.195	0.021
-563.558	-200.000	-0.178	0.000
-562.544	24.980	0.168	0.139
-561.529	238.613	-0.032	-0.052
-560.515	800.000	0.090	-0.313
-559.500	-170.003	-0.312	-0.011
-558.485	133.621	-0.085	0.110
-557.471	-200.000	0.018	0.139
-556.456	800.000	0.053	0.205
-555.442	321.543	0.191	0.362
-554.427	323.995	0.053	0.101
-553.412	-161.253	0.101	0.005
-552.398	-200.000	0.054	-0.391
-551.383	38.887	0.450	0.401
-550.369	-200.000	0.082	-0.396
-549.354	530.943	-0.052	0.123
-548.339	749.586	0.051	-0.136
-547.325	800.000	-0.068	-0.214
-546.310	-24.760	-0.224	-0.133
-545.296	9.703	0.371	-0.281
-544.281	-85.621	0.151	-0.047
-543.266	-200.000	0.009	0.351
-542.252	-66.187	0.244	0.097
-541.237	115.046	0.114	-0.138
-540.223	130.931	0.309	-0.395
-539.208	107.953	-0.201	-0.238
-538.193	-200.000	0.021	-0.094
-537.179	424.392	0.254	-0.545
-536.164	-200.000	-0.034	-0.194
-535.150	155.185	0.135	-0.185
-534.135	-200.000	-0.003	-0.358
-533.121	-200.000	0.100	-0.468
-532.106	-91.297	0.035	0.010
-531.091	-30.204	0.124	-0.070
-530.077	-104.662	0.292	-0.067
-529.062	159.795	0.158	-0.219
-528.048	-134.069	-0.316	-0.039
-527.033	-200.000	0.008	0.076
-526.018	141.398	-0.214	-0.282
-525.004	-200.000	-0.011	0.180
-523.989	-200.000	-0.012	-0.082
-522.975	44.352	0.057	0.052
-521.960	-200.000	-0.004	0.189
-520.945	-91.949	-0.188	-0.053
-519.931	-200.000	0.010	-0.414
-518.916	-182.331	-0.090	0.002
-517.902	800.000	-0.058	-0.175
-516.887	-138.747	-0.243	0.026
-515.872	-200.000	-0.010	-0.136
-514.858	11.588	-0.106	0.081
-513.843	-76.427	0.396	-0.139
-512.829	-200.000	-0.002	0.291
-511.814	-21.756	0.212	0.129
-510.799	-93.032	-0.215	0.059
-509.785	-200.000	0.017	0.406
-508.770	-88.565	0.130	-0.039
-507.756	-68.090	0.073	-0.028
-506.741	-200.000	-0.022	-0.258
-505.726	187.821	0.068	-0.101
-504.712	-62.297	-0.413	-0.171
-503.697	800.000	-0.058	0.197
-502.683	12.385	-0.262	-0.201
-501.668	42.058	-0.210	-0.189
-500.653	-94.164	-0.075	0.020
-499.639	-179.717	-0.189	0.004
-498.624	157.414	0.048	-0.066
-497.610	69.881	-0.194	0.199
-496.595	225.796	-0.232	0.374
-495.581	-200.000	0.020	-0.125
-494.566	800.000	0.029	0.127
-493.551	-115.045	0.046	-0.009
-492.537	800.000	0.058	0.196
-491.522	-52.891	0.118	0.054
-490.508	-154.714	0.049	-0.003
-489.493	-72.623	-0.251	-0.092
-488.478	-64.648	0.354	-0.143
-487.464	-200.000	0.025	0.331
-486.449	-44.607	-0.230	0.114
-485.435	-200.000	0.023	-0.266
-484.420	-65.362	0.363	0.145
-483.405	-106.828	0.115	0.025
-482.391	-2.654	-0.306	0.213
-481.376	-90.731	0.207	0.059
-480.362	-200.000	-0.047	0.240
-479.347	-197.290	-0.179	-0.001
-478.332	800.000	-0.026	-0.080
-477.318	-50.766	-0.290	-0.135
-476.303	202.761	-0.053	-0.081
-475.289	800.000	0.095	0.364
-474.274	-200.000	0.014	0.322
-473.259	311.336	0.086	0.161
-472.245	-94.712	-0.162	-0.044
-471.230	-151.284	-0.111	-0.008
-470.216	516.602	-0.025	-0.057
-469.201	-70.679	-0.054	-0.020
-468.186	-60.277	-0.035	-0.015
-467.172	-200.000	-0.005	0.085
-466.157	135.066	0.262	-0.338
-465.143	-95.221	0.207	0.056
-464.128	121.158	0.225	-0.279
-463.113	-200.000	0.039	-0.472
-462.099	-200.000	-0.004	0.065
-461.084	165.432	0.107	0.151
-460.070	43.039	0.151	-0.136
-459.055	-15.554	0.257	-0.163
-458.040	-78.316	0.173	0.059
-457.026	167.528	-0.221	0.311
-456.011	-200.000	-0.033	0.181
-454.997	-200.000	-0.011	-0.114
-453.982	-122.734	-0.125	-0.020
-452.968	-77.880	-0.211	-0.072
-451.953	-108.955	-0.234	-0.050
-450.938	-200.000	-0.039	-0.189
-449.924	239.391	-0.115	0.189
-448.909	800.000	0.044	-0.122
-447.895	5.433	0.288	0.211
-446.880	-27.573	-0.117	-0.068
-445.865	12.894	0.244	-0.187
-444.851	18.764	-0.166	-0.132
-443.836	-200.000	0.085	-0.404
-442.822	286.324	-0.160	0.287
-441.807	-23.065	0.237	0.142
-440.792	-81.950	0.127	0.041
-439.778	8.454	0.131	0.097
-438.763	-9.055	0.018	0.012
-437.749	800.000	-0.064	0.267
-436.734	316.268	-0.103	0.194
-435.719	-3.480	0.066	-0.045
-434.705	747.369	-0.064	0.170
-433.690	800.000	-0.077	0.226
-432.676	-200.000	-0.062	0.445
-431.661	-113.045	-0.099	0.019
-430.646	710.454	0.031	0.082
-429.632	149.436	-0.162	0.218
-428.617	-25.704	0.216	0.126
-427.603	-200.000	-0.002	0.137
-426.588	800.000	0.089	0.278
-425.573	-200.000	0.041	0.414
-424.559	-89.739	0.413	-0.120
-423.544	-71.991	-0.233	-0.086
-422.530	-45.790	0.103	-0.050
-421.515	-92.611	-0.013	0.004
-420.500	24.335	-0.196	-0.160
-419.486	-200.000	0.028	-0.235
-418.471	-114.660	-0.236	0.045
-417.457	348.876	0.058	-0.113
-416.442	695.784	-0.075	-0.196
-415.428	18.221	0.183	0.144
-414.413	-37.792	-0.068	-0.036
-413.398	283.293	-0.059	0.106
-412.384	31.922	-0.314	-0.268
-411.369	800.000	-0.007	0.026
-410.355	-102.804	-0.118	0.028
-409.340	69.479	0.184	-0.188
-408.325	274.733	-0.173	0.304
-407.311	-200.000	-0.011	-0.441
-406.296	-200.000	0.013	-0.364
-405.282	-199.242	0.202	0.001
-404.267	-102.455	0.499	-0.118
-403.252	-200.000	0.037	-0.270
-402.238	157.555	0.091	0.125
-401.223	235.973	-0.087	0.142
-400.209	-70.925	0.172	-0.064
-399.194	-87.995	0.444	-0.132
-398.179	-200.000	0.023	-0.271
-397.165	-107.194	0.076	0.016
-396.150	-200.000	-0.034	0.445
-395.136	-124.382	-0.200	-0.031
-394.121	115.338	-0.195	-0.236
-393.106	260.701	-0.040	-0.068
-392.092	90.736	0.282	-0.313
-391.077	-200.000	0.027	0.224
-390.063	-50.556	-0.184	0.086
-389.048	202.905	0.094	-0.144
-388.033	99.217	0.172	-0.197
-387.019	-52.126	0.214	-0.098
-386.004	-112.662	-0.280	-0.055
-384.990	99.037	0.096	0.109
-383.975	-102.818	-0.454	-0.107
-382.960	-200.000	0.021	0.253
-381.946	78.177	-0.130	-0.138
-380.931	45.615	-0.131	-0.120
-379.917	-17.385	0.086	0.054
-378.902	800.000	0.079	0.256
-377.888	11.571	-0.051	-0.039
-376.873	-200.000	-0.022	-0.118
-375.858	800.000	-0.148	0.432
-374.844	225.377	0.079	0.126
-373.829	-63.116	0.235	-0.096
-372.815	94.741	0.204	-0.229
-371.800	-57.437	-0.293	-0.127
-370.785	-200.000	-0.050	0.224
-369.771	604.797	0.120	-0.296
-368.756	535.655	-0.051	0.119
-367.742	-200.000	0.004	0.106
-366.727	66.591	0.089	0.090
-365.712	-144.870	-0.089	0.008
-364.698	-200.000	-0.013	-0.136
-363.683	78.037	-0.112	0.118
-362.669	88.185	0.207	0.228
-361.654	228.112	-0.171	-0.276
-360.639	276.605	-0.099	-0.173
-359.625	-70.311	0.153	0.057
-358.610	800.000	-0.092	-0.272
-357.596	291.134	-0.048	-0.086
-356.581	-74.769	-0.149	-0.053
-355.566	-128.701	-0.411	-0.057
-354.552	-44.825	0.268	-0.132
-353.537	75.162	-0.229	0.238
-352.523	-11.891	0.153	0.099
-351.508	157.650	0.218	0.298
-350.493	-69.081	0.176	0.067
-349.479	-200.000	0.042	0.396
-348.464	13.881	-0.184	0.141
-347.450	-75.084	0.067	-0.024
-346.435	-200.000	0.015	-0.235
-345.420	800.000	-0.007	0.029
-344.406	-29.279	0.106	-0.060
-343.391	-105.230	0.385	-0.087
-342.377	74.973	-0.232	0.242
-341.362	-38.512	0.161	-0.084
-340.348	-151.719	-0.413	-0.030
-339.333	-63.470	-0.119	-0.048
-338.318	213.946	0.131	0.204
-337.304	132.490	-0.083	0.106
-336.289	177.060	-0.085	-0.123
-335.275	-102.355	0.125	-0.030
-334.260	-142.288	0.185	-0.018
-333.245	247.249	0.147	0.245
-332.231	-200.000	-0.054	0.310
-331.216	180.448	-0.160	-0.233
-330.202	-85.339	0.073	-0.023
-329.187	7.749	-0.176	0.131
-328.172	-81.683	0.114	-0.037
-327.158	60.917	0.160	-0.157
-326.143	648.921	0.137	0.347
-325.129	785.155	-0.126	-0.340
-324.114	-147.353	-0.357	-0.030
-323.099	619.398	0.106	-0.264
-322.085	-200.000	-0.046	-0.256
-321.070	48.559	-0.098	-0.091
-320.056	138.466	-0.134	-0.174
-319.041	2.034	0.125	-0.089
-318.026	122.144	0.183	-0.225
-317.012	35.909	0.090	0.078
-315.997	-22.518	-0.196	-0.117
-314.983	645.319	-0.066	0.167
-313.968	-1.557	0.038	0.027
-312.953	112.460	0.150	-0.179
-311.939	-200.000	-0.015	0.091
-310.924	31.388	0.090	0.077
-309.910	800.000	-0.106	0.313
-308.895	110.813	-0.124	-0.147
-307.880	-149.086	0.182	0.014
-306.866	-99.231	0.273	0.068
-305.851	-200.000	0.021	0.139
-304.837	-130.209	-0.055	-0.007
-303.822	-200.000	-0.052	-0.233
-302.807	-10.364	0.206	0.135
-301.793	114.823	-0.164	0.197
-300.778	683.002	0.050	0.128
-299.764	-90.007	0.146	-0.042
-298.749	67.345	0.180	0.182
-297.735	434.701	0.288	0.618
-296.720	-141.431	0.199	0.020
-295.705	45.205	0.086	0.078
-294.691	-24.345	0.312	-0.184
-293.676	-200.000	0.048	0.211
-292.662	43.391	-0.088	-0.079
-291.647	26.396	-0.144	-0.118
-290.632	800.000	-0.074	0.269
-289.618	361.737	0.110	-0.217
-288.603	-5.180	-0.210	-0.143
-287.589	76.542	0.099	-0.103
-286.574	297.925	-0.043	0.078
-285.559	218.716	-0.159	0.251
-284.545	-40.055	-0.152	0.078
-283.530	-148.271	0.234	0.019
-282.516	189.543	-0.251	-0.371
-281.501	57.485	-0.172	0.165
-280.486	800.000	-0.074	-0.250
-279.472	800.000	-0.196	-0.539
-278.457	-200.000	0.038	0.364
-277.443	17.068	0.242	-0.189
-276.428	-59.985	0.171	-0.072
-275.413	83.314	0.107	-0.115
-274.399	800.000	0.092	0.326
-273.384	-40.845	0.355	0.181
-272.370	217.857	0.172	0.270
-271.355	-200.000	0.010	-0.142
-270.340	-4.787	-0.153	0.104
-269.326	138.125	-0.107	-0.138
-268.311	-200.000	-0.040	-0.305
-267.297	140.501	-0.043	0.055
-266.282	-200.000	-0.040	-0.188
-265.267	91.817	-0.083	0.092
-264.253	713.939	-0.064	0.167
-263.238	-5.205	0.048	-0.032
-262.224	-129.569	0.161	-0.022
-261.209	-124.849	-0.496	0.075
-260.195	-28.074	0.066	0.038
-259.180	13.850	0.270	0.207
-258.165	314.762	-0.032	-0.060
-257.151	190.349	-0.063	-0.093
-256.136	-30.265	-0.060	-0.034
-255.122	573.211	0.104	0.249
-254.107	-62.449	-0.124	-0.051
-253.092	131.687	0.080	0.101
-252.078	160.522	0.107	-0.147
-251.063	-146.834	0.046	0.004
-250.049	519.386	0.133	0.306
-249.034	139.338	0.253	-0.328
-248.019	800.000	0.076	-0.260
-247.005	30.097	0.255	0.214
-245.990	800.000	-0.036	0.109
-244.976	-11.857	0.149	-0.096
-243.961	-125.591	-0.457	-0.068
-242.946	77.497	-0.193	-0.202
-241.932	-82.950	-0.325	0.103
-240.917	472.429	0.051	0.114
-239.903	456.506	-0.090	0.197
-238.888	87.313	-0.217	-0.237
-237.873	698.134	-0.048	0.123
-236.859	-36.247	-0.167	-0.089
-235.844	-180.342	0.322	-0.007
-234.830	86.073	-0.158	-0.172
-233.815	500.774	-0.101	0.230
-232.800	-46.449	0.128	0.062
-231.786	143.030	0.197	0.258
-230.771	217.160	0.098	0.154
-229.757	-200.000	-0.023	-0.187
-228.742	-131.074	-0.243	-0.032
-227.727	-89.362	-0.323	0.094
-226.713	5.941	-0.078	0.057
-225.698	41.553	-0.079	0.071
-224.684	63.033	0.316	0.311
-223.669	-25.194	0.014	0.008
-222.655	-62.715	0.262	0.107
-221.640	-3.738	0.146	-0.100
-220.625	800.000	0.050	-0.202
-219.611	264.489	0.089	-0.153
-218.596	52.891	-0.127	-0.120
-217.582	-200.000	-0.023	-0.195
-216.567	-200.000	0.020	-0.214
-215.552	-41.416	0.220	-0.112
-214.538	-126.642	0.291	-0.042
-213.523	144.916	0.205	-0.270
-212.509	-27.036	-0.089	0.051
-211.494	-61.384	0.108	0.045
-210.479	-200.000	0.003	-0.050
-209.465	-193.953	-0.228	-0.002
-208.450	225.681	-0.097	0.154
-207.436	800.000	0.061	-0.236
-206.421	-118.519	0.209	-0.036
-205.406	-200.000	-0.007	-0.129
-204.392	141.039	0.104	-0.136
-203.377	-77.709	-0.050	-0.017
-202.363	-200.000	0.009	-0.262
-201.348	-200.000	0.030	0.136
-200.333	-29.137	-0.188	0.106
-199.319	800.000	0.043	0.141
-198.304	-116.545	-0.206	0.037
-197.290	-200.000	-0.005	-0.156
-196.275	579.214	-0.075	-0.181
-195.260	62.490	-0.028	0.028
-194.246	75.731	0.142	0.147
-193.231	126.411	-0.211	0.262
-192.217	137.917	0.192	-0.247
-191.202	800.000	-0.079	-0.331
-190.187	-35.949	0.169	0.090
-189.173	-163.833	0.182	0.008
-188.158	531.504	-0.135	0.313
-187.144	56.688	0.097	0.093
-186.129	-181.584	-0.045	-0.001
-185.114	13.431	-0.209	-0.159
-184.100	-43.974	0.142	-0.070
-183.085	-200.000	0.043	0.217
-182.071	40.131	-0.144	0.127
-181.056	202.110	-0.185	-0.280
-180.042	-85.212	0.107	0.033
-179.027	571.276	-0.053	-0.128
-178.012	322.271	-0.065	-0.122
-176.998	-200.000	-0.050	-0.423
-175.983	6.456	-0.385	-0.281
-174.969	-108.861	0.236	-0.049
-173.954	-200.000	0.053	0.574
-172.939	85.717	-0.081	0.088
-171.925	132.962	-0.068	0.087
-170.910	604.868	0.161	0.394
-169.896	-200.000	-0.116	-0.597
-168.881	165.324	0.318	0.441
-167.866	-166.965	-0.193	0.008
-166.852	19.293	0.111	-0.088
-165.837	-100.620	-0.133	-0.032
-164.823	-200.000	0.009	0.494
-163.808	161.674	0.074	0.102
-162.793	-129.145	-0.353	-0.048
-161.779	-200.000	0.014	0.354
-160.764	800.000	0.093	0.286
-159.750	-200.000	0.008	-0.104
-158.735	-62.470	-0.375	0.153
-157.720	-200.000	-0.006	0.367
-156.706	-59.673	0.216	-0.091
-155.691	62.126	-0.107	0.105
-154.677	-200.000	0.038	0.196
-153.662	322.976	0.027	-0.051
-152.647	194.441	0.214	0.318
-151.633	-79.350	-0.129	0.043
-150.618	-200.000	-0.029	-0.143
-149.604	-132.447	-0.065	-0.008
-148.589	228.859	-0.114	-0.183
-147.574	160.046	-0.234	0.320
-146.560	-26.638	0.218	0.125
-145.545	-200.000	0.035	-0.159
-144.531	-0.275	-0.080	0.056
-143.516	800.000	-0.090	0.357
-142.502	-108.020	-0.604	0.128
-141.487	-11.534	0.345	0.222
-140.472	210.514	-0.140	0.216
-139.458	-69.441	-0.066	-0.025
-138.443	484.964	0.129	0.289
-137.429	-98.757	0.256	-0.064
-136.414	97.266	0.272	-0.307
-135.399	-200.000	0.023	-0.202
-134.385	83.801	-0.167	0.178
-133.370	-69.373	-0.084	-0.032
-132.356	243.126	-0.098	0.161
-131.341	-200.000	-0.001	-0.021
-130.326	77.560	0.175	0.182
-129.312	-200.000	0.057	0.292
-128.297	800.000	0.084	-0.319
-127.283	126.898	-0.086	-0.107
-126.268	148.109	-0.137	0.181
-125.253	462.340	-0.164	-0.360
-124.239	711.928	-0.055	0.143
-123.224	307.044	-0.122	0.222
-122.210	800.000	-0.039	-0.152
-121.195	145.884	-0.244	-0.320
-120.180	800.000	0.040	0.113
-119.166	-174.982	-0.226	-0.006
-118.151	-112.791	0.287	-0.056
-117.137	-200.000	-0.021	-0.265
-116.122	52.772	-0.216	-0.202
-115.107	532.779	0.061	0.143
-114.093	196.570	-0.088	0.131
-113.078	800.000	-0.079	-0.288
-112.064	-200.000	0.033	-0.261
-111.049	-83.682	0.122	0.038
-110.034	-57.098	0.105	-0.045
-109.020	8.089	-0.173	-0.128
-108.005	-138.678	0.210	0.022
-106.991	-104.952	-0.275	-0.062
-105.976	652.492	-0.059	0.149
-104.962	-85.244	0.042	-0.013
-103.947	-200.000	-0.033	-0.173
-102.932	236.348	0.147	0.239
-101.918	494.942	-0.037	0.084
-100.903	-89.015	0.272	-0.079
-99.889	800.000	-0.089	-0.273
-98.874	-200.000	-0.064	0.286
-97.859	95.459	-0.141	0.157
-96.845	83.660	0.183	0.196
-95.830	-142.167	-0.280	-0.027
-94.816	-56.348	0.236	-0.102
-93.801	171.843	-0.208	-0.292
-92.786	-200.000	0.043	0.285
-91.772	178.471	0.208	0.297
-90.757	-200.000	-0.044	0.220
-89.743	-136.728	-0.158	0.018
-88.728	32.527	-0.141	0.119
-87.713	170.793	-0.060	-0.084
-86.699	-37.005	0.271	-0.142
-85.684	0.639	0.129	0.090
-84.670	800.000	0.048	0.144
-83.655	315.428	0.128	0.237
-82.640	129.967	-0.129	0.161
-81.626	-111.682	-0.111	-0.022
-80.611	211.768	-0.069	-0.106
-79.597	-200.000	-0.001	0.025
-78.582	-8.519	0.192	0.126
-77.567	800.000	0.090	0.289
-76.553	-200.000	0.049	0.256
-75.538	-164.387	-0.538	0.024
-74.524	-200.000	0.024	0.129
-73.509	-122.509	0.135	-0.021
-72.494	649.376	-0.041	0.103
-71.480	800.000	0.051	-0.198
-70.465	170.287	0.082	0.115
-69.451	-44.460	0.097	-0.048
-68.436	-200.000	-0.036	-0.194
-67.422	21.233	0.180	-0.143
-66.407	-106.145	-0.500	0.110
-65.392	293.696	0.089	0.159
-64.378	-44.985	-0.231	-0.112
-63.363	749.476	0.088	0.233
-62.349	-200.000	0.004	0.140
-61.334	70.491	-1.205	-1.218
-60.319	58.553	0.722	0.693
-59.305	-200.000	-0.338	-1.481
-58.290	283.467	0.568	0.998
-57.276	257.516	0.869	1.461
-56.261	-200.000	116.067	649.742
-55.246	509.613	1540.938	3501.118
-54.232	173.746	2725.217	3844.966
-53.217	99.934	2303.880	2609.332
-52.203	35.875	1908.705	1640.786
-51.188	29.747	1699.607	1414.280
-50.173	27.347	1657.759	1361.466
-49.159	48.058	1714.784	1566.460
-48.144	46.676	1728.054	1568.016
-47.130	29.342	1686.221	1399.839
-46.115	26.718	1671.606	1367.876
-45.100	26.585	1666.460	1362.610
-44.086	26.553	1663.904	1360.227
-43.071	26.507	1661.552	1357.906
-42.057	26.480	1659.284	1355.794
-41.042	26.477	1657.105	1353.939
-40.027	26.456	1655.610	1352.507
-39.013	26.477	1653.162	1350.609
-37.998	26.509	1651.283	1349.256
-36.984	26.596	1650.099	1348.889
-35.969	26.641	1648.449	1347.817
-34.954	26.673	1647.057	1346.866
-33.940	26.685	1645.266	1345.434
-32.925	26.652	1643.562	1343.747
-31.911	26.697	1641.834	1342.611
-30.896	26.635	1640.105	1340.683
-29.881	26.677	1638.371	1339.529
-28.867	26.635	1637.450	1338.406
-27.852	26.591	1636.213	1337.019
-26.838	26.715	1634.240	1336.269
-25.823	26.658	1633.058	1334.833
-24.809	26.723	1631.240	1333.768
-23.794	26.632	1630.224	1332.218
-22.779	26.763	1628.475	1331.700
-21.765	26.678	1627.092	1329.889
-20.750	26.720	1625.292	1328.675
-19.736	26.719	1623.923	1327.494
-18.721	26.750	1622.487	1326.495
-17.706	26.710	1620.805	1324.775
-16.692	26.605	1619.919	1323.231
-15.677	26.789	1617.846	1322.827
-14.663	26.679	1617.040	1321.310
-13.648	26.684	1615.389	1319.950
-12.633	26.720	1613.856	1318.904
-11.619	26.742	1612.158	1317.621
-10.604	26.690	1610.859	1316.135
-9.590	26.727	1609.596	1315.319
-8.575	26.740	1608.253	1314.263
-7.560	26.760	1606.769	1313.144
-6.546	26.723	1605.984	1312.179
-5.531	26.682	1605.181	1311.176
-4.517	26.752	1603.525	1310.275
-3.502	26.719	1602.254	1308.946
-2.487	26.769	1600.930	1308.178
-1.473	26.420	1588.166	1295.198
-0.458	23.455	1568.654	1258.223
0.556	20.668	1570.502	1225.451
1.571	18.224	1595.329	1227.199
2.586	17.700	1607.468	1232.643
3.600	15.580	1551.867	1175.087
4.615	9.264	1444.614	1052.534
5.629	4.205	1386.243	978.066
6.644	3.418	1378.882	967.844
7.659	3.355	1377.675	966.518
8.673	3.378	1376.561	965.795
9.688	3.489	1374.793	965.161
10.702	3.419	1371.881	962.596
11.717	5.627	1376.155	979.327
12.731	12.675	1388.464	1032.331
13.746	18.724	1398.654	1077.906
14.761	20.359	1400.251	1089.310
15.775	19.722	1398.202	1083.630
16.790	18.710	1395.495	1075.100
17.804	17.900	1393.529	1068.425
18.819	17.502	1392.737	1065.234
19.834	17.361	1391.283	1063.146
20.848	17.191	1389.733	1060.803
21.863	16.978	1389.017	1058.835
22.877	16.854	1387.903	1057.118
23.892	16.863	1386.443	1055.968
24.907	16.774	1385.581	1054.668
25.921	16.867	1384.992	1054.701
26.936	16.916	1384.003	1054.157
27.950	16.932	1382.613	1053.109
28.965	17.052	1381.788	1053.128
29.980	17.013	1381.081	1052.259
30.994	17.145	1379.399	1051.700
32.009	17.166	1378.719	1051.221
33.023	17.131	1377.899	1050.280
34.038	17.110	1376.632	1049.097
35.053	16.935	1375.349	1046.947
36.067	16.981	1373.646	1045.838
37.082	17.034	1372.482	1045.189
38.096	17.083	1371.963	1045.000
39.111	17.175	1371.267	1044.945
40.126	17.027	1370.034	1043.003
41.140	16.816	1369.227	1040.999
42.155	16.680	1368.497	1039.517
43.169	16.638	1368.668	1039.298
44.184	16.652	1368.208	1038.939
45.199	16.661	1367.551	1038.409
46.213	16.805	1367.402	1039.085
47.228	16.831	1366.888	1038.760
48.242	16.881	1365.397	1037.844
49.257	16.869	1363.632	1036.337
50.271	16.999	1362.276	1036.006
51.286	16.938	1360.664	1034.317
52.301	16.885	1359.791	1033.242
53.315	16.757	1358.658	1031.507
54.330	16.726	1357.776	1030.558
55.344	16.624	1356.214	1028.661
56.359	16.805	1355.510	1029.138
57.374	16.768	1353.887	1027.585
58.388	16.582	1353.295	1025.919
59.403	16.560	1353.252	1025.665
60.417	16.592	1352.480	1025.178
61.432	16.523	1351.432	1023.881
62.447	16.575	1350.212	1023.180
63.461	16.470	1348.860	1021.429
64.476	16.514	1347.759	1020.769
65.490	16.484	1346.970	1019.902
66.505	16.520	1345.055	1018.577
67.520	16.562	1343.997	1017.937
68.534	16.597	1342.911	1017.238
69.549	16.646	1342.065	1016.803
70.563	16.532	1340.990	1015.211
71.578	16.332	1340.132	1013.270
72.593	16.379	1339.123	1012.701
73.607	16.342	1338.101	1011.616
74.622	16.408	1337.893	1011.765
75.636	16.395	1337.009	1010.933
76.651	16.398	1336.332	1010.349
77.666	16.330	1336.117	1009.687
78.680	16.498	1335.243	1009.942
79.695	16.519	1334.563	1009.462
80.709	16.673	1333.828	1009.738
81.724	16.733	1333.158	1009.499
82.739	16.772	1332.346	1009.029
83.753	16.877	1331.478	1008.904
84.768	16.936	1330.235	1008.224
85.782	17.031	1329.195	1007.910
86.797	17.068	1328.252	1007.327
87.812	17.028	1326.435	1005.621
88.826	16.910	1325.723	1004.294
89.841	16.896	1324.807	1003.430
90.855	17.039	1323.310	1003.050
91.870	17.098	1322.875	1002.979
92.884	17.076	1321.824	1001.969
93.899	17.180	1321.115	1001.953
94.914	17.212	1320.336	1001.462
95.928	17.116	1319.995	1000.548
96.943	16.938	1318.812	998.515
97.957	17.098	1317.201	998.152
98.972	17.034	1316.892	997.450
99.987	17.012	1316.150	996.672
101.001	17.003	1315.049	995.700
102.016	17.088	1313.656	995.052
103.030	17.058	1312.943	994.252
104.045	17.097	1311.820	993.541
105.060	17.047	1310.189	991.923
106.074	16.841	1308.779	989.567
107.089	16.632	1307.485	987.282
108.103	16.472	1306.554	985.558
109.118	16.585	1305.342	985.216
110.133	16.530	1303.820	983.658
111.147	16.656	1302.013	982.939
112.162	16.712	1300.856	982.302
113.176	16.613	1300.012	981.007
114.191	16.811	1298.807	981.155
115.206	16.774	1297.403	979.797
116.220	16.716	1296.539	978.721
117.235	16.812	1295.730	978.577
118.249	16.590	1294.910	976.591
119.264	16.771	1293.314	976.342
120.279	16.497	1292.105	973.768
121.293	16.584	1291.476	973.704
122.308	16.446	1290.518	972.108
123.322	16.506	1289.120	971.313
124.337	16.414	1288.567	970.277
125.352	16.438	1287.036	969.178
126.366	16.433	1286.163	968.409
127.381	16.531	1284.613	967.714
128.395	16.510	1283.972	967.029
129.410	16.509	1282.939	966.155
130.424	16.641	1282.555	966.535
131.439	16.609	1281.659	965.592
132.454	16.719	1280.416	965.200
133.468	16.711	1279.627	964.475
134.483	16.605	1279.192	963.456
135.497	16.798	1278.209	963.730
136.512	16.804	1276.592	962.460
137.527	16.673	1275.455	960.773
138.541	16.764	1274.100	960.185
139.556	16.722	1272.959	958.999
140.570	16.759	1272.399	958.702
141.585	16.930	1270.570	958.207
142.600	17.052	1269.442	957.960
143.614	17.045	1269.047	957.535
144.629	17.128	1267.063	956.425
145.643	17.091	1266.574	955.761
146.658	17.020	1265.061	954.135
147.673	16.933	1263.834	952.634
148.687	16.823	1262.628	951.028
149.702	16.764	1261.324	949.631
150.716	16.702	1260.536	948.604
151.731	16.799	1258.796	947.753
152.746	16.792	1257.783	946.870
153.760	16.892	1256.625	946.472
154.775	16.912	1255.744	945.833
155.789	17.082	1254.387	945.675
156.804	17.017	1253.377	944.472
157.819	17.157	1252.069	944.179
158.833	17.135	1251.704	943.696
159.848	17.216	1250.839	943.410
160.862	17.108	1250.051	942.132
161.877	16.979	1248.702	940.320
162.892	16.856	1247.396	938.571
163.906	16.984	1246.319	938.385
164.921	16.991	1245.385	937.636
165.935	16.956	1245.128	937.170
166.950	16.986	1244.335	936.652
167.964	16.996	1243.023	935.642
168.979	16.957	1242.511	934.958
169.994	16.982	1241.194	934.020
171.008	17.026	1240.821	933.900
172.023	17.111	1240.528	934.061
173.037	17.166	1239.307	933.366
174.052	17.190	1238.328	932.673
175.067	16.975	1237.129	930.512
176.081	16.943	1236.219	929.568
177.096	16.937	1235.527	928.932
178.110	16.983	1233.939	927.908
179.125	17.050	1232.768	927.312
180.140	17.079	1231.504	926.436
181.154	17.013	1230.718	925.404
182.169	17.107	1229.580	924.976
183.183	17.179	1228.591	924.546
184.198	17.321	1227.128	924.134
185.213	17.207	1226.480	922.947
186.227	17.251	1225.152	922.101
187.242	17.254	1224.053	921.208
188.256	17.452	1222.789	921.248
189.271	17.418	1222.290	920.610
190.286	17.283	1220.995	918.821
191.300	17.039	1219.916	916.612
192.315	16.821	1219.005	914.671
193.329	17.046	1218.391	915.340
194.344	17.059	1218.265	915.233
195.359	16.931	1217.895	914.187
196.373	17.147	1217.517	914.984
197.388	17.224	1216.892	914.848
198.402	17.521	1216.339	915.948
199.417	17.496	1215.628	915.200
200.432	17.614	1214.746	915.086
201.446	17.673	1214.363	915.034
202.461	17.760	1213.071	914.447
203.475	17.648	1211.970	912.938
204.490	17.657	1210.385	911.712
205.504	17.410	1209.461	909.612
206.519	17.512	1207.823	908.845
207.534	17.285	1207.487	907.299
208.548	17.487	1206.024	907.200
209.563	17.355	1205.563	906.068
210.577	17.417	1203.994	905.136
211.592	17.446	1203.475	904.820
212.607	17.536	1202.665	904.609
213.621	17.697	1201.668	904.636
214.636	17.608	1200.932	903.529
215.650	17.519	1200.320	902.518
216.665	17.646	1199.052	902.155
217.680	17.688	1198.414	901.821
218.694	17.885	1197.199	901.863
219.709	17.746	1196.815	900.764
220.723	17.772	1195.533	899.858
221.738	17.754	1195.279	899.490
222.753	17.709	1194.296	898.432
223.767	17.813	1193.233	898.101
224.782	17.907	1192.674	898.097
225.796	17.917	1192.696	898.085
226.811	17.908	1191.746	897.242
227.826	17.770	1190.758	895.693
228.840	17.722	1189.934	894.746
229.855	17.819	1188.989	894.464
230.869	17.797	1188.399	893.824
231.884	17.780	1187.640	893.084
232.899	17.640	1186.933	891.742
233.913	17.559	1186.571	890.969
234.928	17.735	1184.858	890.522
235.942	17.607	1184.491	889.501
236.957	17.626	1183.765	888.973
237.972	17.629	1183.545	888.748
238.986	17.616	1182.343	887.697
240.001	17.724	1181.520	887.562
241.015	17.650	1180.728	886.506
242.030	17.773	1180.135	886.620
243.045	17.829	1179.581	886.418
244.059	17.820	1178.548	885.515
245.074	17.710	1178.204	884.609
246.088	17.828	1177.214	884.399
247.103	17.966	1175.982	884.106
248.117	18.043	1175.530	884.089
249.132	18.193	1174.897	884.312
250.147	18.281	1174.038	884.040
251.161	18.382	1173.340	883.960
252.176	18.505	1173.238	884.436
253.190	18.562	1172.417	884.034
254.205	18.541	1171.734	883.334
255.220	18.465	1171.406	882.616
256.234	18.405	1171.091	881.989
257.249	18.616	1169.646	881.911
258.263	18.510	1169.295	881.021
259.278	18.615	1168.039	880.539
260.293	18.417	1168.391	879.706
261.307	18.560	1167.023	879.331
262.322	18.583	1166.466	878.954
263.336	18.707	1165.848	879.043
264.351	18.660	1165.693	878.609
265.366	18.645	1164.695	877.705
266.380	18.701	1164.236	877.567
267.395	18.688	1163.172	876.618
268.409	18.566	1162.475	875.394
269.424	18.621	1161.886	875.156
270.439	18.506	1161.553	874.239
271.453	18.440	1160.673	873.163
272.468	18.445	1159.669	872.354
273.482	18.434	1159.313	871.952
274.497	18.523	1158.656	871.838
275.512	18.581	1157.575	871.242
276.526	18.542	1156.852	870.422
277.541	18.615	1155.719	869.860
278.555	18.567	1155.543	869.408
279.570	18.667	1155.002	869.432
280.585	18.862	1153.965	869.561
281.599	18.792	1153.072	868.455
282.614	18.671	1151.599	866.660
283.628	18.702	1150.528	865.935
284.643	18.575	1149.797	864.666
285.657	18.768	1148.559	864.630
286.672	18.769	1147.630	863.858
287.687	18.811	1146.880	863.431
288.701	18.689	1146.447	862.417
289.716	18.751	1145.847	862.199
290.730	18.789	1145.103	861.754
291.745	18.783	1144.125	860.910
292.760	18.728	1144.139	860.568
293.774	18.938	1143.058	860.734
294.789	18.950	1142.935	860.625
295.803	19.014	1141.987	860.153
296.818	18.864	1141.220	858.749
297.833	18.825	1140.378	857.846
298.847	18.693	1139.863	856.722
299.862	18.684	1138.971	855.931
300.876	18.843	1138.232	856.093
301.891	18.931	1137.448	855.866
302.906	19.048	1136.690	855.804
303.920	19.111	1135.976	855.499
304.935	19.257	1135.304	855.643
305.949	19.316	1134.628	855.351
306.964	19.277	1133.941	854.563
307.979	19.169	1133.368	853.521
308.993	19.183	1132.476	852.845
310.008	19.199	1131.593	852.183
311.022	19.129	1131.111	851.400
312.037	19.121	1130.248	850.635
313.052	19.072	1129.224	849.546
314.066	18.898	1128.299	847.920
315.081	18.859	1127.546	847.083
316.095	18.948	1126.552	846.702
317.110	18.868	1125.989	845.808
318.125	18.995	1125.059	845.659
319.139	19.035	1124.400	845.288
320.154	18.998	1124.078	844.789
321.168	19.045	1123.157	844.253
322.183	19.014	1122.727	843.702
323.197	19.015	1122.217	843.251
324.212	19.095	1121.508	843.035
325.227	19.063	1121.074	842.473
326.241	19.105	1120.229	841.974
327.256	19.172	1119.442	841.633
328.270	19.111	1118.425	840.495
329.285	18.983	1117.862	839.376
330.300	19.086	1116.577	838.839
331.314	19.084	1115.541	837.976
332.329	19.164	1114.550	837.545
333.343	19.169	1114.189	837.225
334.358	19.320	1112.804	836.843
335.373	19.343	1112.575	836.708
336.387	19.340	1111.900	836.110
337.402	19.320	1111.074	835.320
338.416	19.349	1110.404	834.882
339.431	19.467	1109.843	834.957
340.446	19.537	1109.394	834.883
341.460	19.502	1109.112	834.431
342.475	19.701	1108.020	834.493
343.489	19.747	1106.785	833.710
344.504	19.805	1106.097	833.402
345.519	19.699	1105.822	832.609
346.533	19.693	1104.540	831.539
347.548	19.836	1103.383	831.283
348.562	19.816	1102.780	830.661
349.577	19.676	1102.019	829.341
350.592	19.635	1101.092	828.372
351.606	19.521	1100.446	827.268
352.621	19.393	1099.647	825.979
353.635	19.513	1099.394	826.294
354.650	19.547	1098.173	825.462
355.665	19.532	1097.714	824.975
356.679	19.646	1096.893	824.831
357.694	19.611	1096.606	824.372
358.708	19.765	1095.567	824.251
359.723	19.737	1095.260	823.814
360.738	19.683	1094.430	822.863
361.752	19.763	1093.716	822.631
362.767	19.668	1093.982	822.309
363.781	19.663	1093.234	821.647
364.796	19.945	1092.182	822.125
365.810	19.951	1091.986	821.934
366.825	20.104	1091.166	821.966
367.840	20.126	1090.836	821.749
368.854	20.180	1090.430	821.629
369.869	20.098	1089.461	820.437
370.883	20.045	1088.646	819.502
371.898	19.937	1088.120	818.521
372.913	19.908	1087.536	817.875
373.927	20.066	1086.653	817.884
374.942	20.104	1086.552	817.915
375.956	20.209	1085.456	817.513
376.971	20.120	1084.840	816.553
377.986	20.174	1084.485	816.469
379.000	20.315	1083.860	816.590
380.015	20.367	1083.181	816.252
381.029	20.360	1082.706	815.789
382.044	20.273	1082.268	814.979
383.059	20.297	1081.434	814.392
384.073	20.373	1080.243	813.778
385.088	20.311	1079.580	812.916
386.102	20.283	1078.942	812.232
387.117	20.289	1077.329	810.972
388.132	20.068	1076.561	809.294
389.146	20.151	1075.717	808.974
390.161	20.180	1074.945	808.458
391.175	20.150	1074.743	808.092
392.190	20.216	1073.836	807.649
393.205	20.216	1073.352	807.212
394.219	20.364	1072.142	806.916
395.234	20.314	1071.261	805.952
396.248	20.246	1070.111	804.700
397.263	20.201	1069.266	803.786
398.278	20.088	1069.082	803.054
399.292	20.098	1067.696	801.985
400.307	20.077	1067.070	801.346
401.321	20.127	1066.555	801.119
402.336	20.168	1065.994	800.819
403.350	20.227	1064.863	800.172
404.365	20.196	1064.396	799.603
405.380	20.260	1063.578	799.215
406.394	20.290	1063.223	799.016
407.409	20.306	1062.351	798.363
408.423	20.506	1061.519	798.584
409.438	20.545	1061.069	798.357
410.453	20.609	1060.218	797.939
411.467	20.714	1059.473	797.790
412.482	20.661	1058.696	796.893
413.496	20.802	1058.052	796.982
414.511	20.786	1057.794	796.642
415.526	20.816	1057.208	796.267
416.540	20.893	1056.779	796.226
417.555	20.895	1056.336	795.828
418.569	20.743	1055.795	794.661
419.584	20.676	1055.205	793.838
420.599	20.750	1054.868	793.854
421.613	155.923	1404.642	1799.170
422.628	143.146	1455.586	1799.244
