DTS Sentinel unit serial number:	SN413079Multiplexer serial number:	ORYXHardware model number:	OX4-SRSoftware version number:	ORYX F/W v4.00 Oryx Data Collector v3.7.2.0data status	okinstallation	princeton_trtdifferential loss correction	single-endedforward channel	channel 2reverse channel	N/Adate	2019/09/14time	21:11:35forward acquisition time	60.00reverse acquisition time	0.00gamma	496.2192k internal	0.2323k external	0.2323temperature offset calibration	1.0076default loss term (dB/km)	0.3790temperature slope calibration	1.0000multiplexer offset coefficient	1.0000multiplexer slope coefficient	1.0000fibre end	0.00T internal ref (°C)	33.06T ext. ref 1 (°C)	4.74T ext. ref 2 (°C)	27.82length (m)	temperature (°C)	Stokes	anti-Stokes-747.200	-200.000	-0.003	0.013
-746.185	-47.548	-0.164	-0.081
-745.171	-111.847	-0.224	-0.046
-744.156	397.056	-0.091	0.192
-743.142	-82.922	0.309	0.101
-742.127	-6.282	0.246	0.170
-741.112	-28.677	-0.243	0.141
-740.098	-99.431	-0.163	0.042
-739.083	-200.000	-0.003	0.028
-738.069	375.832	0.210	-0.433
-737.054	-24.507	0.153	-0.092
-736.039	64.543	-0.243	0.247
-735.025	-200.000	-0.051	0.238
-734.010	310.957	-0.124	-0.235
-732.996	800.000	-0.100	-0.425
-731.981	213.503	-0.103	0.164
-730.966	-147.838	-0.395	0.033
-729.952	17.554	0.171	0.137
-728.937	-196.472	-0.201	-0.001
-727.923	-125.523	0.215	-0.033
-726.908	338.731	0.073	0.143
-725.894	561.107	-0.171	-0.418
-724.879	-63.111	0.078	-0.033
-723.864	800.000	-0.059	-0.221
-722.850	-125.676	-0.235	0.036
-721.835	-141.640	0.087	-0.009
-720.821	8.639	-0.089	0.067
-719.806	434.179	0.087	-0.190
-718.791	-200.000	-0.087	-0.446
-717.777	-200.000	-0.020	0.153
-716.762	-128.939	-0.224	-0.032
-715.748	701.210	-0.077	0.206
-714.733	337.013	0.037	0.073
-713.718	-184.262	0.012	0.000
-712.704	800.000	0.089	-0.284
-711.689	-200.000	0.008	0.385
-710.675	-29.985	0.401	0.230
-709.660	143.712	0.210	0.282
-708.645	-167.042	-0.080	-0.003
-707.631	-200.000	-0.042	-0.270
-706.616	106.931	0.081	0.097
-705.602	-116.174	0.091	0.017
-704.587	40.020	0.126	-0.114
-703.572	-179.948	-0.119	0.003
-702.558	151.774	0.215	0.295
-701.543	800.000	-0.046	0.175
-700.529	-34.785	-0.231	0.127
-699.514	119.673	0.127	0.159
-698.499	-200.000	-0.016	0.075
-697.485	-200.000	0.004	-0.047
-696.470	44.145	-0.042	0.039
-695.456	-200.000	-0.006	0.505
-694.441	90.235	-0.067	-0.075
-693.426	-108.376	-0.132	0.029
-692.412	800.000	0.089	0.277
-691.397	73.449	0.183	-0.193
-690.383	249.326	0.080	-0.137
-689.368	94.269	-0.186	-0.212
-688.354	55.249	0.183	-0.179
-687.339	501.952	0.078	-0.182
-686.324	796.166	-0.117	-0.325
-685.310	-141.012	-0.193	0.020
-684.295	583.622	-0.051	-0.126
-683.281	-200.000	-0.025	-0.348
-682.266	25.941	0.241	-0.202
-681.251	479.089	0.016	0.036
-680.237	-161.185	0.269	-0.014
-679.222	800.000	0.127	0.466
-678.208	-0.699	-0.392	-0.280
-677.193	-137.587	-0.132	0.015
-676.178	-200.000	-0.021	0.142
-675.164	136.134	-0.133	0.175
-674.149	-200.000	0.047	-0.312
-673.135	662.162	0.066	-0.172
-672.120	132.034	-0.239	-0.311
-671.105	297.018	-0.109	0.201
-670.091	31.773	0.028	0.024
-669.076	800.000	-0.122	0.374
-668.062	184.644	-0.145	0.216
-667.047	-11.818	0.142	-0.094
-666.032	-200.000	0.008	0.164
-665.018	21.753	-0.165	-0.135
-664.003	-54.823	0.354	0.161
-662.989	59.205	0.201	-0.199
-661.974	-200.000	-0.020	-0.129
-660.959	-165.552	-0.172	-0.008
-659.945	-102.849	-0.234	-0.056
-658.930	800.000	-0.069	0.257
-657.916	-191.398	-0.331	0.003
-656.901	-200.000	0.016	0.091
-655.886	-147.788	0.103	-0.009
-654.872	-200.000	0.032	-0.316
-653.857	190.642	-0.172	-0.260
-652.843	-109.173	0.425	0.091
-651.828	270.112	0.079	-0.139
-650.814	404.265	0.065	-0.138
-649.799	-16.540	-0.094	-0.060
-648.784	172.971	0.067	-0.098
-647.770	800.000	0.070	0.224
-646.755	197.207	-0.279	0.429
-645.741	23.713	0.231	-0.192
-644.726	-26.619	-0.183	-0.108
-643.711	-60.476	-0.009	-0.004
-642.697	-24.826	-0.112	-0.067
-641.682	-200.000	-0.021	-0.167
-640.668	-159.328	-0.141	-0.008
-639.653	-96.625	-0.278	0.074
-638.638	-200.000	-0.009	0.094
-637.624	-35.048	-0.371	-0.203
-636.609	-152.634	-0.120	0.009
-635.595	307.849	-0.070	-0.132
-634.580	-16.669	-0.140	-0.089
-633.565	332.055	0.059	-0.114
-632.551	-26.026	-0.141	-0.083
-631.536	-200.000	-0.012	-0.161
-630.522	-145.608	-0.076	0.007
-629.507	-83.727	-0.288	0.092
-628.492	-200.000	-0.068	-0.396
-627.478	-107.112	-0.066	0.015
-626.463	-35.192	0.119	0.065
-625.449	-200.000	0.034	-0.245
-624.434	47.905	-0.041	0.039
-623.419	35.119	-0.117	-0.103
-622.405	-200.000	0.005	-0.246
-621.390	47.429	0.177	-0.166
-620.376	38.221	0.109	0.098
-619.361	-177.544	0.367	0.009
-618.346	62.115	-0.259	0.260
-617.332	-174.929	0.230	0.006
-616.317	-80.085	-0.063	0.021
-615.303	-68.397	-0.339	0.132
-614.288	-200.000	0.049	-0.441
-613.273	-200.000	-0.038	-0.426
-612.259	266.395	-0.217	-0.380
-611.244	-63.560	0.106	0.044
-610.230	226.847	-0.136	-0.222
-609.215	-5.071	-0.045	-0.031
-608.201	-200.000	0.002	-0.261
-607.186	-33.741	-0.039	0.022
-606.171	-200.000	-0.041	-0.224
-605.157	-39.300	0.143	0.075
-604.142	32.778	0.133	0.116
-603.128	-87.403	0.041	-0.012
-602.113	55.761	0.086	0.084
-601.098	-200.000	0.071	-0.350
-600.084	-200.000	-0.008	-0.176
-599.069	-57.141	0.271	0.120
-598.055	61.544	0.062	0.062
-597.040	102.477	0.163	0.192
-596.025	38.359	-0.357	0.319
-595.011	260.273	0.076	-0.133
-593.996	139.899	0.078	0.104
-592.982	751.727	-0.077	-0.210
-591.967	-200.000	-0.034	-0.200
-590.952	-62.985	-0.154	-0.064
-589.938	800.000	-0.042	0.183
-588.923	574.859	0.044	0.109
-587.909	438.307	-0.087	-0.190
-586.894	-200.000	0.000	-0.002
-585.879	-110.514	0.121	-0.025
-584.865	-65.373	0.201	0.081
-583.850	368.044	0.073	0.148
-582.836	-200.000	-0.043	0.456
-581.821	101.959	0.036	0.042
-580.806	-200.000	-0.008	-0.137
-579.792	7.842	0.076	0.057
-578.777	-63.147	-0.246	0.102
-577.763	-159.936	-0.139	0.008
-576.748	-200.000	-0.068	-0.347
-575.733	800.000	0.020	0.069
-574.719	175.739	0.130	-0.189
-573.704	-125.318	0.240	0.037
-572.690	425.879	0.089	0.193
-571.675	-17.278	-0.313	-0.198
-570.661	-99.645	-0.256	0.064
-569.646	135.867	0.101	0.132
-568.631	83.746	0.057	-0.063
-567.617	14.909	-0.062	0.049
-566.602	-26.818	0.110	0.064
-565.588	-14.360	-0.096	-0.062
-564.573	166.076	-0.029	-0.042
-563.558	-42.464	-0.047	-0.024
-562.544	-182.694	-0.206	-0.004
-561.529	30.099	-0.130	-0.111
-560.515	241.847	0.027	-0.046
-559.500	-200.000	0.012	-0.224
-558.485	-40.014	0.303	-0.159
-557.471	800.000	0.081	-0.287
-556.456	-176.951	-0.160	-0.004
-555.442	800.000	-0.031	-0.094
-554.427	800.000	0.075	-0.213
-553.412	800.000	0.018	0.056
-552.398	102.579	-0.173	0.203
-551.383	3.372	-0.143	-0.104
-550.369	679.823	-0.062	-0.161
-549.354	360.588	0.110	-0.222
-548.339	-92.820	0.104	-0.029
-547.325	-137.669	-0.105	-0.012
-546.310	369.693	0.063	-0.128
-545.296	611.657	0.061	0.153
-544.281	-200.000	0.016	-0.410
-543.266	-200.000	-0.029	-0.232
-542.252	307.804	-0.155	-0.289
-541.237	761.638	0.128	-0.348
-540.223	-101.676	0.223	-0.054
-539.208	-109.054	0.144	-0.031
-538.193	140.339	-0.068	-0.090
-537.179	800.000	0.137	0.403
-536.164	-79.882	0.099	-0.033
-535.150	-132.437	-0.188	-0.024
-534.135	434.602	0.114	0.248
-533.121	111.871	-0.062	-0.075
-532.106	133.322	0.031	0.040
-531.091	-53.888	-0.037	-0.017
-530.077	478.279	-0.117	-0.264
-529.062	-47.012	-0.066	-0.032
-528.048	-54.818	-0.078	0.035
-527.033	-115.773	-0.087	-0.016
-526.018	-10.453	0.072	0.048
-525.004	-74.622	-0.078	-0.028
-523.989	312.139	0.020	-0.038
-522.975	33.044	0.322	-0.279
-521.960	37.081	-0.204	-0.181
-520.945	432.907	0.092	-0.201
-519.931	63.608	-0.064	-0.064
-518.916	-19.405	-0.072	0.044
-517.902	-71.366	-0.247	0.092
-516.887	242.542	0.125	-0.209
-515.872	229.880	0.073	0.120
-514.858	-200.000	0.019	-0.141
-513.843	235.584	0.123	-0.203
-512.829	-20.812	0.126	-0.077
-511.814	-82.586	-0.345	-0.112
-510.799	149.811	-0.246	0.334
-509.785	138.493	-0.136	-0.178
-508.770	-182.376	-0.138	0.003
-507.756	749.425	-0.051	0.139
-506.741	-123.976	0.239	0.038
-505.726	148.399	-0.102	-0.138
-504.712	-200.000	0.032	-0.149
-503.697	730.390	-0.043	-0.114
-502.683	-105.076	-0.230	0.053
-501.668	-176.968	-0.166	-0.004
-500.653	-200.000	-0.014	0.070
-499.639	-89.734	-0.212	-0.062
-498.624	128.547	0.053	0.067
-497.610	-92.931	-0.176	0.049
-496.595	252.974	0.084	-0.143
-495.581	800.000	0.021	-0.066
-494.566	90.753	-0.138	0.154
-493.551	800.000	0.034	0.119
-492.537	-200.000	-0.179	-0.001
-491.522	-7.297	-0.306	0.207
-490.508	-200.000	0.010	0.128
-489.493	-200.000	0.016	0.322
-488.478	427.639	0.087	-0.187
-487.464	85.011	-0.340	0.373
-486.449	165.684	0.018	-0.025
-485.435	800.000	0.154	0.466
-484.420	-44.226	0.205	-0.103
-483.405	-109.479	-0.157	0.033
-482.391	231.833	0.063	-0.103
-481.376	-3.683	-0.206	0.143
-480.362	88.446	-0.116	-0.129
-479.347	295.147	0.043	0.078
-478.332	-166.959	-0.244	0.010
-477.318	-125.066	0.175	-0.027
-476.303	47.026	0.216	0.200
-475.289	-85.849	-0.115	-0.036
-474.274	86.495	-0.215	0.237
-473.259	-5.219	-0.131	0.090
-472.245	-68.252	0.185	0.072
-471.230	-99.205	0.117	0.029
-470.216	-200.000	0.206	0.001
-469.201	-200.000	0.019	0.384
-468.186	-200.000	0.001	-0.265
-467.172	800.000	0.095	-0.278
-466.157	-15.250	0.101	-0.065
-465.143	-14.406	0.225	-0.144
-464.128	-80.317	-0.076	-0.025
-463.113	800.000	-0.015	-0.066
-462.099	-107.698	0.119	-0.026
-461.084	-200.000	0.008	-0.259
-460.070	-100.234	0.341	0.085
-459.055	213.517	-0.042	0.066
-458.040	-0.663	-0.177	-0.125
-457.026	109.673	0.081	-0.097
-456.011	-88.594	0.171	-0.051
-454.997	593.196	-0.062	0.152
-453.982	12.227	0.214	0.165
-452.968	-52.580	-0.082	0.038
-451.953	-153.136	-0.388	0.027
-450.938	-200.000	-0.048	-0.313
-449.924	-3.513	0.195	-0.135
-448.909	33.484	0.129	0.111
-447.895	-92.334	-0.299	0.084
-446.880	-13.965	0.165	-0.106
-445.865	37.175	-0.303	0.268
-444.851	-82.397	0.242	0.078
-443.836	44.227	-0.093	0.085
-442.822	800.000	-0.060	-0.208
-441.807	396.525	-0.042	0.087
-440.792	-58.233	-0.244	0.106
-439.778	-40.176	0.203	0.105
-438.763	-161.169	0.142	0.007
-437.749	-11.622	0.228	0.149
-436.734	26.960	-0.236	0.197
-435.719	-29.244	0.309	0.177
-434.705	-200.000	0.012	0.096
-433.690	-27.046	-0.221	0.128
-432.676	-123.684	-0.283	0.045
-431.661	-142.933	0.410	0.040
-430.646	-172.765	0.520	-0.016
-429.632	76.798	-0.278	0.294
-428.617	151.676	-0.156	0.212
-427.603	-48.711	-0.113	-0.054
-426.588	267.673	0.152	-0.265
-425.573	-27.987	0.053	-0.031
-424.559	181.766	-0.079	-0.115
-423.544	800.000	0.064	0.217
-422.530	-45.665	0.126	-0.062
-421.515	-181.720	-0.110	0.002
-420.500	6.409	0.058	0.043
-419.486	322.690	-0.037	0.071
-418.471	-129.372	0.122	-0.017
-417.457	-200.000	0.027	-0.195
-416.442	800.000	-0.113	-0.432
-415.428	114.876	0.041	0.050
-414.413	-0.379	-0.092	-0.065
-413.398	800.000	0.101	0.286
-412.384	201.162	0.032	0.049
-411.369	128.153	-0.195	0.247
-410.355	-12.284	0.083	-0.054
-409.340	257.272	0.063	0.108
-408.325	-200.000	0.003	0.253
-407.311	-200.000	-0.034	-0.169
-406.296	800.000	0.056	0.236
-405.282	-160.597	-0.169	-0.009
-404.267	-112.555	0.198	-0.039
-403.252	-112.894	0.232	0.046
-402.238	-36.447	0.105	-0.056
-401.223	14.358	0.278	-0.216
-400.209	78.632	0.255	-0.272
-399.194	800.000	-0.081	0.251
-398.179	-107.043	-0.091	0.020
-397.165	-109.430	-0.443	0.093
-396.150	46.866	0.129	-0.120
-395.136	-9.272	-0.090	0.060
-394.121	1.692	0.337	-0.242
-393.106	-146.164	0.079	-0.007
-392.092	-200.000	0.018	-0.410
-391.077	-200.000	-0.008	0.219
-390.063	61.618	0.188	0.186
-389.048	-107.154	0.225	0.049
-388.033	800.000	-0.057	0.208
-387.019	61.369	-0.207	0.205
-386.004	-55.411	-0.339	0.152
-384.990	32.897	-0.075	0.065
-383.975	-200.000	-0.006	-0.268
-382.960	122.484	-0.142	0.177
-381.946	-5.365	0.043	-0.029
-380.931	84.807	0.099	0.108
-379.917	142.267	-0.160	0.211
-378.902	31.946	-0.113	-0.097
-377.888	323.259	0.032	0.061
-376.873	276.409	-0.036	-0.064
-375.858	301.444	0.012	-0.021
-374.844	243.099	-0.054	0.090
-373.829	8.449	-0.130	0.097
-372.815	-200.000	0.016	-0.207
-371.800	22.367	0.227	0.184
-370.785	-102.900	-0.417	-0.099
-369.771	800.000	0.048	0.205
-368.756	257.491	-0.084	-0.144
-367.742	800.000	0.079	0.222
-366.727	-143.548	0.096	0.009
-365.712	275.579	-0.087	0.153
-364.698	-132.664	0.124	0.016
-363.683	-99.721	-0.296	-0.074
-362.669	800.000	-0.127	0.378
-361.654	-64.438	0.143	-0.058
-360.639	755.791	-0.055	0.149
-359.625	51.860	-0.156	-0.148
-358.610	-200.000	0.004	0.035
-357.596	189.507	0.044	-0.065
-356.581	-74.533	0.065	0.023
-355.566	-29.903	0.152	-0.086
-354.552	116.875	0.306	0.374
-353.537	201.888	-0.094	0.144
-352.523	13.262	0.197	-0.152
-351.508	77.862	-0.095	0.101
-350.493	-49.833	0.180	-0.085
-349.479	321.412	0.051	0.096
-348.464	227.324	-0.095	0.154
-347.450	-64.562	0.290	0.117
-346.435	158.470	0.165	0.228
-345.420	800.000	0.082	-0.235
-344.406	659.250	0.076	0.194
-343.391	-143.498	0.348	-0.033
-342.377	662.128	0.072	-0.185
-341.362	414.674	0.058	-0.122
-340.348	-136.743	-0.082	0.009
-339.333	-200.000	0.025	0.227
-338.318	-137.827	-0.031	0.003
-337.304	-70.291	-0.151	0.057
-336.289	128.253	-0.110	0.139
-335.275	54.629	-0.154	0.148
-334.260	195.609	-0.038	-0.058
-333.245	-107.223	-0.317	-0.069
-332.231	68.076	0.277	-0.282
-331.216	537.221	-0.133	0.313
-330.202	-113.673	-0.130	0.025
-329.187	-23.320	0.239	0.143
-328.172	800.000	-0.065	-0.218
-327.158	-144.945	-0.474	-0.043
-326.143	112.913	0.182	-0.219
-325.129	42.233	0.282	0.254
-324.114	133.712	-0.090	0.116
-323.099	-140.776	-0.256	0.026
-322.085	105.741	0.235	0.277
-321.070	800.000	0.130	0.376
-320.056	18.869	-0.100	-0.079
-319.041	800.000	0.042	0.148
-318.026	350.639	0.057	-0.112
-317.012	-134.393	0.270	0.033
-315.997	68.128	0.121	0.123
-314.983	92.523	0.070	0.079
-313.968	507.433	0.078	-0.180
-312.953	10.614	0.253	-0.192
-311.939	-129.044	-0.262	-0.036
-310.924	729.826	-0.031	0.081
-309.910	-200.000	0.010	0.293
-308.895	-78.473	0.164	0.056
-307.880	12.501	0.270	-0.207
-306.866	-62.714	-0.233	0.096
-305.851	201.325	-0.163	-0.248
-304.837	-67.088	-0.181	0.071
-303.822	-200.000	-0.065	0.376
-302.807	-200.000	0.090	0.421
-301.793	-20.933	-0.164	-0.100
-300.778	-62.919	-0.077	-0.031
-299.764	304.842	0.020	0.037
-298.749	800.000	-0.039	0.155
-297.735	-186.282	-0.203	-0.003
-296.720	79.372	-0.256	0.272
-295.705	90.000	-0.117	0.130
-294.691	-48.567	0.115	-0.055
-293.676	-200.000	-0.004	-0.216
-292.662	-94.952	0.408	-0.109
-291.647	-156.965	-0.141	-0.009
-290.632	22.288	-0.152	-0.123
-289.618	151.174	-0.112	0.152
-288.603	607.942	-0.089	-0.221
-287.589	275.041	0.251	-0.440
-286.574	-200.000	-0.013	-0.318
-285.559	-142.516	0.229	-0.022
-284.545	30.390	0.039	-0.033
-283.530	-11.635	0.170	0.111
-282.516	-1.547	-0.181	0.126
-281.501	470.146	0.111	0.246
-280.486	-111.412	0.313	-0.063
-279.472	246.469	0.299	-0.500
-278.457	258.225	0.082	-0.140
-277.443	100.679	0.173	-0.200
-276.428	14.636	0.155	-0.120
-275.413	800.000	0.093	-0.323
-274.399	-58.549	-0.221	-0.095
-273.384	-93.681	0.382	0.105
-272.370	8.018	-0.192	-0.143
-271.355	-200.000	0.048	-0.214
-270.340	220.945	-0.149	-0.237
-269.326	-177.589	-0.119	0.003
-268.311	-142.376	0.191	0.019
-267.297	18.265	-0.134	-0.106
-266.282	-78.866	-0.248	0.084
-265.267	195.982	0.122	-0.184
-264.253	-89.726	0.126	0.037
-263.238	87.993	-0.156	-0.172
-262.224	437.959	0.095	0.205
-261.209	-99.768	0.100	-0.025
-260.195	-200.000	0.027	0.306
-259.180	-76.922	-0.254	0.088
-258.165	-41.833	0.322	0.164
-257.151	-200.000	0.022	0.220
-256.136	-89.521	-0.211	-0.061
-255.122	-102.408	-0.163	-0.039
-254.107	-198.852	-0.183	0.001
-253.092	-80.912	-0.127	0.042
-252.078	-200.000	-0.069	0.419
-251.063	-43.968	0.122	-0.061
-250.049	-200.000	0.009	0.138
-249.034	183.515	-0.067	0.098
-248.019	800.000	-0.042	0.150
-247.005	691.640	-0.138	0.358
-245.990	-140.577	0.388	-0.040
-244.976	44.791	0.133	0.121
-243.961	800.000	-0.079	-0.234
-242.946	-120.578	0.094	-0.016
-241.932	-36.157	0.250	0.133
-240.917	800.000	-0.092	0.265
-239.903	800.000	-0.078	-0.260
-238.888	497.506	0.148	0.337
-237.873	-109.779	0.253	0.053
-236.859	376.619	0.134	-0.271
-235.844	-200.000	-0.028	-0.188
-234.830	26.362	0.115	-0.095
-233.815	40.909	0.121	-0.108
-232.800	-121.451	-0.106	0.017
-231.786	-12.591	-0.055	0.035
-230.771	196.637	0.092	-0.139
-229.757	32.697	0.100	-0.085
-228.742	-200.000	-0.024	-0.284
-227.727	-200.000	0.014	-0.143
-226.713	232.761	-0.165	-0.268
-225.698	70.704	-0.167	-0.171
-224.684	449.571	0.130	-0.283
-223.669	-200.000	0.025	-0.115
-222.655	45.277	0.138	0.126
-221.640	800.000	0.150	-0.416
-220.625	-38.547	0.277	-0.145
-219.611	800.000	0.048	0.183
-218.596	-153.188	0.353	-0.024
-217.582	-200.000	-0.015	0.170
-216.567	317.545	-0.017	-0.032
-215.552	-200.000	0.066	0.501
-214.538	353.681	-0.071	0.139
-213.523	-162.243	-0.092	0.005
-212.509	-35.371	-0.266	0.143
-211.494	800.000	-0.013	0.052
-210.479	-157.531	-0.242	-0.014
-209.465	-67.343	-0.322	-0.125
-208.450	-200.000	-0.045	0.372
-207.436	-105.432	0.156	0.035
-206.421	-117.338	-0.116	0.021
-205.406	-59.959	-0.093	0.039
-204.392	698.619	0.055	-0.144
-203.377	529.091	-0.036	0.083
-202.363	562.409	-0.068	0.163
-201.348	-5.482	-0.250	0.169
-200.333	-106.298	0.319	0.071
-199.319	-36.976	-0.326	-0.173
-198.304	275.957	-0.203	0.355
-197.290	800.000	-0.038	-0.106
-196.275	-200.000	-0.002	-0.267
-195.260	126.734	0.125	0.157
-194.246	800.000	-0.032	0.104
-193.231	-200.000	0.005	-0.342
-192.217	800.000	0.114	0.415
-191.202	-200.000	0.056	0.298
-190.187	-64.291	-0.159	-0.064
-189.173	82.551	-0.172	0.184
-188.158	-200.000	0.016	-0.075
-187.144	800.000	-0.080	0.278
-186.129	-200.000	0.001	-0.052
-185.114	48.154	-0.175	-0.162
-184.100	261.722	0.016	-0.027
-183.085	-5.239	0.317	0.215
-182.071	130.438	-0.111	-0.140
-181.056	500.600	-0.047	-0.106
-180.042	65.451	0.229	0.229
-179.027	-47.671	0.159	0.076
-178.012	-200.000	-0.022	0.121
-176.998	-76.886	-0.126	-0.044
-175.983	375.151	0.048	-0.098
-174.969	-200.000	0.028	-0.158
-173.954	-200.000	0.026	-0.195
-172.939	-33.176	0.313	-0.171
-171.925	-49.379	-0.208	-0.098
-170.910	-123.654	-0.158	0.025
-169.896	-42.351	0.254	-0.128
-168.881	78.803	0.212	0.224
-167.866	-200.000	0.062	0.279
-166.852	148.173	0.190	-0.253
-165.837	800.000	0.059	-0.202
-164.823	-132.743	0.327	0.041
-163.808	472.017	-0.098	0.217
-162.793	32.269	0.130	-0.111
-161.779	68.407	-0.240	0.243
-160.764	-96.187	-0.422	0.110
-159.750	251.203	0.088	-0.147
-158.735	181.645	0.175	0.255
-157.720	-63.334	0.391	0.159
-156.706	278.194	-0.078	-0.138
-155.691	-163.058	0.240	0.011
-154.677	-133.909	-0.194	-0.024
-153.662	49.881	-0.145	0.135
-152.647	178.993	0.065	0.094
-151.633	-2.857	-0.120	-0.083
-150.618	781.405	0.105	0.282
-149.604	21.885	0.145	-0.116
-148.589	800.000	-0.031	0.088
-147.574	-200.000	0.005	-0.056
-146.560	-200.000	0.000	-0.201
-145.545	-139.015	-0.145	0.015
-144.531	-200.000	-0.074	0.327
-143.516	-129.037	-0.325	-0.045
-142.502	467.448	-0.126	0.280
-141.487	-45.261	-0.384	-0.188
-140.472	-69.761	-0.473	0.178
-139.458	-112.883	0.241	-0.047
-138.443	261.845	-0.114	0.196
-137.429	-62.481	-0.324	0.133
-136.414	-200.000	0.044	0.209
-135.399	-123.021	-0.181	0.029
-134.385	800.000	-0.115	0.442
-133.370	-35.661	-0.276	0.148
-132.356	-200.000	0.020	-0.314
-131.341	80.765	-0.188	0.200
-130.326	-200.000	0.248	-0.000
-129.312	-53.166	-0.134	0.061
-128.297	402.879	0.089	0.184
-127.283	58.680	-0.133	-0.129
-126.268	-111.173	0.072	-0.015
-125.253	-200.000	0.057	-0.250
-124.239	147.853	0.076	-0.101
-123.224	-128.081	0.175	0.025
-122.210	43.048	0.044	0.040
-121.195	166.280	0.180	0.251
-120.180	13.018	0.200	-0.152
-119.166	-200.000	0.064	-0.276
-118.151	-200.000	0.012	-0.093
-117.137	-81.288	-0.165	0.054
-116.122	70.020	0.376	0.383
-115.107	770.843	0.057	0.152
-114.093	-200.000	0.008	0.207
-113.078	-42.971	0.389	0.195
-112.064	-200.000	-0.032	0.373
-111.049	-47.037	0.094	0.045
-110.034	-98.012	-0.228	-0.058
-109.020	-76.216	0.243	0.084
-108.005	-200.000	-0.035	-0.379
-106.991	-197.133	-0.134	-0.001
-105.976	-23.470	-0.098	-0.058
-104.962	-200.000	-0.041	-0.195
-103.947	290.047	0.124	-0.222
-102.932	-110.619	0.053	0.011
-101.918	-114.085	-0.375	0.071
-100.903	-200.000	0.019	0.082
-99.889	800.000	-0.066	0.283
-98.874	800.000	0.137	0.436
-97.859	-100.352	0.211	-0.051
-96.845	-81.752	-0.198	-0.064
-95.830	11.469	0.219	-0.165
-94.816	-138.662	0.218	-0.024
-93.801	800.000	-0.083	-0.241
-92.786	21.134	0.251	0.201
-91.772	-32.206	0.150	-0.083
-90.757	-93.769	0.126	-0.034
-89.743	364.798	-0.128	-0.253
-88.728	800.000	0.079	0.280
-87.713	-200.000	0.010	-0.074
-86.699	283.807	-0.039	0.069
-85.684	101.824	0.433	0.497
-84.670	-89.935	0.223	0.064
-83.655	-106.368	0.254	0.056
-82.640	118.754	0.120	0.146
-81.626	601.608	0.162	0.397
-80.611	-104.777	-0.141	0.032
-79.597	800.000	-0.032	-0.135
-78.582	800.000	0.052	0.165
-77.567	69.626	0.134	-0.136
-76.553	800.000	-0.045	0.149
-75.538	10.323	0.110	0.082
-74.524	-138.711	-0.230	-0.025
-73.509	43.794	0.218	0.197
-72.494	129.026	0.134	-0.168
-71.480	253.896	0.110	-0.186
-70.465	5.210	-0.099	-0.072
-69.451	-14.702	0.353	0.223
-68.436	440.792	-0.080	0.173
-67.422	76.816	0.202	0.211
-66.407	-60.296	0.237	0.099
-65.392	91.089	-0.163	0.180
-64.378	-154.241	0.251	0.017
-63.363	-27.917	-0.123	-0.070
-62.349	150.551	-0.271	-0.362
-61.334	153.195	-0.637	-0.857
-60.319	200.807	0.349	0.528
-59.305	153.192	-0.527	-0.709
-58.290	57.513	0.799	0.767
-57.276	800.000	0.510	1.543
-56.261	-200.000	95.696	567.996
-55.246	642.299	1378.302	3452.633
-54.232	197.083	2560.972	3839.793
-53.217	112.730	2271.325	2703.852
-52.203	42.412	1895.686	1694.356
-51.188	36.305	1686.107	1460.929
-50.173	33.580	1641.785	1402.348
-49.159	50.964	1687.092	1571.611
-48.144	52.608	1704.119	1599.721
-47.130	35.926	1664.983	1439.561
-46.115	33.111	1650.579	1406.145
-45.100	33.040	1645.054	1400.861
-44.086	32.959	1642.546	1398.068
-43.071	33.010	1640.005	1396.224
-42.057	32.921	1637.511	1393.392
-41.042	32.968	1635.692	1392.136
-40.027	32.983	1633.937	1390.696
-39.013	32.998	1631.478	1388.657
-37.998	32.965	1630.219	1387.287
-36.984	32.947	1628.935	1386.009
-35.969	33.081	1627.651	1385.848
-34.954	33.057	1626.222	1384.398
-33.940	33.074	1624.046	1382.615
-32.925	33.091	1621.922	1380.873
-31.911	33.092	1620.633	1379.734
-30.896	32.993	1619.246	1377.773
-29.881	33.056	1617.269	1376.495
-28.867	33.088	1615.549	1375.210
-27.852	33.000	1614.151	1373.325
-26.838	32.992	1612.804	1372.064
-25.823	33.075	1611.176	1371.226
-24.809	33.097	1609.814	1370.175
-23.794	33.073	1608.512	1368.839
-22.779	33.112	1606.829	1367.638
-21.765	33.023	1605.206	1365.555
-20.750	33.073	1603.682	1364.567
-19.736	33.072	1602.335	1363.359
-18.721	33.165	1600.692	1362.578
-17.706	33.094	1599.317	1360.842
-16.692	33.076	1597.820	1359.384
-15.677	33.113	1596.628	1358.581
-14.663	33.183	1594.779	1357.457
-13.648	33.051	1594.022	1355.814
-12.633	33.099	1592.320	1354.652
-11.619	33.053	1591.083	1353.218
-10.604	33.085	1589.375	1351.943
-9.590	33.115	1588.063	1350.987
-8.575	33.040	1587.000	1349.489
-7.560	33.159	1585.121	1348.690
-6.546	33.094	1584.293	1347.467
-5.531	33.076	1583.004	1346.188
-4.517	33.086	1581.633	1345.041
-3.502	33.174	1580.820	1344.920
-2.487	33.130	1579.551	1343.477
-1.473	32.824	1567.253	1330.807
-0.458	30.031	1547.654	1294.627
0.556	26.430	1547.859	1261.895
1.571	24.053	1571.316	1264.048
2.586	23.445	1584.081	1269.849
3.600	20.728	1530.377	1207.861
4.615	12.638	1422.386	1070.140
5.629	5.909	1359.237	980.608
6.644	4.927	1351.177	968.608
7.659	4.725	1349.942	966.381
8.673	4.643	1348.787	964.960
9.688	4.685	1347.181	963.987
10.702	4.636	1344.201	961.464
11.717	7.641	1350.405	984.458
12.731	15.302	1364.126	1042.156
13.746	20.004	1370.961	1076.588
14.761	19.595	1369.270	1072.621
15.775	18.577	1366.597	1064.122
16.790	17.534	1363.344	1055.033
17.804	16.685	1361.187	1048.021
18.819	16.341	1359.870	1044.785
19.834	16.047	1358.756	1042.021
20.848	15.904	1357.569	1040.132
21.863	15.545	1356.373	1036.910
22.877	15.569	1355.042	1035.946
23.892	15.476	1354.128	1034.584
24.907	15.606	1353.132	1034.533
25.921	15.483	1352.676	1033.334
26.936	15.577	1351.737	1033.108
27.950	15.538	1350.588	1031.893
28.965	15.545	1350.019	1031.413
29.980	15.682	1348.567	1031.055
30.994	15.829	1347.413	1030.980
32.009	15.818	1346.791	1030.343
33.023	15.779	1345.390	1028.946
34.038	15.773	1343.684	1027.510
35.053	15.672	1342.523	1025.914
36.067	15.694	1341.352	1025.063
37.082	15.747	1340.667	1024.770
38.096	15.637	1340.060	1023.550
39.111	15.670	1339.073	1022.903
40.126	15.551	1338.213	1021.433
41.140	15.514	1336.761	1020.013
42.155	15.380	1336.636	1019.010
43.169	15.424	1336.466	1019.059
44.184	15.366	1335.928	1018.205
45.199	15.366	1335.974	1018.151
46.213	15.447	1335.318	1018.053
47.228	15.655	1333.763	1018.038
48.242	15.695	1333.090	1017.675
49.257	15.498	1332.143	1015.674
50.271	15.637	1330.341	1015.044
51.286	15.728	1328.893	1014.402
52.301	15.520	1327.961	1012.346
53.315	15.486	1326.709	1011.096
54.330	15.501	1325.369	1010.078
55.344	15.443	1324.509	1008.983
56.359	15.415	1323.679	1008.096
57.374	15.450	1322.486	1007.307
58.388	15.364	1321.757	1006.148
59.403	15.413	1321.415	1006.092
60.417	15.351	1320.688	1005.078
61.432	15.276	1319.805	1003.867
62.447	15.151	1319.159	1002.536
63.461	15.170	1317.560	1001.344
64.476	15.204	1316.754	1000.849
65.490	15.202	1315.315	999.657
66.505	15.189	1314.016	998.503
67.520	15.302	1312.507	997.937
68.534	15.326	1311.501	997.231
69.549	15.360	1310.883	996.872
70.563	15.353	1309.510	995.699
71.578	15.286	1307.964	994.041
72.593	15.139	1307.617	992.816
73.607	15.111	1306.794	991.939
74.622	15.056	1306.185	991.058
75.636	15.161	1305.273	990.902
76.651	15.191	1304.461	990.377
77.666	15.074	1304.476	989.606
78.680	15.135	1303.798	989.364
79.695	15.246	1302.776	989.155
80.709	15.201	1302.521	988.609
81.724	15.349	1301.374	988.526
82.739	15.399	1300.417	988.008
83.753	15.526	1299.821	988.213
84.768	15.597	1298.479	987.522
85.782	15.607	1297.416	986.683
86.797	15.733	1296.071	986.314
87.812	15.570	1294.983	984.442
88.826	15.459	1294.170	983.091
89.841	15.590	1292.864	982.773
90.855	15.683	1291.982	982.565
91.870	15.608	1291.170	981.423
92.884	15.655	1290.550	981.134
93.899	15.739	1289.772	980.946
94.914	15.799	1288.489	980.233
95.928	15.794	1287.953	979.708
96.943	15.653	1287.024	978.099
97.957	15.700	1285.667	977.255
98.972	15.665	1284.944	976.416
99.987	15.661	1283.723	975.374
101.001	15.650	1282.708	974.454
102.016	15.719	1281.786	974.066
103.030	15.690	1281.298	973.444
104.045	15.640	1280.609	972.546
105.060	15.682	1278.760	971.293
106.074	15.401	1277.592	968.703
107.089	15.373	1275.899	967.172
108.103	15.331	1274.935	966.110
109.118	15.332	1273.452	964.906
110.133	15.427	1272.278	964.479
111.147	15.348	1270.822	962.838
112.162	15.301	1270.132	961.957
113.176	15.411	1268.538	961.296
114.191	15.456	1267.785	960.902
115.206	15.431	1267.067	960.127
116.220	15.352	1265.139	958.128
117.235	15.468	1264.128	957.939
118.249	15.326	1263.450	956.530
119.264	15.374	1261.948	955.583
120.279	15.318	1260.990	954.458
121.293	15.352	1259.766	953.641
122.308	15.294	1258.572	952.323
123.322	15.286	1257.773	951.585
124.337	15.185	1256.727	950.139
125.352	15.266	1255.747	949.771
126.366	15.299	1254.832	949.181
127.381	15.228	1253.752	947.881
128.395	15.293	1252.641	947.327
129.410	15.271	1252.239	946.815
130.424	15.374	1251.158	946.491
131.439	15.425	1250.081	945.878
132.454	15.489	1249.347	945.604
133.468	15.372	1248.606	944.302
134.483	15.480	1247.702	944.142
135.497	15.454	1246.617	943.088
136.512	15.432	1245.509	942.041
137.527	15.529	1244.267	941.565
138.541	15.561	1242.485	940.312
139.556	15.621	1241.362	939.713
140.570	15.529	1240.858	938.737
141.585	15.631	1239.578	938.252
142.600	15.687	1238.094	937.359
143.614	15.682	1237.868	937.080
144.629	15.834	1236.321	936.668
145.643	15.726	1235.360	935.258
146.658	15.730	1233.909	934.102
147.673	15.635	1232.826	932.671
148.687	15.592	1231.636	931.449
149.702	15.585	1230.298	930.316
150.716	15.512	1228.933	928.796
151.731	15.633	1227.617	928.390
152.746	15.550	1226.804	927.234
153.760	15.611	1225.602	926.582
154.775	15.651	1224.603	925.964
155.789	15.531	1224.117	924.855
156.804	15.655	1222.821	924.475
157.819	15.688	1221.508	923.583
158.833	15.763	1220.771	923.351
159.848	15.850	1219.794	923.008
160.862	15.838	1218.773	922.088
161.877	15.633	1217.775	920.133
162.892	15.692	1216.025	919.053
163.906	15.555	1215.670	917.952
164.921	15.491	1214.792	916.857
165.935	15.540	1214.360	916.721
166.950	15.675	1213.365	916.622
167.964	15.713	1212.529	916.119
168.979	15.794	1211.813	915.938
169.994	15.701	1211.444	915.068
171.008	15.741	1209.953	914.080
172.023	15.778	1209.821	914.101
173.037	15.819	1208.981	913.608
174.052	15.864	1207.831	912.900
175.067	15.805	1206.739	911.673
176.081	15.631	1205.842	909.977
177.096	15.707	1204.660	909.412
178.110	15.715	1203.870	908.783
179.125	15.708	1202.754	907.821
180.140	15.750	1201.780	907.233
181.154	15.838	1200.044	906.316
182.169	15.814	1199.278	905.528
183.183	15.805	1198.212	904.594
184.198	15.915	1197.028	904.207
185.213	16.012	1195.534	903.521
186.227	15.979	1195.039	902.891
187.242	16.025	1194.094	902.343
188.256	16.048	1193.136	901.664
189.271	16.091	1192.208	901.111
190.286	15.940	1191.276	899.521
191.300	15.694	1190.319	897.407
192.315	15.617	1189.617	896.384
193.329	15.674	1188.281	895.602
194.344	15.711	1187.895	895.429
195.359	15.797	1187.748	895.696
196.373	15.958	1186.945	895.872
197.388	16.071	1186.861	896.325
198.402	16.236	1185.908	896.406
199.417	16.260	1185.115	895.851
200.432	16.383	1184.488	895.951
201.446	16.469	1183.513	895.594
202.461	16.359	1183.163	894.662
203.475	16.381	1181.851	893.712
204.490	16.364	1180.688	892.661
205.504	16.256	1179.016	890.752
206.519	16.244	1178.264	890.038
207.534	16.091	1177.767	888.777
208.548	16.152	1176.259	887.882
209.563	16.062	1175.696	886.908
210.577	16.216	1174.750	886.923
211.592	16.218	1174.132	886.386
212.607	16.361	1173.080	886.265
213.621	16.346	1172.296	885.515
214.636	16.335	1171.759	884.974
215.650	16.295	1170.595	883.808
216.665	16.345	1169.825	883.409
217.680	16.443	1168.929	883.168
218.694	16.502	1167.960	882.667
219.709	16.499	1167.271	882.049
220.723	16.460	1166.472	881.164
221.738	16.523	1165.504	880.683
222.753	16.487	1164.809	879.895
223.767	16.461	1164.853	879.714
224.782	16.560	1163.564	879.177
225.796	16.627	1162.871	878.924
226.811	16.644	1162.252	878.466
227.826	16.660	1161.516	877.917
228.840	16.491	1161.002	876.576
229.855	16.627	1159.829	876.314
230.869	16.541	1159.121	875.255
231.884	16.482	1158.601	874.480
232.899	16.428	1157.980	873.656
233.913	16.343	1157.113	872.488
234.928	16.405	1156.176	872.021
235.942	16.376	1155.558	871.331
236.957	16.328	1155.088	870.648
237.972	16.457	1153.980	870.405
238.986	16.432	1153.241	869.640
240.001	16.466	1152.654	869.293
241.015	16.556	1151.634	868.911
242.030	16.545	1151.080	868.360
243.045	16.619	1150.598	868.300
244.059	16.649	1149.722	867.713
245.074	16.682	1148.688	867.029
246.088	16.737	1147.847	866.598
247.103	16.752	1146.989	865.948
248.117	16.816	1146.427	865.773
249.132	16.892	1145.954	865.727
250.147	16.943	1145.389	865.487
251.161	17.084	1144.495	865.452
252.176	17.042	1143.825	864.657
253.190	17.141	1143.306	864.693
254.205	17.167	1142.713	864.298
255.220	17.269	1142.313	864.438
256.234	17.229	1141.650	863.658
257.249	17.228	1140.951	863.046
258.263	17.092	1140.583	862.001
259.278	17.096	1139.553	861.167
260.293	17.263	1139.195	861.668
261.307	17.334	1138.009	861.051
262.322	17.296	1137.796	860.623
263.336	17.281	1137.169	859.994
264.351	17.312	1136.293	859.416
265.366	17.347	1135.666	859.044
266.380	17.324	1135.155	858.461
267.395	17.246	1134.559	857.544
268.409	17.331	1133.550	857.132
269.424	17.184	1132.996	855.895
270.439	17.273	1132.162	855.641
271.453	17.275	1131.816	855.314
272.468	17.210	1130.502	853.919
273.482	17.223	1129.704	853.305
274.497	17.182	1129.303	852.720
275.512	17.280	1128.617	852.620
276.526	17.248	1127.902	851.840
277.541	17.133	1127.775	851.093
278.555	17.308	1126.348	850.816
279.570	17.396	1125.961	850.892
280.585	17.434	1125.092	850.349
281.599	17.419	1124.026	849.392
282.614	17.425	1123.094	848.645
283.628	17.440	1121.900	847.740
284.643	17.299	1121.181	846.419
285.657	17.387	1120.187	846.034
286.672	17.342	1119.331	845.090
287.687	17.443	1118.495	844.883
288.701	17.342	1117.852	843.822
289.716	17.495	1116.774	843.690
290.730	17.415	1116.190	842.777
291.745	17.511	1115.542	842.690
292.760	17.523	1114.985	842.254
293.774	17.616	1114.415	842.211
294.789	17.525	1114.009	841.377
295.803	17.639	1113.449	841.446
296.818	17.665	1112.484	840.770
297.833	17.448	1112.183	839.397
298.847	17.594	1110.997	839.144
299.862	17.592	1110.458	838.657
300.876	17.642	1109.602	838.179
301.891	17.712	1108.888	837.908
302.906	17.664	1108.470	837.284
303.920	17.903	1107.037	837.300
304.935	17.874	1107.053	837.097
305.949	17.918	1106.158	836.563
306.964	17.920	1105.667	836.126
307.979	17.845	1104.923	835.122
308.993	17.950	1103.795	834.711
310.008	17.930	1103.201	834.089
311.022	17.942	1102.753	833.733
312.037	17.854	1102.157	832.780
313.052	17.815	1101.098	831.717
314.066	17.798	1099.912	830.662
315.081	17.771	1099.055	829.810
316.095	17.640	1098.551	828.722
317.110	17.744	1097.399	828.284
318.125	17.786	1096.923	828.057
319.139	17.719	1096.161	827.081
320.154	17.753	1095.728	826.847
321.168	17.824	1095.100	826.647
322.183	17.819	1094.627	826.188
323.197	17.874	1093.720	825.698
324.212	17.830	1092.982	824.856
325.227	17.864	1092.765	824.783
326.241	17.854	1091.727	823.878
327.256	17.897	1091.077	823.521
328.270	17.881	1089.909	822.488
329.285	17.870	1089.092	821.749
330.300	17.903	1088.677	821.521
331.314	17.732	1088.003	820.118
332.329	17.859	1086.555	819.564
333.343	17.999	1085.604	819.447
334.358	17.925	1084.971	818.541
335.373	18.034	1084.596	818.706
336.387	18.054	1083.726	818.075
337.402	18.135	1082.905	817.768
338.416	18.032	1082.516	816.909
339.431	18.268	1081.201	816.974
340.446	18.111	1081.366	816.275
341.460	18.237	1081.015	816.539
342.475	18.205	1080.052	815.587
343.489	18.343	1079.013	815.389
344.504	18.409	1078.127	814.962
345.519	18.508	1076.837	814.386
346.533	18.539	1076.109	813.910
347.548	18.585	1075.723	813.763
348.562	18.439	1074.873	812.355
349.577	18.527	1073.592	811.731
350.592	18.242	1073.365	810.141
351.606	18.154	1072.852	809.264
352.621	18.306	1071.660	809.013
353.635	18.131	1071.176	807.746
354.650	18.230	1070.454	807.601
355.665	18.218	1069.667	806.877
356.679	18.272	1069.405	806.864
357.694	18.414	1068.625	806.873
358.708	18.514	1067.587	806.488
359.723	18.460	1067.217	805.885
360.738	18.393	1066.711	805.115
361.752	18.417	1066.214	804.781
362.767	18.480	1065.389	804.381
363.781	18.483	1064.862	803.927
364.796	18.622	1064.407	804.164
365.810	18.630	1063.976	803.807
366.825	18.874	1062.754	803.950
367.840	18.825	1062.508	803.464
368.854	18.827	1062.170	803.150
369.869	18.858	1061.172	802.466
370.883	18.789	1060.381	801.477
371.898	18.641	1059.662	800.171
372.913	18.756	1059.009	800.143
373.927	18.712	1058.763	799.684
374.942	18.841	1058.436	799.963
375.956	18.815	1057.740	799.247
376.971	18.810	1057.214	798.756
377.986	18.823	1056.626	798.301
379.000	18.886	1056.167	798.175
380.015	19.007	1055.296	798.008
381.029	18.997	1054.568	797.341
382.044	19.060	1053.769	796.960
383.059	18.945	1053.024	795.793
384.073	18.975	1052.814	795.701
385.088	19.120	1051.834	795.563
386.102	19.107	1050.648	794.533
387.117	18.910	1049.783	792.900
388.132	18.891	1048.696	791.921
389.146	18.901	1047.886	791.287
390.161	18.831	1047.328	790.471
391.175	18.958	1046.581	790.421
392.190	19.018	1045.930	790.136
393.205	19.038	1045.130	789.553
394.219	19.046	1044.222	788.836
395.234	19.032	1043.383	788.066
396.248	18.969	1042.607	787.123
397.263	19.001	1041.601	786.440
398.278	18.977	1041.001	785.808
399.292	18.898	1040.414	784.935
400.307	18.882	1039.418	784.041
401.321	19.010	1038.988	784.232
402.336	18.895	1038.624	783.364
403.350	18.948	1037.317	782.549
404.365	18.850	1037.065	781.845
405.380	18.989	1036.083	781.667
406.394	18.975	1035.527	781.113
407.409	19.215	1034.721	781.524
408.423	19.275	1033.888	781.098
409.438	19.313	1033.528	780.933
410.453	19.442	1032.644	780.778
411.467	19.282	1032.528	779.895
412.482	19.281	1031.653	779.162
413.496	19.426	1030.960	779.223
414.511	19.424	1030.263	778.619
415.526	19.551	1029.794	778.770
416.540	19.443	1029.753	778.184
417.555	19.530	1029.233	778.114
418.569	19.483	1028.544	777.310
419.584	19.639	1027.854	777.421
420.599	19.399	1027.509	776.012
421.613	151.386	1401.116	1792.838
422.628	138.035	1455.531	1792.947
