DTS Sentinel unit serial number:	SN413079Multiplexer serial number:	ORYXHardware model number:	OX4-SRSoftware version number:	ORYX F/W v4.00 Oryx Data Collector v3.7.2.0data status	okinstallation	princeton_trtdifferential loss correction	single-endedforward channel	channel 2reverse channel	N/Adate	2019/09/15time	18:27:34forward acquisition time	60.00reverse acquisition time	0.00gamma	496.2192k internal	0.2285k external	0.2285temperature offset calibration	0.9920default loss term (dB/km)	0.3790temperature slope calibration	1.0000multiplexer offset coefficient	1.0000multiplexer slope coefficient	1.0000fibre end	0.00T internal ref (°C)	44.19T ext. ref 1 (°C)	6.71T ext. ref 2 (°C)	37.78length (m)	temperature (°C)	Stokes	anti-Stokes-747.200	133.864	0.130	0.173
-746.185	130.425	0.196	0.258
-745.171	-19.015	-0.259	-0.165
-744.156	-71.134	-0.136	-0.053
-743.142	800.000	-0.111	0.470
-742.127	37.115	0.077	0.070
-741.112	-175.632	0.229	-0.006
-740.098	-125.636	-0.138	-0.021
-739.083	-78.047	0.159	0.056
-738.069	269.565	-0.015	0.027
-737.054	301.499	-0.190	-0.360
-736.039	-200.000	0.011	-0.183
-735.025	-200.000	0.118	0.538
-734.010	800.000	0.049	0.175
-732.996	323.192	0.078	0.153
-731.981	-47.214	0.097	0.048
-730.966	-146.257	0.256	0.023
-729.952	-162.520	-0.534	-0.027
-728.937	-61.742	-0.303	-0.130
-727.923	-200.000	-0.008	-0.187
-726.908	-165.536	-0.298	-0.013
-725.894	526.587	-0.080	-0.194
-724.879	69.161	-0.291	-0.307
-723.864	-7.976	-0.111	0.077
-722.850	800.000	0.036	-0.143
-721.835	94.553	0.128	-0.149
-720.821	40.244	0.292	-0.270
-719.806	100.086	0.091	-0.108
-718.791	-200.000	0.052	0.270
-717.777	-200.000	0.000	0.217
-716.762	-126.273	-0.182	0.028
-715.748	-146.439	-0.282	-0.025
-714.733	-96.541	0.561	0.152
-713.718	177.558	-0.094	-0.141
-712.704	-163.350	-0.302	-0.015
-711.689	-9.492	-0.194	0.133
-710.675	-32.162	0.221	0.127
-709.660	-148.300	0.305	0.026
-708.645	-71.298	0.120	0.046
-707.631	-50.173	0.065	0.032
-706.616	426.643	0.085	-0.188
-705.602	-200.000	-0.008	-0.651
-704.587	-122.184	0.067	-0.011
-703.572	-17.295	0.293	-0.189
-702.558	423.708	0.130	-0.285
-701.543	800.000	-0.051	-0.159
-700.529	597.411	0.114	0.288
-699.514	-8.441	-0.164	-0.113
-698.499	800.000	0.012	-0.051
-697.485	-139.975	0.026	0.003
-696.470	229.387	-0.173	0.290
-695.456	-200.000	-0.010	0.132
-694.441	-123.921	0.101	0.016
-693.426	112.699	-0.164	-0.203
-692.412	-85.186	-0.121	0.039
-691.397	-200.000	0.046	-0.289
-690.383	800.000	-0.112	0.316
-689.368	-200.000	0.009	0.264
-688.354	196.797	-0.084	-0.131
-687.339	-67.089	0.205	0.083
-686.324	-90.889	0.132	0.039
-685.310	446.672	-0.071	0.160
-684.295	-200.000	-0.007	-0.375
-683.281	-200.000	-0.010	0.345
-682.266	20.213	0.033	0.027
-681.251	-56.733	-0.291	-0.132
-680.237	-94.388	-0.151	0.042
-679.222	-119.147	-0.200	0.036
-678.208	710.248	0.042	-0.113
-677.193	-137.565	-0.295	0.034
-676.178	-150.128	0.140	0.011
-675.164	-18.783	0.194	-0.123
-674.149	-59.314	0.088	0.039
-673.135	11.103	0.172	0.135
-672.120	-200.000	-0.019	0.311
-671.105	-125.918	-0.205	-0.032
-670.091	-12.824	0.157	-0.104
-669.076	214.510	-0.200	-0.324
-668.062	64.881	0.239	0.247
-667.047	800.000	0.048	0.142
-666.032	-200.000	0.033	0.389
-665.018	66.217	-0.189	0.196
-664.003	128.138	0.065	-0.084
-662.989	800.000	-0.057	-0.241
-661.974	126.209	0.112	-0.146
-660.959	-85.151	0.203	0.065
-659.945	237.747	0.155	-0.263
-658.930	107.895	0.335	0.408
-657.916	-28.243	0.185	-0.109
-656.901	-6.660	-0.147	-0.103
-655.886	429.963	-0.082	0.182
-654.872	-45.379	-0.365	0.185
-653.857	152.104	0.094	-0.131
-652.843	251.974	0.114	0.198
-651.828	-92.131	-0.490	-0.142
-650.814	-200.000	-0.014	0.399
-649.799	-200.000	0.008	-0.117
-648.784	-200.000	-0.027	-0.219
-647.770	-200.000	0.011	0.126
-646.755	-68.853	-0.272	-0.108
-645.741	-200.000	0.024	0.356
-644.726	49.634	-0.145	0.140
-643.711	-146.502	-0.183	0.016
-642.697	800.000	-0.029	-0.123
-641.682	800.000	0.047	-0.177
-640.668	-128.826	-0.236	0.034
-639.653	-140.118	0.225	0.024
-638.638	-200.000	0.010	0.166
-637.624	-133.199	0.025	-0.003
-636.609	800.000	-0.012	-0.042
-635.595	-5.817	0.262	-0.183
-634.580	47.775	0.097	-0.092
-633.565	-4.715	0.207	0.146
-632.551	273.528	0.165	0.298
-631.536	116.131	-0.153	-0.191
-630.522	256.996	0.123	0.217
-629.507	-143.239	-0.269	0.026
-628.492	-92.118	0.040	0.012
-627.478	194.396	0.111	0.172
-626.463	-200.000	-0.072	0.333
-625.449	-105.348	0.394	-0.092
-624.434	-76.440	0.390	-0.140
-623.419	-181.113	-0.326	-0.007
-622.405	431.238	0.031	0.068
-621.390	-200.000	0.067	-0.411
-620.376	-62.745	-0.359	-0.152
-619.361	260.536	0.167	-0.294
-618.346	800.000	0.086	-0.272
-617.332	-95.026	-0.304	0.084
-616.317	117.415	-0.033	0.042
-615.303	-84.213	-0.067	-0.022
-614.288	-71.156	-0.188	-0.072
-613.273	5.247	-0.182	-0.137
-612.259	-29.073	-0.191	-0.112
-611.244	-30.887	0.147	0.085
-610.230	-151.903	0.335	0.025
-609.215	-112.908	0.256	-0.052
-608.201	-84.795	-0.201	0.064
-607.186	-83.241	0.179	-0.059
-606.171	-54.577	0.248	0.115
-605.157	96.640	-0.166	-0.194
-604.142	-23.060	-0.078	0.048
-603.128	-34.182	-0.269	0.151
-602.113	-123.356	0.102	0.017
-601.098	83.635	-0.110	0.122
-600.084	-18.832	0.134	-0.085
-599.069	-200.000	-0.066	0.387
-598.055	-82.165	-0.324	-0.108
-597.040	580.412	-0.190	-0.475
-596.025	-80.199	-0.109	-0.037
-595.011	289.671	-0.157	0.290
-593.996	-162.115	0.163	-0.008
-592.982	-200.000	-0.024	-0.190
-591.967	-200.000	0.012	-0.133
-590.952	-95.312	0.458	-0.126
-589.938	-200.000	-0.026	-0.128
-588.923	-200.000	0.004	-0.163
-587.909	-200.000	-0.001	-0.415
-586.894	106.172	-0.041	0.050
-585.879	800.000	-0.034	0.104
-584.865	800.000	0.022	-0.084
-583.850	800.000	0.021	-0.074
-582.836	-200.000	-0.066	0.326
-581.821	-62.573	0.201	-0.085
-580.806	-153.861	0.247	0.017
-579.792	-200.000	-0.027	-0.218
-578.777	-38.331	-0.298	-0.161
-577.763	92.769	-0.089	0.102
-576.748	-200.000	-0.024	0.143
-575.733	66.195	0.244	-0.252
-574.719	-119.751	0.083	-0.015
-573.704	287.897	-0.143	0.265
-572.690	48.576	0.238	0.228
-571.675	-36.469	-0.154	-0.085
-570.661	-9.789	-0.113	0.077
-569.646	800.000	0.042	-0.126
-568.631	800.000	0.038	-0.143
-567.617	-61.335	0.099	0.043
-566.602	41.185	-0.154	-0.142
-565.588	134.545	0.113	-0.150
-564.573	-99.505	0.204	0.052
-563.558	-200.000	-0.022	-0.186
-562.544	127.501	-0.140	-0.181
-561.529	800.000	-0.059	-0.242
-560.515	83.537	-0.177	0.197
-559.500	800.000	0.057	-0.159
-558.485	-200.000	0.004	-0.059
-557.471	-84.500	-0.182	-0.058
-556.456	-96.149	0.217	0.059
-555.442	146.325	0.083	0.113
-554.427	-142.890	0.430	-0.043
-553.412	-40.098	-0.242	-0.128
-552.398	39.720	0.156	0.143
-551.383	171.038	0.152	0.222
-550.369	-91.297	-0.258	-0.075
-549.354	800.000	-0.007	0.022
-548.339	-126.546	0.421	0.064
-547.325	800.000	0.039	0.126
-546.310	155.367	-0.078	0.109
-545.296	28.084	-0.072	-0.062
-544.281	-200.000	-0.007	-0.209
-543.266	-103.682	0.246	0.059
-542.252	-186.088	0.280	0.004
-541.237	-33.129	0.381	-0.215
-540.223	-123.539	-0.098	0.016
-539.208	800.000	0.030	0.093
-538.193	-200.000	0.008	-0.095
-537.179	19.421	0.193	0.158
-536.164	-182.653	0.118	-0.002
-535.150	-200.000	-0.095	0.460
-534.135	88.932	-0.312	-0.354
-533.121	446.420	0.082	-0.184
-532.106	-200.000	0.080	-0.373
-531.091	-118.695	-0.175	0.031
-530.077	568.821	-0.007	0.018
-529.062	614.954	0.087	-0.221
-528.048	-148.470	-0.060	-0.005
-527.033	210.662	-0.124	-0.198
-526.018	93.425	0.095	-0.109
-525.004	-200.000	0.013	0.064
-523.989	-68.871	0.207	-0.081
-522.975	-173.705	0.192	-0.006
-521.960	670.384	0.097	-0.256
-520.945	-200.000	-0.001	-0.049
-519.931	-89.967	0.158	-0.047
-518.916	-200.000	-0.068	0.397
-517.902	330.679	-0.095	0.186
-516.887	500.961	0.057	0.133
-515.872	-132.466	-0.459	-0.060
-514.858	-31.564	-0.038	0.022
-513.843	159.423	-0.056	0.079
-512.829	312.382	-0.027	-0.051
-511.814	276.755	-0.047	0.085
-510.799	-144.321	-0.397	0.038
-509.785	-38.778	-0.120	0.064
-508.770	-200.000	0.002	-0.199
-507.756	144.298	-0.136	-0.185
-506.741	112.811	0.055	-0.068
-505.726	-83.924	-0.060	0.019
-504.712	-200.000	0.009	0.081
-503.697	476.203	0.036	0.082
-502.683	5.148	-0.161	0.121
-501.668	-115.873	-0.028	-0.005
-500.653	-102.352	0.270	0.066
-499.639	338.456	0.086	0.170
-498.624	-179.895	-0.132	-0.003
-497.610	326.392	0.123	0.240
-496.595	-200.000	-0.008	-0.303
-495.581	-99.527	0.332	0.085
-494.566	-59.976	-0.172	0.075
-493.551	-200.000	0.032	0.578
-492.537	800.000	-0.107	0.400
-491.522	-101.205	-0.217	0.054
-490.508	285.009	0.171	-0.313
-489.493	125.567	-0.061	-0.078
-488.478	30.121	-0.100	-0.086
-487.464	-23.051	0.082	0.050
-486.449	-11.888	0.150	0.100
-485.435	543.367	-0.123	0.298
-484.420	800.000	-0.067	0.201
-483.405	-71.242	0.182	0.070
-482.391	-133.156	-0.317	0.041
-481.376	-88.880	-0.244	0.073
-480.362	140.011	-0.177	-0.237
-479.347	45.163	-0.115	0.108
-478.332	-84.036	0.353	-0.114
-477.318	-83.069	0.281	-0.092
-476.303	201.446	0.006	-0.009
-475.289	436.318	0.124	0.274
-474.274	-200.000	-0.063	0.307
-473.259	318.015	-0.123	-0.236
-472.245	-200.000	0.001	-0.243
-471.230	-62.972	-0.069	0.029
-470.216	24.595	0.183	0.154
-469.201	39.206	-0.009	-0.008
-468.186	93.684	-0.267	-0.307
-467.172	800.000	-0.095	-0.308
-466.157	285.475	-0.165	-0.303
-465.143	105.079	0.201	0.241
-464.128	-87.326	0.189	-0.058
-463.113	-200.000	0.035	-0.186
-462.099	231.752	-0.138	-0.230
-461.084	203.513	-0.118	0.185
-460.070	-94.954	-0.537	-0.148
-459.055	-88.953	0.436	-0.131
-458.040	-63.022	-0.233	-0.098
-457.026	-157.629	-0.325	-0.020
-456.011	197.860	-0.157	0.244
-454.997	61.466	0.072	0.073
-453.982	-106.399	0.278	-0.063
-452.968	-119.763	-0.276	-0.048
-451.953	-200.000	-0.027	0.244
-450.938	-26.029	-0.160	0.095
-449.924	800.000	-0.075	0.296
-448.909	-200.000	-0.032	-0.147
-447.895	148.029	-0.070	0.095
-446.880	-68.032	-0.218	-0.086
-445.865	-30.709	-0.142	-0.081
-444.851	800.000	0.037	-0.161
-443.836	-7.932	0.170	0.117
-442.822	206.791	0.167	-0.264
-441.807	-133.063	-0.132	0.017
-440.792	-200.000	0.022	0.183
-439.778	-146.669	-0.021	-0.002
-438.763	220.360	0.079	0.128
-437.749	-200.000	0.049	-0.278
-436.734	-35.927	-0.157	0.086
-435.719	88.622	-0.199	-0.224
-434.705	-161.508	-0.092	0.005
-433.690	-169.257	-0.082	0.003
-432.676	-116.709	-0.111	-0.021
-431.661	9.181	0.063	0.048
-430.646	800.000	-0.061	-0.268
-429.632	-3.359	0.217	-0.154
-428.617	-7.854	0.135	0.092
-427.603	24.632	-0.225	0.189
-426.588	-99.260	0.065	-0.017
-425.573	19.130	0.182	0.148
-424.559	-84.655	-0.156	-0.050
-423.544	-61.752	0.280	0.119
-422.530	-56.313	-0.488	-0.220
-421.515	91.964	-0.138	0.157
-420.500	-141.907	-0.358	0.036
-419.486	800.000	-0.098	0.309
-418.471	-180.755	0.171	-0.004
-417.457	-200.000	-0.006	-0.026
-416.442	215.784	-0.165	-0.265
-415.428	288.977	-0.155	-0.284
-414.413	735.912	0.104	-0.282
-413.398	60.810	-0.171	-0.172
-412.384	800.000	-0.001	-0.004
-411.369	-186.302	-0.226	-0.003
-410.355	800.000	0.109	-0.371
-409.340	-200.000	-0.017	-0.229
-408.325	-181.808	-0.170	0.003
-407.311	241.557	0.119	0.201
-406.296	59.199	-0.090	-0.090
-405.282	509.901	-0.172	-0.406
-404.267	-200.000	0.013	-0.291
-403.252	513.883	-0.235	-0.555
-402.238	318.389	0.122	-0.235
-401.223	184.309	0.096	-0.143
-400.209	800.000	-0.090	-0.334
-399.194	197.477	0.082	-0.127
-398.179	124.836	-0.220	-0.281
-397.165	622.874	0.148	-0.377
-396.150	294.409	-0.105	-0.195
-395.136	-200.000	0.045	-0.326
-394.121	198.725	0.112	0.173
-393.106	-57.601	-0.223	-0.099
-392.092	-120.763	-0.225	0.038
-391.077	-28.894	0.102	-0.059
-390.063	800.000	-0.067	0.281
-389.048	162.278	0.184	-0.261
-388.033	697.012	0.025	-0.066
-387.019	-148.478	-0.377	0.031
-386.004	-5.401	0.311	-0.216
-384.990	-101.609	0.122	-0.030
-383.975	355.628	-0.123	-0.247
-382.960	-90.119	-0.243	0.072
-381.946	-40.615	0.119	-0.062
-380.931	-57.126	-0.151	0.068
-379.917	-116.278	-0.355	0.067
-378.902	-45.578	-0.552	0.277
-377.888	-94.184	-0.099	0.027
-376.873	-21.189	0.042	-0.026
-375.858	204.067	0.116	-0.182
-374.844	-200.000	0.059	0.271
-373.829	-23.577	0.223	-0.135
-372.815	-200.000	0.015	-0.151
-371.800	-86.837	-0.264	0.082
-370.785	800.000	0.046	-0.157
-369.771	-124.675	-0.301	-0.047
-368.756	438.686	-0.199	-0.440
-367.742	800.000	0.113	0.338
-366.727	-158.479	-0.146	0.009
-365.712	197.242	-0.122	0.188
-364.698	-200.000	0.024	0.147
-363.683	105.289	-0.059	-0.071
-362.669	800.000	-0.055	0.163
-361.654	-79.991	-0.130	0.044
-360.639	547.445	0.043	0.103
-359.625	800.000	0.124	0.409
-358.610	-147.363	0.324	-0.028
-357.596	50.836	-0.294	-0.282
-356.581	265.750	0.089	-0.156
-355.566	-200.000	-0.031	0.207
-354.552	-35.643	-0.137	0.075
-353.537	101.689	0.210	-0.247
-352.523	-200.000	0.017	-0.512
-351.508	-150.649	0.157	-0.012
-350.493	800.000	0.072	0.219
-349.479	58.248	-0.198	0.196
-348.464	-200.000	-0.001	-0.134
-347.450	-200.000	0.077	0.368
-346.435	112.386	0.089	0.109
-345.420	-200.000	0.026	-0.169
-344.406	-126.905	0.082	0.012
-343.391	-17.898	-0.364	-0.231
-342.377	706.304	-0.077	-0.206
-341.362	-9.489	-0.318	0.215
-340.348	2.109	0.317	0.231
-339.333	-145.664	0.163	0.015
-338.318	-200.000	-0.016	0.108
-337.304	119.174	0.233	-0.292
-336.289	-28.147	-0.161	-0.094
-335.275	230.576	-0.059	0.097
-334.260	244.772	-0.077	0.131
-333.245	-1.285	0.137	0.098
-332.231	-181.293	-0.086	0.002
-331.216	41.095	-0.197	0.180
-330.202	-200.000	0.001	-0.026
-329.187	-147.650	-0.217	0.018
-328.172	-200.000	-0.036	-0.279
-327.158	800.000	-0.019	-0.081
-326.143	493.063	-0.118	0.274
-325.129	-200.000	-0.054	-0.430
-324.114	-39.559	-0.243	0.128
-323.099	-114.471	0.244	-0.047
-322.085	-200.000	0.019	0.339
-321.070	-46.512	-0.161	0.080
-320.056	-86.921	0.300	0.092
-319.041	130.598	-0.086	0.111
-318.026	800.000	-0.062	-0.273
-317.012	-200.000	0.001	0.077
-315.997	-40.736	-0.134	0.070
-314.983	277.777	-0.177	0.317
-313.968	-91.681	-0.334	-0.096
-312.953	83.905	0.057	-0.063
-311.939	-200.000	0.007	-0.181
-310.924	180.939	-0.068	0.101
-309.910	501.544	0.062	-0.145
-308.895	-200.000	-0.013	-0.150
-307.880	-21.493	-0.133	0.082
-306.866	-103.845	-0.248	0.059
-305.851	87.862	-0.094	0.105
-304.837	4.989	-0.342	0.254
-303.822	-95.191	-0.192	0.052
-302.807	-3.808	0.108	-0.076
-301.793	267.979	0.097	-0.172
-300.778	356.451	0.068	-0.136
-299.764	800.000	0.139	-0.414
-298.749	-40.940	-0.144	-0.075
-297.735	800.000	0.137	-0.393
-296.720	65.699	-0.188	0.192
-295.705	512.294	0.079	0.185
-294.691	224.311	-0.140	0.229
-293.676	261.584	0.136	0.238
-292.662	-119.357	0.161	-0.028
-291.647	-160.184	0.242	-0.013
-290.632	-47.111	0.221	-0.109
-289.618	83.480	-0.184	-0.202
-288.603	-169.978	-0.522	-0.019
-287.589	-53.524	0.073	0.034
-286.574	-149.651	0.193	0.015
-285.559	296.362	0.156	0.289
-284.545	-200.000	0.049	-0.264
-283.530	-49.199	0.180	0.087
-282.516	454.489	-0.033	0.074
-281.501	-200.000	0.010	0.131
-280.486	800.000	-0.027	-0.101
-279.472	-4.580	0.287	0.200
-278.457	157.674	0.196	-0.274
-277.443	800.000	-0.062	0.213
-276.428	402.084	-0.119	0.251
-275.413	-111.376	0.329	-0.068
-274.399	70.559	-0.197	-0.205
-273.384	743.987	0.011	-0.031
-272.370	554.930	-0.059	-0.143
-271.355	-200.000	-0.012	-0.190
-270.340	-200.000	0.014	-0.300
-269.326	218.832	0.101	0.163
-268.311	547.302	0.085	-0.205
-267.297	-103.455	0.123	0.029
-266.282	302.737	0.098	-0.183
-265.267	130.734	-0.177	0.228
-264.253	-172.844	0.321	-0.010
-263.238	-7.352	-0.067	0.046
-262.224	138.918	0.135	0.179
-261.209	88.556	-0.181	0.203
-260.195	106.878	-0.195	-0.233
-259.180	-118.663	-0.337	0.060
-258.165	800.000	0.075	0.242
-257.151	-88.321	0.240	0.072
-256.136	800.000	-0.032	0.109
-255.122	44.348	-0.199	-0.184
-254.107	-108.768	0.088	0.019
-253.092	800.000	-0.090	0.325
-252.078	126.929	-0.080	-0.102
-251.063	593.870	0.069	0.171
-250.049	-164.992	0.047	0.002
-249.034	800.000	-0.045	0.191
-248.019	-200.000	-0.067	0.423
-247.005	-197.822	0.113	0.001
-245.990	800.000	0.115	0.440
-244.976	800.000	0.041	0.124
-243.961	-19.048	0.103	-0.064
-242.946	-200.000	0.021	0.221
-241.932	-84.251	0.049	-0.016
-240.917	-26.709	-0.166	-0.098
-239.903	-200.000	0.006	-0.044
-238.888	83.301	0.195	0.214
-237.873	800.000	-0.067	0.243
-236.859	128.206	-0.096	0.123
-235.844	-55.039	0.214	0.097
-234.830	-200.000	0.031	-0.237
-233.815	-200.000	0.042	0.222
-232.800	-9.740	0.342	0.229
-231.786	-200.000	0.007	0.231
-230.771	800.000	-0.031	0.113
-229.757	-39.223	0.111	0.059
-228.742	189.785	0.194	-0.293
-227.727	23.989	-0.061	0.051
-226.713	-22.717	0.321	0.195
-225.698	-200.000	-0.021	0.366
-224.684	-110.971	-0.279	0.058
-223.669	26.510	0.144	0.121
-222.655	100.571	0.067	0.079
-221.640	227.959	-0.004	0.006
-220.625	-111.870	-0.484	-0.098
-219.611	20.101	0.095	0.077
-218.596	-44.592	-0.445	0.224
-217.582	137.283	-0.041	0.054
-216.567	800.000	0.067	0.225
-215.552	-78.723	0.199	0.068
-214.538	242.329	0.037	-0.063
-213.523	-33.775	0.310	0.172
-212.509	179.240	0.201	0.295
-211.494	-200.000	-0.067	-0.469
-210.479	-69.027	0.056	-0.022
-209.465	98.287	0.066	0.077
-208.450	-32.473	0.160	-0.090
-207.436	148.214	-0.111	0.150
-206.421	-200.000	0.015	0.190
-205.406	-200.000	0.018	0.199
-204.392	-200.000	0.052	0.295
-203.377	112.535	0.240	0.291
-202.363	-37.978	-0.202	0.108
-201.348	800.000	-0.035	0.154
-200.333	-50.274	0.184	-0.087
-199.319	44.505	0.078	0.072
-198.304	-18.192	0.413	-0.259
-197.290	800.000	0.083	-0.281
-196.275	-108.699	0.048	0.010
-195.260	536.717	-0.082	-0.195
-194.246	-31.621	0.154	0.087
-193.231	-197.604	0.317	0.002
-192.217	43.691	0.185	0.170
-191.202	-200.000	0.015	0.234
-190.187	-101.136	0.242	0.060
-189.173	20.880	-0.471	0.384
-188.158	23.657	0.081	-0.067
-187.144	-20.655	0.141	0.087
-186.129	-134.643	0.261	-0.032
-185.114	-200.000	-0.059	-0.280
-184.100	-200.000	0.004	-0.146
-183.085	-122.304	-0.117	-0.019
-182.071	108.906	0.085	0.102
-181.056	-115.939	0.259	-0.049
-180.042	-200.000	0.024	-0.356
-179.027	86.141	0.172	0.190
-178.012	-41.663	0.193	0.100
-176.998	-66.084	0.332	0.133
-175.983	-200.000	-0.010	0.052
-174.969	217.691	-0.036	-0.057
-173.954	420.897	0.098	-0.212
-172.939	87.490	0.252	0.280
-171.925	-82.042	0.281	0.092
-170.910	-200.000	0.029	-0.280
-169.896	73.055	0.140	-0.146
-168.881	800.000	0.154	-0.433
-167.866	50.407	0.204	0.194
-166.852	251.511	0.139	0.237
-165.837	-200.000	-0.068	0.383
-164.823	-43.788	0.124	-0.063
-163.808	467.577	-0.094	-0.212
-162.793	-80.895	0.190	0.063
-161.779	-161.732	-0.184	-0.009
-160.764	-162.060	0.009	0.000
-159.750	-126.840	0.179	0.026
-158.735	-129.438	0.161	0.022
-157.720	800.000	-0.093	0.387
-156.706	227.461	0.112	-0.182
-155.691	189.708	-0.063	0.095
-154.677	-84.625	-0.229	0.073
-153.662	-42.617	0.166	0.085
-152.647	344.169	0.204	0.402
-151.633	-200.000	0.002	0.279
-150.618	-5.368	0.165	-0.114
-149.604	747.350	-0.100	-0.269
-148.589	-200.000	-0.022	-0.130
-147.574	-131.497	-0.123	-0.016
-146.560	-200.000	-0.015	-0.108
-145.545	452.490	0.045	0.100
-144.531	422.081	-0.121	-0.260
-143.516	97.710	-0.246	0.283
-142.502	-200.000	0.029	0.189
-141.487	-21.769	-0.204	-0.125
-140.472	-63.926	-0.287	0.117
-139.458	-114.380	0.060	-0.012
-138.443	-200.000	0.012	0.374
-137.429	-200.000	0.027	-0.226
-136.414	-106.030	0.370	-0.083
-135.399	555.379	0.073	-0.176
-134.385	-125.646	0.140	0.021
-133.370	-109.946	-0.203	0.043
-132.356	125.996	-0.253	0.321
-131.341	-200.000	-0.029	0.302
-130.326	-80.093	-0.247	0.083
-129.312	-42.514	-0.332	-0.170
-128.297	800.000	-0.017	-0.066
-127.283	279.561	0.122	0.219
-126.268	-25.415	0.210	0.124
-125.253	304.837	0.078	-0.145
-124.239	-200.000	0.012	-0.130
-123.224	70.066	-0.189	-0.196
-122.210	123.918	0.146	0.183
-121.195	-37.467	0.151	-0.081
-120.180	309.023	-0.109	0.205
-119.166	-29.288	-0.247	-0.142
-118.151	158.828	-0.182	-0.254
-117.137	467.881	-0.198	-0.444
-116.122	57.914	0.279	-0.273
-115.107	-26.710	0.231	0.135
-114.093	-48.762	0.312	-0.150
-113.078	199.134	-0.108	-0.166
-112.064	-177.004	-0.069	-0.002
-111.049	-53.098	-0.065	-0.030
-110.034	-112.099	0.133	0.027
-109.020	169.612	-0.222	0.318
-108.005	-47.895	0.244	0.118
-106.991	-138.610	0.119	-0.013
-105.976	-200.000	0.008	-0.303
-104.962	155.089	-0.212	0.291
-103.947	-111.078	0.214	0.044
-102.932	595.625	-0.124	-0.307
-101.918	-200.000	-0.036	0.330
-100.903	800.000	0.042	-0.173
-99.889	2.182	0.185	0.134
-98.874	175.502	-0.045	-0.065
-97.859	-25.855	0.140	0.082
-96.845	450.432	-0.144	0.318
-95.830	800.000	-0.041	0.126
-94.816	16.312	-0.275	-0.217
-93.801	800.000	-0.089	0.272
-92.786	15.625	0.333	-0.262
-91.772	-117.672	0.321	-0.058
-90.757	-200.000	0.042	0.217
-89.743	-200.000	-0.009	0.091
-88.728	800.000	0.118	-0.378
-87.713	109.679	0.292	0.350
-86.699	599.824	0.148	0.368
-85.684	30.562	-0.215	-0.184
-84.670	583.527	0.058	-0.143
-83.655	620.997	-0.133	0.335
-82.640	4.853	-0.028	-0.020
-81.626	98.979	-0.105	-0.122
-80.611	-102.924	-0.129	-0.031
-79.597	-102.531	-0.159	0.038
-78.582	-200.000	-0.068	-0.354
-77.567	800.000	-0.081	0.234
-76.553	-200.000	-0.005	-0.043
-75.538	-200.000	0.023	-0.265
-74.524	-12.652	0.261	0.170
-73.509	-200.000	0.033	0.333
-72.494	-111.949	0.120	0.024
-71.480	139.192	-0.065	0.085
-70.465	-200.000	0.023	0.163
-69.451	359.250	0.131	0.262
-68.436	34.630	-0.075	0.066
-67.422	116.485	0.116	-0.143
-66.407	-200.000	0.004	-0.037
-65.392	417.421	-0.053	0.113
-64.378	-200.000	-0.012	-0.234
-63.363	185.535	-0.070	-0.105
-62.349	-31.324	0.135	0.076
-61.334	-83.259	-0.759	-0.244
-60.319	63.859	0.038	-0.038
-59.305	800.000	-0.238	-0.722
-58.290	134.909	0.211	0.274
-57.276	653.370	0.601	1.542
-56.261	-200.000	71.980	552.284
-55.246	608.109	1269.056	3164.129
-54.232	144.098	2503.581	3337.090
-53.217	115.253	2348.280	2865.374
-52.203	54.254	1968.340	1892.955
-51.188	47.744	1758.624	1639.991
-50.173	44.746	1711.160	1572.570
-49.159	58.979	1742.028	1711.621
-48.144	65.777	1761.088	1782.918
-47.130	47.609	1726.126	1608.386
-46.115	44.284	1712.228	1569.731
-45.100	44.059	1707.700	1563.778
-44.086	44.007	1705.065	1560.902
-43.071	44.025	1702.623	1558.743
-42.057	43.993	1700.087	1556.118
-41.042	44.021	1697.954	1554.318
-40.027	44.018	1696.034	1552.476
-39.013	44.017	1693.866	1550.419
-37.998	44.041	1691.991	1548.826
-36.984	44.062	1690.850	1547.881
-35.969	44.176	1689.371	1547.336
-34.954	44.270	1687.585	1546.354
-33.940	44.178	1686.076	1544.211
-32.925	44.196	1684.143	1542.514
-31.911	44.213	1681.857	1540.489
-30.896	44.183	1679.964	1538.465
-29.881	44.074	1678.989	1536.688
-28.867	44.096	1677.226	1535.177
-27.852	44.113	1675.820	1533.956
-26.838	44.209	1673.573	1532.570
-25.823	44.238	1672.738	1531.960
-24.809	44.246	1671.092	1530.452
-23.794	44.253	1669.161	1528.678
-22.779	44.225	1668.201	1527.523
-21.765	44.117	1666.781	1525.352
-20.750	44.125	1665.190	1523.899
-19.736	44.241	1663.110	1522.802
-18.721	44.280	1661.326	1521.403
-17.706	44.190	1660.341	1519.765
-16.692	44.172	1658.647	1518.022
-15.677	44.171	1657.393	1516.806
-14.663	44.300	1655.632	1516.093
-13.648	44.275	1654.466	1514.777
-12.633	44.267	1652.811	1513.144
-11.619	44.295	1650.611	1511.277
-10.604	44.202	1649.423	1509.437
-9.590	44.274	1648.051	1508.656
-8.575	44.326	1646.653	1507.703
-7.560	44.208	1645.857	1506.044
-6.546	44.261	1644.484	1505.115
-5.531	44.142	1643.628	1503.391
-4.517	44.240	1641.895	1502.471
-3.502	44.175	1641.014	1501.129
-2.487	44.253	1639.607	1500.355
-1.473	43.988	1627.984	1487.719
-0.458	40.562	1605.693	1442.427
0.556	32.407	1599.819	1390.888
1.571	28.436	1619.834	1378.373
2.586	26.815	1632.405	1376.653
3.600	23.470	1580.639	1308.248
4.615	15.491	1470.637	1162.088
5.629	8.521	1401.002	1060.860
6.644	6.858	1391.071	1042.284
7.659	6.723	1389.853	1040.395
8.673	6.706	1388.786	1039.388
9.688	6.564	1386.730	1036.823
10.702	6.348	1384.059	1033.321
11.717	9.236	1390.147	1056.786
12.731	15.582	1401.408	1107.199
13.746	18.288	1404.721	1127.567
14.761	17.049	1401.466	1116.709
15.775	15.833	1398.397	1106.180
16.790	14.723	1395.758	1096.705
17.804	13.984	1392.952	1089.561
18.819	13.473	1392.070	1085.426
19.834	13.158	1390.518	1082.058
20.848	12.853	1389.223	1078.955
21.863	12.764	1387.913	1077.263
22.877	12.615	1386.362	1074.988
23.892	12.539	1385.721	1073.903
24.907	12.495	1384.998	1072.962
25.921	12.536	1383.737	1072.153
26.936	12.566	1383.069	1071.735
27.950	12.619	1381.949	1071.123
28.965	12.705	1380.924	1070.789
29.980	12.672	1379.797	1069.608
30.994	12.798	1378.658	1069.446
32.009	12.906	1377.304	1069.001
33.023	12.848	1375.887	1067.435
34.038	12.778	1374.523	1065.824
35.053	12.753	1373.835	1065.039
36.067	12.684	1372.770	1063.673
37.082	12.677	1371.505	1062.555
38.096	12.729	1370.391	1061.932
39.111	12.759	1369.668	1061.468
40.126	12.631	1368.851	1059.921
41.140	12.587	1367.620	1058.592
42.155	12.516	1367.037	1057.590
43.169	12.492	1367.269	1057.516
44.184	12.408	1367.367	1056.962
45.199	12.570	1366.309	1057.092
46.213	12.476	1366.002	1056.154
47.228	12.561	1365.077	1055.892
48.242	12.607	1363.764	1055.075
49.257	12.625	1362.412	1054.055
50.271	12.651	1360.390	1052.564
51.286	12.672	1359.243	1051.714
52.301	12.642	1357.893	1050.388
53.315	12.600	1356.945	1049.292
54.330	12.575	1355.773	1048.133
55.344	12.690	1354.183	1047.543
56.359	12.577	1353.691	1046.350
57.374	12.525	1352.920	1045.333
58.388	12.470	1352.075	1044.236
59.403	12.414	1351.497	1043.343
60.417	12.405	1350.941	1042.769
61.432	12.409	1349.643	1041.699
62.447	12.361	1349.313	1041.044
63.461	12.346	1347.713	1039.622
64.476	12.384	1346.745	1039.028
65.490	12.253	1345.929	1037.474
66.505	12.382	1344.342	1036.975
67.520	12.404	1342.675	1035.739
68.534	12.476	1341.612	1035.280
69.549	12.465	1340.439	1034.212
70.563	12.390	1340.047	1033.347
71.578	12.460	1338.252	1032.313
72.593	12.384	1337.351	1031.047
73.607	12.314	1336.599	1029.935
74.622	12.288	1335.708	1028.998
75.636	12.309	1335.288	1028.714
76.651	12.319	1334.609	1028.162
77.666	12.352	1333.888	1027.721
78.680	12.353	1333.651	1027.453
79.695	12.360	1332.789	1026.743
80.709	12.388	1332.086	1026.286
81.724	12.472	1331.140	1025.993
82.739	12.480	1330.401	1025.383
83.753	12.452	1329.863	1024.702
84.768	12.658	1328.229	1024.630
85.782	12.621	1327.303	1023.597
86.797	12.603	1326.337	1022.651
87.812	12.545	1324.901	1021.090
88.826	12.654	1323.650	1020.717
89.841	12.676	1322.662	1019.998
90.855	12.745	1321.659	1019.563
91.870	12.674	1320.748	1018.328
92.884	12.739	1319.981	1018.052
93.899	12.708	1319.306	1017.248
94.914	12.761	1318.728	1017.042
95.928	12.785	1317.448	1016.109
96.943	12.715	1316.654	1014.978
97.957	12.760	1315.219	1014.061
98.972	12.732	1314.785	1013.464
99.987	12.758	1313.603	1012.619
101.001	12.718	1312.689	1011.578
102.016	12.778	1311.585	1011.009
103.030	12.694	1310.790	1009.792
104.045	12.681	1310.074	1009.068
105.060	12.638	1308.611	1007.592
106.074	12.584	1307.244	1006.118
107.089	12.480	1305.680	1004.194
108.103	12.503	1304.214	1003.116
109.118	12.440	1303.510	1002.100
110.133	12.347	1301.882	1000.197
111.147	12.509	1300.586	1000.097
112.162	12.562	1299.236	999.289
113.176	12.531	1298.307	998.298
114.191	12.483	1297.444	997.258
115.206	12.598	1296.070	996.807
116.220	12.502	1294.726	995.109
117.235	12.530	1293.837	994.505
118.249	12.523	1292.696	993.500
119.264	12.526	1291.520	992.523
120.279	12.490	1290.576	991.493
121.293	12.475	1289.363	990.384
122.308	12.471	1288.254	989.422
123.322	12.354	1287.574	988.104
124.337	12.378	1286.208	987.112
125.352	12.444	1284.956	986.464
126.366	12.452	1284.170	985.820
127.381	12.340	1283.067	984.216
128.395	12.397	1282.247	983.839
129.410	12.450	1281.248	983.304
130.424	12.468	1280.420	982.690
131.439	12.455	1279.734	981.998
132.454	12.502	1278.532	981.271
133.468	12.551	1277.596	980.757
134.483	12.525	1276.961	980.024
135.497	12.555	1276.235	979.559
136.512	12.672	1274.392	978.756
137.527	12.633	1273.500	977.753
138.541	12.566	1271.560	975.782
139.556	12.709	1270.489	975.720
140.570	12.765	1269.809	975.441
141.585	12.692	1268.510	973.927
142.600	12.739	1267.084	973.022
143.614	12.826	1266.213	972.779
144.629	12.810	1264.985	971.659
145.643	12.922	1263.675	971.224
146.658	12.719	1262.628	969.140
147.673	12.643	1260.860	967.251
148.687	12.626	1259.856	966.297
149.702	12.690	1258.455	965.509
150.716	12.592	1257.593	964.190
151.731	12.714	1256.214	963.760
152.746	12.655	1255.462	962.755
153.760	12.653	1253.793	961.378
154.775	12.800	1252.353	961.043
155.789	12.717	1251.748	960.013
156.804	12.869	1250.050	959.509
157.819	12.736	1249.251	958.040
158.833	12.772	1248.409	957.514
159.848	12.834	1247.769	957.298
160.862	12.798	1246.851	956.300
161.877	12.754	1245.175	954.681
162.892	12.702	1244.490	953.767
163.906	12.711	1243.607	953.057
164.921	12.650	1242.764	951.974
165.935	12.677	1242.100	951.536
166.950	12.709	1241.229	950.968
167.964	12.761	1240.376	950.535
168.979	12.785	1239.472	949.893
169.994	12.764	1238.859	949.223
171.008	12.805	1238.015	948.724
172.023	12.835	1237.284	948.252
173.037	12.845	1236.887	947.922
174.052	12.934	1235.518	947.300
175.067	12.858	1234.237	945.797
176.081	12.847	1233.314	944.947
177.096	12.810	1232.420	943.964
178.110	12.839	1231.448	943.305
179.125	12.761	1230.396	941.966
180.140	12.794	1228.794	940.845
181.154	12.956	1227.422	940.636
182.169	12.892	1226.461	939.454
183.183	12.835	1225.763	938.512
184.198	13.123	1224.026	938.737
185.213	12.995	1223.190	937.283
186.227	13.090	1221.989	936.818
187.242	13.183	1221.044	936.541
188.256	13.099	1220.228	935.356
189.271	13.109	1219.386	934.680
190.286	13.041	1218.395	933.454
191.300	12.730	1217.945	931.271
192.315	12.782	1217.031	930.781
193.329	12.763	1215.921	929.741
194.344	12.984	1215.528	930.606
195.359	12.893	1215.222	929.777
196.373	13.014	1214.644	929.938
197.388	13.111	1213.858	929.800
198.402	13.141	1213.782	929.823
199.417	13.189	1213.058	929.459
200.432	13.266	1212.130	929.097
201.446	13.325	1211.207	928.639
202.461	13.347	1210.057	927.801
203.475	13.393	1208.852	927.051
204.490	13.342	1207.854	925.916
205.504	13.160	1206.734	923.958
206.519	13.212	1205.566	923.275
207.534	13.207	1204.296	922.191
208.548	13.252	1203.434	921.703
209.563	13.263	1202.747	921.155
210.577	13.323	1201.255	920.265
211.592	13.377	1200.748	920.095
212.607	13.490	1199.768	919.891
213.621	13.460	1199.149	919.169
214.636	13.451	1198.175	918.289
215.650	13.371	1197.573	917.305
216.665	13.373	1196.807	916.648
217.680	13.532	1195.474	916.423
218.694	13.564	1194.366	915.674
219.709	13.502	1194.191	915.113
220.723	13.555	1193.385	914.709
221.738	13.560	1192.538	914.006
222.753	13.614	1191.649	913.542
223.767	13.630	1190.820	912.911
224.782	13.677	1189.973	912.440
225.796	13.695	1189.833	912.350
226.811	13.646	1189.350	911.631
227.826	13.648	1187.975	910.506
228.840	13.647	1187.299	909.906
229.855	13.558	1187.022	909.121
230.869	13.633	1186.017	908.683
231.884	13.588	1185.043	907.609
232.899	13.518	1184.027	906.368
233.913	13.660	1183.093	906.349
234.928	13.590	1182.316	905.291
235.942	13.489	1182.502	904.800
236.957	13.563	1181.016	903.989
237.972	13.641	1180.255	903.753
238.986	13.606	1179.734	903.082
240.001	13.658	1178.739	902.522
241.015	13.600	1177.962	901.535
242.030	13.617	1177.122	900.905
243.045	13.668	1176.391	900.540
244.059	13.733	1175.687	900.277
245.074	13.641	1174.963	899.145
246.088	13.804	1173.876	899.116
247.103	13.748	1173.391	898.363
248.117	13.879	1172.435	898.258
249.132	13.946	1171.632	897.924
250.147	14.118	1170.989	898.280
251.161	14.054	1170.484	897.468
252.176	13.975	1170.143	896.704
253.190	14.044	1169.759	896.702
254.205	14.201	1168.611	896.589
255.220	14.137	1167.904	895.620
256.234	14.197	1167.570	895.610
257.249	14.249	1166.585	895.053
258.263	14.339	1165.811	894.862
259.278	14.213	1165.453	893.834
260.293	14.221	1164.722	893.234
261.307	14.302	1164.228	893.211
262.322	14.270	1163.753	892.600
263.336	14.232	1163.123	891.833
264.351	14.364	1162.397	891.903
265.366	14.366	1161.548	891.182
266.380	14.292	1160.964	890.263
267.395	14.387	1160.014	889.961
268.409	14.269	1159.414	888.792
269.424	14.292	1158.735	888.319
270.439	14.392	1158.187	888.352
271.453	14.215	1156.998	886.419
272.468	14.340	1156.263	886.439
273.482	14.253	1155.775	885.527
274.497	14.281	1155.260	885.204
275.512	14.302	1154.570	884.707
276.526	14.290	1153.852	884.015
277.541	14.402	1152.592	883.564
278.555	14.322	1152.110	882.693
279.570	14.396	1151.688	882.684
280.585	14.450	1150.778	882.194
281.599	14.480	1149.968	881.655
282.614	14.489	1148.980	880.866
283.628	14.503	1147.388	879.639
284.643	14.488	1146.089	878.488
285.657	14.554	1145.407	878.236
286.672	14.500	1144.703	877.335
287.687	14.563	1143.712	876.826
288.701	14.446	1143.144	875.698
289.716	14.564	1142.312	875.604
290.730	14.512	1142.090	875.083
291.745	14.583	1140.745	874.351
292.760	14.540	1140.613	873.946
293.774	14.694	1139.732	873.999
294.789	14.685	1139.414	873.629
295.803	14.700	1138.511	872.938
296.818	14.630	1137.704	871.879
297.833	14.652	1136.761	871.190
298.847	14.619	1136.039	870.389
299.862	14.690	1135.215	870.049
300.876	14.637	1135.003	869.536
301.891	14.747	1134.137	869.367
302.906	14.918	1133.140	869.417
303.920	14.842	1132.706	868.610
304.935	14.782	1132.185	867.823
305.949	14.915	1131.063	867.574
306.964	14.920	1130.570	867.145
307.979	14.855	1129.929	866.239
308.993	14.936	1128.782	865.706
310.008	14.937	1128.446	865.377
311.022	15.001	1127.459	864.875
312.037	15.009	1126.288	863.937
313.052	14.948	1125.245	862.748
314.066	14.901	1124.752	862.052
315.081	14.762	1123.908	860.613
316.095	14.723	1123.100	859.718
317.110	14.809	1122.883	859.916
318.125	14.821	1121.731	859.021
319.139	14.810	1120.964	858.299
320.154	14.855	1120.118	857.809
321.168	14.913	1119.395	857.478
322.183	14.839	1119.081	856.781
323.197	14.895	1118.636	856.650
324.212	14.969	1117.826	856.335
325.227	14.934	1117.312	855.684
326.241	15.010	1116.719	855.545
327.256	14.956	1116.115	854.730
328.270	14.936	1114.866	853.593
329.285	15.019	1113.848	853.163
330.300	15.075	1112.822	852.588
331.314	14.975	1111.748	851.182
332.329	14.992	1111.138	850.726
333.343	15.008	1110.267	850.062
334.358	15.145	1109.319	849.955
335.373	15.037	1108.666	848.837
336.387	15.115	1108.227	848.817
337.402	15.140	1107.501	848.316
338.416	15.190	1106.904	848.037
339.431	15.243	1106.097	847.608
340.446	15.209	1105.390	846.823
341.460	15.311	1104.423	846.518
342.475	15.406	1103.929	846.544
343.489	15.430	1102.830	845.747
344.504	15.313	1102.375	844.736
345.519	15.454	1101.244	844.502
346.533	15.474	1100.438	843.913
347.548	15.438	1099.700	843.092
348.562	15.529	1098.912	842.870
349.577	15.521	1097.850	841.938
350.592	15.442	1097.200	840.970
351.606	15.475	1096.268	840.348
352.621	15.313	1096.125	839.350
353.635	15.298	1095.329	838.591
354.650	15.390	1094.655	838.460
355.665	15.456	1093.702	837.986
356.679	15.357	1093.053	836.924
357.694	15.470	1092.734	837.166
358.708	15.527	1092.116	836.905
359.723	15.495	1091.535	836.223
360.738	15.541	1090.714	835.750
361.752	15.460	1090.332	834.984
362.767	15.578	1089.557	834.902
363.781	15.457	1089.190	833.947
364.796	15.619	1088.495	834.144
365.810	15.677	1088.209	834.136
366.825	15.770	1087.021	833.613
367.840	15.801	1086.619	833.384
368.854	15.887	1085.882	833.172
369.869	15.889	1085.212	832.597
370.883	15.799	1084.517	831.541
371.898	15.819	1083.577	830.846
372.913	15.825	1083.180	830.500
373.927	15.826	1082.711	830.068
374.942	15.899	1082.129	829.914
375.956	15.799	1081.411	828.795
376.971	15.868	1081.029	828.768
377.986	15.853	1080.595	828.290
379.000	15.867	1079.897	827.750
380.015	15.971	1079.270	827.705
381.029	16.006	1078.573	827.268
382.044	15.927	1078.275	826.582
383.059	15.968	1077.127	825.827
384.073	15.942	1076.170	824.896
385.088	16.056	1075.323	824.730
386.102	15.957	1074.663	823.666
387.117	16.032	1073.464	823.040
388.132	15.904	1072.602	821.683
389.146	15.851	1072.079	820.953
390.161	15.984	1071.115	820.786
391.175	15.919	1070.445	819.887
392.190	15.987	1069.627	819.517
393.205	16.109	1068.922	819.497
394.219	16.191	1068.237	819.299
395.234	16.113	1067.312	818.138
396.248	16.044	1066.205	816.885
397.263	16.084	1065.119	816.169
398.278	15.952	1064.971	815.346
399.292	15.885	1064.428	814.536
400.307	15.893	1063.495	813.790
401.321	15.978	1062.650	813.479
402.336	15.986	1061.978	812.930
403.350	16.148	1060.846	812.777
404.365	16.039	1060.474	811.893
405.380	16.034	1059.593	811.121
406.394	16.206	1059.230	811.598
407.409	16.217	1058.371	810.925
408.423	16.196	1057.727	810.254
409.438	16.341	1057.079	810.383
410.453	16.415	1056.090	809.908
411.467	16.333	1055.811	809.229
412.482	16.425	1054.897	808.900
413.496	16.405	1054.166	808.173
414.511	16.448	1053.734	807.972
415.526	16.539	1053.236	807.956
416.540	16.525	1052.619	807.345
417.555	16.562	1052.053	807.013
418.569	16.451	1051.704	806.148
419.584	16.560	1050.778	805.885
420.599	16.593	1050.511	805.765
421.613	72.473	1274.189	1289.010
422.628	66.536	1306.790	1289.119
