DTS Sentinel unit serial number:	SN413079Multiplexer serial number:	ORYXHardware model number:	OX4-SRSoftware version number:	ORYX F/W v4.00 Oryx Data Collector v3.7.2.0data status	okinstallation	princeton_trtdifferential loss correction	single-endedforward channel	channel 2reverse channel	N/Adate	2019/09/14time	06:35:35forward acquisition time	60.00reverse acquisition time	0.00gamma	496.2192k internal	0.2337k external	0.2337temperature offset calibration	1.0134default loss term (dB/km)	0.3790temperature slope calibration	1.0000multiplexer offset coefficient	1.0000multiplexer slope coefficient	1.0000fibre end	0.00T internal ref (°C)	26.39T ext. ref 1 (°C)	3.41T ext. ref 2 (°C)	20.39length (m)	temperature (°C)	Stokes	anti-Stokes-747.200	90.820	0.344	-0.387
-746.185	-189.581	-0.182	-0.002
-745.171	44.774	-0.201	0.186
-744.156	170.950	-0.073	0.105
-743.142	-200.000	-0.040	0.287
-742.127	244.633	-0.189	0.318
-741.112	800.000	0.097	-0.370
-740.098	800.000	-0.036	0.139
-739.083	770.426	0.013	-0.037
-738.069	149.455	-0.286	0.389
-737.054	10.906	-0.069	0.053
-736.039	-78.068	-0.098	0.034
-735.025	-77.089	0.322	-0.113
-734.010	-200.000	-0.036	-0.363
-732.996	25.104	-0.218	-0.182
-731.981	-46.094	-0.165	-0.081
-730.966	33.456	-0.100	-0.087
-729.952	-19.092	-0.146	-0.091
-728.937	-186.398	-0.211	0.003
-727.923	-41.007	-0.122	0.063
-726.908	-200.000	-0.055	0.271
-725.894	-38.998	0.416	0.220
-724.879	-88.400	-0.041	-0.012
-723.864	-104.464	-0.222	0.051
-722.850	64.954	-0.163	-0.166
-721.835	-112.260	0.113	0.023
-720.821	96.216	0.260	-0.298
-719.806	-179.296	-0.206	0.005
-718.791	-83.213	-0.094	0.030
-717.777	-130.473	-0.122	0.017
-716.762	55.902	-0.285	-0.277
-715.748	-200.000	0.031	-0.198
-714.733	-22.579	-0.221	-0.134
-713.718	800.000	0.054	-0.205
-712.704	-128.125	-0.244	0.035
-711.689	32.814	-0.348	0.302
-710.675	-200.000	-0.055	0.380
-709.660	214.713	-0.089	0.141
-708.645	-200.000	-0.017	-0.097
-707.631	-145.623	0.155	0.014
-706.616	800.000	0.010	0.040
-705.602	-81.115	0.165	0.055
-704.587	23.569	-0.404	0.333
-703.572	-110.845	0.374	-0.077
-702.558	143.896	0.135	-0.180
-701.543	-101.083	-0.078	-0.019
-700.529	-160.376	0.307	0.017
-699.514	800.000	-0.068	0.244
-698.499	240.675	0.113	-0.189
-697.485	-200.000	0.004	-0.058
-696.470	-84.145	0.163	-0.052
-695.456	7.488	0.202	0.151
-694.441	64.533	0.242	-0.244
-693.426	-200.000	-0.078	-0.422
-692.412	16.258	-0.107	-0.084
-691.397	142.828	-0.109	-0.145
-690.383	-199.624	-0.216	-0.001
-689.368	231.031	-0.098	-0.161
-688.354	63.284	-0.332	-0.333
-687.339	42.221	-0.062	0.056
-686.324	288.622	0.058	-0.105
-685.310	308.246	0.109	-0.204
-684.295	-9.264	0.065	-0.044
-683.281	800.000	-0.107	-0.327
-682.266	800.000	0.079	-0.330
-681.251	128.932	0.059	0.076
-680.237	47.122	-0.115	-0.107
-679.222	47.809	0.247	-0.231
-678.208	491.076	-0.055	-0.127
-677.193	-200.000	0.032	-0.291
-676.178	-200.000	0.038	-0.432
-675.164	800.000	0.071	0.279
-674.149	118.718	-0.206	0.255
-673.135	531.810	-0.125	-0.296
-672.120	107.625	0.328	-0.391
-671.105	800.000	0.057	-0.195
-670.091	-200.000	0.013	-0.291
-669.076	-143.310	-0.197	-0.019
-668.062	126.975	-0.310	0.394
-667.047	-68.110	-0.192	0.075
-666.032	-8.451	0.376	0.253
-665.018	-118.008	-0.127	0.023
-664.003	-54.210	-0.278	0.126
-662.989	-147.848	0.148	-0.012
-661.974	-200.000	-0.033	0.156
-660.959	800.000	-0.091	-0.257
-659.945	-35.913	-0.098	0.053
-658.930	-79.730	-0.069	0.023
-657.916	-200.000	0.008	0.093
-656.901	800.000	-0.062	-0.177
-655.886	800.000	-0.046	-0.150
-654.872	1.832	0.113	0.082
-653.857	84.585	-0.222	0.243
-652.843	86.347	-0.277	0.305
-651.828	-200.000	0.053	-0.234
-650.814	55.332	-0.052	0.050
-649.799	391.268	-0.135	0.281
-648.784	416.601	-0.046	-0.098
-647.770	-200.000	0.021	0.264
-646.755	-63.159	0.187	-0.077
-645.741	-91.337	-0.240	0.069
-644.726	-20.596	0.224	-0.138
-643.711	-200.000	-0.001	0.052
-642.697	103.384	-0.043	-0.050
-641.682	-87.164	-0.104	-0.032
-640.668	319.092	-0.152	-0.287
-639.653	157.531	-0.150	0.208
-638.638	-72.266	0.285	-0.106
-637.624	146.460	0.111	-0.149
-636.609	800.000	0.035	-0.142
-635.595	-171.946	-0.244	0.008
-634.580	0.561	-0.228	-0.163
-633.565	-200.000	-0.022	0.377
-632.551	-26.438	-0.478	0.280
-631.536	147.405	0.239	-0.322
-630.522	800.000	0.012	-0.033
-629.507	-83.749	-0.251	-0.080
-628.492	-200.000	-0.014	-0.162
-627.478	-200.000	-0.045	-0.429
-626.463	-65.542	0.125	-0.050
-625.449	-200.000	-0.020	0.280
-624.434	142.281	-0.212	-0.281
-623.419	800.000	-0.091	-0.304
-622.405	-67.224	-0.266	-0.105
-621.390	-81.843	0.159	-0.052
-620.376	-100.647	-0.332	0.082
-619.361	58.940	0.117	-0.115
-618.346	-103.865	0.301	-0.070
-617.332	-88.747	-0.172	-0.051
-616.317	-200.000	-0.004	0.024
-615.303	53.208	0.075	0.072
-614.288	515.859	0.108	-0.252
-613.273	-200.000	0.030	0.432
-612.259	-200.000	0.015	0.130
-611.244	-144.024	0.175	-0.016
-610.230	-200.000	0.034	0.168
-609.215	-14.302	-0.094	0.060
-608.201	-110.986	0.135	-0.028
-607.186	-149.773	0.351	0.028
-606.171	-3.150	0.244	-0.170
-605.157	652.846	0.085	-0.217
-604.142	-84.457	0.094	0.030
-603.128	411.116	-0.202	0.428
-602.113	430.917	0.063	0.136
-601.098	164.867	0.100	0.142
-600.084	76.094	0.181	-0.191
-599.069	282.052	0.034	0.061
-598.055	437.709	0.119	0.259
-597.040	19.207	-0.142	-0.114
-596.025	-100.802	-0.453	0.111
-595.011	517.229	-0.144	0.337
-593.996	-30.184	0.047	0.027
-592.982	785.232	0.135	-0.370
-591.967	164.091	-0.051	-0.072
-590.952	322.578	-0.078	0.149
-589.938	-131.965	-0.187	-0.024
-588.923	-200.000	0.042	0.327
-587.909	85.990	0.175	-0.192
-586.894	55.836	0.186	-0.180
-585.879	65.560	0.007	-0.007
-584.865	56.117	0.085	0.082
-583.850	274.156	0.098	0.172
-582.836	800.000	-0.088	-0.300
-581.821	-23.913	0.133	0.079
-580.806	-44.349	-0.073	-0.036
-579.792	-200.000	-0.005	0.039
-578.777	122.411	0.150	-0.187
-577.763	68.063	-0.033	0.033
-576.748	-34.417	0.195	-0.106
-575.733	-200.000	0.022	-0.130
-574.719	367.279	0.241	-0.485
-573.704	-200.000	0.006	0.159
-572.690	154.566	0.146	-0.200
-571.675	-82.486	0.267	0.086
-570.661	-80.262	-0.030	-0.010
-569.646	-35.902	-0.288	0.156
-568.631	183.563	-0.054	-0.080
-567.617	-98.577	-0.159	-0.041
-566.602	21.771	-0.191	-0.155
-565.588	-3.953	0.175	-0.121
-564.573	-200.000	-0.020	0.247
-563.558	170.849	0.151	0.215
-562.544	-184.285	0.068	0.001
-561.529	30.714	0.127	0.108
-560.515	-62.459	0.128	-0.053
-559.500	-200.000	0.219	0.000
-558.485	228.082	0.052	0.084
-557.471	67.164	-0.239	0.243
-556.456	-81.741	0.217	-0.071
-555.442	51.273	-0.001	0.001
-554.427	2.410	0.249	-0.180
-553.412	499.311	-0.079	-0.181
-552.398	409.934	-0.041	0.086
-551.383	-75.065	0.337	-0.120
-550.369	-123.820	-0.176	-0.028
-549.354	-2.409	0.011	0.008
-548.339	288.754	0.130	-0.234
-547.325	-114.724	0.246	0.047
-546.310	-178.567	-0.261	-0.006
-545.296	195.673	-0.088	0.133
-544.281	175.627	0.075	-0.109
-543.266	246.724	0.095	0.159
-542.252	162.549	0.165	0.230
-541.237	-5.156	0.114	-0.078
-540.223	175.085	0.156	0.225
-539.208	-130.000	-0.012	0.002
-538.193	-21.337	-0.140	0.085
-537.179	800.000	0.066	0.274
-536.164	-42.007	0.140	0.071
-535.150	77.051	-0.080	-0.084
-534.135	800.000	-0.021	-0.061
-533.121	-200.000	0.002	0.141
-532.106	-200.000	0.018	0.150
-531.091	152.655	0.092	-0.125
-530.077	160.604	0.109	0.151
-529.062	21.451	-0.224	0.181
-528.048	-181.403	0.383	0.007
-527.033	-119.892	-0.234	0.040
-526.018	800.000	0.082	-0.277
-525.004	-137.296	-0.170	0.019
-523.989	-107.074	-0.320	0.070
-522.975	136.096	-0.188	0.244
-521.960	12.913	0.167	-0.129
-520.945	-115.362	0.303	0.057
-519.931	800.000	-0.027	-0.109
-518.916	800.000	0.043	-0.154
-517.902	-200.000	-0.068	0.324
-516.887	-176.743	0.127	0.003
-515.872	339.792	-0.028	-0.055
-514.858	-200.000	0.020	-0.180
-513.843	-200.000	0.008	-0.084
-512.829	227.188	-0.104	0.167
-511.814	44.972	-0.120	-0.110
-510.799	-80.292	0.200	-0.067
-509.785	362.252	-0.048	-0.097
-508.770	-111.456	-0.268	-0.054
-507.756	800.000	-0.045	-0.153
-506.741	-28.719	-0.361	-0.206
-505.726	0.970	0.189	-0.134
-504.712	11.670	-0.172	0.131
-503.697	215.820	0.058	-0.092
-502.683	-14.724	0.057	0.036
-501.668	800.000	0.036	-0.131
-500.653	-30.063	0.320	-0.181
-499.639	67.091	0.268	-0.272
-498.624	254.497	0.182	0.309
-497.610	396.614	-0.054	0.111
-496.595	610.886	0.152	-0.378
-495.581	800.000	0.028	0.121
-494.566	482.971	-0.074	0.168
-493.551	100.191	-0.261	0.301
-492.537	-133.228	-0.183	-0.023
-491.522	-200.000	0.106	0.619
-490.508	-200.000	-0.085	0.581
-489.493	-22.905	-0.260	-0.156
-488.478	99.655	-0.248	-0.286
-487.464	11.920	0.147	0.112
-486.449	800.000	-0.060	0.255
-485.435	-200.000	-0.028	-0.127
-484.420	89.574	-0.230	0.255
-483.405	-200.000	0.074	-0.459
-482.391	-87.577	0.096	-0.029
-481.376	210.004	0.109	0.170
-480.362	79.387	0.184	0.196
-479.347	-16.444	-0.398	-0.251
-478.332	-80.422	-0.191	0.063
-477.318	-200.000	0.011	-0.107
-476.303	279.734	-0.047	-0.083
-475.289	-56.399	-0.207	-0.091
-474.274	-5.897	-0.022	0.015
-473.259	-1.049	-0.201	-0.141
-472.245	-200.000	0.011	0.268
-471.230	-101.432	0.112	0.027
-470.216	-46.181	0.318	0.156
-469.201	-57.890	-0.201	-0.087
-468.186	67.124	0.274	-0.277
-467.172	-42.711	-0.081	0.041
-466.157	-1.736	0.198	0.138
-465.143	-200.000	0.033	-0.212
-464.128	-66.035	0.060	-0.024
-463.113	-200.000	-0.022	0.148
-462.099	516.266	0.054	-0.125
-461.084	-178.671	-0.153	0.003
-460.070	-148.671	0.169	-0.014
-459.055	800.000	-0.012	-0.034
-458.040	-200.000	-0.029	-0.171
-457.026	-200.000	-0.059	-0.282
-456.011	87.897	0.121	0.134
-454.997	800.000	0.109	0.301
-453.982	-200.000	-0.000	-0.053
-452.968	-105.924	0.108	-0.024
-451.953	-152.200	0.172	-0.012
-450.938	-200.000	0.006	-0.150
-449.924	-164.993	0.227	0.010
-448.909	19.982	-0.120	-0.096
-447.895	-46.421	0.310	-0.151
-446.880	-26.033	0.044	0.026
-445.865	20.605	0.130	-0.105
-444.851	-17.331	0.196	0.122
-443.836	800.000	-0.075	0.262
-442.822	202.298	0.023	-0.035
-441.807	145.575	-0.101	-0.135
-440.792	-200.000	0.019	-0.151
-439.778	-41.814	0.320	0.163
-438.763	500.949	-0.003	-0.007
-437.749	-73.675	0.088	0.032
-436.734	-200.000	0.037	0.180
-435.719	406.603	-0.003	-0.006
-434.705	-175.207	0.046	-0.001
-433.690	88.989	0.170	0.188
-432.676	-200.000	-0.015	-0.505
-431.661	56.050	0.287	0.276
-430.646	16.831	-0.360	0.282
-429.632	800.000	-0.042	0.171
-428.617	-144.327	0.018	0.002
-427.603	-154.556	-0.127	0.008
-426.588	119.721	-0.093	0.114
-425.573	227.073	-0.144	-0.232
-424.559	800.000	-0.072	-0.226
-423.544	-24.757	-0.059	0.035
-422.530	800.000	-0.026	0.081
-421.515	-200.000	-0.008	-0.084
-420.500	130.246	0.031	-0.040
-419.486	-76.771	-0.275	0.095
-418.471	-76.738	0.358	-0.124
-417.457	-139.972	-0.160	-0.017
-416.442	22.446	-0.259	0.210
-415.428	-25.923	0.183	0.107
-414.413	283.950	0.195	-0.347
-413.398	800.000	-0.063	0.231
-412.384	800.000	0.058	0.166
-411.369	243.591	0.111	-0.185
-410.355	-76.751	0.130	0.045
-409.340	-121.422	0.148	-0.024
-408.325	199.085	0.143	-0.218
-407.311	-178.262	0.209	0.005
-406.296	109.362	-0.163	0.193
-405.282	-110.598	-0.028	-0.006
-404.267	-200.000	-0.276	0.000
-403.252	-6.243	0.228	0.154
-402.238	-79.516	-0.160	0.054
-401.223	-19.442	0.040	0.025
-400.209	-200.000	0.012	-0.127
-399.194	118.724	-0.160	0.196
-398.179	69.512	0.128	0.130
-397.165	-200.000	-0.009	0.141
-396.150	-200.000	0.020	0.192
-395.136	-7.192	0.217	-0.146
-394.121	-200.000	-0.038	0.325
-393.106	-200.000	-0.020	0.320
-392.092	148.971	-0.140	-0.188
-391.077	-166.679	-0.239	-0.010
-390.063	147.578	0.058	-0.077
-389.048	-140.967	-0.537	-0.055
-388.033	12.266	0.088	0.067
-387.019	114.259	0.077	-0.093
-386.004	145.324	0.063	-0.083
-384.990	-200.000	-0.032	0.188
-383.975	-84.584	0.149	-0.046
-382.960	-200.000	0.003	0.184
-381.946	12.726	-0.642	-0.491
-380.931	415.955	0.055	-0.115
-379.917	53.474	0.201	0.191
-378.902	-12.703	-0.185	-0.119
-377.888	-36.629	0.066	0.035
-376.873	257.968	0.076	-0.129
-375.858	-200.000	-0.011	0.182
-374.844	555.232	-0.057	0.136
-373.829	-33.208	0.058	0.032
-372.815	-6.327	-0.215	-0.145
-371.800	-47.082	-0.242	0.117
-370.785	94.965	-0.376	-0.423
-369.771	142.942	-0.044	0.058
-368.756	800.000	-0.143	0.501
-367.742	-200.000	-0.034	0.197
-366.727	-46.994	-0.252	-0.122
-365.712	-200.000	0.030	-0.331
-364.698	23.800	-0.152	0.124
-363.683	81.702	-0.158	0.170
-362.669	106.829	0.238	0.279
-361.654	198.118	-0.042	-0.064
-360.639	127.839	-0.091	0.114
-359.625	-193.356	0.387	-0.003
-358.610	-44.795	0.056	0.028
-357.596	154.279	-0.229	0.311
-356.581	-58.718	0.221	0.095
-355.566	-78.346	0.169	0.057
-354.552	800.000	-0.051	0.164
-353.537	0.415	0.164	0.115
-352.523	51.416	-0.155	-0.146
-351.508	-200.000	-0.030	-0.195
-350.493	800.000	0.024	-0.092
-349.479	800.000	-0.032	0.103
-348.464	-54.493	-0.349	0.156
-347.450	-200.000	0.014	0.582
-346.435	50.175	0.186	0.174
-345.420	13.661	-0.046	-0.035
-344.406	62.225	0.091	-0.089
-343.391	-17.899	0.069	0.043
-342.377	-145.072	-0.061	0.005
-341.362	800.000	0.047	0.185
-340.348	-93.425	0.027	-0.007
-339.333	-200.000	0.026	0.372
-338.318	-160.746	0.200	0.010
-337.304	362.313	-0.113	-0.225
-336.289	-154.845	-0.037	-0.002
-335.275	397.626	0.069	0.142
-334.260	-54.606	0.147	-0.066
-333.245	103.861	0.254	0.295
-332.231	-0.851	-0.197	0.138
-331.216	57.385	-0.096	0.092
-330.202	-105.572	0.152	-0.034
-329.187	-200.000	0.005	0.069
-328.172	-200.000	0.004	-0.326
-327.158	-31.358	-0.272	-0.151
-326.143	-196.102	0.361	0.002
-325.129	257.407	0.133	0.227
-324.114	800.000	-0.090	-0.277
-323.099	-200.000	-0.071	-0.429
-322.085	29.949	-0.095	0.080
-321.070	-40.289	-0.162	-0.083
-320.056	-57.871	-0.308	0.133
-319.041	800.000	-0.032	-0.107
-318.026	-139.120	-0.024	-0.003
-317.012	-38.549	0.214	0.111
-315.997	13.261	-0.399	0.305
-314.983	6.173	-0.254	0.186
-313.968	-200.000	0.030	-0.160
-312.953	6.984	-0.024	0.018
-311.939	-66.635	-0.187	-0.073
-310.924	-113.765	-0.186	-0.036
-309.910	-83.067	0.150	-0.048
-308.895	-145.263	-0.222	-0.020
-307.880	800.000	-0.055	0.196
-306.866	155.217	0.074	-0.101
-305.851	-150.518	-0.170	0.013
-304.837	-115.172	-0.324	0.061
-303.822	-40.184	0.220	-0.113
-302.807	97.376	-0.072	0.081
-301.793	16.406	-0.208	-0.162
-300.778	228.990	0.248	0.399
-299.764	-118.149	0.421	0.074
-298.749	26.271	0.146	0.120
-297.735	132.878	-0.317	-0.404
-296.720	130.085	0.227	-0.287
-295.705	67.711	-0.124	0.125
-294.691	-81.538	-0.333	-0.108
-293.676	118.852	0.172	0.209
-292.662	-21.714	0.114	0.068
-291.647	-14.328	0.137	0.087
-290.632	19.421	-0.158	0.125
-289.618	-49.919	-0.205	-0.096
-288.603	-130.395	0.278	0.037
-287.589	216.186	0.224	0.350
-286.574	-130.574	-0.209	-0.028
-285.559	-92.597	0.088	0.024
-284.545	45.845	-0.092	-0.084
-283.530	-115.280	-0.361	-0.067
-282.516	-94.223	-0.190	0.051
-281.501	223.720	-0.148	-0.236
-280.486	56.643	-0.156	0.150
-279.472	-194.091	0.296	-0.002
-278.457	47.138	-0.104	0.095
-277.443	215.039	0.051	-0.080
-276.428	800.000	-0.063	0.180
-275.413	-200.000	-0.005	-0.133
-274.399	-89.838	-0.239	-0.069
-273.384	-106.013	-0.046	0.010
-272.370	-114.534	-0.154	-0.029
-271.355	196.297	-0.209	-0.314
-270.340	91.336	0.146	-0.162
-269.326	-200.000	0.045	-0.477
-268.311	-200.000	-0.095	-0.485
-267.297	-138.289	-0.162	-0.018
-266.282	-119.645	0.444	0.076
-265.267	88.707	0.043	-0.047
-264.253	-200.000	-0.001	-0.028
-263.238	268.719	-0.124	-0.214
-262.224	-200.000	-0.004	0.103
-261.209	40.405	-0.237	-0.210
-260.195	398.172	0.101	0.208
-259.180	-80.801	0.074	0.024
-258.165	16.910	-0.174	0.136
-257.151	-154.341	-0.076	0.005
-256.136	66.990	-0.328	-0.329
-255.122	350.981	-0.090	-0.175
-254.107	-60.668	-0.292	0.122
-253.092	-135.001	-0.271	0.032
-252.078	-181.485	0.073	-0.001
-251.063	-57.335	-0.472	0.204
-250.049	-50.993	-0.071	-0.033
-249.034	-200.000	0.015	-0.162
-248.019	210.678	0.023	-0.035
-247.005	411.355	0.020	0.043
-245.990	800.000	0.038	0.126
-244.976	432.463	0.039	-0.084
-243.961	-200.000	0.058	0.305
-242.946	627.809	0.034	-0.085
-241.932	-21.163	0.077	-0.047
-240.917	-35.589	0.132	-0.071
-239.903	-157.183	0.458	0.027
-238.888	-9.288	-0.174	0.115
-237.873	800.000	0.012	-0.038
-236.859	318.306	-0.008	0.016
-235.844	294.318	-0.197	0.353
-234.830	-200.000	-0.099	-0.466
-233.815	-200.000	-0.030	-0.227
-232.800	-20.257	-0.212	-0.129
-231.786	-67.494	0.021	0.008
-230.771	-200.000	0.009	0.292
-229.757	98.553	0.211	-0.239
-228.742	-86.150	0.357	-0.108
-227.727	-18.760	0.143	0.088
-226.713	-18.717	0.045	-0.028
-225.698	267.424	-0.088	0.152
-224.684	54.563	0.073	-0.069
-223.669	-180.225	0.226	-0.005
-222.655	800.000	0.070	-0.293
-221.640	39.690	0.194	0.171
-220.625	-45.829	0.416	-0.202
-219.611	-142.729	0.414	-0.040
-218.596	-56.093	-0.352	0.154
-217.582	452.010	-0.072	-0.155
-216.567	159.434	-0.169	-0.231
-215.552	520.252	0.176	-0.406
-214.538	60.040	0.333	0.324
-213.523	13.868	-0.124	0.095
-212.509	-200.000	-0.006	-0.232
-211.494	-77.169	0.130	-0.045
-210.479	254.461	0.095	-0.160
-209.465	-200.000	0.015	-0.131
-208.450	144.078	0.223	-0.293
-207.436	-60.030	-0.260	-0.109
-206.421	-57.565	0.114	-0.049
-205.406	-5.240	-0.075	0.051
-204.392	-64.929	-0.246	0.098
-203.377	800.000	-0.045	-0.154
-202.363	165.981	-0.103	0.144
-201.348	109.474	0.167	-0.196
-200.333	-120.463	-0.342	-0.057
-199.319	-49.942	-0.064	-0.030
-198.304	118.086	-0.195	-0.237
-197.290	-200.000	0.015	-0.084
-196.275	-61.855	-0.046	0.019
-195.260	-105.957	-0.219	-0.048
-194.246	22.595	0.203	0.163
-193.231	47.012	0.148	-0.135
-192.217	-200.000	-0.024	0.223
-191.202	131.855	0.075	-0.094
-190.187	-15.675	0.344	-0.215
-189.173	800.000	-0.077	0.272
-188.158	355.828	-0.111	0.218
-187.144	25.285	-0.217	0.177
-186.129	800.000	0.040	-0.163
-185.114	5.841	-0.066	0.048
-184.100	-9.228	-0.136	0.089
-183.085	-9.412	-0.277	-0.182
-182.071	157.149	-0.222	0.301
-181.056	92.120	0.245	0.271
-180.042	82.909	0.144	-0.153
-179.027	-21.163	-0.170	-0.102
-178.012	198.917	0.132	0.198
-176.998	91.861	0.061	-0.067
-175.983	-97.296	-0.075	0.019
-174.969	800.000	0.062	-0.232
-173.954	-200.000	0.004	0.062
-172.939	-96.588	0.309	-0.080
-171.925	114.553	0.169	0.202
-170.910	-200.000	-0.019	0.189
-169.896	90.518	0.320	0.351
-168.881	-40.208	-0.187	0.096
-167.866	62.420	0.131	-0.128
-166.852	-200.000	-0.028	-0.205
-165.837	40.480	-0.143	-0.126
-164.823	-200.000	0.043	0.459
-163.808	800.000	-0.066	0.188
-162.793	358.147	0.146	-0.287
-161.779	800.000	-0.085	-0.266
-160.764	-55.503	0.097	-0.042
-159.750	-15.706	0.361	-0.226
-158.735	-200.000	-0.017	0.148
-157.720	162.565	-0.177	0.243
-156.706	-6.028	0.314	-0.211
-155.691	-200.000	-0.038	-0.265
-154.677	234.625	0.366	-0.592
-153.662	396.895	-0.079	0.162
-152.647	270.088	-0.248	0.428
-151.633	-14.118	0.268	-0.170
-150.618	29.373	-0.243	-0.202
-149.604	461.638	-0.105	0.229
-148.589	153.002	-0.075	0.101
-147.574	-200.000	0.024	0.339
-146.560	800.000	0.060	0.234
-145.545	676.995	0.134	0.343
-144.531	115.124	-0.236	0.282
-143.516	89.071	0.230	-0.252
-142.502	-200.000	0.060	-0.295
-141.487	486.125	-0.111	-0.248
-140.472	239.219	-0.100	0.163
-139.458	-79.313	0.197	-0.066
-138.443	486.080	0.183	-0.408
-137.429	-111.518	-0.291	0.058
-136.414	173.609	0.167	-0.236
-135.399	49.823	0.071	-0.066
-134.385	800.000	-0.137	0.460
-133.370	334.804	-0.044	-0.084
-132.356	-116.722	-0.141	-0.025
-131.341	-170.430	-0.243	-0.008
-130.326	-200.000	-0.055	0.383
-129.312	-66.496	-0.058	-0.023
-128.297	-200.000	-0.012	0.120
-127.283	-200.000	0.023	-0.168
-126.268	72.024	-0.258	-0.263
-125.253	-200.000	-0.022	0.228
-124.239	586.533	0.081	-0.196
-123.224	50.840	0.219	-0.204
-122.210	-200.000	-0.037	0.165
-121.195	-155.287	-0.275	-0.018
-120.180	-200.000	-0.020	-0.242
-119.166	174.887	0.263	0.373
-118.151	360.156	-0.155	-0.303
-117.137	117.533	-0.080	-0.097
-116.122	-200.000	-0.027	-0.164
-115.107	-24.658	0.331	0.193
-114.093	36.604	-0.207	-0.179
-113.078	-79.169	0.117	0.039
-112.064	154.785	0.114	0.153
-111.049	800.000	-0.018	-0.059
-110.034	800.000	0.039	-0.112
-109.020	-200.000	0.001	0.120
-108.005	-92.877	-0.437	0.120
-106.991	-55.819	-0.183	0.080
-105.976	-151.253	-0.226	-0.017
-104.962	-200.000	-0.060	-0.275
-103.947	58.718	0.081	-0.078
-102.932	17.915	0.113	-0.088
-101.918	-65.213	0.269	0.106
-100.903	351.415	0.078	0.151
-99.889	-62.669	-0.238	0.097
-98.874	11.185	0.383	-0.287
-97.859	26.622	0.253	-0.207
-96.845	205.852	-0.183	-0.278
-95.830	-25.314	0.517	-0.300
-94.816	-109.214	-0.071	0.015
-93.801	78.042	-0.088	0.092
-92.786	-107.571	0.221	-0.047
-91.772	-200.000	0.006	-0.182
-90.757	-200.000	0.008	-0.311
-89.743	-92.416	0.078	0.022
-88.728	-74.153	0.256	-0.091
-87.713	96.071	-0.034	-0.038
-86.699	-87.821	0.257	-0.076
-85.684	-200.000	-0.010	-0.110
-84.670	-178.357	0.103	0.002
-83.655	38.796	0.169	0.147
-82.640	800.000	0.104	-0.428
-81.626	-21.054	-0.294	-0.176
-80.611	-200.000	-0.099	0.496
-79.597	179.800	0.106	-0.151
-78.582	800.000	0.098	0.267
-77.567	-200.000	0.149	0.001
-76.553	70.693	0.217	-0.219
-75.538	-177.516	0.332	-0.008
-74.524	-200.000	0.013	-0.224
-73.509	109.384	0.048	0.056
-72.494	325.000	-0.072	-0.134
-71.480	114.145	0.082	0.098
-70.465	-200.000	-0.002	0.305
-69.451	164.649	0.150	0.207
-68.436	71.357	0.118	-0.119
-67.422	-177.490	-0.449	0.011
-66.407	-9.293	0.098	-0.064
-65.392	34.342	0.241	-0.205
-64.378	-32.881	0.224	-0.121
-63.363	4.549	0.323	0.232
-62.349	177.920	-0.012	0.017
-61.334	113.920	-1.034	-1.228
-60.319	33.949	0.620	0.527
-59.305	428.230	-0.599	-1.264
-58.290	800.000	0.488	1.358
-57.276	800.000	0.406	1.418
-56.261	-200.000	117.150	641.231
-55.246	485.445	1550.382	3450.667
-54.232	172.779	2730.813	3841.947
-53.217	97.690	2302.691	2585.962
-52.203	35.369	1909.595	1636.530
-51.188	29.506	1702.640	1414.346
-50.173	27.156	1661.319	1362.373
-49.159	46.874	1719.726	1561.357
-48.144	45.580	1732.541	1563.059
-47.130	29.025	1689.607	1399.640
-46.115	26.415	1675.073	1367.833
-45.100	26.255	1670.204	1362.598
-44.086	26.348	1667.753	1361.241
-43.071	26.213	1665.489	1358.328
-42.057	26.233	1663.257	1356.604
-41.042	26.311	1660.885	1355.197
-40.027	26.196	1659.115	1352.840
-39.013	26.233	1656.786	1351.166
-37.998	26.210	1655.471	1349.865
-36.984	26.234	1654.401	1349.122
-35.969	26.275	1652.772	1348.043
-34.954	26.344	1650.985	1347.051
-33.940	26.283	1649.728	1345.515
-32.925	26.467	1647.618	1345.111
-31.911	26.316	1646.003	1342.614
-30.896	26.464	1643.963	1341.996
-29.881	26.348	1642.555	1339.932
-28.867	26.404	1641.119	1339.121
-27.852	26.326	1639.948	1337.536
-26.838	26.364	1638.583	1336.651
-25.823	26.478	1636.745	1335.940
-24.809	26.524	1635.065	1334.857
-23.794	26.492	1633.901	1333.617
-22.779	26.430	1632.888	1332.282
-21.765	26.397	1630.843	1330.318
-20.750	26.420	1628.545	1328.561
-19.736	26.433	1627.541	1327.778
-18.721	26.470	1626.582	1327.217
-17.706	26.414	1625.216	1325.640
-16.692	26.409	1623.404	1324.075
-15.677	26.365	1622.202	1322.718
-14.663	26.489	1620.511	1322.193
-13.648	26.432	1619.574	1320.957
-12.633	26.419	1617.718	1319.301
-11.619	26.429	1616.360	1318.211
-10.604	26.406	1614.565	1316.531
-9.590	26.482	1613.012	1315.766
-8.575	26.471	1611.529	1314.419
-7.560	26.394	1610.914	1313.304
-6.546	26.452	1609.627	1312.625
-5.531	26.450	1608.197	1311.391
-4.517	26.375	1607.468	1310.205
-3.502	26.443	1606.093	1309.526
-2.487	26.455	1604.595	1308.335
-1.473	26.058	1592.208	1295.334
-0.458	23.014	1572.605	1257.715
0.556	20.352	1574.175	1225.468
1.571	17.965	1597.887	1226.692
2.586	17.555	1610.091	1232.989
3.600	15.503	1554.928	1176.280
4.615	9.342	1447.745	1054.799
5.629	4.190	1389.725	979.935
6.644	3.439	1382.507	970.031
7.659	3.286	1381.511	968.288
8.673	3.398	1380.107	967.919
9.688	3.528	1378.116	967.255
10.702	3.467	1375.387	964.872
11.717	5.860	1379.510	982.681
12.731	12.749	1392.245	1035.091
13.746	18.763	1402.255	1080.387
14.761	20.214	1403.981	1090.751
15.775	19.652	1402.049	1085.625
16.790	18.497	1399.893	1076.612
17.804	17.820	1397.343	1070.311
18.819	17.429	1396.048	1066.772
19.834	17.315	1394.567	1064.832
20.848	17.216	1393.662	1063.424
21.863	16.963	1392.453	1060.829
22.877	16.826	1391.245	1058.958
23.892	16.810	1390.050	1057.854
24.907	16.774	1389.461	1057.087
25.921	16.786	1388.702	1056.492
26.936	16.887	1387.416	1056.049
27.950	16.857	1386.786	1055.289
28.965	16.923	1385.900	1054.930
29.980	17.010	1384.927	1054.642
30.994	17.158	1383.325	1054.248
32.009	17.237	1382.456	1053.981
33.023	17.099	1381.105	1052.004
34.038	17.033	1380.136	1050.761
35.053	17.067	1378.539	1049.665
36.067	16.973	1377.680	1048.335
37.082	17.018	1376.634	1047.722
38.096	17.031	1375.616	1046.939
39.111	17.043	1374.949	1046.412
40.126	16.950	1373.774	1044.854
41.140	16.744	1372.942	1042.858
42.155	16.696	1372.002	1041.753
43.169	16.640	1371.726	1041.112
44.184	16.629	1371.680	1040.912
45.199	16.632	1371.407	1040.633
46.213	16.783	1370.368	1040.681
47.228	16.900	1369.980	1041.014
48.242	16.914	1368.591	1039.952
49.257	16.928	1367.102	1038.812
50.271	16.919	1365.895	1037.750
51.286	16.894	1364.085	1036.129
52.301	16.880	1362.904	1035.053
53.315	16.772	1362.116	1033.708
54.330	16.789	1361.055	1032.913
55.344	16.705	1359.733	1031.308
56.359	16.760	1358.737	1030.796
57.374	16.727	1357.568	1029.616
58.388	16.725	1356.874	1028.987
59.403	16.627	1356.679	1028.153
60.417	16.551	1355.681	1026.844
61.432	16.530	1354.920	1026.050
62.447	16.547	1353.436	1024.935
63.461	16.508	1352.654	1024.019
64.476	16.367	1351.649	1022.311
65.490	16.571	1349.930	1022.154
66.505	16.590	1348.418	1021.033
67.520	16.454	1347.409	1019.363
68.534	16.491	1346.581	1018.870
69.549	16.535	1345.646	1018.333
70.563	16.369	1344.611	1016.463
71.578	16.428	1343.383	1015.801
72.593	16.310	1342.530	1014.355
73.607	16.311	1341.684	1013.633
74.622	16.471	1340.458	1013.574
75.636	16.374	1340.269	1012.765
76.651	16.457	1339.356	1012.476
77.666	16.493	1338.516	1011.967
78.680	16.556	1338.341	1012.126
79.695	16.543	1337.462	1011.293
80.709	16.617	1336.846	1011.181
81.724	16.737	1335.852	1011.055
82.739	16.767	1335.177	1010.636
83.753	16.769	1334.896	1010.342
84.768	16.764	1333.892	1009.466
85.782	16.878	1332.648	1009.115
86.797	17.016	1330.987	1008.585
87.812	16.907	1329.825	1006.970
88.826	16.875	1328.652	1005.800
89.841	16.836	1327.920	1004.930
90.855	16.953	1326.575	1004.516
91.870	17.059	1325.938	1004.569
92.884	17.004	1324.696	1003.213
93.899	17.057	1324.181	1003.047
94.914	17.017	1323.845	1002.468
95.928	17.145	1322.265	1001.939
96.943	17.095	1321.256	1000.791
97.957	16.960	1320.678	999.468
98.972	16.954	1319.680	998.592
99.987	17.081	1318.548	998.391
101.001	17.057	1317.549	997.408
102.016	17.030	1316.453	996.329
103.030	17.062	1315.386	995.623
104.045	17.002	1314.737	994.692
105.060	16.869	1313.473	992.865
106.074	16.818	1311.657	991.111
107.089	16.506	1310.365	988.223
108.103	16.410	1309.223	986.714
109.118	16.584	1307.774	986.548
110.133	16.514	1306.614	985.176
111.147	16.572	1305.291	984.431
112.162	16.541	1304.503	983.571
113.176	16.628	1303.527	983.249
114.191	16.740	1302.177	982.796
115.206	16.613	1301.549	981.496
116.220	16.704	1299.856	980.665
117.235	16.754	1298.712	980.001
118.249	16.701	1297.592	978.763
119.264	16.638	1296.532	977.516
120.279	16.564	1295.791	976.442
121.293	16.537	1294.655	975.341
122.308	16.484	1293.353	973.972
123.322	16.455	1292.064	972.750
124.337	16.472	1291.184	972.096
125.352	16.414	1289.985	970.773
126.366	16.451	1289.075	970.218
127.381	16.423	1287.880	969.070
128.395	16.419	1286.955	968.264
129.410	16.468	1285.588	967.429
130.424	16.520	1285.234	967.378
131.439	16.590	1284.520	967.153
132.454	16.664	1283.118	966.438
133.468	16.573	1282.834	965.615
134.483	16.568	1282.148	964.987
135.497	16.633	1280.973	964.389
136.512	16.677	1279.741	963.628
137.527	16.592	1278.224	961.917
138.541	16.673	1277.057	961.411
139.556	16.810	1275.491	960.926
140.570	16.870	1274.718	960.598
141.585	16.937	1273.374	959.880
142.600	17.013	1272.135	959.291
143.614	17.082	1271.352	959.005
144.629	17.066	1270.932	958.512
145.643	16.903	1270.085	956.870
146.658	16.920	1267.840	955.190
147.673	16.850	1266.524	953.721
148.687	16.790	1264.958	952.115
149.702	16.768	1264.180	951.324
150.716	16.728	1262.873	950.035
151.731	16.764	1261.392	949.037
152.746	16.803	1260.176	948.255
153.760	16.825	1259.105	947.486
154.775	16.948	1258.036	947.288
155.789	16.950	1257.103	946.512
156.804	17.038	1255.967	946.066
157.819	17.035	1255.304	945.465
158.833	17.096	1254.136	944.840
159.848	17.169	1253.560	944.726
160.862	17.206	1252.197	943.825
161.877	16.929	1250.692	941.066
162.892	16.894	1249.944	940.228
163.906	16.851	1248.944	939.155
164.921	16.844	1248.104	938.399
165.935	16.918	1246.944	937.855
166.950	16.862	1247.005	937.506
167.964	16.991	1245.850	937.268
168.979	17.025	1244.572	936.415
169.994	16.949	1244.296	935.700
171.008	17.020	1243.700	935.563
172.023	17.036	1243.158	935.160
173.037	17.150	1242.383	935.123
174.052	17.189	1241.078	934.270
175.067	16.994	1240.037	932.336
176.081	16.789	1239.327	930.594
177.096	16.926	1238.411	930.572
178.110	17.016	1236.900	929.848
179.125	16.893	1235.897	928.343
180.140	16.979	1234.298	927.524
181.154	16.996	1233.606	927.015
182.169	17.095	1232.333	926.521
183.183	17.251	1230.979	926.272
184.198	17.322	1230.010	925.845
185.213	17.311	1228.648	924.679
186.227	17.226	1228.154	923.762
187.242	17.307	1227.287	923.472
188.256	17.403	1225.766	922.766
189.271	17.312	1225.011	921.618
190.286	17.274	1223.613	920.283
191.300	16.905	1222.943	917.699
192.315	16.953	1222.241	917.352
193.329	16.876	1221.677	916.427
194.344	17.031	1220.675	916.434
195.359	17.066	1220.571	916.464
196.373	17.125	1220.280	916.481
197.388	17.301	1219.397	916.688
198.402	17.467	1219.063	917.250
199.417	17.477	1218.353	916.689
200.432	17.551	1217.766	916.563
201.446	17.717	1217.050	916.838
202.461	17.740	1215.546	915.749
203.475	17.575	1215.270	914.573
204.490	17.484	1213.970	913.027
205.504	17.372	1212.564	911.287
206.519	17.411	1211.487	910.603
207.534	17.417	1210.182	909.577
208.548	17.418	1209.103	908.687
209.563	17.454	1208.337	908.224
210.577	17.458	1207.241	907.343
211.592	17.496	1206.604	906.986
212.607	17.541	1206.260	906.888
213.621	17.592	1205.062	906.178
214.636	17.551	1204.267	905.282
215.650	17.587	1203.303	904.670
216.665	17.716	1201.917	904.230
217.680	17.767	1201.513	904.114
218.694	17.914	1200.673	904.183
219.709	17.713	1200.188	902.673
220.723	17.674	1199.323	901.737
221.738	17.751	1198.283	901.280
222.753	17.812	1196.955	900.524
223.767	17.718	1196.728	899.781
224.782	17.941	1195.798	900.175
225.796	17.945	1195.694	900.040
226.811	17.771	1195.351	898.785
227.826	17.829	1193.955	897.963
228.840	17.818	1192.830	896.979
229.855	17.759	1192.685	896.478
230.869	17.798	1191.871	895.991
231.884	17.721	1190.662	894.599
232.899	17.616	1189.892	893.390
233.913	17.596	1189.154	892.653
234.928	17.628	1188.675	892.382
235.942	17.644	1187.592	891.573
236.957	17.607	1186.868	890.760
237.972	17.642	1186.041	890.240
238.986	17.528	1185.659	889.282
240.001	17.653	1184.779	889.192
241.015	17.775	1183.578	888.849
242.030	17.730	1183.422	888.421
243.045	17.915	1181.962	888.208
244.059	17.831	1181.771	887.549
245.074	17.871	1180.800	886.947
246.088	17.851	1180.184	886.305
247.103	18.029	1179.295	886.483
248.117	18.152	1178.663	886.567
249.132	18.149	1178.465	886.322
250.147	18.371	1177.524	886.685
251.161	18.447	1176.755	886.423
252.176	18.403	1176.030	885.570
253.190	18.393	1175.701	885.191
254.205	18.560	1174.806	885.301
255.220	18.424	1174.740	884.474
256.234	18.581	1173.432	884.218
257.249	18.456	1172.893	883.092
258.263	18.596	1172.054	883.103
259.278	18.464	1172.026	882.324
260.293	18.483	1171.156	881.689
261.307	18.619	1170.550	881.851
262.322	18.686	1170.217	881.865
263.336	18.643	1168.901	880.575
264.351	18.617	1168.629	880.162
265.366	18.709	1167.956	880.048
266.380	18.693	1166.834	879.044
267.395	18.621	1166.124	878.063
268.409	18.630	1165.030	877.207
269.424	18.464	1164.834	876.131
270.439	18.576	1163.804	875.851
271.453	18.453	1163.284	874.754
272.468	18.475	1161.960	873.796
273.482	18.590	1161.094	873.652
274.497	18.436	1161.079	872.777
275.512	18.557	1159.655	872.248
276.526	18.562	1159.092	871.770
277.541	18.688	1158.274	871.719
278.555	18.531	1157.884	870.552
279.570	18.621	1157.871	870.920
280.585	18.791	1156.598	870.747
281.599	18.865	1155.603	870.299
282.614	18.684	1154.725	868.641
283.628	18.639	1153.151	867.152
284.643	18.729	1152.777	867.251
285.657	18.638	1151.668	865.883
286.672	18.661	1150.705	865.196
287.687	18.675	1149.871	864.564
288.701	18.708	1149.371	864.279
289.716	18.692	1148.142	863.193
290.730	18.785	1147.388	863.021
291.745	18.802	1147.139	862.842
292.760	18.756	1146.750	862.241
293.774	18.957	1145.816	862.472
294.789	18.944	1145.120	861.807
295.803	19.002	1144.607	861.633
296.818	18.852	1143.508	859.982
297.833	18.680	1143.344	858.919
298.847	18.926	1142.102	859.139
299.862	18.900	1141.103	858.185
300.876	18.939	1140.589	857.918
301.891	18.929	1140.528	857.745
302.906	19.043	1139.281	857.297
303.920	19.196	1138.723	857.564
304.935	19.077	1138.238	856.529
305.949	19.407	1137.259	857.357
306.964	19.280	1137.167	856.583
307.979	19.144	1136.141	855.057
308.993	19.099	1135.426	854.222
310.008	19.029	1134.885	853.391
311.022	19.321	1133.829	853.968
312.037	19.282	1132.673	852.831
313.052	19.214	1131.646	851.642
314.066	18.886	1131.121	849.555
315.081	18.899	1130.332	848.949
316.095	18.935	1129.109	848.134
317.110	18.987	1128.418	847.797
318.125	18.884	1128.248	847.086
319.139	18.903	1127.678	846.674
320.154	19.012	1126.381	846.161
321.168	19.032	1125.816	845.764
322.183	19.043	1125.319	845.370
323.197	18.956	1125.053	844.664
324.212	19.020	1124.028	844.138
325.227	19.046	1123.892	844.087
326.241	19.036	1123.346	843.554
327.256	19.192	1121.896	843.156
328.270	18.965	1120.839	841.172
329.285	19.151	1119.604	841.082
330.300	19.041	1119.330	840.264
331.314	19.071	1118.346	839.596
332.329	19.072	1117.188	838.657
333.343	19.133	1116.790	838.584
334.358	19.127	1116.072	837.942
335.373	19.306	1115.246	838.114
336.387	19.405	1114.237	837.767
337.402	19.323	1113.553	836.777
338.416	19.284	1113.304	836.330
339.431	19.442	1112.444	836.375
340.446	19.571	1111.866	836.491
341.460	19.636	1111.025	836.099
342.475	19.649	1110.526	835.712
343.489	19.702	1109.172	834.876
344.504	19.724	1108.308	834.257
345.519	19.808	1107.761	834.178
346.533	19.819	1106.860	833.475
347.548	19.727	1106.545	832.723
348.562	19.792	1105.609	832.259
349.577	19.581	1104.481	830.318
350.592	19.421	1104.022	829.134
351.606	19.442	1103.481	828.756
352.621	19.348	1102.543	827.523
353.635	19.499	1101.397	827.314
354.650	19.494	1100.669	826.674
355.665	19.611	1099.603	826.360
356.679	19.446	1099.592	825.488
357.694	19.590	1099.011	825.667
358.708	19.684	1098.154	825.398
359.723	19.704	1097.305	824.780
360.738	19.748	1096.764	824.511
361.752	19.649	1096.487	823.759
362.767	19.590	1096.178	823.172
363.781	19.709	1095.634	823.261
364.796	19.686	1094.887	822.513
365.810	19.895	1094.189	822.913
366.825	19.952	1093.781	822.803
367.840	19.964	1093.374	822.480
368.854	20.223	1092.775	823.188
369.869	20.034	1091.848	821.519
370.883	19.952	1091.029	820.441
371.898	19.913	1090.367	819.685
372.913	19.948	1089.800	819.355
373.927	20.204	1088.813	819.751
374.942	20.041	1088.732	818.847
375.956	20.098	1087.900	818.418
376.971	20.099	1087.303	817.901
377.986	20.080	1086.983	817.496
379.000	20.289	1086.316	817.909
380.015	20.311	1085.868	817.605
381.029	20.356	1085.144	817.198
382.044	20.390	1084.326	816.667
383.059	20.319	1083.666	815.767
384.073	20.289	1082.806	814.904
385.088	20.267	1081.844	814.006
386.102	20.350	1080.957	813.656
387.117	20.111	1080.123	811.834
388.132	20.119	1078.939	810.910
389.146	20.176	1078.303	810.630
390.161	20.092	1077.706	809.717
391.175	20.192	1076.746	809.390
392.190	20.241	1075.966	808.961
393.205	20.311	1075.658	808.984
394.219	20.361	1074.589	808.341
395.234	20.260	1073.817	807.220
396.248	20.060	1072.922	805.544
397.263	20.261	1071.542	805.371
398.278	20.172	1071.015	804.489
399.292	20.053	1070.318	803.342
400.307	20.014	1069.543	802.507
401.321	20.117	1068.886	802.423
402.336	20.179	1067.835	801.852
403.350	20.130	1067.420	801.242
404.365	20.102	1066.825	800.595
405.380	20.140	1066.067	800.128
406.394	20.233	1065.264	799.885
407.409	20.312	1064.510	799.610
408.423	20.453	1064.123	799.899
409.438	20.498	1063.535	799.596
410.453	20.634	1062.725	799.541
411.467	20.611	1061.880	798.727
412.482	20.545	1061.752	798.257
413.496	20.708	1060.779	798.203
414.511	20.713	1060.444	797.903
415.526	20.867	1059.635	797.929
416.540	20.798	1059.452	797.404
417.555	20.687	1058.996	796.484
418.569	20.869	1058.010	796.501
419.584	20.759	1057.775	795.755
420.599	20.837	1057.013	795.465
421.613	155.538	1405.025	1796.889
422.628	142.859	1455.690	1796.994
