DTS Sentinel unit serial number:	SN413079Multiplexer serial number:	ORYXHardware model number:	OX4-SRSoftware version number:	ORYX F/W v4.00 Oryx Data Collector v3.7.2.0data status	okinstallation	princeton_trtdifferential loss correction	single-endedforward channel	channel 2reverse channel	N/Adate	2019/09/18time	22:23:34forward acquisition time	60.00reverse acquisition time	0.00gamma	496.2192k internal	0.2349k external	0.2349temperature offset calibration	1.0022default loss term (dB/km)	0.3790temperature slope calibration	1.0000multiplexer offset coefficient	1.0000multiplexer slope coefficient	1.0000fibre end	0.00T internal ref (°C)	24.28T ext. ref 1 (°C)	0.80T ext. ref 2 (°C)	18.00length (m)	temperature (°C)	Stokes	anti-Stokes-747.200	329.897	0.105	-0.202
-746.185	200.419	-0.255	0.391
-745.171	-200.000	0.054	0.386
-744.156	-31.894	0.062	0.035
-743.142	-71.574	-0.188	0.070
-742.127	-62.834	-0.244	0.101
-741.112	-31.353	0.218	-0.122
-740.098	200.387	-0.308	0.472
-739.083	46.166	0.054	-0.050
-738.069	504.547	-0.169	-0.390
-737.054	-27.251	-0.133	0.077
-736.039	130.927	-0.207	0.266
-735.025	-72.727	0.249	-0.092
-734.010	61.645	0.203	0.201
-732.996	-80.042	-0.272	-0.091
-731.981	-123.020	0.172	0.028
-730.966	-70.800	-0.062	0.023
-729.952	-53.934	-0.320	0.145
-728.937	122.213	-0.128	-0.160
-727.923	800.000	-0.022	0.071
-726.908	67.651	-0.219	0.224
-725.894	-200.000	-0.081	-0.412
-724.879	606.824	0.197	-0.490
-723.864	-67.689	-0.235	-0.092
-722.850	118.449	0.202	-0.249
-721.835	800.000	0.045	-0.159
-720.821	92.998	0.074	-0.084
-719.806	-13.094	0.148	-0.096
-718.791	800.000	0.029	0.112
-717.777	497.453	-0.093	-0.215
-716.762	-85.688	0.266	0.083
-715.748	57.878	0.085	0.083
-714.733	-181.732	-0.391	-0.008
-713.718	760.689	0.071	-0.191
-712.704	-153.999	-0.196	-0.013
-711.689	185.079	-0.182	-0.269
-710.675	-69.349	-0.199	0.076
-709.660	-35.187	-0.105	0.057
-708.645	-74.695	-0.213	-0.076
-707.631	-81.777	0.312	-0.102
-706.616	465.852	-0.091	0.203
-705.602	624.532	0.112	-0.282
-704.587	-178.821	0.115	-0.003
-703.572	-78.625	-0.116	0.039
-702.558	22.353	0.233	-0.190
-701.543	209.425	0.044	0.068
-700.529	-38.715	0.056	0.030
-699.514	349.673	0.076	-0.150
-698.499	37.526	-0.106	-0.094
-697.485	-158.348	0.288	0.017
-696.470	-97.246	-0.480	0.125
-695.456	172.395	0.078	0.112
-694.441	-72.541	-0.342	-0.126
-693.426	-17.433	-0.192	0.120
-692.412	-13.077	0.377	-0.244
-691.397	84.747	-0.203	0.222
-690.383	-200.000	-0.016	-0.117
-689.368	-200.000	-0.044	-0.211
-688.354	-147.823	0.019	-0.002
-687.339	-200.000	0.060	-0.301
-686.324	-102.732	-0.434	0.103
-685.310	-175.479	-0.139	-0.004
-684.295	-200.000	0.016	-0.125
-683.281	-55.088	0.376	-0.169
-682.266	-138.738	-0.074	-0.008
-681.251	86.546	-0.242	0.266
-680.237	-200.000	0.121	0.000
-679.222	52.526	-0.050	0.048
-678.208	-200.000	0.062	-0.375
-677.193	-20.668	-0.207	-0.126
-676.178	-126.572	0.182	-0.027
-675.164	222.181	-0.054	0.087
-674.149	234.600	0.275	-0.452
-673.135	-200.000	0.000	0.074
-672.120	29.589	0.049	0.042
-671.105	-200.000	-0.001	0.015
-670.091	-32.836	-0.063	-0.035
-669.076	157.386	-0.226	-0.311
-668.062	-116.833	0.064	0.012
-667.047	-115.353	-0.317	0.060
-666.032	47.465	-0.231	0.214
-665.018	-200.000	0.064	-0.422
-664.003	-88.212	-0.187	-0.056
-662.989	-9.893	0.031	0.020
-661.974	32.689	0.091	-0.078
-660.959	-116.280	-0.383	-0.071
-659.945	800.000	0.065	0.182
-658.930	-167.939	-0.169	-0.007
-657.916	26.721	-0.148	-0.124
-656.901	-200.000	0.031	-0.204
-655.886	-200.000	0.002	-0.139
-654.872	-61.354	0.102	-0.043
-653.857	7.298	-0.100	0.074
-652.843	61.829	-0.162	-0.161
-651.828	-200.000	-0.065	-0.309
-650.814	-122.229	-0.286	-0.047
-649.799	-20.723	-0.342	-0.209
-648.784	236.129	0.097	-0.159
-647.770	-200.000	-0.017	0.126
-646.755	-130.044	0.131	0.018
-645.741	-200.000	0.042	-0.201
-644.726	-200.000	-0.027	-0.125
-643.711	-151.973	0.083	-0.006
-642.697	-200.000	0.030	0.147
-641.682	-120.499	0.210	-0.036
-640.668	-200.000	0.025	-0.244
-639.653	-200.000	-0.010	-0.082
-638.638	45.327	0.120	0.110
-637.624	82.605	0.066	0.071
-636.609	35.797	0.164	0.143
-635.595	169.086	0.192	-0.273
-634.580	-119.269	-0.153	-0.026
-633.565	-29.760	-0.222	0.126
-632.551	-33.272	-0.123	0.068
-631.536	-147.943	-0.170	-0.014
-630.522	-28.859	0.236	-0.135
-629.507	-115.362	0.217	0.041
-628.492	73.594	0.116	-0.121
-627.478	-200.000	0.002	-0.136
-626.463	-109.217	-0.210	0.044
-625.449	-200.000	0.027	-0.186
-624.434	-200.000	0.041	-0.292
-623.419	-119.695	-0.123	0.021
-622.405	176.781	0.160	0.232
-621.390	-98.419	-0.144	-0.037
-620.376	43.379	0.172	0.156
-619.361	-69.149	0.213	0.082
-618.346	-128.432	0.150	-0.021
-617.332	-16.340	-0.389	-0.246
-616.317	800.000	-0.055	-0.226
-615.303	-200.000	0.065	0.356
-614.288	326.981	-0.165	0.315
-613.273	-200.000	-0.032	-0.166
-612.259	-200.000	0.069	-0.342
-611.244	-200.000	0.034	-0.205
-610.230	159.745	-0.185	-0.256
-609.215	-200.000	0.012	-0.111
-608.201	118.647	-0.180	-0.221
-607.186	-127.116	0.277	0.040
-606.171	-104.505	0.247	-0.057
-605.157	192.038	-0.137	0.205
-604.142	187.985	-0.244	-0.362
-603.128	-200.000	-0.063	-0.320
-602.113	377.458	-0.132	-0.268
-601.098	-67.116	0.373	0.146
-600.084	267.521	-0.083	0.144
-599.069	24.801	-0.166	-0.137
-598.055	493.319	0.054	0.123
-597.040	800.000	-0.102	-0.350
-596.025	16.265	0.111	-0.087
-595.011	-200.000	-0.116	0.000
-593.996	642.720	-0.147	-0.372
-592.982	-21.461	0.029	-0.018
-591.967	-84.391	0.346	0.108
-590.952	800.000	-0.070	0.225
-589.938	61.291	0.194	0.192
-588.923	496.184	-0.043	0.097
-587.909	-52.508	0.228	0.104
-586.894	126.939	0.106	0.134
-585.879	-39.288	0.116	0.060
-584.865	3.760	-0.042	-0.031
-583.850	50.684	-0.089	-0.084
-582.836	424.200	0.093	0.199
-581.821	-200.000	0.051	-0.252
-580.806	-200.000	0.058	-0.255
-579.792	-200.000	0.002	0.096
-578.777	-200.000	0.032	-0.215
-577.763	222.109	0.051	0.082
-576.748	19.866	-0.136	-0.109
-575.733	-37.261	0.104	0.055
-574.719	-200.000	-0.025	-0.245
-573.704	-106.650	0.132	-0.029
-572.690	-106.494	-0.137	0.030
-571.675	-200.000	0.032	-0.140
-570.661	290.401	-0.084	-0.152
-569.646	-200.000	0.017	-0.256
-568.631	220.959	-0.095	-0.151
-567.617	800.000	-0.025	0.104
-566.602	800.000	0.124	-0.422
-565.588	-132.960	-0.149	0.019
-564.573	-200.000	-0.026	-0.155
-563.558	-95.224	-0.211	-0.056
-562.544	488.132	0.105	-0.237
-561.529	209.118	-0.202	0.313
-560.515	82.725	-0.043	-0.046
-559.500	90.172	0.269	0.298
-558.485	247.612	0.110	-0.184
-557.471	-58.066	0.034	0.015
-556.456	800.000	0.070	-0.244
-555.442	-153.944	0.137	-0.009
-554.427	800.000	-0.080	-0.247
-553.412	-143.581	0.443	-0.042
-552.398	93.748	0.072	-0.081
-551.383	458.063	-0.126	-0.277
-550.369	-62.769	0.403	0.166
-549.354	800.000	-0.042	-0.123
-548.339	800.000	0.027	-0.079
-547.325	-200.000	0.027	-0.215
-546.310	122.177	-0.279	-0.345
-545.296	29.363	0.047	-0.039
-544.281	-200.000	0.026	-0.149
-543.266	800.000	-0.061	0.242
-542.252	-146.584	0.118	0.010
-541.237	-200.000	0.044	0.275
-540.223	252.410	-0.196	0.331
-539.208	462.624	-0.068	-0.151
-538.193	156.466	-0.202	0.276
-537.179	-137.409	0.190	0.021
-536.164	-135.892	-0.288	-0.034
-535.150	-51.012	0.119	-0.055
-534.135	-50.033	-0.143	-0.067
-533.121	526.938	0.081	-0.190
-532.106	468.682	-0.099	0.220
-531.091	101.558	0.022	-0.025
-530.077	-200.000	-0.061	0.294
-529.062	21.969	-0.134	0.109
-528.048	135.452	0.158	0.203
-527.033	-200.000	-0.031	-0.463
-526.018	-65.952	0.229	-0.091
-525.004	-23.073	0.162	-0.097
-523.989	-88.571	-0.101	-0.030
-522.975	138.957	0.059	-0.076
-521.960	152.319	0.037	-0.049
-520.945	-72.031	-0.184	0.068
-519.931	466.207	0.080	-0.177
-518.916	-23.869	-0.231	-0.137
-517.902	196.003	-0.108	0.162
-516.887	-200.000	0.015	0.152
-515.872	172.120	-0.087	0.123
-514.858	58.064	0.169	-0.163
-513.843	472.797	0.086	0.192
-512.829	126.821	0.023	0.029
-511.814	387.139	0.071	-0.146
-510.799	152.765	0.241	0.326
-509.785	-98.022	-0.253	0.064
-508.770	759.381	-0.063	-0.168
-507.756	800.000	-0.028	-0.094
-506.741	-106.455	-0.445	-0.098
-505.726	-141.051	-0.184	-0.019
-504.712	29.951	-0.289	0.244
-503.697	-93.863	0.292	-0.080
-502.683	-200.000	0.045	-0.218
-501.668	-36.929	-0.278	0.148
-500.653	221.958	-0.125	-0.198
-499.639	800.000	0.041	-0.147
-498.624	-127.592	-0.156	0.022
-497.610	-90.860	0.246	-0.070
-496.595	-200.000	-0.035	0.227
-495.581	557.039	-0.084	0.200
-494.566	-152.786	0.282	-0.020
-493.551	-100.899	0.147	0.036
-492.537	-79.328	-0.415	0.139
-491.522	34.564	0.479	0.414
-490.508	-57.980	0.167	0.072
-489.493	800.000	-0.047	0.139
-488.478	-200.000	-0.026	0.263
-487.464	800.000	0.015	-0.059
-486.449	-200.000	0.001	-0.232
-485.435	175.006	-0.235	-0.336
-484.420	118.146	0.221	-0.270
-483.405	129.497	-0.145	0.183
-482.391	-5.799	-0.284	-0.193
-481.376	-200.000	0.012	0.225
-480.362	-58.263	0.198	-0.085
-479.347	-155.400	0.059	0.004
-478.332	477.167	-0.073	0.163
-477.318	286.625	0.211	-0.377
-476.303	-127.368	0.214	-0.031
-475.289	-22.792	0.152	0.091
-474.274	-200.000	0.002	0.025
-473.259	307.106	-0.208	-0.383
-472.245	60.076	0.163	-0.159
-471.230	-200.000	-0.004	-0.114
-470.216	-11.869	-0.057	-0.037
-469.201	-200.000	-0.022	0.224
-468.186	-110.395	0.193	-0.040
-467.172	27.412	-0.201	-0.167
-466.157	-147.612	-0.065	-0.005
-465.143	43.376	0.026	-0.024
-464.128	800.000	-0.098	-0.323
-463.113	-79.688	0.126	-0.042
-462.099	154.271	-0.221	-0.300
-461.084	6.514	-0.286	-0.210
-460.070	-123.637	-0.044	0.007
-459.055	-10.698	-0.187	0.122
-458.040	-172.755	-0.343	-0.011
-457.026	-145.631	0.323	0.029
-456.011	800.000	-0.008	0.026
-454.997	-200.000	0.013	0.249
-453.982	4.445	0.218	-0.158
-452.968	67.652	-0.075	-0.076
-451.953	-200.000	0.006	-0.047
-450.938	-200.000	-0.028	-0.231
-449.924	-83.875	-0.153	-0.048
-448.909	-200.000	0.019	0.270
-447.895	-142.112	-0.335	0.033
-446.880	-51.486	0.116	-0.053
-445.865	-4.774	0.092	0.063
-444.851	232.990	-0.261	0.424
-443.836	234.522	0.256	0.417
-442.822	38.864	0.132	0.117
-441.807	-119.378	-0.321	0.055
-440.792	-200.000	0.005	-0.326
-439.778	225.730	0.068	-0.109
-438.763	202.233	-0.122	0.185
-437.749	-132.657	0.264	0.033
-436.734	145.397	0.138	0.182
-435.719	313.145	-0.005	-0.010
-434.705	-110.128	-0.352	0.073
-433.690	25.950	-0.442	0.363
-432.676	30.281	0.344	0.290
-431.661	-200.000	-0.007	0.123
-430.646	-200.000	-0.077	-0.385
-429.632	186.807	-0.188	0.277
-428.617	-200.000	-0.019	0.270
-427.603	-118.680	-0.172	0.030
-426.588	-200.000	0.008	0.198
-425.573	-200.000	-0.000	0.008
-424.559	800.000	0.025	-0.074
-423.544	443.705	0.141	0.306
-422.530	-115.401	0.088	-0.016
-421.515	91.561	-0.263	-0.292
-420.500	-152.830	0.180	-0.013
-419.486	800.000	0.042	-0.150
-418.471	-96.308	0.135	-0.035
-417.457	800.000	-0.037	0.112
-416.442	599.949	0.116	-0.284
-415.428	-184.509	-0.449	-0.007
-414.413	-164.104	0.132	-0.006
-413.398	-23.974	0.331	0.195
-412.384	131.941	0.220	-0.279
-411.369	-111.403	-0.143	0.029
-410.355	-117.077	0.038	0.007
-409.340	-151.002	0.450	0.033
-408.325	219.870	-0.113	-0.178
-407.311	800.000	0.103	0.298
-406.296	1.633	0.051	0.036
-405.282	-174.909	-0.078	-0.002
-404.267	-3.248	-0.266	0.182
-403.252	-98.656	0.053	0.013
-402.238	-47.092	-0.176	0.085
-401.223	138.222	0.065	0.084
-400.209	208.686	-0.238	0.367
-399.194	205.672	0.102	0.157
-398.179	-200.000	0.019	-0.330
-397.165	18.008	-0.059	0.046
-396.150	-13.737	-0.073	-0.047
-395.136	46.815	-0.090	-0.083
-394.121	-65.716	0.185	0.073
-393.106	-183.333	0.065	-0.001
-392.092	-24.737	0.066	0.038
-391.077	334.094	0.033	-0.063
-390.063	-141.783	-0.334	0.033
-389.048	632.123	0.134	0.335
-388.033	-112.606	0.346	0.068
-387.019	277.310	-0.114	-0.200
-386.004	-69.224	-0.284	0.108
-384.990	318.888	0.076	0.142
-383.975	-15.341	0.201	0.127
-382.960	-179.634	0.315	-0.007
-381.946	-89.962	-0.272	-0.078
-380.931	163.113	-0.187	-0.259
-379.917	26.732	-0.036	0.030
-378.902	-132.722	-0.117	0.015
-377.888	800.000	-0.112	0.306
-376.873	-80.378	-0.169	-0.056
-375.858	-102.549	0.163	0.038
-374.844	-124.512	-0.239	-0.037
-373.829	168.013	0.180	-0.252
-372.815	-89.426	0.246	0.071
-371.800	-200.000	-0.168	0.000
-370.785	-147.158	0.313	0.026
-369.771	-115.623	-0.422	0.078
-368.756	-103.958	-0.131	0.030
-367.742	-120.179	-0.219	0.037
-366.727	-59.905	0.087	-0.037
-365.712	-200.000	0.026	0.123
-364.698	-200.000	0.001	-0.129
-363.683	-200.000	0.084	-0.383
-362.669	-22.142	-0.275	-0.164
-361.654	405.450	-0.061	0.127
-360.639	-84.041	-0.510	-0.159
-359.625	-152.055	0.239	0.017
-358.610	-200.000	-0.006	-0.112
-357.596	50.277	0.066	0.062
-356.581	18.169	-0.151	-0.119
-355.566	-200.000	0.034	0.257
-354.552	499.108	0.138	-0.313
-353.537	28.073	0.141	0.117
-352.523	-200.000	-0.012	0.268
-351.508	-46.961	-0.113	-0.055
-350.493	-116.677	-0.229	-0.041
-349.479	35.847	0.129	-0.111
-348.464	-154.489	0.078	-0.005
-347.450	-95.306	-0.163	-0.043
-346.435	-6.633	-0.270	0.181
-345.420	640.595	0.055	0.137
-344.406	124.846	0.017	0.021
-343.391	-24.984	0.148	0.086
-342.377	-200.000	0.006	-0.251
-341.362	-20.665	0.207	0.125
-340.348	332.217	-0.226	-0.428
-339.333	618.065	0.082	0.201
-338.318	800.000	0.028	-0.122
-337.304	-43.091	0.137	0.068
-336.289	268.643	0.029	0.050
-335.275	16.822	-0.058	-0.045
-334.260	-33.158	-0.227	0.124
-333.245	-132.962	0.194	0.024
-332.231	83.313	0.043	0.046
-331.216	-130.714	0.076	-0.010
-330.202	-37.254	0.064	0.034
-329.187	222.176	0.009	-0.014
-328.172	-197.185	-0.154	0.001
-327.158	5.849	0.076	-0.055
-326.143	-143.417	0.245	-0.023
-325.129	262.625	-0.029	0.049
-324.114	800.000	0.019	0.082
-323.099	800.000	0.080	-0.247
-322.085	-200.000	0.023	0.148
-321.070	241.711	-0.140	0.229
-320.056	-200.000	-0.036	0.205
-319.041	74.086	-0.101	0.104
-318.026	-85.897	0.148	0.045
-317.012	-84.234	-0.233	0.073
-315.997	-51.212	0.056	-0.026
-314.983	31.880	-0.201	0.170
-313.968	6.816	0.224	0.164
-312.953	-68.321	-0.171	0.065
-311.939	-123.636	0.145	-0.023
-310.924	-200.000	0.033	0.148
-309.910	-195.837	0.201	0.001
-308.895	-12.150	0.187	0.120
-307.880	800.000	-0.090	0.296
-306.866	633.145	-0.051	0.127
-305.851	14.088	0.045	-0.034
-304.837	-2.340	0.030	0.021
-303.822	-125.328	-0.104	0.016
-302.807	-97.541	-0.168	-0.043
-301.793	800.000	-0.054	-0.159
-300.778	-200.000	0.014	-0.092
-299.764	-75.693	-0.133	0.046
-298.749	800.000	0.057	0.181
-297.735	-98.092	0.281	0.071
-296.720	32.628	-0.053	-0.045
-295.705	800.000	-0.078	-0.323
-294.691	-55.555	-0.128	0.056
-293.676	704.577	-0.043	-0.111
-292.662	-157.194	-0.033	0.002
-291.647	25.765	0.143	-0.117
-290.632	-119.521	0.255	0.043
-289.618	-79.269	0.099	0.033
-288.603	-200.000	0.017	0.207
-287.589	143.730	0.233	-0.304
-286.574	435.919	0.094	-0.201
-285.559	-3.037	-0.186	0.127
-284.545	-200.000	-0.021	0.107
-283.530	-18.914	-0.332	0.203
-282.516	-25.300	-0.157	-0.091
-281.501	-86.891	-0.312	0.094
-280.486	261.188	-0.059	0.100
-279.472	14.073	-0.195	0.149
-278.457	0.197	0.118	0.082
-277.443	73.611	-0.171	0.176
-276.428	-163.671	0.133	0.006
-275.413	800.000	-0.069	0.249
-274.399	-113.552	0.170	0.033
-273.384	278.465	-0.179	0.313
-272.370	-200.000	0.010	0.323
-271.355	79.687	0.091	0.096
-270.340	-53.355	0.183	0.082
-269.326	-137.451	0.296	-0.033
-268.311	-102.644	-0.140	-0.033
-267.297	-200.000	-0.057	0.315
-266.282	3.336	0.204	0.146
-265.267	800.000	0.151	0.427
-264.253	800.000	0.074	-0.257
-263.238	-186.065	0.283	-0.004
-262.224	30.582	-0.070	-0.059
-261.209	-135.395	0.232	-0.027
-260.195	275.697	0.175	0.303
-259.180	-200.000	0.015	0.155
-258.165	-200.000	-0.020	-0.180
-257.151	532.544	-0.114	-0.263
-256.136	-85.344	-0.228	0.070
-255.122	-200.000	-0.008	-0.190
-254.107	13.865	-0.260	-0.198
-253.092	-55.759	0.214	-0.094
-252.078	-93.647	0.119	-0.032
-251.063	448.773	0.035	0.075
-250.049	29.913	0.447	-0.373
-249.034	-60.042	0.205	0.086
-248.019	306.747	-0.034	-0.063
-247.005	192.533	-0.136	0.200
-245.990	77.182	0.160	0.167
-244.976	800.000	0.032	0.119
-243.961	16.656	0.204	0.158
-242.946	-37.654	-0.293	0.153
-241.932	92.254	0.266	-0.293
-240.917	609.062	0.187	-0.457
-239.903	72.812	0.129	0.132
-238.888	-32.839	-0.024	-0.013
-237.873	-3.388	-0.159	0.109
-236.859	177.119	0.072	0.102
-235.844	-200.000	0.020	-0.111
-234.830	800.000	-0.056	-0.212
-233.815	267.873	0.135	0.232
-232.800	-64.222	-0.184	0.073
-231.786	-200.000	-0.007	-0.220
-230.771	8.192	-0.260	0.191
-229.757	28.966	0.274	0.228
-228.742	62.938	-0.143	0.140
-227.727	262.190	0.163	0.277
-226.713	-11.386	0.107	-0.069
-225.698	487.920	0.093	0.209
-224.684	17.282	0.129	0.100
-223.669	165.887	-0.219	0.303
-222.655	-200.000	-0.002	-0.104
-221.640	-60.746	-0.168	-0.070
-220.625	33.844	-0.203	0.173
-219.611	22.594	-0.172	-0.138
-218.596	-120.768	0.119	-0.020
-217.582	-200.000	0.004	-0.313
-216.567	800.000	-0.076	-0.243
-215.552	-126.217	-0.183	0.027
-214.538	-191.093	0.373	0.004
-213.523	-102.050	-0.172	0.041
-212.509	42.707	-0.126	-0.112
-211.494	-200.000	0.014	-0.104
-210.479	800.000	0.046	0.138
-209.465	-200.000	0.039	-0.191
-208.450	94.401	0.128	0.142
-207.436	-200.000	-0.016	-0.231
-206.421	-118.441	-0.085	0.015
-205.406	69.101	-0.098	-0.098
-204.392	-102.878	-0.120	-0.028
-203.377	-200.000	0.006	-0.061
-202.363	67.810	-0.215	-0.215
-201.348	-200.000	-0.035	-0.243
-200.333	7.659	0.113	-0.083
-199.319	-200.000	0.039	0.218
-198.304	-200.000	0.000	0.129
-197.290	112.610	0.161	0.191
-196.275	54.958	-0.123	0.116
-195.260	-125.089	-0.283	0.042
-194.246	-180.097	0.104	-0.002
-193.231	154.081	0.064	0.086
-192.217	-200.000	0.022	-0.196
-191.202	-51.272	-0.308	0.141
-190.187	-13.233	-0.031	0.020
-189.173	389.979	0.020	0.041
-188.158	794.682	0.088	-0.237
-187.144	271.948	0.044	0.075
-186.129	544.201	-0.090	0.210
-185.114	-200.000	-0.087	0.408
-184.100	469.779	-0.090	0.198
-183.085	-200.000	0.064	0.375
-182.071	-154.911	-0.268	0.017
-181.056	-200.000	-0.046	-0.406
-180.042	552.248	0.167	-0.391
-179.027	0.946	-0.317	-0.222
-178.012	-46.977	0.273	0.130
-176.998	800.000	0.029	-0.113
-175.983	-4.544	-0.284	-0.192
-174.969	-200.000	-0.017	-0.281
-173.954	162.843	0.198	0.271
-172.939	-53.032	0.101	0.045
-171.925	-200.000	0.031	0.274
-170.910	378.102	0.138	0.277
-169.896	-114.819	0.507	-0.094
-168.881	-200.000	0.040	-0.402
-167.866	-87.511	0.219	-0.065
-166.852	-14.335	0.099	0.062
-165.837	-112.321	0.112	-0.022
-164.823	200.262	-0.119	-0.178
-163.808	4.550	-0.123	0.088
-162.793	258.393	0.135	0.227
-161.779	-41.977	-0.165	0.082
-160.764	-12.474	0.230	0.147
-159.750	19.450	-0.120	0.094
-158.735	125.436	-0.148	-0.183
-157.720	-22.201	0.150	-0.089
-156.706	-118.531	0.286	-0.049
-155.691	373.403	0.087	0.173
-154.677	-119.600	-0.506	-0.086
-153.662	-16.840	0.070	0.043
-152.647	566.913	-0.021	0.050
-151.633	87.593	-0.203	0.220
-150.618	-13.429	0.096	0.061
-149.604	800.000	-0.097	-0.345
-148.589	286.100	0.078	0.138
-147.574	-200.000	-0.030	0.217
-146.560	-152.692	-0.154	0.011
-145.545	-200.000	-0.001	0.014
-144.531	-120.653	0.205	-0.034
-143.516	-13.010	-0.213	0.135
-142.502	-124.779	0.388	0.058
-141.487	-200.000	0.009	0.057
-140.472	225.744	0.163	0.258
-139.458	171.669	-0.041	0.057
-138.443	-55.414	-0.143	0.063
-137.429	-73.797	0.193	-0.069
-136.414	-75.783	0.344	0.119
-135.399	-41.668	0.147	-0.073
-134.385	11.407	0.148	0.110
-133.370	78.918	-0.168	0.175
-132.356	176.262	0.270	0.382
-131.341	-58.609	-0.251	-0.106
-130.326	800.000	-0.039	0.125
-129.312	-40.489	-0.282	-0.143
-128.297	123.334	-0.094	0.114
-127.283	-13.102	-0.426	0.270
-126.268	235.162	-0.060	-0.097
-125.253	169.376	0.243	0.338
-124.239	-200.000	-0.024	0.404
-123.224	91.465	-0.069	0.076
-122.210	331.220	0.083	0.155
-121.195	-10.195	0.351	0.227
-120.180	-113.604	0.216	-0.041
-119.166	-46.352	0.096	-0.046
-118.151	-184.393	-0.245	0.004
-117.137	-14.344	-0.300	0.188
-116.122	-103.059	0.300	-0.069
-115.107	123.116	-0.285	-0.348
-114.093	30.482	-0.217	0.181
-113.078	53.160	0.250	0.233
-112.064	-200.000	-0.039	-0.246
-111.049	177.833	-0.129	0.183
-110.034	49.678	0.123	-0.113
-109.020	800.000	0.072	0.201
-108.005	238.927	-0.040	0.064
-106.991	235.461	-0.085	0.137
-105.976	276.147	0.180	0.311
-104.962	-10.257	-0.179	-0.116
-103.947	-160.733	0.409	-0.021
-102.932	-65.586	-0.147	-0.057
-101.918	-158.651	-0.049	-0.003
-100.903	-200.000	-0.020	0.205
-99.889	458.533	0.139	0.301
-98.874	-16.858	0.036	-0.022
-97.859	-13.849	0.209	0.131
-96.845	1.756	0.237	0.166
-95.830	-10.298	0.320	0.207
-94.816	204.843	0.039	-0.059
-93.801	-200.000	-0.001	-0.005
-92.786	38.468	0.214	0.186
-91.772	-18.129	-0.077	-0.047
-90.757	-43.023	-0.179	0.088
-89.743	105.430	0.098	-0.112
-88.728	719.835	-0.048	-0.125
-87.713	-25.551	-0.384	0.221
-86.699	463.849	0.098	-0.214
-85.684	-26.135	0.331	-0.190
-84.670	-109.134	-0.341	-0.071
-83.655	800.000	-0.064	-0.250
-82.640	29.998	-0.317	-0.263
-81.626	-200.000	0.005	0.050
-80.611	-200.000	-0.013	0.144
-79.597	-102.406	0.047	0.011
-78.582	800.000	-0.035	-0.094
-77.567	143.517	-0.071	-0.092
-76.553	13.603	-0.364	0.275
-75.538	-200.000	0.030	0.186
-74.524	-106.620	-0.121	0.026
-73.509	524.596	0.048	0.109
-72.494	232.710	0.118	-0.189
-71.480	-75.432	0.233	-0.081
-70.465	800.000	0.047	0.133
-69.451	800.000	-0.079	0.314
-68.436	-17.950	-0.290	0.177
-67.422	-200.000	0.018	-0.187
-66.407	53.994	0.276	0.258
-65.392	-89.777	-0.100	0.028
-64.378	-200.000	0.035	0.159
-63.363	-170.544	0.208	0.007
-62.349	-163.658	0.234	-0.011
-61.334	13.946	-1.324	-1.002
-60.319	9.314	0.766	0.563
-59.305	-200.000	-0.201	-1.418
-58.290	282.071	0.764	1.332
-57.276	223.922	0.756	1.187
-56.261	-200.000	121.718	648.035
-55.246	438.408	1538.374	3263.025
-54.232	148.132	2696.763	3537.545
-53.217	93.229	2275.356	2501.694
-52.203	33.351	1892.043	1596.566
-51.188	27.386	1689.660	1380.646
-50.173	25.174	1650.693	1332.343
-49.159	46.085	1718.225	1546.434
-48.144	44.164	1730.234	1542.594
-47.130	26.918	1682.221	1370.814
-46.115	24.372	1667.013	1339.281
-45.100	24.233	1662.416	1334.495
-44.086	24.183	1659.688	1331.881
-43.071	24.147	1657.205	1329.569
-42.057	24.157	1654.935	1327.765
-41.042	24.175	1653.131	1326.396
-40.027	24.150	1651.085	1324.518
-39.013	24.104	1649.690	1323.008
-37.998	24.106	1648.097	1321.691
-36.984	24.115	1646.779	1320.646
-35.969	24.288	1645.084	1320.517
-34.954	24.318	1643.372	1319.316
-33.940	24.309	1641.685	1317.841
-32.925	24.254	1640.502	1316.429
-31.911	24.244	1639.177	1315.247
-30.896	24.263	1636.741	1313.374
-29.881	24.182	1635.276	1311.553
-28.867	24.357	1633.543	1311.396
-27.852	24.180	1632.924	1309.549
-26.838	24.362	1630.626	1308.992
-25.823	24.308	1629.865	1307.929
-24.809	24.330	1628.626	1307.043
-23.794	24.400	1626.449	1305.755
-22.779	24.304	1625.904	1304.564
-21.765	24.313	1623.893	1302.967
-20.750	24.243	1622.534	1301.312
-19.736	24.274	1621.075	1300.317
-18.721	24.338	1619.455	1299.430
-17.706	24.309	1617.860	1297.890
-16.692	24.221	1616.874	1296.407
-15.677	24.337	1615.152	1295.816
-14.663	24.434	1613.719	1295.322
-13.648	24.343	1612.492	1293.623
-12.633	24.319	1611.219	1292.376
-11.619	24.324	1608.528	1290.206
-10.604	24.305	1608.148	1289.713
-9.590	24.334	1606.572	1288.607
-8.575	24.315	1605.361	1287.446
-7.560	24.305	1604.156	1286.357
-6.546	24.345	1603.145	1285.783
-5.531	24.316	1602.444	1284.961
-4.517	24.357	1600.928	1283.989
-3.502	24.350	1599.839	1283.012
-2.487	24.361	1598.211	1281.739
-1.473	23.974	1585.789	1268.963
-0.458	20.945	1566.041	1231.744
0.556	16.318	1567.668	1199.408
1.571	14.027	1591.232	1200.798
2.586	13.782	1603.387	1208.077
3.600	12.998	1549.198	1161.626
4.615	7.532	1443.526	1046.357
5.629	1.937	1383.995	967.688
6.644	0.938	1377.107	956.477
7.659	0.722	1376.526	954.627
8.673	0.811	1375.537	954.420
9.688	0.709	1373.590	952.337
10.702	0.633	1369.418	948.885
11.717	3.383	1373.372	968.844
12.731	10.240	1383.784	1019.419
13.746	15.806	1391.743	1060.361
14.761	17.381	1392.905	1071.078
15.775	16.848	1391.249	1066.355
16.790	15.813	1389.110	1058.118
17.804	15.052	1386.380	1051.165
18.819	14.675	1385.142	1047.773
19.834	14.461	1383.305	1044.949
20.848	14.249	1382.535	1042.945
21.863	13.938	1381.165	1039.874
22.877	13.707	1380.146	1037.569
23.892	13.765	1378.878	1036.885
24.907	13.670	1378.099	1035.616
25.921	13.723	1377.312	1035.263
26.936	13.848	1376.022	1034.977
27.950	13.760	1375.318	1033.809
28.965	13.880	1374.220	1033.638
29.980	13.849	1373.417	1032.751
30.994	13.972	1372.106	1032.438
32.009	13.861	1371.736	1031.382
33.023	13.999	1370.287	1031.053
34.038	13.928	1368.801	1029.407
35.053	13.890	1368.037	1028.504
36.067	13.755	1367.648	1027.283
37.082	13.819	1366.461	1026.702
38.096	13.934	1364.969	1026.196
39.111	13.880	1364.286	1025.263
40.126	13.858	1363.826	1024.686
41.140	13.748	1362.737	1023.098
42.155	13.725	1361.968	1022.291
43.169	13.668	1362.362	1022.146
44.184	13.765	1361.779	1022.216
45.199	13.675	1361.112	1021.068
46.213	13.660	1360.919	1020.744
47.228	13.788	1359.426	1020.316
48.242	13.776	1358.266	1019.287
49.257	13.831	1356.855	1018.470
50.271	13.884	1355.209	1017.474
51.286	13.855	1353.884	1016.207
52.301	13.754	1353.139	1014.946
53.315	13.816	1351.941	1014.333
54.330	13.798	1350.552	1013.089
55.344	13.791	1349.261	1011.990
56.359	13.794	1347.744	1010.780
57.374	13.780	1347.289	1010.263
58.388	13.620	1347.370	1009.264
59.403	13.657	1346.551	1008.785
60.417	13.661	1345.278	1007.764
61.432	13.675	1344.726	1007.347
62.447	13.554	1343.851	1005.872
63.461	13.622	1342.445	1005.141
64.476	13.610	1341.537	1004.297
65.490	13.604	1340.322	1003.268
66.505	13.696	1338.406	1002.296
67.520	13.625	1337.779	1001.310
68.534	13.674	1336.581	1000.622
69.549	13.680	1335.469	999.734
70.563	13.624	1334.638	998.688
71.578	13.543	1333.635	997.362
72.593	13.652	1332.431	997.029
73.607	13.570	1331.938	996.079
74.622	13.636	1330.732	995.488
75.636	13.572	1330.069	994.518
76.651	13.602	1329.049	993.847
77.666	13.509	1329.150	993.277
78.680	13.589	1327.907	992.736
79.695	13.631	1327.199	992.372
80.709	13.584	1326.315	991.342
81.724	13.688	1325.523	991.286
82.739	13.667	1324.244	990.113
83.753	13.703	1323.583	989.750
84.768	13.851	1322.417	989.672
85.782	13.786	1321.338	988.391
86.797	13.825	1319.922	987.471
87.812	13.754	1318.299	985.752
88.826	13.759	1317.757	985.289
89.841	13.749	1316.266	984.028
90.855	13.794	1315.597	983.709
91.870	13.920	1314.500	983.546
92.884	13.907	1313.926	982.954
93.899	13.905	1313.329	982.406
94.914	13.822	1312.678	981.342
95.928	13.870	1311.727	980.827
96.943	13.883	1310.822	980.140
97.957	13.836	1309.866	979.064
98.972	13.931	1308.618	978.601
99.987	13.848	1307.680	977.325
101.001	13.817	1306.864	976.447
102.016	13.889	1305.715	975.924
103.030	13.839	1304.996	975.005
104.045	13.882	1304.235	974.608
105.060	13.777	1302.876	972.886
106.074	13.778	1301.747	971.962
107.089	13.719	1300.443	970.560
108.103	13.733	1298.968	969.454
109.118	13.738	1297.724	968.469
110.133	13.760	1296.451	967.561
111.147	13.759	1295.252	966.575
112.162	13.744	1294.092	965.540
113.176	13.786	1292.698	964.655
114.191	13.788	1291.667	963.812
115.206	13.763	1290.500	962.711
116.220	13.803	1289.221	961.905
117.235	13.865	1287.787	961.107
118.249	13.767	1287.178	960.004
119.264	13.759	1286.228	959.166
120.279	13.832	1284.615	958.297
121.293	13.731	1284.175	957.301
122.308	13.821	1282.778	956.692
123.322	13.763	1282.142	955.801
124.337	13.773	1280.639	954.651
125.352	13.767	1279.660	953.806
126.366	13.784	1278.662	953.072
127.381	13.790	1277.207	951.939
128.395	13.707	1276.617	950.941
129.410	13.724	1275.633	950.218
130.424	13.796	1274.550	949.738
131.439	13.857	1273.053	948.887
132.454	13.857	1272.129	948.120
133.468	13.892	1271.092	947.459
134.483	13.750	1270.976	946.478
135.497	13.787	1269.764	945.704
136.512	13.797	1268.144	944.472
137.527	13.781	1266.902	943.370
138.541	13.800	1265.750	942.538
139.556	13.811	1264.169	941.340
140.570	13.936	1263.290	941.312
141.585	13.877	1262.024	939.952
142.600	13.859	1261.320	939.243
143.614	13.816	1260.396	938.226
144.629	14.046	1259.370	938.682
145.643	13.929	1258.085	936.981
146.658	13.888	1256.896	935.781
147.673	13.965	1255.477	935.071
148.687	13.880	1254.582	933.846
149.702	13.848	1253.310	932.639
150.716	13.810	1251.522	931.009
151.731	13.897	1250.675	930.783
152.746	13.939	1249.237	929.867
153.760	13.926	1248.064	928.842
154.775	13.954	1247.551	928.533
155.789	13.907	1246.366	927.307
156.804	13.912	1245.182	926.371
157.819	14.064	1244.028	926.279
158.833	14.197	1242.434	925.749
159.848	14.300	1241.637	925.646
160.862	14.187	1241.047	924.496
161.877	14.045	1239.695	922.622
162.892	14.079	1238.630	921.932
163.906	14.047	1237.951	921.171
164.921	14.125	1237.217	920.972
165.935	14.079	1236.051	919.771
166.950	14.166	1235.281	919.598
167.964	14.132	1234.692	918.891
168.979	14.126	1233.691	918.030
169.994	14.155	1233.100	917.669
171.008	14.182	1231.985	916.906
172.023	14.226	1231.511	916.711
173.037	14.189	1230.650	915.788
174.052	14.204	1229.652	915.046
175.067	14.180	1228.340	913.858
176.081	14.262	1227.654	913.718
177.096	14.182	1226.918	912.647
178.110	14.140	1225.920	911.597
179.125	14.144	1224.916	910.789
180.140	14.196	1223.250	909.758
181.154	14.253	1222.104	909.132
182.169	14.330	1220.630	908.375
183.183	14.341	1220.046	907.923
184.198	14.292	1218.591	906.495
185.213	14.338	1217.561	905.897
186.227	14.334	1216.364	904.906
187.242	14.426	1215.110	904.392
188.256	14.402	1214.404	903.653
189.271	14.470	1213.289	903.112
190.286	14.364	1212.635	901.970
191.300	14.236	1211.555	900.396
192.315	14.282	1210.698	899.932
193.329	14.266	1210.467	899.592
194.344	14.290	1209.697	899.070
195.359	14.387	1209.101	899.068
196.373	14.407	1208.321	898.515
197.388	14.401	1208.175	898.297
198.402	14.440	1207.415	897.863
199.417	14.531	1206.954	897.932
200.432	14.589	1205.638	897.183
201.446	14.644	1204.416	896.493
202.461	14.615	1203.773	895.776
203.475	14.634	1202.958	895.192
204.490	14.627	1201.369	893.894
205.504	14.632	1200.351	893.082
206.519	14.584	1199.331	891.989
207.534	14.559	1198.269	890.991
208.548	14.545	1197.461	890.235
209.563	14.552	1196.662	889.597
210.577	14.612	1196.010	889.352
211.592	14.666	1194.580	888.499
212.607	14.701	1193.775	888.010
213.621	14.745	1193.115	887.673
214.636	14.655	1192.493	886.655
215.650	14.709	1191.424	886.066
216.665	14.739	1190.591	885.531
217.680	14.771	1189.705	884.960
218.694	14.879	1188.642	884.665
219.709	14.757	1188.030	883.487
220.723	14.808	1187.047	882.943
221.738	14.797	1186.430	882.352
222.753	14.735	1185.814	881.489
223.767	14.817	1185.115	881.318
224.782	14.935	1184.259	881.229
225.796	14.892	1183.750	880.546
226.811	14.933	1182.899	880.052
227.826	14.946	1182.439	879.698
228.840	14.822	1181.833	878.518
229.855	15.002	1180.582	878.456
230.869	14.970	1179.939	877.730
231.884	14.902	1179.352	876.859
232.899	14.974	1178.251	876.341
233.913	14.910	1177.756	875.560
234.928	14.902	1176.983	874.864
235.942	14.864	1176.299	874.080
236.957	14.837	1176.046	873.673
237.972	15.047	1175.034	873.940
238.986	14.901	1174.341	872.586
240.001	14.970	1173.253	872.063
241.015	15.074	1172.122	871.686
242.030	15.001	1171.615	870.850
243.045	15.154	1170.860	871.009
244.059	14.999	1170.127	869.582
245.074	15.151	1168.961	869.426
246.088	15.060	1168.625	868.626
247.103	15.223	1167.298	868.410
248.117	15.260	1166.645	868.040
249.132	15.196	1166.643	867.629
250.147	15.378	1165.369	867.545
251.161	15.366	1164.663	866.881
252.176	15.330	1163.796	865.974
253.190	15.395	1163.437	865.965
254.205	15.447	1163.115	865.917
255.220	15.438	1162.253	865.151
256.234	15.364	1161.724	864.303
257.249	15.448	1161.110	864.202
258.263	15.303	1160.061	862.594
259.278	15.478	1159.442	862.961
260.293	15.453	1158.895	862.346
261.307	15.482	1158.192	861.897
262.322	15.582	1157.557	861.861
263.336	15.593	1156.929	861.372
264.351	15.605	1156.373	860.944
265.366	15.625	1155.642	860.427
266.380	15.572	1155.074	859.655
267.395	15.592	1154.204	859.034
268.409	15.514	1154.029	858.429
269.424	15.586	1152.680	857.720
270.439	15.708	1152.058	857.802
271.453	15.718	1151.579	857.422
272.468	15.587	1150.584	855.937
273.482	15.642	1149.952	855.672
274.497	15.665	1149.152	855.115
275.512	15.679	1148.611	854.712
276.526	15.730	1147.760	854.259
277.541	15.628	1147.403	853.399
278.555	15.708	1146.718	853.224
279.570	15.758	1145.625	852.588
280.585	15.772	1145.245	852.300
281.599	15.791	1144.246	851.577
282.614	15.870	1143.015	850.984
283.628	15.829	1141.956	849.916
284.643	15.772	1141.159	848.959
285.657	15.846	1140.331	848.639
286.672	15.788	1139.306	847.509
287.687	15.886	1138.283	847.164
288.701	15.783	1137.923	846.304
289.716	15.827	1137.342	846.021
290.730	15.915	1135.988	845.380
291.745	15.947	1135.345	844.987
292.760	15.931	1134.791	844.421
293.774	15.913	1134.663	844.160
294.789	15.954	1133.869	843.699
295.803	15.977	1133.068	843.143
296.818	16.031	1132.190	842.685
297.833	16.044	1131.105	841.870
298.847	16.113	1130.845	841.947
299.862	16.002	1129.965	840.661
300.876	16.049	1129.193	840.249
301.891	16.125	1128.706	840.191
302.906	16.093	1127.813	839.292
303.920	16.179	1127.260	839.231
304.935	16.178	1126.244	838.397
305.949	16.273	1125.649	838.352
306.964	16.227	1125.258	837.758
307.979	16.158	1124.535	836.804
308.993	16.248	1123.654	836.521
310.008	16.246	1123.031	835.971
311.022	16.195	1122.420	835.192
312.037	16.237	1121.539	834.669
313.052	16.285	1120.641	834.167
314.066	16.298	1119.332	833.180
315.081	16.234	1118.609	832.254
316.095	16.205	1117.921	831.527
317.110	16.194	1117.242	830.894
318.125	16.363	1116.515	831.107
319.139	16.295	1115.750	830.130
320.154	16.326	1115.130	829.747
321.168	16.330	1114.355	829.121
322.183	16.240	1113.744	828.148
323.197	16.346	1113.295	828.264
324.212	16.334	1112.414	827.472
325.227	16.400	1112.021	827.434
326.241	16.421	1111.412	827.011
327.256	16.348	1111.056	826.315
328.270	16.367	1109.904	825.475
329.285	16.339	1108.780	824.431
330.300	16.433	1107.756	824.054
331.314	16.377	1106.918	823.085
332.329	16.386	1105.852	822.264
333.343	16.495	1105.417	822.399
334.358	16.379	1104.762	821.272
335.373	16.561	1103.635	821.246
336.387	16.539	1102.709	820.381
337.402	16.468	1102.166	819.556
338.416	16.485	1101.457	819.039
339.431	16.573	1101.073	819.111
340.446	16.652	1099.701	818.399
341.460	16.639	1099.494	818.108
342.475	16.685	1098.313	817.381
343.489	16.742	1097.487	816.966
344.504	16.746	1096.822	816.420
345.519	16.857	1095.685	816.035
346.533	16.720	1095.280	815.003
347.548	16.745	1094.421	814.411
348.562	16.815	1093.690	814.131
349.577	16.907	1093.076	814.043
350.592	16.767	1092.224	812.667
351.606	16.770	1091.293	811.918
352.621	16.809	1090.488	811.432
353.635	16.730	1090.187	810.759
354.650	16.786	1089.273	810.273
355.665	16.846	1088.349	809.803
356.679	16.951	1087.543	809.634
357.694	16.862	1087.406	809.034
358.708	16.819	1086.945	808.413
359.723	16.920	1086.177	808.251
360.738	16.922	1085.469	807.662
361.752	16.940	1084.603	807.035
362.767	16.867	1084.447	806.497
363.781	17.036	1083.558	806.567
364.796	16.966	1083.000	805.751
365.810	17.087	1082.395	805.804
366.825	17.034	1082.060	805.230
367.840	17.036	1081.329	804.626
368.854	17.126	1080.691	804.505
369.869	17.112	1080.083	803.913
370.883	17.093	1079.222	803.114
371.898	17.085	1078.426	802.410
372.913	17.208	1077.550	802.269
373.927	17.169	1077.349	801.868
374.942	17.218	1076.908	801.698
375.956	17.249	1076.338	801.348
376.971	17.142	1075.919	800.461
377.986	17.233	1075.345	800.390
379.000	17.238	1074.526	799.733
380.015	17.433	1073.762	800.011
381.029	17.372	1073.048	799.125
382.044	17.403	1072.079	798.476
383.059	17.407	1071.335	797.871
384.073	17.267	1071.260	797.085
385.088	17.438	1070.022	796.899
386.102	17.459	1069.248	796.348
387.117	17.421	1068.355	795.437
388.132	17.237	1067.514	793.878
389.146	17.349	1066.567	793.627
390.161	17.476	1065.890	793.644
391.175	17.346	1065.083	792.369
392.190	17.509	1064.129	792.347
393.205	17.596	1063.397	792.137
394.219	17.645	1062.577	791.684
395.234	17.504	1062.025	790.548
396.248	17.504	1061.063	789.760
397.263	17.480	1059.968	788.765
398.278	17.469	1059.611	788.379
399.292	17.537	1058.519	787.809
400.307	17.438	1058.093	786.968
401.321	17.478	1057.165	786.393
402.336	17.455	1056.858	785.989
403.350	17.523	1056.158	785.711
404.365	17.599	1055.664	785.627
405.380	17.661	1054.189	784.744
406.394	17.660	1053.321	784.023
407.409	17.658	1052.993	783.700
408.423	17.740	1052.402	783.567
409.438	17.801	1051.417	783.043
410.453	17.704	1051.160	782.340
411.467	17.855	1050.138	782.204
412.482	17.748	1049.779	781.376
413.496	17.751	1049.056	780.779
414.511	17.824	1048.421	780.573
415.526	17.883	1047.906	780.390
416.540	17.932	1047.095	779.940
417.555	17.942	1046.913	779.783
418.569	17.913	1046.424	779.215
419.584	18.044	1045.808	779.287
420.599	17.929	1045.752	778.653
421.613	109.976	1328.810	1490.096
422.628	101.199	1369.986	1490.187
