DTS Sentinel unit serial number:	SN413079Multiplexer serial number:	ORYXHardware model number:	OX4-SRSoftware version number:	ORYX F/W v4.00 Oryx Data Collector v3.7.2.0data status	okinstallation	princeton_trtdifferential loss correction	single-endedforward channel	channel 2reverse channel	N/Adate	2019/09/15time	06:19:34forward acquisition time	60.00reverse acquisition time	0.00gamma	496.2192k internal	0.2326k external	0.2326temperature offset calibration	1.0035default loss term (dB/km)	0.3790temperature slope calibration	1.0000multiplexer offset coefficient	1.0000multiplexer slope coefficient	1.0000fibre end	0.00T internal ref (°C)	30.52T ext. ref 1 (°C)	4.85T ext. ref 2 (°C)	25.23length (m)	temperature (°C)	Stokes	anti-Stokes-747.200	-148.809	0.258	0.021
-746.185	-200.000	0.022	0.279
-745.171	143.147	0.105	0.142
-744.156	-32.240	-0.311	0.175
-743.142	63.839	-0.223	0.226
-742.127	-200.000	-0.008	0.202
-741.112	11.313	0.177	-0.137
-740.098	800.000	-0.061	0.211
-739.083	254.652	0.144	0.248
-738.069	-72.135	-0.353	-0.132
-737.054	229.227	-0.073	-0.121
-736.039	-137.823	-0.325	-0.037
-735.025	-8.615	0.358	0.242
-734.010	-72.871	-0.172	-0.064
-732.996	-190.881	-0.382	0.004
-731.981	-94.925	-0.126	0.034
-730.966	46.958	0.128	0.120
-729.952	336.227	-0.100	0.196
-728.937	-173.895	0.151	0.005
-727.923	-23.815	-0.152	0.092
-726.908	-200.000	0.010	0.062
-725.894	336.617	-0.293	-0.573
-724.879	330.163	-0.060	-0.116
-723.864	75.343	0.013	-0.013
-722.850	-10.769	-0.113	-0.075
-721.835	800.000	-0.029	-0.098
-720.821	-46.767	-0.166	0.082
-719.806	-59.736	-0.039	0.017
-718.791	108.574	0.134	-0.161
-717.777	210.327	0.152	-0.241
-716.762	114.768	-0.309	-0.379
-715.748	-16.784	0.151	-0.096
-714.733	179.568	0.147	-0.217
-713.718	316.917	0.125	0.237
-712.704	185.285	-0.086	-0.128
-711.689	-62.838	-0.064	-0.027
-710.675	-135.951	-0.130	0.015
-709.660	24.580	0.174	0.145
-708.645	-94.259	-0.249	0.069
-707.631	106.389	0.123	0.147
-706.616	70.623	0.198	0.207
-705.602	363.112	0.053	-0.107
-704.587	-49.044	-0.211	0.102
-703.572	626.692	-0.096	-0.244
-702.558	-10.911	0.204	-0.136
-701.543	-110.617	0.168	0.035
-700.529	217.702	-0.121	-0.194
-699.514	-200.000	0.041	0.183
-698.499	30.166	-0.314	-0.270
-697.485	751.660	-0.126	0.344
-696.470	232.331	-0.015	0.025
-695.456	218.403	-0.116	0.187
-694.441	148.257	0.228	0.310
-693.426	800.000	-0.076	0.264
-692.412	-185.773	0.141	0.002
-691.397	-43.398	-0.230	-0.117
-690.383	-80.459	0.318	0.107
-689.368	800.000	0.030	-0.118
-688.354	-88.324	-0.111	-0.033
-687.339	365.695	0.128	-0.259
-686.324	107.429	0.023	0.027
-685.310	-34.691	-0.060	0.033
-684.295	-6.770	-0.267	0.183
-683.281	-91.281	0.204	0.059
-682.266	-79.501	-0.201	-0.068
-681.251	309.364	-0.075	-0.141
-680.237	58.090	-0.074	-0.073
-679.222	-17.985	-0.143	-0.090
-678.208	-126.759	0.572	-0.085
-677.193	236.786	-0.118	-0.197
-676.178	-10.010	-0.103	0.069
-675.164	-124.640	-0.287	-0.045
-674.149	673.053	-0.039	0.102
-673.135	-200.000	-0.016	0.243
-672.120	-112.725	-0.199	-0.040
-671.105	-200.000	-0.014	0.247
-670.091	-16.742	0.272	0.173
-669.076	-90.076	-0.573	-0.168
-668.062	175.652	0.236	0.344
-667.047	66.017	0.281	0.287
-666.032	312.023	-0.255	-0.481
-665.018	-200.000	0.004	-0.186
-664.003	376.348	0.114	0.233
-662.989	197.279	-0.305	-0.469
-661.974	-200.000	-0.030	-0.262
-660.959	-163.837	0.345	0.016
-659.945	-127.302	-0.153	0.022
-658.930	-11.327	-0.119	-0.079
-657.916	190.336	-0.154	-0.233
-656.901	181.784	0.163	-0.241
-655.886	-105.648	-0.454	-0.103
-654.872	91.048	-0.116	-0.131
-653.857	-63.729	0.163	0.067
-652.843	154.370	0.139	-0.192
-651.828	-134.849	0.296	0.036
-650.814	-67.429	-0.136	0.054
-649.799	-51.634	0.034	0.016
-648.784	-114.852	-0.273	-0.052
-647.770	-120.934	0.259	-0.044
-646.755	-95.307	-0.499	-0.135
-645.741	-141.045	0.217	0.022
-644.726	-200.000	-0.045	0.277
-643.711	-50.250	0.218	-0.103
-642.697	-200.000	0.009	0.152
-641.682	-36.361	-0.175	0.095
-640.668	187.978	-0.140	0.211
-639.653	-115.686	-0.064	0.012
-638.638	-200.000	0.080	-0.397
-637.624	-22.843	0.161	-0.098
-636.609	-166.012	-0.147	-0.006
-635.595	-97.647	0.148	-0.039
-634.580	-41.997	0.351	0.181
-633.565	518.831	0.008	-0.018
-632.551	261.823	0.042	-0.073
-631.536	-200.000	-0.019	0.163
-630.522	-145.560	0.291	0.026
-629.507	291.706	-0.163	-0.298
-628.492	279.817	0.053	-0.095
-627.478	4.062	-0.286	0.210
-626.463	-200.000	-0.021	0.118
-625.449	-76.338	-0.272	0.096
-624.434	101.278	-0.245	-0.287
-623.419	149.756	0.093	-0.126
-622.405	-200.000	-0.014	0.163
-621.390	65.592	-0.124	-0.126
-620.376	-149.705	-0.104	-0.008
-619.361	241.903	-0.131	0.220
-618.346	376.982	-0.100	0.205
-617.332	716.823	0.023	0.060
-616.317	-47.547	0.132	0.064
-615.303	-44.706	-0.106	-0.053
-614.288	-145.583	0.169	-0.015
-613.273	-200.000	-0.016	-0.129
-612.259	-164.964	-0.167	-0.007
-611.244	254.769	0.177	-0.304
-610.230	-200.000	0.004	-0.074
-609.215	13.974	0.316	0.247
-608.201	401.911	-0.104	0.219
-607.186	-17.967	-0.100	-0.063
-606.171	-114.210	-0.167	-0.032
-605.157	-57.538	0.304	0.134
-604.142	461.649	0.030	-0.066
-603.128	-79.477	-0.054	0.018
-602.113	-70.653	0.153	-0.058
-601.098	-69.740	0.223	0.085
-600.084	36.976	0.167	-0.148
-599.069	800.000	-0.021	-0.075
-598.055	-53.091	-0.089	0.041
-597.040	82.940	-0.248	-0.271
-596.025	-94.599	0.107	0.029
-595.011	-11.775	-0.319	0.210
-593.996	-195.979	-0.219	0.002
-592.982	202.728	-0.135	-0.209
-591.967	702.820	0.046	0.122
-590.952	1.861	-0.121	0.088
-589.938	-200.000	0.011	-0.100
-588.923	-68.458	-0.358	0.139
-587.909	-97.655	-0.214	0.056
-586.894	-89.938	-0.090	0.026
-585.879	-167.876	-0.058	0.002
-584.865	101.360	0.090	0.105
-583.850	2.322	0.093	-0.067
-582.836	-200.000	0.051	-0.449
-581.821	800.000	-0.045	-0.171
-580.806	-68.543	0.153	0.060
-579.792	-200.000	-0.023	-0.453
-578.777	-83.900	-0.190	-0.061
-577.763	686.010	-0.083	0.217
-576.748	-200.000	0.232	0.001
-575.733	-200.000	-0.030	0.241
-574.719	-186.686	-0.112	-0.002
-573.704	271.616	-0.059	-0.104
-572.690	41.073	-0.074	-0.067
-571.675	42.900	-0.216	-0.197
-570.661	-54.142	0.239	0.109
-569.646	130.127	-0.127	0.163
-568.631	419.633	-0.095	-0.204
-567.617	800.000	-0.062	-0.250
-566.602	-200.000	-0.004	0.372
-565.588	-84.479	-0.202	0.064
-564.573	-200.000	0.005	-0.113
-563.558	-1.838	-0.157	-0.111
-562.544	800.000	-0.031	-0.125
-561.529	499.901	0.053	0.122
-560.515	37.885	0.180	-0.160
-559.500	-12.903	-0.212	0.138
-558.485	81.969	-0.167	0.181
-557.471	800.000	0.040	-0.133
-556.456	528.156	-0.086	-0.204
-555.442	-200.000	-0.004	0.032
-554.427	557.476	-0.049	-0.118
-553.412	182.990	0.205	0.302
-552.398	-16.113	0.072	-0.046
-551.383	142.340	-0.119	0.159
-550.369	-200.000	-0.026	-0.196
-549.354	-200.000	0.011	0.158
-548.339	-21.422	0.281	0.172
-547.325	-200.000	-0.021	0.096
-546.310	-35.364	-0.147	-0.080
-545.296	-56.817	-0.116	0.051
-544.281	51.731	-0.329	0.314
-543.266	-14.896	0.124	0.079
-542.252	-96.396	-0.165	0.044
-541.237	-200.000	-0.007	0.096
-540.223	49.397	-0.142	-0.134
-539.208	160.073	-0.104	0.145
-538.193	676.930	0.066	-0.172
-537.179	589.281	-0.049	0.121
-536.164	-17.222	0.386	-0.244
-535.150	-23.993	0.155	0.093
-534.135	-20.202	-0.337	0.208
-533.121	-200.000	-0.087	-0.406
-532.106	385.825	-0.155	-0.319
-531.091	-200.000	0.024	0.276
-530.077	800.000	-0.028	-0.123
-529.062	-99.826	0.138	-0.035
-528.048	-43.682	0.277	0.139
-527.033	-133.242	-0.230	0.029
-526.018	332.391	-0.278	-0.536
-525.004	74.487	0.148	-0.156
-523.989	-91.676	0.141	0.040
-522.975	-19.510	0.115	-0.071
-521.960	-16.915	0.200	-0.127
-520.945	-160.366	-0.445	-0.024
-519.931	-200.000	-0.036	0.246
-518.916	-200.000	0.025	-0.207
-517.902	-96.991	0.116	0.030
-516.887	648.850	-0.085	-0.217
-515.872	194.955	-0.075	-0.114
-514.858	800.000	-0.016	-0.047
-513.843	-200.000	-0.040	0.236
-512.829	504.395	-0.050	0.115
-511.814	-132.850	0.465	-0.059
-510.799	-200.000	0.010	-0.156
-509.785	800.000	-0.023	-0.097
-508.770	111.460	-0.188	-0.227
-507.756	-89.328	0.056	0.017
-506.741	250.468	0.066	0.111
-505.726	800.000	-0.072	-0.270
-504.712	352.781	0.127	-0.252
-503.697	244.553	-0.140	-0.234
-502.683	-41.397	-0.128	0.066
-501.668	-99.397	-0.371	0.093
-500.653	800.000	0.024	0.096
-499.639	15.410	0.231	-0.181
-498.624	-101.948	0.217	0.052
-497.610	158.624	-0.043	-0.059
-496.595	-46.822	0.073	0.036
-495.581	-200.000	-0.001	-0.163
-494.566	800.000	0.038	-0.141
-493.551	227.983	-0.141	-0.230
-492.537	-94.060	-0.323	-0.088
-491.522	75.425	-0.103	0.108
-490.508	800.000	-0.056	0.172
-489.493	405.753	-0.079	-0.166
-488.478	-10.443	-0.145	0.096
-487.464	-94.091	0.235	0.064
-486.449	-200.000	-0.031	0.236
-485.435	-200.000	0.027	0.130
-484.420	6.108	-0.279	-0.206
-483.405	-136.351	-0.181	0.021
-482.391	-18.948	-0.275	0.171
-481.376	800.000	0.048	0.168
-480.362	-200.000	-0.019	0.164
-479.347	-102.037	-0.185	0.045
-478.332	115.725	0.185	0.226
-477.318	207.993	-0.146	0.228
-476.303	-24.833	-0.493	-0.293
-475.289	-200.000	0.066	0.312
-474.274	633.910	0.093	0.235
-473.259	147.442	0.191	0.257
-472.245	86.984	-0.176	-0.194
-471.230	-200.000	0.003	-0.031
-470.216	-51.145	-0.232	-0.108
-469.201	-200.000	-0.028	0.213
-468.186	-126.079	-0.029	0.004
-467.172	123.507	0.104	-0.130
-466.157	-11.920	-0.108	0.071
-465.143	-200.000	0.033	0.189
-464.128	-141.256	0.134	-0.014
-463.113	-61.770	-0.191	-0.080
-462.099	115.325	-0.106	0.129
-461.084	455.648	-0.105	0.233
-460.070	-23.465	0.306	-0.183
-459.055	36.860	0.109	-0.096
-458.040	-200.000	-0.015	-0.139
-457.026	-92.442	-0.107	-0.030
-456.011	-200.000	-0.020	0.140
-454.997	-159.679	-0.508	-0.028
-453.982	-158.754	0.308	0.018
-452.968	80.870	-0.179	0.193
-451.953	-200.000	-0.014	0.200
-450.938	-87.360	-0.274	-0.083
-449.924	-114.217	-0.286	-0.055
-448.909	166.814	0.258	0.365
-447.895	-30.292	0.086	0.049
-446.880	-81.626	-0.436	-0.143
-445.865	-170.914	0.176	0.006
-444.851	28.166	-0.274	-0.231
-443.836	800.000	0.096	-0.289
-442.822	6.530	0.166	-0.123
-441.807	800.000	0.098	0.295
-440.792	-38.169	0.144	0.076
-439.778	232.540	-0.192	-0.314
-438.763	146.071	-0.115	0.154
-437.749	800.000	0.033	-0.112
-436.734	-98.171	0.176	-0.045
-435.719	-146.964	-0.165	0.014
-434.705	-200.000	-0.009	-0.261
-433.690	800.000	-0.058	0.194
-432.676	-18.925	-0.117	0.073
-431.661	55.174	0.192	-0.185
-430.646	-200.000	0.020	-0.184
-429.632	80.338	0.107	0.115
-428.617	109.528	-0.166	0.198
-427.603	-141.118	0.229	-0.023
-426.588	385.199	0.064	-0.131
-425.573	-11.173	-0.274	0.180
-424.559	-151.751	0.058	-0.004
-423.544	-148.952	0.127	-0.010
-422.530	150.294	-0.115	-0.155
-421.515	-62.006	0.191	0.080
-420.500	53.953	-0.207	0.198
-419.486	-68.594	0.123	0.047
-418.471	-134.104	-0.259	-0.032
-417.457	-200.000	0.041	0.505
-416.442	483.788	-0.026	0.059
-415.428	326.582	-0.111	-0.212
-414.413	-47.229	0.262	0.127
-413.398	800.000	0.043	0.136
-412.384	-87.722	-0.244	0.073
-411.369	-5.898	-0.107	0.073
-410.355	-111.487	-0.067	0.014
-409.340	800.000	0.027	-0.080
-408.325	377.806	-0.109	-0.222
-407.311	-68.092	0.027	0.010
-406.296	-68.497	-0.122	-0.047
-405.282	-44.938	0.091	0.045
-404.267	0.069	-0.080	-0.057
-403.252	228.645	-0.135	0.219
-402.238	132.766	-0.093	-0.120
-401.223	623.329	-0.100	-0.251
-400.209	308.270	-0.046	-0.085
-399.194	-200.000	-0.019	0.169
-398.179	-76.115	0.156	-0.055
-397.165	86.863	-0.301	-0.331
-396.150	5.559	0.163	0.120
-395.136	252.392	-0.068	-0.115
-394.121	-36.171	-0.367	0.197
-393.106	648.903	0.158	-0.403
-392.092	-200.000	-0.039	0.248
-391.077	-126.206	0.382	-0.057
-390.063	161.205	-0.128	0.178
-389.048	-147.552	0.167	-0.014
-388.033	31.685	0.364	0.311
-387.019	-200.000	0.038	-0.245
-386.004	536.200	-0.089	0.209
-384.990	0.396	0.179	0.127
-383.975	107.629	0.079	-0.093
-382.960	-12.296	0.195	-0.127
-381.946	151.720	-0.256	-0.347
-380.931	-125.455	-0.235	0.036
-379.917	-128.203	0.094	-0.013
-378.902	123.871	-0.281	0.351
-377.888	31.572	-0.114	0.097
-376.873	171.934	0.212	0.303
-375.858	-71.735	0.105	0.039
-374.844	-200.000	-0.011	-0.270
-373.829	-200.000	-0.006	0.125
-372.815	44.631	-0.052	-0.048
-371.800	75.459	-0.059	0.062
-370.785	-200.000	0.016	0.138
-369.771	59.183	-0.142	0.139
-368.756	-21.541	0.285	-0.173
-367.742	40.251	-0.055	0.049
-366.727	-49.380	0.161	-0.076
-365.712	-200.000	-0.048	-0.310
-364.698	494.257	0.110	-0.251
-363.683	800.000	-0.086	0.290
-362.669	-105.382	0.059	0.013
-361.654	-33.785	0.284	-0.156
-360.639	800.000	-0.049	0.198
-359.625	133.089	0.128	-0.165
-358.610	142.230	0.145	-0.191
-357.596	662.254	-0.087	0.222
-356.581	210.219	0.076	-0.118
-355.566	50.774	-0.249	0.235
-354.552	270.584	-0.155	0.271
-353.537	-95.754	0.181	-0.048
-352.523	-110.238	-0.382	-0.079
-351.508	-200.000	0.027	-0.393
-350.493	-51.213	-0.313	0.146
-349.479	80.833	0.311	0.333
-348.464	800.000	0.054	0.178
-347.450	-60.780	0.211	0.089
-346.435	82.223	0.207	0.223
-345.420	-157.475	0.262	0.016
-344.406	-46.362	-0.251	0.123
-343.391	-132.078	-0.333	0.043
-342.377	-5.628	-0.174	-0.119
-341.362	73.017	0.317	0.329
-340.348	-81.470	-0.289	0.095
-339.333	-175.195	-0.117	-0.003
-338.318	-56.517	-0.121	-0.053
-337.304	-106.068	-0.144	0.032
-336.289	800.000	-0.098	-0.404
-335.275	-114.485	0.310	-0.059
-334.260	-84.957	-0.231	0.072
-333.245	-85.782	0.356	-0.110
-332.231	-38.352	0.209	0.110
-331.216	-200.000	0.023	0.252
-330.202	122.263	0.082	0.102
-329.187	-23.330	-0.302	-0.180
-328.172	618.426	0.055	0.138
-327.158	13.615	0.180	0.139
-326.143	-145.124	-0.381	-0.034
-325.129	-34.605	-0.187	-0.101
-324.114	-200.000	0.337	-0.000
-323.099	-120.237	-0.428	0.072
-322.085	800.000	-0.098	0.280
-321.070	3.910	0.302	0.219
-320.056	303.513	0.074	-0.136
-319.041	-33.141	0.040	-0.022
-318.026	-44.960	-0.283	-0.140
-317.012	259.865	0.172	-0.295
-315.997	800.000	0.105	-0.339
-314.983	86.697	0.120	0.131
-313.968	-50.375	0.240	-0.113
-312.953	-65.367	0.169	-0.067
-311.939	334.472	0.050	0.096
-310.924	27.126	0.295	-0.246
-309.910	800.000	0.027	-0.108
-308.895	-59.497	0.479	-0.204
-307.880	-80.549	0.096	0.032
-306.866	-200.000	-0.075	-0.345
-305.851	191.715	0.141	-0.211
-304.837	249.340	0.093	-0.156
-303.822	490.392	0.137	-0.310
-302.807	-35.854	-0.100	-0.054
-301.793	-90.481	-0.024	0.007
-300.778	-42.636	0.211	-0.106
-299.764	199.138	-0.040	0.061
-298.749	-135.343	0.222	-0.026
-297.735	360.172	-0.141	-0.279
-296.720	800.000	0.089	-0.315
-295.705	-151.965	0.196	-0.014
-294.691	-69.909	0.128	0.049
-293.676	84.535	0.136	0.147
-292.662	800.000	-0.047	-0.164
-291.647	-40.226	-0.075	0.039
-290.632	276.537	-0.062	0.108
-289.618	-200.000	-0.042	-0.619
-288.603	155.962	0.026	0.036
-287.589	794.789	0.092	-0.250
-286.574	175.178	-0.130	-0.186
-285.559	800.000	0.040	0.123
-284.545	157.311	-0.219	0.300
-283.530	25.236	0.332	-0.273
-282.516	-89.819	0.272	0.079
-281.501	-108.225	-0.126	0.027
-280.486	800.000	0.056	0.187
-279.472	800.000	-0.061	0.213
-278.457	-63.003	-0.132	0.054
-277.443	288.002	0.080	-0.143
-276.428	-200.000	0.002	0.326
-275.413	41.734	0.198	0.177
-274.399	-46.557	-0.130	0.063
-273.384	180.072	0.179	0.260
-272.370	33.112	-0.086	0.074
-271.355	-116.252	-0.203	0.037
-270.340	-62.435	-0.248	0.102
-269.326	93.340	0.144	-0.161
-268.311	-140.666	-0.195	-0.020
-267.297	-15.881	-0.204	0.128
-266.282	-27.751	-0.324	0.186
-265.267	287.809	0.235	0.422
-264.253	67.363	0.154	-0.156
-263.238	69.024	0.357	-0.363
-262.224	-34.616	-0.098	0.053
-261.209	496.666	0.065	-0.147
-260.195	-200.000	-0.026	-0.128
-259.180	-200.000	0.000	0.061
-258.165	28.856	0.221	-0.185
-257.151	800.000	0.035	0.116
-256.136	319.324	-0.029	-0.054
-255.122	239.779	-0.102	-0.169
-254.107	196.777	0.070	-0.106
-253.092	800.000	-0.064	-0.223
-252.078	-16.471	-0.169	0.106
-251.063	800.000	-0.100	0.302
-250.049	26.830	-0.176	0.146
-249.034	-53.663	-0.190	0.086
-248.019	-141.443	-0.059	-0.006
-247.005	-158.153	0.500	0.029
-245.990	-15.030	0.194	0.123
-244.976	223.256	0.153	-0.245
-243.961	27.772	0.301	0.251
-242.946	-67.567	0.374	0.145
-241.932	8.333	0.339	-0.252
-240.917	-137.645	-0.254	-0.028
-239.903	800.000	0.090	0.247
-238.888	800.000	0.099	-0.298
-237.873	65.803	-0.161	0.162
-236.859	-117.687	-0.473	-0.084
-235.844	-143.543	0.356	0.034
-234.830	-11.447	-0.138	-0.090
-233.815	57.863	0.228	0.220
-232.800	-16.048	-0.096	0.060
-231.786	57.988	-0.177	-0.172
-230.771	-200.000	0.029	0.138
-229.757	235.345	0.148	0.242
-228.742	-200.000	0.048	0.296
-227.727	127.969	-0.101	-0.127
-226.713	-51.717	0.328	0.151
-225.698	44.985	0.130	-0.118
-224.684	49.699	0.066	-0.061
-223.669	56.886	0.182	-0.175
-222.655	-185.034	-0.301	0.005
-221.640	647.642	0.161	0.407
-220.625	453.907	-0.154	0.337
-219.611	-87.121	-0.187	-0.056
-218.596	800.000	0.046	-0.143
-217.582	380.938	-0.047	0.094
-216.567	361.333	0.165	-0.328
-215.552	800.000	-0.067	0.207
-214.538	-200.000	-0.038	0.170
-213.523	-200.000	0.002	-0.205
-212.509	-200.000	0.002	0.042
-211.494	157.787	0.046	0.062
-210.479	-84.773	0.285	0.089
-209.465	-162.654	0.282	0.014
-208.450	-113.987	0.382	0.073
-207.436	-127.812	-0.201	0.029
-206.421	-130.541	-0.104	0.014
-205.406	800.000	0.046	-0.180
-204.392	-33.092	0.372	0.204
-203.377	-200.000	0.007	0.062
-202.363	-69.898	0.189	0.071
-201.348	110.579	0.257	0.306
-200.333	-154.142	0.329	0.022
-199.319	-124.350	0.179	0.028
-198.304	148.677	0.057	-0.075
-197.290	457.578	0.090	0.197
-196.275	-56.331	-0.241	0.106
-195.260	-46.745	0.208	-0.100
-194.246	6.392	0.123	-0.090
-193.231	800.000	0.066	-0.269
-192.217	-53.287	0.237	-0.107
-191.202	-157.281	-0.178	-0.011
-190.187	-153.831	-0.214	-0.014
-189.173	-153.587	-0.456	-0.031
-188.158	-200.000	0.019	-0.270
-187.144	41.057	-0.232	-0.207
-186.129	287.860	0.067	-0.119
-185.114	800.000	-0.089	-0.271
-184.100	85.226	-0.026	-0.028
-183.085	-141.951	-0.264	0.026
-182.071	43.145	0.277	-0.249
-181.056	-89.623	0.097	0.028
-180.042	-147.966	0.212	0.017
-179.027	181.032	0.012	-0.017
-178.012	-200.000	-0.029	0.131
-176.998	-164.457	0.222	0.010
-175.983	-21.878	-0.064	0.038
-174.969	39.998	0.117	0.104
-173.954	127.448	-0.101	0.126
-172.939	72.611	0.084	-0.087
-171.925	800.000	-0.026	0.092
-170.910	19.188	0.170	-0.134
-169.896	-200.000	0.014	-0.092
-168.881	-55.439	-0.174	0.077
-167.866	168.016	-0.107	-0.150
-166.852	-131.920	-0.134	0.017
-165.837	800.000	-0.034	0.109
-164.823	-154.087	-0.114	-0.008
-163.808	800.000	-0.030	0.114
-162.793	540.115	0.097	0.228
-161.779	205.180	0.107	0.163
-160.764	-191.972	0.103	-0.001
-159.750	-112.182	-0.152	-0.030
-158.735	-106.109	0.163	-0.036
-157.720	-200.000	-0.012	0.252
-156.706	116.706	0.091	-0.110
-155.691	48.797	0.143	0.132
-154.677	-42.667	0.099	-0.050
-153.662	-200.000	0.055	0.260
-152.647	-50.638	0.226	-0.105
-151.633	95.094	0.178	-0.199
-150.618	-94.167	0.088	-0.024
-149.604	517.583	0.107	-0.247
-148.589	383.244	0.135	0.274
-147.574	70.346	-0.094	0.096
-146.560	-85.162	-0.389	0.120
-145.545	-200.000	-0.060	-0.305
-144.531	-66.157	-0.179	0.070
-143.516	-125.942	0.283	0.042
-142.502	-6.691	0.306	0.205
-141.487	-42.505	-0.111	-0.056
-140.472	-160.902	0.268	-0.014
-139.458	-200.000	0.027	0.509
-138.443	225.898	0.232	0.371
-137.429	-200.000	-0.034	0.283
-136.414	-22.779	0.390	-0.232
-135.399	800.000	0.034	0.130
-134.385	-200.000	-0.028	-0.163
-133.370	-37.923	0.189	0.099
-132.356	-85.623	-0.166	0.051
-131.341	-114.601	-0.145	-0.027
-130.326	-145.217	-0.269	-0.024
-129.312	800.000	0.052	0.162
-128.297	800.000	-0.025	0.094
-127.283	411.153	0.085	0.178
-126.268	-111.458	-0.238	0.048
-125.253	-13.422	0.035	0.022
-124.239	-77.437	0.298	0.102
-123.224	-50.994	-0.515	-0.238
-122.210	-30.188	-0.276	0.155
-121.195	-95.539	-0.150	-0.040
-120.180	58.706	-0.180	-0.174
-119.166	200.036	-0.134	0.202
-118.151	570.668	-0.092	0.220
-117.137	-5.638	-0.065	0.044
-116.122	-7.929	0.137	-0.091
-115.107	-5.561	0.278	-0.188
-114.093	-34.633	0.369	0.199
-113.078	-26.651	0.111	0.064
-112.064	354.973	0.024	0.047
-111.049	-200.000	-0.009	0.278
-110.034	-42.760	-0.212	0.106
-109.020	42.351	0.075	0.067
-108.005	551.778	0.169	0.398
-106.991	49.976	-0.350	-0.325
-105.976	0.384	-0.267	-0.188
-104.962	284.846	-0.105	0.186
-103.947	5.466	0.101	0.073
-102.932	-67.467	-0.197	-0.076
-101.918	-92.837	-0.079	0.022
-100.903	-25.030	0.124	0.073
-99.889	-155.668	-0.149	0.009
-98.874	78.611	-0.175	-0.184
-97.859	796.076	-0.088	0.239
-96.845	-118.880	-0.328	0.057
-95.830	-183.270	0.072	0.001
-94.816	-26.366	0.131	0.076
-93.801	-34.387	0.268	0.144
-92.786	-51.510	0.193	0.089
-91.772	800.000	0.110	-0.300
-90.757	182.678	0.161	-0.233
-89.743	134.199	-0.101	0.129
-88.728	-50.395	0.235	-0.109
-87.713	251.632	0.127	-0.213
-86.699	800.000	0.050	0.150
-85.684	144.100	-0.156	-0.205
-84.670	-181.459	-0.297	0.006
-83.655	84.182	-0.156	-0.167
-82.640	-17.996	0.054	-0.033
-81.626	10.273	-0.032	-0.024
-80.611	19.236	0.183	0.145
-79.597	-178.864	-0.268	0.006
-78.582	-200.000	0.022	-0.237
-77.567	800.000	-0.075	-0.212
-76.553	-200.000	0.048	0.277
-75.538	-47.608	0.195	0.093
-74.524	74.524	-0.074	0.077
-73.509	303.508	0.164	-0.300
-72.494	-200.000	0.024	-0.156
-71.480	-65.810	0.237	0.093
-70.465	800.000	0.020	0.077
-69.451	-10.156	0.240	-0.157
-68.436	-91.169	-0.115	-0.032
-67.422	-119.654	0.441	-0.075
-66.407	427.898	0.083	0.175
-65.392	800.000	0.077	-0.279
-64.378	234.769	0.074	-0.121
-63.363	800.000	-0.050	-0.163
-62.349	-15.310	-0.150	-0.094
-61.334	93.241	-0.976	-1.084
-60.319	28.008	0.509	0.422
-59.305	215.078	-0.754	-1.174
-58.290	488.459	0.620	1.390
-57.276	800.000	0.369	1.308
-56.261	-200.000	103.194	594.665
-55.246	556.613	1439.106	3404.575
-54.232	185.255	2637.319	3843.391
-53.217	110.024	2282.995	2689.910
-52.203	39.939	1897.825	1673.297
-51.188	33.703	1686.823	1440.065
-50.173	31.102	1643.104	1383.429
-49.159	50.352	1694.220	1571.778
-48.144	50.814	1710.621	1590.405
-47.130	33.501	1668.687	1422.837
-46.115	30.693	1654.767	1389.968
-45.100	30.485	1649.933	1384.302
-44.086	30.486	1646.751	1381.589
-43.071	30.436	1644.983	1379.678
-42.057	30.365	1642.838	1377.301
-41.042	30.403	1640.243	1375.349
-40.027	30.421	1638.452	1373.924
-39.013	30.380	1636.392	1371.839
-37.998	30.351	1635.232	1370.601
-36.984	30.345	1634.164	1369.607
-35.969	30.638	1632.310	1370.156
-34.954	30.596	1630.259	1368.070
-33.940	30.453	1628.841	1365.779
-32.925	30.501	1627.551	1364.991
-31.911	30.500	1625.831	1363.491
-30.896	30.481	1624.036	1361.792
-29.881	30.478	1622.123	1360.110
-28.867	30.512	1620.515	1358.955
-27.852	30.564	1619.061	1358.063
-26.838	30.501	1617.402	1356.158
-25.823	30.498	1616.574	1355.392
-24.809	30.583	1614.515	1354.230
-23.794	30.498	1613.548	1352.742
-22.779	30.527	1612.146	1351.724
-21.765	30.543	1610.450	1350.364
-20.750	30.546	1608.625	1348.803
-19.736	30.464	1607.925	1347.569
-18.721	30.522	1606.088	1346.398
-17.706	30.548	1604.563	1345.255
-16.692	30.582	1602.847	1344.009
-15.677	30.457	1601.728	1342.110
-14.663	30.630	1600.167	1342.001
-13.648	30.570	1599.470	1340.929
-12.633	30.539	1597.587	1339.076
-11.619	30.551	1595.862	1337.661
-10.604	30.527	1594.526	1336.314
-9.590	30.479	1593.075	1334.700
-8.575	30.595	1591.869	1334.470
-7.560	30.643	1590.589	1333.687
-6.546	30.629	1589.171	1332.348
-5.531	30.550	1588.648	1331.287
-4.517	30.479	1587.506	1329.769
-3.502	30.544	1586.190	1329.084
-2.487	30.544	1584.483	1327.595
-1.473	30.180	1572.943	1315.296
-0.458	27.508	1553.618	1280.336
0.556	23.369	1555.407	1250.077
1.571	21.049	1579.208	1252.456
2.586	20.656	1592.570	1260.092
3.600	18.589	1538.822	1202.978
4.615	11.498	1432.288	1073.150
5.629	5.763	1371.891	991.612
6.644	4.909	1364.553	980.850
7.659	4.934	1363.020	979.816
8.673	4.767	1362.483	978.295
9.688	4.780	1360.525	976.886
10.702	4.726	1357.491	974.279
11.717	7.425	1362.396	994.656
12.731	14.398	1374.902	1047.681
13.746	18.755	1381.897	1080.391
14.761	18.655	1380.894	1078.880
15.775	17.703	1378.313	1070.792
16.790	16.738	1374.842	1061.954
17.804	15.844	1372.849	1054.720
18.819	15.428	1371.710	1051.148
19.834	15.253	1370.205	1048.805
20.848	14.913	1369.275	1045.877
21.863	14.868	1367.306	1043.995
22.877	14.649	1366.425	1041.864
23.892	14.592	1366.061	1041.140
24.907	14.503	1365.185	1039.824
25.921	14.750	1363.409	1039.922
26.936	14.557	1363.292	1038.538
27.950	14.749	1361.919	1038.590
28.965	14.807	1361.089	1038.226
29.980	14.770	1360.228	1037.248
30.994	14.927	1358.577	1036.874
32.009	14.834	1357.919	1035.702
33.023	14.977	1356.111	1035.116
34.038	14.889	1355.133	1033.732
35.053	14.764	1353.935	1031.956
36.067	14.791	1352.606	1031.019
37.082	14.788	1351.797	1030.292
38.096	14.849	1350.789	1029.808
39.111	14.826	1350.381	1029.262
40.126	14.810	1349.516	1028.417
41.140	14.629	1348.561	1026.485
42.155	14.559	1348.034	1025.563
43.169	14.402	1348.398	1024.781
44.184	14.571	1347.286	1024.886
45.199	14.594	1346.927	1024.663
46.213	14.626	1346.126	1024.162
47.228	14.771	1345.100	1024.177
48.242	14.679	1344.574	1023.121
49.257	14.700	1342.829	1021.831
50.271	14.641	1341.508	1020.378
51.286	14.851	1339.959	1020.388
52.301	14.676	1339.001	1018.505
53.315	14.763	1337.615	1017.889
54.330	14.673	1336.507	1016.408
55.344	14.600	1335.611	1015.189
56.359	14.547	1334.974	1014.296
57.374	14.602	1333.677	1013.556
58.388	14.543	1332.604	1012.293
59.403	14.582	1332.444	1012.313
60.417	14.572	1331.623	1011.541
61.432	14.406	1331.330	1010.222
62.447	14.469	1329.801	1009.354
63.461	14.385	1329.053	1008.192
64.476	14.428	1327.807	1007.416
65.490	14.356	1326.650	1006.016
66.505	14.511	1324.868	1005.510
67.520	14.537	1323.487	1004.530
68.534	14.491	1322.419	1003.355
69.549	14.425	1321.895	1002.468
70.563	14.412	1320.641	1001.350
71.578	14.384	1319.323	1000.092
72.593	14.336	1318.420	999.036
73.607	14.245	1318.390	998.379
74.622	14.186	1317.664	997.387
75.636	14.292	1316.513	997.061
76.651	14.312	1315.605	996.402
77.666	14.223	1315.726	995.873
78.680	14.356	1315.105	996.113
79.695	14.507	1313.879	995.997
80.709	14.478	1313.397	995.371
81.724	14.462	1312.409	994.441
82.739	14.649	1311.136	994.499
83.753	14.657	1310.496	993.972
84.768	14.795	1309.753	994.144
85.782	14.768	1308.800	993.170
86.797	14.686	1307.947	991.949
87.812	14.645	1306.440	990.476
88.826	14.713	1305.165	989.826
89.841	14.696	1304.155	988.869
90.855	14.712	1303.400	988.305
91.870	14.673	1302.556	987.346
92.884	14.820	1301.264	987.151
93.899	14.859	1300.658	986.834
94.914	14.915	1299.579	986.259
95.928	14.864	1299.104	985.508
96.943	14.881	1298.051	984.723
97.957	14.827	1297.318	983.760
98.972	14.795	1296.405	982.795
99.987	14.748	1295.230	981.540
101.001	14.820	1294.190	981.088
102.016	14.835	1293.387	980.478
103.030	14.805	1292.385	979.459
104.045	14.689	1291.740	978.205
105.060	14.694	1290.178	976.963
106.074	14.555	1289.111	975.254
107.089	14.636	1286.931	973.995
108.103	14.483	1286.270	972.515
109.118	14.560	1284.882	971.827
110.133	14.480	1283.688	970.370
111.147	14.492	1282.233	969.254
112.162	14.568	1280.929	968.628
113.176	14.632	1279.909	968.138
114.191	14.636	1278.823	967.257
115.206	14.679	1277.919	966.737
116.220	14.552	1276.686	964.985
117.235	14.663	1275.194	964.413
118.249	14.504	1274.450	962.847
119.264	14.573	1273.430	962.386
120.279	14.453	1272.869	961.188
121.293	14.466	1271.544	960.174
122.308	14.508	1270.610	959.627
123.322	14.610	1269.088	958.981
124.337	14.397	1268.194	956.996
125.352	14.546	1267.150	956.977
126.366	14.463	1266.115	955.634
127.381	14.496	1265.278	955.109
128.395	14.502	1263.926	954.041
129.410	14.461	1263.432	953.344
130.424	14.536	1262.504	952.989
131.439	14.582	1261.055	952.076
132.454	14.647	1260.532	951.968
133.468	14.578	1259.753	950.899
134.483	14.600	1259.032	950.395
135.497	14.555	1258.035	949.304
136.512	14.717	1256.303	948.837
137.527	14.702	1254.978	947.666
138.541	14.668	1254.111	946.732
139.556	14.619	1252.652	945.271
140.570	14.691	1252.014	945.112
141.585	14.827	1250.360	944.550
142.600	14.851	1249.627	944.049
143.614	14.927	1248.839	943.801
144.629	14.905	1247.536	942.605
145.643	14.781	1246.332	940.912
146.658	14.675	1245.192	939.373
147.673	14.841	1243.464	938.921
148.687	14.705	1242.416	937.283
149.702	14.631	1241.154	935.834
150.716	14.673	1239.964	935.086
151.731	14.662	1238.822	934.084
152.746	14.697	1237.609	933.280
153.760	14.695	1236.674	932.480
154.775	14.877	1235.210	932.310
155.789	14.764	1234.583	931.127
156.804	14.790	1233.754	930.561
157.819	14.958	1232.491	930.459
158.833	14.977	1231.486	929.727
159.848	15.024	1230.637	929.266
160.862	14.912	1229.760	927.897
161.877	14.835	1228.906	926.746
162.892	14.842	1227.261	925.462
163.906	14.805	1226.613	924.683
164.921	14.871	1225.746	924.314
165.935	14.896	1225.148	923.920
166.950	14.889	1224.168	923.059
167.964	14.994	1223.186	922.818
168.979	14.965	1222.551	922.099
169.994	14.877	1222.257	921.309
171.008	15.029	1221.030	921.137
172.023	14.961	1220.366	920.181
173.037	15.078	1219.739	920.273
174.052	14.971	1218.361	918.565
175.067	14.955	1217.527	917.764
176.081	14.873	1216.585	916.524
177.096	14.796	1216.242	915.766
178.110	14.931	1214.965	915.461
179.125	14.771	1213.823	913.646
180.140	15.072	1212.329	914.084
181.154	15.104	1211.070	913.228
182.169	15.144	1209.816	912.420
183.183	15.070	1208.605	911.019
184.198	15.145	1207.639	910.621
185.213	15.177	1206.749	910.041
186.227	15.242	1205.788	909.589
187.242	15.294	1204.400	908.744
188.256	15.261	1203.436	907.760
189.271	15.234	1202.470	906.804
190.286	15.110	1201.680	905.459
191.300	14.949	1200.709	903.777
192.315	14.916	1199.949	902.946
193.329	14.909	1199.335	902.367
194.344	14.880	1199.134	901.978
195.359	15.021	1198.191	901.949
196.373	15.106	1197.759	901.999
197.388	15.269	1197.387	902.518
198.402	15.386	1196.732	902.576
199.417	15.271	1196.425	901.643
200.432	15.478	1195.363	901.879
201.446	15.465	1194.629	901.174
202.461	15.646	1193.377	901.118
203.475	15.617	1192.413	900.158
204.490	15.443	1191.487	898.446
205.504	15.428	1190.133	897.266
206.519	15.250	1189.238	895.561
207.534	15.357	1187.643	894.849
208.548	15.458	1186.648	894.561
209.563	15.506	1185.819	894.111
210.577	15.488	1185.181	893.456
211.592	15.440	1184.876	892.892
212.607	15.564	1183.809	892.668
213.621	15.449	1183.187	891.511
214.636	15.511	1181.670	890.618
215.650	15.528	1181.201	890.272
216.665	15.467	1180.485	889.330
217.680	15.522	1179.739	888.985
218.694	15.731	1178.334	888.952
219.709	15.657	1177.841	888.111
220.723	15.671	1176.853	887.357
221.738	15.627	1176.311	886.638
222.753	15.620	1175.624	886.009
223.767	15.743	1174.835	885.979
224.782	15.678	1174.187	885.072
225.796	15.820	1173.666	885.351
226.811	15.821	1172.694	884.542
227.826	15.694	1171.912	883.206
228.840	15.693	1171.544	882.844
229.855	15.809	1170.469	882.567
230.869	15.884	1169.176	881.908
231.884	15.729	1168.834	880.761
232.899	15.704	1168.055	879.965
233.913	15.548	1167.771	878.856
234.928	15.606	1166.639	878.229
235.942	15.754	1165.732	878.243
236.957	15.671	1164.801	877.026
237.972	15.644	1164.835	876.837
238.986	15.770	1163.758	876.606
240.001	15.785	1162.857	875.927
241.015	15.732	1162.460	875.275
242.030	15.759	1161.804	874.843
243.045	15.827	1160.542	874.171
244.059	15.905	1159.616	873.797
245.074	15.820	1159.118	872.906
246.088	15.872	1158.281	872.465
247.103	15.902	1157.764	872.156
248.117	16.026	1156.971	872.125
249.132	16.101	1156.472	872.058
250.147	16.211	1155.729	871.987
251.161	16.340	1154.708	871.806
252.176	16.184	1154.465	870.740
253.190	16.340	1153.872	871.020
254.205	16.432	1152.988	870.752
255.220	16.324	1152.750	869.938
256.234	16.343	1151.532	869.040
257.249	16.396	1151.431	869.159
258.263	16.316	1150.595	868.042
259.278	16.264	1150.056	867.287
260.293	16.369	1149.374	867.234
261.307	16.550	1148.717	867.591
262.322	16.450	1148.103	866.541
263.336	16.427	1147.304	865.744
264.351	16.488	1146.766	865.573
265.366	16.365	1146.243	864.472
266.380	16.546	1145.199	864.532
267.395	16.499	1144.463	863.663
268.409	16.385	1143.797	862.500
269.424	16.438	1143.030	862.113
270.439	16.411	1142.732	861.679
271.453	16.612	1141.370	861.600
272.468	16.485	1140.538	860.245
273.482	16.348	1140.510	859.451
274.497	16.525	1139.493	859.511
275.512	16.446	1138.948	858.620
276.526	16.429	1138.270	857.947
277.541	16.507	1137.188	857.453
278.555	16.521	1136.881	857.217
279.570	16.624	1135.915	856.932
280.585	16.676	1135.387	856.720
281.599	16.690	1134.583	856.110
282.614	16.572	1133.073	854.299
283.628	16.535	1132.193	853.375
284.643	16.618	1131.227	852.988
285.657	16.567	1130.739	852.285
286.672	16.752	1129.077	851.888
287.687	16.654	1128.596	850.961
288.701	16.648	1127.962	850.378
289.716	16.632	1127.229	849.668
290.730	16.689	1126.783	849.542
291.745	16.688	1125.960	848.842
292.760	16.741	1125.127	848.405
293.774	16.785	1124.827	848.323
294.789	16.769	1124.266	847.744
295.803	16.869	1123.315	847.453
296.818	16.751	1122.836	846.424
297.833	16.803	1121.555	845.646
298.847	16.865	1121.033	845.488
299.862	16.860	1120.348	844.871
300.876	16.803	1119.656	843.989
301.891	16.869	1119.380	844.036
302.906	16.958	1118.355	843.628
303.920	17.034	1117.731	843.463
304.935	17.095	1117.177	843.272
305.949	17.083	1116.594	842.698
306.964	17.100	1116.045	842.294
307.979	17.086	1115.153	841.478
308.993	17.049	1114.271	840.552
310.008	17.177	1113.657	840.651
311.022	17.050	1113.066	839.504
312.037	17.139	1112.048	839.100
313.052	17.078	1111.286	838.147
314.066	17.055	1110.279	837.204
315.081	16.960	1109.304	835.927
316.095	16.900	1108.308	834.803
317.110	16.890	1107.957	834.419
318.125	16.973	1107.267	834.231
319.139	16.942	1106.595	833.500
320.154	16.963	1106.159	833.199
321.168	17.046	1105.475	833.020
322.183	17.078	1104.525	832.387
323.197	17.115	1104.001	832.100
324.212	17.090	1103.285	831.365
325.227	17.153	1102.925	831.326
326.241	17.122	1102.530	830.805
327.256	17.081	1101.872	830.034
328.270	17.142	1100.389	829.144
329.285	17.159	1099.354	828.373
330.300	17.195	1098.414	827.763
331.314	17.181	1097.452	826.896
332.329	17.206	1096.775	826.439
333.343	17.114	1096.040	825.363
334.358	17.301	1094.672	825.167
335.373	17.393	1094.282	825.247
336.387	17.276	1093.928	824.339
337.402	17.289	1092.916	823.565
338.416	17.362	1092.612	823.619
339.431	17.416	1091.664	823.095
340.446	17.331	1091.666	822.607
341.460	17.384	1090.959	822.258
342.475	17.524	1089.898	822.065
343.489	17.621	1088.844	821.664
344.504	17.748	1087.666	821.312
345.519	17.770	1087.001	820.847
346.533	17.749	1086.215	820.080
347.548	17.714	1085.472	819.275
348.562	17.611	1084.685	818.114
349.577	17.642	1083.878	817.580
350.592	17.519	1083.148	816.371
351.606	17.493	1082.596	815.758
352.621	17.486	1081.807	815.055
353.635	17.418	1081.140	814.157
354.650	17.438	1080.536	813.727
355.665	17.501	1079.800	813.401
356.679	17.604	1078.866	813.116
357.694	17.586	1079.032	813.084
358.708	17.639	1077.729	812.281
359.723	17.680	1077.311	812.092
360.738	17.712	1076.685	811.698
361.752	17.614	1076.291	810.864
362.767	17.681	1075.580	810.577
363.781	17.818	1075.042	810.751
364.796	17.802	1074.579	810.251
365.810	17.834	1073.895	809.815
366.825	17.885	1073.300	809.540
367.840	17.991	1072.783	809.581
368.854	18.064	1072.394	809.561
369.869	17.972	1071.364	808.276
370.883	17.953	1070.835	807.713
371.898	17.798	1070.113	806.367
372.913	18.076	1069.219	806.934
373.927	17.967	1068.995	806.177
374.942	18.026	1068.737	806.193
375.956	17.971	1068.267	805.508
376.971	18.068	1067.467	805.290
377.986	18.194	1066.500	805.082
379.000	18.137	1066.544	804.773
380.015	18.170	1065.677	804.204
381.029	18.224	1064.731	803.672
382.044	18.285	1064.045	803.369
383.059	18.244	1063.671	802.826
384.073	18.247	1062.756	802.076
385.088	18.330	1061.464	801.418
386.102	18.261	1060.727	800.471
387.117	18.195	1060.089	799.608
388.132	18.191	1058.754	798.514
389.146	18.044	1058.470	797.540
390.161	18.078	1058.038	797.304
391.175	18.164	1056.917	796.791
392.190	18.242	1056.109	796.474
393.205	18.275	1055.579	796.155
394.219	18.285	1054.795	795.538
395.234	18.308	1053.697	794.748
396.248	18.329	1052.200	793.647
397.263	18.359	1051.569	793.240
398.278	18.035	1051.549	791.654
399.292	18.104	1050.585	791.178
400.307	18.097	1049.468	790.233
401.321	18.159	1048.886	790.010
402.336	18.045	1048.509	789.130
403.350	18.243	1047.603	789.295
404.365	18.187	1047.006	788.516
405.380	18.336	1046.152	788.490
406.394	18.377	1045.385	788.031
407.409	18.344	1044.906	787.449
408.423	18.410	1043.993	786.993
409.438	18.509	1043.509	787.011
410.453	18.487	1043.050	786.494
411.467	18.518	1042.261	785.975
412.482	18.546	1041.772	785.661
413.496	18.649	1041.021	785.499
414.511	18.609	1040.489	784.845
415.526	18.800	1039.899	785.206
416.540	18.743	1039.494	784.566
417.555	18.677	1038.690	783.590
418.569	18.690	1038.220	783.225
419.584	18.757	1037.691	783.065
420.599	18.811	1037.049	782.756
421.613	150.594	1402.792	1796.129
422.628	137.565	1456.072	1796.203
