DTS Sentinel unit serial number:	SN413079Multiplexer serial number:	ORYXHardware model number:	OX4-SRSoftware version number:	ORYX F/W v4.00 Oryx Data Collector v3.7.2.0data status	okinstallation	princeton_trtdifferential loss correction	single-endedforward channel	channel 2reverse channel	N/Adate	2019/09/15time	21:15:35forward acquisition time	60.00reverse acquisition time	0.00gamma	496.2192k internal	0.2333k external	0.2333temperature offset calibration	0.9940default loss term (dB/km)	0.3790temperature slope calibration	1.0000multiplexer offset coefficient	1.0000multiplexer slope coefficient	1.0000fibre end	0.00T internal ref (°C)	31.20T ext. ref 1 (°C)	8.17T ext. ref 2 (°C)	24.18length (m)	temperature (°C)	Stokes	anti-Stokes-747.200	28.672	-0.077	0.065
-746.185	94.511	0.251	0.287
-745.171	-143.088	0.132	0.013
-744.156	530.044	-0.055	0.130
-743.142	-200.000	-0.032	0.155
-742.127	-152.532	-0.187	0.013
-741.112	400.930	-0.094	0.197
-740.098	-200.000	0.033	0.244
-739.083	460.740	0.065	-0.146
-738.069	199.469	-0.108	0.166
-737.054	-95.129	-0.231	-0.063
-736.039	429.845	-0.048	0.105
-735.025	800.000	0.053	-0.163
-734.010	-90.309	0.094	-0.028
-732.996	-109.108	-0.514	-0.110
-731.981	-21.982	-0.114	0.070
-730.966	-116.329	-0.146	-0.027
-729.952	0.459	0.215	0.154
-728.937	70.731	-0.167	0.174
-727.923	238.515	-0.124	0.208
-726.908	800.000	-0.085	-0.280
-725.894	800.000	0.035	-0.132
-724.879	-181.512	-0.319	0.006
-723.864	-32.820	-0.150	0.084
-722.850	236.145	-0.167	-0.278
-721.835	800.000	-0.020	-0.085
-720.821	-120.424	-0.250	-0.043
-719.806	-200.000	0.015	-0.131
-718.791	444.318	-0.088	0.193
-717.777	800.000	-0.046	-0.128
-716.762	800.000	0.060	0.194
-715.748	-130.031	-0.265	-0.036
-714.733	-57.451	0.130	0.057
-713.718	-111.676	0.177	-0.036
-712.704	-12.676	0.135	0.088
-711.689	14.954	0.264	-0.207
-710.675	-52.399	0.111	-0.051
-709.660	506.360	0.059	-0.138
-708.645	-70.357	-0.172	0.066
-707.631	-145.973	-0.149	-0.013
-706.616	211.595	-0.075	0.119
-705.602	-63.984	0.249	-0.102
-704.587	-200.000	-0.008	-0.065
-703.572	-16.270	0.060	0.039
-702.558	173.637	0.055	-0.080
-701.543	-103.721	-0.171	-0.040
-700.529	-8.830	-0.039	-0.026
-699.514	-95.968	0.238	0.064
-698.499	-103.684	-0.092	0.022
-697.485	800.000	-0.058	-0.167
-696.470	355.821	-0.147	-0.293
-695.456	-62.044	-0.015	-0.006
-694.441	199.148	0.131	-0.201
-693.426	-200.000	-0.041	0.248
-692.412	-200.000	0.024	-0.310
-691.397	121.880	-0.148	-0.185
-690.383	-42.715	0.333	0.170
-689.368	-200.000	-0.043	0.250
-688.354	430.661	-0.073	-0.158
-687.339	-137.209	0.308	-0.035
-686.324	-200.000	-0.010	-0.265
-685.310	-125.702	0.255	-0.039
-684.295	-56.314	-0.065	-0.029
-683.281	-200.000	-0.040	0.183
-682.266	-114.101	0.174	0.034
-681.251	-83.764	-0.420	-0.134
-680.237	-200.000	-0.019	-0.213
-679.222	-48.918	-0.239	-0.115
-678.208	761.397	-0.041	-0.111
-677.193	-87.549	0.243	-0.074
-676.178	-79.264	0.404	0.137
-675.164	-200.000	0.067	-0.320
-674.149	-79.180	-0.176	-0.060
-673.135	-75.442	0.053	0.019
-672.120	-15.285	0.176	-0.113
-671.105	-117.712	-0.050	-0.009
-670.091	-161.190	0.275	-0.014
-669.076	800.000	-0.038	-0.149
-668.062	256.688	0.101	-0.174
-667.047	34.828	0.064	-0.056
-666.032	86.828	0.076	-0.084
-665.018	-17.938	-0.017	-0.011
-664.003	20.949	-0.054	-0.044
-662.989	156.581	-0.047	0.065
-661.974	-104.546	0.232	-0.054
-660.959	-141.710	-0.174	-0.018
-659.945	-73.336	-0.284	0.104
-658.930	-200.000	0.024	-0.161
-657.916	-93.991	0.206	-0.057
-656.901	-200.000	-0.063	-0.371
-655.886	677.025	0.070	-0.182
-654.872	-200.000	0.022	0.175
-653.857	463.212	0.118	0.263
-652.843	56.658	-0.289	0.282
-651.828	-106.330	0.323	-0.073
-650.814	800.000	-0.116	0.470
-649.799	-36.280	-0.316	-0.171
-648.784	6.565	-0.165	0.123
-647.770	-200.000	0.016	0.239
-646.755	-31.901	0.195	0.109
-645.741	388.570	-0.117	-0.243
-644.726	-200.000	-0.006	0.081
-643.711	78.107	-0.253	-0.270
-642.697	-200.000	0.011	-0.279
-641.682	267.040	0.097	-0.170
-640.668	-200.000	0.032	-0.187
-639.653	298.414	-0.191	-0.352
-638.638	800.000	-0.056	-0.205
-637.624	-92.683	-0.369	-0.104
-636.609	-137.048	0.134	-0.015
-635.595	86.962	0.114	-0.126
-634.580	109.074	-0.109	-0.131
-633.565	-200.000	-0.007	-0.186
-632.551	-200.000	0.009	-0.062
-631.536	-22.591	0.096	-0.058
-630.522	187.776	-0.096	-0.144
-629.507	22.619	0.176	-0.144
-628.492	387.649	0.159	0.329
-627.478	-200.000	0.043	-0.270
-626.463	-33.855	0.216	0.119
-625.449	71.567	0.350	-0.364
-624.434	-200.000	0.019	-0.204
-623.419	134.519	0.145	0.188
-622.405	-36.738	-0.084	0.045
-621.390	-146.619	0.246	-0.021
-620.376	57.730	-0.198	-0.194
-619.361	800.000	0.052	-0.188
-618.346	63.462	-0.287	0.288
-617.332	391.810	-0.149	-0.310
-616.317	65.009	0.322	-0.325
-615.303	-200.000	0.014	-0.174
-614.288	784.258	0.029	-0.081
-613.273	318.414	0.186	-0.352
-612.259	-200.000	0.018	-0.093
-611.244	212.505	-0.118	0.186
-610.230	-148.888	-0.423	0.034
-609.215	81.976	0.063	-0.068
-608.201	469.769	0.050	0.112
-607.186	-59.190	-0.108	-0.046
-606.171	144.834	-0.013	-0.017
-605.157	680.046	0.146	0.381
-604.142	-1.795	-0.187	-0.131
-603.128	-155.479	0.069	-0.004
-602.113	-19.971	0.265	-0.164
-601.098	298.037	-0.131	0.240
-600.084	-21.361	0.376	0.230
-599.069	12.163	0.054	-0.042
-598.055	-200.000	-0.069	-0.344
-597.040	-200.000	0.050	-0.223
-596.025	-87.162	-0.203	-0.062
-595.011	-200.000	-0.009	0.045
-593.996	-151.863	0.275	0.020
-592.982	800.000	-0.020	0.055
-591.967	-165.062	-0.286	0.013
-590.952	-44.634	0.177	-0.089
-589.938	800.000	-0.038	0.133
-588.923	58.878	-0.256	-0.251
-587.909	-200.000	-0.028	-0.255
-586.894	157.729	0.162	-0.225
-585.879	-109.235	-0.142	-0.030
-584.865	240.940	-0.169	0.282
-583.850	-9.365	-0.071	0.047
-582.836	-200.000	-0.006	0.188
-581.821	144.650	0.246	0.329
-580.806	-88.290	-0.187	-0.056
-579.792	-200.000	-0.039	-0.275
-578.777	800.000	-0.104	-0.304
-577.763	800.000	0.039	-0.130
-576.748	-3.874	-0.098	0.068
-575.733	125.864	-0.232	-0.293
-574.719	12.001	-0.194	0.149
-573.704	480.118	-0.110	0.248
-572.690	136.033	0.023	0.029
-571.675	377.096	-0.098	-0.200
-570.661	-57.140	0.215	0.095
-569.646	136.263	-0.123	0.160
-568.631	-75.513	0.296	0.105
-567.617	800.000	0.061	-0.236
-566.602	800.000	0.017	-0.061
-565.588	286.355	0.249	-0.450
-564.573	61.804	0.140	0.139
-563.558	-0.580	-0.190	-0.134
-562.544	-45.421	-0.364	-0.180
-561.529	82.324	0.122	0.132
-560.515	151.587	-0.067	0.091
-559.500	639.846	-0.064	0.163
-558.485	125.305	-0.067	0.085
-557.471	800.000	0.025	-0.073
-556.456	198.952	0.199	-0.305
-555.442	1.112	0.032	-0.023
-554.427	-46.015	-0.250	0.123
-553.412	7.025	0.343	-0.255
-552.398	412.290	-0.100	-0.212
-551.383	491.250	-0.191	-0.436
-550.369	-2.318	0.102	0.072
-549.354	-35.853	-0.118	-0.064
-548.339	-49.962	-0.536	0.254
-547.325	-200.000	-0.069	0.561
-546.310	53.352	-0.279	-0.267
-545.296	250.304	0.133	0.226
-544.281	73.837	0.291	-0.304
-543.266	-200.000	0.009	0.132
-542.252	-151.996	-0.280	0.020
-541.237	-54.025	-0.170	-0.077
-540.223	170.821	0.117	-0.167
-539.208	161.236	-0.056	0.078
-538.193	-200.000	0.023	0.104
-537.179	-18.888	0.091	0.057
-536.164	55.304	-0.159	0.153
-535.150	-200.000	-0.018	0.205
-534.135	800.000	-0.054	0.162
-533.121	435.135	-0.118	0.255
-532.106	-147.302	-0.202	0.017
-531.091	800.000	-0.038	-0.118
-530.077	564.433	-0.100	-0.240
-529.062	593.262	0.035	-0.087
-528.048	400.788	-0.075	0.156
-527.033	12.820	0.177	-0.136
-526.018	-66.449	-0.105	0.042
-525.004	-168.906	-0.589	0.022
-523.989	-24.652	0.047	0.028
-522.975	-89.646	0.342	0.100
-521.960	193.768	0.109	0.164
-520.945	26.675	0.211	-0.176
-519.931	-68.981	0.236	-0.091
-518.916	-117.832	0.055	-0.010
-517.902	90.001	-0.063	0.070
-516.887	-200.000	-0.100	-0.450
-515.872	-12.711	0.166	-0.108
-514.858	-125.034	0.172	0.026
-513.843	-11.972	-0.206	-0.134
-512.829	-200.000	0.070	0.728
-511.814	800.000	-0.055	0.199
-510.799	-147.160	0.186	0.016
-509.785	-47.604	0.214	0.104
-508.770	60.126	0.147	-0.144
-507.756	-130.973	0.341	-0.045
-506.741	77.960	-0.206	0.219
-505.726	-200.000	-0.055	-0.251
-504.712	87.866	-0.219	-0.241
-503.697	800.000	-0.051	-0.170
-502.683	-11.159	-0.202	-0.133
-501.668	-143.380	0.290	0.028
-500.653	-200.000	-0.053	0.446
-499.639	-200.000	0.053	0.487
-498.624	505.148	-0.133	0.307
-497.610	17.129	0.138	-0.109
-496.595	-165.357	0.236	-0.010
-495.581	46.494	-0.160	-0.148
-494.566	503.520	-0.089	0.206
-493.551	65.248	-0.286	0.288
-492.537	183.455	0.161	0.238
-491.522	47.485	0.106	0.098
-490.508	-8.882	0.111	0.074
-489.493	716.333	-0.119	-0.314
-488.478	450.807	0.031	-0.068
-487.464	57.952	0.149	-0.145
-486.449	135.596	0.369	0.478
-485.435	204.837	-0.066	0.102
-484.420	-63.066	0.125	0.051
-483.405	163.104	0.045	-0.062
-482.391	-200.000	-0.030	-0.345
-481.376	747.320	0.077	-0.207
-480.362	13.639	-0.168	-0.130
-479.347	-123.710	-0.294	0.046
-478.332	-129.427	0.161	-0.022
-477.318	118.386	0.128	0.157
-476.303	-33.256	0.177	-0.097
-475.289	-10.778	0.090	0.059
-474.274	-61.667	0.092	0.038
-473.259	-200.000	0.000	-0.073
-472.245	157.778	0.084	-0.116
-471.230	387.551	0.191	0.393
-470.216	90.439	-0.193	0.215
-469.201	-14.182	0.075	0.048
-468.186	-200.000	-0.015	0.098
-467.172	-143.264	-0.308	0.029
-466.157	800.000	0.020	0.073
-465.143	-200.000	-0.021	-0.462
-464.128	800.000	0.108	-0.347
-463.113	78.889	0.103	0.110
-462.099	231.593	0.091	0.148
-461.084	-90.010	-0.186	-0.054
-460.070	-200.000	-0.039	0.355
-459.055	102.416	-0.163	0.189
-458.040	-120.304	-0.169	0.029
-457.026	-165.524	0.093	0.004
-456.011	-200.000	0.048	-0.418
-454.997	-107.663	-0.031	0.007
-453.982	-200.000	-0.048	-0.260
-452.968	-200.000	-0.046	-0.412
-451.953	-96.951	-0.292	-0.076
-450.938	308.476	-0.062	-0.114
-449.924	-68.398	0.229	-0.088
-448.909	161.320	-0.085	-0.118
-447.895	-15.177	0.350	0.223
-446.880	232.362	0.201	0.328
-445.865	800.000	-0.031	0.125
-444.851	26.033	0.060	-0.050
-443.836	79.425	0.081	-0.087
-442.822	-200.000	-0.027	-0.164
-441.807	22.715	0.317	-0.258
-440.792	-22.418	0.168	0.101
-439.778	-200.000	0.012	-0.264
-438.763	-200.000	-0.004	0.381
-437.749	569.129	0.051	0.123
-436.734	-65.379	0.213	0.085
-435.719	-114.962	-0.288	-0.055
-434.705	800.000	-0.048	0.151
-433.690	800.000	0.031	-0.119
-432.676	800.000	-0.024	-0.077
-431.661	800.000	-0.067	-0.210
-430.646	-90.279	-0.252	-0.073
-429.632	-24.061	0.253	0.150
-428.617	16.002	-0.393	-0.307
-427.603	-61.179	0.212	-0.089
-426.588	182.025	0.048	-0.070
-425.573	-180.684	-0.142	-0.003
-424.559	-200.000	0.045	-0.521
-423.544	-90.050	0.138	-0.040
-422.530	-200.000	0.054	0.255
-421.515	95.611	-0.243	-0.275
-420.500	-200.000	0.041	-0.262
-419.486	123.085	0.036	-0.045
-418.471	63.391	0.183	0.182
-417.457	-200.000	-0.045	0.323
-416.442	377.200	-0.024	0.048
-415.428	-98.757	-0.086	0.022
-414.413	267.719	-0.037	-0.065
-413.398	58.224	-0.084	0.082
-412.384	238.453	-0.083	0.136
-411.369	95.675	0.093	0.106
-410.355	-161.560	0.326	-0.017
-409.340	-75.222	-0.220	0.078
-408.325	-32.444	-0.264	0.146
-407.311	-200.000	0.014	-0.081
-406.296	800.000	0.048	0.150
-405.282	-27.702	0.059	0.034
-404.267	800.000	0.036	0.110
-403.252	319.671	-0.066	0.124
-402.238	-80.508	-0.126	0.042
-401.223	127.671	-0.164	0.206
-400.209	-198.456	0.266	0.002
-399.194	161.530	0.106	-0.147
-398.179	800.000	-0.046	-0.143
-397.165	-200.000	0.059	0.404
-396.150	32.045	0.252	0.216
-395.136	-69.984	-0.234	0.088
-394.121	-122.768	0.225	0.036
-393.106	-26.708	-0.159	0.092
-392.092	-200.000	0.026	-0.122
-391.077	-100.834	0.345	-0.084
-390.063	71.614	-0.114	0.118
-389.048	36.173	-0.201	0.176
-388.033	116.129	-0.144	0.175
-387.019	-92.812	0.117	-0.033
-386.004	210.557	-0.118	0.184
-384.990	87.823	0.095	-0.104
-383.975	800.000	0.035	-0.133
-382.960	537.182	0.186	-0.439
-381.946	-115.828	0.174	0.032
-380.931	346.827	0.130	0.254
-379.917	-133.748	0.162	-0.020
-378.902	614.228	0.005	-0.011
-377.888	800.000	-0.080	-0.264
-376.873	93.428	0.207	-0.232
-375.858	-132.640	0.104	-0.013
-374.844	-9.281	0.238	0.158
-373.829	-200.000	0.034	0.361
-372.815	211.442	0.049	0.077
-371.800	-105.111	-0.185	-0.042
-370.785	189.973	-0.254	0.378
-369.771	-162.407	0.027	-0.001
-368.756	800.000	0.060	-0.251
-367.742	-67.205	-0.482	-0.188
-366.727	-200.000	0.002	0.018
-365.712	-160.880	-0.316	0.016
-364.698	75.835	-0.115	0.120
-363.683	-177.723	0.267	0.006
-362.669	800.000	-0.077	-0.285
-361.654	254.519	0.154	0.261
-360.639	26.865	0.145	0.120
-359.625	1.519	0.469	0.334
-358.610	20.509	-0.125	0.100
-357.596	67.105	-0.248	-0.250
-356.581	25.111	-0.443	-0.364
-355.566	-3.944	0.138	0.095
-354.552	800.000	0.140	0.447
-353.537	279.882	-0.091	0.161
-352.523	28.620	0.107	-0.090
-351.508	-125.397	0.232	0.035
-350.493	800.000	0.060	0.239
-349.479	392.835	-0.043	-0.089
-348.464	12.087	-0.142	-0.108
-347.450	-67.493	-0.052	0.020
-346.435	800.000	0.054	0.186
-345.420	-48.711	-0.107	0.051
-344.406	-200.000	0.071	-0.472
-343.391	101.087	0.057	0.065
-342.377	-193.838	0.206	0.002
-341.362	11.851	-0.188	0.143
-340.348	800.000	-0.097	-0.316
-339.333	-200.000	-0.002	-0.298
-338.318	61.586	-0.348	-0.342
-337.304	-75.940	0.114	0.040
-336.289	-200.000	0.010	-0.087
-335.275	-200.000	-0.034	0.168
-334.260	-94.880	0.426	-0.114
-333.245	-1.131	-0.165	0.115
-332.231	-116.961	0.121	-0.022
-331.216	800.000	0.052	-0.186
-330.202	129.888	0.089	-0.113
-329.187	-136.256	-0.209	0.024
-328.172	-106.981	0.236	-0.052
-327.158	-90.849	-0.261	0.075
-326.143	72.787	0.096	-0.099
-325.129	800.000	0.129	-0.407
-324.114	61.886	0.163	-0.161
-323.099	286.373	-0.054	0.097
-322.085	800.000	0.094	0.267
-321.070	-103.635	-0.158	-0.037
-320.056	-158.587	-0.371	0.021
-319.041	-200.000	-0.028	0.167
-318.026	83.687	0.031	0.033
-317.012	-10.977	0.222	-0.145
-315.997	94.054	-0.158	0.177
-314.983	-200.000	0.000	0.103
-313.968	-67.180	0.348	0.136
-312.953	-169.085	-0.177	-0.007
-311.939	800.000	-0.167	-0.570
-310.924	-129.460	-0.226	-0.031
-309.910	-152.130	-0.220	0.016
-308.895	-200.000	0.002	-0.179
-307.880	-89.594	0.065	-0.019
-306.866	39.400	0.179	0.158
-305.851	-164.339	0.156	0.007
-304.837	487.047	0.049	0.111
-303.822	68.981	0.223	0.226
-302.807	797.517	-0.098	0.268
-301.793	-200.000	0.025	0.374
-300.778	800.000	0.069	0.211
-299.764	-42.271	0.215	0.109
-298.749	-200.000	0.038	0.273
-297.735	150.985	0.035	-0.047
-296.720	235.103	0.165	-0.269
-295.705	-76.895	-0.116	-0.040
-294.691	-200.000	0.038	0.364
-293.676	-22.967	-0.192	0.114
-292.662	13.957	0.089	0.068
-291.647	40.380	0.107	0.095
-290.632	-83.669	0.088	-0.028
-289.618	71.516	0.076	-0.078
-288.603	33.655	-0.284	0.243
-287.589	7.261	-0.157	-0.116
-286.574	-6.852	0.194	0.130
-285.559	34.081	0.053	-0.046
-284.545	-14.198	0.103	0.066
-283.530	-165.332	-0.214	0.009
-282.516	-74.968	0.268	-0.095
-281.501	-177.337	0.216	-0.005
-280.486	-12.392	-0.021	0.014
-279.472	-108.460	0.319	-0.068
-278.457	-200.000	-0.061	0.306
-277.443	-41.001	-0.103	0.052
-276.428	-59.161	0.208	0.089
-275.413	244.384	0.135	0.223
-274.399	575.588	0.052	0.124
-273.384	-200.000	-0.016	0.300
-272.370	800.000	0.033	0.134
-271.355	-188.926	0.266	-0.003
-270.340	-132.849	-0.291	-0.037
-269.326	15.967	-0.233	0.181
-268.311	-51.982	-0.228	0.104
-267.297	-117.394	0.117	0.021
-266.282	-31.826	-0.118	-0.065
-265.267	63.274	-0.074	0.073
-264.253	-50.912	-0.198	-0.092
-263.238	32.733	-0.141	0.121
-262.224	798.572	0.090	-0.245
-261.209	-22.776	-0.275	-0.164
-260.195	373.436	-0.069	-0.138
-259.180	-30.621	0.287	-0.160
-258.165	-129.979	-0.245	-0.033
-257.151	-11.337	-0.359	-0.233
-256.136	-153.788	0.268	0.018
-255.122	-3.872	0.166	0.114
-254.107	461.261	-0.057	0.125
-253.092	-143.252	0.298	-0.028
-252.078	-200.000	0.068	-0.343
-251.063	-200.000	0.036	0.169
-250.049	-71.556	0.294	0.108
-249.034	-200.000	-0.033	-0.317
-248.019	-81.459	0.410	0.133
-247.005	-200.000	0.025	0.594
-245.990	252.150	-0.082	-0.139
-244.976	-111.043	-0.124	0.025
-243.961	-200.000	-0.019	0.447
-242.946	-86.827	-0.085	0.026
-241.932	-200.000	0.033	0.218
-240.917	-128.432	-0.167	0.023
-239.903	-200.000	0.009	0.231
-238.888	651.205	-0.116	0.293
-237.873	-200.000	-0.003	-0.065
-236.859	-179.822	-0.199	-0.004
-235.844	-11.151	0.433	0.282
-234.830	800.000	0.085	0.314
-233.815	-176.113	-0.121	0.003
-232.800	245.559	-0.145	0.240
-231.786	22.797	0.197	-0.159
-230.771	800.000	0.035	0.138
-229.757	-174.376	0.083	-0.002
-228.742	-78.686	-0.149	0.050
-227.727	303.803	-0.052	0.095
-226.713	-200.000	0.023	-0.323
-225.698	-108.545	0.051	0.011
-224.684	593.518	-0.030	-0.074
-223.669	800.000	-0.119	-0.497
-222.655	123.800	-0.061	-0.075
-221.640	800.000	-0.075	-0.265
-220.625	800.000	-0.068	0.273
-219.611	616.445	0.087	0.216
-218.596	-108.225	-0.133	-0.028
-217.582	800.000	-0.035	-0.113
-216.567	-100.180	0.205	-0.050
-215.552	-151.845	-0.127	-0.009
-214.538	-56.220	0.102	-0.045
-213.523	-55.706	0.132	-0.058
-212.509	-200.000	0.001	-0.051
-211.494	198.912	-0.079	0.119
-210.479	-176.710	-0.162	-0.004
-209.465	207.855	0.119	-0.183
-208.450	364.058	0.030	-0.059
-207.436	-66.378	0.255	-0.100
-206.421	180.194	0.051	0.074
-205.406	-200.000	-0.028	0.188
-204.392	-39.269	0.170	0.088
-203.377	5.245	0.111	-0.080
-202.363	-105.950	0.127	0.028
-201.348	72.738	-0.043	-0.045
-200.333	84.989	-0.143	-0.155
-199.319	-200.000	-0.039	-0.200
-198.304	239.685	-0.145	-0.237
-197.290	800.000	-0.040	0.122
-196.275	-200.000	-0.025	0.204
-195.260	-12.676	0.121	0.078
-194.246	233.235	-0.062	0.101
-193.231	-136.463	-0.260	0.030
-192.217	2.685	0.143	-0.102
-191.202	-126.753	-0.242	-0.035
-190.187	344.476	0.116	-0.224
-189.173	-76.294	-0.169	0.059
-188.158	-147.702	-0.254	0.021
-187.144	332.890	-0.067	0.127
-186.129	490.064	-0.104	0.233
-185.114	-200.000	-0.004	0.024
-184.100	191.842	0.197	0.292
-183.085	92.171	-0.199	-0.220
-182.071	-200.000	0.006	-0.182
-181.056	81.182	-0.082	0.087
-180.042	-35.440	-0.166	0.089
-179.027	61.984	0.366	0.359
-178.012	284.297	0.162	-0.286
-176.998	-109.455	0.188	0.039
-175.983	264.683	-0.141	-0.242
-174.969	-88.065	0.414	-0.122
-173.954	-200.000	-0.009	-0.080
-172.939	602.763	-0.051	0.125
-171.925	-145.013	-0.358	0.032
-170.910	-200.000	-0.008	0.193
-169.896	800.000	-0.024	-0.067
-168.881	800.000	-0.083	-0.239
-167.866	-86.840	0.323	0.097
-166.852	-200.000	0.005	-0.155
-165.837	109.632	0.153	-0.181
-164.823	-130.563	-0.085	0.011
-163.808	-79.311	-0.385	-0.128
-162.793	66.533	0.105	-0.105
-161.779	800.000	-0.039	0.122
-160.764	800.000	0.033	0.132
-159.750	-53.717	-0.429	-0.192
-158.735	392.829	0.095	-0.194
-157.720	-200.000	0.043	0.301
-156.706	-200.000	-0.018	0.493
-155.691	19.147	-0.159	0.125
-154.677	-18.688	-0.155	-0.095
-153.662	39.379	-0.165	0.145
-152.647	800.000	0.024	-0.083
-151.633	5.994	-0.188	-0.137
-150.618	125.005	0.170	-0.210
-149.604	-200.000	0.008	-0.124
-148.589	-88.971	0.066	0.019
-147.574	-200.000	0.006	0.405
-146.560	108.865	-0.110	0.129
-145.545	88.753	-0.294	-0.322
-144.531	249.463	-0.056	-0.094
-143.516	-63.050	-0.249	-0.101
-142.502	-7.703	-0.292	0.194
-141.487	469.334	-0.169	-0.373
-140.472	230.111	-0.126	0.202
-139.458	800.000	-0.123	0.356
-138.443	800.000	0.097	0.324
-137.429	46.545	0.212	0.193
-136.414	135.396	-0.115	0.147
-135.399	420.136	0.045	0.094
-134.385	-197.364	-0.244	0.002
-133.370	-92.100	0.231	-0.064
-132.356	-200.000	0.013	0.104
-131.341	-200.000	0.030	0.179
-130.326	-180.315	-0.232	0.005
-129.312	33.777	-0.131	0.112
-128.297	-200.000	-0.012	-0.107
-127.283	-79.506	-0.225	-0.075
-126.268	800.000	-0.035	0.117
-125.253	-200.000	0.046	-0.287
-124.239	-139.038	-0.145	-0.015
-123.224	-200.000	0.047	0.367
-122.210	183.747	0.027	-0.040
-121.195	325.123	-0.121	0.227
-120.180	-43.168	-0.319	0.159
-119.166	-111.516	-0.431	-0.086
-118.151	257.109	0.030	0.051
-117.137	15.017	0.046	0.035
-116.122	21.672	-0.173	-0.138
-115.107	-76.756	-0.144	0.049
-114.093	-146.632	-0.082	0.007
-113.078	197.465	0.023	-0.034
-112.064	50.000	-0.188	-0.174
-111.049	800.000	0.096	0.277
-110.034	454.023	0.108	-0.234
-109.020	800.000	0.118	-0.364
-108.005	251.690	0.178	0.297
-106.991	277.963	0.097	-0.170
-105.976	267.050	-0.109	-0.186
-104.962	-69.015	-0.275	-0.104
-103.947	-66.527	-0.185	0.072
-102.932	13.602	0.114	-0.087
-101.918	191.688	0.056	-0.083
-100.903	-157.549	-0.276	-0.016
-99.889	128.540	0.124	0.155
-98.874	-73.969	0.122	0.044
-97.859	-19.990	0.168	0.102
-96.845	-200.000	-0.025	0.168
-95.830	-200.000	0.058	-0.282
-94.816	-102.997	0.070	0.016
-93.801	-92.936	-0.017	0.005
-92.786	-21.338	0.282	-0.169
-91.772	-139.266	-0.297	0.031
-90.757	-200.000	0.004	0.031
-89.743	-200.000	0.024	-0.247
-88.728	-10.321	0.211	0.137
-87.713	-200.000	0.019	-0.237
-86.699	-200.000	0.025	-0.209
-85.684	-200.000	0.008	0.116
-84.670	180.616	0.152	0.218
-83.655	800.000	0.002	-0.008
-82.640	-200.000	-0.023	-0.172
-81.626	234.887	0.204	0.329
-80.611	556.312	-0.035	0.082
-79.597	-29.769	0.035	0.020
-78.582	30.588	-0.154	-0.129
-77.567	68.078	-0.179	0.179
-76.553	-110.847	-0.099	0.020
-75.538	-21.442	-0.157	0.094
-74.524	228.954	0.083	-0.133
-73.509	13.925	-0.133	0.101
-72.494	800.000	0.037	-0.111
-71.480	-116.489	0.386	0.070
-70.465	12.413	0.094	0.071
-69.451	800.000	0.033	0.121
-68.436	-132.918	0.274	0.034
-67.422	219.535	0.091	-0.143
-66.407	800.000	0.106	0.336
-65.392	800.000	0.036	-0.149
-64.378	-95.510	0.109	0.029
-63.363	-200.000	-0.012	0.052
-62.349	235.178	0.062	0.101
-61.334	-19.508	-1.460	-0.886
-60.319	-46.456	0.349	0.168
-59.305	138.433	-0.615	-0.790
-58.290	454.506	0.578	1.253
-57.276	342.426	0.777	1.488
-56.261	-200.000	100.965	571.945
-55.246	493.666	1420.579	3190.153
-54.232	156.131	2601.745	3512.519
-53.217	103.221	2264.419	2598.488
-52.203	40.246	1887.502	1661.787
-51.188	34.455	1680.532	1436.062
-50.173	31.865	1637.643	1380.314
-49.159	49.991	1689.058	1559.618
-48.144	51.048	1704.970	1582.149
-47.130	33.917	1664.229	1417.889
-46.115	31.302	1649.579	1385.979
-45.100	31.095	1644.954	1380.503
-44.086	31.061	1642.366	1378.026
-43.071	31.046	1639.752	1375.670
-42.057	31.144	1636.944	1373.979
-41.042	31.102	1635.275	1372.217
-40.027	31.092	1633.268	1370.407
-39.013	31.040	1631.551	1368.531
-37.998	31.030	1630.115	1367.193
-36.984	31.060	1628.967	1366.396
-35.969	31.138	1628.066	1366.162
-34.954	31.249	1625.610	1364.853
-33.940	31.234	1624.443	1363.711
-32.925	31.256	1622.020	1361.787
-31.911	31.135	1620.727	1359.766
-30.896	31.221	1618.831	1358.746
-29.881	31.224	1617.589	1357.672
-28.867	31.182	1616.254	1356.189
-27.852	31.207	1614.575	1354.910
-26.838	31.128	1613.455	1353.346
-25.823	31.141	1612.023	1352.184
-24.809	31.257	1610.727	1351.879
-23.794	31.186	1609.515	1350.294
-22.779	31.257	1607.654	1349.197
-21.765	31.250	1605.874	1347.595
-20.750	31.258	1604.094	1346.106
-19.736	31.331	1602.909	1345.588
-18.721	31.231	1601.463	1343.596
-17.706	31.236	1599.884	1342.260
-16.692	31.258	1598.604	1341.289
-15.677	31.275	1596.803	1339.842
-14.663	31.288	1595.865	1339.098
-13.648	31.256	1594.231	1337.448
-12.633	31.289	1592.554	1336.223
-11.619	31.198	1591.262	1334.432
-10.604	31.231	1589.631	1333.251
-9.590	31.237	1588.640	1332.405
-8.575	31.147	1587.227	1330.526
-7.560	31.253	1586.146	1330.325
-6.546	31.257	1584.992	1329.333
-5.531	31.206	1584.413	1328.430
-4.517	31.142	1582.943	1326.689
-3.502	31.259	1581.599	1326.342
-2.487	31.329	1579.934	1325.389
-1.473	30.853	1567.739	1311.756
-0.458	27.578	1547.773	1272.180
0.556	21.134	1548.369	1236.728
1.571	18.631	1570.922	1236.612
2.586	18.045	1584.641	1243.043
3.600	16.951	1534.209	1195.661
4.615	12.984	1434.919	1091.979
5.629	9.092	1377.002	1023.050
6.644	8.211	1369.716	1011.965
7.659	8.220	1368.169	1010.787
8.673	8.104	1367.241	1009.278
9.688	8.144	1364.984	1007.776
10.702	7.963	1362.023	1004.356
11.717	9.880	1365.143	1018.673
12.731	14.219	1373.112	1052.013
13.746	17.133	1377.112	1073.431
14.761	17.056	1375.722	1071.772
15.775	16.049	1373.182	1063.343
16.790	15.003	1370.216	1054.365
17.804	14.274	1368.157	1048.102
18.819	13.725	1367.074	1043.725
19.834	13.425	1365.506	1040.547
20.848	13.140	1364.589	1037.967
21.863	12.949	1362.935	1035.417
22.877	12.807	1362.053	1033.769
23.892	12.904	1360.558	1033.146
24.907	12.812	1360.129	1032.157
25.921	12.810	1359.354	1031.461
26.936	12.881	1358.232	1030.965
27.950	12.780	1357.427	1029.629
28.965	12.854	1356.683	1029.440
29.980	13.036	1355.229	1029.378
30.994	13.017	1354.024	1028.257
32.009	13.058	1353.060	1027.686
33.023	13.231	1351.294	1027.328
34.038	13.004	1350.339	1025.105
35.053	13.024	1349.154	1024.238
36.067	12.964	1347.809	1022.755
37.082	13.053	1346.812	1022.455
38.096	13.043	1346.013	1021.699
39.111	13.090	1345.184	1021.270
40.126	12.986	1344.256	1019.830
41.140	12.812	1343.714	1018.257
42.155	12.809	1342.956	1017.574
43.169	12.805	1343.013	1017.498
44.184	12.730	1342.442	1016.513
45.199	12.714	1342.116	1016.077
46.213	12.788	1341.300	1015.826
47.228	12.898	1340.111	1015.515
48.242	12.967	1339.058	1015.052
49.257	12.884	1337.562	1013.320
50.271	13.022	1336.013	1012.899
51.286	12.956	1335.129	1011.740
52.301	12.907	1333.667	1010.238
53.315	12.867	1332.869	1009.300
54.330	12.940	1331.616	1008.711
55.344	12.737	1330.834	1006.788
56.359	12.797	1329.357	1005.947
57.374	12.769	1328.942	1005.371
58.388	12.790	1327.914	1004.634
59.403	12.631	1327.882	1003.551
60.417	12.779	1326.815	1003.560
61.432	12.679	1326.055	1002.288
62.447	12.717	1324.803	1001.481
63.461	12.568	1324.001	999.883
64.476	12.545	1323.208	999.053
65.490	12.645	1321.634	998.384
66.505	12.735	1319.613	997.312
67.520	12.677	1318.800	996.258
68.534	12.751	1317.719	995.805
69.549	12.705	1316.662	994.639
70.563	12.636	1315.971	993.614
71.578	12.580	1314.623	992.166
72.593	12.463	1314.024	990.920
73.607	12.598	1312.760	990.695
74.622	12.576	1311.971	989.880
75.636	12.553	1311.712	989.460
76.651	12.646	1310.777	989.226
77.666	12.539	1310.534	988.309
78.680	12.582	1309.660	987.823
79.695	12.566	1309.293	987.361
80.709	12.751	1307.786	987.248
81.724	12.784	1307.172	986.891
82.739	12.863	1306.255	986.587
83.753	12.727	1305.983	985.479
84.768	12.869	1304.392	985.042
85.782	13.007	1303.279	984.939
86.797	13.011	1302.159	984.028
87.812	12.812	1301.565	982.307
88.826	12.803	1300.450	981.324
89.841	12.834	1299.451	980.671
90.855	12.939	1298.269	980.311
91.870	12.902	1297.147	979.161
92.884	12.959	1296.613	979.008
93.899	12.979	1295.910	978.510
94.914	13.096	1294.881	978.339
95.928	13.048	1294.502	977.684
96.943	13.028	1293.149	976.456
97.957	12.919	1292.337	975.112
98.972	13.041	1290.942	974.690
99.987	12.999	1290.220	973.814
101.001	12.979	1289.289	972.909
102.016	13.027	1288.114	972.216
103.030	13.020	1287.179	971.381
104.045	13.020	1286.210	970.567
105.060	12.918	1285.173	969.096
106.074	12.874	1283.353	967.381
107.089	12.805	1282.320	966.112
108.103	12.646	1281.351	964.364
109.118	12.634	1280.235	963.372
110.133	12.733	1278.389	962.476
111.147	12.652	1277.552	961.289
112.162	12.762	1275.863	960.575
113.176	12.755	1274.871	959.702
114.191	12.724	1274.298	959.004
115.206	12.829	1272.890	958.468
116.220	12.847	1271.616	957.533
117.235	12.805	1270.698	956.509
118.249	12.737	1269.940	955.461
119.264	12.753	1268.849	954.648
120.279	12.763	1267.495	953.604
121.293	12.696	1266.474	952.365
122.308	12.727	1265.184	951.487
123.322	12.680	1264.133	950.339
124.337	12.747	1262.959	949.762
125.352	12.600	1262.510	948.494
126.366	12.703	1261.157	947.985
127.381	12.795	1260.094	947.629
128.395	12.747	1258.897	946.372
129.410	12.726	1257.918	945.430
130.424	12.798	1257.546	945.479
131.439	12.826	1256.114	944.483
132.454	12.747	1255.743	943.664
133.468	12.824	1254.752	943.278
134.483	12.811	1254.277	942.766
135.497	12.793	1253.073	941.673
136.512	12.850	1251.615	940.818
137.527	12.794	1250.472	939.556
138.541	12.839	1249.182	938.758
139.556	12.870	1247.476	937.572
140.570	13.010	1246.955	937.895
141.585	12.915	1246.035	936.577
142.600	12.986	1244.401	935.668
143.614	13.092	1243.687	935.654
144.629	13.157	1242.348	934.931
145.643	13.133	1241.227	933.866
146.658	13.013	1240.327	932.430
147.673	12.998	1238.969	931.240
148.687	12.938	1238.161	930.215
149.702	13.037	1236.139	929.172
150.716	13.018	1235.237	928.302
151.731	12.953	1233.725	926.720
152.746	12.938	1232.731	925.808
153.760	12.918	1232.222	925.228
154.775	13.025	1231.302	925.059
155.789	13.246	1229.712	925.016
156.804	13.065	1229.123	923.479
157.819	13.108	1228.029	922.819
158.833	13.174	1226.735	922.133
159.848	13.147	1226.029	921.367
160.862	13.268	1224.698	920.963
161.877	13.123	1223.671	919.300
162.892	13.114	1222.532	918.314
163.906	12.990	1222.021	917.158
164.921	13.134	1220.922	917.054
165.935	13.113	1220.219	916.326
166.950	13.045	1219.782	915.538
167.964	13.068	1218.888	914.915
168.979	13.119	1218.366	914.727
169.994	13.139	1217.483	914.092
171.008	13.132	1216.563	913.283
172.023	13.215	1215.781	913.074
173.037	13.286	1214.781	912.632
174.052	13.325	1213.615	911.889
175.067	13.213	1213.183	910.867
176.081	13.254	1211.678	909.884
177.096	13.087	1211.092	908.444
178.110	13.183	1209.753	907.885
179.125	13.145	1208.860	906.927
180.140	13.159	1207.808	906.137
181.154	13.266	1206.508	905.666
182.169	13.312	1205.005	904.712
183.183	13.357	1204.115	904.209
184.198	13.360	1203.396	903.601
185.213	13.392	1202.248	902.837
186.227	13.482	1200.856	902.202
187.242	13.375	1200.210	901.053
188.256	13.519	1199.169	900.975
189.271	13.555	1197.950	900.175
190.286	13.378	1196.867	898.322
191.300	13.210	1196.029	896.701
192.315	13.128	1195.407	895.709
193.329	13.157	1194.614	895.193
194.344	13.171	1194.194	894.875
195.359	13.215	1193.736	894.691
196.373	13.451	1193.425	895.657
197.388	13.403	1192.746	894.808
198.402	13.546	1192.301	895.171
199.417	13.608	1191.304	894.678
200.432	13.665	1190.633	894.398
201.446	13.666	1190.017	893.862
202.461	13.721	1188.792	893.161
203.475	13.699	1188.004	892.369
204.490	13.640	1186.657	890.963
205.504	13.630	1185.297	889.807
206.519	13.628	1184.326	888.992
207.534	13.706	1182.744	888.145
208.548	13.546	1182.335	886.901
209.563	13.605	1181.814	886.747
210.577	13.648	1180.529	885.934
211.592	13.732	1179.773	885.737
212.607	13.732	1178.850	884.967
213.621	13.733	1178.174	884.383
214.636	13.823	1177.320	884.148
215.650	13.768	1176.412	883.095
216.665	13.810	1175.290	882.398
217.680	13.730	1174.697	881.445
218.694	13.743	1173.653	880.654
219.709	13.822	1173.143	880.612
220.723	13.804	1172.530	879.980
221.738	13.832	1171.308	879.132
222.753	13.787	1170.510	878.217
223.767	13.947	1169.689	878.372
224.782	13.980	1169.190	878.095
225.796	14.075	1168.541	878.030
226.811	13.996	1167.962	877.102
227.826	13.956	1167.215	876.249
228.840	13.783	1166.966	875.071
229.855	13.903	1165.916	874.838
230.869	13.999	1164.894	874.501
231.884	13.936	1164.079	873.480
232.899	13.895	1163.149	872.488
233.913	13.917	1162.511	872.047
234.928	13.903	1161.780	871.350
235.942	13.828	1161.027	870.317
236.957	13.878	1160.538	870.133
237.972	13.883	1159.559	869.348
238.986	13.807	1159.083	868.516
240.001	13.821	1158.173	867.831
241.015	13.918	1157.519	867.776
242.030	14.053	1156.302	867.490
243.045	14.004	1155.399	866.478
244.059	14.066	1155.151	866.538
245.074	14.100	1153.811	865.633
246.088	14.033	1153.745	865.158
247.103	14.187	1152.656	865.070
248.117	14.191	1152.062	864.565
249.132	14.318	1150.901	864.275
250.147	14.382	1150.637	864.332
251.161	14.339	1149.941	863.511
252.176	14.359	1149.379	863.118
253.190	14.435	1149.083	863.213
254.205	14.470	1148.129	862.601
255.220	14.586	1147.413	862.586
256.234	14.546	1146.692	861.759
257.249	14.506	1146.056	861.001
258.263	14.489	1145.695	860.562
259.278	14.618	1144.790	860.474
260.293	14.497	1144.479	859.539
261.307	14.605	1143.868	859.564
262.322	14.633	1142.821	858.842
263.336	14.609	1142.214	858.190
264.351	14.591	1141.899	857.782
265.366	14.666	1141.023	857.433
266.380	14.680	1140.530	857.061
267.395	14.578	1139.565	855.738
268.409	14.552	1139.146	855.210
269.424	14.606	1138.389	854.846
270.439	14.621	1137.853	854.445
271.453	14.583	1136.998	853.533
272.468	14.632	1135.874	852.864
273.482	14.560	1135.178	851.897
274.497	14.558	1134.797	851.524
275.512	14.687	1133.915	851.447
276.526	14.626	1133.144	850.479
277.541	14.613	1132.564	849.902
278.555	14.727	1131.965	849.960
279.570	14.777	1131.269	849.613
280.585	14.788	1130.451	848.984
281.599	14.927	1129.289	848.738
282.614	14.801	1128.297	847.279
283.628	14.667	1127.714	846.089
284.643	14.802	1126.487	845.778
285.657	14.884	1125.627	845.472
286.672	14.782	1124.846	844.292
287.687	14.854	1124.184	844.083
288.701	14.927	1122.999	843.488
289.716	14.814	1122.288	842.310
290.730	14.845	1122.005	842.182
291.745	14.935	1121.064	841.854
292.760	15.008	1120.354	841.610
293.774	15.040	1119.922	841.375
294.789	15.137	1119.438	841.421
295.803	15.092	1118.509	840.423
296.818	14.978	1117.735	839.199
297.833	15.001	1117.266	838.886
298.847	15.058	1116.428	838.470
299.862	14.999	1115.662	837.524
300.876	15.059	1114.950	837.217
301.891	15.040	1114.117	836.419
302.906	15.131	1113.530	836.361
303.920	15.202	1112.747	836.053
304.935	15.196	1111.923	835.327
305.949	15.108	1111.614	834.586
306.964	15.298	1110.818	834.858
307.979	15.148	1110.159	833.544
308.993	15.213	1109.290	833.139
310.008	15.329	1108.504	833.051
311.022	15.284	1107.817	832.240
312.037	15.277	1106.817	831.378
313.052	15.340	1105.997	831.000
314.066	15.237	1105.004	829.675
315.081	15.144	1104.739	828.940
316.095	15.183	1103.368	828.028
317.110	15.241	1102.828	827.840
318.125	15.132	1102.355	826.870
319.139	15.112	1101.606	826.140
320.154	15.240	1100.595	825.938
321.168	15.159	1100.531	825.417
322.183	15.202	1099.839	825.036
323.197	15.323	1098.872	824.832
324.212	15.295	1097.949	823.930
325.227	15.298	1097.864	823.808
326.241	15.229	1097.234	822.926
327.256	15.270	1096.613	822.588
328.270	15.242	1095.572	821.595
329.285	15.194	1094.721	820.650
330.300	15.331	1093.481	820.318
331.314	15.272	1092.901	819.522
332.329	15.322	1092.010	819.026
333.343	15.207	1090.994	817.631
334.358	15.396	1090.347	817.992
335.373	15.389	1089.834	817.505
336.387	15.445	1088.908	817.011
337.402	15.506	1087.880	816.464
338.416	15.595	1087.007	816.168
339.431	15.685	1086.478	816.135
340.446	15.659	1086.058	815.622
341.460	15.746	1085.402	815.476
342.475	15.726	1084.664	814.755
343.489	15.792	1083.404	814.052
344.504	15.725	1083.116	813.442
345.519	15.845	1081.879	813.022
346.533	15.866	1081.263	812.586
347.548	15.834	1080.516	811.802
348.562	15.829	1079.798	811.164
349.577	15.715	1079.221	810.110
350.592	15.722	1078.146	809.267
351.606	15.650	1077.427	808.307
352.621	15.734	1076.780	808.152
353.635	15.601	1076.591	807.301
354.650	15.669	1075.752	806.925
355.665	15.670	1074.951	806.259
356.679	15.837	1074.067	806.325
357.694	15.696	1074.000	805.529
358.708	15.846	1073.061	805.471
359.723	15.887	1072.261	804.998
360.738	15.941	1071.802	804.838
361.752	15.818	1071.282	803.790
362.767	15.881	1070.468	803.409
363.781	15.883	1069.883	802.908
364.796	16.050	1069.437	803.296
365.810	16.031	1069.089	802.873
366.825	15.960	1068.254	801.838
367.840	16.124	1067.933	802.305
368.854	16.207	1067.013	801.940
369.869	16.156	1066.529	801.264
370.883	16.082	1065.690	800.210
371.898	16.166	1064.394	799.562
372.913	16.118	1064.142	799.075
373.927	16.108	1063.688	798.619
374.942	16.283	1063.332	799.105
375.956	16.288	1062.604	798.515
376.971	16.344	1061.478	797.860
377.986	16.229	1061.492	797.259
379.000	16.301	1060.766	796.982
380.015	16.311	1060.449	796.718
381.029	16.307	1059.884	796.205
382.044	16.297	1058.989	795.417
383.059	16.312	1058.402	794.976
384.073	16.365	1057.729	794.647
385.088	16.390	1056.642	793.881
386.102	16.385	1056.176	793.436
387.117	16.360	1054.718	792.153
388.132	16.365	1053.888	791.484
389.146	16.290	1053.100	790.471
390.161	16.190	1052.280	789.317
391.175	16.216	1052.011	789.168
392.190	16.359	1051.286	789.223
393.205	16.435	1050.598	788.992
394.219	16.385	1049.915	788.175
395.234	16.412	1048.653	787.283
396.248	16.255	1048.073	786.044
397.263	16.363	1046.836	785.554
398.278	16.276	1046.613	784.912
399.292	16.308	1045.222	783.947
400.307	16.365	1044.914	783.911
401.321	16.541	1043.996	783.967
402.336	16.308	1043.643	782.552
403.350	16.460	1042.784	782.544
404.365	16.424	1042.012	781.730
405.380	16.389	1041.290	780.958
406.394	16.515	1040.513	780.889
407.409	16.585	1039.814	780.618
408.423	16.622	1038.816	779.971
409.438	16.581	1038.572	779.529
410.453	16.749	1037.801	779.655
411.467	16.645	1037.395	778.799
412.482	16.680	1036.627	778.316
413.496	16.777	1035.863	778.117
414.511	16.874	1035.168	777.971
415.526	16.870	1034.834	777.633
416.540	16.828	1034.469	777.101
417.555	16.964	1033.822	777.167
418.569	16.915	1033.233	776.434
419.584	16.932	1032.534	775.916
420.599	16.948	1032.270	775.720
421.613	102.290	1321.238	1464.599
422.628	93.633	1363.307	1464.687
