DTS Sentinel unit serial number:	SN413079Multiplexer serial number:	ORYXHardware model number:	OX4-SRSoftware version number:	ORYX F/W v4.00 Oryx Data Collector v3.7.2.0data status	okinstallation	princeton_trtdifferential loss correction	single-endedforward channel	channel 2reverse channel	N/Adate	2019/09/18time	12:35:35forward acquisition time	60.00reverse acquisition time	0.00gamma	496.2192k internal	0.2323k external	0.2323temperature offset calibration	0.9989default loss term (dB/km)	0.3790temperature slope calibration	1.0000multiplexer offset coefficient	1.0000multiplexer slope coefficient	1.0000fibre end	0.00T internal ref (°C)	32.42T ext. ref 1 (°C)	0.53T ext. ref 2 (°C)	30.42length (m)	temperature (°C)	Stokes	anti-Stokes-747.200	800.000	-0.015	0.043
-746.185	-200.000	0.018	0.254
-745.171	17.999	0.171	-0.138
-744.156	-200.000	0.001	0.244
-743.142	-17.998	0.236	-0.149
-742.127	-69.827	-0.380	-0.147
-741.112	314.716	0.154	-0.292
-740.098	-60.315	-0.033	-0.014
-739.083	373.139	0.044	0.091
-738.069	266.713	0.018	0.031
-737.054	15.479	0.243	0.193
-736.039	166.378	-0.173	-0.247
-735.025	371.959	0.104	0.213
-734.010	765.593	-0.090	0.246
-732.996	-200.000	-0.010	0.131
-731.981	-105.476	-0.256	0.059
-730.966	-119.198	-0.192	-0.034
-729.952	800.000	-0.026	-0.104
-728.937	-168.673	-0.208	-0.008
-727.923	-180.100	0.248	-0.005
-726.908	-200.000	-0.031	-0.275
-725.894	-32.567	-0.140	0.079
-724.879	84.570	-0.169	-0.186
-723.864	579.535	-0.071	-0.174
-722.850	-200.000	0.017	-0.248
-721.835	-27.951	0.355	-0.207
-720.821	-138.894	0.135	0.015
-719.806	128.463	0.134	-0.173
-718.791	-93.338	-0.283	-0.079
-717.777	145.306	0.223	0.301
-716.762	-200.000	0.037	0.163
-715.748	124.128	-0.124	0.157
-714.733	-81.424	0.294	-0.098
-713.718	800.000	0.034	0.110
-712.704	93.921	-0.084	0.097
-711.689	-25.710	0.076	-0.045
-710.675	279.835	0.068	0.123
-709.660	-125.588	0.403	0.062
-708.645	224.456	0.080	-0.130
-707.631	-137.471	-0.070	-0.008
-706.616	-58.796	0.339	-0.148
-705.602	-130.880	-0.377	0.051
-704.587	65.323	-0.081	-0.082
-703.572	-79.752	0.274	-0.093
-702.558	-200.000	-0.023	0.145
-701.543	-200.000	-0.045	-0.250
-700.529	334.876	-0.120	-0.235
-699.514	376.994	-0.084	0.172
-698.499	-200.000	-0.032	-0.253
-697.485	576.397	0.089	-0.220
-696.470	67.096	-0.123	-0.127
-695.456	-29.865	-0.199	0.114
-694.441	50.845	-0.017	-0.016
-693.426	-200.000	-0.018	-0.175
-692.412	555.276	-0.094	-0.228
-691.397	36.018	0.137	0.122
-690.383	-200.000	0.009	0.199
-689.368	-126.926	0.136	0.020
-688.354	293.784	-0.200	0.368
-687.339	400.004	0.127	0.267
-686.324	594.940	-0.142	-0.354
-685.310	83.462	-0.272	0.299
-684.295	-200.000	-0.049	0.381
-683.281	-200.000	0.014	0.122
-682.266	-25.792	-0.359	-0.213
-681.251	-200.000	-0.014	-0.116
-680.237	-112.207	-0.226	-0.046
-679.222	158.486	0.054	-0.076
-678.208	-64.347	-0.170	0.070
-677.193	800.000	0.067	0.294
-676.178	-200.000	-0.024	-0.403
-675.164	244.756	0.126	-0.214
-674.149	702.233	-0.058	0.153
-673.135	119.820	0.178	-0.222
-672.120	-200.000	0.000	0.199
-671.105	190.463	-0.086	-0.131
-670.091	-74.461	0.108	0.039
-669.076	-132.503	-0.455	0.059
-668.062	-200.000	-0.038	0.185
-667.047	-80.530	0.265	0.089
-666.032	445.775	-0.061	0.135
-665.018	-200.000	-0.046	0.315
-664.003	503.351	-0.044	-0.102
-662.989	-130.832	0.376	-0.051
-661.974	-200.000	0.053	-0.320
-660.959	17.607	-0.319	-0.255
-659.945	57.725	-0.288	-0.284
-658.930	-200.000	0.012	0.133
-657.916	-50.434	-0.334	-0.159
-656.901	453.899	0.039	-0.086
-655.886	48.686	-0.306	-0.289
-654.872	137.963	-0.158	0.209
-653.857	-200.000	0.005	-0.100
-652.843	-200.000	0.032	-0.223
-651.828	315.461	0.121	0.229
-650.814	800.000	-0.065	0.243
-649.799	-84.714	0.256	0.081
-648.784	186.155	0.094	-0.141
-647.770	800.000	0.018	-0.070
-646.755	-67.058	-0.236	-0.094
-645.741	-39.811	-0.293	0.154
-644.726	-140.927	-0.163	-0.017
-643.711	-144.189	0.195	0.018
-642.697	-76.561	-0.205	0.072
-641.682	-200.000	-0.022	0.257
-640.668	19.506	-0.275	-0.223
-639.653	363.872	0.185	-0.375
-638.638	-117.494	0.202	-0.037
-637.624	-200.000	-0.005	-0.283
-636.609	-170.075	0.171	0.006
-635.595	-200.000	0.055	-0.284
-634.580	-19.012	-0.112	-0.070
-633.565	800.000	0.083	0.269
-632.551	-200.000	-0.007	-0.072
-631.536	-200.000	-0.040	-0.347
-630.522	-139.161	-0.285	0.031
-629.507	166.511	-0.239	-0.340
-628.492	-74.965	-0.125	-0.045
-627.478	-200.000	0.029	-0.373
-626.463	-200.000	0.004	0.199
-625.449	471.243	0.007	0.017
-624.434	18.709	0.221	-0.178
-623.419	11.160	0.245	0.188
-622.405	-200.000	-0.076	-0.544
-621.390	-60.981	-0.157	-0.067
-620.376	800.000	0.060	0.208
-619.361	-200.000	-0.050	-0.286
-618.346	-117.606	-0.136	-0.025
-617.332	-200.000	0.017	0.086
-616.317	800.000	-0.065	-0.226
-615.303	246.255	0.134	-0.227
-614.288	-57.095	-0.252	-0.112
-613.273	-2.465	0.172	-0.121
-612.259	38.463	-0.137	0.122
-611.244	-200.000	0.021	-0.204
-610.230	214.945	0.133	0.211
-609.215	-11.197	-0.320	0.212
-608.201	88.702	0.159	0.178
-607.186	64.394	-0.122	-0.123
-606.171	-200.000	0.034	-0.205
-605.157	50.027	-0.345	-0.327
-604.142	315.206	0.068	0.129
-603.128	-64.350	-0.253	-0.103
-602.113	-45.568	0.193	0.096
-601.098	-200.000	0.009	-0.076
-600.084	800.000	-0.047	0.173
-599.069	-32.573	0.211	0.118
-598.055	800.000	-0.074	-0.238
-597.040	97.693	-0.250	-0.288
-596.025	-113.428	0.520	-0.102
-595.011	-200.000	-0.005	0.295
-593.996	-57.749	-0.290	-0.128
-592.982	-57.128	-0.188	0.083
-591.967	-200.000	0.033	0.220
-590.952	-5.469	0.108	0.074
-589.938	52.309	0.115	-0.110
-588.923	-200.000	-0.007	0.081
-587.909	195.815	-0.059	-0.090
-586.894	96.100	0.071	-0.081
-585.879	17.865	0.048	0.038
-584.865	145.506	0.129	-0.173
-583.850	113.127	-0.115	-0.140
-582.836	4.352	-0.241	-0.178
-581.821	93.299	-0.259	0.294
-580.806	170.061	-0.180	0.259
-579.792	643.560	0.163	0.417
-578.777	-66.683	-0.229	0.091
-577.763	800.000	-0.027	-0.087
-576.748	-139.397	0.228	-0.025
-575.733	-23.830	-0.113	0.068
-574.719	-105.704	-0.095	-0.021
-573.704	165.281	0.142	-0.202
-572.690	-200.000	0.007	-0.112
-571.675	-200.000	-0.006	0.086
-570.661	-27.561	0.230	0.134
-569.646	-51.415	0.139	-0.065
-568.631	-99.981	-0.249	0.062
-567.617	48.055	0.027	0.025
-566.602	309.240	0.154	-0.288
-565.588	165.890	-0.210	0.298
-564.573	-116.460	0.127	-0.024
-563.558	-200.000	-0.034	0.208
-562.544	17.831	0.035	0.028
-561.529	-126.201	0.316	-0.047
-560.515	142.295	0.243	0.324
-559.500	800.000	0.038	-0.109
-558.485	800.000	0.046	-0.128
-557.471	-134.003	-0.077	0.010
-556.456	51.471	-0.048	0.045
-555.442	12.539	-0.144	-0.111
-554.427	-23.589	0.246	-0.148
-553.412	-105.029	0.269	-0.062
-552.398	-200.000	-0.006	0.102
-551.383	101.212	-0.222	-0.259
-550.369	-34.938	0.170	-0.093
-549.354	-200.000	-0.020	-0.251
-548.339	347.122	-0.066	-0.130
-547.325	-200.000	-0.013	-0.198
-546.310	78.620	-0.191	0.204
-545.296	-200.000	-0.002	0.341
-544.281	571.767	0.005	-0.013
-543.266	-108.642	0.123	-0.026
-542.252	-35.811	-0.150	0.081
-541.237	800.000	-0.046	-0.141
-540.223	173.934	-0.115	-0.166
-539.208	402.989	-0.137	-0.288
-538.193	86.587	0.169	-0.186
-537.179	-200.000	-0.087	-0.422
-536.164	-127.208	-0.083	-0.012
-535.150	337.521	0.158	0.308
-534.135	104.501	0.143	0.169
-533.121	800.000	-0.039	-0.168
-532.106	109.609	-0.325	0.390
-531.091	44.542	0.154	-0.142
-530.077	-101.935	-0.219	0.053
-529.062	-156.283	0.145	0.009
-528.048	-70.951	-0.330	0.124
-527.033	-200.000	0.013	0.230
-526.018	-18.722	0.152	0.095
-525.004	-39.577	-0.416	0.218
-523.989	-52.507	0.439	-0.203
-522.975	133.170	-0.244	0.316
-521.960	-197.562	-0.107	0.001
-520.945	-117.787	0.215	0.039
-519.931	-200.000	0.057	-0.339
-518.916	-37.306	0.176	-0.094
-517.902	800.000	0.049	-0.205
-516.887	-200.000	0.004	0.081
-515.872	-200.000	0.036	0.231
-514.858	-162.371	0.159	0.008
-513.843	401.592	-0.125	-0.263
-512.829	-200.000	-0.007	0.056
-511.814	70.552	0.398	0.412
-510.799	-28.751	-0.226	-0.130
-509.785	-200.000	-0.041	-0.210
-508.770	800.000	-0.019	-0.073
-507.756	-23.472	0.162	-0.098
-506.741	-22.757	-0.367	0.222
-505.726	-64.549	-0.208	0.085
-504.712	494.487	0.061	-0.140
-503.697	-40.018	-0.270	0.141
-502.683	-152.809	-0.275	0.019
-501.668	-59.940	-0.223	0.096
-500.653	-77.311	0.376	0.131
-499.639	80.823	-0.105	-0.113
-498.624	-81.091	0.332	-0.110
-497.610	-145.406	0.172	0.016
-496.595	-71.555	0.112	0.042
-495.581	140.807	0.224	0.296
-494.566	-134.425	-0.063	0.008
-493.551	-200.000	0.074	-0.358
-492.537	195.345	0.133	-0.202
-491.522	-53.022	0.302	-0.139
-490.508	-26.821	0.184	-0.107
-489.493	48.216	-0.274	-0.256
-488.478	-200.000	0.063	-0.284
-487.464	27.419	0.163	-0.137
-486.449	73.063	0.232	-0.242
-485.435	-39.634	0.198	-0.103
-484.420	195.600	0.239	0.363
-483.405	-2.189	-0.200	0.140
-482.391	-200.000	-0.071	0.498
-481.376	-169.712	0.651	-0.024
-480.362	800.000	0.055	-0.166
-479.347	-98.519	-0.210	0.054
-478.332	-118.332	-0.077	0.014
-477.318	377.873	-0.055	0.112
-476.303	211.217	0.128	-0.202
-475.289	-200.000	0.020	-0.144
-474.274	-47.460	0.126	-0.061
-473.259	-51.535	-0.117	0.055
-472.245	687.334	0.068	-0.178
-471.230	25.827	-0.215	-0.179
-470.216	-70.642	0.148	-0.056
-469.201	-170.894	0.059	-0.002
-468.186	-200.000	-0.039	0.246
-467.172	564.822	-0.174	0.422
-466.157	663.481	-0.088	-0.227
-465.143	113.828	0.065	-0.078
-464.128	38.523	0.055	-0.049
-463.113	-200.000	-0.008	0.318
-462.099	-108.562	0.100	0.022
-461.084	-57.863	0.402	-0.176
-460.070	-97.682	0.226	0.058
-459.055	22.723	-0.150	-0.123
-458.040	254.992	-0.076	-0.131
-457.026	800.000	0.033	0.130
-456.011	-122.043	0.262	0.043
-454.997	-200.000	0.019	0.088
-453.982	-101.691	0.211	-0.051
-452.968	83.634	-0.143	0.156
-451.953	338.358	-0.106	0.207
-450.938	54.204	-0.054	-0.052
-449.924	-28.488	-0.033	-0.019
-448.909	-6.918	-0.076	0.051
-447.895	-50.792	0.078	-0.037
-446.880	-60.930	-0.139	-0.059
-445.865	118.158	-0.131	-0.161
-444.851	-200.000	0.001	-0.176
-443.836	-92.016	-0.315	0.089
-442.822	-200.000	-0.017	0.140
-441.807	46.114	0.079	0.073
-440.792	427.246	0.036	-0.077
-439.778	-200.000	0.013	0.177
-438.763	-8.547	0.135	-0.090
-437.749	-104.358	-0.238	0.055
-436.734	-200.000	-0.005	-0.027
-435.719	319.129	0.124	-0.234
-434.705	355.422	0.041	-0.081
-433.690	175.919	0.112	-0.162
-432.676	37.658	-0.046	-0.040
-431.661	239.903	0.181	-0.301
-430.646	83.658	0.100	0.109
-429.632	-43.527	0.163	0.082
-428.617	325.118	-0.115	-0.219
-427.603	-181.257	-0.194	-0.004
-426.588	-200.000	0.015	0.167
-425.573	-66.245	-0.163	0.065
-424.559	206.938	0.033	0.051
-423.544	-149.479	0.140	-0.011
-422.530	-145.562	-0.142	-0.013
-421.515	44.699	0.162	0.148
-420.500	143.549	0.044	-0.058
-419.486	-120.439	-0.087	-0.015
-418.471	-200.000	0.011	0.096
-417.457	58.463	0.116	-0.113
-416.442	-44.947	0.030	0.015
-415.428	-108.502	-0.234	-0.050
-414.413	-200.000	-0.031	0.287
-413.398	-121.620	0.263	0.043
-412.384	-159.432	-0.143	-0.008
-411.369	487.664	-0.059	0.134
-410.355	-63.196	-0.297	0.122
-409.340	-200.000	0.020	0.157
-408.325	87.140	0.203	-0.224
-407.311	-133.892	0.132	-0.016
-406.296	-42.552	-0.166	-0.084
-405.282	800.000	0.013	0.041
-404.267	-200.000	0.075	-0.436
-403.252	800.000	0.044	-0.122
-402.238	-200.000	-0.006	-0.213
-401.223	25.199	-0.174	-0.144
-400.209	-90.024	-0.134	0.039
-399.194	207.150	-0.129	0.200
-398.179	-36.221	-0.235	-0.127
-397.165	-200.000	0.084	-0.451
-396.150	664.803	-0.120	0.308
-395.136	-145.470	-0.112	-0.010
-394.121	348.509	0.119	0.233
-393.106	224.282	-0.133	-0.214
-392.092	-174.046	0.267	-0.008
-391.077	-200.000	-0.034	-0.230
-390.063	-62.679	-0.089	-0.037
-389.048	-43.358	0.081	0.041
-388.033	-200.000	-0.042	0.341
-387.019	800.000	-0.108	0.314
-386.004	493.284	0.043	-0.099
-384.990	-200.000	-0.026	0.249
-383.975	-102.332	-0.070	0.017
-382.960	123.381	0.109	0.136
-381.946	204.243	-0.057	0.087
-380.931	-200.000	0.003	-0.031
-379.917	-165.894	-0.061	0.003
-378.902	-66.612	0.231	0.091
-377.888	98.711	-0.119	0.136
-376.873	-151.863	0.205	-0.015
-375.858	-13.296	0.063	0.041
-374.844	-200.000	-0.047	-0.304
-373.829	-37.123	0.209	0.112
-372.815	-200.000	0.003	0.176
-371.800	-200.000	0.010	0.075
-370.785	-49.273	0.169	0.080
-369.771	-200.000	-0.012	0.199
-368.756	-98.696	-0.117	-0.030
-367.742	-99.708	0.174	0.043
-366.727	-80.554	-0.104	0.034
-365.712	-200.000	0.011	0.398
-364.698	-200.000	0.018	-0.147
-363.683	32.797	-0.145	-0.124
-362.669	-106.514	-0.088	0.019
-361.654	-5.510	0.194	0.132
-360.639	-200.000	-0.006	0.152
-359.625	255.559	-0.110	0.187
-358.610	-162.335	0.113	-0.006
-357.596	-84.909	0.070	-0.022
-356.581	555.573	-0.161	0.386
-355.566	-77.107	0.229	-0.079
-354.552	111.945	-0.106	-0.128
-353.537	42.808	-0.076	0.069
-352.523	96.527	-0.208	0.236
-351.508	-139.423	-0.411	0.044
-350.493	-99.713	0.290	-0.072
-349.479	800.000	-0.062	0.180
-348.464	-200.000	0.431	0.001
-347.450	-142.882	-0.153	-0.015
-346.435	610.003	0.151	0.376
-345.420	-200.000	-0.003	-0.203
-344.406	-67.750	0.102	0.040
-343.391	172.412	0.057	-0.082
-342.377	-200.000	-0.052	0.399
-341.362	85.089	-0.034	0.037
-340.348	-200.000	0.020	0.182
-339.333	427.077	0.078	-0.168
-338.318	369.137	-0.224	0.452
-337.304	800.000	-0.124	0.472
-336.289	-84.263	-0.225	-0.071
-335.275	-56.078	0.292	0.130
-334.260	-200.000	0.034	-0.330
-333.245	-200.000	-0.045	-0.295
-332.231	69.761	-0.230	0.235
-331.216	-200.000	0.021	0.141
-330.202	4.363	0.199	0.145
-329.187	112.383	0.155	0.187
-328.172	141.621	0.097	0.127
-327.158	421.046	-0.105	0.223
-326.143	800.000	-0.085	0.250
-325.129	162.550	0.071	0.098
-324.114	-200.000	0.253	0.000
-323.099	258.946	-0.261	-0.447
-322.085	-12.221	0.317	0.206
-321.070	193.579	-0.091	-0.136
-320.056	130.461	0.091	-0.116
-319.041	-130.169	-0.082	-0.011
-318.026	-74.558	0.307	0.110
-317.012	-74.774	-0.051	-0.018
-315.997	506.965	0.041	-0.095
-314.983	-80.714	-0.226	0.075
-313.968	303.682	0.095	0.175
-312.953	-23.459	0.404	-0.241
-311.939	-73.913	-0.182	0.066
-310.924	148.998	0.042	0.056
-309.910	800.000	0.026	0.103
-308.895	-156.962	0.299	-0.018
-307.880	77.014	-0.126	-0.133
-306.866	-85.776	0.109	0.033
-305.851	12.552	-0.186	-0.142
-304.837	-146.835	0.249	-0.021
-303.822	367.129	0.060	-0.121
-302.807	107.694	0.056	0.067
-301.793	20.394	0.202	0.162
-300.778	673.157	-0.094	0.242
-299.764	49.831	-0.039	-0.036
-298.749	-116.584	-0.373	0.068
-297.735	-200.000	0.049	-0.304
-296.720	-200.000	0.026	0.119
-295.705	-39.459	-0.630	0.327
-294.691	87.889	0.184	-0.203
-293.676	222.416	-0.187	0.298
-292.662	800.000	0.094	0.260
-291.647	305.986	0.065	-0.120
-290.632	-114.399	-0.138	0.026
-289.618	-195.045	0.230	-0.002
-288.603	-200.000	0.036	0.232
-287.589	-48.702	-0.359	0.171
-286.574	-61.080	0.378	-0.158
-285.559	135.003	-0.163	0.210
-284.545	-149.634	0.208	-0.016
-283.530	215.395	-0.142	0.223
-282.516	800.000	-0.107	0.300
-281.501	800.000	-0.090	-0.285
-280.486	428.641	0.014	0.031
-279.472	304.065	-0.140	0.258
-278.457	-112.514	0.462	-0.091
-277.443	83.930	0.157	-0.169
-276.428	800.000	0.084	-0.292
-275.413	80.563	0.059	-0.063
-274.399	-102.673	-0.032	-0.008
-273.384	-127.829	0.131	0.019
-272.370	800.000	0.075	0.220
-271.355	-85.222	-0.187	0.058
-270.340	-64.542	-0.073	-0.029
-269.326	134.651	0.132	-0.170
-268.311	84.240	-0.207	-0.225
-267.297	800.000	-0.083	-0.268
-266.282	-200.000	0.003	0.138
-265.267	16.447	-0.270	0.211
-264.253	-97.643	0.111	-0.029
-263.238	-200.000	-0.027	-0.121
-262.224	11.675	-0.053	-0.040
-261.209	312.200	0.042	0.079
-260.195	-23.352	-0.140	-0.083
-259.180	800.000	0.014	-0.045
-258.165	-44.108	-0.108	-0.054
-257.151	88.461	0.077	-0.085
-256.136	800.000	-0.021	-0.067
-255.122	6.048	0.055	0.041
-254.107	230.830	0.106	0.172
-253.092	375.794	-0.078	-0.158
-252.078	800.000	0.083	-0.244
-251.063	-200.000	-0.058	-0.309
-250.049	-102.395	0.384	0.091
-249.034	55.488	-0.067	-0.065
-248.019	-83.630	0.223	0.071
-247.005	-141.805	0.477	-0.047
-245.990	800.000	0.203	0.582
-244.976	140.766	-0.050	0.065
-243.961	43.394	-0.355	0.321
-242.946	126.919	-0.159	-0.200
-241.932	-100.624	0.237	-0.058
-240.917	-129.835	-0.354	0.048
-239.903	-80.427	0.103	0.034
-238.888	-102.889	-0.125	-0.029
-237.873	-25.802	-0.251	0.146
-236.859	88.062	-0.087	-0.095
-235.844	67.275	0.215	-0.217
-234.830	800.000	0.020	-0.069
-233.815	177.522	0.192	-0.276
-232.800	-200.000	-0.027	0.163
-231.786	-95.367	0.146	0.039
-230.771	-100.809	-0.277	-0.068
-229.757	-140.306	0.263	-0.027
-228.742	-106.116	0.164	0.037
-227.727	373.209	0.094	-0.189
-226.713	-200.000	-0.034	-0.292
-225.698	-200.000	0.027	-0.168
-224.684	-200.000	0.021	-0.200
-223.669	268.211	-0.099	-0.171
-222.655	-77.451	-0.297	-0.102
-221.640	20.532	-0.269	-0.215
-220.625	800.000	0.079	-0.287
-219.611	-27.098	0.067	-0.039
-218.596	662.063	-0.045	0.114
-217.582	430.238	-0.091	-0.194
-216.567	286.959	-0.150	0.268
-215.552	800.000	0.066	0.196
-214.538	-106.464	0.153	0.034
-213.523	96.563	-0.208	-0.236
-212.509	-129.007	0.199	0.028
-211.494	-116.907	0.151	0.027
-210.479	434.640	-0.047	0.101
-209.465	-68.874	-0.385	-0.147
-208.450	6.646	0.133	-0.098
-207.436	-114.447	-0.338	-0.064
-206.421	-200.000	-0.077	0.420
-205.406	249.495	-0.048	0.081
-204.392	-200.000	-0.013	-0.150
-203.377	-200.000	0.010	-0.074
-202.363	168.578	0.160	-0.225
-201.348	123.885	-0.241	-0.299
-200.333	800.000	-0.146	-0.424
-199.319	140.324	-0.146	0.190
-198.304	-83.573	-0.175	0.055
-197.290	-20.877	-0.038	-0.023
-196.275	-200.000	-0.034	-0.274
-195.260	-110.371	-0.196	-0.040
-194.246	-58.857	-0.179	-0.077
-193.231	-81.124	0.013	-0.004
-192.217	187.253	-0.336	0.495
-191.202	135.787	0.091	-0.117
-190.187	280.385	0.044	0.078
-189.173	-86.341	-0.245	0.075
-188.158	800.000	0.055	0.154
-187.144	-200.000	0.003	-0.019
-186.129	554.946	0.092	0.218
-185.114	-102.221	-0.107	0.025
-184.100	800.000	-0.081	-0.274
-183.085	10.715	-0.208	-0.157
-182.071	800.000	0.007	-0.023
-181.056	-72.289	0.338	0.124
-180.042	-96.729	0.350	-0.091
-179.027	109.659	0.074	0.087
-178.012	58.901	-0.166	0.161
-176.998	141.309	0.293	0.383
-175.983	116.943	0.058	-0.070
-174.969	-200.000	0.039	0.235
-173.954	-73.916	-0.305	-0.110
-172.939	-142.852	0.155	-0.015
-171.925	285.761	-0.055	0.098
-170.910	800.000	0.059	0.215
-169.896	-200.000	-0.009	-0.079
-168.881	160.982	-0.174	-0.240
-167.866	165.591	0.228	0.318
-166.852	294.773	0.103	-0.186
-165.837	383.852	0.109	0.221
-164.823	285.518	-0.192	0.342
-163.808	72.182	-0.113	-0.116
-162.793	-199.820	-0.285	-0.001
-161.779	7.012	-0.090	-0.066
-160.764	-91.249	-0.169	0.048
-159.750	800.000	0.068	-0.253
-158.735	-135.971	0.107	-0.012
-157.720	74.851	0.184	0.191
-156.706	178.554	0.128	0.185
-155.691	-24.225	-0.214	-0.126
-154.677	18.789	-0.169	0.133
-153.662	105.331	0.161	-0.187
-152.647	-25.407	0.136	0.079
-151.633	382.821	0.097	0.196
-150.618	-200.000	-0.016	-0.168
-149.604	-96.438	0.266	0.069
-148.589	562.357	0.178	-0.425
-147.574	293.152	-0.022	-0.040
-146.560	-200.000	-0.038	-0.343
-145.545	209.915	-0.147	-0.228
-144.531	-135.684	0.272	-0.032
-143.516	-79.704	0.237	-0.079
-142.502	-37.328	-0.107	0.057
-141.487	-130.704	-0.397	0.053
-140.472	-200.000	0.033	-0.211
-139.458	800.000	0.057	-0.221
-138.443	-49.434	-0.126	-0.059
-137.429	800.000	-0.057	0.162
-136.414	175.709	0.184	-0.263
-135.399	75.991	-0.039	-0.041
-134.385	379.406	0.059	0.119
-133.370	-26.764	0.063	0.036
-132.356	36.784	0.322	0.280
-131.341	67.536	0.329	-0.331
-130.326	121.970	-0.071	-0.088
-129.312	7.896	-0.079	0.059
-128.297	-172.265	-0.125	-0.004
-127.283	-117.291	-0.227	0.041
-126.268	800.000	-0.031	0.093
-125.253	606.568	0.030	0.074
-124.239	-200.000	0.015	-0.155
-123.224	41.425	0.132	-0.117
-122.210	-83.600	-0.147	-0.046
-121.195	-82.570	0.206	-0.066
-120.180	552.790	-0.172	0.408
-119.166	72.680	0.113	0.116
-118.151	85.990	-0.226	0.245
-117.137	-200.000	-0.021	-0.129
-116.122	167.830	0.201	-0.282
-115.107	27.036	-0.196	0.162
-114.093	200.110	-0.124	-0.188
-113.078	125.252	-0.050	0.062
-112.064	-200.000	0.033	0.170
-111.049	-175.784	0.192	0.005
-110.034	-127.231	-0.040	-0.006
-109.020	522.542	-0.154	0.357
-108.005	32.828	0.147	0.125
-106.991	-75.564	-0.131	-0.046
-105.976	-59.114	0.222	-0.094
-104.962	800.000	0.054	0.232
-103.947	73.732	-0.178	0.184
-102.932	-200.000	-0.020	-0.158
-101.918	-77.716	-0.276	-0.094
-100.903	322.441	-0.064	0.120
-99.889	-119.478	0.278	-0.047
-98.874	369.927	0.080	0.160
-97.859	-200.000	-0.030	-0.251
-96.845	107.435	0.108	-0.126
-95.830	-58.322	-0.259	0.111
-94.816	-87.857	0.190	0.056
-93.801	-123.152	-0.378	0.060
-92.786	448.606	0.129	0.280
-91.772	171.615	-0.031	0.044
-90.757	-200.000	0.076	0.350
-89.743	81.312	0.212	-0.226
-88.728	416.639	0.082	-0.172
-87.713	800.000	0.076	0.282
-86.699	-25.274	-0.149	-0.087
-85.684	-172.744	0.320	0.010
-84.670	-200.000	0.066	0.308
-83.655	-46.022	-0.133	-0.065
-82.640	740.617	0.004	0.010
-81.626	-197.380	-0.155	0.001
-80.611	1.566	-0.241	0.171
-79.597	-101.505	-0.411	-0.098
-78.582	767.144	0.196	-0.523
-77.567	-99.847	-0.303	0.075
-76.553	766.856	-0.087	0.234
-75.538	800.000	0.057	-0.166
-74.524	-41.986	-0.078	0.040
-73.509	30.402	-0.401	0.337
-72.494	-200.000	0.001	-0.278
-71.480	800.000	-0.073	-0.292
-70.465	-200.000	-0.034	0.306
-69.451	174.602	0.017	0.025
-68.436	-200.000	-0.030	0.135
-67.422	-107.293	0.253	0.055
-66.407	66.944	-0.028	-0.028
-65.392	-135.992	-0.124	-0.014
-64.378	-200.000	0.008	0.093
-63.363	2.886	0.136	0.097
-62.349	426.530	0.195	0.414
-61.334	120.442	-0.834	-1.019
-60.319	800.000	0.203	0.679
-59.305	800.000	-0.250	-0.713
-58.290	105.802	0.936	1.088
-57.276	326.394	0.825	1.554
-56.261	-200.000	95.012	548.226
-55.246	494.287	1431.593	3230.313
-54.232	149.469	2634.119	3506.933
-53.217	103.714	2335.532	2696.186
-52.203	41.753	1947.773	1735.274
-51.188	35.626	1734.282	1497.452
-50.173	32.937	1689.542	1438.317
-49.159	49.921	1733.894	1607.324
-48.144	51.715	1750.520	1636.494
-47.130	35.259	1712.949	1475.977
-46.115	32.578	1697.839	1442.398
-45.100	32.396	1692.933	1436.790
-44.086	32.359	1690.153	1434.088
-43.071	32.367	1687.394	1431.748
-42.057	32.273	1685.517	1429.390
-41.042	32.330	1683.348	1427.925
-40.027	32.360	1681.363	1426.407
-39.013	32.255	1679.262	1423.777
-37.998	32.168	1678.197	1422.156
-36.984	32.358	1676.136	1421.792
-35.969	32.463	1674.964	1421.533
-34.954	32.474	1673.293	1420.144
-33.940	32.464	1671.719	1418.675
-32.925	32.435	1669.571	1416.578
-31.911	32.483	1667.946	1415.503
-30.896	32.429	1666.266	1413.617
-29.881	32.464	1664.582	1412.393
-28.867	32.378	1662.947	1410.304
-27.852	32.441	1661.429	1409.437
-26.838	32.430	1659.882	1407.983
-25.823	32.466	1658.561	1407.075
-24.809	32.553	1656.942	1406.297
-23.794	32.420	1655.986	1404.435
-22.779	32.376	1654.508	1402.803
-21.765	32.390	1652.893	1401.476
-20.750	32.461	1650.373	1399.815
-19.736	32.450	1649.490	1398.929
-18.721	32.428	1648.214	1397.624
-17.706	32.498	1646.373	1396.529
-16.692	32.485	1644.759	1395.013
-15.677	32.541	1643.198	1394.048
-14.663	32.379	1642.079	1391.842
-13.648	32.499	1640.685	1391.490
-12.633	32.421	1639.244	1389.635
-11.619	32.435	1637.901	1388.545
-10.604	32.429	1636.418	1387.191
-9.590	32.424	1634.671	1385.616
-8.575	32.438	1633.609	1384.768
-7.560	32.436	1632.489	1383.751
-6.546	32.394	1631.579	1382.613
-5.531	32.419	1629.968	1381.373
-4.517	32.454	1628.498	1380.331
-3.502	32.463	1627.592	1379.578
-2.487	32.538	1625.891	1378.624
-1.473	32.586	1614.630	1369.371
-0.458	30.480	1596.258	1338.587
0.556	25.608	1596.337	1306.854
1.571	22.866	1619.708	1305.625
2.586	21.876	1631.641	1307.755
3.600	19.359	1577.071	1245.740
4.615	10.860	1462.909	1098.270
5.629	2.365	1395.031	992.296
6.644	0.653	1386.388	975.019
7.659	0.508	1385.178	973.146
8.673	0.538	1383.817	972.297
9.688	0.421	1382.396	970.461
10.702	0.316	1378.909	967.249
11.717	4.000	1384.971	995.133
12.731	12.618	1398.509	1060.514
13.746	17.273	1404.710	1095.184
14.761	17.274	1402.899	1093.685
15.775	16.534	1400.808	1087.203
16.790	15.448	1398.311	1078.197
17.804	14.693	1395.944	1071.431
18.819	14.253	1394.847	1067.674
19.834	13.982	1393.033	1064.451
20.848	13.643	1392.160	1061.524
21.863	13.441	1390.971	1059.230
22.877	13.365	1389.394	1057.447
23.892	13.197	1388.604	1055.679
24.907	13.250	1387.992	1055.462
25.921	13.280	1387.047	1054.836
26.936	13.374	1385.800	1054.400
27.950	13.352	1384.760	1053.373
28.965	13.455	1383.683	1053.117
29.980	13.534	1382.674	1052.758
30.994	13.499	1382.056	1051.973
32.009	13.552	1381.177	1051.543
33.023	13.608	1379.765	1050.731
34.038	13.443	1378.776	1048.840
35.053	13.520	1377.702	1048.418
36.067	13.455	1376.322	1046.864
37.082	13.301	1376.084	1045.617
38.096	13.452	1374.218	1045.061
39.111	13.451	1373.782	1044.626
40.126	13.359	1373.415	1043.674
41.140	13.240	1372.421	1042.082
42.155	13.295	1372.018	1042.026
43.169	13.313	1371.468	1041.628
44.184	13.390	1370.451	1041.251
45.199	13.343	1370.698	1041.049
46.213	13.308	1370.201	1040.359
47.228	13.426	1369.034	1040.123
48.242	13.413	1368.133	1039.268
49.257	13.363	1366.470	1037.599
50.271	13.336	1365.508	1036.608
51.286	13.400	1363.908	1035.700
52.301	13.432	1362.705	1034.897
53.315	13.379	1361.830	1033.809
54.330	13.249	1360.712	1032.053
55.344	13.399	1358.875	1031.503
56.359	13.324	1358.058	1030.328
57.374	13.257	1357.637	1029.500
58.388	13.182	1356.707	1028.234
59.403	13.319	1356.041	1028.495
60.417	13.139	1355.955	1027.217
61.432	13.151	1354.796	1026.323
62.447	13.147	1353.769	1025.432
63.461	13.158	1352.113	1024.153
64.476	13.319	1351.039	1024.248
65.490	13.270	1349.591	1022.753
66.505	13.228	1348.252	1021.389
67.520	13.255	1346.874	1020.422
68.534	13.175	1345.805	1019.031
69.549	13.278	1344.971	1018.943
70.563	13.197	1343.958	1017.584
71.578	13.134	1342.821	1016.245
72.593	13.200	1341.710	1015.721
73.607	13.127	1341.056	1014.687
74.622	13.156	1339.743	1013.784
75.636	13.172	1339.447	1013.568
76.651	13.174	1338.640	1012.878
77.666	13.190	1337.917	1012.338
78.680	13.085	1337.750	1011.481
79.695	13.144	1336.657	1010.928
80.709	13.218	1335.554	1010.454
81.724	13.309	1334.417	1010.062
82.739	13.304	1333.770	1009.452
83.753	13.345	1332.966	1009.004
84.768	13.300	1332.239	1008.090
85.782	13.417	1330.530	1007.421
86.797	13.289	1329.832	1006.025
87.812	13.326	1328.609	1005.231
88.826	13.327	1327.298	1004.161
89.841	13.263	1326.555	1003.119
90.855	13.500	1324.883	1003.201
91.870	13.298	1324.939	1001.936
92.884	13.473	1323.396	1001.736
93.899	13.410	1322.729	1000.764
94.914	13.530	1321.818	1000.710
95.928	13.414	1321.314	999.539
96.943	13.486	1319.702	998.665
97.957	13.439	1319.307	997.993
98.972	13.425	1318.218	996.998
99.987	13.430	1316.925	995.963
101.001	13.457	1316.012	995.346
102.016	13.409	1315.036	994.231
103.030	13.395	1314.272	993.481
104.045	13.503	1312.837	992.954
105.060	13.415	1311.579	991.391
106.074	13.336	1310.700	990.164
107.089	13.289	1309.038	988.542
108.103	13.323	1308.225	988.041
109.118	13.325	1306.541	986.695
110.133	13.265	1305.742	985.647
111.147	13.314	1304.110	984.622
112.162	13.338	1303.432	984.166
113.176	13.434	1301.709	983.344
114.191	13.364	1301.037	982.336
115.206	13.282	1300.486	981.348
116.220	13.296	1299.079	980.283
117.235	13.319	1297.900	979.441
118.249	13.354	1296.442	978.460
119.264	13.281	1295.841	977.488
120.279	13.377	1294.608	977.037
121.293	13.365	1293.630	976.144
122.308	13.353	1292.611	975.217
123.322	13.230	1291.927	973.888
124.337	13.208	1290.994	972.974
125.352	13.343	1289.082	972.237
126.366	13.277	1288.066	970.997
127.381	13.241	1287.251	970.084
128.395	13.257	1286.172	969.281
129.410	13.293	1285.240	968.706
130.424	13.353	1284.381	968.323
131.439	13.494	1283.111	968.102
132.454	13.357	1282.311	966.611
133.468	13.434	1281.512	966.378
134.483	13.423	1281.032	965.866
135.497	13.372	1279.971	964.680
136.512	13.244	1278.811	962.978
137.527	13.360	1276.954	962.168
138.541	13.483	1275.330	961.574
139.556	13.415	1274.524	960.484
140.570	13.448	1273.275	959.649
141.585	13.549	1272.248	959.374
142.600	13.545	1270.883	958.242
143.614	13.559	1269.933	957.521
144.629	13.524	1268.843	956.413
145.643	13.511	1267.987	955.604
146.658	13.539	1266.340	954.443
147.673	13.484	1265.225	953.199
148.687	13.399	1263.815	951.562
149.702	13.459	1262.282	950.672
150.716	13.506	1261.079	949.949
151.731	13.436	1260.032	948.678
152.746	13.488	1258.458	947.705
153.760	13.514	1257.304	946.899
154.775	13.541	1256.066	946.038
155.789	13.513	1255.578	945.427
156.804	13.521	1254.130	944.299
157.819	13.504	1253.207	943.425
158.833	13.521	1252.177	942.659
159.848	13.663	1251.140	942.608
160.862	13.685	1249.832	941.660
161.877	13.677	1248.547	940.566
162.892	13.567	1247.790	939.288
163.906	13.606	1246.691	938.599
164.921	13.563	1245.985	937.739
165.935	13.627	1244.956	937.245
166.950	13.624	1244.268	936.628
167.964	13.642	1243.433	936.016
168.979	13.627	1242.728	935.321
169.994	13.700	1242.135	935.201
171.008	13.679	1241.432	934.469
172.023	13.721	1240.403	933.853
173.037	13.837	1239.602	933.819
174.052	13.735	1238.708	932.486
175.067	13.779	1237.462	931.712
176.081	13.706	1236.811	930.732
177.096	13.783	1235.671	930.224
178.110	13.676	1234.829	928.908
179.125	13.573	1233.910	927.555
180.140	13.701	1232.434	927.079
181.154	13.869	1230.513	926.491
182.169	13.808	1229.552	925.349
183.183	13.833	1228.636	924.717
184.198	13.853	1227.379	923.798
185.213	13.950	1225.942	923.176
186.227	13.948	1225.082	922.432
187.242	13.896	1224.405	921.554
188.256	13.965	1223.349	921.060
189.271	13.980	1222.302	920.274
190.286	13.888	1221.163	918.828
191.300	13.712	1220.789	917.491
192.315	13.819	1219.783	917.242
193.329	13.771	1219.051	916.348
194.344	13.877	1218.257	916.256
195.359	13.870	1217.553	915.605
196.373	13.921	1217.229	915.561
197.388	14.071	1216.582	915.820
198.402	14.069	1216.079	915.351
199.417	14.071	1215.429	914.789
200.432	14.072	1214.825	914.257
201.446	14.118	1214.143	913.920
202.461	14.292	1213.005	913.938
203.475	14.127	1212.171	912.322
204.490	14.211	1210.401	911.367
205.504	14.166	1209.531	910.387
206.519	14.102	1208.176	908.938
207.534	14.144	1206.987	908.191
208.548	14.094	1206.278	907.304
209.563	14.245	1205.308	907.316
210.577	14.182	1204.480	906.269
211.592	14.282	1203.271	905.826
212.607	14.266	1202.823	905.320
213.621	14.345	1202.079	905.111
214.636	14.304	1200.830	903.868
215.650	14.241	1200.237	903.000
216.665	14.350	1199.265	902.780
217.680	14.423	1197.710	901.926
218.694	14.281	1197.543	900.950
219.709	14.368	1196.748	900.743
220.723	14.332	1196.399	900.205
221.738	14.363	1195.525	899.635
222.753	14.412	1194.502	899.049
223.767	14.474	1193.584	898.614
224.782	14.459	1193.414	898.326
225.796	14.427	1192.539	897.416
226.811	14.433	1191.872	896.866
227.826	14.424	1191.386	896.374
228.840	14.447	1190.710	895.906
229.855	14.453	1190.095	895.399
230.869	14.524	1188.724	894.669
231.884	14.458	1188.074	893.748
232.899	14.470	1187.240	893.102
233.913	14.485	1186.787	892.765
234.928	14.404	1185.996	891.658
235.942	14.552	1185.060	891.664
236.957	14.575	1184.222	891.081
237.972	14.471	1183.500	889.900
238.986	14.503	1182.692	889.389
240.001	14.549	1182.350	889.296
241.015	14.581	1181.310	888.606
242.030	14.606	1180.081	887.736
243.045	14.701	1179.745	887.908
244.059	14.656	1178.843	886.913
245.074	14.654	1177.967	886.163
246.088	14.717	1177.154	885.808
247.103	14.638	1176.525	884.839
248.117	14.781	1175.659	884.864
249.132	14.870	1174.907	884.690
250.147	14.859	1174.427	884.196
251.161	14.964	1173.294	883.819
252.176	14.946	1172.663	883.171
253.190	14.975	1172.037	882.772
254.205	14.886	1171.792	882.041
255.220	15.012	1171.325	882.274
256.234	15.010	1170.454	881.532
257.249	15.007	1170.011	881.105
258.263	14.950	1169.397	880.264
259.278	14.988	1168.282	879.548
260.293	15.060	1167.631	879.355
261.307	15.061	1167.206	878.963
262.322	15.093	1166.301	878.372
263.336	15.079	1166.164	878.118
264.351	15.076	1165.487	877.512
265.366	15.125	1164.652	877.067
266.380	15.141	1163.818	876.441
267.395	15.031	1163.203	875.327
268.409	15.185	1162.216	875.311
269.424	15.138	1161.597	874.523
270.439	15.063	1161.094	873.674
271.453	15.149	1160.375	873.504
272.468	15.198	1159.592	873.094
273.482	15.094	1159.024	872.045
274.497	15.246	1158.248	872.175
275.512	15.316	1157.157	871.642
276.526	15.231	1156.756	870.823
277.541	15.250	1155.854	870.164
278.555	15.103	1155.750	869.245
279.570	15.265	1154.948	869.403
280.585	15.290	1153.816	868.606
281.599	15.349	1152.540	867.875
282.614	15.376	1151.512	867.162
283.628	15.299	1150.548	865.960
284.643	15.330	1149.570	865.310
285.657	15.398	1148.643	864.884
286.672	15.440	1148.150	864.654
287.687	15.436	1147.314	863.927
288.701	15.435	1146.237	863.035
289.716	15.392	1145.854	862.450
290.730	15.429	1144.942	861.877
291.745	15.555	1144.124	861.833
292.760	15.328	1143.754	860.314
293.774	15.490	1143.103	860.575
294.789	15.569	1142.504	860.452
295.803	15.663	1141.941	860.436
296.818	15.671	1140.984	859.680
297.833	15.701	1139.913	858.947
298.847	15.525	1139.424	857.607
299.862	15.673	1138.384	857.504
300.876	15.551	1138.034	856.542
301.891	15.570	1137.508	856.163
302.906	15.665	1136.656	855.932
303.920	15.627	1136.001	855.169
304.935	15.745	1134.973	854.918
305.949	15.805	1134.577	854.853
306.964	15.823	1133.802	854.283
307.979	15.708	1133.305	853.248
308.993	15.685	1133.068	852.876
310.008	15.850	1131.435	852.412
311.022	15.854	1130.673	851.780
312.037	15.768	1129.881	850.673
313.052	15.721	1129.139	849.803
314.066	15.782	1128.018	849.191
315.081	15.787	1127.108	848.455
316.095	15.801	1126.130	847.714
317.110	15.825	1125.900	847.587
318.125	15.811	1125.083	846.829
319.139	15.766	1124.508	846.093
320.154	15.785	1123.913	845.666
321.168	15.891	1122.984	845.426
322.183	15.722	1122.353	844.026
323.197	15.814	1121.947	844.111
324.212	15.865	1121.006	843.582
325.227	15.984	1120.279	843.554
326.241	15.949	1119.734	842.896
327.256	16.046	1119.055	842.795
328.270	15.971	1118.152	841.667
329.285	15.965	1117.102	840.772
330.300	15.943	1116.091	839.827
331.314	15.909	1115.356	839.028
332.329	15.915	1114.536	838.368
333.343	16.079	1113.757	838.524
334.358	15.930	1113.003	837.143
335.373	16.085	1111.959	837.054
336.387	16.010	1111.317	836.121
337.402	16.132	1110.289	835.879
338.416	16.190	1110.020	835.890
339.431	16.154	1109.578	835.303
340.446	16.144	1108.194	834.138
341.460	16.184	1107.859	834.011
342.475	16.200	1107.292	833.589
343.489	16.279	1105.906	832.864
344.504	16.391	1105.081	832.719
345.519	16.421	1103.938	831.933
346.533	16.513	1103.402	831.910
347.548	16.361	1103.023	830.800
348.562	16.360	1101.776	829.784
349.577	16.396	1101.194	829.448
350.592	16.400	1100.455	828.836
351.606	16.377	1099.764	828.129
352.621	16.280	1099.328	827.254
353.635	16.257	1098.755	826.639
354.650	16.377	1097.800	826.431
355.665	16.240	1097.245	825.271
356.679	16.291	1096.772	825.090
357.694	16.354	1096.211	824.904
358.708	16.399	1095.215	824.302
359.723	16.401	1094.432	823.647
360.738	16.620	1093.773	824.146
361.752	16.679	1093.272	823.986
362.767	16.425	1092.843	822.354
363.781	16.534	1092.333	822.425
364.796	16.561	1091.472	821.838
365.810	16.574	1090.856	821.364
366.825	16.555	1090.409	820.863
367.840	16.630	1089.987	820.836
368.854	16.791	1088.843	820.680
369.869	16.616	1088.451	819.464
370.883	16.754	1087.395	819.263
371.898	16.720	1086.735	818.531
372.913	16.654	1086.108	817.668
373.927	16.719	1085.753	817.640
374.942	16.712	1085.291	817.186
375.956	16.739	1084.423	816.589
376.971	16.848	1083.923	816.667
377.986	16.890	1083.326	816.349
379.000	16.844	1082.825	815.679
380.015	16.925	1082.361	815.647
381.029	16.925	1081.894	815.221
382.044	16.938	1080.850	814.422
383.059	16.959	1080.083	813.877
384.073	16.934	1079.296	813.088
385.088	16.951	1078.428	812.448
386.102	17.095	1077.310	812.219
387.117	16.938	1076.482	810.773
388.132	16.788	1075.902	809.549
389.146	16.888	1074.935	809.229
390.161	17.048	1073.981	809.202
391.175	16.849	1073.234	807.617
392.190	16.998	1072.694	807.848
393.205	16.996	1071.737	807.046
394.219	16.995	1070.989	806.409
395.234	16.978	1070.244	805.697
396.248	16.930	1069.216	804.625
397.263	16.921	1068.358	803.861
398.278	16.945	1067.611	803.344
399.292	16.950	1066.979	802.820
400.307	17.042	1066.245	802.634
401.321	17.038	1065.469	801.958
402.336	17.053	1064.897	801.529
403.350	17.182	1063.940	801.347
404.365	16.971	1063.712	800.106
405.380	17.036	1062.923	799.749
406.394	17.077	1062.326	799.422
407.409	17.268	1061.212	799.413
408.423	17.103	1060.760	798.226
409.438	17.116	1060.149	797.753
410.453	17.236	1059.322	797.626
411.467	17.275	1058.253	796.931
412.482	17.288	1057.812	796.591
413.496	17.439	1056.968	796.595
414.511	17.410	1056.315	795.894
415.526	17.369	1056.374	795.675
416.540	17.463	1055.586	795.450
417.555	17.479	1054.630	794.737
418.569	17.533	1054.251	794.632
419.584	17.405	1053.945	793.734
420.599	17.424	1053.837	793.669
421.613	101.324	1321.426	1458.940
422.628	93.332	1360.396	1459.055
