DTS Sentinel unit serial number:	SN413079Multiplexer serial number:	ORYXHardware model number:	OX4-SRSoftware version number:	ORYX F/W v4.00 Oryx Data Collector v3.7.2.0data status	okinstallation	princeton_trtdifferential loss correction	single-endedforward channel	channel 2reverse channel	N/Adate	2019/09/15time	01:35:35forward acquisition time	60.00reverse acquisition time	0.00gamma	496.2192k internal	0.2325k external	0.2325temperature offset calibration	1.0036default loss term (dB/km)	0.3790temperature slope calibration	1.0000multiplexer offset coefficient	1.0000multiplexer slope coefficient	1.0000fibre end	0.00T internal ref (°C)	31.87T ext. ref 1 (°C)	4.53T ext. ref 2 (°C)	26.75length (m)	temperature (°C)	Stokes	anti-Stokes-747.200	-69.076	-0.115	0.045
-746.185	-200.000	0.017	0.100
-745.171	-99.917	0.218	0.055
-744.156	-162.903	-0.402	-0.020
-743.142	80.287	-0.238	0.258
-742.127	800.000	-0.047	0.171
-741.112	103.717	0.051	0.060
-740.098	281.454	-0.099	-0.179
-739.083	-78.709	-0.138	-0.048
-738.069	394.333	0.127	0.266
-737.054	-13.924	-0.230	0.150
-736.039	800.000	0.049	-0.175
-735.025	262.672	0.131	0.230
-734.010	800.000	0.028	0.100
-732.996	123.698	-0.216	-0.273
-731.981	-200.000	-0.039	-0.221
-730.966	-75.055	-0.178	-0.064
-729.952	-200.000	-0.039	0.280
-728.937	53.723	-0.187	-0.181
-727.923	625.225	0.020	0.050
-726.908	306.774	-0.187	-0.351
-725.894	-53.663	0.444	-0.204
-724.879	-200.000	0.017	-0.217
-723.864	97.133	0.129	-0.149
-722.850	-37.204	0.215	-0.116
-721.835	-85.139	0.180	0.057
-720.821	104.061	0.027	-0.032
-719.806	-14.971	0.205	-0.132
-718.791	88.211	-0.112	0.125
-717.777	-46.455	-0.204	-0.101
-716.762	-200.000	-0.012	-0.257
-715.748	-200.000	-0.036	-0.216
-714.733	-2.084	0.275	-0.195
-713.718	42.403	0.145	0.132
-712.704	-200.000	0.039	0.198
-711.689	184.088	0.170	-0.253
-710.675	-49.337	0.114	-0.055
-709.660	33.222	0.098	-0.085
-708.645	-90.768	-0.288	-0.084
-707.631	-120.476	-0.111	-0.019
-706.616	22.191	0.392	-0.323
-705.602	-36.549	0.256	-0.139
-704.587	329.733	0.051	-0.098
-703.572	83.221	0.028	0.031
-702.558	800.000	-0.134	-0.451
-701.543	-200.000	0.020	-0.385
-700.529	-200.000	0.010	-0.229
-699.514	-131.048	-0.226	0.030
-698.499	180.608	-0.035	0.052
-697.485	-77.592	0.276	0.096
-696.470	-65.002	-0.109	-0.044
-695.456	-200.000	-0.002	0.155
-694.441	461.351	-0.087	-0.196
-693.426	-200.000	-0.037	0.188
-692.412	-83.132	0.118	-0.038
-691.397	64.300	0.184	-0.186
-690.383	-167.040	0.155	0.006
-689.368	41.229	0.231	-0.210
-688.354	89.095	0.100	0.112
-687.339	460.818	-0.167	-0.375
-686.324	800.000	-0.050	-0.165
-685.310	-74.862	0.457	0.165
-684.295	12.332	-0.194	0.151
-683.281	-145.940	-0.344	-0.031
-682.266	-200.000	0.027	-0.305
-681.251	304.509	0.085	0.158
-680.237	142.990	0.037	-0.050
-679.222	-34.591	0.216	-0.119
-678.208	-103.742	-0.386	0.091
-677.193	-55.465	0.270	0.122
-676.178	-18.522	-0.210	-0.132
-675.164	65.035	-0.196	-0.199
-674.149	-180.216	0.175	0.004
-673.135	-200.000	0.041	-0.313
-672.120	111.103	-0.206	0.250
-671.105	2.226	0.127	-0.092
-670.091	-200.000	-0.029	0.131
-669.076	546.854	-0.137	-0.331
-668.062	-73.087	0.254	0.094
-667.047	-96.168	-0.446	0.119
-666.032	-76.388	-0.077	-0.027
-665.018	-181.957	-0.149	0.003
-664.003	-62.645	0.359	0.150
-662.989	563.716	-0.049	-0.118
-661.974	311.051	-0.237	-0.446
-660.959	-126.395	-0.100	-0.015
-659.945	18.836	-0.023	0.019
-658.930	-200.000	-0.006	0.077
-657.916	-100.526	-0.294	0.073
-656.901	-32.100	-0.535	0.301
-655.886	44.542	0.339	0.313
-654.872	549.837	-0.048	-0.116
-653.857	270.859	-0.135	-0.238
-652.843	-46.769	0.140	-0.069
-651.828	18.945	-0.022	-0.017
-650.814	212.714	0.081	-0.129
-649.799	-129.948	-0.110	-0.015
-648.784	-67.830	0.162	0.063
-647.770	66.127	-0.161	-0.164
-646.755	97.429	-0.062	0.072
-645.741	-200.000	0.017	0.125
-644.726	-17.139	0.081	-0.052
-643.711	-198.809	-0.211	0.001
-642.697	-200.000	-0.014	0.077
-641.682	96.402	0.092	-0.105
-640.668	-8.389	0.048	0.033
-639.653	800.000	0.065	-0.260
-638.638	-107.939	-0.065	0.014
-637.624	45.618	-0.029	-0.027
-636.609	-200.000	0.017	0.107
-635.595	-30.291	0.164	0.094
-634.580	210.786	0.121	-0.191
-633.565	-12.328	-0.163	0.107
-632.551	11.523	-0.083	-0.064
-631.536	91.040	0.150	-0.169
-630.522	208.347	0.102	0.161
-629.507	800.000	0.033	-0.129
-628.492	800.000	-0.069	0.242
-627.478	46.767	-0.014	-0.013
-626.463	139.530	0.152	-0.201
-625.449	-200.000	-0.489	0.002
-624.434	79.769	-0.192	-0.207
-623.419	259.752	0.065	-0.112
-622.405	-67.606	-0.041	-0.016
-621.390	118.142	-0.076	0.094
-620.376	154.230	0.211	0.291
-619.361	105.248	-0.118	-0.140
-618.346	-133.801	-0.203	-0.025
-617.332	-51.661	0.222	-0.104
-616.317	-81.508	-0.343	0.113
-615.303	5.143	0.111	-0.082
-614.288	-37.087	-0.207	-0.111
-613.273	-200.000	-0.037	0.203
-612.259	108.809	0.197	0.237
-611.244	-170.034	-0.461	-0.016
-610.230	346.062	-0.058	-0.115
-609.215	-82.560	-0.044	-0.014
-608.201	6.459	-0.155	0.116
-607.186	3.817	0.134	-0.098
-606.171	-37.208	0.122	0.066
-605.157	-27.459	0.303	-0.177
-604.142	6.987	-0.105	-0.078
-603.128	748.854	0.058	-0.156
-602.113	-50.656	0.041	-0.019
-601.098	-87.567	-0.155	-0.047
-600.084	-200.000	-0.033	-0.236
-599.069	-172.471	0.178	-0.006
-598.055	53.320	-0.182	-0.175
-597.040	-28.781	-0.066	0.038
-596.025	179.514	-0.278	0.409
-595.011	436.088	-0.101	0.220
-593.996	-66.907	0.202	-0.080
-592.982	-200.000	-0.025	0.366
-591.967	331.854	0.090	0.174
-590.952	-200.000	0.052	0.322
-589.938	313.061	-0.066	0.124
-588.923	800.000	0.148	0.430
-587.909	800.000	-0.059	0.242
-586.894	-200.000	-0.055	0.370
-585.879	-163.169	-0.136	0.007
-584.865	17.837	0.192	-0.154
-583.850	-163.884	0.139	-0.007
-582.836	-152.979	-0.088	-0.006
-581.821	-101.543	0.374	0.091
-580.806	-200.000	-0.002	-0.219
-579.792	-142.481	-0.235	0.023
-578.777	-84.057	-0.264	0.084
-577.763	-200.000	-0.027	-0.181
-576.748	17.701	0.172	-0.137
-575.733	-130.791	-0.364	0.049
-574.719	109.039	-0.176	-0.211
-573.704	22.733	-0.207	0.170
-572.690	42.198	0.343	-0.312
-571.675	-200.000	-0.009	0.166
-570.661	-200.000	-0.063	-0.325
-569.646	800.000	0.026	0.102
-568.631	800.000	-0.105	0.352
-567.617	450.152	-0.088	0.194
-566.602	-113.821	-0.075	-0.015
-565.588	800.000	-0.143	-0.407
-564.573	-200.000	0.007	-0.052
-563.558	523.527	0.096	-0.226
-562.544	-83.388	0.144	-0.046
-561.529	34.525	-0.268	0.234
-560.515	800.000	0.050	-0.188
-559.500	506.686	-0.041	-0.094
-558.485	-60.987	0.179	-0.076
-557.471	-66.497	-0.319	0.127
-556.456	199.332	-0.115	0.177
-555.442	101.673	0.160	0.186
-554.427	208.722	-0.176	0.276
-553.412	-182.604	-0.188	0.003
-552.398	67.182	-0.025	0.026
-551.383	-88.386	0.078	-0.023
-550.369	-40.089	0.158	-0.083
-549.354	-147.407	0.337	-0.029
-548.339	1.007	-0.138	0.099
-547.325	222.743	-0.197	0.318
-546.310	102.197	0.045	0.052
-545.296	112.292	0.103	-0.125
-544.281	-200.000	-0.046	-0.251
-543.266	-97.295	-0.343	0.089
-542.252	350.545	-0.069	-0.136
-541.237	23.233	-0.138	0.114
-540.223	129.982	-0.077	-0.099
-539.208	83.580	0.059	-0.064
-538.193	-36.609	0.155	-0.083
-537.179	-141.478	-0.027	0.003
-536.164	-78.260	0.342	-0.118
-535.150	202.976	-0.051	0.078
-534.135	-88.946	-0.427	0.127
-533.121	-200.000	0.335	-0.000
-532.106	-61.190	0.237	-0.100
-531.091	479.373	-0.104	0.235
-530.077	678.726	0.186	-0.485
-529.062	-200.000	-0.017	0.117
-528.048	-138.963	-0.232	-0.025
-527.033	173.702	0.066	-0.095
-526.018	800.000	0.071	0.280
-525.004	800.000	-0.066	-0.214
-523.989	-200.000	0.017	-0.178
-522.975	-200.000	0.032	0.226
-521.960	13.133	0.322	-0.250
-520.945	100.159	-0.069	-0.080
-519.931	51.591	0.119	0.114
-518.916	800.000	-0.106	0.336
-517.902	-46.578	0.174	0.086
-516.887	60.924	0.166	-0.165
-515.872	260.971	0.203	0.350
-514.858	-200.000	-0.065	-0.307
-513.843	-200.000	0.007	0.162
-512.829	18.266	-0.273	0.218
-511.814	573.185	-0.159	0.388
-510.799	800.000	-0.127	-0.365
-509.785	-92.021	-0.153	-0.043
-508.770	1.959	-0.109	0.078
-507.756	-90.925	-0.486	0.140
-506.741	472.596	0.063	0.141
-505.726	-200.000	0.024	0.148
-504.712	-200.000	0.008	-0.139
-503.697	-76.350	0.238	0.084
-502.683	-102.930	0.404	-0.096
-501.668	4.730	-0.228	0.168
-500.653	-13.318	0.003	0.002
-499.639	98.104	-0.144	-0.165
-498.624	-90.563	-0.067	0.019
-497.610	-111.843	-0.198	-0.040
-496.595	-155.192	-0.075	0.005
-495.581	-40.164	0.081	0.042
-494.566	317.204	-0.019	0.036
-493.551	15.585	0.012	-0.010
-492.537	-176.868	-0.416	-0.011
-491.522	-200.000	0.012	0.196
-490.508	-59.617	0.087	0.037
-489.493	-20.338	0.134	0.082
-488.478	45.297	-0.189	-0.174
-487.464	240.408	-0.050	-0.084
-486.449	-121.708	0.301	-0.050
-485.435	800.000	0.026	-0.114
-484.420	424.122	-0.044	-0.094
-483.405	320.105	0.130	-0.246
-482.391	-47.880	0.144	-0.070
-481.376	-200.000	-0.009	0.212
-480.362	-161.821	0.234	0.012
-479.347	-200.000	0.031	0.171
-478.332	-89.802	0.346	-0.101
-477.318	20.190	0.050	0.040
-476.303	-134.581	0.069	-0.008
-475.289	45.665	-0.060	0.055
-474.274	-23.837	0.233	-0.139
-473.259	-68.035	0.214	0.083
-472.245	-127.700	-0.190	0.027
-471.230	106.071	-0.292	0.346
-470.216	231.036	0.120	-0.197
-469.201	103.867	0.045	-0.053
-468.186	800.000	0.082	-0.247
-467.172	781.227	-0.096	-0.262
-466.157	-92.916	-0.196	-0.055
-465.143	35.751	-0.175	-0.154
-464.128	800.000	0.021	-0.079
-463.113	-29.792	0.126	0.072
-462.099	-137.426	0.328	0.037
-461.084	-200.000	-0.011	0.207
-460.070	235.382	0.097	-0.160
-459.055	-162.580	0.145	0.007
-458.040	-43.848	-0.074	0.037
-457.026	-109.193	-0.102	-0.022
-456.011	616.068	0.081	-0.203
-454.997	35.427	-0.016	-0.014
-453.982	-96.791	-0.190	0.050
-452.968	-57.573	-0.143	-0.063
-451.953	-200.000	0.003	-0.216
-450.938	-200.000	0.047	-0.285
-449.924	-200.000	-0.029	0.305
-448.909	-46.862	-0.465	0.227
-447.895	-56.442	0.140	0.062
-446.880	71.180	-0.168	0.174
-445.865	286.655	-0.115	-0.207
-444.851	798.284	0.050	-0.138
-443.836	-77.670	-0.082	-0.028
-442.822	-168.154	0.230	0.009
-441.807	33.913	-0.049	-0.042
-440.792	-45.862	0.350	0.172
-439.778	382.500	-0.159	0.325
-438.763	94.557	-0.154	-0.174
-437.749	-200.000	0.027	0.192
-436.734	-28.765	0.086	0.049
-435.719	-119.647	0.343	-0.059
-434.705	-100.271	0.110	-0.027
-433.690	443.836	-0.201	-0.439
-432.676	745.114	-0.113	0.302
-431.661	343.289	0.160	0.313
-430.646	-82.595	0.289	-0.093
-429.632	531.425	0.072	-0.171
-428.617	45.582	-0.127	-0.117
-427.603	800.000	0.035	0.117
-426.588	88.274	0.193	-0.214
-425.573	-143.380	0.141	-0.013
-424.559	229.912	-0.145	-0.236
-423.544	-46.897	-0.219	-0.107
-422.530	-17.659	0.227	0.142
-421.515	127.053	-0.049	-0.062
-420.500	473.466	-0.029	0.065
-419.486	232.962	0.070	0.115
-418.471	703.517	-0.167	0.439
-417.457	-200.000	-0.065	0.285
-416.442	385.903	0.170	0.350
-415.428	-88.038	0.372	-0.111
-414.413	6.999	0.142	0.105
-413.398	-28.157	0.375	-0.216
-412.384	-83.611	-0.155	-0.049
-411.369	800.000	-0.045	-0.129
-410.355	103.349	0.143	-0.167
-409.340	800.000	0.131	0.464
-408.325	-118.351	0.082	0.015
-407.311	-200.000	-0.053	-0.357
-406.296	129.283	0.063	-0.080
-405.282	135.414	0.076	0.098
-404.267	36.730	-0.186	-0.164
-403.252	174.663	0.124	-0.178
-402.238	54.209	0.044	-0.042
-401.223	-200.000	-0.049	0.411
-400.209	58.055	-0.061	-0.059
-399.194	-122.882	0.411	-0.066
-398.179	-112.278	0.074	-0.015
-397.165	-40.476	0.114	-0.059
-396.150	-86.803	0.333	0.101
-395.136	17.104	0.134	-0.106
-394.121	-33.036	0.086	0.047
-393.106	157.922	0.052	0.072
-392.092	-200.000	0.021	-0.213
-391.077	-200.000	0.016	-0.219
-390.063	-7.890	-0.161	-0.108
-389.048	-47.297	-0.085	0.041
-388.033	-200.000	-0.023	0.198
-387.019	79.538	-0.097	0.103
-386.004	137.257	0.040	0.051
-384.990	41.714	0.120	-0.108
-383.975	-200.000	-0.025	-0.298
-382.960	14.420	-0.135	-0.105
-381.946	70.405	-0.161	0.166
-380.931	-147.129	-0.072	0.006
-379.917	-84.389	-0.116	-0.036
-378.902	1.870	0.158	0.113
-377.888	-200.000	0.002	0.211
-376.873	140.995	-0.099	-0.130
-375.858	695.389	0.078	0.203
-374.844	-119.331	0.171	0.030
-373.829	18.120	-0.030	-0.023
-372.815	628.777	-0.086	0.217
-371.800	62.290	0.147	-0.146
-370.785	-54.205	-0.143	-0.065
-369.771	-200.000	0.008	-0.058
-368.756	140.499	0.039	-0.052
-367.742	-200.000	0.002	0.335
-366.727	96.653	0.139	-0.159
-365.712	-134.631	0.356	0.043
-364.698	800.000	0.118	-0.324
-363.683	-200.000	0.017	-0.408
-362.669	112.030	0.088	-0.106
-361.654	77.347	-0.253	0.268
-360.639	-14.116	-0.291	-0.186
-359.625	466.418	0.126	0.280
-358.610	436.010	-0.125	-0.271
-357.596	-200.000	0.028	0.124
-356.581	-123.718	-0.339	0.053
-355.566	-101.408	0.260	-0.063
-354.552	40.290	0.096	-0.086
-353.537	51.694	-0.219	-0.207
-352.523	-200.000	-0.010	0.116
-351.508	800.000	0.025	-0.084
-350.493	-172.449	0.292	0.009
-349.479	90.015	-0.074	-0.082
-348.464	-200.000	0.058	-0.360
-347.450	409.048	-0.094	-0.198
-346.435	800.000	0.050	0.145
-345.420	22.468	-0.366	0.297
-344.406	-200.000	-0.021	0.251
-343.391	-200.000	0.015	0.072
-342.377	-123.107	0.070	-0.011
-341.362	284.245	0.117	-0.209
-340.348	406.037	-0.029	-0.060
-339.333	-55.791	0.238	0.106
-338.318	-77.078	-0.340	0.118
-337.304	-200.000	-0.065	0.421
-336.289	376.941	-0.116	0.235
-335.275	-139.294	0.112	0.012
-334.260	607.801	0.036	-0.089
-333.245	216.189	-0.143	0.225
-332.231	675.165	-0.081	0.208
-331.216	-86.817	-0.170	-0.051
-330.202	60.908	-0.304	-0.300
-329.187	226.077	0.093	0.150
-328.172	228.055	-0.056	0.091
-327.158	-160.492	-0.106	0.006
-326.143	393.168	-0.031	0.065
-325.129	51.132	-0.069	0.065
-324.114	-62.526	0.252	0.104
-323.099	451.821	0.127	-0.278
-322.085	-200.000	-0.010	-0.132
-321.070	266.085	-0.052	0.090
-320.056	-164.472	0.050	0.002
-319.041	85.351	0.054	-0.059
-318.026	156.420	0.029	0.040
-317.012	-15.971	-0.289	0.183
-315.997	-200.000	-0.002	-0.251
-314.983	-126.685	-0.178	-0.026
-313.968	-200.000	0.012	0.234
-312.953	-47.954	0.372	0.179
-311.939	-131.499	-0.529	-0.069
-310.924	-166.702	0.050	0.002
-309.910	146.782	-0.073	-0.097
-308.895	-200.000	-0.019	-0.230
-307.880	182.588	-0.105	-0.154
-306.866	430.320	0.103	0.221
-305.851	-200.000	-0.045	0.361
-304.837	-123.927	0.145	0.023
-303.822	-33.211	0.219	-0.121
-302.807	3.049	-0.170	-0.123
-301.793	-93.378	-0.136	0.037
-300.778	156.189	-0.133	0.182
-299.764	59.097	-0.124	-0.121
-298.749	-134.064	-0.270	0.033
-297.735	755.134	-0.048	0.128
-296.720	-67.672	-0.061	0.024
-295.705	800.000	0.107	-0.319
-294.691	39.921	-0.096	0.086
-293.676	-37.612	0.165	-0.087
-292.662	228.089	0.018	-0.029
-291.647	-116.598	-0.372	-0.068
-290.632	-200.000	0.038	-0.331
-289.618	19.981	0.465	0.372
-288.603	15.870	0.193	0.150
-287.589	69.582	-0.178	0.182
-286.574	-53.834	0.104	-0.047
-285.559	707.099	0.110	0.287
-284.545	98.568	-0.100	-0.114
-283.530	-200.000	-0.002	-0.126
-282.516	-88.920	0.515	-0.151
-281.501	-26.057	0.255	-0.149
-280.486	43.258	0.236	-0.213
-279.472	-73.965	-0.313	0.112
-278.457	-200.000	0.036	-0.229
-277.443	800.000	0.060	0.205
-276.428	-57.061	0.339	-0.148
-275.413	195.903	-0.106	0.160
-274.399	-200.000	0.005	0.050
-273.384	-112.855	-0.085	0.017
-272.370	-75.989	0.488	0.171
-271.355	-98.653	0.240	0.061
-270.340	85.023	0.044	-0.048
-269.326	123.336	-0.078	0.097
-268.311	152.720	0.072	-0.097
-267.297	-102.011	-0.209	-0.050
-266.282	-200.000	-0.044	-0.196
-265.267	159.195	0.158	0.218
-264.253	-2.877	0.162	0.112
-263.238	-126.871	-0.305	0.045
-262.224	174.794	-0.193	-0.276
-261.209	-84.745	0.199	-0.062
-260.195	-31.162	-0.145	-0.081
-259.180	-200.000	-0.050	0.304
-258.165	231.278	-0.109	0.177
-257.151	-34.191	0.395	0.215
-256.136	-34.868	-0.197	0.106
-255.122	-92.369	0.266	0.074
-254.107	-200.000	-0.035	0.218
-253.092	-51.377	0.223	-0.103
-252.078	111.182	-0.021	0.025
-251.063	-194.253	-0.205	0.002
-250.049	296.064	-0.113	0.204
-249.034	800.000	-0.090	0.263
-248.019	-126.817	-0.252	-0.037
-247.005	800.000	0.073	-0.255
-245.990	-200.000	0.036	0.479
-244.976	800.000	-0.106	-0.340
-243.961	144.861	0.073	0.096
-242.946	118.163	0.196	-0.239
-241.932	7.707	-0.098	-0.073
-240.917	49.751	-0.241	0.224
-239.903	73.835	-0.199	-0.206
-238.888	-200.000	0.006	-0.126
-237.873	-200.000	-0.001	0.170
-236.859	48.134	0.227	-0.210
-235.844	-131.967	0.207	-0.027
-234.830	800.000	-0.028	-0.082
-233.815	-17.423	0.050	0.031
-232.800	-200.000	0.039	0.291
-231.786	-73.940	-0.188	0.068
-230.771	800.000	0.033	0.130
-229.757	-49.172	-0.209	-0.099
-228.742	-183.761	0.266	0.004
-227.727	-60.031	0.422	-0.178
-226.713	55.399	-0.230	-0.220
-225.698	-66.226	-0.091	-0.036
-224.684	800.000	-0.089	0.312
-223.669	172.988	-0.048	-0.068
-222.655	800.000	0.052	0.172
-221.640	-80.733	0.371	0.122
-220.625	-200.000	-0.004	0.204
-219.611	-110.962	0.197	0.040
-218.596	-200.000	0.031	0.198
-217.582	-78.125	0.271	-0.092
-216.567	461.755	-0.085	-0.188
-215.552	165.221	0.074	0.103
-214.538	-6.418	-0.154	-0.104
-213.523	451.818	0.150	-0.328
-212.509	-35.843	-0.324	-0.173
-211.494	-73.339	0.142	0.051
-210.479	-200.000	0.068	0.455
-209.465	150.401	0.178	0.238
-208.450	121.718	0.116	0.143
-207.436	-37.761	-0.254	0.134
-206.421	25.508	0.182	0.150
-205.406	211.833	-0.136	-0.211
-204.392	800.000	-0.082	0.287
-203.377	473.524	0.096	-0.214
-202.363	-134.555	0.071	-0.009
-201.348	9.283	-0.031	-0.023
-200.333	800.000	-0.039	-0.158
-199.319	800.000	0.084	-0.362
-198.304	-200.000	0.015	0.072
-197.290	-120.840	-0.529	0.088
-196.275	800.000	-0.102	-0.340
-195.260	-200.000	0.008	0.096
-194.246	704.768	0.098	0.255
-193.231	125.881	0.097	0.121
-192.217	800.000	0.056	0.235
-191.202	18.988	-0.265	-0.209
-190.187	142.445	-0.197	-0.258
-189.173	141.845	-0.268	-0.350
-188.158	151.348	0.124	0.166
-187.144	-200.000	-0.006	-0.045
-186.129	458.224	-0.152	0.333
-185.114	30.146	0.023	-0.019
-184.100	-45.782	0.135	0.066
-183.085	-43.449	0.251	0.125
-182.071	-5.378	-0.121	-0.082
-181.056	100.378	-0.201	-0.230
-180.042	-185.697	0.228	-0.003
-179.027	137.938	0.074	-0.096
-178.012	800.000	0.019	0.071
-176.998	-200.000	-0.027	-0.183
-175.983	-200.000	0.048	-0.353
-174.969	-146.066	-0.239	-0.021
-173.954	127.848	-0.084	-0.106
-172.939	-197.974	-0.154	-0.001
-171.925	-200.000	-0.005	-0.487
-170.910	800.000	-0.148	0.462
-169.896	-113.906	0.231	-0.044
-168.881	-200.000	0.025	0.164
-167.866	800.000	-0.053	-0.225
-166.852	-200.000	-0.016	-0.317
-165.837	37.415	0.112	0.098
-164.823	-200.000	0.016	-0.180
-163.808	-117.962	0.106	-0.019
-162.793	-112.938	0.216	0.042
-161.779	-200.000	-0.023	0.102
-160.764	-71.278	-0.082	0.030
-159.750	150.211	-0.163	-0.218
-158.735	-190.726	-0.326	-0.003
-157.720	279.414	-0.176	-0.310
-156.706	-57.814	-0.171	0.074
-155.691	74.009	0.216	-0.223
-154.677	-200.000	-0.001	-0.084
-153.662	-200.000	0.028	-0.525
-152.647	-200.000	-0.027	-0.333
-151.633	-125.828	0.133	0.020
-150.618	-72.711	-0.296	-0.107
-149.604	292.673	0.023	0.041
-148.589	707.270	0.010	0.025
-147.574	56.124	0.271	-0.259
-146.560	8.448	-0.247	-0.183
-145.545	-92.999	-0.296	0.081
-144.531	94.848	0.168	-0.189
-143.516	800.000	0.013	-0.046
-142.502	222.525	0.165	0.262
-141.487	-73.017	0.241	0.087
-140.472	256.350	0.044	-0.075
-139.458	115.632	0.079	-0.095
-138.443	-200.000	0.019	-0.263
-137.429	-45.520	0.062	-0.030
-136.414	129.319	0.098	-0.123
-135.399	120.700	-0.082	0.100
-134.385	800.000	0.028	0.092
-133.370	800.000	-0.036	-0.099
-132.356	-54.750	0.244	0.108
-131.341	8.446	0.244	-0.181
-130.326	437.521	0.086	-0.184
-129.312	296.997	-0.186	0.337
-128.297	-200.000	-0.002	0.140
-127.283	-159.886	0.228	-0.012
-126.268	-92.175	0.121	-0.034
-125.253	26.898	-0.107	-0.088
-124.239	-15.660	0.235	-0.148
-123.224	38.812	0.124	-0.109
-122.210	-200.000	-0.007	-0.225
-121.195	800.000	-0.049	0.177
-120.180	-200.000	0.019	-0.243
-119.166	-105.416	-0.349	-0.078
-118.151	72.875	0.145	-0.149
-117.137	-125.981	0.175	0.026
-116.122	-175.996	0.165	-0.004
-115.107	703.595	0.072	-0.186
-114.093	339.935	0.165	-0.316
-113.078	157.853	-0.073	-0.099
-112.064	27.917	0.148	0.123
-111.049	197.560	0.201	-0.302
-110.034	-200.000	0.006	0.151
-109.020	231.865	0.091	0.147
-108.005	-88.080	0.209	0.062
-106.991	320.015	-0.023	0.042
-105.976	-200.000	-0.047	0.353
-104.962	278.625	-0.131	0.230
-103.947	-200.000	-0.010	0.432
-102.932	274.378	0.241	0.419
-101.918	-96.937	0.242	0.062
-100.903	800.000	0.033	-0.110
-99.889	-34.769	-0.198	0.106
-98.874	-47.367	0.207	0.099
-97.859	96.597	-0.151	0.170
-96.845	85.424	0.382	0.413
-95.830	-88.878	-0.251	-0.073
-94.816	-200.000	0.004	-0.088
-93.801	-131.903	0.718	-0.092
-92.786	-64.886	0.242	-0.096
-91.772	7.516	-0.240	0.177
-90.757	262.143	0.287	0.489
-89.743	-127.912	0.123	0.017
-88.728	734.566	-0.105	-0.275
-87.713	230.397	-0.035	-0.056
-86.699	65.413	0.134	0.134
-85.684	90.967	-0.206	-0.228
-84.670	800.000	0.040	-0.119
-83.655	800.000	-0.029	-0.082
-82.640	237.080	-0.012	0.020
-81.626	27.376	0.069	-0.057
-80.611	397.011	0.034	-0.069
-79.597	800.000	0.086	-0.351
-78.582	-159.417	-0.176	0.010
-77.567	548.212	-0.159	-0.375
-76.553	800.000	-0.013	0.037
-75.538	-71.691	0.196	-0.072
-74.524	-200.000	0.004	0.161
-73.509	118.404	0.229	-0.278
-72.494	-200.000	-0.048	-0.256
-71.480	59.879	-0.202	0.196
-70.465	-16.240	0.277	-0.173
-69.451	-119.506	-0.202	-0.034
-68.436	5.830	-0.253	-0.184
-67.422	-125.786	0.037	0.005
-66.407	800.000	0.067	0.203
-65.392	-109.960	-0.223	0.046
-64.378	79.048	0.169	0.178
-63.363	-6.537	0.085	0.057
-62.349	168.980	-0.008	0.012
-61.334	14.626	-1.227	-0.942
-60.319	-12.533	0.616	0.395
-59.305	800.000	-0.330	-1.068
-58.290	74.815	1.108	1.146
-57.276	800.000	0.457	1.307
-56.261	-200.000	96.185	594.197
-55.246	653.604	1371.741	3455.318
-54.232	198.543	2556.961	3842.242
-53.217	113.611	2268.894	2706.004
-52.203	41.414	1896.552	1684.899
-51.188	35.158	1686.652	1451.165
-50.173	32.506	1642.615	1393.625
-49.159	50.439	1688.882	1567.709
-48.144	52.152	1705.611	1596.013
-47.130	34.813	1666.621	1431.121
-46.115	31.890	1652.741	1397.402
-45.100	31.875	1647.190	1392.544
-44.086	31.837	1644.684	1390.083
-43.071	31.770	1642.409	1387.610
-42.057	31.751	1639.579	1385.028
-41.042	31.808	1637.816	1383.902
-40.027	31.846	1635.825	1382.442
-39.013	31.717	1634.018	1379.913
-37.998	31.769	1632.572	1379.017
-36.984	31.702	1631.226	1377.336
-35.969	31.886	1629.769	1377.400
-34.954	31.913	1627.913	1375.978
-33.940	31.824	1626.176	1373.800
-32.925	31.856	1624.595	1372.645
-31.911	31.925	1622.690	1371.486
-30.896	31.919	1620.493	1369.529
-29.881	31.809	1619.607	1367.924
-28.867	31.845	1617.436	1366.301
-27.852	31.816	1616.210	1365.000
-26.838	31.862	1614.747	1364.041
-25.823	31.865	1613.090	1362.610
-24.809	31.881	1612.290	1361.997
-23.794	31.805	1611.071	1360.363
-22.779	31.849	1609.351	1359.179
-21.765	31.960	1607.479	1358.344
-20.750	31.942	1605.443	1356.437
-19.736	31.882	1604.367	1355.042
-18.721	32.000	1602.957	1354.649
-17.706	31.946	1601.462	1352.942
-16.692	31.864	1600.314	1351.329
-15.677	31.861	1598.450	1349.682
-14.663	31.917	1597.427	1349.169
-13.648	31.848	1596.281	1347.646
-12.633	31.958	1594.553	1346.925
-11.619	31.872	1593.310	1345.208
-10.604	31.917	1591.629	1344.056
-9.590	31.980	1590.050	1343.117
-8.575	31.994	1588.777	1342.090
-7.560	31.962	1587.600	1340.813
-6.546	31.888	1586.749	1339.515
-5.531	31.976	1585.570	1339.092
-4.517	31.809	1584.632	1337.057
-3.502	31.895	1583.404	1336.578
-2.487	31.972	1581.311	1335.308
-1.473	31.527	1570.557	1323.031
-0.458	28.928	1550.289	1287.730
0.556	24.780	1551.096	1256.681
1.571	22.452	1573.755	1258.306
2.586	21.906	1586.571	1264.507
3.600	19.401	1533.790	1204.860
4.615	11.869	1426.282	1071.202
5.629	5.514	1364.643	984.924
6.644	4.710	1356.550	973.962
7.659	4.464	1355.748	971.764
8.673	4.445	1354.865	970.923
9.688	4.492	1353.192	969.934
10.702	4.337	1350.408	966.887
11.717	7.322	1355.722	989.256
12.731	14.540	1368.565	1043.863
13.746	19.057	1375.546	1077.443
14.761	18.753	1374.374	1074.527
15.775	17.891	1371.065	1066.463
16.790	16.776	1368.905	1057.726
17.804	15.881	1366.594	1050.271
18.819	15.661	1364.760	1047.395
19.834	15.369	1363.682	1044.658
20.848	15.150	1362.488	1042.289
21.863	14.919	1361.434	1039.950
22.877	14.754	1359.851	1037.627
23.892	14.709	1359.130	1036.704
24.907	14.747	1358.423	1036.313
25.921	14.636	1357.886	1035.120
26.936	14.700	1356.744	1034.554
27.950	14.846	1355.194	1034.186
28.965	14.887	1354.573	1033.873
29.980	15.004	1353.430	1033.633
30.994	15.016	1352.408	1032.833
32.009	14.977	1351.339	1031.683
33.023	15.116	1349.611	1031.131
34.038	15.014	1348.474	1029.541
35.053	14.937	1347.356	1028.124
36.067	14.925	1346.018	1026.939
37.082	14.851	1345.615	1026.086
38.096	14.913	1344.094	1025.220
39.111	14.955	1343.620	1025.021
40.126	14.904	1342.578	1023.825
41.140	14.705	1341.854	1021.961
42.155	14.644	1341.127	1020.947
43.169	14.620	1341.449	1020.955
44.184	14.545	1341.430	1020.392
45.199	14.750	1340.195	1020.612
46.213	14.774	1339.628	1020.241
47.228	14.905	1338.761	1020.287
48.242	14.926	1337.972	1019.724
49.257	14.967	1336.066	1018.429
50.271	14.866	1334.936	1016.862
51.286	14.898	1333.717	1016.042
52.301	14.799	1332.243	1014.224
53.315	14.817	1331.054	1013.340
54.330	14.723	1330.193	1012.026
55.344	14.740	1329.162	1011.254
56.359	14.775	1328.011	1010.504
57.374	14.761	1326.793	1009.400
58.388	14.689	1326.172	1008.404
59.403	14.649	1326.148	1008.058
60.417	14.639	1325.348	1007.295
61.432	14.579	1324.666	1006.327
62.447	14.506	1323.377	1004.821
63.461	14.474	1322.560	1003.920
64.476	14.535	1321.072	1003.068
65.490	14.596	1320.071	1002.583
66.505	14.485	1318.586	1000.701
67.520	14.511	1317.231	999.744
68.534	14.495	1316.057	998.665
69.549	14.553	1315.323	998.370
70.563	14.503	1313.968	996.953
71.578	14.457	1313.005	995.859
72.593	14.433	1312.236	995.040
73.607	14.479	1311.252	994.484
74.622	14.419	1310.426	993.411
75.636	14.441	1309.751	992.942
76.651	14.495	1308.642	992.336
77.666	14.434	1308.532	991.801
78.680	14.489	1308.016	991.647
79.695	14.547	1307.070	991.188
80.709	14.610	1306.295	990.890
81.724	14.535	1305.813	989.991
82.739	14.661	1304.352	989.542
83.753	14.720	1303.908	989.467
84.768	14.814	1303.201	989.401
85.782	14.865	1302.271	988.909
86.797	14.880	1300.923	987.887
87.812	14.816	1299.671	986.472
88.826	14.700	1298.872	985.093
89.841	14.842	1297.599	984.873
90.855	14.936	1296.203	984.283
91.870	14.912	1295.667	983.648
92.884	14.888	1294.604	982.610
93.899	14.992	1293.842	982.558
94.914	14.995	1293.405	982.155
95.928	15.052	1292.042	981.367
96.943	14.967	1291.488	980.363
97.957	14.975	1290.302	979.420
98.972	14.851	1289.621	978.093
99.987	14.846	1288.434	977.074
101.001	14.841	1287.612	976.340
102.016	15.013	1286.174	976.167
103.030	14.828	1286.075	974.921
104.045	14.901	1284.987	974.435
105.060	14.813	1283.515	972.724
106.074	14.738	1281.781	970.887
107.089	14.665	1280.468	969.383
108.103	14.654	1279.202	968.275
109.118	14.564	1278.537	967.163
110.133	14.630	1276.470	965.896
111.147	14.598	1275.733	965.069
112.162	14.634	1274.467	964.233
113.176	14.677	1273.275	963.495
114.191	14.664	1272.453	962.713
115.206	14.687	1271.012	961.671
116.220	14.801	1269.442	961.054
117.235	14.653	1268.605	959.485
118.249	14.649	1267.754	958.735
119.264	14.723	1266.100	957.820
120.279	14.607	1265.471	956.594
121.293	14.525	1264.370	955.209
122.308	14.527	1263.377	954.384
123.322	14.559	1262.703	953.972
124.337	14.589	1261.359	953.047
125.352	14.499	1260.413	951.733
126.366	14.553	1259.202	951.043
127.381	14.559	1258.154	950.198
128.395	14.594	1257.070	949.499
129.410	14.565	1256.102	948.517
130.424	14.712	1255.206	948.590
131.439	14.699	1254.189	947.667
132.454	14.644	1253.341	946.627
133.468	14.739	1252.509	946.457
134.483	14.778	1251.699	945.979
135.497	14.725	1251.018	945.083
136.512	14.657	1250.005	943.851
137.527	14.674	1248.299	942.571
138.541	14.812	1246.409	941.839
139.556	14.903	1245.198	941.357
140.570	14.857	1244.721	940.650
141.585	14.917	1243.173	939.737
142.600	15.021	1242.084	939.413
143.614	14.913	1241.930	938.607
144.629	15.054	1240.333	938.110
145.643	15.021	1238.933	936.783
146.658	14.926	1237.963	935.435
147.673	14.812	1236.547	933.645
148.687	14.783	1235.321	932.471
149.702	14.811	1234.109	931.631
150.716	14.722	1233.212	930.380
151.731	14.758	1232.146	929.690
152.746	14.864	1230.292	928.802
153.760	14.878	1228.984	927.807
154.775	14.948	1228.361	927.644
155.789	14.897	1227.890	926.922
156.804	14.981	1226.490	926.252
157.819	15.044	1225.207	925.547
158.833	15.086	1224.861	925.434
159.848	15.117	1223.880	924.784
160.862	15.131	1222.980	924.099
161.877	14.993	1222.112	922.602
162.892	14.933	1220.648	921.084
163.906	14.822	1219.922	919.845
164.921	14.918	1218.869	919.495
165.935	14.994	1217.771	919.001
166.950	15.033	1217.222	918.722
167.964	15.089	1216.021	918.039
168.979	14.944	1215.656	916.889
169.994	14.992	1215.143	916.684
171.008	15.009	1213.924	915.777
172.023	15.082	1213.551	915.811
173.037	15.148	1212.673	915.432
174.052	15.187	1211.930	915.002
175.067	15.139	1210.613	913.662
176.081	14.980	1209.720	912.041
177.096	14.976	1208.563	911.067
178.110	14.993	1207.410	910.213
179.125	15.037	1206.212	909.464
180.140	15.078	1204.987	908.687
181.154	15.109	1204.042	908.062
182.169	15.062	1202.922	906.882
183.183	15.179	1201.757	906.556
184.198	15.223	1199.999	905.388
185.213	15.198	1199.263	904.616
186.227	15.151	1198.889	904.001
187.242	15.178	1197.684	903.155
188.256	15.377	1196.500	903.257
189.271	15.365	1195.719	902.519
190.286	15.268	1194.227	900.792
191.300	15.054	1193.935	899.343
192.315	14.989	1192.914	898.149
193.329	15.002	1192.390	897.741
194.344	15.045	1191.597	897.297
195.359	15.128	1191.012	897.223
196.373	15.151	1190.548	896.916
197.388	15.259	1190.415	897.314
198.402	15.385	1189.986	897.587
199.417	15.495	1189.072	897.406
200.432	15.623	1187.669	896.948
201.446	15.476	1187.557	896.002
202.461	15.595	1186.451	895.722
203.475	15.618	1185.697	895.197
204.490	15.607	1183.983	893.763
205.504	15.461	1182.685	891.930
206.519	15.453	1181.990	891.286
207.534	15.374	1181.045	890.074
208.548	15.480	1179.951	889.732
209.563	15.484	1179.115	889.046
210.577	15.399	1178.437	888.004
211.592	15.543	1177.636	888.086
212.607	15.729	1176.204	887.909
213.621	15.700	1175.423	887.087
214.636	15.695	1174.445	886.244
215.650	15.615	1173.728	885.204
216.665	15.688	1172.910	884.892
217.680	15.766	1171.918	884.477
218.694	15.760	1171.210	883.834
219.709	15.706	1170.189	882.702
220.723	15.763	1169.800	882.625
221.738	15.745	1168.869	881.751
222.753	15.681	1168.612	881.147
223.767	15.658	1167.882	880.397
224.782	15.786	1167.333	880.572
225.796	15.919	1166.477	880.544
226.811	15.927	1165.719	879.939
227.826	15.915	1164.637	878.978
228.840	15.803	1164.384	878.129
229.855	15.756	1163.687	877.281
230.869	15.845	1162.665	876.895
231.884	15.818	1161.777	876.006
232.899	15.821	1161.423	875.680
233.913	15.784	1160.274	874.541
234.928	15.691	1159.461	873.368
235.942	15.726	1158.898	873.051
236.957	15.676	1158.172	872.166
237.972	15.669	1157.617	871.632
238.986	15.772	1157.066	871.673
240.001	15.785	1156.190	871.007
241.015	15.758	1155.934	870.596
242.030	15.816	1154.569	869.792
243.045	15.932	1153.541	869.537
244.059	15.879	1153.120	868.872
245.074	15.929	1152.180	868.341
246.088	16.014	1151.336	868.069
247.103	16.048	1150.768	867.740
248.117	16.136	1149.828	867.406
249.132	16.140	1149.090	866.793
250.147	16.372	1148.605	867.541
251.161	16.249	1148.156	866.495
252.176	16.257	1147.427	865.907
253.190	16.412	1146.684	866.064
254.205	16.498	1146.428	866.238
255.220	16.367	1145.771	864.990
256.234	16.372	1145.368	864.635
257.249	16.404	1144.325	863.937
258.263	16.343	1143.721	863.091
259.278	16.415	1142.991	862.832
260.293	16.515	1142.445	862.853
261.307	16.535	1141.699	862.319
262.322	16.516	1141.112	861.698
263.336	16.621	1140.261	861.515
264.351	16.588	1139.859	860.970
265.366	16.526	1139.480	860.291
266.380	16.594	1138.238	859.619
267.395	16.657	1137.292	859.150
268.409	16.554	1136.873	858.237
269.424	16.512	1136.124	857.383
270.439	16.533	1135.693	857.087
271.453	16.497	1135.264	856.503
272.468	16.513	1133.732	855.354
273.482	16.473	1133.412	854.834
274.497	16.555	1132.661	854.609
275.512	16.553	1132.070	854.074
276.526	16.548	1130.972	853.147
277.541	16.517	1130.445	852.517
278.555	16.668	1129.657	852.610
279.570	16.653	1129.254	852.154
280.585	16.776	1128.549	852.165
281.599	16.782	1127.210	851.109
282.614	16.707	1126.057	849.785
283.628	16.587	1125.176	848.442
284.643	16.607	1124.724	848.129
285.657	16.758	1123.273	847.715
286.672	16.679	1122.565	846.709
287.687	16.733	1121.551	846.139
288.701	16.752	1121.090	845.815
289.716	16.772	1120.258	845.211
290.730	16.774	1119.583	844.636
291.745	16.759	1118.743	843.855
292.760	16.748	1118.560	843.584
293.774	16.778	1117.846	843.120
294.789	16.936	1117.233	843.369
295.803	16.874	1116.559	842.477
296.818	16.922	1115.805	842.076
297.833	16.884	1114.939	841.156
298.847	16.808	1114.253	840.188
299.862	16.919	1113.069	839.771
300.876	16.933	1112.836	839.588
301.891	16.956	1112.103	839.078
302.906	17.127	1111.197	839.165
303.920	17.093	1110.761	838.591
304.935	17.134	1110.265	838.348
305.949	17.121	1109.642	837.737
306.964	17.154	1109.179	837.476
307.979	17.181	1108.128	836.744
308.993	17.118	1107.533	835.907
310.008	17.229	1106.543	835.634
311.022	17.226	1105.704	834.912
312.037	17.310	1104.867	834.619
313.052	17.077	1103.911	832.680
314.066	17.112	1103.370	832.369
315.081	16.944	1102.285	830.654
316.095	16.958	1101.739	830.238
317.110	17.191	1100.453	830.334
318.125	16.973	1100.317	829.090
319.139	17.045	1099.421	828.694
320.154	17.165	1098.624	828.607
321.168	17.155	1098.382	828.304
322.183	17.029	1097.784	827.163
323.197	17.180	1097.174	827.365
324.212	17.178	1096.437	826.726
325.227	17.239	1095.664	826.369
326.241	17.263	1095.188	826.054
327.256	17.175	1094.275	824.864
328.270	17.107	1093.552	823.917
329.285	17.149	1092.781	823.468
330.300	17.085	1092.000	822.493
331.314	17.147	1090.629	821.691
332.329	17.265	1089.964	821.688
333.343	17.344	1088.640	820.998
334.358	17.288	1088.201	820.324
335.373	17.232	1087.893	819.746
336.387	17.375	1086.785	819.528
337.402	17.418	1086.092	819.140
338.416	17.347	1085.788	818.499
339.431	17.413	1085.169	818.275
340.446	17.404	1084.642	817.765
341.460	17.583	1083.739	817.870
342.475	17.587	1083.079	817.320
343.489	17.705	1081.815	816.859
344.504	17.666	1081.213	816.146
345.519	17.662	1080.520	815.530
346.533	17.715	1079.543	814.971
347.548	17.730	1078.865	814.461
348.562	17.843	1077.714	814.058
349.577	17.692	1077.156	812.844
350.592	17.596	1076.328	811.693
351.606	17.466	1075.681	810.514
352.621	17.424	1075.207	809.884
353.635	17.502	1074.410	809.583
354.650	17.513	1073.638	808.983
355.665	17.507	1072.964	808.374
356.679	17.653	1071.878	808.177
357.694	17.751	1071.490	808.275
358.708	17.703	1070.875	807.512
359.723	17.896	1070.337	807.949
360.738	17.741	1070.078	806.948
361.752	17.632	1069.526	805.947
362.767	17.729	1068.702	805.712
363.781	17.736	1068.231	805.320
364.796	17.811	1067.814	805.288
365.810	17.890	1067.316	805.215
366.825	17.941	1066.402	804.695
367.840	17.983	1065.937	804.470
368.854	18.138	1065.331	804.671
369.869	18.187	1064.427	804.144
370.883	18.151	1063.608	803.286
371.898	18.002	1063.112	802.142
372.913	18.026	1062.519	801.734
373.927	18.102	1062.066	801.679
374.942	18.054	1061.638	801.061
375.956	18.009	1061.329	800.548
376.971	17.995	1060.688	799.926
377.986	18.102	1059.498	799.460
379.000	18.129	1059.627	799.610
380.015	18.341	1058.598	799.757
381.029	18.258	1058.152	798.958
382.044	18.301	1057.641	798.705
383.059	18.187	1056.706	797.397
384.073	18.228	1055.907	796.913
385.088	18.314	1054.736	796.356
386.102	18.222	1054.104	795.382
387.117	18.261	1052.634	794.384
388.132	18.199	1051.844	793.432
389.146	18.244	1051.063	792.977
390.161	18.207	1050.579	792.373
391.175	18.328	1049.763	792.246
392.190	18.353	1049.292	791.940
393.205	18.404	1048.587	791.572
394.219	18.300	1048.084	790.639
395.234	18.340	1046.884	789.850
396.248	18.307	1045.845	788.845
397.263	18.298	1044.940	788.050
398.278	18.262	1044.381	787.394
399.292	18.233	1043.588	786.592
400.307	18.174	1042.524	785.453
401.321	18.191	1042.103	785.144
402.336	18.285	1041.349	784.934
403.350	18.317	1040.351	784.258
404.365	18.172	1040.463	783.611
405.380	18.356	1039.394	783.579
406.394	18.426	1038.639	783.260
407.409	18.515	1037.803	782.965
408.423	18.438	1037.336	782.193
409.438	18.637	1036.538	782.430
410.453	18.610	1035.914	781.768
411.467	18.563	1035.496	781.166
412.482	18.585	1034.711	780.605
413.496	18.704	1033.923	780.482
414.511	18.688	1033.513	780.032
415.526	18.767	1032.966	779.911
416.540	18.813	1032.346	779.581
417.555	18.961	1031.597	779.618
418.569	18.863	1031.441	778.988
419.584	18.808	1031.215	778.499
420.599	18.742	1030.516	777.601
421.613	150.619	1401.541	1794.863
422.628	137.403	1455.613	1794.993
