DTS Sentinel unit serial number:	SN413079Multiplexer serial number:	ORYXHardware model number:	OX4-SRSoftware version number:	ORYX F/W v4.00 Oryx Data Collector v3.7.2.0data status	okinstallation	princeton_trtdifferential loss correction	single-endedforward channel	channel 2reverse channel	N/Adate	2019/09/12time	11:25:11forward acquisition time	60.00reverse acquisition time	0.00gamma	496.2192k internal	0.2303k external	0.2303temperature offset calibration	1.0069default loss term (dB/km)	0.3790temperature slope calibration	1.0000multiplexer offset coefficient	1.0000multiplexer slope coefficient	1.0000fibre end	0.00T internal ref (°C)	39.20T ext. ref 1 (°C)	1.95T ext. ref 2 (°C)	36.62length (m)	temperature (°C)	Stokes	anti-Stokes-747.200	-200.000	0.010	-0.091
-746.185	328.094	-0.020	0.039
-745.171	-95.332	-0.025	-0.007
-744.156	80.842	0.010	0.011
-743.142	800.000	-0.070	0.226
-742.127	-99.391	0.270	-0.069
-741.112	-58.695	0.132	-0.058
-740.098	40.790	-0.143	0.132
-739.083	-106.445	0.085	-0.019
-738.069	80.655	0.139	0.152
-737.054	-74.526	-0.128	0.047
-736.039	-45.621	0.180	-0.091
-735.025	-119.935	0.014	-0.002
-734.010	-72.178	-0.110	-0.042
-732.996	339.921	0.138	-0.274
-731.981	-95.517	-0.217	-0.059
-730.966	-52.601	-0.212	0.100
-729.952	800.000	-0.031	0.125
-728.937	-163.522	-0.227	0.011
-727.923	89.909	-0.186	0.212
-726.908	-16.290	0.062	-0.040
-725.894	141.651	-0.193	0.260
-724.879	-136.328	-0.269	-0.032
-723.864	277.612	-0.197	0.356
-722.850	29.780	-0.042	-0.036
-721.835	-114.350	0.238	-0.047
-720.821	-200.000	-0.051	-0.420
-719.806	800.000	0.091	-0.394
-718.791	418.416	-0.122	-0.267
-717.777	-23.636	-0.314	-0.192
-716.762	93.541	-0.084	0.097
-715.748	267.042	0.051	-0.091
-714.733	139.942	0.153	0.206
-713.718	408.467	-0.143	-0.308
-712.704	-200.000	-0.021	-0.258
-711.689	-86.933	0.446	-0.138
-710.675	-200.000	-0.021	0.219
-709.660	124.612	-0.189	-0.242
-708.645	227.447	-0.194	0.321
-707.631	-71.371	-0.244	0.093
-706.616	-200.000	0.019	0.344
-705.602	-200.000	0.031	0.297
-704.587	110.619	0.194	0.237
-703.572	800.000	0.083	0.242
-702.558	-119.449	-0.227	-0.040
-701.543	-99.219	0.242	-0.062
-700.529	715.725	-0.047	-0.128
-699.514	800.000	-0.058	-0.253
-698.499	-178.496	-0.089	-0.002
-697.485	235.433	-0.103	0.173
-696.470	-92.185	0.249	0.072
-695.456	632.210	0.103	0.264
-694.441	-193.349	-0.215	0.002
-693.426	229.206	-0.105	0.175
-692.412	20.813	-0.277	0.228
-691.397	800.000	0.055	0.163
-690.383	109.198	-0.097	0.117
-689.368	-75.595	-0.091	0.033
-688.354	-200.000	-0.000	0.251
-687.339	800.000	-0.069	-0.296
-686.324	800.000	-0.041	-0.127
-685.310	800.000	-0.067	0.212
-684.295	-193.826	-0.206	0.002
-683.281	-155.677	-0.182	-0.012
-682.266	-200.000	0.016	0.111
-681.251	-65.709	-0.198	0.081
-680.237	74.325	0.228	-0.244
-679.222	-200.000	0.003	-0.024
-678.208	261.316	-0.071	-0.125
-677.193	800.000	-0.068	-0.233
-676.178	-12.280	0.380	0.252
-675.164	485.074	0.140	0.325
-674.149	-46.469	0.290	0.145
-673.135	-200.000	-0.039	0.245
-672.120	105.032	-0.059	0.071
-671.105	-200.000	-0.002	0.154
-670.091	-162.325	-0.030	-0.001
-669.076	225.547	-0.200	-0.329
-668.062	-200.000	-0.014	-0.137
-667.047	-14.939	-0.074	0.048
-666.032	109.471	-0.188	-0.229
-665.018	800.000	-0.047	-0.151
-664.003	420.321	-0.111	-0.241
-662.989	-96.567	-0.144	0.039
-661.974	579.609	0.093	-0.232
-660.959	-200.000	0.032	0.431
-659.945	534.354	0.086	0.207
-658.930	-94.479	0.353	-0.098
-657.916	-53.837	0.266	-0.123
-656.901	-116.348	-0.205	-0.039
-655.886	205.929	-0.093	-0.146
-654.872	800.000	0.028	-0.121
-653.857	-152.824	-0.148	0.011
-652.843	-200.000	-0.004	0.159
-651.828	-200.000	0.008	0.198
-650.814	-187.489	-0.252	-0.003
-649.799	305.677	-0.067	0.126
-648.784	-200.000	-0.047	0.279
-647.770	-144.211	0.283	-0.027
-646.755	95.738	-0.200	-0.232
-645.741	221.364	0.080	-0.130
-644.726	-32.989	-0.348	0.196
-643.711	-36.230	0.076	0.042
-642.697	17.047	-0.163	0.131
-641.682	235.689	0.077	0.129
-640.668	-106.364	-0.227	0.052
-639.653	22.146	-0.134	-0.111
-638.638	-180.852	0.439	0.009
-637.624	-102.787	0.033	-0.008
-636.609	362.974	-0.068	-0.139
-635.595	800.000	0.086	-0.270
-634.580	42.315	0.073	0.068
-633.565	800.000	-0.020	-0.066
-632.551	-171.857	-0.286	0.009
-631.536	-26.551	-0.157	0.094
-630.522	-200.000	0.014	0.077
-629.507	-178.228	-0.169	-0.004
-628.492	-91.735	-0.311	0.090
-627.478	-72.382	-0.109	0.041
-626.463	-153.285	0.040	-0.003
-625.449	117.473	-0.126	-0.157
-624.434	56.768	-0.158	0.156
-623.419	-112.840	0.041	-0.008
-622.405	73.537	-0.256	-0.272
-621.390	-99.312	-0.137	-0.035
-620.376	-200.000	0.005	-0.301
-619.361	-200.000	0.085	-0.472
-618.346	-62.820	-0.069	0.029
-617.332	-108.453	-0.481	-0.105
-616.317	4.889	-0.152	0.113
-615.303	-200.000	-0.039	0.251
-614.288	-117.183	-0.133	0.024
-613.273	-200.000	-0.011	-0.071
-612.259	45.689	-0.244	0.229
-611.244	97.364	0.342	0.398
-610.230	800.000	-0.095	0.297
-609.215	32.992	-0.151	0.132
-608.201	-141.543	-0.434	-0.044
-607.186	-68.163	-0.287	-0.113
-606.171	-42.762	0.101	-0.052
-605.157	316.860	0.167	0.320
-604.142	-152.275	0.353	-0.026
-603.128	-200.000	0.006	-0.213
-602.113	800.000	0.034	-0.101
-601.098	499.296	-0.092	-0.214
-600.084	-112.477	-0.275	0.056
-599.069	-200.000	0.022	0.244
-598.055	-33.483	0.303	0.170
-597.040	-83.992	0.277	0.089
-596.025	-200.000	0.018	-0.169
-595.011	102.816	-0.159	0.188
-593.996	302.062	0.138	0.258
-592.982	800.000	0.014	0.041
-591.967	64.871	0.270	-0.276
-590.952	132.306	-0.247	-0.323
-589.938	-200.000	-0.006	-0.200
-588.923	-26.969	0.059	-0.035
-587.909	-200.000	-0.038	0.366
-586.894	630.244	-0.056	-0.144
-585.879	-98.036	-0.045	0.012
-584.865	-12.216	0.222	0.147
-583.850	-98.431	0.080	-0.021
-582.836	800.000	0.048	-0.135
-581.821	25.844	-0.108	-0.092
-580.806	-71.603	0.181	-0.069
-579.792	1.461	0.235	-0.171
-578.777	17.499	-0.164	0.132
-577.763	55.172	0.271	0.265
-576.748	-81.738	-0.110	0.036
-575.733	-80.941	-0.229	-0.077
-574.719	-200.000	0.002	-0.055
-573.704	-106.842	-0.060	-0.013
-572.690	-28.077	0.259	0.151
-571.675	-159.277	-0.206	-0.012
-570.661	-200.000	-0.008	0.095
-569.646	800.000	0.162	-0.564
-568.631	-6.905	-0.059	0.040
-567.617	7.652	-0.315	0.239
-566.602	-122.310	-0.038	-0.006
-565.588	308.173	-0.182	0.344
-564.573	614.898	0.056	0.142
-563.558	-84.807	0.180	0.057
-562.544	-154.542	0.182	0.012
-561.529	-200.000	0.034	-0.409
-560.515	-124.134	0.393	0.062
-559.500	113.814	0.168	0.206
-558.485	-200.000	0.085	0.408
-557.471	148.111	-0.172	0.235
-556.456	109.563	0.056	0.068
-555.442	14.086	-0.144	0.113
-554.427	130.930	-0.105	0.136
-553.412	-60.845	-0.126	0.054
-552.398	13.725	0.028	0.022
-551.383	-97.161	-0.267	-0.070
-550.369	444.431	0.113	0.251
-549.354	47.420	-0.101	-0.095
-548.339	75.289	0.085	-0.091
-547.325	-200.000	0.057	-0.338
-546.310	54.823	-0.350	-0.342
-545.296	-25.196	0.175	0.105
-544.281	800.000	0.014	0.052
-543.266	-84.512	0.162	0.052
-542.252	-200.000	0.016	-0.194
-541.237	800.000	0.027	0.095
-540.223	-200.000	0.050	-0.286
-539.208	800.000	0.083	0.270
-538.193	-200.000	0.063	-0.343
-537.179	380.151	0.097	0.201
-536.164	-88.921	0.125	0.037
-535.150	-24.446	-0.414	0.249
-534.135	499.096	0.091	-0.211
-533.121	-200.000	0.008	0.039
-532.106	-200.000	-0.049	-0.449
-531.091	374.290	-0.039	0.081
-530.077	304.847	0.158	0.296
-529.062	-107.453	-0.242	-0.054
-528.048	-200.000	-0.005	-0.093
-527.033	-200.000	-0.001	0.118
-526.018	99.653	0.145	-0.170
-525.004	-0.357	0.165	-0.118
-523.989	95.700	-0.167	0.193
-522.975	155.282	0.136	0.188
-521.960	-108.172	0.264	0.058
-520.945	87.047	0.148	-0.165
-519.931	6.818	-0.337	-0.253
-518.916	2.413	0.122	0.089
-517.902	106.787	0.209	-0.250
-516.887	438.207	0.020	0.045
-515.872	-200.000	0.021	0.293
-514.858	-56.064	0.214	0.096
-513.843	595.124	0.108	-0.269
-512.829	-64.111	-0.389	-0.160
-511.814	800.000	0.032	-0.095
-510.799	20.448	0.104	0.085
-509.785	-135.713	-0.284	-0.034
-508.770	800.000	0.072	0.261
-507.756	800.000	-0.048	-0.201
-506.741	86.339	-0.144	-0.160
-505.726	-200.000	-0.001	-0.160
-504.712	-200.000	-0.007	-0.088
-503.697	123.542	-0.181	0.230
-502.683	-71.256	-0.119	0.045
-501.668	790.558	0.024	-0.065
-500.653	-125.707	-0.071	-0.011
-499.639	-144.118	0.223	-0.021
-498.624	-152.186	0.312	0.023
-497.610	-200.000	-0.014	0.223
-496.595	761.172	0.079	-0.216
-495.581	-67.623	0.318	-0.126
-494.566	478.528	-0.195	0.445
-493.551	538.611	-0.172	-0.413
-492.537	-159.843	-0.391	0.022
-491.522	150.511	-0.090	-0.123
-490.508	-67.169	0.182	0.072
-489.493	374.867	0.070	0.143
-488.478	-84.749	0.109	-0.035
-487.464	-12.994	0.100	0.066
-486.449	-200.000	-0.030	0.138
-485.435	-55.190	0.169	0.077
-484.420	-126.131	0.204	0.031
-483.405	-51.178	-0.294	0.139
-482.391	-200.000	-0.040	-0.301
-481.376	-132.058	-0.219	-0.029
-480.362	-200.000	0.021	-0.117
-479.347	155.958	-0.093	-0.130
-478.332	346.819	0.131	-0.259
-477.318	-200.000	0.011	0.084
-476.303	502.069	-0.069	0.162
-475.289	-200.000	0.024	0.203
-474.274	54.457	0.131	-0.127
-473.259	800.000	0.077	-0.233
-472.245	800.000	0.056	-0.237
-471.230	47.299	0.128	-0.120
-470.216	342.267	-0.136	0.269
-469.201	196.669	0.041	0.062
-468.186	-200.000	0.021	0.500
-467.172	355.327	-0.155	0.311
-466.157	800.000	-0.010	-0.034
-465.143	-2.661	0.217	-0.153
-464.128	273.865	0.207	0.369
-463.113	-200.000	-0.040	0.263
-462.099	143.681	0.265	0.356
-461.084	146.258	0.032	-0.043
-460.070	-127.458	-0.189	0.028
-459.055	135.611	-0.107	-0.141
-458.040	-13.717	-0.269	-0.175
-457.026	301.306	0.069	0.129
-456.011	-11.454	-0.310	0.205
-454.997	48.275	0.186	0.176
-453.982	652.090	-0.107	-0.275
-452.968	-90.092	-0.155	0.046
-451.953	-43.088	-0.151	0.077
-450.938	408.049	0.039	0.082
-449.924	23.934	0.228	0.189
-448.909	128.185	-0.257	0.329
-447.895	-200.000	-0.035	-0.377
-446.880	55.554	-0.082	-0.080
-445.865	-41.606	0.363	-0.188
-444.851	-85.433	0.089	0.028
-443.836	-120.349	0.339	0.058
-442.822	314.775	0.056	0.107
-441.807	396.509	0.091	-0.192
-440.792	35.110	-0.192	0.169
-439.778	800.000	-0.037	0.157
-438.763	107.757	-0.353	0.423
-437.749	800.000	-0.069	-0.238
-436.734	-77.664	-0.248	-0.086
-435.719	54.150	-0.165	-0.160
-434.705	800.000	0.049	-0.145
-433.690	39.116	0.203	-0.182
-432.676	-23.206	0.187	0.113
-431.661	21.653	0.168	-0.137
-430.646	-200.000	0.032	-0.223
-429.632	737.306	-0.026	-0.071
-428.617	-200.000	-0.010	-0.102
-427.603	-17.600	-0.030	0.019
-426.588	-1.537	0.185	0.131
-425.573	408.372	0.044	0.093
-424.559	6.553	0.079	-0.059
-423.544	-91.945	-0.143	-0.041
-422.530	-164.646	-0.088	0.004
-421.515	102.025	0.254	-0.298
-420.500	201.093	0.178	-0.275
-419.486	354.115	-0.072	0.144
-418.471	-145.653	0.203	-0.018
-417.457	-7.588	-0.120	0.082
-416.442	110.897	-0.135	-0.164
-415.428	169.201	0.131	-0.188
-414.413	800.000	-0.055	0.153
-413.398	132.466	0.133	0.173
-412.384	337.913	0.082	0.160
-411.369	-27.886	-0.119	-0.069
-410.355	-8.476	0.088	-0.060
-409.340	-200.000	0.022	-0.177
-408.325	195.415	-0.105	-0.161
-407.311	-136.173	0.268	0.032
-406.296	35.511	-0.220	0.194
-405.282	23.023	0.298	-0.246
-404.267	176.290	0.074	-0.109
-403.252	-72.916	-0.523	0.193
-402.238	-192.958	-0.031	0.000
-401.223	-137.452	-0.159	0.018
-400.209	-200.000	-0.027	-0.152
-399.194	-37.711	0.366	-0.196
-398.179	-105.041	-0.118	0.027
-397.165	-123.162	-0.119	-0.019
-396.150	-200.000	0.014	0.116
-395.136	-93.390	0.170	0.047
-394.121	-55.121	0.149	-0.067
-393.106	-200.000	0.009	0.070
-392.092	-65.689	0.060	0.024
-391.077	282.452	0.158	0.284
-390.063	-200.000	-0.001	0.103
-389.048	107.698	0.146	-0.175
-388.033	-73.650	-0.071	0.026
-387.019	-76.414	-0.065	0.023
-386.004	-200.000	-0.100	-0.476
-384.990	-200.000	-0.002	0.165
-383.975	-42.323	-0.251	-0.129
-382.960	-27.890	-0.185	-0.108
-381.946	101.751	-0.131	0.153
-380.931	-158.123	0.250	-0.015
-379.917	-130.052	-0.312	0.043
-378.902	-66.441	0.182	0.073
-377.888	157.956	-0.206	0.286
-376.873	-51.030	-0.058	0.027
-375.858	-87.341	-0.080	-0.024
-374.844	234.949	0.030	0.050
-373.829	800.000	-0.079	-0.224
-372.815	208.064	-0.065	-0.101
-371.800	209.192	0.098	0.154
-370.785	-99.789	0.077	-0.019
-369.771	759.450	0.083	-0.225
-368.756	24.409	-0.094	-0.078
-367.742	10.803	-0.228	-0.175
-366.727	104.262	0.108	-0.127
-365.712	-200.000	-0.031	-0.214
-364.698	-178.673	-0.173	0.004
-363.683	-200.000	-0.017	-0.132
-362.669	-200.000	0.045	0.202
-361.654	252.023	-0.192	0.329
-360.639	-57.187	-0.192	-0.085
-359.625	-200.000	-0.041	-0.199
-358.610	-200.000	0.016	-0.192
-357.596	100.246	0.222	-0.259
-356.581	259.429	0.077	0.133
-355.566	800.000	0.023	-0.095
-354.552	-200.000	0.026	-0.475
-353.537	72.717	0.233	0.244
-352.523	170.368	-0.136	0.195
-351.508	800.000	-0.035	0.121
-350.493	-200.000	0.040	0.346
-349.479	-200.000	0.030	-0.341
-348.464	-12.313	0.031	-0.020
-347.450	-14.602	0.241	-0.156
-346.435	360.483	0.051	0.102
-345.420	-200.000	-0.020	0.118
-344.406	170.392	0.216	0.310
-343.391	450.852	-0.122	0.270
-342.377	-200.000	0.030	-0.147
-341.362	-35.049	0.158	0.087
-340.348	35.062	-0.290	-0.255
-339.333	-118.347	-0.178	0.032
-338.318	-177.684	0.232	0.006
-337.304	-43.734	0.320	-0.162
-336.289	800.000	-0.062	-0.250
-335.275	-55.064	-0.105	-0.047
-334.260	800.000	0.076	-0.287
-333.245	29.139	-0.200	-0.171
-332.231	800.000	0.132	-0.428
-331.216	-38.468	-0.301	-0.160
-330.202	-165.989	0.281	-0.012
-329.187	561.890	0.004	0.011
-328.172	-178.253	0.057	-0.001
-327.158	-111.244	-0.112	0.023
-326.143	-128.290	0.236	-0.034
-325.129	-60.515	0.148	-0.063
-324.114	-83.942	-0.141	-0.045
-323.099	800.000	0.170	-0.521
-322.085	-14.274	0.256	0.165
-321.070	-138.118	-0.253	-0.028
-320.056	-67.951	0.168	-0.066
-319.041	-51.548	0.276	0.129
-318.026	-200.000	0.048	-0.236
-317.012	800.000	-0.068	0.278
-315.997	-45.290	-0.154	0.077
-314.983	225.289	-0.030	0.048
-313.968	-200.000	-0.001	-0.223
-312.953	-75.825	-0.104	0.037
-311.939	-200.000	-0.235	-0.000
-310.924	-19.520	0.124	0.077
-309.910	79.562	0.082	0.088
-308.895	-200.000	0.005	-0.189
-307.880	71.948	0.211	-0.220
-306.866	-200.000	0.013	-0.060
-305.851	171.730	-0.211	-0.304
-304.837	-116.341	0.254	0.047
-303.822	83.027	0.124	-0.135
-302.807	-81.816	0.235	0.077
-301.793	241.582	-0.067	0.112
-300.778	-1.181	-0.245	-0.173
-299.764	-83.002	-0.156	0.050
-298.749	800.000	0.034	-0.105
-297.735	-200.000	0.006	-0.306
-296.720	52.324	-0.078	-0.075
-295.705	-23.674	-0.299	-0.179
-294.691	72.114	-0.321	0.335
-293.676	285.334	0.226	0.408
-292.662	106.808	-0.188	0.224
-291.647	43.276	0.106	-0.097
-290.632	9.954	0.268	0.203
-289.618	299.734	0.183	-0.337
-288.603	-200.000	-0.051	-0.299
-287.589	123.006	0.057	-0.072
-286.574	92.293	-0.122	0.137
-285.559	82.607	0.182	0.198
-284.545	57.832	-0.090	-0.088
-283.530	454.198	0.094	0.208
-282.516	53.943	-0.239	-0.229
-281.501	-48.760	-0.182	0.087
-280.486	165.083	0.234	-0.331
-279.472	800.000	0.106	-0.311
-278.457	154.408	-0.085	-0.117
-277.443	233.947	-0.105	-0.172
-276.428	323.494	-0.014	-0.027
-275.413	158.586	0.161	0.223
-274.399	-144.248	0.057	-0.005
-273.384	571.946	0.035	0.084
-272.370	-200.000	0.020	-0.172
-271.355	-64.621	0.236	-0.096
-270.340	-61.552	-0.175	0.074
-269.326	438.260	0.139	0.303
-268.311	800.000	-0.028	-0.098
-267.297	-153.118	0.173	-0.012
-266.282	-200.000	-0.014	0.201
-265.267	273.015	0.135	0.238
-264.253	181.424	0.148	-0.217
-263.238	52.198	-0.109	0.104
-262.224	-200.000	-0.022	0.176
-261.209	317.575	-0.107	0.203
-260.195	-200.000	-0.057	-0.273
-259.180	-200.000	-0.070	-0.343
-258.165	6.207	0.198	0.147
-257.151	-17.125	0.283	0.179
-256.136	-18.757	0.144	0.090
-255.122	731.187	0.101	0.270
-254.107	800.000	0.047	0.197
-253.092	800.000	0.061	0.193
-252.078	-83.910	0.359	-0.114
-251.063	35.201	0.040	-0.035
-250.049	-200.000	0.088	0.397
-249.034	672.205	0.127	-0.329
-248.019	183.210	-0.112	-0.165
-247.005	324.313	-0.146	0.279
-245.990	-180.938	-0.176	0.004
-244.976	342.080	-0.096	-0.188
-243.961	116.523	0.090	-0.111
-242.946	-87.089	-0.236	0.072
-241.932	327.166	-0.178	0.340
-240.917	224.231	-0.146	-0.235
-239.903	74.903	-0.120	0.126
-238.888	37.787	0.097	0.086
-237.873	-200.000	-0.021	0.141
-236.859	-2.768	-0.199	-0.139
-235.844	-200.000	-0.015	0.110
-234.830	28.463	0.314	-0.265
-233.815	-200.000	0.307	-0.001
-232.800	-94.652	0.255	0.069
-231.786	169.230	-0.090	0.128
-230.771	129.984	0.110	0.141
-229.757	-16.730	0.241	0.152
-228.742	800.000	-0.082	-0.326
-227.727	68.526	0.044	-0.045
-226.713	-198.979	-0.353	0.002
-225.698	-26.534	0.060	0.035
-224.684	371.499	0.040	0.080
-223.669	44.314	0.195	0.179
-222.655	800.000	0.036	-0.125
-221.640	-36.302	-0.260	0.140
-220.625	237.139	0.118	0.196
-219.611	800.000	0.074	0.264
-218.596	3.820	-0.185	-0.135
-217.582	-178.146	0.540	0.013
-216.567	-3.826	0.269	0.186
-215.552	-25.002	-0.217	0.128
-214.538	-200.000	0.013	0.088
-213.523	-200.000	0.057	0.365
-212.509	219.399	-0.144	0.229
-211.494	-200.000	0.222	-0.001
-210.479	58.275	-0.030	-0.029
-209.465	800.000	-0.067	-0.246
-208.450	58.968	-0.184	0.181
-207.436	-91.495	-0.424	0.121
-206.421	-2.612	-0.368	-0.257
-205.406	244.470	0.057	0.095
-204.392	-118.456	-0.130	0.023
-203.377	-200.000	-0.011	0.182
-202.363	6.367	0.226	-0.167
-201.348	-197.535	0.291	-0.002
-200.333	800.000	0.069	-0.196
-199.319	178.532	0.162	-0.236
-198.304	11.064	-0.340	0.260
-197.290	265.470	0.037	-0.064
-196.275	-9.318	0.164	-0.109
-195.260	800.000	0.120	-0.378
-194.246	263.127	-0.058	-0.101
-193.231	-94.370	0.295	0.080
-192.217	-44.266	-0.088	-0.044
-191.202	-10.147	0.222	-0.147
-190.187	-11.303	-0.295	-0.194
-189.173	-94.597	-0.274	0.074
-188.158	-61.648	0.120	-0.050
-187.144	82.823	0.137	-0.148
-186.129	24.205	-0.214	0.176
-185.114	35.609	0.170	0.149
-184.100	70.972	-0.007	0.007
-183.085	-200.000	-0.042	0.277
-182.071	25.880	0.086	0.072
-181.056	800.000	-0.019	-0.083
-180.042	31.689	0.140	0.120
-179.027	800.000	-0.039	-0.138
-178.012	-66.492	-0.320	-0.127
-176.998	-9.946	-0.287	-0.190
-175.983	75.478	-0.194	-0.204
-174.969	188.386	0.124	0.185
-173.954	-1.393	-0.079	0.055
-172.939	-200.000	-0.011	-0.052
-171.925	278.660	-0.082	-0.145
-170.910	63.067	-0.377	0.376
-169.896	-153.983	0.300	-0.020
-168.881	-200.000	0.024	-0.159
-167.866	-32.127	0.273	-0.152
-166.852	182.457	-0.051	-0.074
-165.837	-82.644	0.316	0.102
-164.823	98.793	0.091	0.105
-163.808	-69.604	-0.209	0.080
-162.793	89.603	0.103	0.114
-161.779	24.729	0.033	-0.027
-160.764	-108.074	0.060	0.013
-159.750	-22.990	-0.219	0.131
-158.735	-84.231	0.095	0.030
-157.720	800.000	0.016	0.062
-156.706	-200.000	-0.012	0.263
-155.691	-22.102	0.124	0.075
-154.677	-120.351	-0.256	-0.043
-153.662	55.224	-0.318	0.306
-152.647	-29.126	-0.292	0.167
-151.633	-200.000	0.021	0.240
-150.618	619.844	0.155	-0.387
-149.604	-155.607	-0.116	-0.007
-148.589	347.470	-0.092	-0.181
-147.574	-122.398	-0.121	0.020
-146.560	-200.000	0.012	0.248
-145.545	-74.476	-0.184	0.066
-144.531	-51.746	-0.189	-0.088
-143.516	-6.705	0.088	0.060
-142.502	-40.948	-0.148	0.076
-141.487	59.426	0.239	-0.235
-140.472	17.794	0.265	0.210
-139.458	-46.767	-0.081	-0.039
-138.443	-71.142	0.152	-0.057
-137.429	-2.628	0.202	0.141
-136.414	24.887	-0.046	-0.038
-135.399	-200.000	0.011	-0.157
-134.385	202.529	-0.068	-0.104
-133.370	-53.128	0.168	0.077
-132.356	-136.397	0.672	-0.078
-131.341	-65.029	0.415	-0.167
-130.326	-96.967	-0.326	0.085
-129.312	8.475	0.183	0.137
-128.297	18.442	0.026	-0.021
-127.283	-200.000	0.016	-0.123
-126.268	213.045	-0.096	0.151
-125.253	112.766	0.056	-0.067
-124.239	272.711	-0.028	0.050
-123.224	184.639	0.210	0.309
-122.210	-200.000	0.001	0.202
-121.195	-200.000	0.034	0.205
-120.180	387.514	0.053	0.109
-119.166	800.000	0.055	-0.153
-118.151	10.541	0.253	0.192
-117.137	800.000	0.080	-0.227
-116.122	-164.394	0.274	0.012
-115.107	295.295	0.092	-0.167
-114.093	-200.000	-0.027	0.357
-113.078	780.901	0.141	0.382
-112.064	-200.000	-0.067	0.360
-111.049	-23.795	0.211	0.125
-110.034	800.000	-0.057	0.160
-109.020	-159.591	-0.086	0.005
-108.005	171.783	-0.233	0.332
-106.991	800.000	0.116	0.462
-105.976	-69.315	0.183	0.070
-104.962	-149.766	0.306	-0.024
-103.947	-161.608	-0.492	0.025
-102.932	-200.000	0.033	0.150
-101.918	-200.000	0.021	0.335
-100.903	-151.667	0.160	-0.012
-99.889	-102.449	0.105	-0.025
-98.874	-98.970	-0.216	-0.054
-97.859	-168.887	0.330	0.012
-96.845	-200.000	0.001	0.250
-95.830	-200.000	-0.040	-0.189
-94.816	-163.540	-0.394	-0.019
-93.801	404.997	0.125	-0.263
-92.786	-200.000	0.057	0.436
-91.772	-49.926	0.191	0.090
-90.757	800.000	-0.076	0.291
-89.743	136.857	0.252	-0.326
-88.728	3.214	-0.279	-0.202
-87.713	-200.000	-0.025	0.167
-86.699	-141.979	0.121	0.012
-85.684	-41.082	0.343	0.176
-84.670	-122.815	0.113	0.018
-83.655	-70.945	0.319	0.119
-82.640	-171.160	-0.185	0.006
-81.626	800.000	0.050	0.186
-80.611	-200.000	-0.003	0.243
-79.597	-200.000	0.017	-0.236
-78.582	-105.839	0.523	-0.117
-77.567	104.134	-0.083	0.097
-76.553	290.172	0.149	-0.269
-75.538	56.906	0.224	-0.216
-74.524	167.148	0.060	0.085
-73.509	47.829	0.214	0.199
-72.494	165.836	0.059	0.082
-71.480	44.321	0.130	-0.118
-70.465	-200.000	-0.005	0.260
-69.451	3.324	-0.148	-0.107
-68.436	-200.000	0.010	0.130
-67.422	800.000	-0.059	-0.179
-66.407	160.797	-0.149	-0.206
-65.392	-13.380	0.232	-0.149
-64.378	-60.241	0.192	0.081
-63.363	-145.639	0.122	-0.011
-62.349	308.658	0.071	-0.132
-61.334	-4.758	-0.738	-0.505
-60.319	-96.908	0.376	0.098
-59.305	-200.000	-0.008	-0.604
-58.290	800.000	0.211	0.801
-57.276	562.728	0.695	1.668
-56.261	-200.000	79.275	499.786
-55.246	479.502	1367.361	3072.737
-54.232	143.905	2604.755	3443.406
-53.217	106.430	2362.519	2776.922
-52.203	47.986	1968.182	1823.527
-51.188	42.336	1752.470	1579.292
-50.173	39.732	1705.716	1517.105
-49.159	53.927	1742.395	1660.088
-48.144	58.386	1761.095	1712.420
-47.130	42.383	1723.686	1553.467
-46.115	39.315	1709.691	1517.184
-45.100	39.185	1705.201	1512.135
-44.086	39.105	1702.847	1509.377
-43.071	39.067	1700.077	1506.574
-42.057	39.112	1697.333	1504.425
-41.042	39.162	1694.895	1502.587
-40.027	39.078	1693.796	1500.912
-39.013	38.985	1691.945	1498.502
-37.998	39.049	1690.094	1497.292
-36.984	39.099	1688.514	1496.208
-35.969	39.223	1686.779	1495.556
-34.954	39.350	1684.838	1494.741
-33.940	39.261	1683.032	1492.407
-32.925	39.254	1681.268	1490.725
-31.911	39.170	1679.597	1488.552
-30.896	39.221	1677.540	1487.056
-29.881	39.233	1675.702	1485.456
-28.867	39.201	1674.197	1483.821
-27.852	39.209	1673.322	1483.046
-26.838	39.233	1671.178	1481.269
-25.823	39.177	1670.195	1479.919
-24.809	39.254	1668.677	1479.092
-23.794	39.248	1667.205	1477.688
-22.779	39.277	1665.562	1476.388
-21.765	39.175	1664.386	1474.519
-20.750	39.189	1662.141	1472.580
-19.736	39.244	1660.627	1471.593
-18.721	39.304	1658.867	1470.421
-17.706	39.186	1657.902	1468.624
-16.692	39.284	1655.759	1467.401
-15.677	39.223	1654.853	1466.088
-14.663	39.227	1653.394	1464.762
-13.648	39.290	1651.969	1463.910
-12.633	39.201	1650.009	1461.458
-11.619	39.156	1648.790	1459.983
-10.604	39.168	1647.354	1458.743
-9.590	39.194	1645.735	1457.445
-8.575	39.308	1644.164	1456.838
-7.560	39.190	1643.291	1455.138
-6.546	39.181	1641.854	1453.739
-5.531	39.195	1640.834	1452.878
-4.517	39.239	1639.520	1451.982
-3.502	39.219	1638.414	1450.798
-2.487	39.244	1637.117	1449.777
-1.473	39.234	1625.858	1439.681
-0.458	36.767	1606.443	1404.558
0.556	33.201	1606.254	1371.071
1.571	30.667	1630.867	1373.278
2.586	29.757	1645.343	1378.565
3.600	25.486	1589.354	1300.702
4.615	13.723	1469.033	1122.952
5.629	3.896	1396.600	1003.958
6.644	2.151	1387.054	985.758
7.659	1.957	1385.671	983.436
8.673	1.915	1384.841	982.487
9.688	1.777	1382.887	980.126
10.702	1.592	1379.746	976.625
11.717	5.429	1388.451	1007.453
12.731	16.696	1410.193	1096.490
13.746	25.142	1424.098	1162.201
14.761	26.495	1425.880	1172.324
15.775	26.751	1425.343	1173.440
16.790	26.766	1425.201	1173.314
17.804	26.936	1423.812	1173.162
18.819	27.085	1424.144	1174.300
19.834	27.160	1423.287	1173.969
20.848	27.143	1422.487	1173.100
21.863	27.164	1421.487	1172.303
22.877	27.156	1420.357	1171.219
23.892	27.203	1419.510	1170.721
24.907	27.196	1418.711	1169.912
25.921	27.161	1417.947	1168.954
26.936	27.135	1417.014	1167.913
27.950	27.105	1416.114	1166.875
28.965	27.092	1414.910	1165.695
29.980	27.164	1413.012	1164.491
30.994	27.195	1412.050	1163.793
32.009	27.125	1411.029	1162.403
33.023	27.170	1409.843	1161.606
34.038	27.156	1408.538	1160.341
35.053	27.112	1407.952	1159.479
36.067	27.201	1406.600	1158.824
37.082	27.137	1405.346	1157.283
38.096	27.107	1404.926	1156.643
39.111	27.159	1404.131	1156.215
40.126	27.114	1403.501	1155.312
41.140	27.156	1402.894	1154.978
42.155	27.204	1402.051	1154.485
43.169	27.110	1402.450	1154.117
44.184	27.059	1402.435	1153.675
45.199	27.091	1402.261	1153.631
46.213	27.135	1401.199	1152.936
47.228	27.030	1400.310	1151.436
48.242	27.212	1398.857	1151.294
49.257	27.219	1397.287	1149.945
50.271	27.029	1396.516	1148.005
51.286	27.099	1395.053	1147.145
52.301	27.110	1394.052	1146.289
53.315	27.165	1392.380	1145.162
54.330	27.102	1391.857	1144.233
55.344	27.165	1390.922	1143.755
56.359	27.124	1389.547	1142.269
57.374	27.103	1389.014	1141.598
58.388	27.096	1388.499	1141.027
59.403	27.106	1388.111	1140.670
60.417	27.145	1386.960	1139.871
61.432	27.126	1385.957	1138.827
62.447	27.176	1385.542	1138.695
63.461	27.174	1384.258	1137.528
64.476	27.024	1383.855	1136.160
65.490	27.130	1382.294	1135.438
66.505	27.079	1380.795	1133.788
67.520	27.182	1379.396	1133.181
68.534	27.208	1378.494	1132.500
69.549	27.195	1377.211	1131.267
70.563	27.188	1376.605	1130.622
71.578	27.100	1375.455	1129.036
72.593	27.170	1374.543	1128.623
73.607	27.135	1374.169	1127.995
74.622	27.147	1373.046	1127.046
75.636	27.144	1372.519	1126.498
76.651	27.196	1371.425	1125.820
77.666	27.140	1371.367	1125.325
78.680	27.075	1371.169	1124.666
79.695	27.191	1370.292	1124.562
80.709	27.131	1369.411	1123.366
81.724	27.142	1368.545	1122.627
82.739	27.147	1367.652	1121.828
83.753	27.076	1366.685	1120.498
84.768	27.114	1365.608	1119.749
85.782	27.077	1364.453	1118.474
86.797	27.250	1362.638	1117.949
87.812	27.140	1361.971	1116.629
88.826	27.208	1360.727	1115.928
89.841	27.150	1359.453	1114.425
90.855	27.203	1358.904	1114.202
91.870	27.207	1358.121	1113.488
92.884	27.219	1357.247	1112.748
93.899	27.125	1356.750	1111.665
94.914	27.164	1355.769	1111.001
95.928	27.183	1355.149	1110.513
96.943	27.171	1354.190	1109.553
97.957	27.180	1353.653	1109.072
98.972	27.115	1353.041	1108.076
99.987	27.210	1351.561	1107.344
101.001	27.194	1350.840	1106.556
102.016	27.150	1349.710	1105.268
103.030	27.226	1349.095	1105.128
104.045	27.127	1348.423	1103.876
105.060	27.204	1347.483	1103.479
106.074	27.192	1346.161	1102.225
107.089	27.192	1345.101	1101.257
108.103	27.231	1343.881	1100.402
109.118	27.196	1343.180	1099.515
110.133	27.270	1341.968	1098.876
111.147	27.295	1340.474	1097.702
112.162	27.218	1339.754	1096.550
113.176	27.284	1338.457	1095.792
114.191	27.350	1337.496	1095.306
115.206	27.233	1336.876	1094.000
116.220	27.251	1335.542	1092.916
117.235	27.174	1334.925	1091.853
118.249	27.265	1333.557	1091.185
119.264	27.190	1332.892	1090.095
120.279	27.274	1331.966	1089.742
121.293	27.378	1330.721	1089.250
122.308	27.323	1330.589	1088.717
123.322	27.277	1330.001	1087.866
124.337	27.351	1328.831	1087.252
125.352	27.343	1328.241	1086.623
126.366	27.320	1327.265	1085.596
127.381	27.381	1326.116	1084.924
128.395	27.341	1325.579	1084.145
129.410	27.327	1324.661	1083.217
130.424	27.345	1324.178	1082.837
131.439	27.331	1323.102	1081.774
132.454	27.275	1322.471	1080.830
133.468	27.333	1321.697	1080.444
134.483	27.309	1321.218	1079.820
135.497	27.249	1320.553	1078.823
136.512	27.388	1319.331	1078.551
137.527	27.370	1318.075	1077.321
138.541	27.312	1317.256	1076.217
139.556	27.285	1315.569	1074.585
140.570	27.303	1314.801	1073.965
141.585	27.422	1313.706	1073.676
142.600	27.410	1312.248	1072.321
143.614	27.310	1311.929	1071.380
144.629	27.440	1310.208	1070.639
145.643	27.297	1309.120	1068.816
146.658	27.189	1308.433	1067.530
147.673	27.250	1307.291	1066.859
148.687	27.311	1306.772	1066.698
149.702	27.304	1305.270	1065.337
150.716	27.238	1304.116	1063.915
151.731	27.206	1303.586	1063.201
152.746	27.196	1302.987	1062.559
153.760	27.347	1301.380	1062.039
154.775	27.337	1300.248	1060.960
155.789	27.360	1299.318	1060.242
156.804	27.321	1298.849	1059.539
157.819	27.243	1297.972	1058.275
158.833	27.336	1296.968	1057.903
159.848	27.255	1296.736	1057.153
160.862	27.342	1295.433	1056.501
161.877	27.446	1294.645	1056.367
162.892	27.406	1293.784	1055.340
163.906	27.365	1292.872	1054.265
164.921	27.263	1292.324	1053.131
165.935	27.398	1291.297	1052.983
166.950	27.369	1291.072	1052.538
167.964	27.474	1290.033	1052.207
168.979	27.415	1289.528	1051.363
169.994	27.348	1288.991	1050.445
171.008	27.445	1288.445	1050.464
172.023	27.478	1287.366	1049.682
173.037	27.412	1286.935	1048.862
174.052	27.408	1286.355	1048.272
175.067	27.459	1285.239	1047.563
176.081	27.442	1284.278	1046.587
177.096	27.410	1283.624	1045.778
178.110	27.425	1282.873	1045.158
179.125	27.415	1281.576	1043.952
180.140	27.526	1280.406	1043.543
181.154	27.484	1279.117	1042.159
182.169	27.517	1278.109	1041.434
183.183	27.453	1277.227	1040.261
184.198	27.470	1275.808	1039.106
185.213	27.516	1275.267	1038.841
186.227	27.428	1274.443	1037.572
187.242	27.528	1273.695	1037.442
188.256	27.513	1272.475	1036.271
189.271	27.476	1272.183	1035.733
190.286	27.422	1271.407	1034.701
191.300	27.474	1270.743	1034.363
192.315	27.411	1270.124	1033.413
193.329	27.552	1269.831	1033.882
194.344	27.515	1269.263	1033.120
195.359	27.471	1269.002	1032.565
196.373	27.427	1268.568	1031.870
197.388	27.435	1267.506	1030.962
198.402	27.483	1267.463	1031.105
199.417	27.446	1267.269	1030.651
200.432	27.457	1266.564	1030.045
201.446	27.549	1265.955	1029.982
202.461	27.520	1265.043	1028.983
203.475	27.423	1264.425	1027.842
204.490	27.455	1263.370	1027.072
205.504	27.527	1262.538	1026.714
206.519	27.494	1261.362	1025.478
207.534	27.499	1260.577	1024.779
208.548	27.540	1259.688	1024.196
209.563	27.732	1258.838	1024.489
210.577	27.730	1257.566	1023.356
211.592	27.657	1257.191	1022.552
212.607	27.711	1256.306	1022.039
213.621	27.685	1255.331	1021.011
214.636	27.601	1255.047	1020.223
215.650	27.658	1253.916	1019.528
216.665	27.740	1252.564	1018.796
217.680	27.660	1252.231	1017.992
218.694	27.651	1251.497	1017.254
219.709	27.561	1250.845	1016.134
220.723	27.658	1250.082	1015.964
221.738	27.583	1249.294	1014.818
222.753	27.545	1248.476	1013.848
223.767	27.601	1248.054	1013.730
224.782	27.713	1247.419	1013.744
225.796	27.607	1247.077	1012.786
226.811	27.704	1246.036	1012.393
227.826	27.773	1245.187	1011.994
228.840	27.713	1244.685	1011.163
229.855	27.766	1244.299	1011.058
230.869	27.800	1243.716	1010.682
231.884	27.742	1242.934	1009.638
232.899	27.664	1242.053	1008.398
233.913	27.756	1241.532	1008.393
234.928	27.793	1241.002	1008.082
235.942	27.884	1240.411	1008.015
236.957	27.766	1239.738	1006.725
237.972	27.686	1239.006	1005.601
238.986	27.714	1238.180	1004.998
240.001	27.858	1237.620	1005.243
241.015	27.975	1236.676	1005.033
242.030	27.912	1236.315	1004.306
243.045	27.908	1235.123	1003.224
244.059	27.948	1234.328	1002.711
245.074	27.932	1233.589	1001.935
246.088	27.932	1232.783	1001.190
247.103	27.908	1232.083	1000.401
248.117	27.994	1231.397	1000.228
249.132	27.914	1230.623	999.072
250.147	27.952	1229.867	998.580
251.161	28.014	1229.168	998.263
252.176	27.971	1228.382	997.298
253.190	27.937	1227.605	996.394
254.205	27.911	1227.412	996.008
255.220	27.920	1226.612	995.322
256.234	27.901	1226.071	994.692
257.249	28.028	1225.523	994.847
258.263	27.904	1225.026	993.683
259.278	28.104	1224.103	993.930
260.293	27.939	1223.986	992.852
261.307	28.062	1223.166	992.768
262.322	28.120	1222.619	992.553
263.336	28.018	1221.988	991.398
264.351	28.030	1221.455	990.944
265.366	28.096	1220.695	990.593
266.380	28.130	1219.893	990.043
267.395	28.034	1219.370	989.009
268.409	28.031	1218.101	987.874
269.424	28.017	1217.802	987.469
270.439	28.025	1217.804	987.429
271.453	28.147	1216.973	987.325
272.468	28.103	1215.735	985.999
273.482	28.061	1215.159	985.216
274.497	28.114	1214.960	985.254
275.512	28.172	1214.632	985.214
276.526	28.067	1213.958	984.013
277.541	28.191	1212.891	983.725
278.555	28.179	1212.112	982.944
279.570	28.187	1211.591	982.479
280.585	28.114	1210.755	981.321
281.599	28.143	1209.773	980.592
282.614	28.173	1208.879	979.943
283.628	28.217	1207.984	979.366
284.643	28.191	1206.891	978.252
285.657	28.160	1206.422	977.622
286.672	28.143	1205.454	976.662
287.687	28.163	1204.660	976.040
288.701	28.303	1204.500	976.566
289.716	28.185	1203.004	974.640
290.730	28.283	1202.911	975.000
291.745	28.311	1201.938	974.275
292.760	28.303	1201.425	973.732
293.774	28.302	1200.913	973.224
294.789	28.318	1200.487	972.876
295.803	28.301	1199.891	972.218
296.818	28.300	1198.973	971.385
297.833	28.335	1198.480	971.083
298.847	28.371	1197.801	970.638
299.862	28.343	1196.721	969.526
300.876	28.359	1195.977	968.926
301.891	28.400	1195.622	968.769
302.906	28.382	1195.056	968.129
303.920	28.473	1194.519	968.091
304.935	28.407	1193.388	966.736
305.949	28.413	1192.905	966.293
306.964	28.339	1192.863	965.782
307.979	28.505	1191.506	965.474
308.993	28.495	1191.190	965.078
310.008	28.395	1190.412	963.839
311.022	28.453	1189.740	963.512
312.037	28.488	1189.066	963.064
313.052	28.419	1188.074	961.813
314.066	28.412	1187.334	961.092
315.081	28.539	1186.195	960.751
316.095	28.554	1186.194	960.746
317.110	28.572	1185.154	959.911
318.125	28.573	1184.623	959.401
319.139	28.615	1183.880	958.935
320.154	28.473	1183.436	957.747
321.168	28.457	1183.016	957.239
322.183	28.629	1182.191	957.384
323.197	28.638	1181.232	956.573
324.212	28.539	1181.000	955.781
325.227	28.637	1180.584	955.874
326.241	28.576	1180.439	955.353
327.256	28.593	1179.288	954.424
328.270	28.655	1178.026	953.639
329.285	28.709	1177.107	953.094
330.300	28.661	1176.418	952.204
331.314	28.701	1175.789	951.816
332.329	28.704	1175.283	951.337
333.343	28.719	1174.357	950.579
334.358	28.686	1173.679	949.779
335.373	28.734	1173.089	949.465
336.387	28.739	1172.346	948.806
337.402	28.778	1171.296	948.072
338.416	28.856	1170.823	948.006
339.431	28.858	1170.314	947.524
340.446	28.912	1169.578	947.123
341.460	28.818	1169.047	946.125
342.475	28.865	1168.145	945.553
343.489	28.853	1167.247	944.677
344.504	28.851	1166.734	944.170
345.519	28.963	1165.679	943.806
346.533	28.873	1164.781	942.538
347.548	28.945	1164.022	942.208
348.562	28.966	1163.165	941.539
349.577	28.944	1162.598	940.883
350.592	28.813	1161.998	939.643
351.606	28.858	1161.159	939.113
352.621	28.947	1160.455	938.915
353.635	28.901	1160.296	938.470
354.650	28.835	1159.668	937.538
355.665	29.066	1158.813	937.943
356.679	28.918	1158.236	936.640
357.694	29.056	1157.652	936.784
358.708	29.056	1156.566	935.823
359.723	28.927	1156.196	934.785
360.738	28.913	1155.961	934.440
361.752	28.965	1155.139	933.957
362.767	29.073	1154.550	933.950
363.781	29.077	1154.010	933.449
364.796	29.034	1153.284	932.563
365.810	29.172	1152.510	932.551
366.825	29.127	1152.011	931.838
367.840	29.209	1151.450	931.718
368.854	29.256	1151.259	931.715
369.869	29.190	1150.069	930.336
370.883	29.133	1149.432	929.452
371.898	29.112	1148.689	928.665
372.913	29.088	1148.166	928.038
373.927	29.326	1147.806	928.865
374.942	29.180	1147.362	927.685
375.956	29.207	1146.647	927.161
376.971	29.244	1145.976	926.727
377.986	29.198	1145.723	926.209
379.000	29.304	1145.449	926.438
380.015	29.414	1144.562	926.191
381.029	29.184	1144.097	924.576
382.044	29.300	1143.031	924.213
383.059	29.290	1142.435	923.601
384.073	29.392	1141.455	923.240
385.088	29.382	1140.942	922.690
386.102	29.365	1140.078	921.827
387.117	29.231	1139.309	920.454
388.132	29.190	1138.644	919.631
389.146	29.235	1138.237	919.442
390.161	29.379	1137.147	919.199
391.175	29.428	1136.324	918.696
392.190	29.403	1135.816	918.083
393.205	29.385	1134.895	917.164
394.219	29.271	1134.644	916.317
395.234	29.480	1133.910	916.682
396.248	29.392	1133.017	915.439
397.263	29.608	1131.679	915.349
398.278	29.410	1131.638	914.253
399.292	29.480	1130.941	913.957
400.307	29.494	1130.380	913.490
401.321	29.510	1129.646	912.895
402.336	29.414	1128.897	911.735
403.350	29.432	1128.076	911.081
404.365	29.536	1127.563	911.099
405.380	29.510	1126.856	910.318
406.394	29.465	1126.420	909.664
407.409	29.656	1125.388	909.688
408.423	29.701	1124.560	909.163
409.438	29.704	1123.937	908.591
410.453	29.702	1123.406	908.075
411.467	29.696	1122.288	907.057
412.482	29.639	1121.894	906.380
413.496	29.727	1120.915	905.940
414.511	29.724	1120.667	905.644
415.526	29.589	1120.125	904.464
416.540	29.675	1119.786	904.532
417.555	29.649	1119.253	903.895
418.569	29.720	1118.697	903.715
419.584	29.717	1118.400	903.379
420.599	29.698	1118.077	902.948
421.613	91.546	1308.737	1395.348
422.628	86.054	1336.516	1395.501
