DTS Sentinel unit serial number:	SN413079Multiplexer serial number:	ORYXHardware model number:	OX4-SRSoftware version number:	ORYX F/W v4.00 Oryx Data Collector v3.7.2.0data status	okinstallation	princeton_trtdifferential loss correction	single-endedforward channel	channel 2reverse channel	N/Adate	2019/09/13time	11:55:35forward acquisition time	60.00reverse acquisition time	0.00gamma	496.2192k internal	0.2316k external	0.2316temperature offset calibration	1.0214default loss term (dB/km)	0.3790temperature slope calibration	1.0000multiplexer offset coefficient	1.0000multiplexer slope coefficient	1.0000fibre end	0.00T internal ref (°C)	33.44T ext. ref 1 (°C)	4.59T ext. ref 2 (°C)	30.50length (m)	temperature (°C)	Stokes	anti-Stokes-747.200	102.461	-0.266	0.315
-746.185	63.746	0.242	0.246
-745.171	29.479	0.282	-0.243
-744.156	-200.000	0.009	0.337
-743.142	-200.000	0.004	-0.132
-742.127	458.672	-0.026	-0.058
-741.112	50.245	0.031	0.030
-740.098	51.535	0.055	-0.053
-739.083	-94.325	-0.062	0.017
-738.069	-103.717	0.272	0.065
-737.054	-161.964	0.292	-0.015
-736.039	800.000	0.059	0.178
-735.025	800.000	-0.078	0.288
-734.010	-88.214	0.066	-0.020
-732.996	-91.804	-0.223	-0.064
-731.981	-37.824	0.115	-0.062
-730.966	-132.035	-0.116	0.015
-729.952	-200.000	0.048	-0.302
-728.937	-155.650	0.342	-0.022
-727.923	139.217	0.231	0.307
-726.908	253.644	-0.074	-0.127
-725.894	-200.000	-0.005	-0.173
-724.879	-200.000	0.027	-0.180
-723.864	168.143	-0.108	-0.156
-722.850	-200.000	0.040	-0.484
-721.835	800.000	0.032	0.133
-720.821	423.684	0.026	0.057
-719.806	-162.146	-0.183	-0.009
-718.791	-200.000	-0.021	-0.234
-717.777	-109.855	0.280	0.060
-716.762	313.867	-0.063	-0.119
-715.748	800.000	0.031	-0.117
-714.733	-46.267	0.282	-0.140
-713.718	109.206	-0.062	0.075
-712.704	-111.558	0.284	0.058
-711.689	161.381	-0.152	0.215
-710.675	-19.343	0.086	-0.054
-709.660	800.000	-0.111	0.408
-708.645	-151.514	-0.061	-0.005
-707.631	75.202	-0.141	0.150
-706.616	-135.196	0.230	0.028
-705.602	-183.760	-0.110	-0.002
-704.587	602.981	-0.130	-0.326
-703.572	800.000	-0.043	-0.140
-702.558	800.000	-0.092	0.283
-701.543	-200.000	-0.008	-0.444
-700.529	-22.650	-0.364	-0.222
-699.514	355.409	0.104	-0.209
-698.499	73.387	-0.039	0.042
-697.485	39.163	-0.159	-0.144
-696.470	764.001	-0.135	-0.371
-695.456	357.116	-0.147	-0.297
-694.441	59.944	0.198	0.198
-693.426	-133.839	0.351	-0.044
-692.412	18.646	0.297	0.240
-691.397	-200.000	0.002	-0.104
-690.383	-123.206	0.295	-0.048
-689.368	-200.000	-0.035	-0.392
-688.354	26.981	0.155	-0.131
-687.339	-70.754	-0.221	-0.084
-686.324	-82.503	-0.276	-0.090
-685.310	-200.000	0.013	0.273
-684.295	800.000	-0.018	0.069
-683.281	-75.157	-0.393	-0.142
-682.266	-164.568	-0.172	0.008
-681.251	-200.000	-0.010	-0.105
-680.237	-200.000	0.026	0.147
-679.222	-8.502	0.212	0.144
-678.208	573.735	-0.137	0.339
-677.193	728.985	0.041	-0.111
-676.178	-85.718	0.057	0.018
-675.164	-4.726	0.057	-0.040
-674.149	108.278	0.135	0.162
-673.135	210.972	-0.142	-0.225
-672.120	-200.000	-0.011	-0.262
-671.105	-33.122	-0.097	0.054
-670.091	204.710	0.166	-0.261
-669.076	-26.969	0.108	0.064
-668.062	212.136	-0.199	-0.317
-667.047	101.552	0.148	-0.175
-666.032	800.000	0.105	0.337
-665.018	-141.900	0.158	0.016
-664.003	-200.000	-0.035	-0.251
-662.989	-76.888	-0.058	-0.021
-661.974	-80.803	0.161	0.054
-660.959	-3.523	0.057	0.040
-659.945	186.386	0.084	0.127
-658.930	-200.000	0.002	0.343
-657.916	-74.801	0.342	0.124
-656.901	-96.555	0.374	0.100
-655.886	-200.000	0.011	-0.217
-654.872	-53.312	-0.533	-0.246
-653.857	-87.730	-0.394	-0.120
-652.843	-95.029	-0.057	-0.016
-651.828	-1.806	0.144	-0.103
-650.814	-200.000	-0.055	-0.274
-649.799	-64.753	-0.370	-0.151
-648.784	-70.298	-0.136	0.052
-647.770	169.678	0.123	-0.177
-646.755	153.946	-0.177	0.245
-645.741	60.126	-0.107	-0.106
-644.726	249.012	0.050	0.085
-643.711	-200.000	0.131	0.595
-642.697	-112.346	0.309	0.062
-641.682	20.476	0.106	-0.086
-640.668	-18.137	0.170	0.107
-639.653	77.903	-0.133	0.143
-638.638	199.922	0.082	-0.126
-637.624	282.360	0.102	-0.185
-636.609	222.951	0.072	0.117
-635.595	-118.967	-0.127	-0.023
-634.580	800.000	-0.078	-0.231
-633.565	-75.900	-0.077	-0.027
-632.551	-58.070	-0.130	0.057
-631.536	800.000	-0.024	0.066
-630.522	-23.744	-0.191	0.115
-629.507	-200.000	-0.021	0.106
-628.492	-60.625	-0.145	0.062
-627.478	254.986	-0.086	0.148
-626.463	-146.881	-0.368	0.032
-625.449	84.807	-0.152	-0.168
-624.434	221.432	-0.121	-0.196
-623.419	800.000	0.061	-0.185
-622.405	11.699	-0.178	-0.138
-621.390	-29.401	-0.302	0.174
-620.376	-200.000	0.041	0.470
-619.361	-141.325	-0.179	-0.018
-618.346	177.904	0.174	-0.255
-617.332	800.000	-0.067	-0.189
-616.317	58.659	-0.149	-0.148
-615.303	171.416	-0.086	-0.125
-614.288	-3.025	0.422	-0.297
-613.273	554.545	0.080	-0.193
-612.259	-32.363	-0.152	0.085
-611.244	179.912	0.085	-0.125
-610.230	-36.348	0.086	-0.047
-609.215	0.281	0.127	-0.091
-608.201	93.845	-0.144	0.165
-607.186	204.052	-0.146	0.228
-606.171	-200.000	-0.032	-0.152
-605.157	-31.195	-0.136	0.077
-604.142	36.424	0.253	-0.224
-603.128	-47.876	-0.144	-0.070
-602.113	-139.480	-0.243	-0.026
-601.098	-140.346	0.097	0.010
-600.084	-162.726	-0.372	-0.018
-599.069	467.993	-0.052	-0.117
-598.055	800.000	-0.059	-0.202
-597.040	-80.302	0.140	-0.047
-596.025	-59.636	-0.197	0.085
-595.011	-200.000	-0.002	0.059
-593.996	-200.000	-0.055	0.255
-592.982	439.610	-0.123	-0.271
-591.967	-30.638	-0.140	0.080
-590.952	-149.998	-0.368	-0.029
-589.938	-38.354	0.056	-0.030
-588.923	-64.849	0.046	0.019
-587.909	118.539	-0.107	-0.133
-586.894	-75.357	-0.086	0.031
-585.879	-112.371	0.281	0.057
-584.865	-147.845	0.125	0.011
-583.850	-100.698	-0.290	0.072
-582.836	173.747	0.074	-0.107
-581.821	-200.000	0.016	0.266
-580.806	332.287	0.022	0.042
-579.792	399.352	0.038	0.080
-578.777	-200.000	-0.068	0.402
-577.763	281.536	0.058	-0.105
-576.748	-162.938	0.285	-0.014
-575.733	-179.370	-0.206	-0.005
-574.719	-200.000	-0.011	0.277
-573.704	-200.000	-0.015	0.230
-572.690	-125.971	-0.040	0.006
-571.675	-41.279	-0.221	-0.115
-570.661	-98.179	-0.029	0.008
-569.646	-138.717	-0.224	0.025
-568.631	-68.151	-0.214	-0.084
-567.617	-98.257	0.205	-0.053
-566.602	800.000	0.048	-0.161
-565.588	428.179	-0.260	-0.565
-564.573	-23.758	-0.294	-0.177
-563.558	-200.000	-0.026	0.115
-562.544	-129.165	0.310	-0.044
-561.529	-200.000	0.046	0.298
-560.515	800.000	-0.078	0.224
-559.500	528.398	-0.163	-0.387
-558.485	17.458	-0.348	0.278
-557.471	800.000	0.018	-0.061
-556.456	-90.497	-0.147	-0.043
-555.442	-57.893	0.211	-0.093
-554.427	-123.228	0.367	-0.059
-553.412	350.875	0.090	-0.179
-552.398	-200.000	-0.025	-0.446
-551.383	-66.030	-0.118	0.047
-550.369	-200.000	0.012	0.143
-549.354	-200.000	0.043	-0.234
-548.339	-91.342	0.147	-0.042
-547.325	261.063	-0.102	0.177
-546.310	800.000	-0.056	-0.174
-545.296	-116.383	0.353	-0.066
-544.281	-21.021	0.117	0.072
-543.266	800.000	0.093	0.343
-542.252	-19.938	-0.262	0.162
-541.237	800.000	-0.033	-0.128
-540.223	135.140	0.038	-0.050
-539.208	-120.344	-0.334	-0.057
-538.193	59.792	0.269	0.267
-537.179	11.116	0.230	-0.177
-536.164	-200.000	0.009	-0.066
-535.150	232.079	0.031	0.051
-534.135	-200.000	0.069	-0.444
-533.121	-39.854	-0.131	-0.069
-532.106	293.999	-0.067	-0.123
-531.091	-41.364	-0.293	-0.151
-530.077	-2.785	-0.176	-0.123
-529.062	73.452	-0.127	0.134
-528.048	-52.209	0.124	-0.058
-527.033	-132.268	0.170	-0.022
-526.018	-74.056	-0.208	-0.076
-525.004	-34.897	0.207	-0.114
-523.989	268.320	-0.299	-0.526
-522.975	230.136	0.143	0.235
-521.960	632.751	0.022	0.057
-520.945	-200.000	0.011	0.126
-519.931	800.000	-0.115	0.433
-518.916	57.350	-0.186	0.182
-517.902	196.251	0.191	0.291
-516.887	-6.614	-0.119	0.081
-515.872	-200.000	0.155	0.000
-514.858	-37.928	0.210	-0.112
-513.843	-200.000	0.014	0.291
-512.829	209.344	-0.078	-0.122
-511.814	-57.677	0.299	-0.131
-510.799	9.059	-0.141	-0.107
-509.785	-161.947	0.097	0.005
-508.770	-98.130	0.175	-0.045
-507.756	230.794	0.083	0.136
-506.741	800.000	0.129	-0.435
-505.726	800.000	-0.059	-0.194
-504.712	-117.522	-0.317	-0.058
-503.697	118.461	-0.123	-0.152
-502.683	-18.339	0.300	-0.188
-501.668	58.736	-0.048	0.047
-500.653	-53.473	0.282	-0.130
-499.639	-200.000	0.060	-0.406
-498.624	-42.778	0.297	-0.151
-497.610	-200.000	0.004	-0.106
-496.595	47.439	0.328	-0.306
-495.581	489.062	-0.151	-0.346
-494.566	1.714	0.157	-0.114
-493.551	-99.707	-0.124	-0.031
-492.537	-52.661	-0.085	0.039
-491.522	-96.033	0.124	-0.033
-490.508	-148.502	0.273	0.022
-489.493	-85.727	-0.144	0.045
-488.478	-42.314	-0.357	-0.183
-487.464	-125.805	-0.319	0.048
-486.449	9.672	-0.211	-0.160
-485.435	-118.947	-0.191	0.034
-484.420	-26.637	0.258	0.151
-483.405	325.943	0.128	0.246
-482.391	-200.000	0.031	-0.200
-481.376	-33.699	0.040	-0.022
-480.362	10.571	-0.062	-0.048
-479.347	-117.613	-0.178	-0.032
-478.332	118.100	0.163	0.202
-477.318	-12.249	-0.232	0.152
-476.303	751.640	-0.086	0.234
-475.289	24.344	-0.130	-0.108
-474.274	309.004	-0.134	0.250
-473.259	-160.885	0.127	0.007
-472.245	-126.621	-0.236	-0.035
-471.230	115.382	0.083	0.101
-470.216	48.028	0.168	-0.158
-469.201	-200.000	0.076	-0.379
-468.186	-60.356	-0.439	-0.187
-467.172	-10.600	0.142	0.094
-466.157	111.597	-0.154	-0.186
-465.143	324.302	0.045	-0.087
-464.128	-46.577	0.120	-0.059
-463.113	-84.919	0.234	-0.074
-462.099	-79.901	0.096	-0.032
-461.084	59.063	-0.132	-0.130
-460.070	-166.370	-0.182	-0.008
-459.055	231.071	0.065	0.106
-458.040	189.136	-0.060	-0.090
-457.026	25.640	0.144	-0.120
-456.011	244.162	0.116	0.195
-454.997	416.406	-0.079	-0.168
-453.982	-53.876	0.144	0.066
-452.968	800.000	-0.066	-0.257
-451.953	-200.000	0.043	0.366
-450.938	-200.000	-0.029	0.169
-449.924	-37.644	0.203	0.108
-448.909	-69.028	0.112	0.043
-447.895	-39.864	-0.213	-0.111
-446.880	-200.000	-0.021	-0.154
-445.865	756.431	0.069	0.188
-444.851	-7.651	-0.144	-0.097
-443.836	-94.003	-0.229	0.063
-442.822	-39.326	-0.090	0.047
-441.807	-153.281	-0.023	-0.002
-440.792	-87.839	0.044	-0.013
-439.778	-200.000	-0.001	-0.320
-438.763	548.201	0.113	-0.270
-437.749	-95.192	0.258	-0.070
-436.734	-84.706	0.387	-0.122
-435.719	-200.000	0.043	-0.279
-434.705	511.208	0.132	0.308
-433.690	-76.574	-0.223	0.078
-432.676	57.776	-0.116	0.113
-431.661	-112.412	0.263	0.053
-430.646	43.040	0.123	-0.112
-429.632	-200.000	-0.044	0.306
-428.617	-7.092	0.106	-0.072
-427.603	288.083	-0.229	-0.414
-426.588	-44.940	0.312	-0.155
-425.573	406.962	0.087	-0.184
-424.559	-98.673	-0.686	-0.175
-423.544	300.641	-0.225	0.415
-422.530	800.000	-0.089	0.315
-421.515	-130.934	-0.167	0.022
-420.500	646.060	-0.123	0.314
-419.486	-122.505	-0.185	-0.030
-418.471	-141.172	-0.123	-0.013
-417.457	7.165	0.251	-0.187
-416.442	-128.673	0.290	-0.041
-415.428	124.316	-0.075	-0.094
-414.413	-93.225	0.184	0.051
-413.398	447.367	-0.158	-0.347
-412.384	-24.470	0.208	-0.124
-411.369	30.814	0.302	0.259
-410.355	800.000	0.057	0.168
-409.340	-61.974	-0.071	-0.030
-408.325	-100.432	0.471	-0.117
-407.311	-75.423	-0.174	-0.062
-406.296	16.279	-0.247	0.194
-405.282	742.010	0.133	0.358
-404.267	-118.295	0.085	-0.015
-403.252	711.200	-0.059	-0.157
-402.238	219.120	-0.169	-0.270
-401.223	19.099	-0.062	-0.050
-400.209	-130.703	0.116	-0.016
-399.194	800.000	0.063	0.271
-398.179	342.745	0.036	-0.070
-397.165	194.974	0.080	0.121
-396.150	-200.000	0.003	0.125
-395.136	470.113	0.216	0.485
-394.121	-200.000	0.047	-0.291
-393.106	-26.447	-0.123	-0.072
-392.092	86.776	0.292	0.322
-391.077	100.198	0.093	0.108
-390.063	-162.836	-0.098	0.005
-389.048	-200.000	0.077	-0.000
-388.033	-144.027	0.279	0.026
-387.019	61.034	0.147	0.145
-386.004	101.694	-0.185	-0.215
-384.990	-200.000	0.014	0.155
-383.975	-58.687	-0.075	0.033
-382.960	162.413	0.088	-0.123
-381.946	10.306	-0.167	-0.127
-380.931	54.410	0.113	-0.108
-379.917	-200.000	-0.049	-0.511
-378.902	-56.786	0.107	0.047
-377.888	-146.567	-0.024	-0.002
-376.873	-76.326	0.095	0.033
-375.858	-200.000	0.114	0.553
-374.844	181.896	-0.074	0.109
-373.829	-64.059	0.117	-0.048
-372.815	-28.141	-0.019	0.011
-371.800	-120.991	0.096	-0.016
-370.785	35.450	-0.060	-0.053
-369.771	-103.273	-0.145	0.034
-368.756	-77.500	0.245	-0.085
-367.742	-154.088	-0.396	-0.027
-366.727	-13.476	0.151	-0.098
-365.712	163.147	-0.056	-0.078
-364.698	5.898	0.324	0.239
-363.683	-200.000	-0.017	0.096
-362.669	643.922	0.068	0.174
-361.654	-164.066	0.016	-0.001
-360.639	238.324	-0.023	-0.038
-359.625	-172.134	0.202	-0.007
-358.610	-200.000	-0.025	-0.254
-357.596	256.555	0.071	-0.122
-356.581	-110.217	0.114	0.024
-355.566	-19.553	-0.076	-0.047
-354.552	-161.599	0.400	-0.020
-353.537	-142.314	0.234	0.023
-352.523	-173.702	-0.345	0.010
-351.508	-5.850	0.373	0.254
-350.493	122.613	0.121	0.151
-349.479	348.490	-0.172	0.338
-348.464	71.047	0.155	-0.160
-347.450	-85.726	-0.141	0.044
-346.435	-71.235	-0.082	0.031
-345.420	352.213	0.088	0.174
-344.406	-55.773	0.318	-0.142
-343.391	800.000	-0.058	-0.238
-342.377	87.874	0.126	0.139
-341.362	800.000	0.105	-0.359
-340.348	188.508	-0.139	-0.208
-339.333	-70.225	0.158	0.060
-338.318	-200.000	0.047	-0.250
-337.304	-200.000	-0.002	-0.229
-336.289	800.000	-0.047	-0.146
-335.275	-88.009	-0.454	-0.136
-334.260	-200.000	-0.042	-0.377
-333.245	-80.245	0.093	0.031
-332.231	-200.000	-0.021	0.099
-331.216	156.246	0.144	0.197
-330.202	216.383	0.228	0.362
-329.187	-6.421	-0.182	0.123
-328.172	-23.536	0.085	-0.051
-327.158	103.702	0.210	-0.246
-326.143	-76.021	-0.195	0.069
-325.129	341.019	-0.051	-0.100
-324.114	-91.710	0.572	0.162
-323.099	-97.751	0.101	-0.026
-322.085	-90.698	-0.079	-0.023
-321.070	43.055	0.262	0.238
-320.056	350.309	-0.111	0.218
-319.041	800.000	-0.060	0.202
-318.026	126.821	0.073	0.092
-317.012	-109.179	0.327	0.069
-315.997	-65.642	0.464	0.185
-314.983	273.119	0.063	-0.111
-313.968	-99.511	-0.311	0.078
-312.953	52.435	0.127	-0.120
-311.939	255.218	0.024	-0.041
-310.924	-162.614	0.103	-0.005
-309.910	800.000	0.114	0.328
-308.895	442.413	-0.057	-0.124
-307.880	-19.189	-0.147	-0.091
-306.866	-92.344	-0.330	0.093
-305.851	800.000	0.049	0.142
-304.837	-25.794	0.294	-0.172
-303.822	-64.934	0.229	0.092
-302.807	800.000	-0.133	0.367
-301.793	-49.094	-0.233	0.111
-300.778	39.901	0.181	-0.161
-299.764	-56.381	-0.199	0.088
-298.749	-84.896	0.096	-0.030
-297.735	172.683	-0.045	0.065
-296.720	209.744	0.080	0.125
-295.705	-200.000	-0.009	-0.050
-294.691	22.916	-0.130	-0.106
-293.676	-200.000	-0.014	0.160
-292.662	-101.636	0.341	-0.082
-291.647	52.616	-0.196	-0.186
-290.632	-1.124	0.131	-0.092
-289.618	800.000	0.065	-0.215
-288.603	4.076	-0.078	-0.057
-287.589	800.000	-0.048	0.158
-286.574	-81.452	0.437	0.143
-285.559	231.434	-0.173	-0.282
-284.545	-200.000	0.003	0.256
-283.530	-95.992	-0.271	-0.072
-282.516	4.455	0.258	0.188
-281.501	-192.267	-0.106	-0.001
-280.486	-200.000	-0.045	0.211
-279.472	105.279	0.071	-0.083
-278.457	-103.561	-0.286	-0.067
-277.443	-147.837	-0.285	-0.024
-276.428	-151.929	0.236	-0.017
-275.413	800.000	0.044	-0.129
-274.399	264.923	-0.076	-0.131
-273.384	-85.971	0.545	0.168
-272.370	-8.515	-0.217	0.145
-271.355	800.000	-0.089	0.287
-270.340	343.557	0.055	0.108
-269.326	-153.671	0.148	0.010
-268.311	-16.055	0.253	-0.160
-267.297	-200.000	-0.006	0.062
-266.282	14.090	0.105	-0.081
-265.267	-11.150	-0.395	0.259
-264.253	800.000	-0.062	-0.219
-263.238	598.393	0.066	-0.162
-262.224	14.369	0.131	0.101
-261.209	306.850	0.031	0.058
-260.195	136.402	0.092	0.119
-259.180	370.787	0.046	0.092
-258.165	34.993	-0.264	0.230
-257.151	800.000	0.011	0.041
-256.136	-200.000	-0.012	-0.161
-255.122	-176.922	-0.312	-0.008
-254.107	9.171	-0.062	0.046
-253.092	-200.000	0.004	-0.135
-252.078	-82.278	-0.275	0.089
-251.063	-46.857	0.194	-0.094
-250.049	201.880	-0.130	0.199
-249.034	100.902	-0.025	0.029
-248.019	-132.863	0.088	-0.011
-247.005	272.909	0.056	0.098
-245.990	237.871	0.119	0.195
-244.976	-200.000	-0.010	-0.205
-243.961	8.276	-0.314	0.234
-242.946	2.364	-0.140	0.100
-241.932	-109.242	0.147	0.031
-240.917	43.587	0.141	-0.128
-239.903	800.000	-0.026	0.111
-238.888	269.525	0.178	0.311
-237.873	-60.459	-0.227	0.096
-236.859	76.530	0.024	0.025
-235.844	-139.038	0.099	-0.011
-234.830	-34.580	-0.112	-0.061
-233.815	628.811	-0.127	-0.320
-232.800	-119.533	-0.228	-0.039
-231.786	800.000	-0.026	0.106
-230.771	-47.319	0.134	0.065
-229.757	36.620	-0.193	0.169
-228.742	-97.218	-0.338	-0.088
-227.727	-49.602	-0.366	-0.173
-226.713	8.018	-0.186	-0.138
-225.698	-56.291	0.220	-0.097
-224.684	-200.000	-0.036	0.382
-223.669	800.000	-0.109	0.301
-222.655	225.619	-0.115	0.185
-221.640	-90.572	0.154	0.044
-220.625	233.537	0.148	0.242
-219.611	413.948	0.187	0.395
-218.596	800.000	-0.061	0.263
-217.582	347.687	-0.091	-0.177
-216.567	201.203	0.205	0.313
-215.552	45.543	0.106	0.097
-214.538	-35.629	-0.260	0.140
-213.523	800.000	-0.122	0.511
-212.509	49.448	-0.022	0.021
-211.494	-200.000	0.033	-0.317
-210.479	-77.199	-0.105	0.036
-209.465	106.704	-0.064	0.075
-208.450	110.293	-0.293	-0.349
-207.436	-84.829	-0.153	-0.048
-206.421	-101.058	0.074	-0.018
-205.406	-55.255	0.055	-0.025
-204.392	749.190	-0.027	-0.071
-203.377	-122.212	0.075	0.012
-202.363	-17.354	0.297	-0.186
-201.348	35.952	0.190	0.165
-200.333	691.121	-0.114	0.296
-199.319	-200.000	-0.007	-0.084
-198.304	78.813	0.005	-0.005
-197.290	800.000	-0.061	-0.241
-196.275	-200.000	-0.003	-0.115
-195.260	800.000	0.043	-0.142
-194.246	164.748	0.053	0.075
-193.231	-41.544	-0.306	-0.156
-192.217	44.521	-0.143	0.130
-191.202	800.000	-0.082	0.342
-190.187	-133.824	0.240	0.030
-189.173	422.361	-0.104	-0.221
-188.158	800.000	-0.149	-0.425
-187.144	670.158	-0.049	0.125
-186.129	162.405	-0.146	-0.202
-185.114	-93.164	-0.291	0.080
-184.100	-200.000	0.012	-0.070
-183.085	-200.000	-0.012	0.284
-182.071	7.668	-0.051	0.038
-181.056	-146.899	-0.336	-0.029
-180.042	-200.000	-0.037	0.204
-179.027	-127.052	-0.119	0.017
-178.012	71.880	0.081	0.083
-176.998	-107.583	0.285	0.062
-175.983	-27.733	0.267	-0.153
-174.969	-32.263	0.102	0.056
-173.954	800.000	-0.090	-0.251
-172.939	800.000	-0.047	-0.144
-171.925	-158.721	0.122	-0.007
-170.910	-77.144	0.305	-0.105
-169.896	153.270	0.123	0.167
-168.881	-76.930	-0.057	0.020
-167.866	100.540	-0.335	-0.385
-166.852	-178.996	0.218	-0.005
-165.837	-75.596	0.138	0.049
-164.823	-199.203	-0.249	-0.001
-163.808	130.861	0.170	0.216
-162.793	-200.000	0.005	0.205
-161.779	239.173	0.116	-0.191
-160.764	518.746	-0.058	0.134
-159.750	-82.144	-0.199	0.064
-158.735	-169.134	-0.165	-0.006
-157.720	-19.110	0.191	-0.117
-156.706	-56.243	0.307	0.135
-155.691	114.293	-0.149	0.180
-154.677	136.872	0.116	0.151
-153.662	-200.000	0.033	-0.158
-152.647	-100.560	0.170	-0.042
-151.633	-135.604	0.414	0.049
-150.618	-24.570	0.017	-0.010
-149.604	-200.000	-0.012	-0.108
-148.589	-52.249	-0.148	0.068
-147.574	-123.663	-0.195	0.031
-146.560	800.000	0.057	-0.214
-145.545	204.175	0.161	-0.246
-144.531	-200.000	-0.025	-0.129
-143.516	-28.713	0.288	0.164
-142.502	800.000	-0.094	-0.345
-141.487	649.718	0.128	-0.324
-140.472	472.229	-0.118	0.263
-139.458	-200.000	-0.020	0.408
-138.443	-75.984	-0.044	-0.016
-137.429	-200.000	-0.003	-0.049
-136.414	654.377	0.051	0.130
-135.399	87.195	-0.088	0.096
-134.385	-14.276	0.213	-0.136
-133.370	800.000	0.046	0.146
-132.356	-118.205	0.109	-0.019
-131.341	-98.641	-0.262	0.066
-130.326	148.697	0.309	0.413
-129.312	600.835	0.229	-0.561
-128.297	92.007	0.065	-0.072
-127.283	-200.000	-0.010	-0.095
-126.268	-39.601	-0.108	0.056
-125.253	566.096	0.172	0.412
-124.239	-132.796	0.299	0.038
-123.224	-98.185	0.149	-0.038
-122.210	-200.000	0.011	0.122
-121.195	197.876	0.095	-0.143
-120.180	-99.149	0.281	0.070
-119.166	-39.609	-0.147	-0.076
-118.151	-200.000	0.001	-0.024
-117.137	-91.141	0.123	-0.035
-116.122	-56.715	0.105	0.046
-115.107	18.876	0.325	-0.257
-114.093	-19.296	0.272	-0.167
-113.078	149.348	-0.111	-0.148
-112.064	50.589	-0.081	0.076
-111.049	-200.000	-0.009	0.095
-110.034	1.168	0.329	0.233
-109.020	-71.295	0.319	-0.118
-108.005	93.155	0.080	0.089
-106.991	422.530	-0.073	0.156
-105.976	19.369	-0.080	0.064
-104.962	-200.000	-0.017	-0.173
-103.947	-84.751	0.028	-0.009
-102.932	90.866	-0.251	-0.278
-101.918	639.823	0.067	-0.167
-100.903	15.406	0.129	0.100
-99.889	-87.566	0.213	0.063
-98.874	-35.052	0.090	-0.049
-97.859	-3.759	0.176	-0.121
-96.845	-200.000	0.032	-0.294
-95.830	76.953	0.292	-0.307
-94.816	-81.060	0.199	-0.065
-93.801	-103.708	0.276	-0.064
-92.786	-22.962	0.208	0.124
-91.772	114.818	-0.153	0.184
-90.757	390.561	0.063	0.130
-89.743	-23.061	0.108	-0.064
-88.728	677.336	0.022	0.055
-87.713	195.660	-0.247	-0.370
-86.699	174.112	0.107	0.153
-85.684	-44.996	0.296	-0.145
-84.670	675.852	0.102	-0.261
-83.655	9.139	-0.032	0.024
-82.640	162.927	-0.057	-0.079
-81.626	462.175	0.186	0.409
-80.611	-136.177	-0.312	0.036
-79.597	114.182	0.190	-0.228
-78.582	365.922	0.166	0.331
-77.567	-200.000	0.030	0.332
-76.553	800.000	-0.113	0.356
-75.538	-62.596	0.353	0.145
-74.524	64.954	0.319	-0.318
-73.509	428.500	-0.039	0.083
-72.494	800.000	-0.017	-0.047
-71.480	-133.761	-0.310	0.038
-70.465	-200.000	-0.118	0.656
-69.451	26.105	0.174	-0.143
-68.436	800.000	-0.032	-0.097
-67.422	154.056	0.088	0.119
-66.407	-112.835	0.052	0.010
-65.392	-200.000	0.000	-0.124
-64.378	-200.000	-0.021	-0.179
-63.363	-200.000	0.025	0.128
-62.349	800.000	0.120	0.356
-61.334	323.072	-0.610	-1.146
-60.319	-177.717	0.431	0.010
-59.305	338.477	-0.246	-0.472
-58.290	800.000	0.512	1.549
-57.276	-200.000	0.334	1.531
-56.261	-200.000	97.869	581.957
-55.246	606.653	1429.730	3513.508
-54.232	181.093	2649.497	3838.424
-53.217	111.996	2324.499	2768.137
-52.203	42.698	1933.869	1735.809
-51.188	36.593	1721.195	1497.751
-50.173	33.906	1676.764	1438.720
-49.159	51.489	1725.829	1616.214
-48.144	53.992	1742.297	1650.764
-47.130	36.302	1699.218	1476.172
-46.115	33.484	1684.032	1441.518
-45.100	33.354	1678.846	1436.037
-44.086	33.256	1677.089	1433.732
-43.071	33.282	1674.141	1431.354
-42.057	33.246	1671.458	1428.732
-41.042	33.306	1669.384	1427.355
-40.027	33.285	1667.181	1425.255
-39.013	33.369	1664.782	1423.778
-37.998	33.308	1663.343	1422.031
-36.984	33.310	1662.465	1421.243
-35.969	33.430	1660.884	1420.732
-34.954	33.521	1658.762	1419.541
-33.940	33.472	1657.215	1417.798
-32.925	33.481	1655.297	1416.170
-31.911	33.432	1653.571	1414.266
-30.896	33.408	1652.406	1413.033
-29.881	33.392	1650.216	1410.987
-28.867	33.415	1648.869	1409.954
-27.852	33.440	1646.739	1408.262
-26.838	33.476	1644.949	1406.941
-25.823	33.417	1643.968	1405.609
-24.809	33.544	1642.352	1405.113
-23.794	33.381	1641.333	1402.977
-22.779	33.378	1639.937	1401.707
-21.765	33.510	1637.818	1400.813
-20.750	33.364	1636.594	1398.631
-19.736	33.492	1634.473	1397.713
-18.721	33.516	1633.130	1396.683
-17.706	33.483	1631.958	1395.380
-16.692	33.406	1630.112	1393.183
-15.677	33.463	1628.516	1392.181
-14.663	33.414	1627.626	1391.004
-13.648	33.442	1626.055	1389.816
-12.633	33.480	1624.280	1388.522
-11.619	33.385	1623.071	1386.737
-10.604	33.475	1621.330	1385.853
-9.590	33.562	1619.795	1385.121
-8.575	33.602	1618.639	1384.366
-7.560	33.472	1617.533	1382.422
-6.546	33.496	1616.445	1381.611
-5.531	33.376	1615.864	1380.183
-4.517	33.441	1614.003	1379.010
-3.502	33.470	1613.144	1378.434
-2.487	33.538	1611.651	1377.600
-1.473	33.386	1600.004	1366.495
-0.458	30.779	1580.183	1330.899
0.556	29.537	1579.988	1296.096
1.571	27.067	1603.807	1297.896
2.586	26.108	1615.726	1300.523
3.600	22.559	1561.136	1231.708
4.615	13.612	1449.485	1085.190
5.629	6.005	1383.651	988.101
6.644	4.635	1374.920	973.211
7.659	4.522	1374.087	971.825
8.673	4.613	1372.592	971.251
9.688	4.600	1371.409	970.248
10.702	4.545	1368.912	968.053
11.717	8.286	1375.514	996.013
12.731	16.982	1391.550	1062.215
13.746	22.505	1400.466	1103.626
14.761	22.789	1399.784	1104.772
15.775	22.091	1397.600	1098.589
16.790	21.032	1395.019	1089.844
17.804	20.349	1392.427	1083.463
18.819	19.897	1391.753	1080.026
19.834	19.731	1390.577	1077.982
20.848	19.695	1389.496	1076.822
21.863	19.544	1388.197	1074.779
22.877	19.536	1386.515	1073.331
23.892	19.376	1386.114	1071.933
24.907	19.271	1385.358	1070.605
25.921	19.233	1384.690	1069.757
26.936	19.369	1383.394	1069.501
27.950	19.396	1382.296	1068.728
28.965	19.488	1381.411	1068.519
29.980	19.703	1379.489	1068.263
30.994	19.807	1378.912	1068.367
32.009	19.776	1377.824	1067.241
33.023	19.771	1376.663	1066.211
34.038	19.647	1375.507	1064.462
35.053	19.530	1373.967	1062.453
36.067	19.447	1373.444	1061.446
37.082	19.537	1372.805	1061.412
38.096	19.562	1371.528	1060.480
39.111	19.705	1370.284	1060.307
40.126	19.461	1369.452	1058.074
41.140	19.273	1368.368	1055.989
42.155	19.138	1367.453	1054.358
43.169	19.054	1367.677	1053.928
44.184	19.074	1366.946	1053.391
45.199	19.047	1366.896	1053.095
46.213	19.143	1367.062	1053.715
47.228	19.511	1365.106	1054.364
48.242	19.482	1364.821	1053.872
49.257	19.494	1363.043	1052.478
50.271	19.514	1361.368	1051.214
51.286	19.445	1360.240	1049.831
52.301	19.417	1359.251	1048.808
53.315	19.421	1357.881	1047.683
54.330	19.217	1356.920	1045.606
55.344	19.087	1355.870	1043.921
56.359	19.148	1354.535	1043.168
57.374	19.158	1353.550	1042.380
58.388	18.921	1353.275	1040.638
59.403	18.969	1352.906	1040.552
60.417	19.004	1351.474	1039.570
61.432	18.870	1350.706	1038.078
62.447	18.888	1349.550	1037.209
63.461	18.815	1348.225	1035.658
64.476	18.844	1347.149	1034.913
65.490	18.804	1346.337	1033.960
66.505	18.841	1344.208	1032.451
67.520	18.917	1343.389	1032.192
68.534	18.840	1342.404	1030.882
69.549	18.756	1342.029	1029.998
70.563	18.787	1340.345	1028.798
71.578	18.661	1339.133	1027.021
72.593	18.510	1339.106	1026.010
73.607	18.553	1337.784	1025.159
74.622	18.636	1336.536	1024.612
75.636	18.671	1336.051	1024.356
76.651	18.728	1335.040	1023.831
77.666	18.761	1334.841	1023.785
78.680	18.872	1334.249	1023.902
79.695	18.810	1333.887	1023.164
80.709	18.970	1333.422	1023.671
81.724	19.103	1332.621	1023.755
82.739	19.222	1331.707	1023.667
83.753	19.295	1331.137	1023.576
84.768	19.509	1329.834	1023.748
85.782	19.570	1329.136	1023.483
86.797	19.708	1327.243	1022.756
87.812	19.472	1326.484	1020.682
88.826	19.455	1325.234	1019.530
89.841	19.423	1324.409	1018.615
90.855	19.648	1323.109	1018.850
91.870	19.695	1322.261	1018.385
92.884	19.681	1321.354	1017.515
93.899	19.594	1320.767	1016.458
94.914	19.724	1319.792	1016.384
95.928	19.615	1319.069	1015.097
96.943	19.626	1318.127	1014.349
97.957	19.628	1317.361	1013.678
98.972	19.563	1316.305	1012.399
99.987	19.555	1315.324	1011.503
101.001	19.651	1313.943	1010.917
102.016	19.679	1313.190	1010.412
103.030	19.639	1312.110	1009.254
104.045	19.616	1311.305	1008.415
105.060	19.457	1310.196	1006.542
106.074	19.235	1308.375	1003.763
107.089	18.904	1306.775	1000.523
108.103	18.788	1305.807	999.019
109.118	18.845	1304.385	998.171
110.133	18.853	1303.234	997.250
111.147	18.915	1301.797	996.421
112.162	18.933	1300.151	995.175
113.176	19.009	1299.857	995.302
114.191	19.094	1299.056	995.093
115.206	18.994	1298.045	993.653
116.220	18.944	1296.504	992.098
117.235	18.968	1295.074	991.051
118.249	18.990	1294.571	990.711
119.264	18.874	1293.130	988.852
120.279	18.831	1291.711	987.429
121.293	18.799	1290.810	986.468
122.308	18.749	1289.762	985.296
123.322	18.745	1288.285	984.057
124.337	18.701	1287.457	983.087
125.352	18.641	1286.289	981.762
126.366	18.769	1284.752	981.237
127.381	18.624	1284.310	979.983
128.395	18.617	1283.549	979.277
129.410	18.765	1282.039	978.880
130.424	18.801	1281.598	978.664
131.439	18.900	1281.109	978.764
132.454	19.028	1279.959	978.529
133.468	19.031	1278.778	977.553
134.483	19.074	1278.317	977.359
135.497	19.077	1277.483	976.657
136.512	19.061	1276.126	975.436
137.527	19.009	1275.188	974.342
138.541	19.154	1273.378	973.693
139.556	19.154	1272.977	973.297
140.570	19.246	1271.716	972.771
141.585	19.384	1270.364	972.428
142.600	19.381	1269.587	971.731
143.614	19.558	1268.478	971.791
144.629	19.574	1267.530	971.066
145.643	19.577	1266.191	969.976
146.658	19.400	1264.817	967.841
147.673	19.306	1263.052	965.878
148.687	19.150	1261.880	964.025
149.702	19.102	1260.664	962.744
150.716	19.025	1259.168	961.086
151.731	19.046	1258.510	960.614
152.746	19.150	1257.089	960.021
153.760	19.070	1256.052	958.700
154.775	19.301	1254.692	958.864
155.789	19.354	1253.711	958.326
156.804	19.424	1253.043	958.117
157.819	19.464	1252.153	957.572
158.833	19.462	1251.874	957.264
159.848	19.712	1250.447	957.473
160.862	19.601	1249.804	956.281
161.877	19.301	1248.265	953.361
162.892	19.138	1246.527	951.051
163.906	19.111	1245.488	950.024
164.921	19.109	1244.978	949.540
165.935	19.188	1244.596	949.601
166.950	19.273	1243.788	949.369
167.964	19.335	1242.556	948.685
168.979	19.402	1241.885	948.457
169.994	19.267	1241.513	947.345
171.008	19.294	1240.441	946.593
172.023	19.460	1239.971	947.062
173.037	19.628	1238.968	947.130
174.052	19.487	1238.423	945.861
175.067	19.226	1236.776	943.088
176.081	19.082	1235.854	941.517
177.096	19.162	1235.158	941.340
178.110	19.188	1234.039	940.545
179.125	19.136	1233.016	939.398
180.140	19.248	1231.717	938.935
181.154	19.459	1230.758	939.271
182.169	19.444	1229.953	938.492
183.183	19.571	1228.509	937.995
184.198	19.669	1227.347	937.556
185.213	19.623	1226.505	936.580
186.227	19.647	1225.528	935.881
187.242	19.675	1224.545	935.204
188.256	19.767	1223.842	935.077
189.271	19.866	1222.652	934.622
190.286	19.502	1221.527	931.714
191.300	19.188	1220.344	929.038
192.315	19.143	1219.213	927.853
193.329	19.130	1218.983	927.523
194.344	19.243	1218.302	927.531
195.359	19.254	1218.152	927.395
196.373	19.368	1217.829	927.682
197.388	19.598	1216.853	928.093
198.402	19.706	1217.216	928.868
199.417	19.752	1216.714	928.647
200.432	20.037	1215.753	929.361
201.446	20.093	1214.978	928.989
202.461	20.204	1213.826	928.619
203.475	20.023	1213.617	927.409
204.490	19.863	1212.038	925.265
205.504	19.728	1210.288	923.125
206.519	19.745	1209.075	922.207
207.534	19.686	1208.139	921.099
208.548	19.759	1206.591	920.226
209.563	19.578	1206.789	919.332
210.577	19.737	1205.568	919.165
211.592	19.815	1204.720	918.852
212.607	20.010	1203.992	919.248
213.621	20.004	1202.779	918.213
214.636	19.835	1201.976	916.620
215.650	19.873	1201.626	916.477
216.665	20.067	1200.587	916.630
217.680	20.120	1199.896	916.300
218.694	20.280	1198.737	916.178
219.709	20.208	1197.947	915.114
220.723	20.173	1196.914	914.056
221.738	20.105	1196.371	913.206
222.753	20.083	1195.659	912.464
223.767	19.969	1194.980	911.265
224.782	20.209	1194.424	912.021
225.796	20.319	1193.735	911.994
226.811	20.189	1193.192	910.814
227.826	20.133	1191.940	909.486
228.840	19.933	1191.740	908.205
229.855	19.972	1190.875	907.667
230.869	19.988	1190.056	907.047
231.884	19.996	1189.195	906.353
232.899	19.847	1188.105	904.665
233.913	19.816	1187.573	904.016
234.928	19.683	1186.852	902.691
235.942	19.753	1185.852	902.218
236.957	19.790	1184.755	901.497
237.972	19.746	1184.166	900.740
238.986	19.838	1183.190	900.395
240.001	19.826	1182.583	899.793
241.015	19.832	1181.816	899.160
242.030	19.931	1181.163	899.099
243.045	20.044	1180.131	898.816
244.059	20.012	1180.112	898.556
245.074	20.134	1179.009	898.269
246.088	20.192	1178.034	897.751
247.103	20.307	1177.997	898.238
248.117	20.399	1177.061	897.917
249.132	20.495	1176.891	898.208
250.147	20.651	1176.517	898.649
251.161	20.781	1175.953	898.807
252.176	20.805	1174.674	897.876
253.190	20.984	1173.912	898.135
254.205	20.974	1173.773	897.900
255.220	21.014	1173.495	897.810
256.234	20.970	1172.902	897.050
257.249	20.938	1171.715	895.902
258.263	20.850	1171.124	894.919
259.278	20.885	1170.463	894.511
260.293	20.966	1169.619	894.203
261.307	21.001	1169.343	894.092
262.322	21.081	1168.551	893.816
263.336	21.098	1168.086	893.468
264.351	21.046	1167.613	892.766
265.366	21.155	1166.883	892.682
266.380	21.185	1165.652	891.814
267.395	21.055	1164.963	890.548
268.409	20.904	1163.964	888.933
269.424	20.875	1163.380	888.262
270.439	20.712	1163.572	887.499
271.453	20.801	1162.186	886.814
272.468	20.745	1161.077	885.608
273.482	20.612	1160.438	884.364
274.497	20.692	1160.023	884.375
275.512	20.718	1159.144	883.758
276.526	20.766	1158.190	883.200
277.541	20.739	1157.462	882.429
278.555	20.840	1156.827	882.378
279.570	20.992	1156.393	882.737
280.585	21.131	1155.970	883.038
281.599	21.126	1154.545	881.849
282.614	21.009	1153.622	880.475
283.628	20.924	1152.163	878.854
284.643	20.881	1151.403	877.982
285.657	21.018	1150.381	877.811
286.672	20.973	1149.495	876.831
287.687	20.894	1148.785	875.816
288.701	20.997	1148.071	875.709
289.716	20.928	1146.941	874.425
290.730	20.951	1146.773	874.335
291.745	21.111	1145.988	874.463
292.760	21.079	1145.092	873.542
293.774	21.131	1145.015	873.666
294.789	21.306	1144.399	873.991
295.803	21.184	1143.881	872.912
296.818	20.999	1142.550	870.893
297.833	20.932	1141.969	870.037
298.847	21.022	1140.884	869.587
299.862	21.094	1139.777	869.021
300.876	21.128	1139.670	869.032
301.891	21.192	1138.768	868.585
302.906	21.315	1138.446	868.875
303.920	21.437	1137.756	868.878
304.935	21.502	1137.551	868.967
305.949	21.662	1136.571	868.936
306.964	21.537	1136.358	868.077
307.979	21.464	1134.902	866.527
308.993	21.268	1134.521	865.190
310.008	21.511	1133.668	865.661
311.022	21.541	1132.759	865.041
312.037	21.526	1131.803	864.160
313.052	21.297	1131.005	862.345
314.066	21.102	1130.009	860.547
315.081	21.044	1129.047	859.453
316.095	21.001	1128.221	858.538
317.110	20.980	1127.494	857.803
318.125	21.041	1126.745	857.459
319.139	21.043	1125.855	856.714
320.154	21.109	1125.257	856.509
321.168	20.982	1124.606	855.314
322.183	21.165	1124.224	855.843
323.197	21.260	1123.812	855.920
324.212	21.230	1123.351	855.348
325.227	21.258	1122.590	854.829
326.241	21.249	1121.489	853.869
327.256	21.172	1120.805	852.896
328.270	21.094	1120.216	851.992
329.285	21.191	1118.813	851.323
330.300	21.257	1117.782	850.785
331.314	21.159	1117.153	849.756
332.329	21.164	1116.642	849.317
333.343	21.302	1115.553	849.081
334.358	21.390	1114.729	848.807
335.373	21.343	1114.362	848.223
336.387	21.537	1113.650	848.546
337.402	21.473	1112.599	847.363
338.416	21.552	1112.421	847.533
339.431	21.600	1111.926	847.317
340.446	21.718	1111.554	847.529
341.460	21.827	1110.387	847.087
342.475	21.966	1109.796	847.234
343.489	21.897	1109.037	846.247
344.504	22.119	1108.029	846.474
345.519	22.035	1107.341	845.466
346.533	22.232	1106.445	845.658
347.548	22.171	1106.077	845.005
348.562	22.203	1104.623	843.977
349.577	21.863	1103.787	841.629
350.592	21.722	1102.596	839.970
351.606	21.640	1102.028	839.071
352.621	21.607	1101.316	838.298
353.635	21.519	1100.793	837.403
354.650	21.553	1099.923	836.829
355.665	21.637	1099.306	836.688
356.679	21.783	1098.589	836.767
357.694	21.830	1098.586	836.915
358.708	21.868	1097.441	836.148
359.723	21.877	1096.903	835.710
360.738	21.842	1096.347	835.046
361.752	21.892	1096.105	835.023
362.767	21.860	1095.512	834.348
363.781	21.988	1094.660	834.233
364.796	22.061	1094.599	834.460
365.810	22.183	1094.336	834.764
366.825	22.255	1093.437	834.346
367.840	22.530	1093.301	835.473
368.854	22.463	1092.407	834.398
369.869	22.422	1091.671	833.567
370.883	22.320	1090.383	832.025
371.898	22.247	1089.583	830.998
372.913	22.188	1089.155	830.320
373.927	22.225	1088.629	830.021
374.942	22.294	1088.039	829.822
375.956	22.382	1087.604	829.834
376.971	22.279	1087.256	829.008
377.986	22.448	1086.257	828.967
379.000	22.577	1085.710	829.082
380.015	22.608	1085.412	828.929
381.029	22.645	1085.174	828.845
382.044	22.636	1084.039	827.864
383.059	22.497	1083.552	826.766
384.073	22.508	1082.604	826.022
385.088	22.609	1081.612	825.663
386.102	22.568	1080.919	824.873
387.117	22.481	1079.414	823.245
388.132	22.266	1078.545	821.506
389.146	22.081	1077.950	820.115
390.161	22.172	1077.069	819.799
391.175	22.184	1076.086	819.029
392.190	22.251	1075.845	819.088
393.205	22.432	1074.959	819.181
394.219	22.581	1074.400	819.378
395.234	22.440	1073.298	817.809
396.248	22.299	1072.256	816.290
397.263	22.309	1071.241	815.492
398.278	22.313	1070.118	814.582
399.292	22.005	1069.739	812.796
400.307	22.116	1068.679	812.431
401.321	22.114	1068.419	812.153
402.336	22.055	1067.754	811.304
403.350	22.079	1066.670	810.518
404.365	22.155	1066.312	810.525
405.380	22.355	1065.736	810.936
406.394	22.362	1065.046	810.371
407.409	22.552	1064.632	810.862
408.423	22.709	1063.771	810.853
409.438	22.691	1063.177	810.249
410.453	22.704	1062.625	809.816
411.467	22.883	1061.855	809.977
412.482	22.989	1061.029	809.762
413.496	22.920	1060.737	809.151
414.511	22.930	1060.093	808.636
415.526	22.987	1059.908	808.680
416.540	23.179	1058.970	808.773
417.555	23.194	1058.381	808.321
418.569	23.061	1058.256	807.542
419.584	22.988	1057.563	806.613
420.599	22.934	1057.045	805.900
421.613	155.103	1400.744	1791.180
422.628	142.554	1450.814	1791.278
