DTS Sentinel unit serial number:	SN413079Multiplexer serial number:	ORYXHardware model number:	OX4-SRSoftware version number:	ORYX F/W v4.00 Oryx Data Collector v3.7.2.0data status	okinstallation	princeton_trtdifferential loss correction	single-endedforward channel	channel 2reverse channel	N/Adate	2019/09/14time	09:59:34forward acquisition time	60.00reverse acquisition time	0.00gamma	496.2192k internal	0.2319k external	0.2319temperature offset calibration	1.0135default loss term (dB/km)	0.3790temperature slope calibration	1.0000multiplexer offset coefficient	1.0000multiplexer slope coefficient	1.0000fibre end	0.00T internal ref (°C)	33.00T ext. ref 1 (°C)	4.00T ext. ref 2 (°C)	31.53length (m)	temperature (°C)	Stokes	anti-Stokes-747.200	-200.000	-0.005	0.071
-746.185	-72.112	-0.106	-0.040
-745.171	-103.602	-0.303	-0.072
-744.156	-74.293	0.485	-0.177
-743.142	240.063	-0.075	-0.127
-742.127	800.000	0.104	0.328
-741.112	447.603	0.145	-0.322
-740.098	9.538	-0.305	0.234
-739.083	361.196	-0.058	0.118
-738.069	-134.860	-0.391	0.048
-737.054	18.195	-0.304	0.245
-736.039	-14.279	-0.227	0.148
-735.025	-185.974	0.112	0.002
-734.010	44.246	-0.263	0.244
-732.996	-128.130	-0.104	-0.015
-731.981	122.668	0.104	-0.132
-730.966	800.000	-0.038	0.125
-729.952	188.670	-0.162	-0.245
-728.937	-98.026	-0.308	0.080
-727.923	-100.305	0.085	0.021
-726.908	90.239	-0.074	0.084
-725.894	800.000	-0.050	-0.147
-724.879	196.978	-0.025	-0.038
-723.864	-12.126	0.181	-0.120
-722.850	373.777	0.042	-0.087
-721.835	-200.000	-0.074	-0.393
-720.821	-165.739	0.186	-0.008
-719.806	-25.232	0.117	0.070
-718.791	-31.103	-0.194	-0.111
-717.777	-45.103	0.085	0.043
-716.762	-200.000	-0.031	-0.230
-715.748	-102.831	0.068	-0.016
-714.733	-138.081	-0.084	-0.009
-713.718	595.223	0.051	0.128
-712.704	299.894	-0.108	0.202
-711.689	-200.000	-0.012	0.069
-710.675	-200.000	-0.047	-0.227
-709.660	-200.000	-0.002	0.035
-708.645	800.000	-0.092	0.355
-707.631	58.211	0.262	-0.259
-706.616	800.000	0.072	-0.296
-705.602	103.002	0.226	0.268
-704.587	-122.459	-0.269	-0.044
-703.572	800.000	-0.045	-0.130
-702.558	800.000	0.054	0.154
-701.543	707.393	0.078	-0.209
-700.529	-84.982	-0.062	-0.020
-699.514	-200.000	-0.001	0.308
-698.499	-129.786	0.227	-0.032
-697.485	-51.751	-0.316	0.148
-696.470	800.000	-0.066	-0.272
-695.456	-65.559	-0.229	0.093
-694.441	401.119	-0.094	0.199
-693.426	-37.585	0.244	0.131
-692.412	-98.749	0.081	-0.021
-691.397	800.000	0.108	-0.301
-690.383	43.375	0.065	0.060
-689.368	-21.606	-0.247	-0.152
-688.354	-132.734	-0.214	0.028
-687.339	-76.017	-0.111	-0.040
-686.324	-130.538	-0.224	-0.031
-685.310	239.849	-0.051	0.086
-684.295	-130.962	0.332	-0.045
-683.281	-118.497	0.193	0.035
-682.266	-200.000	0.008	0.142
-681.251	-127.177	0.317	-0.047
-680.237	800.000	-0.043	-0.149
-679.222	-200.000	-0.017	-0.085
-678.208	192.937	-0.048	-0.073
-677.193	-18.690	-0.058	0.037
-676.178	-78.281	-0.144	-0.050
-675.164	187.900	-0.172	-0.260
-674.149	-60.028	-0.189	-0.082
-673.135	53.419	0.069	-0.067
-672.120	-94.288	0.149	-0.041
-671.105	800.000	0.070	-0.213
-670.091	-200.000	0.049	0.365
-669.076	800.000	-0.027	0.108
-668.062	-197.294	-0.077	0.000
-667.047	-16.775	0.090	0.057
-666.032	-118.974	0.035	0.006
-665.018	-36.015	0.364	0.198
-664.003	800.000	-0.039	0.119
-662.989	-61.774	-0.100	0.042
-661.974	-50.310	0.311	-0.148
-660.959	-0.546	-0.037	0.026
-659.945	-31.677	0.168	-0.095
-658.930	530.878	-0.079	-0.187
-657.916	800.000	-0.093	-0.272
-656.901	330.226	0.056	0.109
-655.886	800.000	-0.064	-0.232
-654.872	170.112	-0.237	-0.342
-653.857	-81.892	-0.097	-0.032
-652.843	74.868	-0.053	-0.056
-651.828	17.741	0.567	-0.455
-650.814	195.425	-0.050	-0.076
-649.799	-139.962	-0.125	-0.013
-648.784	225.631	-0.020	0.033
-647.770	-200.000	0.003	-0.092
-646.755	-7.455	-0.095	-0.065
-645.741	31.415	-0.012	-0.011
-644.726	-93.404	0.118	0.033
-643.711	97.594	-0.048	0.056
-642.697	-1.300	0.275	-0.196
-641.682	140.671	-0.029	0.038
-640.668	-98.154	-0.085	-0.022
-639.653	55.133	-0.114	-0.111
-638.638	-63.877	-0.215	-0.089
-637.624	800.000	-0.067	0.252
-636.609	800.000	-0.028	-0.084
-635.595	111.920	0.211	0.256
-634.580	-200.000	-0.040	0.280
-633.565	47.537	-0.247	-0.232
-632.551	756.928	-0.051	-0.140
-631.536	322.743	0.052	0.099
-630.522	-80.801	-0.377	-0.126
-629.507	128.046	0.208	0.267
-628.492	-156.085	-0.126	0.008
-627.478	-88.164	0.256	-0.077
-626.463	196.334	-0.187	-0.286
-625.449	-200.000	-0.024	0.311
-624.434	-84.239	0.329	0.105
-623.419	81.543	0.122	0.132
-622.405	177.923	0.131	-0.193
-621.390	-154.746	-0.174	0.012
-620.376	-22.378	-0.219	-0.134
-619.361	78.929	0.093	-0.100
-618.346	152.536	-0.030	-0.041
-617.332	-200.000	-0.021	-0.137
-616.317	49.535	0.168	-0.159
-615.303	-87.702	0.242	-0.074
-614.288	-200.000	0.033	-0.170
-613.273	-100.829	-0.089	0.022
-612.259	-60.955	0.313	0.133
-611.244	326.481	0.114	-0.220
-610.230	-11.482	0.075	0.049
-609.215	-200.000	0.019	0.239
-608.201	-200.000	0.048	0.344
-607.186	42.499	-0.304	0.279
-606.171	-27.931	0.123	0.071
-605.157	800.000	0.070	0.265
-604.142	-63.355	-0.256	0.106
-603.128	34.642	-0.304	-0.267
-602.113	62.216	-0.229	-0.230
-601.098	190.305	-0.114	-0.172
-600.084	12.050	-0.112	0.087
-599.069	800.000	0.034	0.103
-598.055	-17.686	-0.217	0.137
-597.040	-187.228	0.231	0.003
-596.025	2.007	-0.235	-0.171
-595.011	-118.620	-0.172	-0.031
-593.996	112.608	-0.254	-0.309
-592.982	-7.717	0.255	0.173
-591.967	-131.782	-0.242	0.032
-590.952	-136.463	0.130	-0.015
-589.938	530.360	-0.181	0.431
-588.923	-125.413	0.099	-0.015
-587.909	469.152	0.036	0.081
-586.894	95.640	0.112	0.128
-585.879	-200.000	-0.047	0.358
-584.865	-46.266	-0.097	0.048
-583.850	-200.000	0.010	-0.056
-582.836	-162.328	-0.527	-0.026
-581.821	800.000	0.101	-0.439
-580.806	800.000	0.100	-0.425
-579.792	-109.018	0.253	-0.054
-578.777	800.000	-0.088	-0.303
-577.763	416.076	-0.157	-0.336
-576.748	49.384	-0.199	-0.188
-575.733	-200.000	-0.016	0.114
-574.719	41.116	-0.042	-0.038
-573.704	-120.714	0.211	-0.036
-572.690	800.000	-0.056	0.162
-571.675	-200.000	0.004	-0.140
-570.661	-120.787	0.193	0.033
-569.646	799.041	0.187	0.518
-568.631	-101.088	0.237	-0.058
-567.617	-111.733	0.230	0.047
-566.602	10.955	-0.365	0.280
-565.588	94.693	-0.106	-0.121
-564.573	800.000	0.038	-0.123
-563.558	450.852	0.022	0.049
-562.544	255.570	-0.116	-0.200
-561.529	109.195	-0.130	-0.156
-560.515	-65.312	0.104	0.042
-559.500	177.231	-0.063	-0.091
-558.485	136.553	-0.232	0.304
-557.471	24.949	-0.045	-0.038
-556.456	-24.849	-0.379	0.226
-555.442	800.000	0.090	0.359
-554.427	-68.401	0.132	-0.051
-553.412	-112.094	0.313	0.063
-552.398	-17.905	0.156	-0.098
-551.383	127.919	-0.218	-0.278
-550.369	43.848	-0.410	-0.377
-549.354	491.718	0.069	0.158
-548.339	-200.000	-0.016	0.087
-547.325	34.619	0.137	-0.120
-546.310	-48.062	-0.216	0.105
-545.296	-200.000	-0.069	-0.448
-544.281	84.477	0.167	-0.183
-543.266	47.704	0.181	0.169
-542.252	255.134	0.190	0.326
-541.237	-19.474	0.287	-0.178
-540.223	177.449	0.023	0.034
-539.208	-200.000	-0.037	0.312
-538.193	12.116	-0.132	-0.102
-537.179	800.000	-0.105	-0.308
-536.164	462.024	-0.054	0.120
-535.150	-174.844	0.073	-0.002
-534.135	-200.000	-0.054	-0.388
-533.121	20.873	-0.124	0.101
-532.106	-200.000	-0.025	0.187
-531.091	-98.913	0.119	-0.030
-530.077	330.254	-0.069	-0.134
-529.062	-200.000	-0.002	-0.233
-528.048	-200.000	-0.002	-0.175
-527.033	-21.482	-0.104	0.064
-526.018	-200.000	0.014	-0.138
-525.004	71.423	-0.145	0.151
-523.989	36.113	0.156	-0.138
-522.975	-200.000	0.058	-0.308
-521.960	64.365	0.094	-0.095
-520.945	-84.532	-0.068	-0.021
-519.931	-200.000	0.005	-0.048
-518.916	-200.000	0.028	-0.195
-517.902	-27.734	-0.110	0.064
-516.887	-22.795	-0.110	-0.066
-515.872	22.677	-0.164	-0.135
-514.858	800.000	-0.043	0.156
-513.843	40.309	0.036	-0.032
-512.829	-200.000	0.054	0.259
-511.814	800.000	-0.039	-0.111
-510.799	-30.224	-0.072	-0.041
-509.785	42.134	-0.079	0.072
-508.770	-142.296	0.248	-0.025
-507.756	-83.843	-0.209	0.067
-506.741	-21.102	0.022	0.014
-505.726	160.064	-0.131	-0.183
-504.712	-133.556	0.101	-0.013
-503.697	4.649	-0.200	-0.147
-502.683	800.000	-0.071	-0.207
-501.668	-200.000	0.010	0.238
-500.653	-200.000	0.009	0.159
-499.639	377.705	-0.205	-0.420
-498.624	358.714	0.054	0.109
-497.610	-185.494	0.308	-0.005
-496.595	36.585	-0.320	0.283
-495.581	164.364	-0.060	-0.085
-494.566	108.430	0.222	0.265
-493.551	15.795	0.121	0.095
-492.537	-65.214	-0.467	-0.188
-491.522	-131.779	-0.118	0.015
-490.508	-89.077	-0.025	-0.008
-489.493	-200.000	0.041	-0.542
-488.478	-200.000	-0.003	-0.101
-487.464	-200.000	0.003	-0.211
-486.449	64.546	-0.032	-0.032
-485.435	-13.170	-0.268	-0.174
-484.420	-200.000	0.041	0.416
-483.405	800.000	0.037	0.118
-482.391	-131.064	0.167	0.022
-481.376	-200.000	0.020	0.384
-480.362	188.089	-0.132	-0.197
-479.347	-35.997	-0.222	-0.120
-478.332	-168.522	0.268	0.010
-477.318	4.089	-0.161	-0.118
-476.303	-200.000	0.028	0.243
-475.289	-200.000	-0.043	-0.311
-474.274	323.670	-0.138	-0.264
-473.259	-137.131	0.199	0.023
-472.245	-200.000	0.012	0.114
-471.230	-56.360	-0.271	-0.121
-470.216	-145.954	-0.162	-0.014
-469.201	-26.565	0.183	0.108
-468.186	-188.058	-0.322	-0.004
-467.172	-200.000	-0.012	0.307
-466.157	183.171	-0.062	0.092
-465.143	-77.928	0.183	-0.063
-464.128	-199.278	0.193	-0.001
-463.113	-200.000	0.040	0.311
-462.099	-183.126	0.235	0.004
-461.084	800.000	0.080	-0.244
-460.070	242.336	0.068	0.114
-459.055	187.765	0.314	0.468
-458.040	48.733	-0.189	0.178
-457.026	37.973	-0.047	-0.042
-456.011	630.200	0.019	-0.048
-454.997	317.412	-0.162	0.307
-453.982	-16.737	-0.096	0.061
-452.968	48.828	0.218	-0.205
-451.953	-3.008	0.152	-0.106
-450.938	521.627	-0.100	-0.236
-449.924	-69.334	-0.143	-0.055
-448.909	102.216	-0.140	-0.164
-447.895	380.676	-0.084	-0.173
-446.880	423.126	-0.097	0.207
-445.865	800.000	0.049	-0.160
-444.851	203.529	-0.352	-0.545
-443.836	-83.460	-0.564	-0.181
-442.822	-75.155	0.199	-0.071
-441.807	-53.700	0.202	-0.092
-440.792	194.677	-0.165	0.250
-439.778	-200.000	0.035	-0.192
-438.763	800.000	-0.111	-0.416
-437.749	85.322	0.209	0.229
-436.734	454.302	-0.066	0.145
-435.719	-115.283	-0.261	0.049
-434.705	-200.000	0.017	0.212
-433.690	342.273	0.061	0.119
-432.676	-94.431	0.043	0.012
-431.661	-90.944	0.106	-0.031
-430.646	-66.660	-0.210	0.083
-429.632	-200.000	0.031	0.336
-428.617	-200.000	0.047	0.268
-427.603	534.134	0.221	0.524
-426.588	33.821	0.392	0.341
-425.573	-58.833	0.108	-0.047
-424.559	276.521	0.091	-0.161
-423.544	27.902	0.147	0.124
-422.530	800.000	-0.070	0.207
-421.515	56.859	0.366	0.356
-420.500	-130.175	0.061	-0.008
-419.486	-42.593	0.221	0.113
-418.471	185.077	-0.107	0.158
-417.457	-200.000	0.021	-0.191
-416.442	-89.861	-0.312	0.091
-415.428	87.586	-0.185	0.205
-414.413	403.274	0.051	0.107
-413.398	232.811	-0.132	0.216
-412.384	317.531	0.203	0.384
-411.369	-146.038	0.203	-0.018
-410.355	-67.317	0.210	0.083
-409.340	-69.007	-0.368	-0.142
-408.325	-76.216	0.183	0.065
-407.311	0.209	0.140	-0.100
-406.296	165.198	0.055	0.077
-405.282	397.648	-0.100	-0.209
-404.267	-200.000	-0.005	-0.151
-403.252	-45.963	0.043	-0.021
-402.238	187.113	0.203	-0.303
-401.223	604.358	0.064	-0.159
-400.209	800.000	0.031	-0.129
-399.194	-132.846	-0.265	0.034
-398.179	-46.407	0.294	-0.144
-397.165	-179.591	-0.265	-0.006
-396.150	800.000	-0.037	-0.137
-395.136	-52.534	-0.235	0.108
-394.121	676.744	0.096	0.250
-393.106	79.914	-0.088	-0.095
-392.092	618.116	-0.020	0.051
-391.077	-68.919	0.144	0.056
-390.063	151.804	-0.071	0.097
-389.048	208.060	-0.011	0.017
-388.033	800.000	0.034	0.097
-387.019	163.286	-0.185	0.259
-386.004	-144.628	-0.133	-0.012
-384.990	-64.968	-0.103	0.042
-383.975	62.922	0.186	0.186
-382.960	409.594	-0.074	0.156
-381.946	-169.803	0.114	-0.004
-380.931	36.922	-0.147	-0.130
-379.917	-200.000	0.076	-0.453
-378.902	-200.000	0.004	-0.431
-377.888	-108.221	-0.319	-0.069
-376.873	-4.193	-0.192	0.132
-375.858	106.025	-0.207	-0.244
-374.844	191.250	0.123	0.184
-373.829	-50.896	0.202	0.095
-372.815	192.648	-0.121	-0.182
-371.800	-200.000	0.032	0.141
-370.785	-17.846	-0.124	0.078
-369.771	-59.773	0.058	0.025
-368.756	-200.000	-0.029	0.320
-367.742	141.032	0.238	-0.314
-366.727	-157.870	0.201	-0.012
-365.712	-200.000	-0.002	-0.055
-364.698	-170.307	-0.198	-0.007
-363.683	800.000	0.032	-0.131
-362.669	60.667	-0.082	0.081
-361.654	-49.562	-0.167	0.079
-360.639	-41.873	0.363	-0.185
-359.625	-200.000	-0.059	-0.320
-358.610	160.693	0.228	-0.317
-357.596	-139.992	-0.347	0.037
-356.581	63.208	-0.194	0.194
-355.566	800.000	-0.017	0.071
-354.552	800.000	0.072	-0.281
-353.537	195.738	0.171	0.259
-352.523	-28.158	0.232	0.134
-351.508	-200.000	-0.003	-0.391
-350.493	800.000	0.040	-0.111
-349.479	4.675	0.057	0.042
-348.464	-37.997	0.110	0.058
-347.450	-109.711	0.174	-0.036
-346.435	-45.133	0.156	0.077
-345.420	-112.385	-0.216	-0.043
-344.406	20.942	-0.254	-0.205
-343.391	-148.797	-0.176	-0.014
-342.377	-200.000	0.008	0.082
-341.362	160.923	0.229	-0.319
-340.348	-58.632	-0.280	0.121
-339.333	-200.000	0.016	0.177
-338.318	-101.245	0.092	-0.022
-337.304	-200.000	-0.025	-0.116
-336.289	800.000	0.114	0.339
-335.275	-200.000	-0.009	-0.090
-334.260	-55.231	0.082	-0.037
-333.245	8.818	0.205	0.154
-332.231	800.000	-0.072	-0.246
-331.216	368.359	0.109	-0.220
-330.202	-37.483	-0.178	-0.095
-329.187	-200.000	-0.038	-0.213
-328.172	403.020	0.113	-0.237
-327.158	-162.467	0.165	-0.008
-326.143	-107.574	0.195	0.043
-325.129	78.767	0.068	-0.072
-324.114	800.000	0.111	0.332
-323.099	-200.000	0.032	0.204
-322.085	-200.000	-0.013	0.117
-321.070	359.524	0.062	0.123
-320.056	-200.000	-0.010	0.183
-319.041	558.115	0.031	-0.074
-318.026	-62.719	-0.033	-0.014
-317.012	691.696	0.075	0.195
-315.997	800.000	0.052	0.149
-314.983	15.819	0.119	0.093
-313.968	432.346	0.069	0.148
-312.953	328.187	0.044	-0.084
-311.939	800.000	-0.077	0.249
-310.924	50.969	0.240	-0.226
-309.910	62.491	-0.116	-0.116
-308.895	-200.000	-0.016	-0.165
-307.880	800.000	0.043	-0.157
-306.866	800.000	0.023	0.093
-305.851	-200.000	-0.017	-0.165
-304.837	567.325	0.141	0.340
-303.822	220.382	0.145	-0.231
-302.807	21.215	0.162	0.131
-301.793	104.380	0.105	-0.123
-300.778	800.000	-0.031	0.103
-299.764	-119.798	0.266	-0.046
-298.749	-45.768	-0.106	-0.052
-297.735	-99.050	-0.183	0.046
-296.720	-200.000	0.016	0.072
-295.705	-200.000	0.002	0.258
-294.691	-60.226	-0.231	0.098
-293.676	138.826	-0.030	-0.039
-292.662	-43.020	0.220	0.111
-291.647	-28.572	0.115	-0.066
-290.632	10.653	-0.143	0.108
-289.618	408.439	-0.139	-0.292
-288.603	92.951	-0.023	-0.026
-287.589	-200.000	-0.000	0.070
-286.574	-66.850	0.172	-0.067
-285.559	-133.073	-0.043	-0.005
-284.545	-71.513	-0.182	0.068
-283.530	118.514	-0.077	0.094
-282.516	0.189	-0.136	0.096
-281.501	-64.453	0.094	-0.038
-280.486	-200.000	-0.001	0.148
-279.472	127.242	0.236	0.298
-278.457	-63.226	-0.260	-0.106
-277.443	-133.386	-0.063	0.008
-276.428	-75.660	0.152	-0.054
-275.413	419.896	-0.097	-0.207
-274.399	-24.509	0.341	-0.202
-273.384	-200.000	0.019	-0.299
-272.370	-121.455	-0.504	-0.083
-271.355	-51.771	-0.297	-0.138
-270.340	221.844	0.224	-0.358
-269.326	-33.278	0.163	-0.090
-268.311	-200.000	0.012	0.303
-267.297	-21.461	-0.152	-0.092
-266.282	-74.071	-0.344	-0.124
-265.267	12.529	0.120	0.092
-264.253	14.321	-0.113	0.087
-263.238	-200.000	-0.038	-0.238
-262.224	27.173	-0.185	0.154
-261.209	-56.537	-0.051	-0.022
-260.195	-70.867	0.146	0.055
-259.180	-36.604	-0.074	-0.040
-258.165	17.549	-0.192	-0.152
-257.151	-77.693	0.074	0.025
-256.136	800.000	0.056	0.224
-255.122	-173.612	0.179	-0.005
-254.107	104.906	0.062	0.072
-253.092	800.000	0.086	-0.243
-252.078	-31.048	-0.065	0.037
-251.063	-76.591	-0.134	0.047
-250.049	84.476	-0.208	0.226
-249.034	-89.849	0.505	0.146
-248.019	404.617	0.028	0.058
-247.005	379.008	-0.138	-0.280
-245.990	-57.932	0.250	-0.109
-244.976	70.354	0.157	-0.161
-243.961	97.379	0.235	-0.268
-242.946	-100.123	0.167	-0.041
-241.932	-5.076	-0.188	0.128
-240.917	124.914	-0.265	0.331
-239.903	-133.857	0.105	-0.013
-238.888	197.553	0.187	0.283
-237.873	76.307	-0.133	0.140
-236.859	63.079	-0.179	-0.178
-235.844	-12.237	0.250	-0.162
-234.830	-200.000	-0.011	0.152
-233.815	-188.935	-0.337	0.004
-232.800	29.530	0.279	0.236
-231.786	209.513	-0.081	0.126
-230.771	-20.442	0.148	0.090
-229.757	800.000	0.042	0.146
-228.742	-88.669	-0.043	-0.013
-227.727	-200.000	-0.013	-0.106
-226.713	669.742	-0.073	-0.188
-225.698	-66.498	-0.126	-0.049
-224.684	-12.882	0.089	0.057
-223.669	-99.169	0.411	0.103
-222.655	-153.097	0.138	-0.010
-221.640	-200.000	0.036	0.201
-220.625	-200.000	0.025	-0.273
-219.611	588.320	0.041	0.100
-218.596	-79.866	-0.118	-0.039
-217.582	343.597	0.111	0.216
-216.567	-200.000	0.039	0.247
-215.552	173.956	-0.077	-0.110
-214.538	-110.888	0.189	-0.039
-213.523	-46.368	-0.076	-0.037
-212.509	-5.374	-0.117	-0.080
-211.494	-200.000	0.010	0.064
-210.479	11.734	0.170	0.130
-209.465	254.249	-0.062	0.105
-208.450	-138.352	0.220	0.024
-207.436	584.990	0.050	0.123
-206.421	27.744	0.181	-0.151
-205.406	-115.423	0.335	-0.063
-204.392	-104.638	-0.364	0.083
-203.377	227.976	0.031	-0.050
-202.363	-200.000	0.059	-0.335
-201.348	-25.174	0.114	0.067
-200.333	346.365	0.150	-0.292
-199.319	800.000	-0.068	-0.284
-198.304	-110.323	0.140	-0.029
-197.290	-0.904	0.357	0.251
-196.275	-70.043	-0.141	0.053
-195.260	-104.009	-0.159	-0.037
-194.246	-52.924	0.116	-0.053
-193.231	-39.226	-0.061	-0.032
-192.217	-123.916	-0.420	-0.066
-191.202	25.707	-0.375	0.309
-190.187	-47.890	-0.063	0.030
-189.173	486.351	0.064	-0.144
-188.158	-200.000	0.016	-0.072
-187.144	-200.000	0.132	0.000
-186.129	800.000	0.074	-0.293
-185.114	-33.626	0.125	-0.068
-184.100	60.854	-0.202	-0.198
-183.085	-61.270	-0.119	0.050
-182.071	203.143	-0.088	0.135
-181.056	-137.476	0.097	0.011
-180.042	-100.336	0.394	-0.097
-179.027	-169.369	0.284	-0.010
-178.012	-173.077	0.170	-0.005
-176.998	-126.176	0.234	0.035
-175.983	-200.000	-0.043	0.238
-174.969	115.704	-0.254	0.307
-173.954	-36.552	-0.109	0.058
-172.939	800.000	-0.037	-0.142
-171.925	-128.693	-0.224	-0.031
-170.910	385.030	0.108	0.221
-169.896	-93.590	0.135	0.037
-168.881	-63.271	0.238	0.097
-167.866	269.919	0.090	0.157
-166.852	800.000	0.037	0.133
-165.837	-200.000	-0.005	0.133
-164.823	-24.782	0.053	-0.031
-163.808	-1.672	-0.177	0.124
-162.793	-34.879	0.193	-0.104
-161.779	-200.000	0.004	0.089
-160.764	-200.000	0.034	-0.288
-159.750	583.553	0.099	0.241
-158.735	-77.098	-0.134	0.046
-157.720	-200.000	-0.012	0.113
-156.706	800.000	-0.122	-0.342
-155.691	-62.169	0.185	0.076
-154.677	566.986	-0.028	0.066
-153.662	-34.933	-0.111	0.060
-152.647	-42.628	-0.132	0.066
-151.633	753.584	-0.058	0.156
-150.618	-94.934	0.449	-0.120
-149.604	138.242	-0.050	0.064
-148.589	-74.196	0.226	-0.081
-147.574	-75.682	0.221	-0.077
-146.560	-200.000	-0.014	-0.199
-145.545	273.713	0.041	-0.072
-144.531	-200.000	0.007	0.065
-143.516	-200.000	-0.017	-0.129
-142.502	-200.000	-0.012	0.197
-141.487	43.945	-0.089	-0.081
-140.472	800.000	0.062	-0.193
-139.458	-15.400	0.165	-0.104
-138.443	-200.000	-0.016	0.255
-137.429	800.000	-0.025	-0.083
-136.414	29.760	0.119	-0.100
-135.399	105.094	0.188	-0.219
-134.385	-176.350	0.319	0.008
-133.370	-95.007	-0.208	0.055
-132.356	158.114	0.154	-0.211
-131.341	-123.309	0.191	0.030
-130.326	-200.000	-0.026	0.125
-129.312	-90.685	-0.187	-0.053
-128.297	-200.000	-0.008	0.104
-127.283	-121.622	0.353	0.058
-126.268	-45.222	-0.019	-0.009
-125.253	36.201	-0.109	0.095
-124.239	-36.901	-0.102	-0.054
-123.224	425.190	0.155	-0.329
-122.210	612.731	0.080	0.198
-121.195	80.163	-0.110	-0.117
-120.180	99.250	-0.102	0.117
-119.166	-64.948	0.240	-0.096
-118.151	800.000	-0.036	-0.106
-117.137	-77.580	0.116	-0.040
-116.122	-200.000	0.004	-0.114
-115.107	800.000	-0.058	0.194
-114.093	106.040	-0.103	0.121
-113.078	192.293	0.127	0.189
-112.064	-54.704	0.178	0.080
-111.049	-170.872	0.167	0.006
-110.034	-53.997	0.144	0.065
-109.020	-200.000	-0.016	-0.183
-108.005	-20.445	-0.125	-0.076
-106.991	112.307	-0.097	0.116
-105.976	101.926	0.035	-0.040
-104.962	504.308	-0.176	-0.401
-103.947	-200.000	0.029	-0.184
-102.932	68.198	-0.319	0.322
-101.918	-177.097	0.251	-0.006
-100.903	34.727	-0.030	0.026
-99.889	-15.625	-0.305	0.192
-98.874	-200.000	0.008	-0.107
-97.859	800.000	-0.030	-0.090
-96.845	-200.000	0.013	-0.154
-95.830	-200.000	0.019	-0.142
-94.816	-200.000	-0.005	-0.121
-93.801	69.447	-0.101	0.103
-92.786	-26.592	-0.230	0.133
-91.772	125.547	-0.234	0.291
-90.757	56.472	-0.277	0.266
-89.743	-200.000	-0.003	0.016
-88.728	634.585	-0.118	0.296
-87.713	-94.218	0.379	0.102
-86.699	-200.000	-0.016	0.228
-85.684	-86.530	0.026	0.008
-84.670	-137.495	0.054	-0.006
-83.655	-200.000	-0.019	0.314
-82.640	-109.007	0.205	-0.043
-81.626	-123.490	-0.180	-0.028
-80.611	-61.531	0.190	-0.079
-79.597	249.358	-0.092	-0.154
-78.582	81.681	0.126	-0.134
-77.567	-87.775	-0.386	0.115
-76.553	-26.364	-0.382	-0.221
-75.538	90.888	-0.107	-0.118
-74.524	-200.000	0.061	-0.283
-73.509	-33.044	-0.238	0.130
-72.494	260.172	-0.138	0.234
-71.480	-144.898	0.062	-0.006
-70.465	800.000	0.053	0.182
-69.451	-200.000	-0.011	0.087
-68.436	-38.752	0.104	-0.054
-67.422	800.000	-0.074	-0.218
-66.407	-5.534	-0.112	-0.076
-65.392	32.642	-0.110	0.093
-64.378	352.648	0.042	0.082
-63.363	-136.082	0.208	0.024
-62.349	-200.000	0.103	0.610
-61.334	-71.021	-0.765	-0.284
-60.319	-200.000	-0.004	0.555
-59.305	-200.000	-0.223	-1.126
-58.290	294.514	0.532	0.958
-57.276	360.645	0.793	1.564
-56.261	-200.000	98.413	593.058
-55.246	605.055	1440.822	3533.627
-54.232	179.137	2664.192	3837.717
-53.217	112.507	2335.137	2782.789
-52.203	42.463	1942.082	1739.422
-51.188	36.135	1729.255	1499.713
-50.173	33.452	1684.982	1440.884
-49.159	51.755	1733.481	1623.797
-48.144	54.025	1749.403	1656.104
-47.130	35.934	1707.473	1479.043
-46.115	33.080	1691.783	1443.633
-45.100	32.885	1686.874	1437.898
-44.086	32.891	1684.669	1436.010
-43.071	32.831	1681.753	1433.012
-42.057	32.876	1679.156	1431.082
-41.042	32.851	1677.639	1429.546
-40.027	32.958	1674.850	1427.921
-39.013	32.911	1673.100	1426.018
-37.998	32.805	1671.726	1423.991
-36.984	32.847	1670.601	1423.292
-35.969	33.039	1669.147	1423.437
-34.954	33.040	1667.573	1422.051
-33.940	33.060	1664.913	1419.874
-32.925	33.041	1663.671	1418.613
-31.911	33.057	1661.427	1416.765
-30.896	32.970	1660.098	1414.929
-29.881	32.930	1658.604	1413.293
-28.867	32.947	1656.802	1411.833
-27.852	32.981	1654.886	1410.400
-26.838	32.916	1653.916	1409.028
-25.823	32.951	1651.890	1407.513
-24.809	33.131	1650.427	1407.543
-23.794	32.955	1649.518	1405.402
-22.779	32.989	1648.061	1404.360
-21.765	32.998	1646.106	1402.707
-20.750	32.986	1644.795	1401.444
-19.736	33.107	1642.993	1400.752
-18.721	32.991	1641.834	1398.844
-17.706	33.065	1639.694	1397.519
-16.692	33.116	1638.360	1396.700
-15.677	32.941	1637.549	1394.658
-14.663	33.014	1635.601	1393.486
-13.648	33.035	1634.164	1392.363
-12.633	33.032	1632.797	1391.122
-11.619	33.048	1630.980	1389.635
-10.604	33.089	1629.290	1388.436
-9.590	33.016	1628.297	1387.001
-8.575	33.050	1627.355	1386.392
-7.560	33.068	1625.573	1384.953
-6.546	33.062	1624.769	1384.170
-5.531	33.060	1623.451	1382.976
-4.517	33.010	1622.755	1381.962
-3.502	33.023	1621.016	1380.525
-2.487	33.181	1619.438	1380.278
-1.473	33.122	1608.378	1370.367
-0.458	31.183	1590.337	1341.025
0.556	29.473	1591.499	1314.003
1.571	27.263	1616.584	1318.592
2.586	26.568	1629.329	1323.790
3.600	22.843	1572.380	1251.067
4.615	13.158	1456.380	1094.789
5.629	5.268	1390.624	995.166
6.644	3.998	1382.377	981.131
7.659	3.937	1380.751	979.504
8.673	4.063	1379.199	979.118
9.688	3.992	1377.660	977.488
10.702	3.955	1375.136	975.375
11.717	7.357	1382.471	1002.018
12.731	16.273	1398.151	1070.048
13.746	21.199	1405.594	1106.957
14.761	20.699	1403.828	1102.307
15.775	19.866	1400.875	1094.618
16.790	18.720	1398.618	1085.518
17.804	17.920	1396.462	1078.700
18.819	17.488	1394.714	1074.527
19.834	17.402	1393.430	1072.898
20.848	17.117	1392.682	1070.432
21.863	16.941	1391.178	1068.069
22.877	16.852	1389.499	1066.129
23.892	16.774	1389.204	1065.321
24.907	16.696	1388.318	1064.053
25.921	16.772	1387.411	1063.740
26.936	16.793	1386.229	1062.871
27.950	16.839	1385.872	1062.791
28.965	16.989	1384.407	1062.514
29.980	17.003	1383.717	1061.981
30.994	17.072	1382.627	1061.483
32.009	17.186	1381.129	1060.950
33.023	17.067	1379.954	1059.209
34.038	16.929	1378.969	1057.499
35.053	16.998	1377.659	1056.830
36.067	16.987	1376.296	1055.623
37.082	17.003	1375.276	1054.846
38.096	16.970	1374.380	1053.861
39.111	17.108	1373.594	1054.024
40.126	16.913	1372.592	1051.951
41.140	16.720	1371.707	1049.984
42.155	16.731	1371.056	1049.458
43.169	16.583	1371.067	1048.460
44.184	16.661	1370.652	1048.533
45.199	16.646	1370.410	1048.159
46.213	16.771	1369.699	1048.297
47.228	16.866	1368.897	1048.180
48.242	16.888	1367.321	1047.017
49.257	16.855	1366.024	1045.724
50.271	16.765	1364.726	1044.087
51.286	16.922	1363.295	1043.862
52.301	16.891	1361.899	1042.512
53.315	16.823	1360.531	1040.953
54.330	16.678	1360.233	1039.745
55.344	16.720	1358.259	1038.400
56.359	16.701	1357.603	1037.689
57.374	16.663	1356.796	1036.749
58.388	16.574	1355.686	1035.268
59.403	16.660	1355.111	1035.258
60.417	16.502	1354.654	1033.855
61.432	16.536	1353.558	1033.134
62.447	16.400	1352.438	1031.355
63.461	16.424	1351.521	1030.713
64.476	16.408	1350.761	1029.944
65.490	16.561	1348.623	1029.154
66.505	16.526	1347.121	1027.703
67.520	16.470	1346.253	1026.608
68.534	16.451	1345.592	1025.902
69.549	16.511	1344.421	1025.280
70.563	16.452	1343.396	1024.049
71.578	16.421	1342.448	1023.050
72.593	16.360	1341.316	1021.725
73.607	16.297	1340.715	1020.801
74.622	16.399	1339.718	1020.569
75.636	16.447	1338.946	1020.178
76.651	16.387	1338.193	1019.152
77.666	16.412	1337.913	1018.998
78.680	16.315	1337.521	1018.025
79.695	16.480	1336.704	1018.305
80.709	16.562	1335.821	1018.039
81.724	16.726	1334.879	1018.215
82.739	16.808	1334.225	1018.119
83.753	16.748	1333.704	1017.274
84.768	16.945	1332.587	1017.510
85.782	17.009	1331.370	1016.876
86.797	16.978	1330.206	1015.712
87.812	16.804	1329.007	1013.666
88.826	16.904	1327.953	1013.372
89.841	16.927	1326.370	1012.209
90.855	16.969	1325.752	1011.897
91.870	16.877	1325.137	1010.789
92.884	16.960	1323.964	1010.299
93.899	16.973	1323.644	1010.045
94.914	17.086	1322.846	1010.019
95.928	17.050	1322.139	1009.177
96.943	17.061	1320.682	1008.038
97.957	16.959	1320.002	1006.828
98.972	17.014	1318.733	1006.097
99.987	17.039	1317.858	1005.486
101.001	16.963	1317.031	1004.316
102.016	16.859	1315.927	1002.770
103.030	17.004	1314.971	1002.810
104.045	16.982	1313.890	1001.766
105.060	16.922	1312.530	1000.291
106.074	16.680	1311.413	997.923
107.089	16.596	1310.132	996.363
108.103	16.508	1308.573	994.572
109.118	16.590	1306.976	993.751
110.133	16.590	1305.729	992.715
111.147	16.590	1304.300	991.546
112.162	16.640	1302.893	990.681
113.176	16.631	1302.042	989.894
114.191	16.651	1301.335	989.383
115.206	16.708	1300.024	988.630
116.220	16.729	1298.922	987.830
117.235	16.617	1297.948	986.346
118.249	16.691	1296.566	985.641
119.264	16.600	1295.590	984.284
120.279	16.479	1294.444	982.620
121.293	16.671	1293.131	982.654
122.308	16.498	1292.537	981.107
123.322	16.400	1291.308	979.525
124.337	16.450	1290.152	978.847
125.352	16.605	1288.388	978.322
126.366	16.496	1287.441	976.886
127.381	16.509	1286.555	976.199
128.395	16.455	1285.952	975.346
129.410	16.595	1284.462	974.934
130.424	16.576	1283.945	974.350
131.439	16.665	1282.393	973.598
132.454	16.640	1282.081	973.129
133.468	16.689	1281.443	972.839
134.483	16.696	1280.579	972.140
135.497	16.673	1279.745	971.288
136.512	16.674	1278.198	970.035
137.527	16.715	1276.977	969.258
138.541	16.814	1275.493	968.608
139.556	16.781	1274.428	967.528
140.570	16.881	1273.511	967.318
141.585	16.997	1272.139	966.848
142.600	17.033	1270.642	965.831
143.614	17.098	1269.945	965.583
144.629	17.126	1269.194	965.090
145.643	16.873	1268.194	962.805
146.658	16.896	1266.552	961.603
147.673	16.870	1265.486	960.562
148.687	16.765	1264.063	958.802
149.702	16.690	1262.929	957.433
150.716	16.715	1261.894	956.703
151.731	16.631	1260.458	955.058
152.746	16.693	1259.097	954.292
153.760	16.791	1258.025	953.947
154.775	16.834	1257.353	953.593
155.789	16.916	1256.033	952.968
156.804	16.856	1255.484	952.135
157.819	16.915	1254.122	951.344
158.833	17.081	1252.991	951.336
159.848	17.043	1252.671	950.794
160.862	17.101	1251.286	949.986
161.877	16.867	1249.991	947.606
162.892	16.897	1248.318	946.423
163.906	16.780	1247.720	945.235
164.921	16.834	1246.694	944.671
165.935	16.869	1246.551	944.675
166.950	16.996	1245.285	944.338
167.964	16.934	1244.579	943.379
168.979	16.871	1244.220	942.669
169.994	16.876	1243.544	942.103
171.008	16.927	1242.349	941.400
172.023	16.999	1241.668	941.200
173.037	17.020	1241.023	940.742
174.052	17.112	1239.890	940.309
175.067	17.120	1238.464	939.190
176.081	16.934	1237.405	937.277
177.096	16.865	1236.603	936.201
178.110	16.921	1235.809	935.827
179.125	16.898	1234.502	934.630
180.140	16.945	1233.115	933.753
181.154	17.036	1232.024	933.346
182.169	17.039	1230.934	932.456
183.183	17.175	1229.943	932.367
184.198	17.271	1228.482	931.703
185.213	17.201	1227.290	930.337
186.227	17.250	1226.414	929.855
187.242	17.246	1225.303	928.909
188.256	17.415	1224.747	929.329
189.271	17.376	1223.609	928.172
190.286	17.205	1222.307	926.171
191.300	16.857	1221.356	923.470
192.315	16.854	1220.922	923.046
193.329	16.941	1219.691	922.507
194.344	16.934	1219.555	922.282
195.359	17.046	1219.199	922.542
196.373	17.159	1218.395	922.465
197.388	17.180	1217.966	922.173
198.402	17.423	1217.863	923.331
199.417	17.371	1217.263	922.514
200.432	17.492	1215.996	922.128
201.446	17.572	1215.428	922.049
202.461	17.616	1214.452	921.463
203.475	17.664	1213.610	921.003
204.490	17.579	1211.989	919.232
205.504	17.428	1210.943	917.546
206.519	17.325	1209.638	915.916
207.534	17.392	1208.539	915.366
208.548	17.422	1207.548	914.698
209.563	17.387	1206.782	913.848
210.577	17.478	1205.547	913.317
211.592	17.428	1204.931	912.506
212.607	17.592	1204.309	912.830
213.621	17.619	1203.408	912.211
214.636	17.560	1202.345	911.007
215.650	17.603	1201.449	910.481
216.665	17.694	1200.255	909.981
217.680	17.654	1199.800	909.338
218.694	17.653	1199.427	908.971
219.709	17.643	1198.583	908.199
220.723	17.729	1197.372	907.661
221.738	17.644	1197.172	906.973
222.753	17.699	1195.869	906.202
223.767	17.745	1195.003	905.708
224.782	17.832	1194.828	905.955
225.796	17.749	1194.565	905.238
226.811	17.809	1193.328	904.537
227.826	17.713	1192.528	903.344
228.840	17.777	1191.553	902.860
229.855	17.688	1190.689	901.658
230.869	17.646	1190.203	900.988
231.884	17.657	1189.426	900.378
232.899	17.676	1188.480	899.680
233.913	17.561	1187.770	898.459
234.928	17.605	1186.902	897.955
235.942	17.557	1186.163	897.063
236.957	17.657	1185.061	896.676
237.972	17.617	1184.433	895.909
238.986	17.600	1184.203	895.570
240.001	17.603	1183.299	894.819
241.015	17.625	1182.413	894.186
242.030	17.698	1181.612	893.888
243.045	17.797	1180.548	893.522
244.059	17.816	1179.639	892.853
245.074	17.844	1179.142	892.544
246.088	17.903	1178.061	891.957
247.103	18.004	1177.731	892.156
248.117	18.041	1176.823	891.579
249.132	18.056	1176.613	891.421
250.147	18.243	1175.649	891.587
251.161	18.296	1175.079	891.348
252.176	18.380	1174.399	891.195
253.190	18.455	1173.814	891.062
254.205	18.507	1173.091	890.701
255.220	18.458	1172.342	889.799
256.234	18.420	1171.981	889.252
257.249	18.426	1171.381	888.747
258.263	18.388	1170.810	888.039
259.278	18.403	1170.018	887.436
260.293	18.415	1169.289	886.870
261.307	18.531	1168.421	886.731
262.322	18.603	1167.680	886.461
263.336	18.561	1167.455	885.998
264.351	18.578	1166.439	885.237
265.366	18.674	1165.842	885.198
266.380	18.751	1165.413	885.189
267.395	18.638	1164.551	883.875
268.409	18.403	1163.653	881.905
269.424	18.455	1162.980	881.587
270.439	18.465	1162.355	881.084
271.453	18.586	1161.572	881.038
272.468	18.474	1160.488	879.559
273.482	18.429	1159.741	878.684
274.497	18.303	1159.449	877.742
275.512	18.438	1158.429	877.582
276.526	18.412	1157.548	876.704
277.541	18.535	1156.499	876.462
278.555	18.508	1156.602	876.322
279.570	18.641	1155.567	876.142
280.585	18.688	1154.851	875.761
281.599	18.706	1154.009	875.136
282.614	18.646	1153.079	874.048
283.628	18.602	1151.624	872.645
284.643	18.602	1150.744	871.900
285.657	18.642	1149.949	871.425
286.672	18.654	1149.120	870.779
287.687	18.651	1148.451	870.182
288.701	18.667	1147.837	869.718
289.716	18.778	1146.505	869.195
290.730	18.756	1145.954	868.590
291.745	18.766	1144.889	867.754
292.760	18.755	1144.773	867.537
293.774	18.818	1144.163	867.312
294.789	18.918	1143.724	867.409
295.803	18.829	1142.778	866.168
296.818	18.775	1141.913	865.161
297.833	18.779	1141.317	864.654
298.847	18.717	1140.647	863.758
299.862	18.781	1139.463	863.106
300.876	18.880	1138.827	863.043
301.891	18.915	1138.654	863.013
302.906	18.943	1138.101	862.656
303.920	19.000	1137.111	862.117
304.935	19.013	1136.901	861.946
305.949	19.197	1135.880	862.018
306.964	19.076	1135.372	860.952
307.979	19.057	1134.003	859.740
308.993	18.984	1133.811	859.157
310.008	19.075	1132.692	858.683
311.022	19.150	1132.037	858.488
312.037	19.075	1131.290	857.470
313.052	19.063	1130.361	856.633
314.066	19.016	1128.869	855.192
315.081	18.920	1128.308	854.212
316.095	18.900	1127.453	853.390
317.110	18.975	1126.790	853.188
318.125	19.020	1125.880	852.642
319.139	18.879	1125.478	851.566
320.154	18.963	1124.861	851.438
321.168	18.989	1124.456	851.185
322.183	18.910	1123.938	850.326
323.197	18.961	1122.836	849.673
324.212	19.104	1122.460	850.018
325.227	19.011	1122.082	849.195
326.241	19.014	1121.156	848.436
327.256	19.031	1120.366	847.845
328.270	19.075	1119.159	847.076
329.285	18.964	1118.508	845.960
330.300	19.002	1117.590	845.379
331.314	19.050	1116.339	844.592
332.329	19.071	1115.417	843.926
333.343	19.056	1114.751	843.269
334.358	19.141	1114.046	843.078
335.373	19.280	1113.325	843.139
336.387	19.239	1112.652	842.354
337.402	19.243	1112.039	841.839
338.416	19.347	1110.719	841.268
339.431	19.357	1110.706	841.237
340.446	19.465	1110.020	841.167
341.460	19.595	1109.214	841.117
342.475	19.574	1108.614	840.486
343.489	19.609	1107.768	839.938
344.504	19.766	1106.299	839.513
345.519	19.725	1105.881	838.920
346.533	19.649	1105.117	837.899
347.548	19.772	1104.343	837.832
348.562	19.788	1103.452	837.162
349.577	19.550	1102.817	835.454
350.592	19.611	1101.600	834.753
351.606	19.385	1101.172	833.265
352.621	19.353	1100.268	832.353
353.635	19.450	1099.594	832.235
354.650	19.537	1099.033	832.157
355.665	19.577	1098.022	831.508
356.679	19.504	1097.701	830.840
357.694	19.545	1097.118	830.526
358.708	19.669	1096.819	830.821
359.723	19.614	1096.078	829.919
360.738	19.512	1095.699	829.071
361.752	19.671	1094.783	829.068
362.767	19.707	1094.073	828.631
363.781	19.683	1093.304	827.856
364.796	19.838	1092.807	828.153
365.810	19.935	1092.490	828.302
366.825	19.963	1091.895	827.913
367.840	20.007	1091.358	827.641
368.854	20.029	1090.758	827.219
369.869	20.073	1090.280	826.994
370.883	19.952	1089.113	825.457
371.898	19.923	1088.243	824.587
372.913	19.987	1087.356	824.147
373.927	19.986	1087.339	824.054
374.942	19.941	1087.045	823.545
375.956	20.030	1086.163	823.227
376.971	20.004	1085.580	822.589
377.986	20.015	1085.310	822.365
379.000	20.214	1084.727	822.796
380.015	20.204	1083.920	822.060
381.029	20.242	1083.491	821.846
382.044	20.234	1082.504	820.985
383.059	20.198	1081.778	820.191
384.073	20.206	1081.411	819.878
385.088	20.329	1079.776	819.148
386.102	20.185	1079.135	817.909
387.117	20.173	1077.968	816.893
388.132	20.056	1077.350	815.804
389.146	20.047	1076.524	815.066
390.161	20.093	1075.895	814.732
391.175	20.149	1075.145	814.355
392.190	20.225	1074.229	813.945
393.205	20.238	1073.772	813.590
394.219	20.224	1073.103	812.942
395.234	20.156	1072.159	811.840
396.248	20.285	1070.551	811.154
397.263	20.280	1069.644	810.368
398.278	19.982	1069.531	808.822
399.292	19.927	1068.510	807.719
400.307	20.001	1067.706	807.386
401.321	20.034	1067.015	806.945
402.336	20.051	1066.262	806.385
403.350	20.084	1065.741	806.070
404.365	20.090	1065.276	805.678
405.380	20.050	1064.742	805.018
406.394	20.140	1063.906	804.729
407.409	20.294	1062.817	804.549
408.423	20.448	1062.572	805.005
409.438	20.561	1061.685	804.788
410.453	20.608	1061.065	804.463
411.467	20.535	1060.618	803.715
412.482	20.560	1060.103	803.371
413.496	20.506	1059.553	802.630
414.511	20.644	1058.284	802.236
415.526	20.863	1057.744	802.766
416.540	20.850	1057.261	802.267
417.555	20.719	1057.158	801.513
418.569	20.742	1056.245	800.856
419.584	20.712	1055.764	800.286
420.599	20.658	1055.632	799.865
421.613	151.890	1402.785	1790.290
422.628	139.426	1453.362	1790.401
