DTS Sentinel unit serial number:	SN413079Multiplexer serial number:	ORYXHardware model number:	OX4-SRSoftware version number:	ORYX F/W v4.00 Oryx Data Collector v3.7.2.0data status	okinstallation	princeton_trtdifferential loss correction	single-endedforward channel	channel 2reverse channel	N/Adate	2019/09/16time	03:19:34forward acquisition time	60.00reverse acquisition time	0.00gamma	496.2192k internal	0.2334k external	0.2334temperature offset calibration	0.9969default loss term (dB/km)	0.3790temperature slope calibration	1.0000multiplexer offset coefficient	1.0000multiplexer slope coefficient	1.0000fibre end	0.00T internal ref (°C)	27.73T ext. ref 1 (°C)	10.50T ext. ref 2 (°C)	21.88length (m)	temperature (°C)	Stokes	anti-Stokes-747.200	66.934	0.064	0.066
-746.185	800.000	-0.104	0.385
-745.171	-200.000	0.101	-0.494
-744.156	411.180	0.168	0.358
-743.142	17.994	0.182	0.146
-742.127	-97.448	-0.261	-0.068
-741.112	-200.000	-0.042	0.471
-740.098	103.526	-0.200	0.236
-739.083	-200.000	0.054	0.313
-738.069	800.000	-0.054	0.160
-737.054	31.384	-0.068	0.059
-736.039	11.298	0.297	0.228
-735.025	800.000	0.049	0.203
-734.010	-19.041	-0.211	0.132
-732.996	-68.450	0.106	-0.041
-731.981	-70.453	-0.112	0.042
-730.966	486.502	0.034	0.078
-729.952	800.000	-0.086	0.314
-728.937	-75.128	0.200	-0.072
-727.923	-13.506	-0.287	0.187
-726.908	-112.377	0.181	0.036
-725.894	727.585	0.063	-0.169
-724.879	8.351	0.095	-0.071
-723.864	-71.206	-0.125	0.047
-722.850	708.297	-0.099	0.264
-721.835	608.477	0.134	0.337
-720.821	-78.189	0.078	0.027
-719.806	800.000	-0.010	0.037
-718.791	800.000	-0.107	-0.324
-717.777	18.411	-0.256	0.205
-716.762	1.520	-0.139	0.101
-715.748	-87.700	0.148	0.045
-714.733	213.134	-0.029	-0.046
-713.718	-200.000	0.012	0.215
-712.704	-200.000	-0.004	0.181
-711.689	-200.000	0.004	-0.053
-710.675	-200.000	-0.039	-0.177
-709.660	110.483	0.284	-0.343
-708.645	145.728	-0.034	-0.045
-707.631	800.000	0.054	-0.167
-706.616	89.852	-0.105	0.118
-705.602	-50.929	-0.374	0.176
-704.587	51.443	-0.218	-0.208
-703.572	-151.245	0.165	-0.012
-702.558	-16.183	-0.104	0.067
-701.543	78.206	-0.149	-0.160
-700.529	783.352	0.023	-0.063
-699.514	92.113	-0.212	0.240
-698.499	-15.341	0.305	-0.196
-697.485	-133.762	0.258	-0.032
-696.470	800.000	0.078	0.318
-695.456	134.127	-0.203	0.264
-694.441	4.283	0.132	0.097
-693.426	-105.608	0.185	0.042
-692.412	-98.558	-0.077	0.020
-691.397	-86.283	-0.053	0.016
-690.383	9.912	-0.250	0.190
-689.368	-200.000	-0.007	0.114
-688.354	-84.880	0.190	0.060
-687.339	397.689	-0.037	0.077
-686.324	518.737	0.064	0.150
-685.310	-124.213	-0.121	-0.019
-684.295	13.363	0.243	-0.189
-683.281	-124.755	-0.257	-0.040
-682.266	34.995	0.153	0.134
-681.251	220.422	-0.111	-0.178
-680.237	-177.475	0.044	-0.001
-679.222	-14.699	0.046	0.029
-678.208	-200.000	0.009	0.059
-677.193	-200.000	0.048	-0.219
-676.178	-200.000	0.014	-0.275
-675.164	-113.404	0.261	-0.051
-674.149	-200.000	0.024	0.177
-673.135	456.045	0.127	-0.282
-672.120	-10.570	0.128	0.085
-671.105	486.878	-0.156	0.356
-670.091	-200.000	0.022	-0.186
-669.076	-87.835	-0.036	-0.011
-668.062	-64.017	-0.174	-0.071
-667.047	-200.000	-0.067	-0.479
-666.032	-111.907	0.180	-0.036
-665.018	85.448	-0.064	0.070
-664.003	800.000	-0.066	0.205
-662.989	-166.011	-0.244	0.010
-661.974	-121.444	-0.221	0.037
-660.959	-178.568	-0.222	-0.005
-659.945	-23.017	-0.210	0.127
-658.930	-200.000	0.040	0.199
-657.916	133.803	0.036	0.046
-656.901	-102.722	0.322	0.077
-655.886	800.000	-0.014	0.054
-654.872	800.000	0.063	0.185
-653.857	-122.843	-0.014	-0.002
-652.843	-119.998	0.364	0.063
-651.828	-200.000	-0.003	0.155
-650.814	105.723	-0.093	-0.110
-649.799	71.397	0.076	0.079
-648.784	800.000	-0.085	0.258
-647.770	12.467	0.081	0.063
-646.755	-73.169	-0.289	-0.106
-645.741	158.020	-0.086	-0.119
-644.726	-24.721	-0.165	0.098
-643.711	75.155	0.161	0.170
-642.697	-9.471	-0.185	-0.123
-641.682	338.920	-0.096	-0.186
-640.668	258.356	-0.165	-0.284
-639.653	-65.645	-0.148	0.060
-638.638	259.677	0.064	-0.111
-637.624	112.220	-0.024	-0.030
-636.609	117.011	-0.236	-0.290
-635.595	373.126	-0.064	0.131
-634.580	-200.000	0.003	-0.223
-633.565	727.760	-0.049	0.131
-632.551	-116.067	0.169	0.031
-631.536	-16.891	-0.129	0.082
-630.522	-41.850	-0.121	0.062
-629.507	11.776	0.158	0.121
-628.492	279.403	-0.162	-0.290
-627.478	-85.441	0.113	0.035
-626.463	-200.000	0.009	0.283
-625.449	-57.539	0.120	0.053
-624.434	-200.000	-0.034	0.227
-623.419	502.243	-0.063	0.147
-622.405	-165.874	0.234	-0.010
-621.390	120.614	-0.063	0.079
-620.376	-89.176	-0.293	-0.087
-619.361	800.000	-0.089	0.299
-618.346	200.276	0.244	0.376
-617.332	-200.000	-0.020	0.191
-616.317	-200.000	-0.061	0.288
-615.303	21.126	-0.194	0.157
-614.288	-139.615	0.350	0.037
-613.273	-91.406	0.291	0.083
-612.259	87.139	-0.139	0.154
-611.244	-200.000	0.045	-0.315
-610.230	800.000	0.077	-0.307
-609.215	-100.781	-0.242	-0.060
-608.201	-99.747	0.425	-0.107
-607.186	-152.185	0.144	-0.010
-606.171	-58.253	0.217	0.094
-605.157	-164.239	0.223	-0.010
-604.142	-14.282	-0.076	0.049
-603.128	80.627	-0.333	0.359
-602.113	-200.000	0.026	-0.287
-601.098	-120.292	0.012	0.002
-600.084	55.282	0.121	-0.117
-599.069	23.718	0.131	0.108
-598.055	-200.000	0.008	0.049
-597.040	800.000	-0.033	0.124
-596.025	224.830	0.206	-0.332
-595.011	120.515	0.209	-0.259
-593.996	19.765	-0.043	-0.035
-592.982	-200.000	0.063	-0.288
-591.967	800.000	0.071	0.260
-590.952	141.619	-0.085	-0.113
-589.938	-200.000	0.005	0.241
-588.923	-200.000	0.055	0.282
-587.909	-28.240	0.175	0.101
-586.894	-99.750	0.185	0.046
-585.879	-200.000	0.037	-0.167
-584.865	-200.000	0.046	-0.404
-583.850	-155.913	-0.115	0.007
-582.836	122.155	-0.170	0.212
-581.821	3.545	0.430	0.313
-580.806	693.586	-0.068	-0.177
-579.792	440.047	-0.171	-0.373
-578.777	-73.166	-0.236	0.087
-577.763	46.109	0.154	-0.143
-576.748	-26.568	0.084	0.049
-575.733	-118.265	-0.546	0.097
-574.719	-200.000	-0.015	-0.431
-573.704	-200.000	0.018	-0.290
-572.690	-41.636	-0.169	0.087
-571.675	101.493	0.110	-0.127
-570.661	800.000	-0.106	-0.455
-569.646	-200.000	-0.005	-0.165
-568.631	800.000	0.088	-0.263
-567.617	-178.645	-0.192	-0.004
-566.602	-200.000	-0.038	-0.194
-565.588	406.986	-0.050	0.106
-564.573	-89.983	0.111	0.032
-563.558	400.920	-0.014	0.030
-562.544	-21.973	0.319	0.193
-561.529	800.000	-0.105	-0.340
-560.515	343.755	0.107	-0.209
-559.500	-40.207	0.028	-0.015
-558.485	800.000	-0.048	-0.139
-557.471	-33.407	-0.160	-0.088
-556.456	457.809	0.078	-0.173
-555.442	-200.000	0.052	-0.255
-554.427	-200.000	-0.019	0.187
-553.412	13.716	-0.298	0.231
-552.398	-55.606	0.075	-0.033
-551.383	-163.469	0.142	0.007
-550.369	-22.161	-0.334	-0.202
-549.354	-200.000	0.010	0.056
-548.339	140.897	-0.029	0.038
-547.325	-103.610	-0.120	-0.028
-546.310	-113.208	0.147	-0.029
-545.296	23.806	-0.086	0.071
-544.281	-124.395	0.212	-0.033
-543.266	-51.408	0.096	-0.045
-542.252	126.274	-0.072	-0.091
-541.237	107.127	-0.091	0.107
-540.223	623.015	0.043	-0.109
-539.208	473.014	-0.060	-0.134
-538.193	-65.819	-0.396	0.158
-537.179	-100.922	-0.125	0.031
-536.164	-9.128	0.053	0.035
-535.150	-11.239	-0.191	0.126
-534.135	-60.870	0.145	-0.061
-533.121	-64.582	0.228	0.092
-532.106	-200.000	-0.017	-0.106
-531.091	-58.868	-0.293	-0.126
-530.077	217.982	0.093	-0.148
-529.062	-55.304	0.212	0.095
-528.048	44.779	0.184	0.168
-527.033	25.408	-0.064	0.053
-526.018	-200.000	0.037	0.191
-525.004	800.000	-0.052	-0.150
-523.989	46.172	0.209	-0.193
-522.975	-25.631	0.048	0.028
-521.960	27.502	0.197	-0.165
-520.945	-167.450	-0.365	0.015
-519.931	77.384	-0.249	0.264
-518.916	88.615	-0.111	-0.123
-517.902	5.252	0.599	-0.440
-516.887	-46.971	0.185	0.090
-515.872	18.906	0.190	0.152
-514.858	-60.561	0.158	-0.067
-513.843	86.629	-0.281	0.309
-512.829	-3.310	0.250	0.173
-511.814	106.130	-0.131	0.155
-510.799	311.201	-0.200	0.373
-509.785	800.000	-0.050	0.166
-508.770	800.000	-0.035	0.100
-507.756	-119.406	0.238	-0.041
-506.741	614.971	-0.058	0.144
-505.726	171.943	0.188	0.269
-504.712	-200.000	-0.012	-0.207
-503.697	-110.291	0.419	-0.087
-502.683	577.791	-0.079	0.193
-501.668	-122.561	-0.139	-0.022
-500.653	-154.202	0.153	0.010
-499.639	-113.884	0.136	-0.026
-498.624	-35.036	-0.139	0.076
-497.610	30.077	0.137	-0.116
-496.595	-23.501	-0.221	-0.132
-495.581	-34.531	-0.157	-0.086
-494.566	146.620	-0.204	0.273
-493.551	442.288	0.166	0.363
-492.537	-150.259	-0.193	0.015
-491.522	-34.461	0.216	-0.118
-490.508	-48.210	0.047	-0.023
-489.493	396.026	-0.032	-0.067
-488.478	-142.691	0.312	0.030
-487.464	106.902	-0.100	-0.118
-486.449	304.466	-0.145	0.268
-485.435	131.061	0.052	-0.066
-484.420	-200.000	0.035	0.197
-483.405	-148.161	-0.039	0.003
-482.391	76.957	-0.106	-0.112
-481.376	-200.000	-0.005	-0.120
-480.362	-44.891	0.128	0.064
-479.347	-200.000	-0.012	0.174
-478.332	-66.371	0.062	-0.025
-477.318	195.356	-0.049	-0.074
-476.303	-80.264	0.153	-0.051
-475.289	-8.672	-0.294	0.197
-474.274	-114.517	0.628	-0.120
-473.259	606.190	-0.111	-0.276
-472.245	800.000	-0.075	0.234
-471.230	800.000	-0.040	0.173
-470.216	-84.186	-0.427	-0.135
-469.201	203.068	0.097	-0.149
-468.186	-138.331	0.208	0.023
-467.172	244.851	-0.091	-0.153
-466.157	92.640	-0.262	-0.294
-465.143	-132.107	-0.109	-0.014
-464.128	-200.000	-0.042	-0.187
-463.113	-45.676	0.108	0.053
-462.099	-149.349	0.269	0.021
-461.084	378.286	-0.124	0.253
-460.070	-200.000	-0.009	-0.320
-459.055	225.879	0.072	-0.115
-458.040	-32.880	0.191	-0.105
-457.026	491.294	0.091	0.208
-456.011	21.195	0.292	0.235
-454.997	-200.000	0.048	-0.328
-453.982	-200.000	0.046	-0.300
-452.968	-97.337	0.165	-0.043
-451.953	-137.053	0.094	-0.011
-450.938	-24.211	0.338	0.200
-449.924	187.795	0.098	-0.145
-448.909	-123.782	-0.104	0.016
-447.895	800.000	0.069	-0.204
-446.880	-132.887	-0.288	0.036
-445.865	-134.159	-0.073	-0.009
-444.851	504.078	0.086	-0.198
-443.836	-200.000	-0.020	0.122
-442.822	105.412	0.183	0.215
-441.807	162.518	0.016	0.022
-440.792	-122.579	0.348	0.056
-439.778	-36.568	-0.199	-0.106
-438.763	239.632	-0.066	0.110
-437.749	79.132	0.272	0.289
-436.734	178.726	-0.100	0.145
-435.719	-118.286	0.149	-0.026
-434.705	-200.000	0.004	-0.055
-433.690	-44.760	-0.175	0.087
-432.676	-104.589	0.241	0.055
-431.661	358.948	-0.112	-0.223
-430.646	-72.181	0.163	0.060
-429.632	800.000	0.038	-0.109
-428.617	-46.559	-0.081	0.040
-427.603	187.056	-0.093	-0.138
-426.588	-64.863	0.419	0.168
-425.573	155.700	-0.238	-0.325
-424.559	28.728	0.209	-0.176
-423.544	243.566	0.162	0.269
-422.530	-116.340	-0.130	0.024
-421.515	-181.577	-0.487	0.009
-420.500	63.217	-0.183	-0.182
-419.486	-165.721	-0.198	0.008
-418.471	19.377	0.265	0.212
-417.457	-25.644	0.017	-0.010
-416.442	-71.763	-0.197	-0.073
-415.428	-11.863	0.065	-0.042
-414.413	-200.000	0.005	-0.193
-413.398	108.649	-0.261	0.309
-412.384	335.416	-0.187	-0.360
-411.369	-17.556	0.167	0.104
-410.355	-50.627	0.105	0.049
-409.340	-114.122	-0.230	-0.044
-408.325	-14.968	0.155	-0.099
-407.311	-44.615	-0.182	0.090
-406.296	-18.164	0.186	0.116
-405.282	-46.042	-0.287	-0.140
-404.267	-106.618	-0.186	-0.041
-403.252	-200.000	0.052	0.389
-402.238	3.044	0.133	-0.096
-401.223	135.082	0.144	0.186
-400.209	-71.691	0.231	0.085
-399.194	144.048	-0.140	0.185
-398.179	134.786	-0.259	0.333
-397.165	41.791	0.194	-0.174
-396.150	-147.041	0.191	0.016
-395.136	800.000	-0.122	0.444
-394.121	203.934	-0.311	0.478
-393.106	728.425	0.059	0.155
-392.092	-200.000	-0.011	-0.195
-391.077	-94.911	0.205	-0.055
-390.063	-40.226	0.203	0.105
-389.048	-96.061	-0.243	0.064
-388.033	130.253	0.078	0.099
-387.019	-41.511	0.146	-0.074
-386.004	800.000	0.010	0.039
-384.990	155.436	-0.116	0.158
-383.975	-200.000	-0.043	0.302
-382.960	-120.477	-0.189	-0.032
-381.946	800.000	-0.048	0.186
-380.931	-138.375	-0.250	-0.027
-379.917	79.658	-0.055	-0.058
-378.902	-177.718	0.169	0.004
-377.888	2.804	0.187	0.135
-376.873	-58.330	0.186	0.080
-375.858	29.820	-0.377	-0.318
-374.844	-200.000	-0.004	0.266
-373.829	800.000	0.183	-0.525
-372.815	460.381	-0.090	-0.200
-371.800	136.425	-0.142	0.184
-370.785	800.000	0.082	-0.311
-369.771	-200.000	-0.001	-0.237
-368.756	31.956	0.061	-0.052
-367.742	112.467	0.096	-0.115
-366.727	-54.979	0.295	0.132
-365.712	-200.000	-0.023	0.100
-364.698	254.834	0.076	-0.130
-363.683	800.000	-0.063	-0.204
-362.669	-9.465	0.163	0.107
-361.654	20.751	-0.042	-0.034
-360.639	248.699	-0.081	-0.135
-359.625	732.403	0.058	-0.154
-358.610	-200.000	0.041	0.291
-357.596	115.084	-0.009	0.010
-356.581	800.000	0.052	0.189
-355.566	-200.000	-0.026	-0.370
-354.552	524.852	-0.051	-0.118
-353.537	-200.000	0.022	-0.112
-352.523	119.033	0.146	-0.179
-351.508	67.465	-0.449	0.454
-350.493	-63.045	0.016	-0.006
-349.479	402.131	-0.102	0.213
-348.464	144.027	0.159	-0.210
-347.450	-159.592	-0.149	-0.008
-346.435	-200.000	0.039	-0.307
-345.420	41.693	0.174	-0.156
-344.406	-200.000	0.004	0.160
-343.391	737.629	0.062	-0.165
-342.377	-200.000	0.033	-0.168
-341.362	-156.577	-0.129	-0.008
-340.348	-42.368	0.529	-0.267
-339.333	-94.134	-0.238	-0.064
-338.318	-99.533	-0.191	-0.047
-337.304	159.945	-0.344	0.474
-336.289	-200.000	-0.006	-0.078
-335.275	-200.000	0.020	-0.208
-334.260	-30.695	0.013	0.007
-333.245	-58.268	-0.022	-0.010
-332.231	800.000	0.119	0.383
-331.216	24.174	0.281	0.230
-330.202	-90.246	-0.242	-0.070
-329.187	320.503	0.081	-0.152
-328.172	2.622	0.066	0.048
-327.158	800.000	-0.100	-0.301
-326.143	182.707	0.100	-0.146
-325.129	-185.885	0.175	-0.003
-324.114	655.526	-0.093	-0.237
-323.099	-112.670	-0.065	-0.013
-322.085	800.000	-0.021	0.064
-321.070	800.000	0.025	-0.071
-320.056	800.000	-0.028	0.103
-319.041	-67.436	0.089	0.035
-318.026	159.365	0.224	0.308
-317.012	-87.446	0.046	-0.014
-315.997	1.117	0.264	-0.187
-314.983	-161.410	-0.086	0.004
-313.968	78.551	-0.137	0.145
-312.953	153.110	-0.064	0.087
-311.939	-200.000	-0.001	-0.083
-310.924	128.611	-0.051	-0.064
-309.910	-152.090	-0.335	0.024
-308.895	92.240	0.087	-0.097
-307.880	-72.275	-0.153	0.056
-306.866	35.170	-0.112	-0.097
-305.851	-74.002	0.239	0.086
-304.837	-171.006	-0.178	-0.006
-303.822	481.066	-0.057	-0.127
-302.807	1.657	0.193	-0.137
-301.793	-11.998	0.195	0.126
-300.778	-108.972	-0.333	0.070
-299.764	105.952	0.084	0.098
-298.749	85.538	0.115	-0.124
-297.735	-111.968	0.091	-0.018
-296.720	92.005	0.135	-0.150
-295.705	44.206	0.100	-0.091
-294.691	-27.115	-0.123	0.071
-293.676	-95.741	-0.323	-0.085
-292.662	-200.000	-0.001	0.127
-291.647	-200.000	-0.033	-0.184
-290.632	155.763	-0.044	0.060
-289.618	235.885	-0.150	-0.245
-288.603	-30.230	0.126	0.071
-287.589	67.652	0.192	0.193
-286.574	695.535	0.104	-0.268
-285.559	-22.678	0.233	0.139
-284.545	-200.000	-0.054	-0.317
-283.530	172.669	-0.138	-0.196
-282.516	-37.555	0.132	-0.070
-281.501	-200.000	0.015	0.322
-280.486	209.027	0.254	0.392
-279.472	800.000	-0.073	0.202
-278.457	-200.000	-0.021	-0.161
-277.443	-200.000	0.032	-0.310
-276.428	13.150	0.348	-0.266
-275.413	-2.829	-0.168	0.116
-274.399	800.000	-0.046	0.171
-273.384	7.832	-0.043	0.032
-272.370	157.604	-0.096	0.131
-271.355	-85.675	-0.098	0.030
-270.340	157.405	-0.043	0.059
-269.326	88.564	0.284	-0.311
-268.311	-3.888	-0.073	0.050
-267.297	136.213	-0.130	-0.168
-266.282	44.256	-0.123	-0.111
-265.267	380.141	-0.092	0.186
-264.253	-93.680	-0.098	0.027
-263.238	732.049	-0.032	0.085
-262.224	227.255	-0.085	-0.136
-261.209	25.890	0.195	0.160
-260.195	1.213	-0.168	-0.119
-259.180	-200.000	0.064	0.292
-258.165	800.000	-0.070	0.222
-257.151	81.184	0.185	0.197
-256.136	-200.000	-0.062	-0.286
-255.122	800.000	0.034	0.128
-254.107	-25.353	0.010	0.006
-253.092	-100.922	0.171	0.041
-252.078	73.907	0.112	-0.116
-251.063	-3.831	0.267	0.183
-250.049	4.876	-0.025	-0.018
-249.034	-34.211	0.060	0.033
-248.019	3.607	0.075	0.054
-247.005	800.000	0.021	-0.068
-245.990	-126.160	-0.353	-0.052
-244.976	7.359	-0.098	-0.072
-243.961	-81.897	-0.201	-0.065
-242.946	31.024	-0.151	0.128
-241.932	229.004	0.226	0.364
-240.917	244.405	0.069	-0.114
-239.903	-200.000	-0.007	0.089
-238.888	-200.000	0.005	-0.496
-237.873	86.423	-0.223	0.242
-236.859	-112.397	-0.201	0.040
-235.844	800.000	-0.041	0.147
-234.830	-128.966	0.092	-0.013
-233.815	-21.452	-0.083	-0.050
-232.800	-10.515	0.193	-0.126
-231.786	75.774	0.222	-0.231
-230.771	-140.326	-0.049	-0.005
-229.757	-15.308	-0.092	0.058
-228.742	177.092	-0.124	-0.177
-227.727	800.000	0.136	0.420
-226.713	279.503	0.171	0.301
-225.698	110.051	-0.018	-0.021
-224.684	-200.000	-0.042	-0.308
-223.669	-48.990	-0.249	-0.118
-222.655	800.000	-0.059	-0.214
-221.640	-200.000	-0.035	0.453
-220.625	592.357	-0.091	0.222
-219.611	-200.000	0.034	0.254
-218.596	-132.075	0.186	0.024
-217.582	648.161	-0.049	0.124
-216.567	-34.955	0.228	0.123
-215.552	161.404	0.136	0.187
-214.538	-160.378	-0.117	-0.006
-213.523	732.020	-0.074	-0.194
-212.509	34.742	-0.123	-0.106
-211.494	265.471	-0.078	-0.134
-210.479	129.710	0.261	-0.329
-209.465	-136.572	0.124	0.014
-208.450	-130.416	-0.252	0.034
-207.436	42.734	0.100	0.090
-206.421	-200.000	0.001	0.028
-205.406	-131.044	-0.335	-0.044
-204.392	-92.993	-0.144	0.039
-203.377	260.210	-0.056	0.095
-202.363	-117.534	-0.186	0.033
-201.348	-93.842	0.361	0.098
-200.333	61.677	0.110	-0.108
-199.319	-125.917	-0.064	0.009
-198.304	800.000	0.028	0.118
-197.290	-200.000	-0.087	-0.491
-196.275	263.847	-0.108	0.185
-195.260	265.996	0.094	-0.161
-194.246	-200.000	0.045	-0.228
-193.231	-57.171	-0.140	-0.061
-192.217	-91.449	-0.339	-0.095
-191.202	1.218	-0.199	0.140
-190.187	-129.246	-0.212	0.029
-189.173	91.825	-0.052	-0.058
-188.158	-97.546	0.221	0.057
-187.144	617.410	-0.092	0.228
-186.129	-62.050	0.176	-0.072
-185.114	85.271	0.197	0.212
-184.100	7.882	0.198	0.146
-183.085	485.217	-0.190	-0.426
-182.071	-161.663	-0.163	0.008
-181.056	-200.000	-0.043	0.311
-180.042	-145.779	-0.072	0.006
-179.027	129.485	-0.314	0.395
-178.012	409.017	-0.071	0.148
-176.998	589.238	0.134	-0.326
-175.983	-200.000	-0.030	0.231
-174.969	-33.292	-0.326	0.178
-173.954	123.381	0.062	-0.077
-172.939	-46.551	-0.208	-0.100
-171.925	40.970	0.204	-0.181
-170.910	757.551	-0.070	-0.185
-169.896	-200.000	-0.018	0.194
-168.881	-200.000	-0.001	0.041
-167.866	-65.035	-0.346	0.137
-166.852	462.303	0.067	-0.147
-165.837	318.202	0.122	-0.228
-164.823	228.724	0.096	0.154
-163.808	115.165	0.207	0.248
-162.793	136.064	0.101	0.129
-161.779	-53.482	-0.367	-0.165
-160.764	-76.110	-0.110	-0.038
-159.750	-84.792	0.068	-0.021
-158.735	7.516	-0.193	0.142
-157.720	-199.905	0.533	-0.003
-156.706	767.744	-0.090	-0.240
-155.691	-146.343	-0.221	0.019
-154.677	-200.000	-0.004	-0.087
-153.662	91.933	0.083	0.092
-152.647	595.000	0.028	0.068
-151.633	-86.625	-0.151	0.046
-150.618	-86.343	-0.269	-0.081
-149.604	110.718	0.105	-0.124
-148.589	-27.092	-0.133	-0.076
-147.574	-15.802	-0.096	-0.060
-146.560	40.676	-0.128	0.113
-145.545	-67.632	0.059	-0.023
-144.531	103.381	0.185	-0.213
-143.516	800.000	-0.034	-0.144
-142.502	43.720	-0.145	-0.131
-141.487	-200.000	0.013	0.242
-140.472	-168.528	0.042	0.002
-139.458	19.335	-0.151	-0.119
-138.443	-200.000	-0.030	-0.178
-137.429	-36.166	0.199	-0.106
-136.414	-106.390	0.112	-0.025
-135.399	226.318	-0.031	0.049
-134.385	341.024	0.119	-0.228
-133.370	158.381	-0.196	-0.267
-132.356	180.414	-0.063	0.090
-131.341	140.678	0.176	0.229
-130.326	-143.701	-0.181	-0.017
-129.312	-67.598	-0.125	0.048
-128.297	800.000	-0.065	-0.199
-127.283	-43.708	-0.116	0.057
-126.268	-49.338	-0.195	0.091
-125.253	-200.000	-0.001	0.280
-124.239	-94.558	-0.256	0.068
-123.224	-127.376	0.171	0.024
-122.210	223.750	0.118	-0.187
-121.195	1.269	0.253	0.179
-120.180	-200.000	-0.036	0.449
-119.166	-149.854	-0.129	-0.010
-118.151	-200.000	-0.003	0.045
-117.137	13.132	-0.254	0.193
-116.122	76.370	0.153	0.159
-115.107	-80.050	0.125	0.041
-114.093	-10.722	-0.325	0.211
-113.078	-65.485	0.100	-0.039
-112.064	-200.000	-0.020	0.184
-111.049	800.000	0.031	0.099
-110.034	-98.321	0.349	-0.088
-109.020	-86.455	-0.197	0.059
-108.005	-27.120	-0.083	0.048
-106.991	-21.003	-0.088	0.053
-105.976	-62.815	-0.085	-0.035
-104.962	31.009	-0.021	0.018
-103.947	-136.899	-0.137	-0.015
-102.932	277.642	0.086	0.150
-101.918	-110.707	0.278	-0.056
-100.903	800.000	-0.081	0.299
-99.889	-104.956	-0.299	0.067
-98.874	-11.709	-0.222	-0.143
-97.859	-200.000	-0.001	0.053
-96.845	41.953	-0.080	0.071
-95.830	-23.982	-0.305	-0.179
-94.816	4.975	-0.172	-0.124
-93.801	-11.212	-0.141	-0.091
-92.786	-114.738	-0.334	0.063
-91.772	-184.613	-0.307	0.005
-90.757	261.630	0.098	0.167
-89.743	-200.000	-0.075	0.556
-88.728	-54.097	-0.044	0.020
-87.713	-200.000	-0.041	-0.303
-86.699	-14.098	-0.213	0.135
-85.684	606.962	0.075	-0.184
-84.670	-200.000	-0.016	0.211
-83.655	-48.339	-0.208	-0.098
-82.640	-37.179	-0.090	-0.047
-81.626	-200.000	0.036	0.233
-80.611	-7.658	0.259	0.171
-79.597	-97.231	-0.238	0.061
-78.582	-131.072	-0.328	-0.043
-77.567	122.590	0.037	0.045
-76.553	800.000	-0.143	0.464
-75.538	-40.860	0.372	0.188
-74.524	275.887	0.102	-0.178
-73.509	354.090	-0.113	0.219
-72.494	800.000	0.092	0.340
-71.480	126.985	-0.314	0.390
-70.465	83.910	-0.153	0.164
-69.451	30.964	-0.023	-0.020
-68.436	-143.480	-0.109	-0.010
-67.422	-138.513	-0.250	0.027
-66.407	-57.356	0.473	-0.203
-65.392	284.701	-0.062	-0.109
-64.378	-31.401	0.175	-0.096
-63.363	-151.154	0.314	0.023
-62.349	279.537	0.087	0.151
-61.334	59.551	-1.188	-1.147
-60.319	35.185	0.554	0.475
-59.305	140.858	-0.578	-0.747
-58.290	324.584	0.852	1.593
-57.276	254.680	0.841	1.409
-56.261	-200.000	111.939	637.363
-55.246	474.183	1499.580	3310.031
-54.232	147.286	2675.782	3524.404
-53.217	97.392	2289.621	2572.547
-52.203	36.587	1902.776	1643.602
-51.188	30.866	1693.944	1419.699
-50.173	28.361	1651.951	1365.806
-49.159	50.217	1706.357	1576.714
-48.144	49.041	1720.870	1581.177
-47.130	30.516	1679.455	1404.692
-46.115	27.824	1665.335	1372.615
-45.100	27.526	1660.978	1366.734
-44.086	27.653	1657.619	1364.863
-43.071	27.591	1655.441	1362.552
-42.057	27.611	1652.641	1360.349
-41.042	27.614	1650.642	1358.672
-40.027	27.655	1648.375	1357.052
-39.013	27.583	1646.758	1355.133
-37.998	27.513	1645.454	1353.483
-36.984	27.699	1643.442	1353.162
-35.969	27.777	1641.946	1352.452
-34.954	27.732	1640.906	1351.210
-33.940	27.612	1639.307	1348.952
-32.925	27.667	1637.562	1347.863
-31.911	27.695	1635.425	1346.262
-30.896	27.695	1634.119	1345.130
-29.881	27.790	1631.591	1343.700
-28.867	27.635	1630.963	1341.987
-27.852	27.750	1629.001	1341.164
-26.838	27.786	1627.259	1339.943
-25.823	27.744	1625.797	1338.376
-24.809	27.775	1624.895	1337.809
-23.794	27.664	1623.546	1335.834
-22.779	27.687	1621.870	1334.565
-21.765	27.776	1620.244	1333.827
-20.750	27.709	1618.825	1332.117
-19.736	27.718	1617.697	1331.202
-18.721	27.823	1615.995	1330.514
-17.706	27.721	1615.094	1328.974
-16.692	27.702	1613.138	1327.177
-15.677	27.776	1611.940	1326.675
-14.663	27.844	1610.472	1325.908
-13.648	27.777	1609.064	1324.212
-12.633	27.797	1607.489	1323.005
-11.619	27.829	1605.950	1321.920
-10.604	27.741	1604.724	1320.221
-9.590	27.837	1603.331	1319.715
-8.575	27.868	1601.560	1318.430
-7.560	27.868	1600.663	1317.636
-6.546	27.879	1599.317	1316.556
-5.531	27.744	1598.913	1315.200
-4.517	27.744	1597.914	1314.326
-3.502	27.804	1596.458	1313.504
-2.487	27.861	1595.039	1312.701
-1.473	27.488	1582.720	1299.845
-0.458	24.753	1563.164	1264.429
0.556	19.398	1564.302	1233.029
1.571	17.174	1587.954	1235.399
2.586	16.700	1600.968	1241.939
3.600	16.137	1550.621	1198.780
4.615	13.598	1453.188	1106.422
5.629	11.110	1397.930	1048.253
6.644	10.575	1390.869	1039.441
7.659	10.575	1389.869	1038.600
8.673	10.544	1388.714	1037.450
9.688	10.317	1387.082	1034.688
10.702	10.358	1383.935	1032.511
11.717	11.541	1385.331	1041.006
12.731	14.489	1390.541	1063.660
13.746	17.104	1393.959	1082.881
14.761	17.412	1393.584	1084.458
15.775	16.613	1391.105	1077.347
16.790	15.427	1388.735	1067.871
17.804	14.647	1385.926	1060.667
18.819	14.083	1384.798	1056.125
19.834	13.918	1383.482	1053.981
20.848	13.754	1381.498	1051.336
21.863	13.405	1380.988	1048.647
22.877	13.277	1379.539	1046.639
23.892	13.250	1378.384	1045.501
24.907	13.256	1377.821	1045.019
25.921	13.278	1377.249	1044.634
26.936	13.294	1376.103	1043.771
27.950	13.298	1375.273	1043.077
28.965	13.384	1373.599	1042.253
29.980	13.512	1372.363	1042.028
30.994	13.535	1371.527	1041.451
32.009	13.527	1370.721	1040.693
33.023	13.599	1368.776	1039.578
34.038	13.436	1368.028	1037.894
35.053	13.401	1366.415	1036.362
36.067	13.486	1365.232	1035.901
37.082	13.450	1363.994	1034.648
38.096	13.444	1363.455	1034.107
39.111	13.429	1362.923	1033.518
40.126	13.418	1361.817	1032.519
41.140	13.269	1360.767	1030.703
42.155	13.208	1360.551	1030.073
43.169	13.106	1360.807	1029.540
44.184	13.198	1360.432	1029.733
45.199	13.214	1359.610	1029.124
46.213	13.223	1359.052	1028.666
47.228	13.404	1358.028	1028.921
48.242	13.403	1356.694	1027.815
49.257	13.441	1354.963	1026.653
50.271	13.407	1353.622	1025.332
51.286	13.356	1352.895	1024.371
52.301	13.455	1350.574	1023.136
53.315	13.356	1349.806	1021.857
54.330	13.267	1349.062	1020.652
55.344	13.210	1347.841	1019.284
56.359	13.361	1346.518	1019.127
57.374	13.142	1346.404	1017.603
58.388	13.240	1345.047	1017.090
59.403	13.172	1344.852	1016.432
60.417	13.096	1343.909	1015.162
61.432	13.180	1343.104	1014.977
62.447	13.028	1342.453	1013.465
63.461	13.083	1340.585	1012.303
64.476	13.099	1339.722	1011.657
65.490	13.077	1339.010	1010.894
66.505	12.998	1337.396	1009.108
67.520	13.158	1335.712	1008.726
68.534	13.112	1334.959	1007.784
69.549	13.251	1333.721	1007.610
70.563	13.194	1332.356	1006.144
71.578	13.144	1331.703	1005.253
72.593	12.941	1330.985	1003.389
73.607	12.975	1329.899	1002.685
74.622	13.032	1329.161	1002.386
75.636	13.051	1328.633	1002.015
76.651	13.000	1327.793	1000.983
77.666	13.089	1327.085	1000.900
78.680	12.996	1326.659	999.931
79.695	13.104	1325.654	999.737
80.709	13.140	1325.258	999.566
81.724	13.187	1324.227	998.989
82.739	13.281	1322.855	998.431
83.753	13.317	1322.360	998.186
84.768	13.346	1321.261	997.440
85.782	13.378	1320.353	996.865
86.797	13.344	1319.108	995.629
87.812	13.311	1317.542	994.160
88.826	13.187	1316.720	992.707
89.841	13.239	1315.865	992.286
90.855	13.357	1314.453	991.841
91.870	13.356	1314.011	991.413
92.884	13.423	1312.662	990.711
93.899	13.401	1312.126	990.084
94.914	13.411	1311.806	989.820
95.928	13.491	1310.254	989.036
96.943	13.432	1309.384	987.938
97.957	13.400	1308.509	987.005
98.972	13.446	1307.206	986.205
99.987	13.359	1306.445	985.028
101.001	13.445	1305.201	984.512
102.016	13.499	1303.727	983.633
103.030	13.499	1303.199	983.147
104.045	13.471	1302.442	982.328
105.060	13.334	1300.982	980.325
106.074	13.230	1299.795	978.727
107.089	13.101	1298.599	976.977
108.103	13.168	1296.834	975.963
109.118	13.187	1295.637	975.085
110.133	13.183	1294.553	974.158
111.147	13.202	1293.168	973.145
112.162	13.179	1292.395	972.341
113.176	13.244	1290.815	971.449
114.191	13.328	1289.681	971.001
115.206	13.244	1288.777	969.743
116.220	13.264	1287.458	968.777
117.235	13.199	1286.662	967.713
118.249	13.212	1285.652	966.948
119.264	13.166	1284.296	965.570
120.279	13.285	1283.097	965.276
121.293	13.145	1282.069	963.602
122.308	13.210	1281.134	963.195
123.322	13.161	1280.523	962.366
124.337	13.101	1279.399	961.086
125.352	13.122	1278.195	960.219
126.366	13.227	1276.876	959.755
127.381	13.150	1276.279	958.774
128.395	13.228	1274.468	957.780
129.410	13.171	1274.022	957.030
130.424	13.207	1273.162	956.509
131.439	13.239	1272.345	955.993
132.454	13.240	1271.015	954.915
133.468	13.205	1270.271	954.068
134.483	13.327	1269.616	954.197
135.497	13.247	1268.616	952.897
136.512	13.307	1267.171	952.073
137.527	13.245	1265.965	950.726
138.541	13.352	1263.997	949.781
139.556	13.296	1263.343	948.884
140.570	13.288	1262.354	948.012
141.585	13.466	1260.839	947.808
142.600	13.537	1259.476	947.106
143.614	13.498	1259.225	946.609
144.629	13.602	1257.857	946.089
145.643	13.538	1256.368	944.524
146.658	13.497	1255.269	943.381
147.673	13.316	1254.359	941.585
148.687	13.370	1252.850	940.674
149.702	13.317	1251.605	939.358
150.716	13.320	1250.484	938.448
151.731	13.438	1248.972	937.900
152.746	13.389	1247.603	936.511
153.760	13.434	1246.451	935.815
154.775	13.487	1245.399	935.246
155.789	13.545	1244.287	934.656
156.804	13.539	1243.226	933.738
157.819	13.533	1242.187	932.843
158.833	13.612	1241.398	932.613
159.848	13.628	1240.483	931.932
160.862	13.603	1239.550	931.009
161.877	13.542	1238.121	929.513
162.892	13.557	1237.257	928.865
163.906	13.475	1236.413	927.690
164.921	13.636	1235.296	927.669
165.935	13.450	1234.381	925.860
166.950	13.584	1233.925	926.186
167.964	13.553	1233.275	925.444
168.979	13.608	1232.386	925.000
169.994	13.546	1231.547	923.945
171.008	13.591	1230.709	923.484
172.023	13.715	1229.938	923.513
173.037	13.686	1229.374	922.846
174.052	13.731	1228.191	922.128
175.067	13.637	1226.708	920.409
176.081	13.607	1226.260	919.829
177.096	13.540	1225.242	918.611
178.110	13.652	1223.935	918.167
179.125	13.563	1222.634	916.619
180.140	13.653	1221.776	916.394
181.154	13.715	1220.703	915.852
182.169	13.774	1219.281	915.027
183.183	13.772	1218.078	914.033
184.198	13.781	1217.021	913.209
185.213	13.776	1215.718	912.121
186.227	13.836	1214.566	911.507
187.242	13.812	1213.703	910.645
188.256	13.961	1212.546	910.516
189.271	13.814	1212.053	909.256
190.286	13.788	1210.551	907.910
191.300	13.576	1210.043	906.289
192.315	13.498	1209.079	905.057
193.329	13.592	1208.254	904.878
194.344	13.662	1208.040	905.017
195.359	13.730	1207.331	904.776
196.373	13.756	1206.964	904.564
197.388	13.877	1206.573	904.852
198.402	14.063	1205.764	905.175
199.417	14.111	1205.041	904.816
200.432	14.069	1204.445	904.057
201.446	14.043	1203.376	903.037
202.461	14.153	1202.220	902.687
203.475	14.176	1201.292	902.033
204.490	14.106	1200.000	900.602
205.504	14.089	1198.810	899.540
206.519	14.018	1197.843	898.348
207.534	13.998	1196.834	897.405
208.548	14.148	1195.426	897.077
209.563	14.033	1194.858	895.953
210.577	14.068	1193.414	894.981
211.592	14.166	1192.825	894.986
212.607	14.240	1192.232	894.858
213.621	14.093	1191.856	893.709
214.636	14.227	1190.246	893.143
215.650	14.262	1189.219	892.481
216.665	14.264	1188.380	891.782
217.680	14.296	1187.944	891.549
218.694	14.353	1186.894	890.983
219.709	14.334	1185.733	889.933
220.723	14.332	1185.184	889.434
221.738	14.283	1184.552	888.615
222.753	14.355	1183.624	888.226
223.767	14.348	1183.445	887.978
224.782	14.470	1182.495	887.833
225.796	14.480	1181.903	887.366
226.811	14.406	1181.327	886.461
227.826	14.398	1180.520	885.734
228.840	14.470	1179.704	885.424
229.855	14.336	1178.998	884.106
230.869	14.369	1178.329	883.699
231.884	14.413	1177.319	883.097
232.899	14.305	1176.976	882.192
233.913	14.332	1176.011	881.534
234.928	14.262	1175.112	880.408
235.942	14.333	1174.401	880.177
236.957	14.357	1173.682	879.684
237.972	14.368	1172.907	879.084
238.986	14.368	1172.391	878.622
240.001	14.373	1171.955	878.243
241.015	14.387	1170.896	877.443
242.030	14.444	1169.954	876.960
243.045	14.391	1169.233	876.063
244.059	14.549	1168.121	875.983
245.074	14.602	1167.156	875.460
246.088	14.526	1166.559	874.536
247.103	14.655	1165.282	874.179
248.117	14.692	1165.142	874.188
249.132	14.755	1164.159	873.702
250.147	14.779	1163.732	873.429
251.161	14.850	1163.243	873.360
252.176	14.881	1162.607	872.963
253.190	14.806	1161.734	871.842
254.205	14.874	1161.357	871.837
255.220	14.986	1160.569	871.750
256.234	14.983	1159.750	871.045
257.249	15.014	1159.193	870.710
258.263	14.993	1158.746	870.187
259.278	15.060	1157.756	869.711
260.293	15.031	1157.536	869.322
261.307	15.000	1157.004	868.684
262.322	15.138	1155.864	868.467
263.336	15.150	1155.631	868.274
264.351	15.078	1155.126	867.447
265.366	15.058	1154.363	866.694
266.380	15.055	1153.912	866.263
267.395	15.072	1152.771	865.418
268.409	15.064	1152.090	864.790
269.424	14.976	1151.391	863.730
270.439	15.149	1150.549	863.916
271.453	15.080	1149.844	862.955
272.468	15.038	1149.130	862.129
273.482	15.151	1147.916	861.720
274.497	15.066	1147.510	860.904
275.512	15.149	1146.952	860.835
276.526	15.006	1146.365	859.585
277.541	15.084	1145.533	859.282
278.555	15.142	1144.987	859.097
279.570	15.255	1144.326	859.102
280.585	15.265	1143.795	858.678
281.599	15.127	1142.797	857.147
282.614	15.317	1141.365	856.967
283.628	15.226	1140.469	855.756
284.643	15.310	1139.450	855.346
285.657	15.252	1138.863	854.534
286.672	15.372	1137.499	854.042
287.687	15.381	1136.521	853.280
288.701	15.343	1135.919	852.561
289.716	15.327	1135.091	851.782
290.730	15.496	1134.353	852.009
291.745	15.396	1134.093	851.232
292.760	15.406	1133.460	850.733
293.774	15.522	1132.242	850.331
294.789	15.571	1131.793	850.165
295.803	15.418	1131.859	849.366
296.818	15.449	1131.051	848.840
297.833	15.400	1129.626	847.449
298.847	15.484	1129.108	847.410
299.862	15.464	1128.360	846.673
300.876	15.367	1128.024	845.856
301.891	15.563	1127.146	846.110
302.906	15.616	1126.497	845.818
303.920	15.590	1125.992	845.228
304.935	15.598	1125.109	844.530
305.949	15.739	1124.136	844.436
306.964	15.741	1123.586	843.956
307.979	15.627	1123.141	842.978
308.993	15.705	1122.194	842.581
310.008	15.822	1121.442	842.529
311.022	15.926	1120.313	842.128
312.037	15.786	1119.776	840.948
313.052	15.761	1118.400	839.714
314.066	15.640	1117.757	838.554
315.081	15.586	1117.234	837.819
316.095	15.678	1116.185	837.416
317.110	15.611	1115.657	836.615
318.125	15.671	1115.113	836.427
319.139	15.700	1114.298	835.890
320.154	15.629	1113.721	835.028
321.168	15.700	1113.097	834.841
322.183	15.643	1112.459	834.006
323.197	15.769	1111.399	833.762
324.212	15.712	1110.944	833.061
325.227	15.858	1110.467	833.356
326.241	15.744	1109.837	832.245
327.256	15.819	1108.921	831.854
328.270	15.688	1108.041	830.472
329.285	15.704	1107.640	830.179
330.300	15.767	1106.184	829.324
331.314	15.787	1105.495	828.833
332.329	15.800	1104.454	828.044
333.343	15.847	1104.017	827.874
334.358	15.877	1102.666	826.936
335.373	15.902	1101.978	826.467
336.387	15.898	1101.426	825.961
337.402	15.940	1100.659	825.521
338.416	15.994	1099.872	825.121
339.431	15.977	1099.477	824.669
340.446	16.053	1098.812	824.467
341.460	16.176	1097.767	824.213
342.475	16.186	1097.052	823.650
343.489	16.262	1095.790	823.000
344.504	16.212	1095.014	822.101
345.519	16.222	1094.487	821.680
346.533	16.202	1094.182	821.284
347.548	16.274	1093.310	820.905
348.562	16.239	1092.256	819.872
349.577	16.182	1091.493	818.952
350.592	16.113	1090.911	818.106
351.606	16.166	1090.076	817.666
352.621	16.085	1089.456	816.736
353.635	16.150	1088.723	816.427
354.650	16.089	1088.129	815.613
355.665	16.285	1087.197	815.791
356.679	16.216	1086.897	815.161
357.694	16.277	1086.088	814.775
358.708	16.184	1085.455	813.779
359.723	16.257	1084.827	813.590
360.738	16.387	1083.867	813.421
361.752	16.361	1083.598	813.026
362.767	16.361	1083.051	812.543
363.781	16.420	1082.232	812.139
364.796	16.385	1081.917	811.662
365.810	16.395	1081.459	811.296
366.825	16.631	1080.557	811.679
367.840	16.632	1080.240	811.373
368.854	16.705	1079.647	811.206
369.869	16.566	1078.959	809.954
370.883	16.549	1077.646	808.814
371.898	16.585	1076.800	808.279
372.913	16.613	1076.457	808.085
373.927	16.612	1075.968	807.642
374.942	16.530	1075.902	807.128
375.956	16.673	1074.788	806.902
376.971	16.744	1074.085	806.642
377.986	16.652	1073.713	805.852
379.000	16.674	1073.410	805.659
380.015	16.783	1072.605	805.500
381.029	16.811	1072.032	805.134
382.044	16.870	1071.311	804.799
383.059	16.847	1070.454	803.975
384.073	16.885	1070.041	803.777
385.088	16.835	1068.910	802.617
386.102	16.763	1068.295	801.746
387.117	16.908	1067.053	801.429
388.132	16.641	1065.959	799.275
389.146	16.817	1065.042	799.344
390.161	16.715	1064.500	798.388
391.175	16.750	1063.852	797.995
392.190	16.827	1063.325	797.892
393.205	16.816	1062.727	797.321
394.219	16.911	1061.446	796.737
395.234	16.919	1061.157	796.484
396.248	16.929	1059.662	795.342
397.263	16.942	1058.888	794.752
398.278	16.862	1058.612	794.096
399.292	16.843	1057.915	793.415
400.307	16.688	1057.086	791.999
401.321	16.933	1056.206	792.415
402.336	16.850	1055.765	791.626
403.350	16.857	1054.805	790.869
404.365	17.030	1053.996	790.999
405.380	16.972	1053.810	790.519
406.394	16.986	1052.759	789.725
407.409	17.197	1051.722	789.859
408.423	17.157	1051.325	789.306
409.438	17.169	1050.768	788.874
410.453	17.251	1049.985	788.596
411.467	17.283	1049.303	788.163
412.482	17.183	1048.959	787.370
413.496	17.194	1048.169	786.760
414.511	17.357	1047.385	786.852
415.526	17.253	1047.337	786.268
416.540	17.375	1046.553	786.172
417.555	17.248	1046.436	785.430
418.569	17.386	1045.279	785.130
419.584	17.476	1044.969	785.241
420.599	17.424	1044.752	784.768
421.613	104.782	1324.773	1476.601
422.628	96.306	1365.515	1476.716
