DTS Sentinel unit serial number:	SN413079Multiplexer serial number:	ORYXHardware model number:	OX4-SRSoftware version number:	ORYX F/W v4.00 Oryx Data Collector v3.7.2.0data status	okinstallation	princeton_trtdifferential loss correction	single-endedforward channel	channel 2reverse channel	N/Adate	2019/09/11time	22:45:11forward acquisition time	60.00reverse acquisition time	0.00gamma	496.2192k internal	0.2325k external	0.2325temperature offset calibration	1.0077default loss term (dB/km)	0.3790temperature slope calibration	1.0000multiplexer offset coefficient	1.0000multiplexer slope coefficient	1.0000fibre end	0.00T internal ref (°C)	34.81T ext. ref 1 (°C)	1.79T ext. ref 2 (°C)	28.97length (m)	temperature (°C)	Stokes	anti-Stokes-747.200	205.237	0.207	0.325
-746.185	-92.909	0.210	-0.059
-745.171	264.032	-0.127	-0.223
-744.156	393.817	-0.097	0.204
-743.142	190.414	0.233	0.353
-742.127	147.384	-0.084	0.114
-741.112	-67.833	0.122	0.048
-740.098	-200.000	-0.002	0.121
-739.083	-200.000	-0.029	0.282
-738.069	395.281	0.232	0.489
-737.054	191.358	0.224	0.341
-736.039	-200.000	-0.049	-0.344
-735.025	74.566	0.072	-0.076
-734.010	66.522	-0.128	-0.131
-732.996	800.000	-0.082	-0.260
-731.981	-27.587	-0.134	0.079
-730.966	-9.388	-0.123	0.083
-729.952	23.134	-0.026	-0.021
-728.937	-34.877	-0.287	-0.158
-727.923	73.042	0.206	0.217
-726.908	-39.479	-0.367	-0.194
-725.894	-200.000	-0.003	0.101
-724.879	241.021	-0.131	0.220
-723.864	-200.000	0.012	0.131
-722.850	131.147	0.131	0.169
-721.835	-27.579	0.239	-0.140
-720.821	168.303	-0.234	-0.336
-719.806	430.035	-0.115	-0.251
-718.791	-110.991	-0.140	-0.029
-717.777	26.283	-0.065	-0.055
-716.762	-200.000	-0.002	-0.048
-715.748	-105.633	-0.206	-0.047
-714.733	-183.551	-0.204	-0.004
-713.718	-200.000	0.020	-0.366
-712.704	800.000	0.028	0.081
-711.689	-200.000	-0.056	-0.342
-710.675	800.000	0.058	0.177
-709.660	495.404	-0.109	-0.252
-708.645	-75.708	0.295	-0.105
-707.631	298.054	0.183	0.340
-706.616	800.000	0.069	0.248
-705.602	-200.000	0.011	-0.237
-704.587	771.627	0.078	-0.215
-703.572	800.000	-0.065	0.194
-702.558	47.214	-0.274	0.257
-701.543	800.000	0.049	-0.137
-700.529	49.894	0.084	0.080
-699.514	105.346	-0.176	0.209
-698.499	80.595	-0.042	-0.046
-697.485	-88.909	0.226	-0.067
-696.470	161.771	0.196	0.276
-695.456	-28.483	-0.179	-0.104
-694.441	436.296	-0.076	-0.166
-693.426	-200.000	0.081	-0.360
-692.412	534.157	0.112	-0.267
-691.397	-200.000	-0.018	-0.098
-690.383	188.568	-0.295	-0.445
-689.368	-172.368	-0.091	-0.003
-688.354	76.173	-0.170	0.181
-687.339	161.570	0.060	0.085
-686.324	513.478	-0.098	-0.230
-685.310	543.595	-0.171	-0.410
-684.295	733.932	-0.130	-0.349
-683.281	508.234	0.075	-0.174
-682.266	16.939	-0.137	0.109
-681.251	59.750	-0.134	-0.133
-680.237	-121.263	0.294	0.049
-679.222	-52.589	0.191	-0.089
-678.208	51.783	-0.375	-0.359
-677.193	95.986	0.040	0.046
-676.178	-60.558	-0.068	-0.029
-675.164	-71.632	-0.425	-0.160
-674.149	-18.850	0.453	0.284
-673.135	-142.018	-0.266	-0.027
-672.120	-70.192	-0.072	0.028
-671.105	-200.000	0.061	0.299
-670.091	518.273	-0.060	0.140
-669.076	-68.251	-0.325	-0.127
-668.062	-13.475	-0.219	0.143
-667.047	112.067	-0.135	0.164
-666.032	713.419	0.065	0.174
-665.018	273.859	-0.068	0.120
-664.003	-200.000	0.033	-0.340
-662.989	-90.318	0.141	0.041
-661.974	363.782	-0.102	-0.207
-660.959	-131.809	-0.159	0.021
-659.945	-61.874	-0.331	-0.139
-658.930	-56.681	0.059	-0.026
-657.916	47.304	-0.140	-0.132
-656.901	216.541	0.025	0.041
-655.886	134.076	0.076	-0.099
-654.872	-200.000	-0.013	0.191
-653.857	800.000	-0.056	0.207
-652.843	-83.140	-0.138	0.045
-651.828	-52.739	-0.095	0.044
-650.814	-143.135	-0.242	0.023
-649.799	-3.198	0.208	-0.145
-648.784	-49.941	0.274	-0.131
-647.770	-16.516	0.129	-0.082
-646.755	117.058	0.173	0.214
-645.741	-117.802	0.264	-0.048
-644.726	-47.258	0.286	0.140
-643.711	93.463	0.090	-0.102
-642.697	226.535	-0.112	-0.183
-641.682	-200.000	-0.011	-0.096
-640.668	193.528	0.036	0.055
-639.653	69.943	0.191	-0.199
-638.638	800.000	-0.073	-0.280
-637.624	531.972	-0.171	-0.406
-636.609	-30.088	-0.199	0.114
-635.595	-70.943	-0.011	0.004
-634.580	-118.408	0.084	0.015
-633.565	669.381	-0.098	-0.255
-632.551	800.000	-0.115	-0.452
-631.536	82.576	0.110	0.120
-630.522	204.082	0.170	0.265
-629.507	-120.587	-0.132	0.022
-628.492	-2.522	-0.107	-0.075
-627.478	131.146	0.254	-0.328
-626.463	69.809	-0.165	0.171
-625.449	800.000	-0.085	-0.259
-624.434	92.122	-0.107	-0.122
-623.419	-44.779	0.276	0.138
-622.405	800.000	0.068	0.291
-621.390	-20.376	0.167	-0.103
-620.376	46.696	0.407	-0.380
-619.361	-69.608	-0.113	0.043
-618.346	218.974	0.035	-0.056
-617.332	37.261	0.179	0.159
-616.317	-200.000	0.006	0.043
-615.303	-200.000	-0.004	-0.185
-614.288	250.403	-0.074	-0.126
-613.273	800.000	-0.067	0.253
-612.259	-200.000	0.065	-0.317
-611.244	-5.867	-0.111	-0.077
-610.230	151.616	-0.237	0.325
-609.215	379.110	-0.055	-0.112
-608.201	800.000	-0.068	0.272
-607.186	-200.000	0.052	-0.326
-606.171	-13.609	0.122	0.079
-605.157	800.000	0.049	-0.159
-604.142	-18.475	-0.309	-0.194
-603.128	320.468	-0.143	0.272
-602.113	-61.193	-0.241	0.102
-601.098	185.011	0.241	0.358
-600.084	-62.760	0.210	0.087
-599.069	163.344	0.084	-0.118
-598.055	-52.933	-0.119	-0.055
-597.040	483.671	-0.074	-0.168
-596.025	117.254	-0.187	0.231
-595.011	298.906	-0.168	-0.310
-593.996	-0.729	0.157	-0.111
-592.982	-200.000	0.001	-0.609
-591.967	249.805	0.047	0.080
-590.952	-200.000	-0.052	0.373
-589.938	278.727	-0.137	0.244
-588.923	-200.000	0.000	-0.053
-587.909	-20.354	-0.331	-0.204
-586.894	-114.431	0.242	0.047
-585.879	-114.727	-0.338	0.065
-584.865	-200.000	0.003	0.267
-583.850	168.550	-0.041	-0.058
-582.836	-200.000	-0.013	0.183
-581.821	148.685	0.102	0.139
-580.806	-2.087	0.172	-0.121
-579.792	-51.536	-0.243	-0.114
-578.777	-130.278	-0.089	0.012
-577.763	800.000	-0.067	0.217
-576.748	800.000	-0.072	0.206
-575.733	800.000	-0.031	0.090
-574.719	56.575	-0.196	0.191
-573.704	-200.000	-0.000	0.073
-572.690	229.234	-0.099	0.163
-571.675	-200.000	-0.308	0.001
-570.661	800.000	0.094	0.373
-569.646	39.317	-0.084	0.075
-568.631	45.660	-0.150	-0.139
-567.617	-79.698	-0.185	0.062
-566.602	199.870	0.156	0.240
-565.588	726.217	-0.067	0.178
-564.573	-6.225	0.355	-0.243
-563.558	91.038	-0.178	0.200
-562.544	800.000	0.070	0.230
-561.529	429.175	-0.100	-0.216
-560.515	-200.000	0.010	0.241
-559.500	800.000	0.028	0.093
-558.485	436.707	-0.040	0.087
-557.471	-125.296	-0.081	0.012
-556.456	-31.893	-0.173	0.097
-555.442	-65.951	-0.034	-0.013
-554.427	352.815	-0.058	0.116
-553.412	-39.333	0.133	-0.070
-552.398	-31.016	-0.258	-0.146
-551.383	-200.000	0.040	0.222
-550.369	18.178	0.144	0.115
-549.354	-139.162	-0.064	-0.007
-548.339	-129.831	-0.136	0.019
-547.325	800.000	0.042	-0.161
-546.310	800.000	0.049	-0.216
-545.296	-200.000	-0.009	-0.111
-544.281	6.918	-0.238	-0.177
-543.266	-1.114	-0.117	0.083
-542.252	-50.539	0.275	0.130
-541.237	99.169	0.266	-0.307
-540.223	800.000	0.065	-0.266
-539.208	-200.000	0.034	0.174
-538.193	-80.486	-0.257	0.086
-537.179	265.757	0.141	-0.247
-536.164	12.339	0.168	-0.130
-535.150	-119.251	0.204	-0.036
-534.135	-84.435	-0.131	0.042
-533.121	-12.224	-0.179	-0.117
-532.106	-25.812	-0.257	0.152
-531.091	-171.492	0.171	0.006
-530.077	300.274	-0.103	-0.191
-529.062	325.920	-0.073	0.140
-528.048	109.984	0.098	-0.118
-527.033	98.594	0.151	0.174
-526.018	284.765	-0.238	-0.429
-525.004	800.000	0.039	-0.134
-523.989	-42.969	0.187	-0.095
-522.975	-103.515	-0.285	-0.067
-521.960	-92.790	0.188	0.053
-520.945	-79.916	0.201	0.068
-519.931	370.060	0.085	-0.173
-518.916	133.952	0.159	-0.206
-517.902	-200.000	-0.009	0.159
-516.887	406.193	-0.097	-0.205
-515.872	800.000	-0.046	0.171
-514.858	93.614	0.208	-0.236
-513.843	-90.830	0.131	0.038
-512.829	-200.000	0.021	-0.122
-511.814	-200.000	0.003	-0.142
-510.799	800.000	-0.111	-0.311
-509.785	4.265	0.200	0.146
-508.770	576.217	0.030	-0.073
-507.756	-200.000	-0.009	0.042
-506.741	79.351	-0.039	0.042
-505.726	312.437	0.115	0.217
-504.712	96.297	0.161	-0.185
-503.697	147.589	0.265	-0.357
-502.683	32.773	-0.369	-0.319
-501.668	38.217	0.200	0.178
-500.653	180.254	-0.087	0.128
-499.639	28.043	-0.230	0.194
-498.624	-200.000	-0.015	0.087
-497.610	250.589	-0.132	0.225
-496.595	32.045	-0.223	0.192
-495.581	-107.295	0.148	-0.033
-494.566	-80.054	0.460	-0.154
-493.551	-200.000	0.066	0.325
-492.537	-191.444	-0.240	0.002
-491.522	241.859	-0.165	-0.276
-490.508	-200.000	-0.004	-0.159
-489.493	-78.643	0.178	-0.061
-488.478	-103.680	-0.275	-0.064
-487.464	141.054	-0.180	-0.237
-486.449	669.401	-0.057	-0.147
-485.435	268.163	0.067	0.117
-484.420	-1.558	0.084	0.059
-483.405	-200.000	-0.016	0.196
-482.391	37.645	0.268	-0.238
-481.376	-200.000	-0.010	0.119
-480.362	13.965	-0.164	-0.127
-479.347	229.315	0.157	0.256
-478.332	32.456	0.278	0.240
-477.318	39.080	0.153	-0.137
-476.303	-200.000	0.002	0.286
-475.289	-159.433	-0.154	-0.009
-474.274	-0.721	-0.069	-0.049
-473.259	-135.233	0.179	-0.021
-472.245	-200.000	-0.035	0.248
-471.230	-200.000	0.017	-0.150
-470.216	99.513	0.115	0.133
-469.201	5.571	-0.096	0.071
-468.186	166.122	0.187	-0.265
-467.172	189.775	-0.101	-0.151
-466.157	800.000	-0.070	0.256
-465.143	170.710	-0.028	0.041
-464.128	-200.000	0.015	-0.182
-463.113	348.067	0.113	-0.222
-462.099	-105.951	0.145	0.033
-461.084	-200.000	-0.056	0.281
-460.070	31.053	0.147	0.126
-459.055	-46.428	-0.223	-0.109
-458.040	-9.730	-0.103	-0.068
-457.026	254.325	0.176	0.301
-456.011	372.268	0.173	0.352
-454.997	-72.836	-0.263	-0.097
-453.982	38.369	0.169	-0.151
-452.968	162.796	0.105	-0.148
-451.953	-126.679	0.149	0.022
-450.938	72.707	-0.109	-0.113
-449.924	-7.572	-0.360	0.243
-448.909	10.653	0.178	0.135
-447.895	-161.104	0.271	0.014
-446.880	14.629	-0.369	-0.287
-445.865	16.320	-0.189	-0.149
-444.851	-50.332	-0.237	0.112
-443.836	-147.340	0.025	0.002
-442.822	79.841	-0.119	0.128
-441.807	-156.852	-0.108	-0.007
-440.792	-134.529	0.208	-0.025
-439.778	350.906	0.062	-0.122
-438.763	-164.283	-0.217	0.010
-437.749	41.802	-0.074	0.067
-436.734	800.000	0.059	0.239
-435.719	-200.000	0.061	0.381
-434.705	172.254	0.112	0.160
-433.690	-77.673	-0.116	0.040
-432.676	341.374	0.090	0.175
-431.661	294.132	-0.126	-0.229
-430.646	-143.562	-0.215	-0.020
-429.632	168.076	0.108	-0.154
-428.617	-53.170	-0.196	-0.090
-427.603	-89.509	-0.131	-0.039
-426.588	275.693	0.126	0.224
-425.573	-200.000	0.001	-0.090
-424.559	-200.000	-0.012	-0.077
-423.544	13.304	-0.330	-0.255
-422.530	487.118	-0.094	0.213
-421.515	18.400	0.183	0.146
-420.500	-15.084	-0.219	-0.140
-419.486	-12.237	0.223	-0.145
-418.471	-28.369	0.206	0.118
-417.457	-57.211	-0.084	0.037
-416.442	10.348	-0.379	-0.287
-415.428	22.180	0.162	-0.132
-414.413	-50.482	-0.576	0.271
-413.398	688.532	-0.100	-0.261
-412.384	11.010	-0.129	0.098
-411.369	-99.386	-0.282	0.071
-410.355	-91.064	-0.379	0.108
-409.340	534.112	-0.080	-0.188
-408.325	-128.614	0.240	-0.034
-407.311	83.545	-0.241	-0.261
-406.296	-159.776	-0.333	0.018
-405.282	180.504	-0.115	0.169
-404.267	-99.198	0.090	0.023
-403.252	800.000	-0.063	-0.267
-402.238	-147.575	-0.089	0.007
-401.223	800.000	-0.029	0.108
-400.209	-200.000	-0.001	0.298
-399.194	324.493	-0.033	0.062
-398.179	-119.507	-0.413	-0.071
-397.165	-125.505	0.244	-0.037
-396.150	-2.775	-0.278	-0.194
-395.136	9.669	-0.064	0.048
-394.121	-200.000	-0.041	-0.321
-393.106	-200.000	0.059	-0.310
-392.092	-22.719	0.338	0.203
-391.077	-121.259	0.148	0.025
-390.063	-200.000	-0.003	0.167
-389.048	33.606	0.176	-0.152
-388.033	-111.870	0.094	0.019
-387.019	68.927	-0.088	-0.090
-386.004	97.448	0.175	0.200
-384.990	-200.000	-0.069	0.489
-383.975	-200.000	-0.026	-0.246
-382.960	230.326	0.151	-0.246
-381.946	-100.203	0.182	-0.045
-380.931	-7.947	0.208	-0.140
-379.917	673.819	0.110	0.284
-378.902	-166.672	0.332	0.014
-377.888	243.464	-0.097	0.161
-376.873	-200.000	0.058	0.299
-375.858	-55.601	0.087	0.039
-374.844	424.671	0.098	0.209
-373.829	452.259	-0.032	0.070
-372.815	-57.067	-0.138	0.061
-371.800	-92.725	-0.278	0.077
-370.785	122.531	-0.242	-0.301
-369.771	-136.138	0.313	-0.036
-368.756	-130.299	-0.117	-0.016
-367.742	800.000	0.036	0.127
-366.727	4.947	0.032	-0.023
-365.712	195.777	0.239	0.362
-364.698	-75.382	-0.072	0.025
-363.683	-200.000	-0.018	0.303
-362.669	443.671	-0.027	0.058
-361.654	-200.000	-0.025	0.599
-360.639	-188.779	0.151	0.002
-359.625	-58.307	0.119	0.051
-358.610	-115.392	0.149	0.028
-357.596	800.000	0.093	0.325
-356.581	-123.046	-0.108	0.017
-355.566	-200.000	0.015	-0.095
-354.552	166.345	-0.134	-0.189
-353.537	367.022	0.179	-0.359
-352.523	-200.000	-0.003	0.084
-351.508	106.036	0.123	-0.145
-350.493	686.388	-0.002	-0.006
-349.479	-200.000	-0.024	-0.113
-348.464	727.433	-0.020	0.052
-347.450	577.396	0.051	-0.124
-346.435	800.000	-0.074	0.277
-345.420	124.811	-0.096	-0.120
-344.406	-180.555	-0.017	0.000
-343.391	-200.000	0.048	-0.256
-342.377	800.000	-0.001	-0.004
-341.362	-62.835	-0.141	0.058
-340.348	21.766	0.142	0.115
-339.333	12.578	-0.107	-0.082
-338.318	212.696	0.035	-0.055
-337.304	-8.904	-0.076	-0.051
-336.289	-200.000	-0.025	-0.139
-335.275	53.399	0.259	-0.246
-334.260	181.060	-0.162	0.237
-333.245	-102.808	0.086	0.020
-332.231	279.032	-0.143	0.254
-331.216	390.155	0.101	-0.208
-330.202	-139.575	-0.126	0.013
-329.187	9.883	0.048	0.036
-328.172	77.443	-0.184	-0.195
-327.158	664.859	-0.035	0.090
-326.143	800.000	-0.067	0.228
-325.129	800.000	0.013	-0.054
-324.114	221.285	-0.095	-0.151
-323.099	-47.358	0.044	0.021
-322.085	242.652	-0.080	-0.133
-321.070	-78.844	0.299	0.101
-320.056	-117.393	-0.300	-0.054
-319.041	-200.000	0.026	-0.121
-318.026	-200.000	0.045	0.245
-317.012	96.565	0.144	-0.164
-315.997	-137.946	0.161	0.018
-314.983	-131.144	-0.296	0.039
-313.968	272.975	0.115	-0.201
-312.953	800.000	-0.011	0.035
-311.939	4.117	-0.258	-0.187
-310.924	-200.000	-0.046	-0.225
-309.910	52.637	0.073	-0.070
-308.895	392.541	-0.220	-0.455
-307.880	-200.000	0.028	-0.286
-306.866	247.038	-0.100	0.167
-305.851	-65.906	-0.372	0.147
-304.837	-85.899	-0.057	0.018
-303.822	800.000	-0.072	0.254
-302.807	800.000	0.116	0.353
-301.793	-16.063	-0.087	-0.055
-300.778	-200.000	0.008	0.105
-299.764	800.000	-0.046	0.174
-298.749	-122.429	-0.187	0.030
-297.735	23.085	0.173	0.141
-296.720	-57.445	-0.332	0.145
-295.705	-200.000	-0.025	-0.133
-294.691	-200.000	-0.025	0.326
-293.676	-61.092	0.231	-0.097
-292.662	-200.000	0.007	0.086
-291.647	-173.855	0.357	-0.010
-290.632	-194.722	-0.155	0.001
-289.618	-109.324	-0.269	-0.057
-288.603	107.516	-0.138	-0.163
-287.589	800.000	-0.018	0.050
-286.574	-7.193	-0.205	-0.138
-285.559	247.679	-0.073	0.123
-284.545	-200.000	0.032	0.219
-283.530	120.453	0.357	-0.440
-282.516	19.322	0.357	-0.284
-281.501	43.957	-0.166	-0.151
-280.486	-200.000	0.033	-0.202
-279.472	-186.786	-0.092	-0.001
-278.457	-40.274	0.186	0.096
-277.443	-200.000	0.008	0.382
-276.428	-200.000	-0.007	0.154
-275.413	-60.446	0.210	0.088
-274.399	509.217	0.204	0.469
-273.384	-58.551	-0.266	0.115
-272.370	-104.499	0.181	-0.042
-271.355	-182.633	0.235	-0.004
-270.340	434.123	0.066	-0.141
-269.326	800.000	0.108	0.420
-268.311	-200.000	-0.003	-0.030
-267.297	-63.079	0.081	-0.033
-266.282	-200.000	-0.143	-0.714
-265.267	-24.847	0.147	-0.086
-264.253	116.836	-0.134	0.163
-263.238	-115.339	-0.111	0.021
-262.224	63.608	-0.373	0.371
-261.209	-118.696	0.098	0.017
-260.195	800.000	0.087	0.308
-259.180	800.000	0.044	0.170
-258.165	26.130	0.457	-0.378
-257.151	282.712	0.085	-0.150
-256.136	34.981	0.077	-0.067
-255.122	-102.391	0.114	0.027
-254.107	-46.001	-0.115	0.056
-253.092	11.326	0.299	-0.227
-252.078	-42.366	0.235	-0.119
-251.063	800.000	-0.034	0.103
-250.049	800.000	0.050	0.144
-249.034	-200.000	-0.012	0.260
-248.019	268.636	0.147	0.254
-247.005	-76.442	-0.136	-0.047
-245.990	105.298	-0.175	-0.205
-244.976	-94.891	-0.168	0.045
-243.961	-27.378	0.145	-0.084
-242.946	70.231	-0.102	-0.104
-241.932	-138.003	-0.254	-0.028
-240.917	-159.807	0.193	-0.010
-239.903	-200.000	-0.000	-0.244
-238.888	619.812	-0.070	-0.174
-237.873	-0.631	-0.277	-0.195
-236.859	-94.496	0.132	0.036
-235.844	79.884	-0.092	-0.098
-234.830	156.496	0.163	0.223
-233.815	162.650	-0.088	0.122
-232.800	-200.000	-0.030	-0.525
-231.786	800.000	0.021	0.065
-230.771	489.347	0.158	0.358
-229.757	36.487	-0.047	0.041
-228.742	-168.670	0.105	-0.004
-227.727	-132.366	-0.224	-0.029
-226.713	-67.505	-0.484	0.188
-225.698	-165.822	0.175	0.007
-224.684	-200.000	0.024	0.231
-223.669	800.000	0.076	0.302
-222.655	233.801	-0.033	0.053
-221.640	-15.801	-0.170	0.107
-220.625	-200.000	-0.001	0.215
-219.611	-1.737	0.129	0.090
-218.596	-200.000	0.083	-0.463
-217.582	148.841	0.050	0.066
-216.567	125.510	0.139	0.174
-215.552	-200.000	0.328	0.001
-214.538	-54.312	-0.228	0.102
-213.523	-41.156	0.099	-0.050
-212.509	207.258	-0.123	0.190
-211.494	-200.000	0.025	-0.269
-210.479	800.000	0.175	-0.482
-209.465	-95.495	-0.012	-0.003
-208.450	142.681	0.082	0.108
-207.436	-50.912	0.187	0.087
-206.421	335.277	-0.085	0.163
-205.406	-170.661	-0.382	0.013
-204.392	-25.682	0.237	0.138
-203.377	120.400	-0.204	0.250
-202.363	238.183	-0.110	0.180
-201.348	-87.108	-0.102	0.031
-200.333	-200.000	-0.018	0.104
-199.319	716.539	-0.051	-0.133
-198.304	-114.305	-0.251	-0.048
-197.290	-200.000	0.061	-0.279
-196.275	-34.669	-0.185	-0.100
-195.260	-38.736	0.260	0.135
-194.246	-200.000	0.002	0.051
-193.231	85.382	0.103	-0.112
-192.217	-200.000	-0.018	0.247
-191.202	157.746	-0.118	-0.162
-190.187	-87.230	0.377	0.113
-189.173	-200.000	0.013	0.095
-188.158	-200.000	-0.013	0.095
-187.144	622.196	0.095	0.235
-186.129	-80.397	0.156	-0.051
-185.114	-81.113	-0.270	0.088
-184.100	-84.012	0.196	-0.062
-183.085	-53.082	-0.117	-0.053
-182.071	800.000	-0.072	0.209
-181.056	-119.535	0.323	0.055
-180.042	-62.202	-0.016	-0.007
-179.027	-200.000	0.094	-0.432
-178.012	-138.504	-0.263	-0.029
-176.998	800.000	0.063	0.250
-175.983	321.571	0.214	0.402
-174.969	-90.961	0.254	-0.072
-173.954	-200.000	-0.018	-0.254
-172.939	24.369	-0.182	0.149
-171.925	25.829	0.290	-0.239
-170.910	18.519	0.063	0.049
-169.896	-39.150	0.138	-0.072
-168.881	103.347	0.116	-0.134
-167.866	-146.808	0.032	0.003
-166.852	79.672	-0.151	-0.160
-165.837	-59.150	0.257	0.109
-164.823	-27.510	-0.045	0.026
-163.808	-111.235	-0.150	-0.030
-162.793	-93.407	-0.215	-0.059
-161.779	-191.807	0.158	0.002
-160.764	215.079	0.056	-0.088
-159.750	-14.324	0.060	-0.038
-158.735	219.982	-0.073	-0.115
-157.720	483.546	0.108	0.241
-156.706	1.624	0.302	-0.214
-155.691	181.896	0.197	-0.286
-154.677	800.000	0.084	-0.301
-153.662	-55.298	0.119	0.053
-152.647	-160.497	-0.141	0.007
-151.633	-200.000	0.005	-0.313
-150.618	-62.165	-0.259	0.107
-149.604	800.000	-0.102	0.385
-148.589	-125.882	0.083	0.012
-147.574	-96.368	0.283	0.074
-146.560	-119.527	-0.307	0.053
-145.545	775.140	0.151	0.405
-144.531	-163.277	-0.405	-0.019
-143.516	-200.000	-0.027	0.251
-142.502	288.607	-0.202	-0.361
-141.487	-19.801	-0.203	-0.124
-140.472	-95.628	-0.098	-0.026
-139.458	497.104	0.106	-0.241
-138.443	124.558	-0.161	-0.199
-137.429	127.700	-0.169	-0.212
-136.414	42.904	-0.225	0.202
-135.399	-70.379	-0.024	0.009
-134.385	117.061	0.144	0.174
-133.370	-47.677	0.061	-0.029
-132.356	39.134	-0.166	0.146
-131.341	482.830	0.011	0.024
-130.326	34.866	-0.068	0.059
-129.312	255.155	-0.070	0.118
-128.297	426.266	0.079	0.167
-127.283	125.760	-0.103	0.128
-126.268	364.824	0.056	0.112
-125.253	-108.145	0.333	-0.071
-124.239	800.000	0.077	0.306
-123.224	53.585	0.022	0.021
-122.210	133.773	-0.037	-0.048
-121.195	8.898	-0.058	0.043
-120.180	43.626	0.262	0.236
-119.166	199.161	-0.096	-0.146
-118.151	-166.086	0.152	-0.006
-117.137	800.000	0.056	-0.187
-116.122	800.000	-0.063	-0.184
-115.107	-55.753	0.181	0.080
-114.093	541.333	0.131	0.307
-113.078	-200.000	-0.012	-0.438
-112.064	-200.000	0.035	0.259
-111.049	800.000	-0.120	0.341
-110.034	-47.572	0.174	-0.083
-109.020	136.958	0.120	-0.154
-108.005	113.159	0.257	-0.307
-106.991	29.512	0.104	0.087
-105.976	124.467	0.153	0.190
-104.962	-76.629	-0.417	0.144
-103.947	-200.000	0.034	-0.229
-102.932	154.504	-0.213	-0.288
-101.918	-169.218	0.241	0.009
-100.903	800.000	0.030	-0.111
-99.889	-9.351	0.095	-0.062
-98.874	-134.231	0.278	0.034
-97.859	800.000	-0.059	0.219
-96.845	-34.184	0.192	-0.104
-95.830	800.000	-0.084	-0.339
-94.816	-100.507	-0.034	0.008
-93.801	55.513	-0.249	-0.237
-92.786	-14.189	0.052	0.033
-91.772	-7.986	-0.061	0.041
-90.757	-88.815	0.297	0.087
-89.743	121.428	0.054	0.067
-88.728	-200.000	-0.273	0.000
-87.713	800.000	0.060	-0.234
-86.699	-9.677	-0.035	0.023
-85.684	142.253	0.154	0.200
-84.670	354.352	-0.096	0.188
-83.655	-171.757	0.114	-0.004
-82.640	40.857	-0.267	-0.237
-81.626	32.985	-0.143	0.122
-80.611	-200.000	-0.037	-0.229
-79.597	-91.720	0.137	0.038
-78.582	-200.000	0.029	-0.130
-77.567	800.000	0.024	0.087
-76.553	-200.000	-0.021	0.165
-75.538	361.426	0.139	0.275
-74.524	-172.408	-0.141	-0.004
-73.509	196.748	0.113	0.169
-72.494	250.484	0.025	0.042
-71.480	365.999	0.164	0.326
-70.465	800.000	0.109	0.303
-69.451	-59.991	-0.168	-0.071
-68.436	-94.139	0.311	0.084
-67.422	47.330	-0.150	0.137
-66.407	38.418	-0.212	0.185
-65.392	-83.017	0.041	0.013
-64.378	64.393	0.189	-0.187
-63.363	-200.000	-0.012	0.293
-62.349	16.558	-0.084	0.065
-61.334	74.762	-1.095	-1.133
-60.319	71.494	0.483	0.493
-59.305	162.086	-0.542	-0.746
-58.290	307.922	0.618	1.133
-57.276	720.395	0.653	1.707
-56.261	-200.000	97.788	594.058
-55.246	574.329	1381.253	3310.425
-54.232	154.478	2590.419	3493.803
-53.217	110.494	2281.023	2693.163
-52.203	44.548	1898.132	1713.331
-51.188	38.253	1686.727	1475.129
-50.173	35.354	1641.780	1414.427
-49.159	53.736	1691.520	1595.165
-48.144	57.197	1709.348	1637.757
-47.130	37.810	1664.979	1452.578
-46.115	34.828	1650.068	1417.435
-45.100	34.703	1644.774	1411.913
-44.086	34.633	1642.341	1409.250
-43.071	34.715	1639.245	1407.140
-42.057	34.638	1637.377	1404.920
-41.042	34.653	1635.493	1403.354
-40.027	34.633	1633.647	1401.569
-39.013	34.687	1631.638	1400.184
-37.998	34.642	1629.702	1398.137
-36.984	34.619	1628.623	1396.987
-35.969	34.753	1626.935	1396.467
-34.954	34.785	1625.116	1395.084
-33.940	34.841	1623.440	1393.993
-32.925	34.880	1620.967	1392.097
-31.911	34.845	1619.918	1390.892
-30.896	34.790	1617.941	1388.737
-29.881	34.779	1616.185	1387.097
-28.867	34.734	1614.438	1385.218
-27.852	34.841	1613.434	1385.072
-26.838	34.760	1611.951	1383.162
-25.823	34.765	1610.733	1382.096
-24.809	34.883	1609.111	1381.503
-23.794	34.867	1607.826	1380.231
-22.779	34.913	1606.184	1379.094
-21.765	34.832	1604.569	1377.074
-20.750	34.789	1603.222	1375.549
-19.736	34.796	1601.812	1374.334
-18.721	34.876	1600.430	1373.671
-17.706	34.822	1598.603	1371.662
-16.692	34.875	1596.930	1370.555
-15.677	34.869	1595.209	1368.977
-14.663	34.894	1593.627	1367.740
-13.648	34.856	1593.031	1366.906
-12.633	34.899	1591.388	1365.748
-11.619	34.885	1589.960	1364.373
-10.604	34.889	1588.232	1362.858
-9.590	34.804	1587.519	1361.588
-8.575	34.860	1585.769	1360.433
-7.560	34.850	1584.683	1359.378
-6.546	34.859	1583.922	1358.732
-5.531	34.829	1582.796	1357.500
-4.517	34.897	1581.229	1356.583
-3.502	34.886	1580.012	1355.407
-2.487	34.916	1578.137	1353.961
-1.473	34.525	1566.956	1341.566
-0.458	31.635	1547.384	1304.653
0.556	28.278	1547.779	1273.607
1.571	25.924	1571.454	1276.330
2.586	25.364	1585.261	1283.427
3.600	22.380	1532.265	1219.770
4.615	12.650	1420.603	1067.953
5.629	3.659	1353.203	961.415
6.644	1.996	1344.636	944.954
7.659	1.802	1343.097	942.588
8.673	1.756	1341.927	941.400
9.688	1.616	1340.351	939.342
10.702	1.458	1337.660	936.400
11.717	5.138	1344.250	963.685
12.731	15.450	1363.566	1041.747
13.746	23.842	1378.339	1105.360
14.761	25.850	1380.355	1119.371
15.775	26.151	1379.834	1120.720
16.790	26.262	1379.861	1121.333
17.804	26.253	1379.317	1120.732
18.819	26.441	1379.085	1121.609
19.834	26.499	1378.814	1121.649
20.848	26.594	1377.475	1121.053
21.863	26.652	1376.800	1120.759
22.877	26.748	1375.309	1120.044
23.892	26.609	1374.476	1118.408
24.907	26.631	1374.534	1118.490
25.921	26.553	1373.431	1117.015
26.936	26.631	1372.362	1116.528
27.950	26.572	1371.319	1115.217
28.965	26.588	1369.797	1113.979
29.980	26.666	1368.107	1112.981
30.994	26.550	1367.374	1111.573
32.009	26.607	1366.255	1110.915
33.023	26.565	1365.174	1109.681
34.038	26.624	1364.051	1109.033
35.053	26.519	1363.231	1107.627
36.067	26.595	1362.333	1107.260
37.082	26.550	1361.629	1106.314
38.096	26.583	1360.408	1105.428
39.111	26.541	1359.964	1104.714
40.126	26.560	1358.509	1103.547
41.140	26.634	1358.112	1103.582
42.155	26.593	1358.022	1103.163
43.169	26.546	1358.194	1102.915
44.184	26.579	1357.626	1102.560
45.199	26.597	1357.491	1102.458
46.213	26.618	1356.465	1101.656
47.228	26.654	1355.752	1101.199
48.242	26.576	1354.678	1099.757
49.257	26.589	1353.224	1098.558
50.271	26.647	1351.460	1097.379
51.286	26.561	1350.562	1096.031
52.301	26.590	1349.533	1095.273
53.315	26.656	1348.044	1094.371
54.330	26.604	1347.722	1093.698
55.344	26.641	1346.484	1092.821
56.359	26.492	1345.787	1091.259
57.374	26.509	1345.069	1090.684
58.388	26.618	1344.233	1090.565
59.403	26.520	1344.054	1089.733
60.417	26.547	1343.100	1089.027
61.432	26.589	1342.694	1088.849
62.447	26.627	1341.335	1087.880
63.461	26.653	1340.587	1087.333
64.476	26.532	1339.469	1085.605
65.490	26.545	1338.533	1084.828
66.505	26.605	1336.580	1083.508
67.520	26.645	1335.490	1082.767
68.534	26.569	1334.631	1081.526
69.549	26.524	1333.800	1080.484
70.563	26.597	1333.167	1080.315
71.578	26.630	1332.065	1079.519
72.593	26.557	1331.093	1078.204
73.607	26.478	1330.358	1077.043
74.622	26.506	1329.883	1076.729
75.636	26.647	1329.058	1076.806
76.651	26.623	1328.084	1075.776
77.666	26.545	1327.580	1074.811
78.680	26.652	1326.972	1074.859
79.695	26.603	1326.467	1074.060
80.709	26.627	1325.463	1073.298
81.724	26.565	1324.737	1072.245
82.739	26.531	1324.394	1071.672
83.753	26.622	1322.740	1070.775
84.768	26.472	1322.193	1069.352
85.782	26.565	1320.441	1068.392
86.797	26.624	1319.145	1067.598
87.812	26.734	1318.360	1067.511
88.826	26.569	1317.650	1065.875
89.841	26.617	1316.279	1064.950
90.855	26.621	1315.566	1064.303
91.870	26.678	1315.149	1064.210
92.884	26.658	1313.948	1063.025
93.899	26.656	1313.005	1062.154
94.914	26.645	1312.277	1061.408
95.928	26.669	1311.115	1060.515
96.943	26.647	1310.867	1060.095
97.957	26.714	1310.334	1059.957
98.972	26.616	1309.560	1058.669
99.987	26.641	1308.378	1057.763
101.001	26.734	1307.509	1057.512
102.016	26.696	1306.517	1056.394
103.030	26.630	1306.372	1055.797
104.045	26.687	1305.110	1055.014
105.060	26.682	1304.008	1054.002
106.074	26.728	1303.293	1053.598
107.089	26.691	1302.035	1052.275
108.103	26.595	1301.428	1051.134
109.118	26.720	1299.899	1050.529
110.133	26.750	1299.000	1049.885
111.147	26.727	1298.075	1048.910
112.162	26.711	1296.703	1047.617
113.176	26.697	1295.901	1046.793
114.191	26.689	1295.094	1046.001
115.206	26.751	1294.004	1045.389
116.220	26.747	1292.968	1044.436
117.235	26.697	1291.862	1043.160
118.249	26.750	1291.154	1042.804
119.264	26.703	1290.727	1042.098
120.279	26.730	1289.790	1041.400
121.293	26.802	1288.921	1041.022
122.308	26.816	1287.964	1040.235
123.322	26.726	1287.306	1039.098
124.337	26.809	1286.527	1038.850
125.352	26.821	1285.680	1038.148
126.366	26.663	1284.632	1036.303
127.381	26.782	1283.811	1036.230
128.395	26.736	1283.312	1035.473
129.410	26.869	1282.077	1035.144
130.424	26.852	1281.450	1034.446
131.439	26.768	1281.036	1033.545
132.454	26.818	1280.189	1033.053
133.468	26.771	1279.538	1032.167
134.483	26.703	1279.352	1031.539
135.497	26.851	1278.143	1031.318
136.512	26.758	1277.268	1029.990
137.527	26.722	1276.092	1028.744
138.541	26.780	1274.761	1027.913
139.556	26.778	1273.794	1027.027
140.570	26.691	1272.768	1025.618
141.585	26.753	1271.768	1025.073
142.600	26.782	1270.494	1024.118
143.614	26.874	1269.411	1023.673
144.629	26.746	1268.709	1022.297
145.643	26.855	1267.347	1021.722
146.658	26.766	1266.344	1020.323
147.673	26.720	1265.559	1019.343
148.687	26.751	1264.753	1018.774
149.702	26.671	1263.508	1017.236
150.716	26.673	1262.746	1016.541
151.731	26.700	1261.361	1015.487
152.746	26.784	1260.673	1015.312
153.760	26.762	1259.677	1014.300
154.775	26.868	1258.417	1013.790
155.789	26.811	1257.656	1012.765
156.804	26.762	1256.911	1011.802
157.819	26.751	1256.131	1011.026
158.833	26.847	1255.205	1010.723
159.848	26.799	1254.510	1009.806
160.862	26.785	1254.051	1009.270
161.877	26.873	1253.170	1008.963
162.892	26.804	1252.606	1008.037
163.906	26.860	1251.786	1007.598
164.921	26.788	1250.993	1006.469
165.935	26.874	1249.810	1005.905
166.950	26.855	1249.416	1005.397
167.964	26.913	1249.101	1005.375
168.979	26.907	1248.505	1004.774
169.994	26.871	1248.264	1004.292
171.008	26.926	1247.124	1003.590
172.023	26.938	1246.214	1002.831
173.037	26.920	1245.572	1002.129
174.052	26.927	1245.004	1001.623
175.067	26.936	1243.798	1000.613
176.081	26.911	1243.382	1000.053
177.096	26.812	1242.858	998.996
178.110	26.855	1241.907	998.380
179.125	26.870	1240.829	997.510
180.140	26.897	1239.514	996.512
181.154	27.006	1238.264	996.014
182.169	26.875	1237.273	994.414
183.183	26.900	1236.351	993.722
184.198	26.869	1235.763	992.989
185.213	26.963	1234.706	992.564
186.227	27.088	1233.411	992.122
187.242	26.988	1232.909	991.082
188.256	27.039	1232.097	990.619
189.271	27.003	1231.297	989.696
190.286	26.987	1230.454	988.843
191.300	26.934	1230.112	988.192
192.315	26.896	1229.541	987.437
193.329	26.867	1229.652	987.283
194.344	26.979	1228.721	987.054
195.359	27.024	1227.946	986.589
196.373	26.892	1227.958	985.798
197.388	26.924	1227.557	985.558
198.402	26.930	1227.095	985.132
199.417	26.924	1226.695	984.691
200.432	26.862	1226.591	984.188
201.446	27.022	1225.172	983.827
202.461	26.936	1224.808	982.983
203.475	27.009	1223.824	982.499
204.490	26.983	1222.919	981.548
205.504	26.995	1221.656	980.509
206.519	27.074	1220.641	980.037
207.534	27.020	1220.154	979.265
208.548	27.003	1219.019	978.181
209.563	27.040	1218.615	977.969
210.577	27.161	1217.401	977.555
211.592	27.064	1216.445	976.179
212.607	27.031	1216.065	975.613
213.621	27.050	1215.722	975.354
214.636	27.077	1214.732	974.615
215.650	27.214	1213.992	974.671
216.665	27.195	1212.226	973.066
217.680	27.213	1211.520	972.510
218.694	27.186	1210.882	971.767
219.709	27.140	1210.365	971.022
220.723	27.097	1209.858	970.299
221.738	27.134	1208.714	969.491
222.753	27.008	1208.480	968.548
223.767	27.168	1207.182	968.274
224.782	27.111	1207.524	968.156
225.796	27.163	1206.609	967.616
226.811	27.277	1205.937	967.599
227.826	27.227	1205.369	966.793
228.840	27.284	1204.615	966.405
229.855	27.278	1204.130	965.897
230.869	27.214	1203.037	964.593
231.884	27.157	1203.172	964.315
232.899	27.211	1202.159	963.706
233.913	27.234	1201.461	963.183
234.928	27.243	1200.863	962.665
235.942	27.315	1200.134	962.376
236.957	27.266	1199.245	961.318
237.972	27.132	1199.357	960.613
238.986	27.252	1198.545	960.512
240.001	27.312	1197.781	960.135
241.015	27.333	1197.361	959.820
242.030	27.316	1196.379	958.862
243.045	27.408	1195.348	958.433
244.059	27.396	1194.838	957.876
245.074	27.381	1194.442	957.397
246.088	27.314	1193.323	956.061
247.103	27.410	1192.544	955.855
248.117	27.496	1191.393	955.303
249.132	27.502	1190.829	954.798
250.147	27.434	1190.013	953.702
251.161	27.405	1189.806	953.301
252.176	27.440	1188.707	952.519
253.190	27.480	1188.368	952.370
254.205	27.436	1187.978	951.743
255.220	27.365	1187.618	951.002
256.234	27.465	1186.927	950.886
257.249	27.528	1186.116	950.478
258.263	27.393	1185.692	949.353
259.278	27.567	1185.051	949.661
260.293	27.482	1184.427	948.632
261.307	27.416	1183.981	947.848
262.322	27.517	1183.193	947.661
263.336	27.489	1182.460	946.844
264.351	27.586	1181.681	946.642
265.366	27.556	1181.147	945.972
266.380	27.476	1180.814	945.209
267.395	27.528	1179.744	944.534
268.409	27.436	1179.418	943.716
269.424	27.477	1178.895	943.425
270.439	27.414	1178.601	942.781
271.453	27.629	1177.574	942.985
272.468	27.461	1177.071	941.634
273.482	27.534	1175.985	941.057
274.497	27.653	1175.610	941.288
275.512	27.628	1175.104	940.671
276.526	27.701	1174.234	940.268
277.541	27.538	1174.230	939.342
278.555	27.637	1173.169	938.920
279.570	27.752	1172.095	938.568
280.585	27.625	1171.409	937.281
281.599	27.597	1171.054	936.771
282.614	27.726	1169.496	936.108
283.628	27.762	1168.852	935.692
284.643	27.678	1168.225	934.675
285.657	27.693	1167.541	934.125
286.672	27.636	1166.951	933.276
287.687	27.701	1165.523	932.386
288.701	27.714	1165.306	932.196
289.716	27.805	1164.600	932.013
290.730	27.826	1164.176	931.696
291.745	27.839	1163.320	930.998
292.760	27.787	1162.975	930.374
293.774	27.835	1162.140	929.864
294.789	27.850	1161.394	929.262
295.803	27.831	1161.187	928.921
296.818	27.733	1160.341	927.663
297.833	27.867	1159.622	927.686
298.847	27.852	1158.848	926.906
299.862	27.862	1158.204	926.363
300.876	27.817	1157.552	925.529
301.891	27.962	1157.043	925.774
302.906	27.944	1156.066	924.820
303.920	27.989	1155.658	924.639
304.935	27.963	1155.055	923.944
305.949	27.946	1154.244	923.127
306.964	27.949	1154.030	922.890
307.979	27.978	1153.318	922.386
308.993	27.884	1152.777	921.396
310.008	27.921	1152.230	921.065
311.022	27.880	1151.532	920.221
312.037	27.931	1150.713	919.738
313.052	28.057	1149.412	919.250
314.066	27.948	1148.485	917.884
315.081	27.943	1147.903	917.313
316.095	28.004	1147.348	917.093
317.110	27.980	1147.225	916.793
318.125	28.106	1146.033	916.392
319.139	27.891	1145.836	915.077
320.154	28.045	1145.103	915.177
321.168	28.093	1144.508	914.863
322.183	28.020	1144.266	914.222
323.197	27.990	1143.571	913.438
324.212	28.016	1143.223	913.210
325.227	28.027	1142.640	912.719
326.241	28.105	1142.066	912.568
327.256	28.222	1140.888	912.129
328.270	28.137	1140.001	910.913
329.285	28.166	1139.448	910.538
330.300	28.173	1138.620	909.829
331.314	28.193	1137.782	909.177
332.329	28.204	1136.823	908.385
333.343	28.277	1136.169	908.144
334.358	28.271	1135.265	907.314
335.373	28.281	1134.921	907.009
336.387	28.273	1134.236	906.338
337.402	28.291	1133.768	905.976
338.416	28.346	1133.029	905.574
339.431	28.271	1132.682	904.850
340.446	28.234	1131.867	903.932
341.460	28.350	1131.416	904.068
342.475	28.343	1130.567	903.274
343.489	28.397	1129.596	902.684
344.504	28.254	1129.137	901.532
345.519	28.425	1127.793	901.222
346.533	28.319	1126.797	899.823
347.548	28.331	1126.536	899.594
348.562	28.455	1125.254	899.099
349.577	28.389	1124.902	898.416
350.592	28.296	1124.483	897.546
351.606	28.252	1123.779	896.687
352.621	28.392	1122.929	896.616
353.635	28.332	1122.760	896.107
354.650	28.328	1122.288	895.635
355.665	28.401	1121.502	895.286
356.679	28.475	1120.735	894.954
357.694	28.407	1120.353	894.235
358.708	28.282	1119.989	893.260
359.723	28.528	1118.829	893.451
360.738	28.498	1118.251	892.767
361.752	28.468	1117.517	891.953
362.767	28.540	1117.210	891.980
363.781	28.506	1116.451	891.131
364.796	28.535	1116.308	891.076
365.810	28.531	1115.442	890.286
366.825	28.562	1115.039	890.041
367.840	28.643	1114.591	889.995
368.854	28.701	1113.843	889.602
369.869	28.616	1113.002	888.439
370.883	28.543	1112.951	887.967
371.898	28.643	1111.978	887.593
372.913	28.732	1110.811	887.013
373.927	28.862	1110.504	887.320
374.942	28.767	1110.282	886.601
375.956	28.620	1109.988	885.583
376.971	28.727	1108.914	885.160
377.986	28.624	1108.738	884.447
379.000	28.780	1107.770	884.345
380.015	28.737	1107.615	883.940
381.029	28.685	1106.662	882.850
382.044	28.855	1105.645	882.776
383.059	28.742	1105.614	882.128
384.073	28.746	1105.162	881.711
385.088	28.763	1104.332	881.051
386.102	28.777	1103.403	880.303
387.117	28.757	1102.372	879.304
388.132	28.741	1101.724	878.634
389.146	28.818	1101.053	878.390
390.161	28.841	1100.615	878.073
391.175	28.769	1100.149	877.278
392.190	28.787	1099.326	876.631
393.205	28.893	1098.169	876.137
394.219	28.800	1097.840	875.353
395.234	28.832	1097.040	874.789
396.248	28.877	1095.976	874.077
397.263	28.920	1095.045	873.461
398.278	28.943	1094.667	873.191
399.292	29.089	1093.857	873.160
400.307	29.005	1093.437	872.352
401.321	28.964	1092.929	871.672
402.336	29.066	1092.154	871.463
403.350	28.926	1092.069	870.656
404.365	29.033	1091.120	870.324
405.380	29.016	1090.177	869.415
406.394	29.054	1089.497	868.978
407.409	29.064	1088.953	868.514
408.423	29.220	1087.774	868.229
409.438	29.193	1087.524	867.829
410.453	29.137	1087.018	867.083
411.467	29.174	1086.179	866.510
412.482	29.148	1085.336	865.638
413.496	29.299	1084.547	865.643
414.511	29.237	1083.981	864.826
415.526	29.166	1083.920	864.367
416.540	29.135	1083.378	863.711
417.555	29.312	1082.769	863.979
418.569	29.141	1082.500	862.887
419.584	29.223	1082.087	862.865
420.599	29.165	1081.636	862.159
421.613	102.561	1316.348	1445.757
422.628	95.452	1350.531	1445.866
