DTS Sentinel unit serial number:	SN413079Multiplexer serial number:	ORYXHardware model number:	OX4-SRSoftware version number:	ORYX F/W v4.00 Oryx Data Collector v3.7.2.0data status	okinstallation	princeton_trtdifferential loss correction	single-endedforward channel	channel 2reverse channel	N/Adate	2019/09/13time	12:23:35forward acquisition time	60.00reverse acquisition time	0.00gamma	496.2192k internal	0.2315k external	0.2315temperature offset calibration	1.0213default loss term (dB/km)	0.3790temperature slope calibration	1.0000multiplexer offset coefficient	1.0000multiplexer slope coefficient	1.0000fibre end	0.00T internal ref (°C)	34.19T ext. ref 1 (°C)	4.63T ext. ref 2 (°C)	31.58length (m)	temperature (°C)	Stokes	anti-Stokes-747.200	56.751	0.138	-0.136
-746.185	114.618	0.091	0.113
-745.171	73.608	0.271	-0.288
-744.156	-94.626	0.402	-0.111
-743.142	-154.826	-0.080	-0.005
-742.127	201.392	-0.138	0.215
-741.112	419.402	0.118	0.256
-740.098	-200.000	0.012	0.304
-739.083	-58.282	0.211	0.093
-738.069	800.000	0.078	0.273
-737.054	-8.540	-0.077	0.053
-736.039	56.977	-0.032	-0.031
-735.025	-71.015	0.213	0.081
-734.010	-105.260	-0.303	0.070
-732.996	-170.180	-0.469	-0.017
-731.981	800.000	-0.024	0.081
-730.966	-116.784	-0.230	0.043
-729.952	184.215	-0.047	0.070
-728.937	34.531	0.144	0.127
-727.923	-200.000	-0.006	0.344
-726.908	-200.000	-0.004	0.192
-725.894	-139.712	-0.050	-0.005
-724.879	268.516	0.038	0.067
-723.864	36.287	-0.081	0.072
-722.850	-200.000	0.071	-0.337
-721.835	-22.383	-0.232	0.142
-720.821	-65.525	-0.164	0.067
-719.806	-73.707	0.340	-0.125
-718.791	46.977	0.096	0.091
-717.777	-81.376	-0.176	-0.059
-716.762	-65.525	-0.256	0.104
-715.748	-1.755	0.162	-0.116
-714.733	77.017	0.011	-0.012
-713.718	220.314	0.096	-0.156
-712.704	-86.729	0.355	0.110
-711.689	40.176	-0.153	-0.139
-710.675	-47.405	0.163	-0.080
-709.660	68.869	-0.088	-0.091
-708.645	800.000	0.031	-0.109
-707.631	31.940	-0.091	0.079
-706.616	-200.000	-0.004	-0.198
-705.602	-125.264	-0.296	-0.046
-704.587	349.214	0.179	-0.357
-703.572	-65.300	0.110	-0.045
-702.558	-200.000	-0.010	0.096
-701.543	22.554	0.264	0.219
-700.529	-87.668	-0.102	-0.031
-699.514	-145.658	-0.249	0.022
-698.499	-29.708	0.172	0.099
-697.485	800.000	-0.094	0.284
-696.470	139.152	-0.068	0.091
-695.456	-52.463	0.166	0.078
-694.441	-85.816	-0.281	0.088
-693.426	-82.349	0.217	0.071
-692.412	-19.902	0.350	0.218
-691.397	-21.392	-0.261	0.161
-690.383	-21.710	0.410	-0.252
-689.368	-200.000	-0.070	-0.323
-688.354	-113.764	0.283	-0.056
-687.339	-200.000	-0.016	0.337
-686.324	-200.000	0.049	-0.350
-685.310	-200.000	0.036	-0.204
-684.295	800.000	0.052	0.182
-683.281	-200.000	0.003	-0.290
-682.266	-200.000	-0.044	-0.295
-681.251	-200.000	0.023	-0.417
-680.237	440.121	-0.112	-0.248
-679.222	-23.535	0.137	-0.083
-678.208	36.649	0.115	-0.103
-677.193	-63.661	-0.195	-0.081
-676.178	45.140	0.104	0.097
-675.164	-65.823	0.320	0.130
-674.149	-200.000	0.000	-0.032
-673.135	215.663	-0.158	0.253
-672.120	800.000	0.019	-0.082
-671.105	800.000	0.008	-0.030
-670.091	-200.000	0.018	-0.104
-669.076	-200.000	0.013	-0.441
-668.062	330.989	0.092	-0.180
-667.047	-138.984	-0.205	-0.022
-666.032	112.963	-0.104	0.127
-665.018	-22.178	0.099	0.060
-664.003	-178.337	0.349	0.008
-662.989	800.000	-0.146	0.478
-661.974	-104.055	-0.046	-0.011
-660.959	166.887	0.111	-0.159
-659.945	-59.758	0.015	-0.007
-658.930	-200.000	0.001	0.112
-657.916	-87.738	0.252	-0.077
-656.901	-133.970	-0.152	0.019
-655.886	92.754	-0.178	0.203
-654.872	654.604	0.150	-0.388
-653.857	96.310	-0.087	-0.100
-652.843	-84.001	0.071	-0.023
-651.828	-13.053	0.183	-0.120
-650.814	-200.000	-0.011	0.199
-649.799	170.421	0.089	0.129
-648.784	-81.606	0.280	0.093
-647.770	-14.517	-0.055	0.036
-646.755	-173.353	-0.332	0.010
-645.741	590.717	0.048	-0.118
-644.726	-114.230	-0.243	-0.047
-643.711	-200.000	-0.107	-0.569
-642.697	265.403	0.211	-0.372
-641.682	460.943	0.114	0.256
-640.668	-104.606	0.207	0.048
-639.653	201.884	-0.205	-0.319
-638.638	-113.958	0.430	0.084
-637.624	-200.000	-0.014	-0.120
-636.609	-61.850	-0.198	-0.084
-635.595	162.048	0.130	0.184
-634.580	19.538	0.306	0.248
-633.565	187.927	-0.059	0.089
-632.551	-200.000	0.025	-0.364
-631.536	-113.807	0.273	0.054
-630.522	-200.000	0.000	-0.190
-629.507	531.674	-0.055	-0.132
-628.492	-80.062	-0.114	0.039
-627.478	111.914	0.031	0.037
-626.463	-0.943	-0.259	-0.185
-625.449	-92.136	0.177	0.050
-624.434	703.763	0.044	-0.118
-623.419	355.141	0.129	0.258
-622.405	-139.459	0.261	-0.028
-621.390	11.097	0.306	0.236
-620.376	-85.975	0.159	-0.049
-619.361	-131.542	-0.281	0.037
-618.346	13.248	-0.189	0.148
-617.332	159.600	-0.139	-0.195
-616.317	800.000	0.083	-0.262
-615.303	276.347	-0.067	0.120
-614.288	342.580	-0.190	-0.376
-613.273	-25.386	-0.146	0.087
-612.259	525.343	0.090	-0.214
-611.244	-200.000	-0.019	-0.328
-610.230	187.250	0.167	-0.250
-609.215	-153.877	-0.091	-0.006
-608.201	-60.381	0.153	-0.066
-607.186	800.000	0.124	0.399
-606.171	121.415	-0.345	0.433
-605.157	800.000	0.032	-0.129
-604.142	-25.329	-0.254	-0.152
-603.128	13.610	0.075	0.059
-602.113	-10.505	-0.102	-0.068
-601.098	-200.000	-0.011	0.131
-600.084	64.961	-0.288	0.293
-599.069	120.250	-0.047	0.059
-598.055	45.415	0.045	0.042
-597.040	74.699	0.118	0.125
-596.025	-200.000	0.001	0.043
-595.011	242.566	0.190	-0.320
-593.996	23.065	0.216	0.179
-592.982	800.000	-0.045	0.157
-591.967	-55.540	-0.327	-0.148
-590.952	266.222	-0.072	-0.126
-589.938	-79.061	0.157	0.054
-588.923	800.000	-0.032	-0.096
-587.909	79.827	0.299	-0.323
-586.894	800.000	0.080	0.245
-585.879	-137.812	-0.196	-0.022
-584.865	-200.000	0.017	-0.300
-583.850	173.513	0.166	-0.241
-582.836	-43.993	0.105	0.053
-581.821	68.449	0.039	-0.040
-580.806	-200.000	0.050	-0.335
-579.792	800.000	-0.012	-0.039
-578.777	420.774	0.059	0.127
-577.763	795.346	-0.062	-0.172
-576.748	-51.798	-0.351	0.164
-575.733	72.995	-0.101	0.106
-574.719	-180.752	-0.214	0.004
-573.704	-9.334	0.231	-0.155
-572.690	-200.000	-0.003	0.158
-571.675	28.675	0.225	0.192
-570.661	216.902	-0.035	-0.056
-569.646	32.961	-0.267	-0.233
-568.631	-13.290	-0.149	-0.097
-567.617	55.053	0.083	-0.081
-566.602	-200.000	0.004	-0.064
-565.588	800.000	0.073	0.315
-564.573	388.739	0.058	0.120
-563.558	1.052	0.216	0.156
-562.544	-200.000	0.048	0.429
-561.529	-200.000	0.047	-0.351
-560.515	-80.191	-0.298	-0.100
-559.500	164.964	0.100	0.143
-558.485	-57.127	-0.278	-0.123
-557.471	208.285	-0.123	0.194
-556.456	-200.000	-0.017	0.101
-555.442	510.910	0.047	0.110
-554.427	-123.085	0.189	-0.030
-553.412	272.190	-0.148	-0.263
-552.398	-180.272	-0.180	0.004
-551.383	81.591	-0.157	0.171
-550.369	-3.176	0.128	0.090
-549.354	35.756	-0.161	-0.142
-548.339	-62.290	0.228	-0.096
-547.325	194.594	-0.121	-0.184
-546.310	-200.000	0.048	0.395
-545.296	800.000	0.142	-0.411
-544.281	-101.857	0.081	0.020
-543.266	7.655	-0.184	-0.138
-542.252	800.000	-0.106	-0.303
-541.237	-21.065	-0.080	0.049
-540.223	800.000	0.023	-0.071
-539.208	274.464	0.156	-0.278
-538.193	-119.148	0.026	-0.005
-537.179	222.588	-0.178	0.288
-536.164	-82.240	-0.062	-0.020
-535.150	800.000	0.112	0.345
-534.135	-200.000	0.017	-0.297
-533.121	5.591	0.313	0.232
-532.106	-11.961	0.108	0.071
-531.091	-117.939	0.186	0.033
-530.077	179.735	0.203	-0.299
-529.062	-86.490	-0.135	-0.042
-528.048	23.230	-0.146	0.121
-527.033	41.480	0.037	0.033
-526.018	-114.161	-0.191	0.037
-525.004	113.858	0.258	-0.315
-523.989	-200.000	-0.038	0.364
-522.975	249.531	0.095	-0.162
-521.960	-144.026	-0.281	0.026
-520.945	-10.018	0.057	-0.038
-519.931	-9.313	-0.119	0.080
-518.916	-76.057	-0.095	0.034
-517.902	139.948	0.125	-0.165
-516.887	-55.910	0.292	-0.131
-515.872	435.349	-0.071	0.155
-514.858	765.839	0.102	0.278
-513.843	-77.453	0.030	0.011
-512.829	-200.000	-0.024	0.273
-511.814	800.000	-0.071	-0.264
-510.799	396.463	-0.154	-0.323
-509.785	-77.330	0.217	0.076
-508.770	136.647	0.085	-0.112
-507.756	-76.800	-0.108	-0.038
-506.741	-200.000	-0.020	0.154
-505.726	-5.262	0.061	0.042
-504.712	-200.000	-0.018	0.092
-503.697	123.148	-0.171	-0.216
-502.683	-74.603	-0.484	0.175
-501.668	-88.295	0.191	0.057
-500.653	800.000	0.054	0.199
-499.639	-104.972	0.225	0.052
-498.624	-200.000	0.041	-0.305
-497.610	224.624	0.069	-0.112
-496.595	-80.402	0.272	0.091
-495.581	-165.936	0.094	-0.004
-494.566	28.769	0.028	0.024
-493.551	-22.851	0.208	0.126
-492.537	800.000	-0.071	-0.301
-491.522	98.161	0.026	-0.030
-490.508	541.600	-0.091	0.218
-489.493	-98.144	-0.069	0.018
-488.478	-180.714	-0.292	-0.006
-487.464	-200.000	-0.021	-0.201
-486.449	-164.131	-0.043	0.002
-485.435	-104.408	0.123	-0.029
-484.420	800.000	0.025	-0.090
-483.405	-90.419	-0.286	-0.083
-482.391	26.199	0.149	-0.125
-481.376	-17.188	0.136	-0.086
-480.362	118.768	-0.106	0.132
-479.347	800.000	-0.029	-0.121
-478.332	-94.921	0.183	0.050
-477.318	-86.634	0.236	0.073
-476.303	-200.000	-0.012	-0.060
-475.289	69.992	-0.195	-0.202
-474.274	800.000	0.024	0.073
-473.259	-68.546	0.050	-0.020
-472.245	-74.825	-0.226	0.081
-471.230	-200.000	0.034	0.241
-470.216	-116.023	0.155	0.029
-469.201	127.351	0.148	-0.189
-468.186	800.000	-0.070	-0.236
-467.172	353.121	0.224	0.446
-466.157	800.000	0.100	0.308
-465.143	45.031	-0.093	0.086
-464.128	-89.164	0.295	0.087
-463.113	497.105	-0.103	-0.238
-462.099	-63.366	-0.265	-0.110
-461.084	126.418	0.076	0.096
-460.070	229.471	0.214	0.350
-459.055	-177.867	0.082	-0.002
-458.040	-200.000	-0.027	-0.473
-457.026	-105.480	-0.106	-0.024
-456.011	-200.000	0.035	-0.180
-454.997	-55.672	0.130	-0.058
-453.982	-24.402	0.273	0.163
-452.968	-200.000	0.005	-0.182
-451.953	-72.053	-0.236	0.088
-450.938	-8.003	-0.082	0.056
-449.924	233.118	0.204	-0.336
-448.909	129.103	0.110	-0.141
-447.895	3.557	0.022	0.016
-446.880	736.132	0.073	-0.197
-445.865	101.700	-0.357	-0.418
-444.851	-81.734	0.170	0.056
-443.836	244.665	0.120	-0.201
-442.822	-24.768	-0.244	-0.145
-441.807	652.884	-0.049	0.125
-440.792	-200.000	-0.023	0.139
-439.778	28.801	0.198	-0.168
-438.763	181.472	-0.066	-0.097
-437.749	-200.000	-0.001	-0.181
-436.734	-38.361	0.076	0.040
-435.719	-0.807	0.039	-0.027
-434.705	-200.000	-0.341	-0.002
-433.690	62.849	-0.103	-0.103
-432.676	-50.209	0.251	-0.119
-431.661	651.097	-0.146	0.374
-430.646	-168.469	-0.137	-0.005
-429.632	800.000	0.106	-0.321
-428.617	750.973	-0.031	0.083
-427.603	800.000	-0.032	0.102
-426.588	-200.000	-0.011	0.093
-425.573	-200.000	0.015	0.141
-424.559	800.000	0.034	-0.107
-423.544	72.869	0.074	-0.077
-422.530	631.610	0.052	0.131
-421.515	8.009	-0.241	0.181
-420.500	-200.000	0.026	0.259
-419.486	-200.000	0.002	-0.023
-418.471	-6.831	-0.137	0.093
-417.457	-200.000	-0.036	0.267
-416.442	-108.867	-0.161	-0.034
-415.428	800.000	-0.062	-0.206
-414.413	-106.642	-0.340	0.076
-413.398	218.890	0.114	0.182
-412.384	277.837	-0.162	0.288
-411.369	28.949	0.070	-0.059
-410.355	47.744	0.219	0.205
-409.340	-92.980	0.219	-0.061
-408.325	129.485	-0.229	-0.292
-407.311	-200.000	-0.047	0.226
-406.296	-5.670	-0.139	-0.095
-405.282	-55.783	-0.019	0.009
-404.267	-81.840	-0.277	0.091
-403.252	58.668	-0.012	0.012
-402.238	-200.000	0.052	0.261
-401.223	127.491	0.110	0.139
-400.209	800.000	-0.056	-0.207
-399.194	-63.559	0.143	0.059
-398.179	-82.829	-0.181	0.058
-397.165	123.157	0.173	-0.217
-396.150	-196.910	0.264	0.002
-395.136	800.000	0.051	-0.209
-394.121	-111.895	0.208	-0.042
-393.106	-200.000	-0.000	-0.167
-392.092	9.548	-0.182	0.138
-391.077	172.048	-0.187	0.269
-390.063	-40.071	-0.329	-0.171
-389.048	-32.460	0.215	0.120
-388.033	438.960	0.041	0.090
-387.019	800.000	-0.062	0.217
-386.004	-200.000	-0.028	-0.285
-384.990	1.839	-0.203	-0.146
-383.975	23.079	-0.073	-0.060
-382.960	-94.097	-0.034	0.009
-381.946	120.459	-0.071	-0.088
-380.931	-53.630	0.260	0.119
-379.917	-87.559	-0.043	-0.013
-378.902	-37.438	-0.258	0.138
-377.888	-48.700	0.041	0.020
-376.873	491.180	0.107	-0.245
-375.858	-8.142	-0.273	-0.184
-374.844	-36.726	0.175	0.094
-373.829	800.000	-0.063	-0.227
-372.815	106.063	-0.186	0.220
-371.800	-200.000	0.441	0.002
-370.785	72.128	0.221	-0.230
-369.771	-72.396	0.252	0.093
-368.756	8.718	0.312	0.235
-367.742	-200.000	0.013	0.305
-366.727	-104.061	0.250	-0.058
-365.712	-200.000	-0.013	-0.064
-364.698	124.292	-0.184	-0.231
-363.683	-118.791	0.176	-0.031
-362.669	103.474	0.060	0.071
-361.654	-118.015	0.151	-0.027
-360.639	-29.095	-0.388	0.222
-359.625	162.227	0.104	-0.145
-358.610	-0.900	0.220	-0.156
-357.596	84.277	0.131	-0.143
-356.581	-200.000	-0.005	-0.102
-355.566	55.891	0.229	-0.221
-354.552	-56.668	-0.104	-0.046
-353.537	82.130	0.130	0.141
-352.523	800.000	0.081	0.271
-351.508	-169.960	-0.194	0.007
-350.493	800.000	-0.105	0.442
-349.479	526.573	0.040	0.093
-348.464	168.872	0.047	-0.067
-347.450	11.956	0.199	0.153
-346.435	-115.729	-0.168	-0.031
-345.420	-200.000	0.034	-0.236
-344.406	-140.511	-0.309	-0.032
-343.391	-200.000	-0.008	-0.094
-342.377	-200.000	0.092	0.405
-341.362	800.000	-0.072	-0.234
-340.348	-100.314	0.082	-0.020
-339.333	-82.844	0.074	0.024
-338.318	-76.216	0.255	-0.090
-337.304	64.439	0.033	0.033
-336.289	51.408	-0.154	0.146
-335.275	-78.766	-0.265	0.090
-334.260	-29.756	0.242	-0.138
-333.245	-79.579	-0.378	0.127
-332.231	-200.000	-0.021	0.114
-331.216	68.615	0.224	-0.229
-330.202	-200.000	-0.032	-0.145
-329.187	800.000	0.104	0.301
-328.172	500.552	-0.039	-0.089
-327.158	800.000	-0.056	0.189
-326.143	198.809	-0.060	-0.091
-325.129	-44.794	-0.255	0.127
-324.114	800.000	-0.034	0.135
-323.099	-129.616	-0.144	-0.020
-322.085	-200.000	-0.020	0.185
-321.070	-62.434	-0.071	-0.029
-320.056	187.523	0.170	0.253
-319.041	-87.742	0.079	-0.024
-318.026	800.000	0.097	-0.318
-317.012	-194.582	0.082	-0.001
-315.997	-3.879	-0.328	0.227
-314.983	-97.973	-0.147	-0.038
-313.968	-91.974	-0.130	0.037
-312.953	7.032	0.192	-0.142
-311.939	223.707	-0.215	0.346
-310.924	62.963	-0.114	0.113
-309.910	-51.415	-0.271	0.126
-308.895	800.000	-0.092	0.279
-307.880	571.591	0.055	-0.134
-306.866	167.383	-0.118	0.166
-305.851	-151.006	-0.222	0.017
-304.837	-107.638	0.502	0.109
-303.822	-78.552	-0.182	0.062
-302.807	468.353	-0.040	0.090
-301.793	-74.168	-0.138	0.050
-300.778	800.000	-0.105	0.362
-299.764	-137.338	-0.089	0.010
-298.749	-34.519	-0.297	-0.162
-297.735	-200.000	-0.001	-0.279
-296.720	-89.258	-0.291	-0.086
-295.705	-91.105	-0.403	-0.115
-294.691	-200.000	-0.013	0.076
-293.676	269.584	-0.163	-0.286
-292.662	221.763	-0.137	0.220
-291.647	-200.000	-0.003	-0.239
-290.632	573.104	-0.047	-0.113
-289.618	-52.113	0.126	-0.058
-288.603	138.447	0.167	-0.218
-287.589	-12.799	-0.186	-0.121
-286.574	130.182	0.207	0.264
-285.559	256.739	0.014	0.024
-284.545	-200.000	0.046	-0.343
-283.530	57.294	-0.164	0.160
-282.516	88.948	0.194	0.215
-281.501	17.419	0.094	0.074
-280.486	43.974	0.103	0.094
-279.472	477.930	-0.098	0.221
-278.457	131.789	-0.297	-0.380
-277.443	-33.487	0.122	0.067
-276.428	-200.000	-0.013	-0.226
-275.413	-200.000	-0.000	0.319
-274.399	-73.787	0.219	0.079
-273.384	-30.248	-0.294	0.166
-272.370	-52.789	0.070	-0.032
-271.355	-104.101	0.228	-0.053
-270.340	62.683	-0.061	-0.060
-269.326	-200.000	-0.010	0.053
-268.311	800.000	-0.084	-0.269
-267.297	-175.777	-0.048	0.001
-266.282	223.277	0.136	0.218
-265.267	-200.000	0.009	0.119
-264.253	296.475	0.141	0.257
-263.238	3.163	0.024	-0.017
-262.224	-200.000	-0.001	0.292
-261.209	800.000	0.050	0.183
-260.195	-137.740	-0.343	-0.038
-259.180	800.000	0.016	-0.061
-258.165	-80.072	-0.191	-0.064
-257.151	789.615	-0.088	0.241
-256.136	-190.424	0.064	0.001
-255.122	79.631	0.199	-0.213
-254.107	349.192	-0.046	-0.091
-253.092	-70.301	-0.102	-0.039
-252.078	-76.367	-0.350	-0.123
-251.063	-57.809	-0.162	0.070
-250.049	-12.147	-0.257	-0.167
-249.034	-200.000	0.027	0.235
-248.019	-6.307	0.131	-0.089
-247.005	-200.000	-0.036	-0.266
-245.990	-6.982	0.053	-0.036
-244.976	441.262	0.107	0.232
-243.961	-107.867	-0.236	0.051
-242.946	100.498	0.209	0.241
-241.932	-200.000	-0.015	-0.096
-240.917	53.139	-0.149	-0.142
-239.903	-122.447	0.240	-0.039
-238.888	-200.000	-0.005	-0.264
-237.873	-143.154	0.230	-0.022
-236.859	-110.320	-0.008	0.002
-235.844	-200.000	0.014	-0.124
-234.830	-200.000	-0.048	0.211
-233.815	99.804	0.122	-0.140
-232.800	-114.759	-0.325	0.062
-231.786	-144.071	0.171	0.016
-230.771	78.521	0.093	-0.098
-229.757	-200.000	0.015	0.264
-228.742	31.959	0.171	0.146
-227.727	800.000	-0.135	0.379
-226.713	-116.254	0.301	0.055
-225.698	-150.517	-0.205	-0.016
-224.684	-200.000	0.015	-0.314
-223.669	-10.359	0.352	-0.232
-222.655	462.285	-0.081	-0.180
-221.640	-200.000	0.026	-0.142
-220.625	383.156	-0.033	0.067
-219.611	705.827	-0.077	-0.203
-218.596	-200.000	0.047	0.343
-217.582	-148.501	-0.048	-0.004
-216.567	-177.494	0.144	0.003
-215.552	-40.418	-0.099	-0.051
-214.538	800.000	0.054	0.220
-213.523	245.862	0.049	0.083
-212.509	-11.824	-0.322	-0.210
-211.494	125.952	0.065	-0.082
-210.479	98.998	-0.177	0.203
-209.465	-32.948	0.311	-0.171
-208.450	-11.719	0.405	-0.264
-207.436	223.923	0.169	-0.271
-206.421	800.000	-0.033	0.101
-205.406	-143.926	-0.483	0.045
-204.392	628.009	-0.025	-0.062
-203.377	-200.000	0.397	-0.001
-202.363	-133.161	-0.122	0.015
-201.348	38.872	-0.481	0.426
-200.333	800.000	-0.147	0.412
-199.319	-8.395	0.099	-0.066
-198.304	800.000	-0.031	0.126
-197.290	186.131	-0.007	0.010
-196.275	-76.247	0.182	-0.064
-195.260	800.000	-0.073	-0.281
-194.246	158.523	0.200	0.275
-193.231	-134.817	-0.349	-0.042
-192.217	-38.484	-0.126	-0.066
-191.202	44.150	-0.217	-0.197
-190.187	-36.809	0.464	-0.247
-189.173	-130.051	-0.133	0.018
-188.158	-15.084	0.443	0.281
-187.144	-131.792	0.086	0.011
-186.129	-107.698	-0.248	0.054
-185.114	-35.060	0.180	-0.097
-184.100	1.372	-0.246	-0.175
-183.085	339.432	0.060	0.117
-182.071	-42.357	0.385	0.195
-181.056	-108.419	-0.190	-0.041
-180.042	800.000	-0.073	-0.200
-179.027	800.000	0.038	0.117
-178.012	-66.231	-0.081	-0.032
-176.998	-111.064	0.126	-0.026
-175.983	-148.225	0.425	0.035
-174.969	8.233	0.241	0.179
-173.954	-95.112	-0.137	-0.037
-172.939	-29.583	0.214	-0.121
-171.925	-200.000	0.001	0.337
-170.910	800.000	0.070	0.206
-169.896	162.925	-0.155	-0.216
-168.881	-88.748	-0.163	0.048
-167.866	-33.646	-0.283	-0.155
-166.852	286.907	0.058	0.104
-165.837	78.452	0.136	0.144
-164.823	-200.000	0.042	0.207
-163.808	107.529	0.112	-0.132
-162.793	-200.000	-0.044	0.246
-161.779	115.320	0.168	-0.204
-160.764	-132.514	0.405	0.052
-159.750	-116.052	-0.367	0.068
-158.735	332.633	0.035	-0.068
-157.720	-200.000	-0.011	-0.139
-156.706	34.496	0.158	0.137
-155.691	-200.000	-0.002	0.069
-154.677	-176.200	0.301	0.008
-153.662	-106.534	-0.322	-0.071
-152.647	800.000	-0.040	0.123
-151.633	-31.010	-0.062	0.034
-150.618	-164.751	-0.388	0.017
-149.604	-200.000	0.074	-0.417
-148.589	270.813	-0.150	-0.261
-147.574	42.770	0.185	0.167
-146.560	800.000	-0.047	-0.145
-145.545	420.089	-0.103	0.218
-144.531	-200.000	-0.050	0.277
-143.516	127.510	0.078	-0.097
-142.502	-95.696	0.246	-0.065
-141.487	277.375	-0.043	0.075
-140.472	167.316	0.136	-0.192
-139.458	127.600	0.221	0.278
-138.443	423.937	-0.092	-0.195
-137.429	-162.575	0.393	-0.019
-136.414	73.019	0.092	0.095
-135.399	-124.635	-0.205	0.032
-134.385	-200.000	0.011	0.282
-133.370	-200.000	0.056	0.243
-132.356	800.000	0.035	0.112
-131.341	-53.785	-0.266	0.120
-130.326	800.000	-0.114	0.365
-129.312	-96.071	0.280	-0.074
-128.297	16.718	-0.077	-0.060
-127.283	-200.000	-0.024	-0.169
-126.268	-200.000	0.040	-0.198
-125.253	-20.779	0.049	-0.030
-124.239	41.630	-0.247	-0.221
-123.224	-200.000	0.028	-0.170
-122.210	81.874	0.254	-0.272
-121.195	-172.340	-0.252	0.008
-120.180	-56.209	0.421	0.185
-119.166	350.649	-0.097	0.189
-118.151	-200.000	0.025	-0.126
-117.137	-134.865	0.241	-0.029
-116.122	-42.669	0.096	-0.048
-115.107	-79.886	-0.380	-0.126
-114.093	-111.515	-0.176	0.035
-113.078	-138.152	0.152	0.017
-112.064	174.734	-0.224	0.321
-111.049	378.352	0.070	0.142
-110.034	562.894	0.061	-0.146
-109.020	-200.000	-0.008	0.088
-108.005	694.558	0.089	-0.231
-106.991	-77.600	0.216	0.074
-105.976	-124.717	0.229	-0.035
-104.962	-200.000	-0.011	-0.168
-103.947	800.000	0.017	-0.064
-102.932	-200.000	0.010	-0.088
-101.918	-198.511	0.096	0.001
-100.903	800.000	-0.077	0.244
-99.889	800.000	-0.071	-0.291
-98.874	380.876	0.058	0.117
-97.859	71.191	0.154	-0.158
-96.845	-144.520	-0.526	-0.048
-95.830	54.564	0.134	0.127
-94.816	-157.405	0.320	-0.019
-93.801	594.791	0.103	0.251
-92.786	-177.238	0.190	-0.005
-91.772	-200.000	-0.090	0.477
-90.757	-73.941	-0.199	0.071
-89.743	-200.000	-0.016	0.190
-88.728	-101.464	-0.217	0.052
-87.713	105.404	-0.161	-0.188
-86.699	-64.455	0.221	0.089
-85.684	-61.693	0.046	-0.019
-84.670	-170.951	-0.327	-0.011
-83.655	278.789	0.185	0.326
-82.640	-2.094	0.020	0.014
-81.626	-127.924	0.150	-0.021
-80.611	-200.000	-0.033	-0.151
-79.597	-129.956	-0.335	0.045
-78.582	49.335	0.147	-0.136
-77.567	-1.561	-0.136	0.095
-76.553	-200.000	-0.019	0.146
-75.538	416.698	0.054	-0.115
-74.524	-161.169	0.045	0.002
-73.509	-24.044	0.158	0.093
-72.494	-23.228	0.087	-0.052
-71.480	-200.000	-0.059	0.308
-70.465	-97.979	0.248	0.063
-69.451	-200.000	0.065	-0.378
-68.436	800.000	0.035	0.130
-67.422	241.090	0.065	0.106
-66.407	800.000	0.018	0.076
-65.392	245.986	0.082	-0.136
-64.378	125.173	-0.142	0.176
-63.363	800.000	-0.066	0.279
-62.349	-200.000	0.001	0.087
-61.334	29.109	-0.838	-0.702
-60.319	-200.000	0.114	0.656
-59.305	231.253	-0.382	-0.618
-58.290	510.082	0.488	1.119
-57.276	280.589	0.893	1.575
-56.261	-200.000	96.497	567.646
-55.246	630.472	1396.532	3486.092
-54.232	183.897	2629.675	3838.363
-53.217	114.629	2325.924	2796.387
-52.203	43.868	1934.825	1748.155
-51.188	37.440	1720.922	1505.264
-50.173	34.620	1675.804	1444.443
-49.159	51.822	1724.094	1618.401
-48.144	55.089	1741.302	1659.519
-47.130	37.155	1697.833	1482.654
-46.115	34.267	1682.181	1447.026
-45.100	34.188	1676.911	1441.834
-44.086	34.096	1674.813	1439.277
-43.071	34.029	1672.314	1436.572
-42.057	34.083	1669.690	1434.664
-41.042	34.184	1667.544	1433.525
-40.027	34.045	1665.817	1430.935
-39.013	34.075	1663.268	1428.920
-37.998	34.025	1662.062	1427.447
-36.984	34.073	1660.427	1426.348
-35.969	34.122	1659.671	1426.011
-34.954	34.266	1657.380	1425.060
-33.940	34.197	1655.520	1422.888
-32.925	34.109	1653.766	1420.667
-31.911	34.166	1652.204	1419.696
-30.896	34.192	1650.345	1418.240
-29.881	34.162	1648.612	1416.470
-28.867	34.196	1646.736	1415.056
-27.852	34.115	1645.767	1413.565
-26.838	34.176	1644.087	1412.516
-25.823	34.249	1642.679	1411.792
-24.809	34.224	1641.247	1410.322
-23.794	34.180	1640.042	1408.902
-22.779	34.250	1638.241	1407.813
-21.765	34.222	1636.316	1405.900
-20.750	34.204	1634.860	1404.460
-19.736	34.248	1633.595	1403.645
-18.721	34.259	1631.977	1402.273
-17.706	34.254	1630.681	1401.073
-16.692	34.264	1628.773	1399.447
-15.677	34.123	1627.816	1397.537
-14.663	34.118	1626.339	1396.179
-13.648	34.212	1624.801	1395.488
-12.633	34.187	1623.601	1394.218
-11.619	34.244	1621.696	1392.945
-10.604	34.241	1620.643	1391.963
-9.590	34.307	1618.921	1390.914
-8.575	34.295	1617.252	1389.332
-7.560	34.239	1616.037	1387.829
-6.546	34.189	1615.525	1386.971
-5.531	34.233	1614.196	1386.092
-4.517	34.206	1612.894	1384.722
-3.502	34.332	1611.452	1384.348
-2.487	34.357	1609.980	1383.212
-1.473	34.175	1599.168	1372.549
-0.458	31.721	1579.570	1338.173
0.556	30.507	1579.619	1303.785
1.571	28.068	1603.564	1306.037
2.586	26.676	1616.149	1306.139
3.600	23.252	1560.899	1237.487
4.615	14.112	1448.995	1089.086
5.629	6.146	1382.743	989.240
6.644	4.651	1374.229	973.708
7.659	4.598	1373.033	972.441
8.673	4.569	1372.127	971.529
9.688	4.702	1369.948	970.733
10.702	4.585	1367.643	968.283
11.717	8.440	1375.099	997.582
12.731	17.390	1391.523	1065.715
13.746	22.746	1399.590	1105.453
14.761	22.921	1398.433	1105.536
15.775	22.066	1396.773	1098.781
16.790	21.140	1393.597	1090.401
17.804	20.272	1391.631	1083.348
18.819	19.953	1390.193	1080.148
19.834	19.824	1389.211	1078.479
20.848	19.699	1388.100	1076.746
21.863	19.448	1387.221	1074.405
22.877	19.429	1386.099	1073.323
23.892	19.309	1384.851	1071.518
24.907	19.322	1384.248	1071.033
25.921	19.261	1383.417	1069.921
26.936	19.442	1382.130	1069.953
27.950	19.317	1381.475	1068.577
28.965	19.417	1380.485	1068.335
29.980	19.569	1379.523	1068.437
30.994	19.750	1378.225	1068.452
32.009	19.721	1377.124	1067.325
33.023	19.750	1376.125	1066.636
34.038	19.605	1374.713	1064.554
35.053	19.490	1373.131	1062.530
36.067	19.551	1371.808	1061.785
37.082	19.461	1371.159	1060.639
38.096	19.474	1370.847	1060.379
39.111	19.675	1369.476	1060.459
40.126	19.415	1368.502	1058.015
41.140	19.252	1367.273	1055.973
42.155	19.051	1366.902	1054.360
43.169	18.939	1366.673	1053.407
44.184	18.993	1366.103	1053.206
45.199	19.111	1365.509	1053.374
46.213	19.259	1364.997	1053.796
47.228	19.372	1364.725	1054.182
48.242	19.447	1363.431	1053.543
49.257	19.321	1362.223	1051.748
50.271	19.420	1360.339	1050.803
51.286	19.473	1359.036	1050.027
52.301	19.366	1358.233	1048.664
53.315	19.247	1357.362	1047.176
54.330	19.223	1355.244	1045.303
55.344	19.100	1354.887	1044.193
56.359	19.156	1353.565	1043.416
57.374	19.257	1352.240	1042.917
58.388	19.029	1351.817	1041.117
59.403	18.979	1351.332	1040.348
60.417	18.916	1350.573	1039.289
61.432	18.965	1349.501	1038.673
62.447	18.899	1348.020	1037.041
63.461	18.779	1347.258	1035.643
64.476	18.837	1346.125	1035.025
65.490	18.762	1345.028	1033.642
66.505	18.729	1343.713	1032.339
67.520	18.852	1342.249	1031.863
68.534	18.894	1340.914	1030.995
69.549	18.825	1340.458	1030.139
70.563	18.722	1338.866	1028.213
71.578	18.774	1337.403	1027.309
72.593	18.644	1337.000	1026.126
73.607	18.459	1336.735	1024.731
74.622	18.548	1336.008	1024.612
75.636	18.688	1334.648	1024.314
76.651	18.729	1334.507	1024.357
77.666	18.789	1333.858	1024.131
78.680	18.775	1333.595	1023.753
79.695	18.924	1332.741	1023.892
80.709	19.036	1331.773	1023.728
81.724	19.121	1331.314	1023.788
82.739	19.198	1330.767	1023.738
83.753	19.333	1330.110	1023.941
84.768	19.423	1329.194	1023.677
85.782	19.540	1328.076	1023.421
86.797	19.430	1326.791	1021.689
87.812	19.572	1324.947	1021.017
88.826	19.498	1324.023	1019.777
89.841	19.519	1322.999	1019.022
90.855	19.472	1322.539	1018.303
91.870	19.491	1321.878	1017.816
92.884	19.540	1321.254	1017.534
93.899	19.672	1320.204	1017.411
94.914	19.699	1319.077	1016.613
95.928	19.724	1318.403	1016.149
96.943	19.624	1317.394	1014.694
97.957	19.501	1317.099	1013.653
98.972	19.613	1315.489	1012.983
99.987	19.639	1314.484	1012.272
101.001	19.531	1313.637	1010.897
102.016	19.567	1312.893	1010.447
103.030	19.663	1311.630	1009.945
104.045	19.545	1311.234	1008.860
105.060	19.428	1309.560	1006.803
106.074	19.277	1307.711	1004.415
107.089	18.838	1306.340	1000.714
108.103	18.799	1304.641	999.095
109.118	18.832	1304.011	998.719
110.133	18.801	1302.229	997.083
111.147	18.852	1301.056	996.393
112.162	19.028	1299.810	996.370
113.176	19.081	1298.778	995.800
114.191	19.034	1298.131	994.943
115.206	19.120	1297.040	994.518
116.220	18.982	1295.550	992.492
117.235	18.972	1294.667	991.668
118.249	18.914	1293.755	990.545
119.264	18.952	1292.054	989.377
120.279	18.812	1291.099	987.750
121.293	18.884	1289.967	987.212
122.308	18.761	1288.930	985.626
123.322	18.692	1287.558	984.091
124.337	18.662	1286.326	982.891
125.352	18.644	1285.731	982.247
126.366	18.601	1284.708	981.131
127.381	18.668	1283.134	980.229
128.395	18.668	1282.413	979.591
129.410	18.729	1281.405	979.078
130.424	18.766	1281.283	979.112
131.439	18.919	1279.920	978.857
132.454	18.997	1279.078	978.568
133.468	19.041	1278.684	978.433
134.483	19.034	1277.665	977.523
135.497	19.016	1276.561	976.493
136.512	19.025	1275.478	975.625
137.527	19.054	1273.867	974.475
138.541	19.217	1272.503	974.268
139.556	19.238	1271.610	973.612
140.570	19.265	1270.889	973.126
141.585	19.276	1269.885	972.335
142.600	19.477	1268.194	972.087
143.614	19.525	1267.656	971.862
144.629	19.652	1266.523	971.619
145.643	19.667	1265.478	970.818
146.658	19.413	1263.572	967.844
147.673	19.280	1262.528	966.213
148.687	19.164	1260.981	964.292
149.702	18.972	1259.982	962.371
150.716	19.043	1257.913	961.098
151.731	18.982	1257.298	960.203
152.746	19.050	1256.359	959.780
153.760	19.204	1254.684	959.275
154.775	19.251	1254.137	959.036
155.789	19.245	1253.343	958.309
156.804	19.360	1252.366	958.118
157.819	19.356	1251.334	957.217
158.833	19.503	1250.557	957.358
159.848	19.527	1250.105	957.055
160.862	19.490	1248.645	955.651
161.877	19.370	1246.838	953.520
162.892	19.231	1245.950	951.987
163.906	19.010	1245.192	950.107
164.921	19.164	1243.891	949.876
165.935	19.187	1243.319	949.485
166.950	19.261	1242.540	949.213
167.964	19.341	1241.971	949.134
168.979	19.213	1241.368	947.884
169.994	19.046	1240.612	946.304
171.008	19.253	1239.175	946.262
172.023	19.363	1238.756	946.463
173.037	19.519	1238.249	946.846
174.052	19.493	1237.501	946.050
175.067	19.298	1235.968	943.726
176.081	19.105	1234.839	941.724
177.096	19.120	1234.002	941.086
178.110	19.123	1232.987	940.243
179.125	19.123	1231.946	939.368
180.140	19.242	1230.966	939.187
181.154	19.392	1229.551	938.838
182.169	19.512	1228.868	938.888
183.183	19.572	1227.578	938.145
184.198	19.540	1226.462	937.035
185.213	19.642	1225.156	936.505
186.227	19.617	1223.988	935.396
187.242	19.690	1222.964	934.923
188.256	20.004	1221.932	935.749
189.271	19.803	1221.234	934.045
190.286	19.543	1220.052	931.656
191.300	19.168	1218.924	928.690
192.315	19.079	1218.138	927.534
193.329	19.093	1217.615	927.128
194.344	19.268	1216.774	927.345
195.359	19.338	1216.743	927.615
196.373	19.395	1216.208	927.434
197.388	19.617	1215.773	928.211
198.402	19.726	1215.791	928.728
199.417	19.817	1214.956	928.499
200.432	20.046	1214.336	929.171
201.446	20.124	1213.509	928.872
202.461	20.196	1212.656	928.522
203.475	20.020	1212.626	927.475
204.490	19.955	1210.247	925.229
205.504	19.705	1208.993	922.851
206.519	19.665	1207.900	921.724
207.534	19.722	1206.745	921.065
208.548	19.589	1206.153	919.826
209.563	19.668	1205.260	919.482
210.577	19.684	1204.159	918.643
211.592	19.794	1203.006	918.270
212.607	19.939	1202.904	918.879
213.621	19.971	1201.617	917.986
214.636	19.849	1200.753	916.599
215.650	19.968	1199.548	916.227
216.665	20.096	1198.816	916.263
217.680	20.143	1198.343	916.065
218.694	20.254	1197.311	915.783
219.709	20.095	1196.575	914.302
220.723	20.234	1195.542	914.163
221.738	20.020	1195.312	912.778
222.753	20.072	1194.450	912.315
223.767	20.048	1193.647	911.495
224.782	20.220	1193.573	912.262
225.796	20.290	1192.836	911.985
226.811	20.214	1192.100	910.942
227.826	20.135	1190.754	909.419
228.840	20.093	1190.250	908.732
229.855	19.975	1189.558	907.507
230.869	20.109	1188.358	907.210
231.884	19.928	1188.006	905.915
232.899	19.903	1186.838	904.813
233.913	19.838	1186.252	903.946
234.928	19.797	1185.451	903.045
235.942	19.747	1184.577	902.036
236.957	19.717	1183.739	901.163
237.972	19.766	1182.543	900.427
238.986	19.804	1182.406	900.438
240.001	19.739	1181.839	899.592
241.015	19.936	1180.776	899.729
242.030	20.044	1179.949	899.576
243.045	20.011	1179.091	898.671
244.059	20.104	1178.275	898.455
245.074	20.081	1177.566	897.715
246.088	20.210	1176.909	897.804
247.103	20.370	1176.301	898.085
248.117	20.300	1175.608	897.116
249.132	20.620	1174.879	898.133
250.147	20.657	1175.050	898.373
251.161	20.932	1173.906	898.837
252.176	20.916	1173.775	898.577
253.190	20.865	1172.907	897.571
254.205	21.086	1172.479	898.299
255.220	21.131	1171.847	897.969
256.234	21.004	1171.120	896.681
257.249	21.023	1170.106	895.924
258.263	21.076	1169.732	895.829
259.278	20.984	1168.961	894.686
260.293	21.087	1168.468	894.759
261.307	21.027	1167.928	893.957
262.322	21.027	1167.444	893.506
263.336	21.162	1166.598	893.470
264.351	21.174	1165.648	892.728
265.366	21.116	1165.537	892.266
266.380	21.115	1165.044	891.804
267.395	21.020	1164.165	890.566
268.409	20.959	1162.740	889.090
269.424	20.820	1162.471	888.098
270.439	20.960	1161.276	887.819
271.453	20.868	1160.512	886.689
272.468	20.739	1159.496	885.174
273.482	20.622	1159.146	884.234
274.497	20.762	1158.382	884.284
275.512	20.678	1157.983	883.474
276.526	20.787	1156.776	883.031
277.541	20.807	1156.176	882.595
278.555	20.849	1155.487	882.204
279.570	20.951	1154.964	882.241
280.585	21.024	1154.398	882.102
281.599	21.195	1153.148	881.931
282.614	21.003	1151.991	879.998
283.628	20.920	1150.793	878.590
284.643	20.898	1149.738	877.594
285.657	20.934	1148.892	877.053
286.672	20.920	1148.261	876.424
287.687	20.989	1147.188	875.871
288.701	20.980	1146.431	875.172
289.716	20.959	1145.778	874.493
290.730	21.039	1145.269	874.425
291.745	21.064	1144.201	873.657
292.760	21.064	1143.933	873.377
293.774	21.191	1143.208	873.382
294.789	21.285	1142.569	873.284
295.803	21.246	1142.104	872.657
296.818	21.163	1141.399	871.625
297.833	20.968	1140.659	870.013
298.847	21.061	1139.518	869.527
299.862	21.144	1138.817	869.331
300.876	21.058	1138.439	868.536
301.891	21.154	1137.740	868.404
302.906	21.345	1137.278	868.923
303.920	21.305	1137.031	868.458
304.935	21.481	1136.201	868.625
305.949	21.673	1135.668	869.094
306.964	21.497	1135.180	867.771
307.979	21.396	1134.212	866.451
308.993	21.418	1133.023	865.576
310.008	21.374	1132.498	864.880
311.022	21.672	1131.446	865.475
312.037	21.402	1131.070	863.773
313.052	21.373	1129.662	862.478
314.066	21.270	1128.595	861.079
315.081	21.131	1127.615	859.570
316.095	21.034	1126.830	858.421
317.110	21.126	1126.382	858.457
318.125	21.102	1125.765	857.793
319.139	21.055	1124.732	856.698
320.154	21.023	1124.252	856.098
321.168	21.042	1123.793	855.767
322.183	21.194	1123.047	855.869
323.197	21.227	1122.708	855.694
324.212	21.225	1121.922	855.013
325.227	21.200	1121.951	854.836
326.241	21.300	1121.313	854.765
327.256	21.348	1120.004	853.926
328.270	21.160	1119.203	852.321
329.285	21.092	1118.303	851.230
330.300	21.244	1117.007	850.906
331.314	21.247	1116.287	850.296
332.329	21.316	1115.056	849.621
333.343	21.336	1114.271	849.043
334.358	21.533	1113.295	849.182
335.373	21.527	1113.171	848.984
336.387	21.557	1112.472	848.521
337.402	21.556	1111.689	847.843
338.416	21.597	1111.123	847.537
339.431	21.733	1110.771	847.848
340.446	21.840	1110.318	847.947
341.460	21.954	1109.647	847.911
342.475	22.082	1108.788	847.796
343.489	21.970	1108.280	846.794
344.504	22.054	1107.114	846.231
345.519	22.143	1106.025	845.752
346.533	22.144	1105.727	845.455
347.548	22.245	1104.866	845.206
348.562	22.140	1104.261	844.162
349.577	21.918	1103.066	842.113
350.592	21.737	1102.281	840.570
351.606	21.637	1101.352	839.306
352.621	21.593	1100.686	838.513
353.635	21.514	1100.418	837.858
354.650	21.519	1099.380	837.016
355.665	21.765	1098.549	837.487
356.679	21.753	1097.910	836.869
357.694	21.714	1097.405	836.224
358.708	21.820	1097.206	836.502
359.723	21.871	1096.343	836.014
360.738	21.894	1095.287	835.243
361.752	21.820	1095.266	834.800
362.767	21.920	1094.242	834.422
363.781	22.003	1093.638	834.283
364.796	22.150	1093.391	834.717
365.810	22.290	1092.801	834.861
366.825	22.342	1092.485	834.792
367.840	22.520	1091.710	834.967
368.854	22.502	1091.785	834.866
369.869	22.499	1090.661	833.918
370.883	22.426	1089.632	832.713
371.898	22.207	1088.663	830.862
372.913	22.196	1088.267	830.434
373.927	22.257	1088.047	830.483
374.942	22.442	1087.552	830.903
375.956	22.257	1086.793	829.381
376.971	22.334	1086.341	829.324
377.986	22.437	1085.476	829.074
379.000	22.583	1084.960	829.296
380.015	22.580	1084.256	828.670
381.029	22.626	1084.083	828.681
382.044	22.623	1083.401	828.069
383.059	22.520	1082.653	826.943
384.073	22.482	1081.731	825.985
385.088	22.689	1080.664	826.069
386.102	22.595	1079.865	824.946
387.117	22.471	1078.299	823.096
388.132	22.245	1077.892	821.654
389.146	22.328	1076.717	821.077
390.161	22.195	1075.944	819.792
391.175	22.326	1075.548	820.030
392.190	22.474	1074.727	820.018
393.205	22.530	1074.366	819.932
394.219	22.611	1073.497	819.572
395.234	22.517	1072.187	818.066
396.248	22.425	1071.094	816.729
397.263	22.228	1070.314	815.150
398.278	22.253	1069.432	814.522
399.292	22.096	1069.285	813.611
400.307	22.072	1068.527	812.852
401.321	22.123	1067.176	811.987
402.336	22.062	1066.881	811.410
403.350	22.323	1065.646	811.603
404.365	22.181	1065.407	810.693
405.380	22.272	1065.048	810.767
406.394	22.486	1063.654	810.623
407.409	22.573	1063.334	810.707
408.423	22.603	1062.605	810.214
409.438	22.760	1061.977	810.386
410.453	22.806	1061.927	810.486
411.467	22.888	1061.063	810.134
412.482	22.959	1060.190	809.719
413.496	22.919	1059.525	808.957
414.511	23.119	1059.138	809.506
415.526	23.171	1058.782	809.398
416.540	23.236	1058.254	809.220
417.555	23.125	1058.335	808.703
418.569	23.072	1056.938	807.325
419.584	23.085	1056.610	807.059
420.599	22.950	1056.247	806.097
421.613	154.556	1401.181	1790.714
422.628	142.009	1451.416	1790.843
