DTS Sentinel unit serial number:	SN413079Multiplexer serial number:	ORYXHardware model number:	OX4-SRSoftware version number:	ORYX F/W v4.00 Oryx Data Collector v3.7.2.0data status	okinstallation	princeton_trtdifferential loss correction	single-endedforward channel	channel 2reverse channel	N/Adate	2019/09/13time	11:31:35forward acquisition time	60.00reverse acquisition time	0.00gamma	496.2192k internal	0.2319k external	0.2319temperature offset calibration	1.0190default loss term (dB/km)	0.3790temperature slope calibration	1.0000multiplexer offset coefficient	1.0000multiplexer slope coefficient	1.0000fibre end	0.00T internal ref (°C)	32.78T ext. ref 1 (°C)	4.37T ext. ref 2 (°C)	30.25length (m)	temperature (°C)	Stokes	anti-Stokes-747.200	-199.263	0.298	-0.002
-746.185	800.000	-0.032	0.102
-745.171	-98.061	-0.232	-0.060
-744.156	-200.000	-0.047	0.398
-743.142	60.620	0.256	0.257
-742.127	800.000	0.127	0.495
-741.112	76.467	-0.067	0.072
-740.098	-145.101	-0.256	0.024
-739.083	-200.000	0.005	-0.239
-738.069	433.964	-0.130	0.286
-737.054	-61.576	0.126	0.053
-736.039	46.014	-0.155	-0.145
-735.025	59.065	0.166	-0.165
-734.010	-29.367	-0.496	-0.287
-732.996	-200.000	-0.053	-0.245
-731.981	3.137	-0.209	0.154
-730.966	-143.218	-0.154	-0.015
-729.952	97.887	-0.202	-0.235
-728.937	-63.442	-0.318	-0.132
-727.923	800.000	-0.031	-0.127
-726.908	-160.432	-0.301	0.016
-725.894	-111.956	-0.115	0.023
-724.879	84.763	0.261	0.289
-723.864	-65.333	-0.140	-0.057
-722.850	-6.301	0.064	0.044
-721.835	118.120	0.136	0.169
-720.821	-14.427	-0.188	0.122
-719.806	800.000	-0.091	-0.361
-718.791	800.000	0.020	-0.079
-717.777	-12.445	0.129	-0.085
-716.762	55.572	-0.161	0.158
-715.748	-132.525	0.179	0.023
-714.733	-93.119	0.282	-0.079
-713.718	598.179	0.090	0.225
-712.704	-200.000	-0.016	-0.171
-711.689	-60.885	-0.232	-0.099
-710.675	104.087	0.188	0.224
-709.660	-10.801	0.219	-0.146
-708.645	-113.044	0.351	-0.070
-707.631	-43.353	-0.084	0.043
-706.616	-83.047	0.503	-0.164
-705.602	-137.792	0.426	-0.048
-704.587	-200.000	-0.029	0.128
-703.572	800.000	0.036	-0.145
-702.558	-200.000	-0.017	0.169
-701.543	-131.803	0.499	-0.066
-700.529	-93.441	0.277	-0.077
-699.514	-68.859	0.057	-0.022
-698.499	-69.495	0.373	0.144
-697.485	-135.809	0.423	0.050
-696.470	-200.000	0.024	0.185
-695.456	-82.426	0.344	-0.113
-694.441	447.745	0.145	0.322
-693.426	130.860	-0.189	-0.245
-692.412	301.266	-0.102	-0.190
-691.397	-100.368	0.113	-0.028
-690.383	-108.211	-0.132	0.029
-689.368	-27.488	-0.214	0.125
-688.354	72.832	-0.213	-0.224
-687.339	287.658	0.232	0.424
-686.324	-31.604	-0.053	0.030
-685.310	399.851	-0.108	0.229
-684.295	-62.180	0.323	-0.136
-683.281	169.291	0.098	-0.141
-682.266	800.000	-0.091	0.269
-681.251	151.980	0.067	-0.093
-680.237	-80.534	-0.086	0.029
-679.222	-98.028	0.327	-0.085
-678.208	253.169	0.144	-0.247
-677.193	-200.000	-0.031	-0.317
-676.178	363.664	-0.043	0.088
-675.164	-200.000	0.038	0.204
-674.149	-200.000	0.055	-0.370
-673.135	232.571	0.127	0.210
-672.120	270.728	0.128	-0.227
-671.105	-75.760	0.109	0.039
-670.091	800.000	-0.019	-0.058
-669.076	49.234	-0.263	0.249
-668.062	800.000	-0.036	0.138
-667.047	-200.000	-0.004	0.232
-666.032	244.335	0.091	-0.154
-665.018	309.256	-0.176	-0.331
-664.003	-13.662	0.236	0.154
-662.989	258.043	-0.105	0.182
-661.974	284.063	-0.152	-0.276
-660.959	759.219	-0.067	-0.182
-659.945	252.165	-0.057	0.098
-658.930	-16.581	0.115	0.074
-657.916	800.000	-0.046	-0.165
-656.901	-75.268	-0.366	-0.132
-655.886	-200.000	0.070	0.366
-654.872	-144.079	0.642	-0.061
-653.857	312.517	-0.227	0.429
-652.843	292.405	0.123	0.226
-651.828	-127.525	0.297	-0.043
-650.814	-200.000	-0.017	-0.147
-649.799	-200.000	0.023	-0.192
-648.784	237.036	-0.137	0.228
-647.770	-59.941	-0.292	0.126
-646.755	74.894	-0.469	-0.497
-645.741	-200.000	0.007	-0.152
-644.726	-11.127	0.348	0.231
-643.711	-86.631	-0.297	0.092
-642.697	104.532	-0.250	0.296
-641.682	-116.100	0.261	0.049
-640.668	-101.390	-0.072	-0.018
-639.653	7.741	-0.171	-0.129
-638.638	-200.000	-0.023	-0.248
-637.624	-200.000	-0.032	0.173
-636.609	166.401	0.049	-0.069
-635.595	669.698	0.071	-0.184
-634.580	-42.720	-0.326	0.167
-633.565	-78.196	0.111	-0.038
-632.551	-200.000	-0.019	-0.248
-631.536	379.404	0.047	-0.097
-630.522	-196.347	-0.279	0.002
-629.507	19.280	-0.093	0.075
-628.492	68.057	-0.103	-0.106
-627.478	112.860	-0.138	-0.168
-626.463	-77.637	0.423	-0.147
-625.449	800.000	-0.025	0.096
-624.434	12.576	-0.187	-0.145
-623.419	-200.000	0.009	0.054
-622.405	-184.577	0.228	-0.004
-621.390	-67.833	0.228	-0.090
-620.376	398.162	0.124	-0.261
-619.361	-29.422	0.089	-0.051
-618.346	-23.724	-0.182	-0.110
-617.332	800.000	0.054	-0.190
-616.317	800.000	-0.059	-0.198
-615.303	800.000	0.112	-0.345
-614.288	-200.000	0.054	0.261
-613.273	31.682	-0.132	-0.115
-612.259	800.000	0.055	0.235
-611.244	-200.000	0.015	-0.288
-610.230	-200.000	-0.074	0.344
-609.215	66.171	-0.136	0.139
-608.201	161.489	0.212	-0.299
-607.186	42.390	-0.188	-0.172
-606.171	-175.287	-0.294	0.008
-605.157	20.793	-0.084	0.068
-604.142	-200.000	-0.037	0.202
-603.128	800.000	-0.048	-0.179
-602.113	-15.841	-0.108	-0.069
-601.098	-0.855	0.102	0.073
-600.084	22.885	0.022	-0.018
-599.069	54.832	-0.204	0.198
-598.055	-200.000	-0.023	-0.439
-597.040	181.782	0.221	0.327
-596.025	153.601	0.150	-0.207
-595.011	71.303	0.336	-0.351
-593.996	-200.000	0.008	0.228
-592.982	-143.022	0.231	-0.023
-591.967	-7.424	0.159	-0.109
-590.952	-90.607	-0.516	0.150
-589.938	-60.144	-0.250	-0.107
-588.923	301.677	0.109	-0.202
-587.909	-29.183	-0.103	0.059
-586.894	169.169	-0.166	-0.238
-585.879	800.000	-0.039	0.132
-584.865	-74.677	-0.130	0.047
-583.850	800.000	0.086	0.372
-582.836	9.889	0.308	0.235
-581.821	-200.000	-0.051	0.243
-580.806	3.457	-0.301	0.220
-579.792	-88.871	0.112	-0.034
-578.777	-60.308	-0.242	-0.103
-577.763	-200.000	0.038	0.201
-576.748	-93.317	-0.271	0.076
-575.733	-10.964	-0.207	-0.137
-574.719	-44.183	-0.394	0.199
-573.704	295.902	-0.125	0.231
-572.690	-102.558	-0.257	-0.062
-571.675	435.212	-0.053	0.116
-570.661	800.000	-0.091	-0.293
-569.646	84.203	0.175	0.192
-568.631	93.947	0.134	0.153
-567.617	98.802	-0.209	-0.242
-566.602	-12.747	0.203	0.133
-565.588	800.000	-0.073	0.253
-564.573	153.024	0.051	0.070
-563.558	311.123	-0.076	-0.144
-562.544	-200.000	0.042	-0.208
-561.529	-17.399	-0.163	0.103
-560.515	-200.000	-0.003	0.081
-559.500	-200.000	-0.331	0.001
-558.485	340.982	0.095	0.186
-557.471	281.883	0.008	0.014
-556.456	-200.000	0.003	-0.274
-555.442	-200.000	-0.039	-0.239
-554.427	105.763	-0.096	-0.114
-553.412	-113.091	0.213	0.042
-552.398	-67.558	0.089	0.035
-551.383	81.205	-0.188	-0.204
-550.369	527.849	-0.143	0.339
-549.354	185.874	0.092	0.138
-548.339	139.609	0.097	-0.129
-547.325	335.656	-0.146	-0.285
-546.310	-87.918	-0.271	-0.082
-545.296	-94.923	0.096	-0.026
-544.281	-108.634	0.172	-0.037
-543.266	494.353	0.031	0.071
-542.252	-128.386	0.161	0.023
-541.237	287.520	-0.129	-0.235
-540.223	162.679	-0.091	-0.128
-539.208	-200.000	0.009	-0.208
-538.193	-200.000	-0.014	-0.164
-537.179	-63.394	0.236	-0.098
-536.164	-200.000	-0.042	0.188
-535.150	0.766	0.374	-0.269
-534.135	800.000	-0.082	0.249
-533.121	26.683	0.228	0.192
-532.106	-172.688	0.286	-0.009
-531.091	370.792	0.177	0.360
-530.077	72.647	0.088	0.092
-529.062	800.000	-0.021	0.066
-528.048	-138.644	-0.162	-0.018
-527.033	-182.141	0.165	0.003
-526.018	276.189	0.143	0.254
-525.004	-200.000	-0.032	-0.168
-523.989	-79.550	0.092	-0.031
-522.975	-63.212	-0.178	0.074
-521.960	138.219	0.096	0.126
-520.945	-117.609	0.223	-0.040
-519.931	-144.474	0.265	-0.025
-518.916	-188.385	-0.106	-0.001
-517.902	328.162	0.113	-0.217
-516.887	45.873	-0.189	-0.176
-515.872	-200.000	0.003	0.096
-514.858	572.727	-0.039	-0.095
-513.843	-49.505	0.023	0.011
-512.829	-20.474	-0.188	0.116
-511.814	-91.020	-0.086	-0.025
-510.799	192.507	-0.163	-0.246
-509.785	197.607	-0.157	0.241
-508.770	-200.000	-0.016	0.400
-507.756	134.095	0.097	0.126
-506.741	800.000	0.084	0.307
-505.726	-200.000	0.013	-0.121
-504.712	169.934	-0.213	-0.305
-503.697	171.175	0.083	-0.119
-502.683	-170.910	0.139	-0.005
-501.668	54.232	0.097	0.093
-500.653	-200.000	0.046	-0.338
-499.639	176.771	0.137	0.199
-498.624	-135.538	-0.192	-0.023
-497.610	-142.420	-0.061	-0.006
-496.595	800.000	0.112	-0.424
-495.581	-35.906	0.116	0.063
-494.566	-107.159	-0.034	0.008
-493.551	13.842	-0.220	-0.172
-492.537	51.356	-0.094	0.089
-491.522	-200.000	-0.018	0.320
-490.508	55.410	0.035	0.034
-489.493	77.849	0.056	-0.059
-488.478	105.950	0.069	-0.081
-487.464	-73.087	-0.354	-0.130
-486.449	185.988	0.071	-0.106
-485.435	-200.000	0.024	0.209
-484.420	621.011	0.118	0.296
-483.405	800.000	0.095	-0.286
-482.391	280.036	0.059	-0.105
-481.376	2.691	0.193	-0.140
-480.362	120.718	0.101	-0.125
-479.347	-27.895	-0.320	-0.185
-478.332	89.429	0.070	0.078
-477.318	-123.364	-0.543	-0.087
-476.303	-133.553	0.232	-0.029
-475.289	-78.963	0.223	-0.076
-474.274	137.663	-0.196	0.257
-473.259	800.000	0.080	0.244
-472.245	150.430	-0.121	0.164
-471.230	195.201	0.285	0.433
-470.216	188.464	-0.227	-0.340
-469.201	24.051	-0.266	-0.220
-468.186	-113.167	0.117	-0.023
-467.172	89.173	-0.149	-0.166
-466.157	478.988	-0.034	-0.076
-465.143	-61.028	0.152	0.064
-464.128	-30.786	-0.458	-0.259
-463.113	-164.087	0.087	0.004
-462.099	-32.581	0.092	-0.051
-461.084	354.483	0.110	0.218
-460.070	-174.494	0.072	0.002
-459.055	-49.850	-0.051	0.024
-458.040	244.681	0.082	0.137
-457.026	-200.000	0.018	-0.173
-456.011	-161.468	0.239	-0.012
-454.997	5.981	0.154	0.114
-453.982	263.385	0.023	0.041
-452.968	191.397	0.127	0.192
-451.953	79.701	0.229	-0.246
-450.938	-200.000	0.035	-0.286
-449.924	246.725	-0.120	-0.203
-448.909	-124.050	0.083	0.013
-447.895	-200.000	-0.061	-0.284
-446.880	-35.731	0.053	-0.029
-445.865	-128.250	0.312	-0.044
-444.851	-200.000	-0.015	-0.080
-443.836	-200.000	0.052	0.492
-442.822	417.522	-0.146	0.311
-441.807	-130.316	0.058	0.008
-440.792	49.051	-0.098	0.092
-439.778	-44.466	-0.087	0.044
-438.763	-84.057	-0.218	0.069
-437.749	-60.379	-0.072	0.031
-436.734	-200.000	-0.008	-0.055
-435.719	-112.860	0.226	0.045
-434.705	21.177	-0.063	-0.051
-433.690	300.916	-0.061	0.112
-432.676	800.000	-0.087	0.265
-431.661	106.307	-0.175	0.207
-430.646	-200.000	-0.063	0.381
-429.632	-62.173	0.258	0.108
-428.617	750.976	0.154	-0.415
-427.603	10.434	-0.204	-0.155
-426.588	459.357	0.059	0.132
-425.573	-79.417	-0.229	-0.077
-424.559	-200.000	-0.002	-0.065
-423.544	-67.390	-0.232	0.091
-422.530	-200.000	-0.007	-0.061
-421.515	35.183	0.244	0.214
-420.500	800.000	-0.047	-0.136
-419.486	-200.000	-0.016	0.131
-418.471	-66.021	-0.273	0.109
-417.457	94.132	0.285	-0.323
-416.442	-18.866	-0.085	-0.053
-415.428	170.211	-0.139	-0.198
-414.413	759.368	0.185	-0.500
-413.398	159.668	0.117	-0.162
-412.384	-30.558	-0.328	0.186
-411.369	-51.476	0.131	0.061
-410.355	-131.822	0.505	-0.066
-409.340	677.142	0.119	-0.310
-408.325	-102.248	0.206	-0.049
-407.311	-70.910	-0.242	0.091
-406.296	-67.631	0.106	0.042
-405.282	-140.168	-0.297	0.031
-404.267	21.612	0.096	-0.078
-403.252	103.998	-0.212	0.249
-402.238	40.699	0.133	-0.119
-401.223	191.788	-0.082	0.124
-400.209	-200.000	0.016	0.351
-399.194	-61.552	-0.142	0.059
-398.179	800.000	0.083	-0.241
-397.165	140.311	0.083	-0.109
-396.150	-105.137	-0.217	0.050
-395.136	800.000	-0.138	0.479
-394.121	-83.246	0.165	0.053
-393.106	417.584	-0.136	-0.290
-392.092	-48.194	-0.157	-0.075
-391.077	64.238	-0.077	-0.077
-390.063	22.212	-0.123	0.101
-389.048	6.649	0.013	0.009
-388.033	240.675	0.089	0.147
-387.019	-26.034	-0.122	0.072
-386.004	-200.000	-0.018	0.128
-384.990	61.365	0.109	0.108
-383.975	634.896	0.064	-0.162
-382.960	-123.289	0.161	0.026
-381.946	-170.182	-0.249	0.009
-380.931	-137.472	0.172	-0.019
-379.917	800.000	-0.036	-0.117
-378.902	-99.991	-0.308	0.077
-377.888	209.711	-0.062	0.097
-376.873	-200.000	0.002	-0.204
-375.858	-200.000	0.000	0.181
-374.844	-200.000	0.070	-0.359
-373.829	-67.987	0.167	-0.065
-372.815	276.729	-0.143	-0.253
-371.800	800.000	-0.081	0.257
-370.785	236.611	-0.075	0.124
-369.771	92.879	0.072	0.081
-368.756	215.787	0.251	-0.397
-367.742	-124.023	0.422	-0.066
-366.727	-103.530	-0.216	0.051
-365.712	193.062	0.150	0.226
-364.698	-102.422	-0.232	-0.055
-363.683	-127.460	0.063	-0.009
-362.669	-200.000	-0.011	0.168
-361.654	131.499	0.089	-0.114
-360.639	-21.116	0.245	0.149
-359.625	-106.076	0.319	0.071
-358.610	116.665	0.066	-0.081
-357.596	660.918	-0.098	-0.252
-356.581	437.458	0.027	-0.059
-355.566	279.925	-0.095	0.169
-354.552	228.865	-0.169	0.274
-353.537	-2.004	0.043	-0.030
-352.523	-200.000	0.062	-0.351
-351.508	81.286	0.069	0.075
-350.493	794.100	-0.073	-0.200
-349.479	-200.000	-0.034	0.185
-348.464	57.139	0.074	0.072
-347.450	242.958	-0.047	-0.079
-346.435	83.276	0.019	0.020
-345.420	-181.057	0.128	0.003
-344.406	-99.354	0.403	-0.101
-343.391	138.082	0.067	-0.087
-342.377	-3.695	-0.113	0.078
-341.362	-200.000	0.008	0.165
-340.348	-103.035	0.128	0.030
-339.333	-180.015	0.163	0.003
-338.318	-35.834	0.210	-0.113
-337.304	28.378	-0.356	-0.300
-336.289	-27.661	0.274	-0.158
-335.275	-88.493	-0.243	-0.072
-334.260	-126.827	0.202	-0.030
-333.245	344.107	-0.053	-0.104
-332.231	-19.231	0.323	-0.199
-331.216	-6.867	-0.088	0.060
-330.202	144.486	0.189	0.251
-329.187	110.318	-0.128	0.153
-328.172	-108.420	0.119	-0.026
-327.158	34.519	-0.205	0.179
-326.143	-60.203	-0.039	-0.016
-325.129	800.000	-0.030	0.099
-324.114	-33.498	0.184	-0.101
-323.099	-200.000	0.025	0.140
-322.085	648.331	0.093	0.237
-321.070	-200.000	-0.065	-0.000
-320.056	20.525	0.192	0.155
-319.041	-200.000	-0.004	0.215
-318.026	443.689	0.099	0.215
-317.012	800.000	0.067	0.262
-315.997	800.000	-0.051	-0.205
-314.983	-200.000	0.002	0.040
-313.968	-49.905	0.197	-0.093
-312.953	14.073	-0.122	0.094
-311.939	-200.000	0.051	0.288
-310.924	-200.000	0.014	-0.199
-309.910	-200.000	-0.034	0.382
-308.895	-175.240	-0.334	-0.009
-307.880	-183.115	0.168	0.003
-306.866	-116.932	0.365	0.066
-305.851	-166.028	0.210	0.009
-304.837	56.683	0.178	-0.172
-303.822	-190.701	0.307	0.003
-302.807	333.901	-0.038	0.074
-301.793	-48.760	-0.227	0.108
-300.778	55.304	0.365	-0.351
-299.764	-36.636	0.105	-0.056
-298.749	-37.822	-0.085	0.045
-297.735	-67.111	-0.230	-0.090
-296.720	-66.590	0.200	-0.079
-295.705	-200.000	-0.033	-0.245
-294.691	-39.495	-0.118	-0.061
-293.676	-200.000	0.013	0.239
-292.662	-200.000	-0.005	0.227
-291.647	299.270	0.143	-0.261
-290.632	71.499	-0.243	-0.251
-289.618	181.762	0.061	0.089
-288.603	-200.000	-0.028	0.486
-287.589	-107.201	-0.393	-0.086
-286.574	-64.107	0.093	0.038
-285.559	-194.327	0.222	-0.002
-284.545	800.000	-0.057	-0.224
-283.530	-56.707	-0.124	-0.054
-282.516	133.978	0.240	0.309
-281.501	-173.528	0.209	-0.006
-280.486	-200.000	0.004	0.154
-279.472	389.641	-0.047	0.096
-278.457	800.000	0.085	0.369
-277.443	48.070	-0.199	-0.184
-276.428	-96.489	-0.095	0.025
-275.413	-47.285	0.173	-0.084
-274.399	142.725	-0.219	-0.289
-273.384	-6.528	0.057	0.039
-272.370	122.932	-0.170	-0.211
-271.355	19.845	-0.617	-0.494
-270.340	199.204	-0.054	0.082
-269.326	-21.607	-0.179	-0.109
-268.311	-200.000	0.023	-0.166
-267.297	-200.000	0.399	0.001
-266.282	389.962	-0.205	-0.423
-265.267	294.695	-0.063	0.115
-264.253	-165.487	0.420	-0.018
-263.238	77.053	0.141	0.148
-262.224	-127.404	0.366	-0.053
-261.209	-20.289	0.044	-0.027
-260.195	-200.000	0.008	0.385
-259.180	-200.000	0.031	0.408
-258.165	-60.059	0.247	-0.105
-257.151	800.000	0.068	0.194
-256.136	136.761	-0.136	-0.176
-255.122	800.000	-0.080	-0.220
-254.107	-96.671	-0.569	-0.149
-253.092	66.220	-0.064	-0.064
-252.078	-91.130	0.344	0.098
-251.063	-51.456	-0.208	0.096
-250.049	-6.831	0.284	-0.191
-249.034	205.438	-0.193	-0.297
-248.019	-104.209	-0.120	-0.028
-247.005	633.874	0.106	0.268
-245.990	20.595	0.115	0.092
-244.976	269.623	-0.087	-0.152
-243.961	323.260	0.071	0.134
-242.946	-200.000	0.009	-0.193
-241.932	38.393	-0.162	0.144
-240.917	-160.969	0.239	-0.012
-239.903	-137.041	-0.167	-0.019
-238.888	-35.471	-0.311	-0.168
-237.873	379.241	-0.063	0.128
-236.859	-74.795	-0.152	0.054
-235.844	323.941	-0.120	-0.228
-234.830	-65.462	0.048	0.019
-233.815	-179.944	0.335	-0.007
-232.800	275.684	0.063	0.111
-231.786	-73.107	-0.166	-0.060
-230.771	-46.546	-0.226	0.110
-229.757	67.141	-0.233	0.236
-228.742	-133.087	-0.248	0.031
-227.727	-129.640	-0.517	-0.071
-226.713	-126.509	0.124	-0.018
-225.698	-200.000	-0.030	0.155
-224.684	469.886	-0.139	0.309
-223.669	-49.654	-0.086	0.041
-222.655	650.435	-0.166	0.420
-221.640	93.062	-0.164	0.183
-220.625	-99.692	-0.097	0.024
-219.611	-200.000	0.039	-0.195
-218.596	-33.275	0.218	0.119
-217.582	84.926	0.122	0.132
-216.567	107.103	-0.132	0.156
-215.552	-73.972	0.167	0.060
-214.538	120.928	-0.225	-0.278
-213.523	-163.697	0.279	-0.013
-212.509	-98.818	-0.149	0.038
-211.494	22.834	0.223	-0.181
-210.479	96.909	0.237	0.269
-209.465	71.743	0.087	-0.089
-208.450	-28.722	-0.237	0.135
-207.436	63.523	-0.256	0.254
-206.421	-118.287	0.116	0.020
-205.406	33.851	0.143	-0.123
-204.392	368.388	-0.222	-0.445
-203.377	223.565	-0.119	0.190
-202.363	-200.000	-0.004	0.114
-201.348	-200.000	0.242	-0.000
-200.333	-17.778	-0.190	0.118
-199.319	28.217	0.047	-0.039
-198.304	-1.848	0.204	-0.142
-197.290	-22.769	-0.091	0.054
-196.275	-200.000	0.016	-0.297
-195.260	2.401	0.145	-0.104
-194.246	148.841	0.031	-0.042
-193.231	290.638	-0.050	-0.089
-192.217	-191.185	0.088	-0.001
-191.202	32.738	0.166	-0.142
-190.187	132.969	0.094	-0.120
-189.173	357.369	-0.085	0.168
-188.158	89.971	0.092	0.102
-187.144	-200.000	-0.037	-0.538
-186.129	800.000	-0.081	0.338
-185.114	-146.961	0.082	-0.007
-184.100	-200.000	-0.052	-0.280
-183.085	185.391	0.072	-0.106
-182.071	193.362	-0.120	0.180
-181.056	-159.283	-0.364	0.020
-180.042	-46.131	0.216	-0.105
-179.027	545.412	-0.073	0.172
-178.012	50.031	-0.279	0.260
-176.998	-89.913	0.346	-0.100
-175.983	153.253	-0.024	0.032
-174.969	-100.107	-0.197	-0.049
-173.954	6.013	0.415	0.304
-172.939	-90.290	-0.229	0.066
-171.925	-84.445	0.193	0.060
-170.910	-67.862	0.219	0.085
-169.896	52.023	0.062	0.059
-168.881	378.435	-0.188	-0.379
-167.866	-200.000	-0.017	0.201
-166.852	88.548	0.155	-0.170
-165.837	-200.000	0.007	0.421
-164.823	-200.000	0.002	0.168
-163.808	-81.469	0.202	0.066
-162.793	70.934	0.130	-0.133
-161.779	-200.000	0.242	0.001
-160.764	66.737	-0.272	-0.274
-159.750	-68.319	0.106	-0.041
-158.735	-54.227	0.129	-0.058
-157.720	800.000	0.043	0.186
-156.706	800.000	0.019	0.074
-155.691	-143.645	0.197	0.019
-154.677	-144.960	0.080	-0.007
-153.662	763.925	0.026	0.070
-152.647	-43.790	0.260	0.130
-151.633	-186.649	-0.201	0.003
-150.618	621.233	-0.149	0.370
-149.604	800.000	-0.109	0.362
-148.589	-51.525	0.121	0.056
-147.574	78.980	0.130	0.137
-146.560	184.372	-0.188	0.275
-145.545	-200.000	-0.026	0.204
-144.531	152.510	0.187	0.252
-143.516	-200.000	0.024	-0.195
-142.502	-200.000	0.009	-0.311
-141.487	93.625	-0.137	-0.154
-140.472	-34.303	-0.269	0.146
-139.458	-200.000	0.007	0.152
-138.443	-200.000	0.073	0.349
-137.429	111.395	0.116	0.139
-136.414	-200.000	-0.022	0.303
-135.399	1.686	0.292	-0.208
-134.385	-200.000	-0.102	-0.708
-133.370	-122.850	0.194	0.031
-132.356	524.463	-0.116	-0.269
-131.341	-115.045	-0.161	-0.030
-130.326	248.771	-0.153	0.256
-129.312	61.760	0.225	0.221
-128.297	-115.414	0.209	-0.039
-127.283	-138.550	0.152	-0.016
-126.268	-200.000	0.155	-0.000
-125.253	98.364	-0.115	-0.131
-124.239	-46.853	0.065	0.031
-123.224	-18.773	-0.209	-0.129
-122.210	-200.000	0.033	-0.289
-121.195	764.097	-0.068	0.184
-120.180	-162.292	0.591	0.029
-119.166	800.000	-0.044	0.130
-118.151	-115.421	0.077	0.014
-117.137	593.534	0.081	0.198
-116.122	-149.217	0.368	-0.029
-115.107	-123.252	-0.319	-0.050
-114.093	-200.000	-0.048	0.417
-113.078	-36.294	0.170	0.090
-112.064	142.263	-0.088	0.115
-111.049	48.002	0.143	0.132
-110.034	199.274	-0.130	0.197
-109.020	115.105	-0.226	-0.272
-108.005	-128.739	0.149	-0.021
-106.991	-106.163	0.182	0.040
-105.976	-200.000	-0.026	-0.159
-104.962	-51.934	-0.217	0.100
-103.947	18.481	0.072	-0.057
-102.932	-20.311	0.133	-0.081
-101.918	53.382	-0.201	-0.190
-100.903	795.739	0.030	0.081
-99.889	800.000	-0.068	-0.282
-98.874	-25.174	-0.362	-0.211
-97.859	53.286	0.237	-0.224
-96.845	-107.185	-0.233	-0.051
-95.830	-23.069	0.143	0.085
-94.816	235.026	-0.230	0.374
-93.801	-34.622	0.211	0.114
-92.786	-200.000	0.043	-0.311
-91.772	112.811	0.197	0.236
-90.757	-24.817	-0.149	0.087
-89.743	-115.127	0.221	0.041
-88.728	80.641	-0.185	0.197
-87.713	-110.530	-0.204	0.042
-86.699	219.242	-0.120	-0.190
-85.684	800.000	-0.065	0.227
-84.670	120.775	-0.147	0.181
-83.655	-2.347	-0.230	-0.159
-82.640	-139.479	-0.387	0.041
-81.626	-75.245	-0.189	0.067
-80.611	-200.000	-0.019	0.401
-79.597	128.431	0.098	0.122
-78.582	9.489	0.102	-0.076
-77.567	-200.000	0.008	-0.186
-76.553	37.406	0.183	-0.160
-75.538	38.966	0.215	0.190
-74.524	-137.522	-0.060	-0.007
-73.509	71.849	0.158	-0.162
-72.494	-200.000	0.073	-0.396
-71.480	-200.000	-0.017	0.386
-70.465	-200.000	0.010	0.195
-69.451	184.659	0.061	-0.090
-68.436	-200.000	0.004	-0.097
-67.422	-200.000	-0.024	0.166
-66.407	-28.196	-0.404	-0.230
-65.392	-142.294	0.164	-0.016
-64.378	800.000	-0.070	-0.246
-63.363	-81.348	-0.325	0.106
-62.349	-200.000	-0.034	-0.228
-61.334	92.512	-0.824	-0.916
-60.319	64.120	0.526	0.521
-59.305	199.661	-0.387	-0.584
-58.290	66.286	0.644	0.644
-57.276	397.502	0.583	1.201
-56.261	-200.000	97.197	591.313
-55.246	610.485	1428.057	3513.789
-54.232	183.461	2638.202	3839.181
-53.217	111.914	2317.102	2755.276
-52.203	42.102	1928.899	1724.154
-51.188	36.054	1716.633	1487.840
-50.173	33.262	1673.023	1428.931
-49.159	50.945	1719.794	1604.514
-48.144	53.086	1736.069	1635.987
-47.130	35.698	1695.596	1466.652
-46.115	32.902	1681.062	1432.842
-45.100	32.696	1676.288	1427.153
-44.086	32.765	1673.224	1425.011
-43.071	32.642	1671.037	1422.167
-42.057	32.682	1668.394	1420.161
-41.042	32.683	1666.272	1418.307
-40.027	32.615	1664.285	1416.043
-39.013	32.629	1662.450	1414.534
-37.998	32.544	1660.872	1412.499
-36.984	32.648	1659.678	1412.202
-35.969	32.821	1658.199	1412.189
-34.954	32.778	1656.575	1410.423
-33.940	32.831	1654.201	1408.745
-32.925	32.854	1652.509	1407.421
-31.911	32.781	1650.583	1405.181
-30.896	32.759	1649.219	1403.796
-29.881	32.719	1647.314	1401.823
-28.867	32.726	1645.843	1400.565
-27.852	32.745	1644.339	1399.375
-26.838	32.712	1643.108	1398.029
-25.823	32.768	1641.414	1396.947
-24.809	32.855	1639.785	1396.144
-23.794	32.856	1638.668	1395.144
-22.779	32.818	1637.035	1393.423
-21.765	32.807	1635.217	1391.733
-20.750	32.819	1633.816	1390.580
-19.736	32.816	1632.144	1389.076
-18.721	32.893	1630.647	1388.314
-17.706	32.845	1629.455	1386.888
-16.692	32.814	1628.002	1385.368
-15.677	32.795	1626.842	1384.190
-14.663	32.841	1625.234	1383.107
-13.648	32.805	1623.595	1381.394
-12.633	32.877	1621.954	1380.467
-11.619	32.796	1620.514	1378.592
-10.604	32.799	1619.027	1377.294
-9.590	32.748	1618.085	1376.071
-8.575	32.802	1616.744	1375.264
-7.560	32.799	1615.370	1374.025
-6.546	32.901	1613.916	1373.473
-5.531	32.809	1612.857	1371.846
-4.517	32.893	1611.421	1371.181
-3.502	32.843	1610.125	1369.661
-2.487	32.839	1609.202	1368.797
-1.473	32.758	1597.583	1358.274
-0.458	30.358	1577.900	1324.390
0.556	28.834	1577.697	1290.815
1.571	26.284	1601.674	1292.110
2.586	25.193	1614.265	1294.280
3.600	21.842	1558.838	1226.338
4.615	13.169	1447.366	1081.982
5.629	5.686	1382.664	986.553
6.644	4.431	1373.748	972.250
7.659	4.339	1372.620	970.791
8.673	4.345	1371.546	969.982
9.688	4.366	1369.997	968.936
10.702	4.284	1367.341	966.457
11.717	7.950	1374.100	994.068
12.731	16.503	1390.102	1059.363
13.746	22.188	1398.422	1101.335
14.761	22.479	1398.585	1103.193
15.775	21.728	1396.367	1096.646
16.790	20.713	1393.473	1087.935
17.804	19.942	1390.897	1081.014
18.819	19.537	1390.318	1077.938
19.834	19.488	1389.524	1076.924
20.848	19.330	1388.182	1074.806
21.863	19.180	1386.507	1072.479
22.877	19.052	1385.649	1070.924
23.892	18.993	1384.598	1069.649
24.907	18.919	1383.891	1068.544
25.921	19.033	1382.867	1068.368
26.936	18.975	1382.345	1067.513
27.950	19.027	1381.044	1066.737
28.965	19.149	1380.032	1066.615
29.980	19.171	1379.657	1066.364
30.994	19.404	1378.175	1066.566
32.009	19.397	1376.990	1065.515
33.023	19.378	1375.958	1064.502
34.038	19.252	1374.469	1062.478
35.053	19.185	1373.279	1061.051
36.067	19.154	1371.701	1059.552
37.082	19.163	1371.128	1059.068
38.096	19.264	1369.843	1058.606
39.111	19.349	1369.157	1058.499
40.126	19.147	1368.468	1056.636
41.140	18.953	1367.329	1054.473
42.155	18.824	1366.277	1052.776
43.169	18.729	1366.225	1052.063
44.184	18.722	1365.887	1051.663
45.199	18.764	1365.688	1051.675
46.213	18.867	1365.220	1051.852
47.228	18.964	1365.079	1052.247
48.242	19.161	1363.268	1051.961
49.257	19.081	1361.783	1050.235
50.271	19.070	1360.536	1049.110
51.286	19.039	1359.491	1048.027
52.301	19.068	1357.923	1046.900
53.315	18.817	1356.543	1044.214
54.330	18.878	1355.227	1043.483
55.344	18.835	1354.116	1042.274
56.359	18.818	1353.597	1041.679
57.374	18.907	1352.478	1041.264
58.388	18.628	1351.822	1038.979
59.403	18.721	1350.983	1038.806
60.417	18.690	1350.091	1037.835
61.432	18.608	1349.554	1036.837
62.447	18.496	1348.563	1035.309
63.461	18.389	1347.685	1033.896
64.476	18.441	1346.067	1032.877
65.490	18.513	1344.456	1031.982
66.505	18.535	1343.423	1031.231
67.520	18.474	1342.507	1030.071
68.534	18.646	1341.345	1030.118
69.549	18.539	1340.227	1028.527
70.563	18.469	1338.819	1026.940
71.578	18.369	1337.443	1025.194
72.593	18.233	1336.957	1023.915
73.607	18.253	1336.247	1023.402
74.622	18.324	1335.678	1023.302
75.636	18.416	1334.556	1022.898
76.651	18.371	1333.826	1021.978
77.666	18.409	1333.465	1021.840
78.680	18.474	1332.955	1021.746
79.695	18.595	1332.307	1021.878
80.709	18.692	1332.166	1022.260
81.724	18.826	1330.792	1021.913
82.739	18.927	1330.314	1022.056
83.753	19.050	1329.225	1021.860
84.768	19.127	1328.823	1021.917
85.782	19.330	1327.673	1022.147
86.797	19.287	1326.447	1020.854
87.812	19.147	1325.307	1019.060
88.826	19.027	1324.134	1017.357
89.841	19.176	1323.184	1017.419
90.855	19.241	1322.203	1016.958
91.870	19.269	1321.567	1016.543
92.884	19.267	1320.325	1015.485
93.899	19.423	1319.529	1015.706
94.914	19.373	1318.777	1014.742
95.928	19.253	1318.367	1013.629
96.943	19.285	1317.310	1012.913
97.957	19.196	1316.272	1011.505
98.972	19.145	1315.502	1010.523
99.987	19.242	1313.622	1009.555
101.001	19.227	1313.137	1009.011
102.016	19.196	1312.626	1008.343
103.030	19.270	1311.297	1007.670
104.045	19.276	1310.262	1006.816
105.060	19.118	1308.859	1004.732
106.074	18.933	1307.097	1002.207
107.089	18.637	1305.149	998.903
108.103	18.454	1304.372	997.153
109.118	18.538	1303.117	996.595
110.133	18.440	1302.047	995.123
111.147	18.517	1300.759	994.496
112.162	18.587	1299.192	993.616
113.176	18.718	1298.381	993.665
114.191	18.813	1296.736	992.865
115.206	18.814	1295.905	992.147
116.220	18.727	1294.705	990.643
117.235	18.790	1293.142	989.722
118.249	18.660	1292.375	988.298
119.264	18.677	1290.873	987.156
120.279	18.546	1289.792	985.494
121.293	18.452	1289.096	984.335
122.308	18.319	1287.784	982.484
123.322	18.466	1286.438	982.208
124.337	18.245	1285.932	980.468
125.352	18.252	1284.669	979.463
126.366	18.264	1283.513	978.559
127.381	18.272	1282.818	977.992
128.395	18.407	1281.077	977.344
129.410	18.328	1280.979	976.738
130.424	18.436	1280.149	976.630
131.439	18.583	1278.760	976.322
132.454	18.628	1278.070	975.967
133.468	18.727	1277.442	975.962
134.483	18.676	1276.928	975.191
135.497	18.742	1275.526	974.413
136.512	18.703	1274.121	973.031
137.527	18.748	1273.202	972.496
138.541	18.845	1271.384	971.571
139.556	18.934	1270.525	971.332
140.570	18.905	1270.074	970.736
141.585	18.996	1268.581	970.024
142.600	19.068	1267.638	969.619
143.614	19.220	1266.577	969.579
144.629	19.350	1265.049	969.056
145.643	19.166	1264.484	967.501
146.658	19.116	1263.088	966.066
147.673	18.956	1261.299	963.718
148.687	18.785	1260.127	961.780
149.702	18.768	1258.363	960.256
150.716	18.716	1257.188	958.984
151.731	18.684	1256.198	957.962
152.746	18.837	1254.934	957.769
153.760	18.784	1254.524	957.075
154.775	19.036	1252.651	956.963
155.789	19.050	1252.136	956.560
156.804	18.975	1251.538	955.604
157.819	19.066	1250.253	955.045
158.833	19.183	1249.532	955.059
159.848	19.229	1248.937	954.771
160.862	19.390	1247.278	954.313
161.877	18.939	1245.864	950.655
162.892	18.733	1244.919	948.708
163.906	18.734	1243.570	947.599
164.921	18.743	1242.995	947.127
165.935	18.963	1242.018	947.513
166.950	18.950	1241.227	946.757
167.964	18.911	1240.769	946.109
168.979	18.864	1239.644	944.907
169.994	18.980	1239.113	945.054
171.008	18.862	1238.182	943.615
172.023	18.982	1237.982	944.040
173.037	19.210	1237.317	944.698
174.052	19.190	1236.048	943.535
175.067	19.061	1234.751	941.758
176.081	18.755	1233.729	939.222
177.096	18.731	1232.775	938.277
178.110	18.864	1231.565	938.003
179.125	18.955	1230.394	937.522
180.140	19.034	1229.366	937.086
181.154	19.047	1228.877	936.703
182.169	19.184	1227.415	936.247
183.183	19.257	1226.537	935.893
184.198	19.310	1225.444	935.263
185.213	19.250	1224.402	934.058
186.227	19.446	1222.784	933.804
187.242	19.366	1222.322	932.935
188.256	19.334	1221.687	932.198
189.271	19.516	1220.615	932.280
190.286	19.257	1219.279	929.777
191.300	18.879	1217.862	926.580
192.315	18.708	1217.023	924.938
193.329	18.716	1216.942	924.836
194.344	18.818	1216.484	924.954
195.359	18.985	1215.624	925.116
196.373	19.085	1215.252	925.290
197.388	19.123	1215.373	925.503
198.402	19.372	1214.789	926.319
199.417	19.609	1213.866	926.804
200.432	19.637	1213.926	926.916
201.446	19.737	1213.092	926.735
202.461	19.740	1212.381	926.123
203.475	19.852	1211.129	925.687
204.490	19.598	1209.555	923.043
205.504	19.383	1208.541	921.042
206.519	19.404	1206.797	919.743
207.534	19.283	1205.900	918.330
208.548	19.341	1204.839	917.750
209.563	19.370	1203.972	917.164
210.577	19.298	1203.183	916.098
211.592	19.507	1202.528	916.627
212.607	19.689	1201.601	916.809
213.621	19.560	1201.367	915.866
214.636	19.569	1200.593	915.241
215.650	19.591	1198.937	914.013
216.665	19.737	1198.490	914.362
217.680	19.915	1197.707	914.626
218.694	19.847	1197.018	913.660
219.709	19.793	1196.031	912.543
220.723	19.726	1194.895	911.239
221.738	19.762	1194.172	910.797
222.753	19.699	1193.488	909.862
223.767	19.787	1192.875	909.779
224.782	20.039	1192.282	910.571
225.796	19.914	1192.095	909.693
226.811	19.860	1191.248	908.682
227.826	19.726	1190.304	907.176
228.840	19.675	1189.571	906.270
229.855	19.628	1188.787	905.347
230.869	19.655	1187.827	904.676
231.884	19.652	1187.003	903.954
232.899	19.484	1186.457	902.578
233.913	19.508	1185.352	901.784
234.928	19.529	1184.483	901.153
235.942	19.473	1183.591	900.100
236.957	19.370	1183.152	899.152
237.972	19.380	1182.470	898.607
238.986	19.483	1181.585	898.390
240.001	19.499	1180.672	897.700
241.015	19.527	1180.165	897.382
242.030	19.621	1179.629	897.384
243.045	19.735	1178.786	897.252
244.059	19.677	1177.866	896.174
245.074	19.772	1177.090	895.996
246.088	19.894	1176.363	895.994
247.103	20.009	1175.697	896.002
248.117	20.043	1175.343	895.828
249.132	20.232	1174.994	896.462
250.147	20.417	1174.266	896.782
251.161	20.558	1173.386	896.757
252.176	20.597	1173.059	896.627
253.190	20.682	1172.345	896.442
254.205	20.789	1171.788	896.489
255.220	20.674	1170.973	895.191
256.234	20.689	1170.105	894.525
257.249	20.621	1169.739	893.817
258.263	20.719	1168.812	893.536
259.278	20.605	1168.206	892.405
260.293	20.580	1167.963	892.015
261.307	20.700	1167.501	892.196
262.322	20.834	1166.628	892.140
263.336	20.868	1165.937	891.706
264.351	20.861	1165.357	891.150
265.366	20.872	1164.688	890.615
266.380	20.923	1164.155	890.386
267.395	20.775	1162.958	888.639
268.409	20.574	1162.129	886.902
269.424	20.683	1161.137	886.622
270.439	20.620	1160.929	886.061
271.453	20.593	1159.994	885.131
272.468	20.443	1158.963	883.506
273.482	20.360	1158.569	882.703
274.497	20.510	1157.564	882.619
275.512	20.394	1157.228	881.698
276.526	20.405	1156.363	881.019
277.541	20.447	1155.257	880.310
278.555	20.597	1155.026	880.814
279.570	20.706	1154.466	880.861
280.585	20.873	1153.966	881.247
281.599	20.873	1152.804	880.284
282.614	20.827	1151.195	878.742
283.628	20.622	1150.505	877.107
284.643	20.614	1149.654	876.339
285.657	20.588	1148.979	875.613
286.672	20.568	1147.942	874.649
287.687	20.689	1146.516	874.090
288.701	20.585	1146.520	873.492
289.716	20.631	1145.262	872.688
290.730	20.727	1144.604	872.592
291.745	20.664	1144.185	871.882
292.760	20.798	1143.143	871.679
293.774	20.876	1143.004	871.888
294.789	20.977	1142.605	872.010
295.803	20.812	1142.262	870.849
296.818	20.702	1140.956	869.226
297.833	20.630	1139.979	868.043
298.847	20.691	1139.163	867.649
299.862	20.726	1138.520	867.256
300.876	20.801	1138.117	867.247
301.891	20.939	1137.077	867.067
302.906	21.098	1136.401	867.262
303.920	21.070	1136.289	866.959
304.935	21.238	1135.612	867.202
305.949	21.221	1135.021	866.590
306.964	21.308	1134.336	866.420
307.979	21.184	1133.197	864.863
308.993	20.999	1132.708	863.497
310.008	21.032	1132.076	863.101
311.022	21.244	1131.296	863.480
312.037	21.178	1130.439	862.421
313.052	21.117	1128.964	860.921
314.066	20.896	1128.411	859.330
315.081	20.852	1127.264	858.163
316.095	20.762	1126.458	857.034
317.110	20.752	1125.896	856.478
318.125	20.754	1125.339	855.992
319.139	20.842	1123.983	855.313
320.154	20.776	1123.802	854.777
321.168	20.778	1123.121	854.194
322.183	20.847	1122.544	854.017
323.197	20.865	1121.836	853.490
324.212	20.891	1121.553	853.330
325.227	20.871	1121.238	852.914
326.241	20.831	1120.656	852.200
327.256	20.850	1119.615	851.429
328.270	20.949	1118.231	850.780
329.285	20.921	1117.649	850.127
330.300	20.922	1116.366	849.082
331.314	20.838	1115.701	848.092
332.329	20.852	1115.007	847.555
333.343	20.933	1114.238	847.290
334.358	21.108	1113.338	847.383
335.373	21.104	1112.702	846.802
336.387	21.159	1111.803	846.313
337.402	21.232	1110.828	845.848
338.416	21.359	1110.307	845.991
339.431	21.433	1109.845	845.923
340.446	21.489	1109.703	846.011
341.460	21.671	1108.976	846.259
342.475	21.637	1108.462	845.627
343.489	21.558	1107.695	844.587
344.504	21.619	1106.683	844.037
345.519	21.690	1105.594	843.471
346.533	21.704	1105.097	843.084
347.548	21.859	1104.532	843.325
348.562	21.836	1103.133	842.074
349.577	21.617	1101.946	840.040
350.592	21.381	1101.577	838.553
351.606	21.338	1100.369	837.355
352.621	21.193	1099.811	836.162
353.635	21.261	1099.146	835.905
354.650	21.261	1098.089	835.027
355.665	21.349	1097.604	835.005
356.679	21.371	1097.028	834.599
357.694	21.432	1096.839	834.673
358.708	21.545	1095.930	834.445
359.723	21.601	1095.311	834.166
360.738	21.455	1095.221	833.332
361.752	21.675	1093.946	833.334
362.767	21.564	1093.608	832.471
363.781	21.659	1092.772	832.213
364.796	21.720	1092.651	832.338
365.810	21.863	1092.374	832.734
366.825	21.931	1091.912	832.627
367.840	22.032	1091.057	832.384
368.854	22.182	1090.519	832.609
369.869	22.109	1090.085	831.858
370.883	22.078	1089.042	830.841
371.898	21.844	1087.965	828.843
372.913	21.946	1087.303	828.748
373.927	21.958	1086.925	828.442
374.942	22.208	1086.366	829.123
375.956	22.024	1085.866	827.801
376.971	22.022	1085.243	827.241
377.986	22.116	1084.710	827.204
379.000	22.213	1084.433	827.375
380.015	22.360	1083.901	827.587
381.029	22.440	1083.019	827.216
382.044	22.261	1082.548	825.946
383.059	22.222	1081.709	825.049
384.073	22.300	1080.276	824.246
385.088	22.121	1079.818	822.985
386.102	22.305	1078.731	822.944
387.117	22.078	1077.945	821.213
388.132	21.976	1076.655	819.681
389.146	21.802	1076.179	818.436
390.161	21.818	1075.568	817.972
391.175	21.831	1074.841	817.406
392.190	22.010	1074.145	817.640
393.205	22.123	1073.920	817.921
394.219	22.182	1072.710	817.202
395.234	22.128	1071.375	815.861
396.248	22.114	1070.338	814.933
397.263	22.002	1069.753	813.899
398.278	21.850	1069.262	812.750
399.292	21.829	1068.241	811.804
400.307	21.715	1067.335	810.514
401.321	21.782	1066.767	810.323
402.336	21.768	1066.167	809.731
403.350	21.821	1065.384	809.307
404.365	21.865	1064.514	808.780
405.380	21.982	1063.904	808.781
406.394	22.145	1063.215	808.938
407.409	22.240	1062.902	809.063
408.423	22.408	1062.219	809.247
409.438	22.512	1061.396	809.023
410.453	22.435	1061.224	808.469
411.467	22.603	1060.186	808.378
412.482	22.644	1059.447	807.929
413.496	22.623	1058.987	807.413
414.511	22.649	1058.830	807.341
415.526	22.826	1058.188	807.587
416.540	22.848	1057.794	807.318
417.555	22.733	1057.368	806.393
418.569	22.850	1056.305	806.046
419.584	22.657	1056.044	804.895
420.599	22.571	1055.943	804.354
421.613	154.833	1400.813	1792.079
422.628	142.265	1451.042	1792.190
