DTS Sentinel unit serial number:	SN413079Multiplexer serial number:	ORYXHardware model number:	OX4-SRSoftware version number:	ORYX F/W v4.00 Oryx Data Collector v3.7.2.0data status	okinstallation	princeton_trtdifferential loss correction	single-endedforward channel	channel 2reverse channel	N/Adate	2019/09/12time	04:09:11forward acquisition time	60.00reverse acquisition time	0.00gamma	496.2192k internal	0.2327k external	0.2327temperature offset calibration	1.0097default loss term (dB/km)	0.3790temperature slope calibration	1.0000multiplexer offset coefficient	1.0000multiplexer slope coefficient	1.0000fibre end	0.00T internal ref (°C)	31.98T ext. ref 1 (°C)	2.20T ext. ref 2 (°C)	25.66length (m)	temperature (°C)	Stokes	anti-Stokes-747.200	-28.625	-0.308	0.179
-746.185	724.537	-0.130	0.351
-745.171	-121.675	-0.075	-0.012
-744.156	-79.919	-0.203	0.069
-743.142	-96.562	0.130	0.035
-742.127	254.459	-0.219	0.378
-741.112	-120.519	0.247	-0.042
-740.098	-200.000	-0.003	0.196
-739.083	800.000	0.024	0.101
-738.069	-85.283	-0.220	0.069
-737.054	800.000	-0.070	0.247
-736.039	-98.516	-0.283	0.073
-735.025	-161.499	0.298	0.015
-734.010	-20.419	0.014	0.009
-732.996	-200.000	0.011	-0.311
-731.981	-11.036	-0.330	-0.219
-730.966	-130.242	-0.110	0.015
-729.952	-200.000	0.015	0.154
-728.937	-70.274	-0.187	-0.072
-727.923	313.664	-0.022	-0.042
-726.908	800.000	0.045	0.128
-725.894	-124.351	-0.171	0.027
-724.879	-134.592	-0.041	0.005
-723.864	-8.023	-0.235	-0.160
-722.850	28.396	-0.216	-0.184
-721.835	60.430	0.090	0.090
-720.821	-200.000	-0.009	-0.310
-719.806	306.387	-0.119	0.224
-718.791	713.474	0.109	-0.291
-717.777	-96.956	-0.313	0.083
-716.762	800.000	-0.077	-0.329
-715.748	-169.461	0.294	0.011
-714.733	-100.488	-0.088	-0.022
-713.718	-10.056	-0.464	-0.310
-712.704	-200.000	0.013	0.180
-711.689	800.000	-0.057	-0.216
-710.675	-86.886	0.088	-0.027
-709.660	-162.950	0.182	0.009
-708.645	-200.000	-0.002	0.260
-707.631	-26.610	0.094	0.055
-706.616	96.863	-0.238	-0.275
-705.602	-53.306	-0.230	-0.106
-704.587	-91.942	-0.121	-0.035
-703.572	611.420	-0.094	-0.236
-702.558	-200.000	0.035	-0.230
-701.543	-4.196	0.054	-0.038
-700.529	-1.142	-0.163	0.116
-699.514	-200.000	0.009	-0.072
-698.499	142.033	-0.116	0.155
-697.485	532.864	-0.079	-0.189
-696.470	800.000	-0.073	-0.224
-695.456	506.765	0.058	0.135
-694.441	-200.000	-0.049	0.251
-693.426	-81.818	0.237	0.078
-692.412	-200.000	-0.029	0.296
-691.397	-64.907	-0.342	0.139
-690.383	-200.000	-0.037	0.190
-689.368	478.286	0.095	0.215
-688.354	-92.793	0.128	-0.036
-687.339	166.967	-0.217	0.310
-686.324	-15.698	0.239	0.153
-685.310	800.000	-0.115	-0.401
-684.295	-105.060	0.199	0.046
-683.281	-19.065	0.230	-0.144
-682.266	-200.000	0.015	0.148
-681.251	-113.020	0.238	-0.047
-680.237	23.277	-0.190	0.157
-679.222	37.068	0.151	0.134
-678.208	-200.000	0.042	-0.387
-677.193	39.016	-0.210	-0.189
-676.178	43.911	-0.102	-0.094
-675.164	4.823	0.398	-0.294
-674.149	-111.784	-0.316	0.064
-673.135	-9.402	0.188	0.126
-672.120	-142.875	-0.210	-0.020
-671.105	-87.587	-0.153	-0.046
-670.091	427.052	0.155	-0.337
-669.076	-8.458	0.105	-0.071
-668.062	64.778	0.187	-0.190
-667.047	263.480	0.179	0.313
-666.032	-200.000	-0.023	0.379
-665.018	-105.319	0.357	0.082
-664.003	221.974	-0.131	-0.213
-662.989	9.277	0.055	-0.042
-661.974	-200.000	-0.095	-0.455
-660.959	180.823	-0.108	-0.159
-659.945	-116.274	0.090	-0.017
-658.930	-200.000	0.016	-0.088
-657.916	-200.000	0.042	-0.419
-656.901	45.978	-0.064	-0.060
-655.886	800.000	-0.032	-0.098
-654.872	396.091	-0.092	0.193
-653.857	-200.000	-0.011	-0.079
-652.843	149.391	0.124	0.168
-651.828	701.374	0.072	-0.191
-650.814	-200.000	-0.036	0.280
-649.799	-200.000	-0.058	-0.634
-648.784	366.320	-0.066	-0.133
-647.770	131.231	0.111	0.143
-646.755	224.325	-0.029	-0.047
-645.741	-33.894	-0.295	-0.163
-644.726	228.378	0.077	-0.126
-643.711	-200.000	-0.003	-0.120
-642.697	-37.228	0.198	-0.106
-641.682	-84.952	-0.188	0.059
-640.668	-135.761	0.157	0.019
-639.653	2.842	0.281	-0.205
-638.638	-200.000	0.040	-0.305
-637.624	-44.290	0.112	-0.056
-636.609	-54.556	-0.148	0.067
-635.595	43.624	0.098	-0.090
-634.580	-88.149	0.465	-0.140
-633.565	-200.000	0.024	-0.125
-632.551	0.124	-0.222	-0.159
-631.536	-11.728	0.344	0.227
-630.522	-51.242	-0.133	0.062
-629.507	-172.552	0.463	-0.015
-628.492	48.762	0.103	0.097
-627.478	39.342	0.313	0.281
-626.463	-88.581	0.165	0.049
-625.449	-200.000	0.054	-0.434
-624.434	-102.064	-0.254	-0.062
-623.419	43.204	0.203	-0.186
-622.405	585.641	-0.036	0.090
-621.390	24.863	0.094	-0.078
-620.376	-200.000	0.034	-0.304
-619.361	311.090	0.165	0.311
-618.346	-34.555	0.188	-0.103
-617.332	-39.885	-0.261	-0.136
-616.317	-52.782	0.096	-0.044
-615.303	123.130	0.151	0.190
-614.288	-144.122	-0.147	-0.014
-613.273	-82.898	0.069	-0.022
-612.259	11.622	-0.310	-0.239
-611.244	-200.000	0.029	-0.164
-610.230	-74.887	0.114	-0.041
-609.215	-17.563	0.109	-0.068
-608.201	-27.789	-0.245	-0.142
-607.186	-68.837	0.313	0.121
-606.171	800.000	0.028	0.078
-605.157	-134.453	0.060	-0.007
-604.142	-86.258	-0.123	0.038
-603.128	-143.302	-0.064	0.006
-602.113	-200.000	-0.024	0.392
-601.098	800.000	0.059	-0.206
-600.084	-74.447	-0.112	-0.041
-599.069	-93.889	-0.569	0.157
-598.055	-68.548	-0.234	0.091
-597.040	-200.000	0.036	-0.188
-596.025	-107.709	0.112	-0.025
-595.011	-200.000	0.023	-0.103
-593.996	-200.000	-0.005	0.055
-592.982	800.000	-0.015	0.066
-591.967	229.948	0.148	0.242
-590.952	-80.503	-0.079	-0.027
-589.938	-200.000	-0.047	-0.364
-588.923	-200.000	-0.061	0.359
-587.909	-31.410	0.121	0.068
-586.894	95.070	0.199	0.227
-585.879	-200.000	-0.021	-0.261
-584.865	-132.097	0.248	-0.032
-583.850	343.004	-0.164	0.321
-582.836	106.043	0.169	0.200
-581.821	6.686	-0.334	-0.249
-580.806	-63.784	0.076	-0.031
-579.792	-5.390	-0.034	-0.023
-578.777	-159.804	0.390	-0.022
-577.763	794.766	0.129	0.355
-576.748	-121.925	-0.018	-0.003
-575.733	399.492	0.043	0.091
-574.719	141.092	0.106	-0.141
-573.704	-99.806	0.163	-0.041
-572.690	-109.087	-0.133	-0.028
-571.675	40.971	0.053	-0.048
-570.661	75.401	-0.256	-0.270
-569.646	-200.000	0.000	0.129
-568.631	-72.328	-0.092	0.034
-567.617	-39.110	0.299	-0.157
-566.602	-200.000	0.041	0.244
-565.588	800.000	-0.111	0.367
-564.573	-10.470	-0.116	-0.077
-563.558	-200.000	-0.008	-0.461
-562.544	76.313	0.030	0.032
-561.529	-174.489	-0.414	0.012
-560.515	428.307	-0.182	-0.394
-559.500	202.978	0.149	0.231
-558.485	195.145	-0.085	0.129
-557.471	317.455	-0.115	-0.217
-556.456	138.546	0.132	-0.173
-555.442	-200.000	-0.024	0.108
-554.427	-139.037	-0.182	-0.020
-553.412	-58.622	0.091	-0.040
-552.398	118.504	-0.113	-0.139
-551.383	1.727	0.109	0.079
-550.369	228.707	0.201	0.328
-549.354	298.982	-0.145	-0.267
-548.339	79.321	-0.163	-0.175
-547.325	-98.844	0.134	-0.034
-546.310	23.778	-0.217	-0.179
-545.296	-82.421	-0.208	-0.068
-544.281	80.103	-0.046	-0.050
-543.266	-92.438	-0.109	0.031
-542.252	53.244	-0.121	0.116
-541.237	-24.172	-0.159	-0.095
-540.223	-200.000	-0.021	0.278
-539.208	-161.314	0.115	-0.006
-538.193	-35.585	-0.174	0.095
-537.179	-200.000	-0.037	0.232
-536.164	-11.258	0.335	0.221
-535.150	164.171	-0.179	-0.252
-534.135	6.939	0.084	-0.063
-533.121	-200.000	0.014	0.188
-532.106	-200.000	0.030	0.253
-531.091	-58.969	0.383	-0.165
-530.077	614.127	-0.051	-0.127
-529.062	593.189	-0.105	-0.258
-528.048	-112.618	-0.364	-0.072
-527.033	184.499	0.058	-0.085
-526.018	-90.433	-0.157	0.046
-525.004	800.000	0.043	-0.181
-523.989	-200.000	-0.071	0.392
-522.975	800.000	-0.026	-0.086
-521.960	-88.157	-0.240	-0.072
-520.945	249.159	-0.040	0.068
-519.931	-3.936	-0.288	0.199
-518.916	85.963	-0.164	-0.180
-517.902	-161.839	0.158	-0.008
-516.887	-125.726	0.256	0.039
-515.872	-134.846	-0.169	-0.020
-514.858	-200.000	0.063	0.278
-513.843	800.000	-0.104	-0.342
-512.829	-63.280	-0.275	0.113
-511.814	-11.977	-0.174	0.114
-510.799	-88.419	-0.244	0.073
-509.785	-23.218	0.120	0.072
-508.770	-134.974	0.328	-0.040
-507.756	-200.000	-0.031	-0.226
-506.741	-134.881	0.095	-0.011
-505.726	248.321	-0.057	-0.096
-504.712	-200.000	-0.006	-0.103
-503.697	-200.000	-0.394	-0.000
-502.683	800.000	-0.085	-0.256
-501.668	102.215	-0.168	-0.196
-500.653	800.000	-0.037	-0.116
-499.639	-84.664	-0.128	0.040
-498.624	-140.650	0.333	-0.034
-497.610	800.000	0.033	0.107
-496.595	-122.014	-0.106	0.017
-495.581	-200.000	0.030	0.155
-494.566	482.743	-0.086	0.196
-493.551	202.449	0.200	-0.308
-492.537	-48.921	0.192	0.092
-491.522	227.105	0.146	0.238
-490.508	83.592	-0.073	0.080
-489.493	-88.760	-0.184	0.055
-488.478	-0.921	0.201	-0.142
-487.464	34.169	-0.071	0.062
-486.449	187.586	0.147	-0.219
-485.435	-49.296	0.279	-0.133
-484.420	-200.000	-0.010	-0.202
-483.405	-200.000	-0.044	-0.253
-482.391	-14.554	0.096	0.062
-481.376	-104.533	-0.194	-0.045
-480.362	-200.000	-0.055	0.364
-479.347	-91.466	-0.106	-0.030
-478.332	3.664	0.107	0.078
-477.318	494.250	0.047	-0.108
-476.303	-200.000	-0.014	0.229
-475.289	63.392	0.247	-0.247
-474.274	-200.000	-0.029	-0.188
-473.259	78.759	-0.160	0.170
-472.245	80.566	0.120	0.129
-471.230	447.921	0.088	0.194
-470.216	-54.691	-0.297	0.134
-469.201	-145.077	0.234	0.021
-468.186	412.673	-0.095	0.200
-467.172	192.962	0.191	-0.288
-466.157	-96.764	0.228	0.060
-465.143	-140.409	-0.187	-0.019
-464.128	-178.023	0.300	0.007
-463.113	89.391	-0.143	-0.159
-462.099	-200.000	0.001	-0.012
-461.084	25.284	0.072	-0.060
-460.070	69.436	-0.145	-0.149
-459.055	-200.000	0.056	-0.245
-458.040	-200.000	0.012	0.229
-457.026	-12.188	-0.062	0.040
-456.011	-37.789	0.232	0.123
-454.997	48.615	-0.084	0.078
-453.982	-13.037	0.268	0.173
-452.968	-17.911	0.158	0.099
-451.953	150.138	0.197	-0.267
-450.938	5.960	-0.204	0.151
-449.924	17.087	-0.162	0.128
-448.909	800.000	-0.040	-0.162
-447.895	51.040	0.220	0.208
-446.880	606.979	0.091	0.227
-445.865	17.229	-0.044	-0.035
-444.851	-56.065	0.143	-0.064
-443.836	-96.037	0.449	-0.119
-442.822	-64.976	-0.009	-0.004
-441.807	173.780	-0.180	0.259
-440.792	25.440	-0.233	0.193
-439.778	-66.733	0.239	0.094
-438.763	-175.512	-0.357	0.010
-437.749	-180.793	-0.140	-0.003
-436.734	-92.959	-0.234	-0.065
-435.719	-129.694	0.497	-0.068
-434.705	-32.625	-0.254	-0.141
-433.690	104.166	-0.107	-0.126
-432.676	-200.000	-0.009	0.061
-431.661	113.194	0.114	0.138
-430.646	439.343	0.150	0.327
-429.632	-6.642	-0.350	0.237
-428.617	800.000	0.091	0.308
-427.603	-169.376	-0.017	-0.001
-426.588	305.279	-0.105	-0.194
-425.573	-200.000	-0.028	0.276
-424.559	64.436	0.204	0.204
-423.544	-20.603	-0.163	0.100
-422.530	109.087	-0.119	0.142
-421.515	800.000	-0.058	-0.168
-420.500	-88.819	0.012	0.004
-419.486	-49.939	0.289	0.136
-418.471	-200.000	-0.001	-0.138
-417.457	221.769	0.070	-0.112
-416.442	800.000	0.033	0.094
-415.428	-200.000	-0.037	-0.175
-414.413	306.841	-0.106	0.196
-413.398	183.004	0.135	-0.198
-412.384	208.838	-0.218	0.340
-411.369	256.722	-0.033	-0.056
-410.355	800.000	0.056	0.185
-409.340	60.868	-0.208	-0.205
-408.325	800.000	-0.081	-0.247
-407.311	-56.692	-0.059	0.026
-406.296	142.745	0.326	-0.430
-405.282	190.525	0.188	-0.281
-404.267	306.846	0.023	0.042
-403.252	-167.560	0.363	0.014
-402.238	61.754	0.215	0.213
-401.223	-23.527	-0.351	-0.210
-400.209	329.594	0.030	0.057
-399.194	559.778	-0.057	-0.138
-398.179	331.603	0.124	-0.237
-397.165	-143.308	-0.576	0.055
-396.150	-66.242	-0.188	-0.075
-395.136	-16.262	-0.335	0.211
-394.121	122.968	0.161	0.200
-393.106	112.377	0.081	-0.097
-392.092	-200.000	-0.011	0.112
-391.077	-87.655	-0.295	0.089
-390.063	1.016	-0.207	-0.148
-389.048	800.000	-0.104	-0.297
-388.033	-200.000	0.091	0.443
-387.019	227.030	-0.057	0.092
-386.004	-200.000	-0.023	0.254
-384.990	-128.764	0.197	0.028
-383.975	-45.379	0.302	-0.149
-382.960	557.973	-0.116	-0.277
-381.946	-147.000	-0.220	0.019
-380.931	538.958	-0.165	0.390
-379.917	-17.197	-0.201	-0.126
-378.902	-161.399	0.260	0.013
-377.888	3.739	-0.194	0.141
-376.873	451.885	0.133	0.292
-375.858	561.942	0.032	0.077
-374.844	5.437	0.276	0.202
-373.829	119.530	-0.050	0.061
-372.815	161.396	0.063	-0.088
-371.800	514.987	0.059	0.136
-370.785	-200.000	-0.027	0.125
-369.771	-7.992	0.190	-0.127
-368.756	-200.000	0.007	0.269
-367.742	-200.000	0.012	0.067
-366.727	-98.932	-0.120	0.030
-365.712	-200.000	0.023	0.374
-364.698	375.375	0.176	0.357
-363.683	249.080	-0.091	-0.153
-362.669	-200.000	-0.028	0.247
-361.654	-28.490	-0.048	0.028
-360.639	173.644	0.075	-0.108
-359.625	-200.000	0.002	0.135
-358.610	105.254	-0.219	0.257
-357.596	-174.066	-0.377	-0.011
-356.581	435.956	0.079	0.171
-355.566	-84.522	-0.116	0.036
-354.552	-200.000	0.048	-0.414
-353.537	250.601	-0.048	0.082
-352.523	-95.356	-0.436	-0.116
-351.508	220.963	-0.029	0.047
-350.493	-34.329	-0.360	0.196
-349.479	-98.641	-0.190	0.048
-348.464	-193.182	-0.154	-0.001
-347.450	16.509	0.219	-0.172
-346.435	-73.109	-0.097	-0.035
-345.420	314.865	-0.062	-0.117
-344.406	-118.041	0.028	-0.005
-343.391	177.351	-0.042	0.061
-342.377	-61.644	-0.119	0.050
-341.362	-123.998	0.357	-0.056
-340.348	-200.000	-0.086	0.429
-339.333	-200.000	-0.006	0.228
-338.318	69.765	0.112	0.115
-337.304	300.823	0.121	0.222
-336.289	55.470	-0.211	-0.203
-335.275	710.461	-0.063	0.165
-334.260	496.354	0.117	-0.266
-333.245	800.000	0.074	-0.270
-332.231	334.896	0.149	-0.286
-331.216	89.964	0.148	-0.164
-330.202	46.063	-0.159	-0.146
-329.187	-200.000	0.016	0.095
-328.172	-10.073	0.241	-0.159
-327.158	-67.134	0.262	-0.102
-326.143	178.631	0.095	0.137
-325.129	693.729	-0.046	0.119
-324.114	44.447	-0.127	-0.116
-323.099	33.148	0.106	-0.091
-322.085	202.715	0.155	0.238
-321.070	152.781	-0.280	0.379
-320.056	-200.000	0.042	0.263
-319.041	-200.000	0.016	-0.116
-318.026	100.109	-0.134	0.155
-317.012	-69.797	0.109	-0.041
-315.997	76.145	-0.222	-0.233
-314.983	-192.319	0.489	-0.005
-313.968	8.009	0.284	-0.211
-312.953	-200.000	0.005	0.211
-311.939	68.640	0.037	0.038
-310.924	-22.514	0.054	-0.033
-309.910	-200.000	0.007	0.204
-308.895	-200.000	0.049	0.280
-307.880	-200.000	0.023	-0.144
-306.866	-200.000	-0.019	-0.285
-305.851	-13.418	0.264	-0.170
-304.837	-200.000	-0.006	-0.034
-303.822	95.559	-0.093	0.105
-302.807	-111.526	-0.113	0.023
-301.793	209.512	-0.041	-0.063
-300.778	800.000	0.057	-0.243
-299.764	-200.000	0.014	-0.141
-298.749	88.451	-0.173	0.190
-297.735	-125.385	0.044	-0.007
-296.720	202.038	0.163	0.249
-295.705	-96.088	-0.118	0.031
-294.691	-31.362	0.283	-0.158
-293.676	-134.361	-0.186	-0.023
-292.662	800.000	-0.083	0.272
-291.647	800.000	0.106	0.405
-290.632	-30.623	0.085	0.048
-289.618	-50.321	0.241	-0.113
-288.603	380.422	0.082	-0.167
-287.589	-171.512	-0.221	0.007
-286.574	49.351	0.130	-0.121
-285.559	800.000	-0.070	-0.279
-284.545	721.150	-0.121	0.319
-283.530	83.343	0.070	0.076
-282.516	289.275	0.165	0.297
-281.501	-91.307	-0.226	-0.064
-280.486	-60.064	-0.161	0.068
-279.472	-200.000	0.021	-0.237
-278.457	-200.000	0.049	-0.285
-277.443	-43.843	0.288	0.143
-276.428	-38.849	-0.227	-0.119
-275.413	-74.974	-0.174	-0.062
-274.399	236.833	0.097	0.158
-273.384	-11.218	-0.204	-0.133
-272.370	204.435	-0.134	-0.206
-271.355	105.316	-0.024	-0.027
-270.340	204.027	-0.061	0.093
-269.326	35.844	0.420	-0.365
-268.311	-43.589	-0.152	-0.076
-267.297	-94.452	-0.146	0.039
-266.282	-122.432	-0.077	-0.012
-265.267	-78.747	-0.220	0.074
-264.253	800.000	-0.086	-0.312
-263.238	800.000	-0.064	0.205
-262.224	-106.080	0.076	-0.017
-261.209	-200.000	0.071	0.363
-260.195	-124.512	0.359	-0.055
-259.180	-5.256	-0.181	-0.123
-258.165	-84.361	0.437	0.137
-257.151	-151.481	0.302	-0.022
-256.136	-129.631	-0.090	0.012
-255.122	70.861	0.076	-0.078
-254.107	143.877	0.076	-0.101
-253.092	-91.986	-0.256	-0.072
-252.078	800.000	0.012	-0.039
-251.063	333.358	-0.084	0.161
-250.049	-119.884	-0.402	-0.068
-249.034	104.342	0.163	0.190
-248.019	-200.000	-0.064	-0.407
-247.005	-200.000	-0.011	-0.270
-245.990	-126.949	0.110	0.016
-244.976	-42.572	0.345	-0.174
-243.961	-24.707	0.118	-0.069
-242.946	35.877	0.229	-0.200
-241.932	-106.980	-0.151	0.033
-240.917	-158.518	0.210	0.012
-239.903	-41.135	0.004	0.002
-238.888	-135.376	-0.290	0.034
-237.873	-200.000	-0.012	-0.126
-236.859	800.000	0.051	-0.142
-235.844	302.409	0.078	0.143
-234.830	800.000	0.042	0.164
-233.815	-10.221	-0.304	0.199
-232.800	800.000	-0.075	0.235
-231.786	800.000	0.059	-0.162
-230.771	20.210	-0.181	-0.144
-229.757	167.375	-0.299	-0.420
-228.742	-200.000	-0.013	-0.316
-227.727	-200.000	-0.064	0.413
-226.713	800.000	0.083	-0.267
-225.698	-64.148	-0.127	0.051
-224.684	78.504	0.230	0.243
-223.669	54.829	0.118	-0.112
-222.655	169.292	0.030	-0.043
-221.640	-200.000	-0.011	-0.132
-220.625	-34.993	-0.184	-0.099
-219.611	-36.443	-0.129	0.068
-218.596	7.739	-0.038	0.028
-217.582	-52.235	0.347	-0.159
-216.567	-200.000	-0.051	0.236
-215.552	-98.738	0.265	0.067
-214.538	-200.000	-0.036	0.278
-213.523	-200.000	-0.021	0.144
-212.509	-149.144	0.145	-0.011
-211.494	-58.236	-0.226	-0.097
-210.479	-130.894	0.334	-0.044
-209.465	-117.624	0.151	0.027
-208.450	40.586	0.150	-0.133
-207.436	461.100	0.040	-0.088
-206.421	-200.000	-0.018	-0.198
-205.406	-200.000	0.052	-0.250
-204.392	-200.000	-0.066	0.407
-203.377	-200.000	-0.016	-0.125
-202.363	205.263	0.035	-0.053
-201.348	-200.000	-0.014	0.246
-200.333	-101.791	-0.201	-0.048
-199.319	345.169	0.105	-0.204
-198.304	77.663	0.202	0.212
-197.290	17.876	-0.291	0.228
-196.275	-200.000	-0.003	0.277
-195.260	98.582	-0.202	0.230
-194.246	800.000	-0.087	0.292
-193.231	217.966	0.120	-0.188
-192.217	-105.151	0.138	0.031
-191.202	408.715	0.080	-0.166
-190.187	-61.349	-0.269	-0.112
-189.173	85.107	0.268	-0.290
-188.158	800.000	0.035	-0.106
-187.144	800.000	0.050	0.141
-186.129	800.000	0.128	0.517
-185.114	31.586	0.080	0.068
-184.100	-200.000	-0.093	-0.000
-183.085	278.002	-0.084	0.148
-182.071	800.000	-0.018	-0.060
-181.056	-62.028	-0.379	0.156
-180.042	-66.087	-0.159	0.062
-179.027	-161.912	-0.339	-0.017
-178.012	-74.541	-0.096	0.034
-176.998	135.561	0.176	-0.226
-175.983	-44.102	-0.144	0.071
-174.969	90.704	0.112	-0.124
-173.954	-128.564	0.071	-0.010
-172.939	800.000	-0.091	-0.255
-171.925	-200.000	0.070	0.402
-170.910	-152.536	0.167	0.012
-169.896	330.226	0.173	-0.329
-168.881	166.162	0.078	-0.108
-167.866	-8.946	-0.132	0.087
-166.852	800.000	-0.013	0.042
-165.837	-164.472	-0.072	0.003
-164.823	-51.420	-0.179	-0.082
-163.808	-200.000	-0.028	-0.134
-162.793	371.225	0.091	0.181
-161.779	-131.474	-0.047	0.006
-160.764	-200.000	0.005	-0.064
-159.750	-88.990	-0.431	-0.126
-158.735	800.000	0.032	0.130
-157.720	800.000	0.083	-0.304
-156.706	-15.785	-0.149	0.093
-155.691	800.000	0.035	0.109
-154.677	-69.464	0.228	-0.086
-153.662	-200.000	0.005	-0.280
-152.647	572.530	0.057	0.138
-151.633	-42.598	0.120	-0.060
-150.618	-86.583	0.272	0.082
-149.604	-41.987	-0.308	0.155
-148.589	108.485	-0.080	-0.094
-147.574	-174.898	-0.263	0.007
-146.560	209.346	-0.143	0.221
-145.545	-128.395	0.334	0.047
-144.531	102.212	0.164	0.189
-143.516	93.945	-0.105	0.117
-142.502	-93.049	0.109	0.030
-141.487	-82.040	-0.059	-0.019
-140.472	-200.000	0.069	0.330
-139.458	-200.000	-0.006	0.061
-138.443	37.609	0.097	0.085
-137.429	-200.000	-0.061	-0.279
-136.414	127.471	0.118	-0.148
-135.399	800.000	0.072	0.246
-134.385	-152.615	0.292	0.021
-133.370	298.472	0.017	0.030
-132.356	51.348	0.271	-0.253
-131.341	-59.682	-0.256	-0.108
-130.326	635.028	-0.163	-0.406
-129.312	-170.032	-0.199	0.007
-128.297	800.000	-0.039	-0.145
-127.283	28.217	-0.215	-0.178
-126.268	-200.000	-0.005	-0.041
-125.253	-150.270	-0.262	-0.020
-124.239	-58.038	0.115	-0.049
-123.224	4.143	-0.211	-0.152
-122.210	-200.000	-0.010	0.382
-121.195	185.910	-0.115	-0.168
-120.180	355.872	-0.085	-0.166
-119.166	280.044	-0.037	-0.064
-118.151	159.058	-0.048	-0.065
-117.137	104.873	-0.313	-0.363
-116.122	-1.626	0.168	-0.116
-115.107	-81.762	-0.173	-0.056
-114.093	-64.056	0.247	-0.099
-113.078	-162.342	-0.136	0.007
-112.064	-150.631	-0.114	-0.009
-111.049	-153.554	0.102	0.007
-110.034	-200.000	-0.052	0.246
-109.020	307.216	0.172	0.314
-108.005	364.815	0.229	0.452
-106.991	-123.890	0.368	0.057
-105.976	459.292	-0.015	0.033
-104.962	-200.000	0.009	0.083
-103.947	243.969	0.029	0.048
-102.932	-34.495	-0.055	-0.030
-101.918	-200.000	0.039	0.406
-100.903	-200.000	-0.007	0.128
-99.889	123.411	0.238	-0.293
-98.874	800.000	-0.039	-0.161
-97.859	-81.117	0.355	0.115
-96.845	-55.671	-0.577	0.254
-95.830	149.812	0.104	-0.138
-94.816	-97.282	0.353	0.090
-93.801	-200.000	-0.014	-0.122
-92.786	-200.000	-0.012	0.081
-91.772	262.999	-0.240	0.410
-90.757	12.675	-0.142	0.108
-89.743	-74.798	-0.156	0.055
-88.728	-200.000	-0.004	0.034
-87.713	476.266	0.098	0.218
-86.699	67.572	-0.031	-0.031
-85.684	99.344	-0.260	0.295
-84.670	800.000	0.055	0.180
-83.655	182.284	0.139	0.201
-82.640	-74.457	-0.178	0.063
-81.626	303.944	-0.068	0.123
-80.611	-191.150	-0.350	0.004
-79.597	-25.596	0.277	-0.161
-78.582	-200.000	0.033	0.298
-77.567	-200.000	0.009	0.215
-76.553	-200.000	-0.011	0.239
-75.538	-200.000	0.016	-0.140
-74.524	40.719	0.116	0.103
-73.509	-200.000	0.063	0.304
-72.494	-47.429	-0.143	-0.068
-71.480	-200.000	0.016	-0.100
-70.465	800.000	-0.029	0.096
-69.451	-200.000	-0.098	-0.455
-68.436	800.000	-0.122	0.489
-67.422	-200.000	-0.022	0.120
-66.407	-86.419	-0.042	0.013
-65.392	16.075	0.081	-0.063
-64.378	27.747	0.314	-0.259
-63.363	-79.599	0.127	0.042
-62.349	25.729	0.228	0.186
-61.334	60.237	-1.123	-1.091
-60.319	86.175	0.577	0.623
-59.305	731.064	0.349	-0.917
-58.290	800.000	0.350	1.245
-57.276	646.171	0.565	1.417
-56.261	-200.000	96.208	605.584
-55.246	570.625	1365.420	3260.825
-54.232	162.471	2548.475	3507.702
-53.217	107.186	2262.441	2638.711
-52.203	41.424	1891.769	1679.625
-51.188	35.254	1682.164	1447.073
-50.173	32.628	1638.152	1389.820
-49.159	50.120	1684.841	1560.560
-48.144	51.758	1700.927	1587.640
-47.130	34.927	1661.863	1426.942
-46.115	32.169	1647.896	1394.457
-45.100	32.001	1642.593	1388.673
-44.086	31.922	1639.947	1385.800
-43.071	31.900	1637.589	1383.590
-42.057	31.935	1634.988	1381.595
-41.042	31.872	1633.222	1379.578
-40.027	31.870	1631.193	1377.800
-39.013	31.832	1629.636	1376.151
-37.998	31.841	1628.248	1374.990
-36.984	31.878	1626.538	1373.758
-35.969	31.990	1625.423	1373.588
-34.954	31.924	1623.449	1371.376
-33.940	31.962	1621.679	1370.112
-32.925	31.846	1620.616	1368.307
-31.911	31.906	1618.312	1366.745
-30.896	31.981	1616.358	1365.590
-29.881	31.957	1614.855	1364.092
-28.867	31.948	1613.220	1362.588
-27.852	32.020	1611.324	1361.452
-26.838	32.013	1610.061	1360.283
-25.823	31.973	1608.502	1358.622
-24.809	31.991	1607.383	1357.750
-23.794	31.939	1606.011	1356.166
-22.779	32.079	1603.971	1355.400
-21.765	32.110	1602.800	1354.581
-20.750	31.872	1601.940	1352.087
-19.736	32.041	1599.599	1351.269
-18.721	32.027	1598.777	1350.419
-17.706	32.045	1596.591	1348.652
-16.692	32.045	1595.140	1347.372
-15.677	31.962	1594.396	1346.096
-14.663	32.023	1593.330	1345.581
-13.648	32.062	1591.553	1344.305
-12.633	32.059	1589.953	1342.874
-11.619	32.045	1588.468	1341.473
-10.604	32.045	1586.788	1339.995
-9.590	32.019	1585.349	1338.541
-8.575	32.093	1583.904	1337.799
-7.560	32.035	1583.312	1336.832
-6.546	32.095	1582.194	1336.261
-5.531	32.067	1580.905	1334.919
-4.517	32.042	1579.921	1333.862
-3.502	31.868	1579.262	1332.014
-2.487	32.010	1577.517	1331.495
-1.473	31.675	1565.193	1318.688
-0.458	29.075	1545.985	1284.336
0.556	26.548	1547.899	1257.895
1.571	24.915	1572.385	1266.142
2.586	24.638	1586.677	1275.565
3.600	22.070	1532.951	1214.531
4.615	12.792	1421.635	1066.459
5.629	4.064	1355.610	962.774
6.644	2.311	1347.404	946.022
7.659	2.158	1346.632	944.448
8.673	2.238	1344.938	943.671
9.688	2.093	1342.896	941.264
10.702	1.989	1340.196	938.646
11.717	5.591	1347.299	965.786
12.731	15.824	1366.436	1043.144
13.746	24.219	1381.166	1106.666
14.761	26.421	1383.806	1122.369
15.775	26.721	1383.739	1124.072
16.790	26.790	1383.399	1124.126
17.804	26.901	1382.622	1124.084
18.819	27.193	1382.399	1125.612
19.834	27.278	1381.545	1125.342
20.848	27.355	1380.736	1125.058
21.863	27.257	1379.777	1123.572
22.877	27.222	1379.050	1122.663
23.892	27.293	1378.585	1122.627
24.907	27.301	1377.587	1121.764
25.921	27.303	1376.662	1120.923
26.936	27.173	1376.084	1119.553
27.950	27.213	1375.293	1119.054
28.965	27.211	1373.889	1117.800
29.980	27.174	1372.254	1116.143
30.994	27.257	1370.933	1115.484
32.009	27.308	1369.710	1114.698
33.023	27.354	1368.068	1113.549
34.038	27.272	1367.760	1112.695
35.053	27.197	1366.789	1111.348
36.067	27.355	1365.472	1111.147
37.082	27.176	1365.160	1109.698
38.096	27.184	1364.130	1108.811
39.111	27.252	1363.120	1108.306
40.126	27.280	1362.422	1107.814
41.140	27.279	1362.071	1107.427
42.155	27.199	1361.416	1106.307
43.169	27.179	1361.746	1106.357
44.184	27.211	1361.416	1106.185
45.199	27.118	1361.261	1105.396
46.213	27.266	1360.302	1105.417
47.228	27.259	1359.689	1104.778
48.242	27.331	1357.988	1103.734
49.257	27.252	1356.849	1102.235
50.271	27.298	1355.350	1101.196
51.286	27.260	1353.544	1099.402
52.301	27.173	1353.646	1098.860
53.315	27.125	1351.670	1096.873
54.330	27.233	1350.953	1096.841
55.344	27.152	1350.210	1095.657
56.359	27.287	1348.637	1095.095
57.374	27.113	1348.968	1094.216
58.388	27.295	1347.619	1094.124
59.403	27.310	1347.838	1094.297
60.417	27.261	1346.785	1093.048
61.432	27.247	1345.959	1092.194
62.447	27.339	1344.608	1091.553
63.461	27.200	1344.255	1090.335
64.476	27.112	1343.783	1089.332
65.490	27.228	1341.648	1088.196
66.505	27.267	1340.395	1087.318
67.520	27.264	1339.617	1086.574
68.534	27.338	1338.182	1085.754
69.549	27.250	1337.569	1084.640
70.563	27.278	1336.647	1083.961
71.578	27.396	1335.296	1083.473
72.593	27.237	1334.954	1082.154
73.607	27.392	1333.763	1082.015
74.622	27.375	1333.191	1081.350
75.636	27.270	1332.671	1080.211
76.651	27.190	1332.123	1079.196
77.666	27.168	1331.882	1078.775
78.680	27.255	1330.798	1078.318
79.695	27.287	1330.129	1077.871
80.709	27.319	1329.327	1077.310
81.724	27.193	1328.691	1075.957
82.739	27.210	1327.581	1075.065
83.753	27.275	1326.339	1074.346
84.768	27.238	1325.842	1073.630
85.782	27.307	1324.551	1072.896
86.797	27.355	1323.184	1071.978
87.812	27.243	1322.329	1070.528
88.826	27.300	1321.036	1069.727
89.841	27.392	1319.975	1069.312
90.855	27.297	1319.123	1067.972
91.870	27.437	1318.282	1068.012
92.884	27.448	1317.658	1067.477
93.899	27.293	1317.489	1066.338
94.914	27.313	1316.051	1065.197
95.928	27.366	1315.358	1064.852
96.943	27.259	1314.797	1063.678
97.957	27.425	1313.802	1063.747
98.972	27.362	1313.219	1062.816
99.987	27.366	1312.011	1061.769
101.001	27.373	1311.156	1061.021
102.016	27.341	1310.402	1060.132
103.030	27.351	1309.602	1059.450
104.045	27.303	1308.519	1058.200
105.060	27.340	1307.977	1057.885
106.074	27.421	1306.858	1057.353
107.089	27.395	1305.629	1056.117
108.103	27.327	1305.138	1055.230
109.118	27.341	1303.559	1053.943
110.133	27.378	1302.659	1053.334
111.147	27.356	1301.679	1052.322
112.162	27.416	1300.249	1051.419
113.176	27.518	1299.491	1051.300
114.191	27.361	1298.793	1049.737
115.206	27.396	1297.371	1048.699
116.220	27.438	1296.018	1047.752
117.235	27.431	1295.338	1047.074
118.249	27.408	1294.721	1046.347
119.264	27.408	1293.733	1045.458
120.279	27.556	1292.613	1045.308
121.293	27.477	1292.339	1044.541
122.308	27.500	1291.279	1043.723
123.322	27.414	1291.202	1043.078
124.337	27.397	1290.084	1041.982
125.352	27.415	1289.229	1041.305
126.366	27.542	1288.329	1041.212
127.381	27.454	1287.445	1039.901
128.395	27.568	1286.043	1039.324
129.410	27.498	1285.772	1038.620
130.424	27.383	1284.993	1037.243
131.439	27.519	1284.179	1037.263
132.454	27.410	1283.344	1035.879
133.468	27.474	1282.740	1035.663
134.483	27.499	1282.054	1035.161
135.497	27.520	1281.160	1034.467
136.512	27.518	1279.934	1033.373
137.527	27.454	1278.976	1032.144
138.541	27.431	1277.649	1030.852
139.556	27.426	1276.838	1030.079
140.570	27.343	1276.271	1029.062
141.585	27.400	1275.043	1028.300
142.600	27.403	1273.850	1027.269
143.614	27.377	1273.229	1026.527
144.629	27.459	1271.614	1025.598
145.643	27.342	1271.171	1024.493
146.658	27.294	1270.138	1023.296
147.673	27.365	1269.091	1022.763
148.687	27.242	1268.669	1021.642
149.702	27.360	1267.225	1021.050
150.716	27.408	1265.881	1020.145
151.731	27.413	1264.782	1019.195
152.746	27.390	1263.930	1018.294
153.760	27.482	1262.622	1017.664
154.775	27.503	1261.720	1016.965
155.789	27.501	1260.971	1016.260
156.804	27.513	1260.006	1015.455
157.819	27.400	1259.639	1014.441
158.833	27.489	1258.857	1014.216
159.848	27.494	1257.773	1013.280
160.862	27.512	1257.391	1012.985
161.877	27.500	1256.290	1011.940
162.892	27.490	1255.473	1011.137
163.906	27.554	1255.111	1011.115
164.921	27.663	1254.057	1010.777
165.935	27.558	1253.277	1009.478
166.950	27.536	1252.951	1009.007
167.964	27.531	1252.534	1008.555
168.979	27.591	1251.585	1008.030
169.994	27.578	1251.071	1007.453
171.008	27.600	1250.396	1006.946
172.023	27.560	1249.843	1006.192
173.037	27.574	1248.964	1005.472
174.052	27.598	1248.221	1004.913
175.067	27.564	1247.496	1004.053
176.081	27.648	1246.247	1003.422
177.096	27.599	1245.889	1002.774
178.110	27.525	1244.961	1001.532
179.125	27.623	1244.080	1001.274
180.140	27.517	1242.849	999.617
181.154	27.620	1241.543	999.038
182.169	27.588	1240.783	998.166
183.183	27.708	1239.469	997.673
184.198	27.591	1238.384	996.077
185.213	27.569	1238.495	995.956
186.227	27.722	1236.845	995.376
187.242	27.623	1235.989	994.060
188.256	27.573	1235.616	993.400
189.271	27.670	1234.338	992.812
190.286	27.714	1233.760	992.500
191.300	27.616	1233.396	991.583
192.315	27.708	1232.888	991.589
193.329	27.602	1232.708	990.780
194.344	27.677	1231.773	990.346
195.359	27.548	1231.358	989.226
196.373	27.664	1230.896	989.395
197.388	27.526	1230.723	988.420
198.402	27.593	1230.284	988.346
199.417	27.660	1229.637	988.099
200.432	27.630	1229.157	987.464
201.446	27.703	1228.254	987.049
202.461	27.756	1227.477	986.620
203.475	27.752	1226.566	985.779
204.490	27.656	1225.602	984.399
205.504	27.743	1225.018	984.311
206.519	27.752	1224.242	983.650
207.534	27.809	1222.969	982.850
208.548	27.818	1222.347	982.309
209.563	27.661	1221.810	980.945
210.577	27.702	1220.996	980.426
211.592	27.773	1220.119	980.015
212.607	27.818	1219.442	979.631
213.621	27.837	1218.652	979.008
214.636	27.798	1217.741	977.980
215.650	27.805	1216.830	977.202
216.665	27.883	1215.718	976.637
217.680	27.875	1215.093	976.010
218.694	27.787	1214.484	974.963
219.709	27.794	1213.572	974.181
220.723	27.885	1213.104	974.204
221.738	27.804	1212.524	973.221
222.753	27.824	1211.336	972.286
223.767	27.777	1210.948	971.637
224.782	27.852	1210.841	971.869
225.796	27.968	1210.023	971.739
226.811	27.839	1209.814	970.801
227.826	28.009	1208.966	970.936
228.840	27.981	1208.101	970.009
229.855	27.932	1207.805	969.423
230.869	27.911	1207.186	968.732
231.884	27.929	1206.225	967.969
232.899	27.883	1205.394	966.974
233.913	27.967	1205.113	967.106
234.928	27.970	1204.338	966.417
235.942	28.060	1203.533	966.162
236.957	27.913	1203.411	965.201
237.972	27.952	1202.149	964.310
238.986	27.975	1201.872	964.121
240.001	27.999	1201.480	963.849
241.015	28.056	1200.452	963.238
242.030	28.079	1200.026	962.934
243.045	28.076	1198.930	961.955
244.059	27.971	1198.246	960.766
245.074	28.052	1197.418	960.442
246.088	28.097	1196.590	959.930
247.103	28.162	1195.934	959.658
248.117	28.029	1195.659	958.658
249.132	28.126	1194.509	958.159
250.147	28.194	1193.854	957.902
251.161	28.232	1192.610	957.020
252.176	28.097	1192.289	955.973
253.190	28.210	1191.599	955.923
254.205	28.199	1191.410	955.630
255.220	28.199	1190.656	954.942
256.234	28.234	1190.052	954.555
257.249	28.214	1189.474	953.901
258.263	28.205	1188.923	953.332
259.278	28.084	1188.663	952.406
260.293	28.125	1188.308	952.252
261.307	28.193	1187.545	951.909
262.322	28.238	1186.400	951.141
263.336	28.229	1185.794	950.524
264.351	28.197	1185.219	949.813
265.366	28.186	1184.555	949.138
266.380	28.244	1184.122	949.011
267.395	28.241	1183.220	948.187
268.409	28.198	1182.487	947.296
269.424	28.207	1182.075	946.927
270.439	28.137	1181.935	946.367
271.453	28.133	1181.411	945.845
272.468	28.207	1180.646	945.533
273.482	28.248	1179.704	944.904
274.497	28.270	1179.151	944.494
275.512	28.268	1179.040	944.310
276.526	28.216	1177.827	942.985
277.541	28.376	1177.113	943.152
278.555	28.441	1176.414	942.843
279.570	28.298	1175.945	941.652
280.585	28.338	1175.235	941.205
281.599	28.237	1174.350	939.895
282.614	28.332	1173.242	939.410
283.628	28.366	1172.669	939.043
284.643	28.449	1171.380	938.352
285.657	28.322	1170.863	937.204
286.672	28.398	1170.162	936.952
287.687	28.453	1169.200	936.379
288.701	28.467	1168.799	936.044
289.716	28.548	1167.788	935.567
290.730	28.410	1167.352	934.431
291.745	28.265	1167.385	933.636
292.760	28.453	1166.104	933.486
293.774	28.574	1165.444	933.488
294.789	28.637	1164.700	933.133
295.803	28.406	1165.042	932.146
296.818	28.422	1163.944	931.266
297.833	28.565	1163.173	931.298
298.847	28.613	1162.308	930.766
299.862	28.449	1161.623	929.301
300.876	28.480	1161.223	929.058
301.891	28.574	1160.664	929.003
302.906	28.572	1160.022	928.396
303.920	28.579	1159.438	927.880
304.935	28.701	1158.279	927.489
305.949	28.576	1158.059	926.601
306.964	28.566	1157.441	925.975
307.979	28.625	1156.630	925.540
308.993	28.677	1156.078	925.280
310.008	28.673	1155.724	924.891
311.022	28.711	1154.838	924.293
312.037	28.706	1153.655	923.240
313.052	28.620	1153.135	922.310
314.066	28.730	1152.101	921.956
315.081	28.599	1151.758	920.938
316.095	28.597	1151.315	920.496
317.110	28.761	1150.166	920.318
318.125	28.740	1149.453	919.559
319.139	28.728	1149.079	919.118
320.154	28.788	1148.607	918.959
321.168	28.838	1147.738	918.433
322.183	28.773	1147.319	917.692
323.197	28.782	1146.933	917.344
324.212	28.648	1146.512	916.259
325.227	28.712	1146.171	916.224
326.241	28.768	1145.226	915.667
327.256	28.744	1144.763	915.098
328.270	28.792	1143.882	914.552
329.285	28.799	1143.061	913.850
330.300	28.805	1142.176	913.091
331.314	28.833	1141.278	912.430
332.329	28.686	1140.893	911.314
333.343	28.844	1139.877	911.204
334.358	28.956	1138.849	910.858
335.373	29.024	1138.117	910.527
336.387	28.971	1137.959	910.056
337.402	28.951	1136.847	908.986
338.416	28.957	1136.593	908.736
339.431	28.984	1135.995	908.308
340.446	29.106	1134.758	907.842
341.460	29.063	1134.647	907.457
342.475	29.067	1133.841	906.756
343.489	28.872	1133.302	905.281
344.504	28.901	1132.558	904.752
345.519	28.894	1131.992	904.184
346.533	28.957	1131.044	903.655
347.548	28.994	1130.171	903.063
348.562	29.106	1129.098	902.673
349.577	29.034	1128.522	901.781
350.592	29.075	1127.977	901.468
351.606	28.998	1127.230	900.414
352.621	29.004	1126.710	899.945
353.635	29.135	1126.212	900.112
354.650	29.157	1125.388	899.478
355.665	29.067	1125.207	898.813
356.679	29.163	1124.427	898.580
357.694	29.143	1123.500	897.661
358.708	29.134	1122.978	897.121
359.723	29.240	1121.995	896.772
360.738	29.116	1121.783	895.920
361.752	29.186	1120.947	895.516
362.767	29.151	1120.500	894.907
363.781	29.255	1120.205	895.098
364.796	29.281	1119.515	894.595
365.810	29.235	1119.244	894.076
366.825	29.274	1118.735	893.779
367.840	29.250	1118.126	893.098
368.854	29.310	1117.222	892.586
369.869	29.214	1116.900	891.784
370.883	29.269	1116.029	891.276
371.898	29.338	1115.047	890.748
372.913	29.380	1114.666	890.568
373.927	29.344	1114.200	889.944
374.942	29.403	1114.033	890.016
375.956	29.366	1112.891	888.846
376.971	29.371	1112.530	888.503
377.986	29.351	1111.990	887.898
379.000	29.486	1111.597	888.152
380.015	29.439	1111.156	887.496
381.029	29.448	1110.116	886.632
382.044	29.486	1109.213	886.013
383.059	29.492	1108.699	885.555
384.073	29.527	1108.100	885.164
385.088	29.426	1107.604	884.203
386.102	29.511	1106.606	883.735
387.117	29.489	1105.654	882.794
388.132	29.389	1105.184	881.861
389.146	29.509	1104.275	881.633
390.161	29.632	1103.535	881.551
391.175	29.486	1102.963	880.317
392.190	29.513	1102.451	879.963
393.205	29.632	1101.725	879.872
394.219	29.532	1100.992	878.734
395.234	29.699	1099.872	878.553
396.248	29.697	1099.251	877.971
397.263	29.644	1098.631	877.143
398.278	29.683	1098.180	876.893
399.292	29.822	1097.047	876.571
400.307	29.625	1096.791	875.356
401.321	29.624	1096.720	875.217
402.336	29.612	1095.857	874.393
403.350	29.744	1094.904	874.178
404.365	29.667	1094.301	873.257
405.380	29.703	1093.713	872.881
406.394	29.811	1092.603	872.427
407.409	29.768	1092.381	871.971
408.423	29.840	1091.511	871.534
409.438	29.804	1090.905	870.805
410.453	29.791	1090.106	870.029
411.467	29.882	1089.583	869.962
412.482	29.792	1088.878	868.901
413.496	29.871	1088.057	868.541
414.511	29.941	1087.656	868.471
415.526	29.820	1087.376	867.602
416.540	29.856	1086.945	867.350
417.555	29.767	1086.655	866.627
418.569	29.865	1086.045	866.521
419.584	30.022	1085.211	866.516
420.599	30.075	1084.558	866.162
421.613	104.776	1322.747	1459.705
422.628	97.524	1357.403	1459.827
