DTS Sentinel unit serial number:	SN413079Multiplexer serial number:	ORYXHardware model number:	OX4-SRSoftware version number:	ORYX F/W v4.00 Oryx Data Collector v3.7.2.0data status	okinstallation	princeton_trtdifferential loss correction	single-endedforward channel	channel 2reverse channel	N/Adate	2019/09/18time	02:31:35forward acquisition time	60.00reverse acquisition time	0.00gamma	496.2192k internal	0.2350k external	0.2350temperature offset calibration	0.9983default loss term (dB/km)	0.3790temperature slope calibration	1.0000multiplexer offset coefficient	1.0000multiplexer slope coefficient	1.0000fibre end	0.00T internal ref (°C)	22.81T ext. ref 1 (°C)	0.16T ext. ref 2 (°C)	16.80length (m)	temperature (°C)	Stokes	anti-Stokes-747.200	29.446	-0.078	0.066
-746.185	-105.852	0.421	-0.095
-745.171	-9.977	0.133	0.088
-744.156	191.431	-0.100	0.151
-743.142	-74.570	0.281	-0.101
-742.127	73.896	-0.369	0.386
-741.112	800.000	-0.108	-0.361
-740.098	464.072	-0.100	0.223
-739.083	14.430	-0.055	-0.043
-738.069	125.117	-0.325	0.409
-737.054	-24.939	-0.135	-0.080
-736.039	500.766	-0.155	-0.357
-735.025	800.000	-0.090	0.375
-734.010	104.014	0.356	0.417
-732.996	-200.000	0.019	0.166
-731.981	800.000	-0.087	-0.300
-730.966	-45.349	-0.153	0.076
-729.952	61.252	-0.111	0.110
-728.937	487.472	-0.151	-0.343
-727.923	-106.123	-0.063	0.014
-726.908	-121.162	0.207	0.035
-725.894	-50.739	-0.142	0.067
-724.879	-21.602	0.313	0.190
-723.864	37.320	-0.200	0.177
-722.850	-200.000	0.020	0.127
-721.835	185.614	-0.120	0.178
-720.821	-200.000	0.023	0.193
-719.806	-200.000	0.006	-0.246
-718.791	-156.554	-0.056	0.003
-717.777	-82.457	-0.152	-0.049
-716.762	-103.549	0.327	0.077
-715.748	124.032	0.076	-0.095
-714.733	-72.864	0.141	-0.052
-713.718	-20.343	-0.134	0.082
-712.704	193.124	-0.185	0.279
-711.689	-28.203	-0.176	-0.102
-710.675	800.000	-0.089	-0.353
-709.660	-105.332	-0.198	0.045
-708.645	800.000	0.035	0.101
-707.631	163.256	-0.118	0.166
-706.616	112.170	-0.041	0.049
-705.602	708.516	-0.044	-0.116
-704.587	-7.482	0.127	0.086
-703.572	80.212	-0.175	0.188
-702.558	15.407	0.159	0.124
-701.543	-72.819	-0.238	-0.087
-700.529	315.550	0.096	0.180
-699.514	2.356	-0.057	0.041
-698.499	-23.417	0.176	-0.105
-697.485	-200.000	-0.008	0.053
-696.470	94.556	0.143	0.162
-695.456	182.068	-0.252	-0.369
-694.441	383.074	0.225	0.462
-693.426	-200.000	0.029	0.194
-692.412	-161.382	0.333	0.017
-691.397	-147.047	-0.406	0.035
-690.383	-100.908	0.167	0.041
-689.368	630.516	0.088	0.222
-688.354	357.086	-0.130	0.258
-687.339	-200.000	0.099	0.500
-686.324	-200.000	0.005	0.103
-685.310	-62.613	0.226	-0.093
-684.295	-200.000	0.011	0.171
-683.281	-85.002	0.077	-0.024
-682.266	-14.433	0.250	0.160
-681.251	134.800	0.125	-0.161
-680.237	431.181	-0.084	-0.181
-679.222	483.849	-0.116	-0.263
-678.208	-26.793	0.060	0.035
-677.193	247.626	-0.092	0.154
-676.178	-200.000	-0.012	-0.214
-675.164	188.805	0.033	-0.050
-674.149	148.578	0.017	0.023
-673.135	-182.237	-0.209	0.004
-672.120	-200.000	0.001	0.252
-671.105	388.231	-0.220	-0.453
-670.091	60.520	0.107	-0.105
-669.076	-110.758	-0.221	0.045
-668.062	168.278	0.191	0.270
-667.047	-200.000	-0.031	-0.226
-666.032	800.000	-0.016	0.059
-665.018	-75.002	0.116	0.041
-664.003	-200.000	0.048	-0.226
-662.989	-37.625	-0.009	0.005
-661.974	-200.000	-0.002	-0.125
-660.959	-98.681	0.204	0.052
-659.945	205.850	-0.181	0.280
-658.930	-200.000	-0.031	0.140
-657.916	493.377	0.043	-0.097
-656.901	109.755	0.097	-0.115
-655.886	-126.999	-0.189	0.028
-654.872	-200.000	-0.032	0.150
-653.857	-67.290	0.073	0.029
-652.843	269.687	-0.135	-0.235
-651.828	-132.310	-0.384	0.049
-650.814	-82.495	-0.156	-0.050
-649.799	-182.936	-0.071	0.001
-648.784	800.000	-0.029	-0.124
-647.770	-112.337	-0.226	0.045
-646.755	221.933	-0.293	-0.468
-645.741	-200.000	0.026	-0.182
-644.726	-200.000	-0.012	-0.127
-643.711	159.112	0.172	0.238
-642.697	107.865	0.070	-0.082
-641.682	-170.460	0.126	0.004
-640.668	453.841	0.121	-0.266
-639.653	-200.000	-0.021	-0.267
-638.638	135.161	-0.176	0.227
-637.624	227.480	-0.031	-0.050
-636.609	205.244	0.117	0.181
-635.595	-115.559	0.137	-0.026
-634.580	-160.195	0.317	0.017
-633.565	194.388	0.076	0.115
-632.551	320.388	-0.057	0.107
-631.536	800.000	-0.032	0.104
-630.522	117.304	-0.137	0.167
-629.507	-200.000	-0.043	0.267
-628.492	-46.562	-0.093	-0.046
-627.478	-200.000	-0.018	0.289
-626.463	232.846	-0.134	0.218
-625.449	-200.000	0.002	0.035
-624.434	159.635	-0.036	-0.049
-623.419	510.788	-0.045	0.104
-622.405	-64.073	0.159	0.064
-621.390	32.018	-0.103	-0.088
-620.376	-104.984	0.015	-0.003
-619.361	-75.863	-0.336	0.118
-618.346	155.563	0.061	0.084
-617.332	800.000	-0.026	-0.083
-616.317	16.875	-0.200	-0.157
-615.303	-7.459	0.229	0.154
-614.288	-136.870	-0.066	-0.008
-613.273	-121.876	0.329	0.054
-612.259	800.000	0.086	-0.318
-611.244	-9.402	-0.212	-0.140
-610.230	-153.360	-0.365	0.025
-609.215	383.173	-0.124	0.253
-608.201	130.514	-0.128	-0.163
-607.186	-115.829	-0.102	-0.019
-606.171	-34.286	-0.221	-0.121
-605.157	-38.024	-0.133	0.070
-604.142	208.672	0.052	0.080
-603.128	52.500	-0.179	-0.170
-602.113	-200.000	-0.003	-0.351
-601.098	-61.374	-0.228	0.095
-600.084	160.623	0.091	0.126
-599.069	-200.000	0.042	-0.276
-598.055	-200.000	-0.001	-0.133
-597.040	800.000	0.101	-0.347
-596.025	-115.731	0.065	0.012
-595.011	800.000	-0.014	0.058
-593.996	799.503	-0.079	0.215
-592.982	-200.000	0.070	-0.488
-591.967	-200.000	0.045	0.270
-590.952	-200.000	-0.031	-0.150
-589.938	-75.090	0.176	-0.063
-588.923	-50.597	0.068	0.032
-587.909	435.537	-0.235	-0.506
-586.894	-26.927	0.173	0.100
-585.879	613.910	-0.096	0.239
-584.865	652.233	0.114	-0.289
-583.850	-68.325	0.152	0.059
-582.836	800.000	-0.080	-0.282
-581.821	117.379	0.028	0.034
-580.806	-66.214	0.086	-0.034
-579.792	109.089	-0.077	-0.091
-578.777	-70.558	0.166	0.062
-577.763	-200.000	-0.017	0.180
-576.748	-19.402	0.215	0.133
-575.733	474.640	-0.065	0.145
-574.719	-134.572	0.062	-0.007
-573.704	165.955	0.172	-0.241
-572.690	800.000	-0.138	0.529
-571.675	513.294	-0.034	0.079
-570.661	612.561	0.077	-0.190
-569.646	228.871	0.141	-0.229
-568.631	247.995	-0.181	0.304
-567.617	484.306	-0.024	0.053
-566.602	-126.537	0.176	0.026
-565.588	510.729	0.120	0.277
-564.573	153.906	0.182	-0.248
-563.558	-115.024	-0.291	-0.055
-562.544	48.617	0.262	0.243
-561.529	800.000	-0.019	-0.056
-560.515	-200.000	0.022	-0.113
-559.500	-200.000	0.006	0.183
-558.485	137.520	0.028	-0.036
-557.471	-200.000	0.001	0.172
-556.456	-82.292	0.110	0.035
-555.442	800.000	-0.041	-0.152
-554.427	461.403	0.189	-0.418
-553.412	-200.000	-0.001	0.641
-552.398	-200.000	-0.024	0.354
-551.383	185.357	0.161	0.237
-550.369	137.610	-0.056	-0.073
-549.354	-42.939	-0.094	0.047
-548.339	-200.000	-0.013	-0.167
-547.325	340.233	0.079	0.152
-546.310	131.621	0.120	-0.153
-545.296	-38.313	-0.228	0.120
-544.281	-100.458	-0.231	-0.057
-543.266	-200.000	-0.004	-0.033
-542.252	202.914	0.039	0.060
-541.237	-29.154	0.240	0.136
-540.223	-200.000	0.046	0.293
-539.208	203.421	-0.044	-0.067
-538.193	-200.000	0.036	0.241
-537.179	-10.099	-0.156	-0.102
-536.164	-200.000	-0.001	0.043
-535.150	352.687	0.120	0.236
-534.135	-66.044	-0.294	0.116
-533.121	-122.472	-0.385	0.062
-532.106	-105.918	0.256	0.057
-531.091	-49.562	0.055	0.026
-530.077	-200.000	0.045	-0.382
-529.062	-44.089	0.206	0.102
-528.048	-66.610	0.093	0.036
-527.033	40.335	0.159	0.142
-526.018	-23.257	0.180	-0.107
-525.004	20.347	0.117	-0.094
-523.989	800.000	-0.092	-0.347
-522.975	237.427	-0.091	-0.149
-521.960	-79.356	-0.445	0.149
-520.945	26.626	-0.219	-0.182
-519.931	138.600	0.178	-0.231
-518.916	-200.000	0.020	-0.361
-517.902	107.035	-0.102	-0.119
-516.887	273.776	0.113	-0.198
-515.872	800.000	-0.033	0.113
-514.858	-71.604	-0.075	0.028
-513.843	105.592	0.122	-0.143
-512.829	8.473	-0.015	0.011
-511.814	-200.000	-0.214	-0.000
-510.799	54.272	-0.135	0.129
-509.785	7.936	-0.241	0.179
-508.770	399.253	-0.176	-0.365
-507.756	800.000	0.110	-0.342
-506.741	281.490	0.240	-0.426
-505.726	-20.614	0.312	-0.190
-504.712	-168.855	0.256	0.010
-503.697	196.067	-0.146	-0.220
-502.683	-200.000	-0.024	-0.152
-501.668	77.979	-0.085	0.090
-500.653	75.158	0.024	0.025
-499.639	-16.696	0.240	0.150
-498.624	-118.852	0.127	0.022
-497.610	424.239	0.058	0.123
-496.595	-102.089	-0.191	0.046
-495.581	-58.527	-0.390	-0.167
-494.566	-26.447	-0.053	-0.031
-493.551	-118.478	0.151	0.027
-492.537	-165.908	-0.148	0.006
-491.522	800.000	0.054	-0.157
-490.508	-74.030	0.141	-0.050
-489.493	133.626	-0.079	0.102
-488.478	-200.000	-0.032	0.241
-487.464	-200.000	-0.038	-0.208
-486.449	300.424	0.162	0.296
-485.435	-200.000	-0.011	0.095
-484.420	-121.696	-0.061	0.010
-483.405	488.581	0.097	-0.219
-482.391	-152.456	-0.230	0.016
-481.376	800.000	0.029	-0.102
-480.362	85.742	0.089	-0.096
-479.347	-200.000	-0.006	0.217
-478.332	800.000	0.013	0.038
-477.318	-150.284	-0.260	-0.020
-476.303	-200.000	-0.027	-0.127
-475.289	-134.124	0.105	-0.013
-474.274	472.779	0.113	-0.252
-473.259	45.547	-0.077	0.071
-472.245	-110.685	-0.273	-0.056
-471.230	179.711	0.096	0.139
-470.216	-75.304	-0.385	-0.136
-469.201	26.168	-0.097	0.080
-468.186	-127.603	0.255	-0.036
-467.172	-90.321	0.118	0.034
-466.157	-200.000	0.022	-0.246
-465.143	-9.111	-0.333	-0.220
-464.128	-200.000	0.047	-0.277
-463.113	-114.746	0.219	0.041
-462.099	800.000	0.052	0.165
-461.084	-200.000	-0.004	-0.095
-460.070	278.804	-0.086	0.151
-459.055	-76.647	-0.136	0.047
-458.040	57.129	-0.222	0.213
-457.026	-190.367	-0.393	0.004
-456.011	3.138	-0.072	0.052
-454.997	146.917	0.101	-0.135
-453.982	-200.000	0.029	0.223
-452.968	574.186	0.080	-0.193
-451.953	-81.254	0.163	0.053
-450.938	-200.000	0.036	0.202
-449.924	-29.787	-0.078	0.044
-448.909	-114.244	0.210	0.040
-447.895	44.821	0.402	0.366
-446.880	238.937	-0.086	0.140
-445.865	175.075	-0.128	-0.183
-444.851	721.128	-0.085	0.223
-443.836	-42.515	-0.176	0.089
-442.822	800.000	0.095	-0.309
-441.807	-170.534	-0.213	0.007
-440.792	464.229	0.092	-0.203
-439.778	-63.400	0.187	-0.076
-438.763	800.000	0.118	0.390
-437.749	-108.848	-0.037	-0.008
-436.734	27.911	0.121	0.100
-435.719	-96.682	0.146	-0.038
-434.705	-83.809	-0.224	0.070
-433.690	-119.132	-0.145	0.025
-432.676	-200.000	-0.007	-0.155
-431.661	148.590	-0.093	-0.124
-430.646	-200.000	0.006	0.274
-429.632	-46.420	0.211	-0.102
-428.617	59.566	0.060	-0.059
-427.603	284.503	-0.158	-0.280
-426.588	162.135	-0.077	-0.106
-425.573	-65.795	-0.425	-0.168
-424.559	-148.687	0.281	0.023
-423.544	85.192	0.376	-0.406
-422.530	41.272	0.246	-0.219
-421.515	264.498	0.077	-0.133
-420.500	-200.000	-0.021	0.097
-419.486	-33.440	-0.303	0.165
-418.471	-135.055	0.204	-0.024
-417.457	-200.000	0.038	0.257
-416.442	800.000	-0.044	0.176
-415.428	690.549	-0.138	-0.356
-414.413	-91.794	-0.094	-0.026
-413.398	209.917	0.037	0.058
-412.384	-144.829	-0.318	-0.029
-411.369	0.000	-0.055	0.039
-410.355	720.789	-0.149	-0.390
-409.340	-82.077	0.202	-0.065
-408.325	-109.458	-0.149	0.031
-407.311	115.160	0.052	-0.063
-406.296	-200.000	0.019	0.093
-405.282	337.738	-0.106	0.203
-404.267	178.166	-0.060	0.087
-403.252	-119.203	-0.414	-0.071
-402.238	34.577	0.130	0.112
-401.223	-186.803	0.454	0.006
-400.209	-199.171	0.213	0.001
-399.194	-174.872	-0.348	-0.010
-398.179	-124.160	-0.362	-0.056
-397.165	-106.665	0.188	-0.041
-396.150	-129.462	-0.198	-0.027
-395.136	-12.725	0.170	-0.109
-394.121	241.255	-0.116	0.190
-393.106	-90.327	-0.229	-0.066
-392.092	-176.712	0.375	-0.009
-391.077	-200.000	0.041	-0.187
-390.063	-63.361	-0.089	-0.036
-389.048	27.095	0.345	-0.285
-388.033	-200.000	0.079	-0.372
-387.019	-117.316	0.367	0.066
-386.004	131.697	-0.174	-0.220
-384.990	-200.000	0.020	0.097
-383.975	355.612	0.079	-0.155
-382.960	800.000	-0.035	-0.103
-381.946	603.427	0.086	-0.210
-380.931	-9.740	-0.133	0.087
-379.917	800.000	0.074	-0.219
-378.902	67.308	0.168	-0.168
-377.888	19.537	-0.143	0.113
-376.873	733.583	0.069	0.182
-375.858	-0.063	-0.303	0.212
-374.844	-4.249	0.174	-0.119
-373.829	79.140	0.252	-0.265
-372.815	443.384	0.061	-0.131
-371.800	-106.152	0.232	0.051
-370.785	-200.000	-0.022	0.190
-369.771	-72.166	-0.231	-0.084
-368.756	-5.435	-0.109	0.074
-367.742	800.000	-0.040	0.133
-366.727	51.967	0.053	-0.050
-365.712	-39.322	-0.368	-0.190
-364.698	-200.000	0.053	0.262
-363.683	-18.659	-0.352	-0.216
-362.669	369.450	-0.116	0.232
-361.654	-145.157	0.332	0.030
-360.639	312.980	0.107	-0.198
-359.625	800.000	-0.059	0.197
-358.610	-131.617	0.272	-0.035
-357.596	98.444	-0.100	0.114
-356.581	-73.384	0.287	0.103
-355.566	800.000	-0.092	0.259
-354.552	80.223	-0.144	-0.153
-353.537	788.550	0.086	-0.231
-352.523	75.898	0.204	-0.213
-351.508	10.933	-0.139	-0.105
-350.493	-121.809	-0.275	0.045
-349.479	-26.895	-0.059	-0.034
-348.464	157.325	0.191	-0.259
-347.450	388.807	-0.062	-0.127
-346.435	180.081	-0.078	-0.113
-345.420	146.063	-0.073	-0.097
-344.406	-20.290	0.064	-0.039
-343.391	-7.663	-0.237	-0.158
-342.377	800.000	0.018	-0.070
-341.362	-47.536	0.061	0.029
-340.348	83.230	0.254	-0.271
-339.333	-62.588	0.573	0.234
-338.318	-119.748	-0.142	0.024
-337.304	10.965	0.117	0.088
-336.289	147.273	0.347	0.458
-335.275	-60.307	0.383	0.160
-334.260	243.305	0.114	0.187
-333.245	15.253	-0.248	-0.191
-332.231	-26.990	-0.257	0.147
-331.216	612.578	0.087	0.214
-330.202	129.155	0.247	0.309
-329.187	-200.000	-0.011	0.194
-328.172	800.000	-0.076	0.235
-327.158	13.295	0.064	0.049
-326.143	105.319	-0.208	0.241
-325.129	800.000	0.053	-0.158
-324.114	149.266	0.060	-0.079
-323.099	-52.847	-0.107	-0.048
-322.085	330.874	-0.101	0.190
-321.070	-34.552	0.241	-0.130
-320.056	800.000	0.027	-0.087
-319.041	-59.032	0.282	-0.120
-318.026	-70.070	-0.153	-0.057
-317.012	114.055	0.129	0.154
-315.997	-33.591	0.170	-0.092
-314.983	-200.000	0.022	-0.169
-313.968	97.245	0.217	0.244
-312.953	-175.000	0.036	0.001
-311.939	-200.000	-0.046	0.274
-310.924	-200.000	0.014	0.146
-309.910	800.000	0.167	-0.476
-308.895	-15.648	-0.156	-0.098
-307.880	-200.000	-0.060	-0.368
-306.866	-200.000	0.013	0.257
-305.851	800.000	0.068	0.196
-304.837	543.625	-0.125	-0.293
-303.822	67.006	0.124	0.124
-302.807	-47.399	-0.118	0.056
-301.793	-200.000	-0.004	0.074
-300.778	173.735	0.214	0.304
-299.764	-74.316	0.256	0.091
-298.749	-200.000	0.019	-0.249
-297.735	-200.000	0.024	0.156
-296.720	-200.000	0.035	0.195
-295.705	-1.234	-0.070	0.048
-294.691	130.314	0.164	-0.206
-293.676	800.000	0.027	-0.080
-292.662	80.264	0.297	0.313
-291.647	150.947	0.114	0.152
-290.632	2.774	-0.172	0.123
-289.618	-92.317	-0.148	-0.041
-288.603	87.424	-0.166	0.180
-287.589	749.295	0.069	0.182
-286.574	350.443	-0.046	0.090
-285.559	164.964	0.059	-0.082
-284.545	60.115	-0.188	-0.182
-283.530	-200.000	-0.029	-0.153
-282.516	270.555	-0.070	-0.120
-281.501	-44.651	0.447	0.219
-280.486	-128.339	-0.100	0.014
-279.472	-200.000	-0.024	0.110
-278.457	800.000	-0.056	-0.221
-277.443	23.154	0.229	-0.184
-276.428	-40.180	-0.362	0.185
-275.413	-200.000	0.005	0.082
-274.399	-166.231	0.166	-0.007
-273.384	18.998	0.092	-0.072
-272.370	122.396	-0.183	0.224
-271.355	-200.000	-0.035	-0.346
-270.340	33.041	0.156	0.132
-269.326	23.353	-0.320	0.258
-268.311	-167.309	0.483	-0.019
-267.297	-122.245	-0.320	-0.051
-266.282	-5.205	0.209	-0.141
-265.267	-110.170	0.141	-0.029
-264.253	-67.284	0.218	-0.084
-263.238	483.454	-0.081	0.180
-262.224	349.547	-0.067	-0.129
-261.209	-68.753	-0.193	-0.073
-260.195	115.457	-0.124	0.148
-259.180	-110.007	0.274	-0.056
-258.165	209.463	-0.099	-0.153
-257.151	205.253	0.240	0.364
-256.136	-98.661	-0.502	0.125
-255.122	56.956	0.069	0.066
-254.107	800.000	0.081	-0.282
-253.092	30.240	0.299	0.250
-252.078	332.343	-0.166	0.314
-251.063	-200.000	0.033	0.166
-250.049	265.269	0.177	0.302
-249.034	-200.000	0.007	0.177
-248.019	-107.119	0.171	0.037
-247.005	-102.237	-0.255	-0.060
-245.990	-200.000	-0.057	0.249
-244.976	25.262	-0.108	0.088
-243.961	-14.941	0.129	0.081
-242.946	152.321	0.050	0.067
-241.932	800.000	0.125	-0.372
-240.917	24.137	-0.139	-0.112
-239.903	-200.000	-0.000	-0.168
-238.888	-168.909	-0.292	0.011
-237.873	67.331	0.125	-0.124
-236.859	-166.360	-0.130	0.005
-235.844	-200.000	-0.033	0.148
-234.830	-200.000	0.059	0.558
-233.815	-150.883	-0.235	-0.017
-232.800	-137.653	0.162	0.018
-231.786	800.000	-0.112	0.378
-230.771	0.392	-0.108	-0.076
-229.757	71.827	0.341	0.347
-228.742	-139.451	-0.146	-0.015
-227.727	468.287	-0.017	0.038
-226.713	-200.000	-0.017	-0.102
-225.698	-73.982	-0.246	-0.087
-224.684	-37.928	-0.321	-0.167
-223.669	-83.623	-0.400	0.125
-222.655	-200.000	0.015	0.107
-221.640	368.519	-0.047	0.094
-220.625	171.952	-0.112	-0.158
-219.611	-67.354	0.180	0.069
-218.596	25.593	0.157	-0.128
-217.582	46.801	-0.128	0.116
-216.567	441.790	0.042	-0.091
-215.552	-200.000	-0.005	-0.044
-214.538	-126.549	-0.534	-0.077
-213.523	-200.000	-0.006	0.134
-212.509	30.600	-0.148	-0.123
-211.494	-31.662	0.281	-0.154
-210.479	-130.458	0.264	0.035
-209.465	800.000	-0.118	0.320
-208.450	-200.000	0.029	0.252
-207.436	109.172	0.045	0.053
-206.421	-88.911	-0.062	0.018
-205.406	71.646	0.169	-0.172
-204.392	-200.000	-0.024	-0.244
-203.377	-3.483	0.099	-0.068
-202.363	143.972	0.195	-0.254
-201.348	280.307	0.093	0.162
-200.333	-200.000	0.041	0.391
-199.319	-200.000	-0.031	-0.174
-198.304	300.354	0.064	0.116
-197.290	39.483	-0.138	0.121
-196.275	-22.454	-0.230	-0.136
-195.260	306.058	-0.074	-0.135
-194.246	-109.038	0.123	-0.026
-193.231	-200.000	0.003	0.071
-192.217	-119.044	0.201	0.034
-191.202	452.962	0.171	-0.370
-190.187	-149.045	0.303	0.024
-189.173	-45.156	0.066	-0.032
-188.158	-134.218	0.048	0.006
-187.144	137.257	0.136	-0.173
-186.129	164.727	-0.173	0.238
-185.114	-42.045	-0.205	0.103
-184.100	-99.613	0.356	-0.087
-183.085	-113.875	-0.133	0.025
-182.071	-200.000	0.015	-0.132
-181.056	288.102	-0.129	0.228
-180.042	-200.000	-0.069	-0.303
-179.027	-200.000	-0.011	-0.055
-178.012	-25.706	0.309	-0.178
-176.998	-97.427	0.102	-0.026
-175.983	559.634	-0.124	0.294
-174.969	-151.702	-0.036	0.003
-173.954	274.114	0.055	-0.095
-172.939	800.000	0.016	0.044
-171.925	-32.307	-0.154	-0.084
-170.910	-79.334	0.303	0.100
-169.896	221.891	-0.121	0.190
-168.881	-82.842	-0.189	-0.060
-167.866	-19.524	0.390	0.236
-166.852	64.507	-0.134	0.132
-165.837	156.319	-0.122	-0.164
-164.823	-200.000	0.005	0.239
-163.808	-130.186	-0.050	0.007
-162.793	240.635	0.061	0.099
-161.779	-25.583	-0.197	0.113
-160.764	49.438	-0.138	0.126
-159.750	-87.276	-0.433	-0.128
-158.735	800.000	-0.041	-0.132
-157.720	515.770	0.065	0.148
-156.706	-18.097	0.046	0.028
-155.691	-79.388	-0.188	0.062
-154.677	-163.678	0.079	0.004
-153.662	-23.077	0.033	-0.020
-152.647	-75.276	-0.175	0.061
-151.633	129.768	-0.355	-0.443
-150.618	8.989	0.212	0.156
-149.604	800.000	0.089	0.275
-148.589	-65.672	-0.085	0.033
-147.574	-200.000	-0.060	0.668
-146.560	-200.000	0.030	-0.509
-145.545	47.879	0.060	0.055
-144.531	7.203	-0.200	-0.145
-143.516	-182.440	-0.147	-0.003
-142.502	-200.000	-0.010	-0.154
-141.487	-66.740	0.163	0.063
-140.472	-48.917	-0.117	-0.055
-139.458	66.920	0.110	0.109
-138.443	144.465	-0.073	0.096
-137.429	11.133	0.219	-0.163
-136.414	-9.243	-0.135	0.088
-135.399	548.297	-0.160	0.374
-134.385	-69.848	0.341	0.127
-133.370	329.762	-0.045	0.085
-132.356	-35.951	-0.111	0.059
-131.341	-200.000	-0.021	-0.145
-130.326	197.338	0.294	0.437
-129.312	597.591	0.042	-0.102
-128.297	-61.122	0.323	-0.133
-127.283	115.975	0.241	0.287
-126.268	-200.000	-0.002	-0.066
-125.253	-107.145	-0.179	-0.038
-124.239	161.574	0.135	0.184
-123.224	292.387	-0.107	0.190
-122.210	-176.727	0.147	0.004
-121.195	800.000	0.058	0.171
-120.180	-173.594	0.180	-0.005
-119.166	70.970	0.076	0.076
-118.151	291.864	0.153	-0.271
-117.137	105.113	0.047	0.055
-116.122	-92.927	0.285	0.078
-115.107	-73.215	-0.414	0.148
-114.093	-41.901	-0.231	-0.115
-113.078	269.468	0.181	0.309
-112.064	128.040	0.118	-0.146
-111.049	-107.693	0.364	-0.077
-110.034	-61.139	0.150	-0.062
-109.020	-51.291	-0.310	-0.141
-108.005	15.615	0.423	-0.324
-106.991	11.635	0.273	-0.204
-105.976	209.077	-0.148	0.226
-104.962	-200.000	0.035	0.260
-103.947	45.712	0.129	0.116
-102.932	59.452	0.236	0.226
-101.918	-79.124	-0.065	0.022
-100.903	615.450	-0.050	0.121
-99.889	-18.067	0.126	-0.077
-98.874	-200.000	-0.034	-0.316
-97.859	-116.521	-0.245	0.044
-96.845	-133.717	0.242	-0.029
-95.830	-23.607	-0.244	-0.142
-94.816	800.000	-0.067	0.215
-93.801	97.938	-0.114	0.128
-92.786	-143.409	0.295	0.027
-91.772	-200.000	0.016	0.133
-90.757	800.000	-0.051	0.166
-89.743	-88.090	0.135	-0.040
-88.728	242.804	-0.051	-0.084
-87.713	800.000	0.119	0.370
-86.699	577.210	-0.060	0.144
-85.684	9.382	0.213	0.157
-84.670	-62.362	0.107	-0.043
-83.655	34.423	-0.286	0.243
-82.640	131.600	0.185	-0.231
-81.626	-200.000	-0.018	-0.284
-80.611	697.122	-0.111	-0.284
-79.597	45.151	-0.036	0.032
-78.582	-16.907	0.141	-0.087
-77.567	365.021	0.060	-0.118
-76.553	226.860	0.149	0.236
-75.538	800.000	0.090	0.245
-74.524	-55.741	0.310	0.135
-73.509	12.053	0.252	0.189
-72.494	-113.420	-0.159	0.030
-71.480	-97.947	-0.059	-0.015
-70.465	-78.260	-0.076	-0.025
-69.451	189.999	0.066	-0.096
-68.436	57.123	0.242	0.229
-67.422	-44.065	0.069	-0.033
-66.407	-200.000	0.015	-0.261
-65.392	800.000	0.015	-0.054
-64.378	-200.000	0.011	-0.146
-63.363	66.335	0.179	0.177
-62.349	82.219	0.252	0.265
-61.334	51.130	-1.252	-1.155
-60.319	12.987	0.690	0.519
-59.305	373.865	-0.678	-1.342
-58.290	173.666	0.818	1.148
-57.276	800.000	0.415	1.287
-56.261	-200.000	128.244	673.000
-55.246	410.141	1610.355	3316.866
-54.232	138.072	2775.333	3535.385
-53.217	89.947	2303.520	2500.562
-52.203	31.832	1905.767	1594.416
-51.188	25.770	1700.989	1376.848
-50.173	23.727	1662.164	1330.081
-49.159	45.633	1732.325	1554.895
-48.144	42.779	1743.047	1542.608
-47.130	25.394	1694.756	1368.720
-46.115	22.890	1679.217	1337.181
-45.100	22.721	1674.249	1331.901
-44.086	22.695	1671.561	1329.510
-43.071	22.677	1669.262	1327.491
-42.057	22.742	1666.648	1325.851
-41.042	22.660	1665.484	1324.257
-40.027	22.739	1662.751	1322.620
-39.013	22.602	1661.429	1320.495
-37.998	22.606	1660.171	1319.468
-36.984	22.747	1658.546	1319.184
-35.969	22.793	1657.508	1318.649
-34.954	22.774	1655.289	1316.685
-33.940	22.776	1653.629	1315.330
-32.925	22.827	1651.751	1314.162
-31.911	22.839	1650.043	1312.843
-30.896	22.806	1648.856	1311.597
-29.881	22.737	1647.219	1309.735
-28.867	22.874	1645.485	1309.317
-27.852	22.746	1644.440	1307.485
-26.838	22.897	1642.870	1307.302
-25.823	22.798	1641.730	1305.613
-24.809	22.825	1640.081	1304.446
-23.794	22.770	1638.968	1303.108
-22.779	22.755	1638.113	1302.262
-21.765	22.859	1635.586	1300.966
-20.750	22.808	1634.103	1299.363
-19.736	22.884	1632.757	1298.796
-18.721	22.890	1631.523	1297.815
-17.706	22.819	1630.554	1296.471
-16.692	22.875	1628.538	1295.225
-15.677	22.871	1627.025	1293.942
-14.663	22.971	1625.433	1293.353
-13.648	22.885	1624.458	1291.898
-12.633	22.843	1622.679	1290.127
-11.619	22.783	1621.641	1288.809
-10.604	22.852	1619.864	1287.851
-9.590	22.934	1618.204	1287.079
-8.575	22.829	1617.813	1285.953
-7.560	22.840	1616.104	1284.619
-6.546	22.827	1615.227	1283.776
-5.531	22.908	1614.084	1283.409
-4.517	23.013	1612.790	1283.087
-3.502	22.833	1612.047	1281.139
-2.487	22.939	1609.828	1280.093
-1.473	22.560	1598.008	1267.917
-0.458	19.738	1578.934	1232.640
0.556	14.607	1581.733	1201.965
1.571	12.569	1605.444	1204.961
2.586	12.363	1617.978	1212.738
3.600	11.404	1563.130	1164.685
4.615	6.286	1456.978	1051.370
5.629	1.183	1398.873	976.556
6.644	0.247	1391.820	965.548
7.659	0.188	1390.869	964.423
8.673	0.093	1389.659	962.895
9.688	0.103	1387.423	961.320
10.702	0.104	1383.801	958.734
11.717	2.526	1387.698	976.810
12.731	9.382	1397.267	1027.369
13.746	15.070	1406.538	1070.563
14.761	16.727	1408.454	1082.529
15.775	16.173	1406.367	1077.294
16.790	15.272	1403.384	1069.166
17.804	14.434	1401.797	1062.523
18.819	14.114	1400.405	1059.334
19.834	13.892	1398.700	1056.544
20.848	13.655	1397.379	1053.943
21.863	13.384	1396.346	1051.352
22.877	13.253	1395.119	1049.498
23.892	13.289	1393.675	1048.550
24.907	13.081	1393.363	1046.905
25.921	13.246	1392.217	1046.994
26.936	13.245	1391.496	1046.354
27.950	13.333	1390.065	1045.741
28.965	13.327	1389.342	1045.068
29.980	13.395	1388.576	1044.831
30.994	13.445	1387.172	1043.996
32.009	13.388	1386.675	1043.171
33.023	13.333	1385.777	1042.052
34.038	13.418	1384.182	1041.296
35.053	13.318	1383.067	1039.740
36.067	13.374	1381.809	1039.052
37.082	13.259	1381.436	1037.959
38.096	13.434	1379.759	1037.701
39.111	13.450	1378.880	1037.050
40.126	13.335	1378.294	1035.795
41.140	13.253	1377.244	1034.404
42.155	13.195	1377.220	1033.931
43.169	13.227	1376.955	1033.841
44.184	13.183	1376.957	1033.473
45.199	13.140	1376.190	1032.541
46.213	13.169	1375.440	1032.068
47.228	13.306	1374.413	1032.059
48.242	13.265	1373.268	1030.857
49.257	13.294	1371.569	1029.669
50.271	13.222	1370.005	1027.952
51.286	13.352	1368.573	1027.599
52.301	13.314	1367.408	1026.399
53.315	13.157	1366.865	1024.926
54.330	13.247	1365.828	1024.614
55.344	13.128	1364.483	1022.775
56.359	13.129	1363.342	1021.834
57.374	13.169	1362.548	1021.400
58.388	13.136	1361.461	1020.287
59.403	13.191	1360.914	1020.131
60.417	13.189	1360.237	1019.521
61.432	13.095	1359.373	1018.204
62.447	13.084	1357.916	1016.952
63.461	13.122	1356.950	1016.372
64.476	13.049	1356.167	1015.244
65.490	13.035	1354.934	1014.145
66.505	13.091	1353.555	1013.367
67.520	13.183	1351.683	1012.444
68.534	13.162	1351.161	1011.831
69.549	13.169	1349.864	1010.814
70.563	12.965	1349.287	1009.044
71.578	13.051	1347.460	1008.118
72.593	13.155	1346.544	1007.975
73.607	13.024	1345.635	1006.409
74.622	13.036	1345.242	1006.101
75.636	13.095	1344.147	1005.548
76.651	13.088	1343.307	1004.789
77.666	12.972	1343.172	1003.891
78.680	13.030	1342.280	1003.492
79.695	13.150	1341.293	1003.395
80.709	13.102	1340.666	1002.541
81.724	13.203	1339.546	1002.233
82.739	13.184	1338.728	1001.413
83.753	13.151	1338.283	1000.790
84.768	13.310	1336.649	1000.445
85.782	13.268	1335.338	999.123
86.797	13.283	1334.119	998.212
87.812	13.278	1332.500	996.880
88.826	13.238	1331.715	995.962
89.841	13.219	1330.817	995.090
90.855	13.268	1329.746	994.496
91.870	13.328	1328.592	993.907
92.884	13.282	1327.634	992.826
93.899	13.333	1326.916	992.504
94.914	13.404	1326.126	992.255
95.928	13.404	1324.781	991.162
96.943	13.347	1324.299	990.367
97.957	13.320	1323.704	989.674
98.972	13.313	1322.367	988.547
99.987	13.295	1321.451	987.665
101.001	13.306	1320.535	986.963
102.016	13.331	1319.477	986.231
103.030	13.318	1318.761	985.532
104.045	13.267	1317.978	984.553
105.060	13.301	1316.388	983.482
106.074	13.288	1314.971	982.262
107.089	13.171	1314.333	981.001
108.103	13.169	1312.522	979.554
109.118	13.246	1310.707	978.565
110.133	13.198	1309.959	977.636
111.147	13.293	1307.833	976.522
112.162	13.323	1306.872	975.901
113.176	13.270	1305.877	974.756
114.191	13.245	1305.624	974.332
115.206	13.383	1303.748	973.662
116.220	13.257	1302.513	971.911
117.235	13.229	1301.926	971.224
118.249	13.319	1300.553	970.638
119.264	13.290	1299.216	969.389
120.279	13.214	1298.492	968.315
121.293	13.222	1297.835	967.788
122.308	13.200	1296.625	966.670
123.322	13.204	1295.545	965.803
124.337	13.268	1294.113	965.022
125.352	13.232	1292.593	963.593
126.366	13.239	1291.772	962.940
127.381	13.169	1290.814	961.729
128.395	13.220	1289.430	960.912
129.410	13.185	1289.018	960.317
130.424	13.287	1288.051	960.102
131.439	13.237	1287.018	958.955
132.454	13.245	1286.255	958.350
133.468	13.307	1284.865	957.588
134.483	13.175	1285.099	956.917
135.497	13.312	1283.159	956.177
136.512	13.251	1282.155	954.993
137.527	13.196	1281.082	953.794
138.541	13.275	1279.468	952.959
139.556	13.168	1278.114	951.254
140.570	13.388	1276.533	951.257
141.585	13.409	1275.103	950.224
142.600	13.283	1274.454	948.936
143.614	13.350	1273.730	948.700
144.629	13.436	1272.514	948.198
145.643	13.454	1271.250	947.277
146.658	13.437	1270.034	946.188
147.673	13.370	1268.937	944.908
148.687	13.427	1267.226	943.875
149.702	13.386	1266.287	942.855
150.716	13.380	1264.651	941.521
151.731	13.308	1263.942	940.503
152.746	13.409	1262.305	939.772
153.760	13.434	1260.909	938.793
154.775	13.529	1259.784	938.414
155.789	13.494	1258.928	937.491
156.804	13.488	1258.534	937.081
157.819	13.565	1256.790	936.133
158.833	13.583	1255.656	935.307
159.848	13.531	1255.111	934.526
160.862	13.608	1253.864	933.950
161.877	13.577	1252.593	932.748
162.892	13.458	1251.473	931.162
163.906	13.553	1251.036	931.285
164.921	13.551	1249.951	930.385
165.935	13.567	1248.867	929.588
166.950	13.612	1248.167	929.238
167.964	13.640	1247.696	928.958
168.979	13.627	1246.561	927.957
169.994	13.663	1246.272	927.862
171.008	13.698	1245.088	927.093
172.023	13.685	1244.307	926.358
173.037	13.790	1243.583	926.325
174.052	13.687	1242.604	924.940
175.067	13.638	1241.489	923.752
176.081	13.631	1240.602	922.976
177.096	13.560	1240.106	922.127
178.110	13.666	1238.434	921.390
179.125	13.712	1237.320	920.737
180.140	13.681	1236.153	919.614
181.154	13.661	1235.068	918.618
182.169	13.733	1233.782	917.977
183.183	13.758	1232.617	917.168
184.198	13.732	1231.272	915.940
185.213	13.839	1229.970	915.481
186.227	13.832	1228.996	914.640
187.242	13.889	1227.816	913.991
188.256	13.952	1226.634	913.376
189.271	13.850	1226.224	912.429
190.286	13.721	1225.198	910.878
191.300	13.700	1224.060	909.838
192.315	13.767	1224.007	910.082
193.329	13.788	1222.633	909.099
194.344	13.711	1222.263	908.321
195.359	13.770	1221.620	908.087
196.373	13.924	1220.690	908.158
197.388	13.923	1220.716	908.089
198.402	14.000	1220.230	908.070
199.417	13.979	1219.659	907.446
200.432	14.007	1218.641	906.765
201.446	14.069	1217.753	906.361
202.461	14.224	1216.877	906.474
203.475	14.115	1215.552	904.813
204.490	14.077	1214.504	903.746
205.504	14.093	1213.220	902.799
206.519	14.129	1211.737	901.807
207.534	14.026	1211.129	900.718
208.548	14.025	1210.234	899.968
209.563	14.184	1209.273	900.033
210.577	14.187	1208.347	899.279
211.592	14.167	1207.749	898.647
212.607	14.271	1206.664	898.324
213.621	14.230	1205.680	897.290
214.636	14.189	1205.333	896.731
215.650	14.197	1204.143	895.809
216.665	14.265	1203.179	895.379
217.680	14.324	1202.181	894.874
218.694	14.310	1201.533	894.234
219.709	14.245	1201.211	893.567
220.723	14.264	1200.124	892.784
221.738	14.271	1199.207	892.058
222.753	14.358	1198.396	891.845
223.767	14.333	1197.752	891.150
224.782	14.323	1197.158	890.578
225.796	14.525	1196.109	890.796
226.811	14.429	1195.890	890.041
227.826	14.417	1195.218	889.400
228.840	14.422	1194.225	888.607
229.855	14.513	1193.244	888.282
230.869	14.481	1192.664	887.604
231.884	14.463	1191.803	886.789
232.899	14.376	1191.109	885.734
233.913	14.425	1190.074	885.145
234.928	14.375	1189.500	884.374
235.942	14.404	1188.845	883.962
236.957	14.506	1187.750	883.608
237.972	14.445	1187.074	882.706
238.986	14.296	1186.914	881.722
240.001	14.287	1185.951	880.877
241.015	14.493	1184.785	881.022
242.030	14.467	1184.419	880.538
243.045	14.660	1182.840	880.303
244.059	14.673	1182.484	880.029
245.074	14.630	1181.692	879.135
246.088	14.616	1181.005	878.470
247.103	14.640	1180.034	877.799
248.117	14.655	1179.536	877.426
249.132	14.717	1178.845	877.163
250.147	14.860	1177.800	877.055
251.161	14.765	1177.331	876.133
252.176	14.800	1176.468	875.597
253.190	14.786	1176.200	875.248
254.205	14.944	1175.196	875.249
255.220	14.924	1174.404	874.475
256.234	14.951	1173.827	874.111
257.249	14.889	1173.798	873.690
258.263	14.959	1172.555	873.048
259.278	14.935	1172.319	872.674
260.293	15.146	1171.110	872.794
261.307	15.058	1171.023	872.196
262.322	15.061	1170.403	871.670
263.336	15.044	1169.374	870.739
264.351	15.103	1168.947	870.652
265.366	15.072	1168.270	869.906
266.380	15.100	1167.665	869.528
267.395	15.194	1166.783	869.280
268.409	15.033	1166.038	867.813
269.424	15.109	1165.511	867.735
270.439	15.058	1164.814	866.881
271.453	15.113	1163.673	866.237
272.468	15.120	1162.724	865.491
273.482	15.153	1162.157	865.164
274.497	15.151	1161.717	864.749
275.512	15.208	1160.454	864.024
276.526	15.223	1160.148	863.798
277.541	15.138	1159.644	862.908
278.555	15.203	1158.632	862.413
279.570	15.255	1157.878	862.042
280.585	15.320	1156.996	861.644
281.599	15.193	1156.750	860.734
282.614	15.228	1155.594	859.975
283.628	15.331	1154.010	859.247
284.643	15.356	1153.261	858.743
285.657	15.247	1152.332	857.417
286.672	15.323	1151.561	857.158
287.687	15.322	1150.820	856.526
288.701	15.407	1149.737	856.077
289.716	15.378	1148.947	855.265
290.730	15.374	1148.644	854.942
291.745	15.399	1147.879	854.427
292.760	15.447	1147.409	854.242
293.774	15.534	1146.657	854.048
294.789	15.459	1146.156	853.218
295.803	15.582	1145.043	852.942
296.818	15.514	1144.292	851.960
297.833	15.484	1143.555	851.187
298.847	15.487	1142.679	850.474
299.862	15.478	1141.936	849.800
300.876	15.512	1141.459	849.539
301.891	15.562	1140.986	849.366
302.906	15.558	1140.157	848.656
303.920	15.759	1139.059	848.778
304.935	15.675	1138.520	847.875
305.949	15.715	1138.020	847.628
306.964	15.742	1137.098	847.002
307.979	15.702	1136.593	846.351
308.993	15.734	1135.802	845.849
310.008	15.762	1135.112	845.400
311.022	15.747	1134.263	844.618
312.037	15.852	1133.080	844.190
313.052	15.807	1132.399	843.380
314.066	15.787	1131.334	842.415
315.081	15.799	1130.631	841.877
316.095	15.808	1129.782	841.215
317.110	15.742	1129.305	840.454
318.125	15.633	1128.710	839.391
319.139	15.623	1128.052	838.778
320.154	15.700	1127.283	838.517
321.168	15.713	1126.468	837.900
322.183	15.821	1125.975	838.000
323.197	15.790	1125.230	837.216
324.212	15.850	1124.673	837.027
325.227	15.988	1123.956	837.105
326.241	15.844	1123.673	836.105
327.256	15.817	1122.661	835.141
328.270	15.803	1121.459	834.105
329.285	15.914	1120.598	833.941
330.300	16.010	1119.668	833.652
331.314	15.912	1118.442	832.180
332.329	16.044	1117.684	832.191
333.343	15.980	1116.808	831.151
334.358	16.003	1115.910	830.524
335.373	15.905	1115.353	829.553
336.387	16.030	1114.749	829.645
337.402	16.114	1113.863	829.328
338.416	15.999	1113.635	828.515
339.431	16.073	1112.296	827.811
340.446	16.141	1111.743	827.659
341.460	16.168	1111.114	827.251
342.475	16.215	1110.149	826.687
343.489	16.175	1109.289	825.778
344.504	16.198	1108.654	825.347
345.519	16.183	1107.726	824.511
346.533	16.265	1107.102	824.374
347.548	16.301	1106.048	823.693
348.562	16.409	1105.241	823.543
349.577	16.335	1104.687	822.697
350.592	16.209	1104.243	821.678
351.606	16.268	1103.217	821.130
352.621	16.317	1102.716	820.923
353.635	16.307	1101.669	820.025
354.650	16.289	1101.093	819.434
355.665	16.288	1100.095	818.614
356.679	16.345	1099.645	818.484
357.694	16.230	1099.558	817.788
358.708	16.375	1098.806	817.858
359.723	16.369	1098.249	817.343
360.738	16.424	1097.234	816.779
361.752	16.520	1096.354	816.517
362.767	16.525	1096.192	816.347
363.781	16.426	1095.720	815.448
364.796	16.552	1094.500	815.076
365.810	16.648	1094.218	815.253
366.825	16.578	1093.338	814.188
367.840	16.678	1093.125	814.439
368.854	16.710	1092.441	814.014
369.869	16.632	1092.000	813.238
370.883	16.618	1091.196	812.498
371.898	16.625	1090.324	811.810
372.913	16.671	1089.576	811.405
373.927	16.659	1089.045	810.876
374.942	16.737	1088.545	810.808
375.956	16.677	1087.950	810.004
376.971	16.768	1087.249	809.848
377.986	16.765	1086.706	809.358
379.000	16.759	1086.361	809.000
380.015	16.757	1085.737	808.453
381.029	16.856	1084.886	808.222
382.044	17.001	1084.074	808.236
383.059	17.008	1083.540	807.801
384.073	16.866	1082.646	806.383
385.088	16.817	1082.100	805.675
386.102	16.961	1080.957	805.435
387.117	16.838	1080.075	804.126
388.132	16.846	1079.073	803.346
389.146	16.931	1078.000	802.878
390.161	16.943	1077.348	802.380
391.175	16.874	1076.983	801.710
392.190	16.963	1076.095	801.398
393.205	17.039	1075.081	800.930
394.219	17.012	1074.686	800.439
395.234	17.014	1073.446	799.453
396.248	16.949	1072.877	798.651
397.263	16.977	1071.797	797.907
398.278	16.982	1071.026	797.287
399.292	16.916	1070.150	796.255
400.307	17.080	1069.424	796.414
401.321	17.001	1069.027	795.678
402.336	16.918	1068.841	795.077
403.350	16.983	1067.822	794.553
404.365	17.146	1066.852	794.526
405.380	17.040	1066.536	793.723
406.394	17.001	1065.855	792.967
407.409	17.045	1065.025	792.480
408.423	17.268	1064.093	792.760
409.438	17.227	1063.365	791.957
410.453	17.369	1062.359	791.799
411.467	17.290	1061.953	791.057
412.482	17.365	1061.303	790.853
413.496	17.482	1060.089	790.423
414.511	17.324	1059.934	789.500
415.526	17.426	1059.396	789.503
416.540	17.509	1059.224	789.689
417.555	17.475	1058.539	788.956
418.569	17.431	1058.250	788.462
419.584	17.461	1057.479	787.959
420.599	17.601	1056.810	788.039
421.613	107.962	1331.503	1487.960
422.628	99.538	1371.463	1488.037
