DTS Sentinel unit serial number:	SN413079Multiplexer serial number:	ORYXHardware model number:	OX4-SRSoftware version number:	ORYX F/W v4.00 Oryx Data Collector v3.7.2.0data status	okinstallation	princeton_trtdifferential loss correction	single-endedforward channel	channel 2reverse channel	N/Adate	2019/09/12time	01:41:10forward acquisition time	60.00reverse acquisition time	0.00gamma	496.2192k internal	0.2326k external	0.2326temperature offset calibration	1.0087default loss term (dB/km)	0.3790temperature slope calibration	1.0000multiplexer offset coefficient	1.0000multiplexer slope coefficient	1.0000fibre end	0.00T internal ref (°C)	32.87T ext. ref 1 (°C)	2.05T ext. ref 2 (°C)	27.56length (m)	temperature (°C)	Stokes	anti-Stokes-747.200	-200.000	0.000	-0.107
-746.185	225.822	0.201	-0.329
-745.171	457.693	0.112	0.250
-744.156	-47.366	-0.397	0.195
-743.142	43.674	-0.070	0.064
-742.127	-68.859	-0.081	-0.032
-741.112	800.000	0.113	-0.476
-740.098	-31.801	-0.136	-0.077
-739.083	46.909	-0.093	0.087
-738.069	800.000	0.071	0.219
-737.054	-187.456	0.146	-0.002
-736.039	-9.368	-0.206	-0.139
-735.025	-70.636	0.131	0.050
-734.010	85.202	-0.227	-0.251
-732.996	-72.020	-0.512	-0.192
-731.981	110.118	0.082	-0.099
-730.966	-200.000	-0.034	-0.278
-729.952	-55.511	0.058	0.026
-728.937	110.496	0.119	-0.144
-727.923	-26.499	-0.080	-0.047
-726.908	-63.140	0.040	-0.017
-725.894	-59.271	0.308	0.134
-724.879	-16.585	-0.362	0.231
-723.864	800.000	0.128	-0.356
-722.850	800.000	0.066	-0.197
-721.835	-58.343	-0.103	0.045
-720.821	-81.112	0.144	-0.048
-719.806	-200.000	0.046	-0.289
-718.791	564.882	-0.092	-0.225
-717.777	-46.281	0.314	-0.155
-716.762	-40.493	-0.231	0.121
-715.748	800.000	-0.048	0.171
-714.733	273.486	0.098	-0.175
-713.718	-172.100	0.239	-0.008
-712.704	99.574	-0.166	0.193
-711.689	-108.344	-0.032	0.007
-710.675	159.634	-0.116	0.163
-709.660	178.442	0.311	0.458
-708.645	234.775	0.214	0.355
-707.631	-87.347	-0.311	0.095
-706.616	666.388	-0.078	0.202
-705.602	-50.067	0.221	-0.106
-704.587	-32.263	0.218	-0.123
-703.572	-69.279	-0.081	-0.032
-702.558	14.115	0.141	0.111
-701.543	800.000	0.037	0.139
-700.529	-200.000	0.055	0.245
-699.514	588.803	0.058	-0.143
-698.499	800.000	-0.038	0.158
-697.485	800.000	-0.044	-0.166
-696.470	686.815	-0.047	0.123
-695.456	-200.000	0.007	-0.217
-694.441	-30.087	0.211	0.121
-693.426	128.935	-0.183	-0.236
-692.412	800.000	-0.046	-0.173
-691.397	-109.426	-0.217	0.046
-690.383	800.000	-0.011	-0.044
-689.368	-119.337	0.129	0.023
-688.354	-200.000	-0.010	-0.159
-687.339	-200.000	0.017	-0.078
-686.324	84.544	-0.180	-0.199
-685.310	-1.803	-0.145	-0.103
-684.295	-138.401	-0.420	-0.047
-683.281	-150.588	-0.186	-0.014
-682.266	-157.295	0.327	-0.020
-681.251	188.219	-0.221	0.332
-680.237	162.732	0.134	-0.189
-679.222	285.091	0.086	-0.155
-678.208	192.387	-0.079	0.119
-677.193	800.000	0.097	0.341
-676.178	-1.501	0.190	0.134
-675.164	-144.785	0.322	-0.030
-674.149	-48.988	-0.198	0.095
-673.135	26.980	0.143	0.120
-672.120	542.659	-0.099	-0.238
-671.105	-109.301	-0.213	-0.045
-670.091	-173.194	-0.264	0.008
-669.076	-164.665	-0.119	-0.005
-668.062	-59.525	-0.097	0.042
-667.047	-35.170	-0.256	-0.140
-666.032	-65.261	0.121	-0.049
-665.018	-87.852	0.052	0.016
-664.003	800.000	0.041	-0.129
-662.989	-40.925	0.230	0.120
-661.974	491.683	-0.125	-0.287
-660.959	150.401	0.010	-0.014
-659.945	0.558	-0.089	-0.064
-658.930	-183.010	-0.046	0.001
-657.916	70.052	0.206	-0.214
-656.901	484.452	-0.081	-0.185
-655.886	-200.000	0.038	-0.179
-654.872	-102.951	-0.391	0.093
-653.857	-108.088	0.330	-0.072
-652.843	-200.000	0.064	-0.369
-651.828	230.047	-0.168	-0.275
-650.814	144.837	0.077	0.104
-649.799	-28.319	0.113	0.066
-648.784	-115.636	0.176	-0.033
-647.770	133.638	-0.088	-0.115
-646.755	241.853	-0.123	-0.206
-645.741	157.385	0.146	0.203
-644.726	176.175	0.056	0.081
-643.711	-40.783	-0.210	-0.109
-642.697	-88.714	-0.203	0.061
-641.682	-22.407	-0.365	0.222
-640.668	-55.204	-0.125	-0.056
-639.653	-97.418	0.225	-0.059
-638.638	15.839	0.060	-0.048
-637.624	515.560	0.103	-0.241
-636.609	-200.000	0.007	-0.149
-635.595	-49.539	0.211	-0.101
-634.580	346.162	0.133	0.262
-633.565	799.869	-0.044	-0.122
-632.551	-200.000	-0.004	0.362
-631.536	454.654	0.048	0.108
-630.522	-94.146	-0.094	-0.026
-629.507	-121.520	0.228	0.038
-628.492	31.385	0.116	-0.100
-627.478	-200.000	0.052	-0.245
-626.463	16.153	-0.268	-0.212
-625.449	-80.880	-0.167	0.056
-624.434	-200.000	0.002	-0.313
-623.419	-91.568	0.264	-0.076
-622.405	508.036	0.034	0.080
-621.390	-200.000	0.011	-0.162
-620.376	-119.598	0.266	-0.046
-619.361	257.710	-0.132	0.227
-618.346	-29.340	0.120	0.069
-617.332	167.481	-0.167	0.239
-616.317	-30.236	-0.092	-0.052
-615.303	61.647	0.042	0.041
-614.288	-1.501	0.191	0.135
-613.273	-69.963	0.342	-0.131
-612.259	16.173	0.142	0.113
-611.244	124.840	-0.226	0.285
-610.230	-81.496	-0.192	0.064
-609.215	800.000	-0.082	-0.326
-608.201	-200.000	0.014	-0.093
-607.186	27.685	0.060	-0.051
-606.171	51.975	0.095	0.090
-605.157	-185.171	0.111	0.002
-604.142	20.217	0.170	0.138
-603.128	-52.773	-0.116	-0.053
-602.113	277.156	-0.154	-0.275
-601.098	-79.360	-0.181	-0.062
-600.084	-75.415	0.401	0.143
-599.069	-93.638	0.112	-0.031
-598.055	-200.000	-0.031	0.190
-597.040	185.317	-0.029	-0.043
-596.025	-117.741	-0.218	0.039
-595.011	5.767	0.309	0.229
-593.996	47.705	0.091	0.085
-592.982	800.000	-0.055	-0.163
-591.967	88.243	-0.078	0.087
-590.952	-77.354	-0.274	-0.096
-589.938	-200.000	-0.035	-0.182
-588.923	-145.302	0.052	0.005
-587.909	-200.000	-0.044	-0.329
-586.894	-167.136	-0.330	0.013
-585.879	-102.253	-0.102	-0.025
-584.865	-200.000	-0.017	0.247
-583.850	27.908	-0.078	0.066
-582.836	124.422	-0.042	-0.053
-581.821	511.388	0.064	-0.150
-580.806	-200.000	0.014	-0.193
-579.792	552.523	-0.090	-0.216
-578.777	215.024	0.059	0.093
-577.763	-48.090	0.093	0.045
-576.748	-88.231	-0.078	0.024
-575.733	168.548	-0.101	0.144
-574.719	24.311	-0.101	0.084
-573.704	463.213	0.071	0.160
-572.690	21.107	0.187	-0.152
-571.675	800.000	-0.102	0.408
-570.661	-101.642	-0.081	-0.020
-569.646	323.000	0.183	0.349
-568.631	-101.349	-0.205	0.050
-567.617	-200.000	-0.003	0.100
-566.602	-124.235	-0.017	0.003
-565.588	-88.549	0.164	0.049
-564.573	105.559	0.196	-0.232
-563.558	167.490	-0.057	-0.081
-562.544	-21.377	0.231	-0.141
-561.529	-106.282	-0.182	-0.041
-560.515	395.218	0.164	-0.343
-559.500	-4.756	0.299	-0.206
-558.485	156.505	0.105	0.145
-557.471	-74.020	-0.296	-0.108
-556.456	-200.000	0.024	0.268
-555.442	-200.000	0.007	0.045
-554.427	614.593	-0.116	0.292
-553.412	-108.956	-0.077	-0.016
-552.398	-60.957	-0.173	-0.073
-551.383	10.242	-0.102	-0.077
-550.369	278.210	0.132	0.235
-549.354	-148.891	0.463	-0.037
-548.339	-70.019	-0.141	-0.054
-547.325	-35.847	-0.310	0.168
-546.310	-69.097	-0.076	0.029
-545.296	-18.834	-0.063	0.039
-544.281	-70.125	0.174	-0.066
-543.266	-76.189	0.117	0.041
-542.252	-90.593	0.115	0.033
-541.237	-105.133	-0.113	0.026
-540.223	-119.428	0.091	0.016
-539.208	-113.511	-0.218	0.043
-538.193	-200.000	0.032	0.163
-537.179	-200.000	0.044	0.363
-536.164	-30.294	-0.229	-0.130
-535.150	-33.249	-0.170	0.094
-534.135	335.167	0.094	-0.183
-533.121	-6.585	0.161	0.110
-532.106	-75.051	-0.224	-0.080
-531.091	-200.000	-0.000	-0.206
-530.077	-95.126	-0.345	-0.093
-529.062	165.763	-0.094	-0.134
-528.048	41.794	-0.228	0.207
-527.033	-101.993	0.112	-0.027
-526.018	800.000	-0.040	-0.172
-525.004	-93.019	0.399	0.111
-523.989	473.404	0.041	0.093
-522.975	-92.628	0.077	0.022
-521.960	-158.078	0.284	-0.017
-520.945	800.000	-0.031	-0.106
-519.931	-8.889	0.090	0.060
-518.916	15.291	-0.202	0.159
-517.902	-144.105	-0.063	0.006
-516.887	470.842	-0.093	-0.208
-515.872	-54.134	0.184	0.083
-514.858	25.482	0.197	0.164
-513.843	-30.449	0.242	-0.137
-512.829	-200.000	-0.041	0.387
-511.814	-55.741	-0.083	0.037
-510.799	-123.299	-0.518	0.083
-509.785	-59.130	-0.305	-0.131
-508.770	800.000	0.076	-0.261
-507.756	-87.725	0.375	-0.113
-506.741	4.645	-0.214	-0.157
-505.726	-200.000	0.001	-0.057
-504.712	-7.681	0.101	0.068
-503.697	800.000	-0.026	0.102
-502.683	-200.000	-0.004	0.106
-501.668	-200.000	-0.016	0.318
-500.653	299.996	-0.112	-0.207
-499.639	-5.908	-0.035	-0.024
-498.624	290.645	-0.229	-0.415
-497.610	-71.669	0.048	0.018
-496.595	-22.601	-0.113	0.068
-495.581	71.728	-0.129	-0.134
-494.566	-82.229	0.196	-0.064
-493.551	800.000	0.067	0.199
-492.537	-200.000	-0.039	0.523
-491.522	-148.018	0.152	-0.013
-490.508	350.569	-0.129	-0.255
-489.493	12.558	-0.276	-0.213
-488.478	9.513	0.113	-0.086
-487.464	-48.601	-0.319	0.153
-486.449	-200.000	0.215	-0.001
-485.435	349.767	0.042	-0.083
-484.420	-200.000	-0.024	0.181
-483.405	553.587	0.016	-0.038
-482.391	800.000	-0.076	-0.290
-481.376	800.000	-0.050	-0.170
-480.362	254.225	-0.161	-0.275
-479.347	34.746	0.312	-0.273
-478.332	348.584	-0.056	0.110
-477.318	-59.525	0.379	0.162
-476.303	-127.718	0.153	0.022
-475.289	759.817	0.067	0.180
-474.274	-70.374	-0.181	0.069
-473.259	181.625	-0.240	-0.353
-472.245	-60.292	-0.182	-0.077
-471.230	800.000	0.088	0.259
-470.216	-151.721	0.092	0.007
-469.201	-200.000	-0.015	-0.185
-468.186	74.059	-0.061	0.064
-467.172	-119.349	-0.169	0.029
-466.157	95.837	-0.086	-0.097
-465.143	-200.000	-0.009	0.201
-464.128	-14.369	0.117	0.075
-463.113	63.327	-0.121	-0.121
-462.099	-51.191	0.086	-0.040
-461.084	-26.265	0.141	-0.082
-460.070	22.551	0.165	0.135
-459.055	-128.381	-0.395	0.056
-458.040	800.000	0.067	0.198
-457.026	-83.055	0.450	0.145
-456.011	800.000	0.155	-0.515
-454.997	-14.359	0.124	0.079
-453.982	-119.168	0.232	0.040
-452.968	-69.170	0.088	-0.034
-451.953	-126.352	-0.152	-0.023
-450.938	-106.220	-0.383	-0.086
-449.924	-76.404	0.308	0.108
-448.909	-200.000	-0.016	0.249
-447.895	-200.000	-0.004	0.101
-446.880	-141.049	0.063	-0.006
-445.865	36.206	0.122	0.108
-444.851	96.946	0.187	0.214
-443.836	-57.870	0.204	-0.089
-442.822	22.836	-0.129	-0.105
-441.807	800.000	0.028	-0.107
-440.792	-157.006	-0.379	0.023
-439.778	-118.145	0.224	-0.040
-438.763	-200.000	0.019	0.091
-437.749	-111.139	-0.380	0.078
-436.734	75.870	0.237	0.249
-435.719	118.910	0.141	0.173
-434.705	153.312	-0.071	0.097
-433.690	-23.412	-0.112	-0.067
-432.676	-200.000	0.027	-0.228
-431.661	238.197	-0.093	-0.154
-430.646	73.300	-0.223	0.232
-429.632	-200.000	0.043	0.452
-428.617	-42.577	-0.243	0.123
-427.603	800.000	-0.033	-0.095
-426.588	56.079	-0.078	0.075
-425.573	271.023	0.082	-0.144
-424.559	110.068	0.066	0.079
-423.544	-200.000	0.016	-0.159
-422.530	800.000	0.044	-0.150
-421.515	-76.822	0.217	0.076
-420.500	-190.431	0.065	0.001
-419.486	-123.736	0.174	0.027
-418.471	-89.436	-0.090	0.027
-417.457	245.676	-0.093	-0.155
-416.442	4.664	-0.145	0.106
-415.428	-200.000	-0.067	-0.300
-414.413	38.917	-0.056	-0.050
-413.398	53.521	-0.243	0.232
-412.384	43.603	0.085	0.078
-411.369	-200.000	-0.015	-0.148
-410.355	-200.000	-0.025	-0.156
-409.340	-19.867	-0.075	-0.046
-408.325	101.471	-0.120	0.140
-407.311	-25.185	-0.143	-0.084
-406.296	-18.612	-0.096	0.060
-405.282	25.097	-0.082	-0.067
-404.267	-200.000	-0.019	0.209
-403.252	-54.125	-0.111	-0.050
-402.238	-136.352	-0.016	-0.002
-401.223	-200.000	0.013	0.238
-400.209	-168.363	0.266	0.010
-399.194	-158.546	0.169	-0.010
-398.179	800.000	-0.032	0.133
-397.165	-13.939	0.106	0.068
-396.150	-97.846	0.073	-0.019
-395.136	-66.181	0.052	0.021
-394.121	30.873	0.265	0.226
-393.106	-84.767	0.120	-0.038
-392.092	107.786	0.133	-0.158
-391.077	-83.501	-0.225	-0.072
-390.063	-22.938	0.265	-0.159
-389.048	-95.736	0.159	-0.042
-388.033	331.117	0.085	0.163
-387.019	-78.323	-0.402	-0.137
-386.004	-200.000	0.019	0.107
-384.990	-66.830	0.145	-0.057
-383.975	-143.802	-0.092	-0.009
-382.960	-200.000	0.053	0.527
-381.946	49.854	0.148	0.139
-380.931	-14.516	0.074	0.047
-379.917	-89.575	-0.119	0.035
-378.902	-1.047	-0.201	-0.141
-377.888	800.000	-0.070	0.243
-376.873	2.468	0.250	0.180
-375.858	85.592	0.218	-0.239
-374.844	176.554	-0.088	0.127
-373.829	-200.000	-0.016	0.235
-372.815	-200.000	0.244	-0.001
-371.800	-175.942	0.467	-0.012
-370.785	319.002	0.035	0.066
-369.771	-200.000	0.020	-0.295
-368.756	603.114	-0.078	0.194
-367.742	32.505	0.047	-0.040
-366.727	-65.109	0.196	-0.079
-365.712	-200.000	-0.122	0.001
-364.698	800.000	0.098	-0.395
-363.683	-200.000	-0.045	-0.329
-362.669	119.617	0.129	0.159
-361.654	-50.122	-0.273	-0.129
-360.639	-33.971	0.226	-0.124
-359.625	-200.000	-0.022	-0.370
-358.610	112.037	-0.068	0.082
-357.596	650.897	-0.046	0.116
-356.581	-118.350	-0.414	0.073
-355.566	-200.000	0.042	-0.201
-354.552	-132.503	0.168	0.021
-353.537	24.967	-0.162	0.133
-352.523	481.411	0.065	0.146
-351.508	-40.743	-0.130	-0.067
-350.493	82.604	0.012	-0.013
-349.479	95.820	-0.146	-0.166
-348.464	269.262	-0.085	0.149
-347.450	-11.783	-0.270	-0.176
-346.435	-132.780	-0.500	-0.063
-345.420	-15.015	0.264	-0.168
-344.406	193.770	0.375	-0.564
-343.391	-171.868	0.116	-0.004
-342.377	-58.905	0.158	0.068
-341.362	17.274	0.041	0.032
-340.348	190.081	0.053	-0.080
-339.333	-85.360	-0.379	-0.117
-338.318	105.792	0.086	0.100
-337.304	-13.202	0.164	-0.105
-336.289	800.000	0.054	0.178
-335.275	60.225	0.133	0.130
-334.260	608.353	0.097	-0.240
-333.245	725.452	0.145	0.383
-332.231	376.860	-0.062	-0.126
-331.216	-163.900	0.246	0.011
-330.202	584.903	0.057	0.138
-329.187	204.693	-0.093	-0.144
-328.172	101.552	-0.166	0.192
-327.158	245.089	0.280	-0.468
-326.143	800.000	-0.012	0.046
-325.129	-33.450	-0.195	0.107
-324.114	341.702	-0.075	0.146
-323.099	-72.810	-0.206	-0.075
-322.085	1.824	0.285	0.204
-321.070	78.695	-0.021	0.022
-320.056	-166.357	-0.300	-0.013
-319.041	1.782	-0.251	-0.180
-318.026	-109.149	-0.175	0.037
-317.012	53.645	0.156	0.148
-315.997	-42.386	-0.289	-0.146
-314.983	223.653	-0.172	-0.275
-313.968	-200.000	0.012	0.082
-312.953	800.000	0.057	-0.159
-311.939	800.000	-0.137	-0.376
-310.924	-173.989	0.238	0.007
-309.910	95.603	0.198	-0.224
-308.895	5.111	-0.075	-0.055
-307.880	-34.090	-0.154	-0.084
-306.866	161.467	0.029	-0.041
-305.851	-52.202	0.177	-0.081
-304.837	-98.249	-0.284	0.072
-303.822	-89.596	0.110	-0.032
-302.807	800.000	0.042	-0.127
-301.793	-91.795	-0.094	0.026
-300.778	40.623	0.034	0.030
-299.764	35.466	-0.101	-0.088
-298.749	-102.586	0.280	-0.066
-297.735	60.645	-0.122	-0.120
-296.720	252.660	-0.144	-0.244
-295.705	-92.644	0.388	0.108
-294.691	-19.573	-0.145	-0.089
-293.676	53.495	0.191	-0.181
-292.662	179.668	-0.230	0.334
-291.647	-200.000	-0.018	0.195
-290.632	-152.520	-0.241	-0.017
-289.618	-200.000	-0.034	-0.160
-288.603	-159.348	0.070	-0.004
-287.589	-130.925	0.203	-0.027
-286.574	-72.769	0.315	-0.115
-285.559	800.000	0.032	-0.133
-284.545	-136.585	-0.153	0.018
-283.530	475.085	-0.060	-0.134
-282.516	-44.429	0.100	0.049
-281.501	800.000	0.037	0.156
-280.486	800.000	0.098	0.368
-279.472	102.308	0.099	-0.115
-278.457	67.734	0.160	-0.162
-277.443	-4.234	0.168	-0.115
-276.428	150.788	-0.066	0.089
-275.413	800.000	-0.028	-0.115
-274.399	57.413	0.373	-0.361
-273.384	243.403	0.160	-0.265
-272.370	134.527	0.099	0.128
-271.355	-37.842	0.147	-0.078
-270.340	-148.931	0.012	0.001
-269.326	99.802	-0.104	-0.120
-268.311	-190.675	-0.200	-0.002
-267.297	117.865	0.190	-0.232
-266.282	-72.735	0.122	-0.045
-265.267	-200.000	-0.015	0.103
-264.253	-13.490	-0.193	0.124
-263.238	-54.093	0.369	0.166
-262.224	-1.775	-0.077	0.054
-261.209	-48.842	0.044	0.021
-260.195	-200.000	-0.002	-0.132
-259.180	34.942	-0.266	0.230
-258.165	114.625	0.075	0.090
-257.151	105.300	-0.268	0.313
-256.136	-110.052	0.140	0.029
-255.122	-20.034	-0.102	-0.062
-254.107	-191.017	-0.062	-0.001
-253.092	-126.806	0.235	-0.034
-252.078	152.368	-0.097	0.131
-251.063	-200.000	-0.036	-0.287
-250.049	23.524	-0.162	-0.132
-249.034	-9.970	0.121	-0.079
-248.019	37.903	-0.139	-0.122
-247.005	-160.636	0.049	0.003
-245.990	47.896	-0.293	0.271
-244.976	-76.086	-0.271	-0.095
-243.961	-200.000	0.029	0.310
-242.946	-10.713	-0.272	0.178
-241.932	800.000	0.094	-0.269
-240.917	-101.757	-0.267	0.064
-239.903	-115.437	0.302	-0.056
-238.888	800.000	-0.080	0.236
-237.873	-107.954	0.353	0.076
-236.859	63.885	-0.236	-0.235
-235.844	-200.000	-0.019	0.243
-234.830	623.861	-0.049	-0.122
-233.815	222.507	0.110	0.175
-232.800	-90.298	-0.263	-0.076
-231.786	-5.218	0.377	0.256
-230.771	-99.328	0.492	-0.123
-229.757	-200.000	-0.003	-0.294
-228.742	-117.004	-0.106	0.019
-227.727	347.854	0.067	0.130
-226.713	235.912	0.087	-0.142
-225.698	-200.000	0.016	0.120
-224.684	-200.000	0.030	-0.149
-223.669	-33.316	-0.062	-0.034
-222.655	355.779	-0.167	0.328
-221.640	-116.931	-0.076	0.014
-220.625	18.744	-0.332	-0.263
-219.611	-200.000	0.038	-0.177
-218.596	-76.292	0.143	0.050
-217.582	-73.009	0.153	0.055
-216.567	-154.238	0.035	0.002
-215.552	115.456	0.093	-0.112
-214.538	40.972	-0.227	-0.203
-213.523	-95.851	-0.331	-0.087
-212.509	-200.000	0.000	0.131
-211.494	136.676	-0.178	-0.230
-210.479	-76.972	-0.201	0.069
-209.465	-7.836	0.181	-0.120
-208.450	118.448	0.072	0.088
-207.436	149.774	0.034	-0.046
-206.421	-49.451	0.201	-0.095
-205.406	5.714	-0.370	0.270
-204.392	-200.000	-0.013	0.222
-203.377	-200.000	-0.006	0.194
-202.363	649.712	-0.121	0.305
-201.348	-29.615	0.211	0.119
-200.333	800.000	0.124	0.341
-199.319	-56.533	0.160	0.070
-198.304	52.030	-0.279	-0.262
-197.290	-20.498	-0.250	-0.152
-196.275	278.528	-0.112	0.197
-195.260	-162.178	-0.283	-0.014
-194.246	-121.561	-0.090	-0.015
-193.231	16.213	-0.099	-0.077
-192.217	41.598	-0.320	0.286
-191.202	-35.219	0.086	-0.046
-190.187	-200.000	-0.071	0.420
-189.173	170.635	-0.090	0.127
-188.158	-161.179	0.125	-0.006
-187.144	19.540	0.210	-0.166
-186.129	0.426	0.341	-0.240
-185.114	-200.000	-0.030	-0.321
-184.100	-69.601	0.120	0.045
-183.085	70.092	-0.249	-0.254
-182.071	404.605	-0.143	-0.297
-181.056	8.065	0.147	-0.109
-180.042	-61.216	0.114	0.047
-179.027	800.000	-0.149	0.450
-178.012	121.031	-0.095	-0.117
-176.998	800.000	0.038	-0.129
-175.983	-50.229	0.314	-0.146
-174.969	33.654	-0.124	0.107
-173.954	-122.056	-0.149	-0.024
-172.939	-9.425	0.350	0.230
-171.925	-65.105	-0.229	-0.091
-170.910	-168.151	0.377	-0.014
-169.896	-146.106	-0.134	0.012
-168.881	-113.861	0.207	-0.040
-167.866	411.260	0.108	0.226
-166.852	-26.287	-0.144	-0.084
-165.837	-68.136	0.118	0.045
-164.823	-200.000	-0.019	0.297
-163.808	800.000	-0.036	0.107
-162.793	-200.000	-0.021	0.159
-161.779	-14.049	0.346	0.220
-160.764	73.398	-0.110	0.114
-159.750	-200.000	0.044	0.229
-158.735	-62.443	-0.056	0.023
-157.720	-0.681	-0.217	-0.152
-156.706	50.969	0.098	0.091
-155.691	94.518	-0.209	-0.234
-154.677	-67.594	-0.303	0.117
-153.662	-186.014	0.322	0.005
-152.647	-136.222	-0.280	-0.032
-151.633	495.593	-0.052	0.117
-150.618	434.320	-0.042	-0.091
-149.604	371.822	-0.071	-0.142
-148.589	800.000	-0.170	0.515
-147.574	-192.495	-0.202	0.002
-146.560	12.118	-0.161	0.122
-145.545	-113.235	-0.247	-0.048
-144.531	-79.920	0.107	0.036
-143.516	-120.443	0.373	0.063
-142.502	347.927	-0.121	-0.236
-141.487	-153.371	0.358	-0.025
-140.472	800.000	-0.021	0.086
-139.458	800.000	-0.074	0.316
-138.443	800.000	-0.036	-0.152
-137.429	-194.437	-0.066	0.001
-136.414	-140.714	0.316	-0.032
-135.399	-161.220	0.236	0.012
-134.385	143.661	0.173	0.227
-133.370	-4.109	0.077	-0.053
-132.356	-165.649	0.169	0.007
-131.341	-17.504	-0.099	-0.061
-130.326	800.000	-0.036	-0.107
-129.312	800.000	0.102	0.373
-128.297	-77.455	0.300	0.103
-127.283	800.000	0.019	0.058
-126.268	-62.511	0.286	0.117
-125.253	-14.919	-0.114	0.072
-124.239	120.606	0.077	-0.094
-123.224	125.214	0.302	-0.375
-122.210	-200.000	0.040	0.502
-121.195	-148.755	0.252	0.020
-120.180	-200.000	-0.003	-0.180
-119.166	-27.250	0.141	-0.081
-118.151	-21.647	-0.131	-0.079
-117.137	380.126	0.131	0.264
-116.122	-50.825	-0.248	-0.115
-115.107	-116.559	0.139	0.025
-114.093	18.972	0.391	0.309
-113.078	164.214	-0.224	-0.310
-112.064	134.793	0.235	-0.300
-111.049	-96.274	-0.113	-0.029
-110.034	-69.055	-0.181	0.068
-109.020	-120.407	0.167	-0.028
-108.005	-200.000	-0.032	0.147
-106.991	-200.000	0.008	0.140
-105.976	-200.000	-0.036	0.226
-104.962	800.000	0.048	0.161
-103.947	648.563	0.057	0.144
-102.932	-181.814	0.130	-0.002
-101.918	1.567	-0.178	0.126
-100.903	-109.514	0.529	0.110
-99.889	-132.483	-0.031	0.004
-98.874	-200.000	-0.003	-0.049
-97.859	75.140	-0.180	0.187
-96.845	201.616	-0.077	0.117
-95.830	-200.000	-0.018	0.106
-94.816	800.000	-0.075	0.268
-93.801	-75.036	-0.074	0.026
-92.786	-200.000	0.055	0.313
-91.772	314.812	-0.061	0.112
-90.757	-200.000	0.014	-0.160
-89.743	-149.695	-0.093	-0.007
-88.728	-200.000	-0.006	0.048
-87.713	-200.000	0.027	0.283
-86.699	-21.294	0.233	-0.140
-85.684	32.735	0.071	0.060
-84.670	57.632	0.070	0.067
-83.655	-74.814	-0.134	-0.047
-82.640	-200.000	-0.025	0.239
-81.626	-69.913	-0.200	0.075
-80.611	-158.905	0.078	0.004
-79.597	16.742	0.230	-0.179
-78.582	-200.000	-0.005	-0.158
-77.567	-17.806	0.065	-0.040
-76.553	-67.286	0.107	-0.041
-75.538	800.000	-0.026	-0.090
-74.524	28.090	0.363	0.301
-73.509	-200.000	0.015	-0.304
-72.494	68.881	-0.155	0.156
-71.480	800.000	0.083	0.239
-70.465	273.653	0.149	-0.259
-69.451	51.950	-0.054	0.050
-68.436	-80.895	0.180	0.059
-67.422	-200.000	0.034	-0.467
-66.407	-64.262	-0.323	0.129
-65.392	165.137	0.184	-0.255
-64.378	-200.000	0.003	0.246
-63.363	-31.299	0.381	0.211
-62.349	-128.738	-0.053	-0.007
-61.334	58.332	-0.827	-0.797
-60.319	355.291	0.302	0.591
-59.305	800.000	-0.236	-0.848
-58.290	505.195	0.630	1.434
-57.276	800.000	0.440	1.616
-56.261	-200.000	96.231	576.372
-55.246	560.129	1375.801	3263.128
-54.232	160.325	2558.835	3504.037
-53.217	106.253	2268.079	2638.239
-52.203	42.038	1893.378	1687.146
-51.188	36.248	1682.631	1455.766
-50.173	33.478	1638.618	1397.236
-49.159	51.064	1684.670	1568.237
-48.144	52.600	1701.341	1595.169
-47.130	35.913	1661.062	1434.377
-46.115	33.011	1646.958	1400.660
-45.100	32.872	1642.012	1395.377
-44.086	32.741	1639.901	1392.554
-43.071	32.710	1637.314	1390.078
-42.057	32.660	1634.975	1387.664
-41.042	32.710	1632.920	1386.239
-40.027	32.751	1630.719	1384.617
-39.013	32.737	1628.635	1382.688
-37.998	32.731	1627.107	1381.288
-36.984	32.787	1625.872	1380.598
-35.969	32.822	1624.665	1379.776
-34.954	32.892	1623.246	1379.022
-33.940	32.909	1620.870	1377.077
-32.925	32.888	1619.060	1375.328
-31.911	32.827	1617.808	1373.768
-30.896	32.879	1615.721	1372.316
-29.881	32.824	1614.134	1370.520
-28.867	32.885	1612.684	1369.676
-27.852	32.891	1610.809	1368.068
-26.838	32.719	1610.156	1366.217
-25.823	32.911	1608.308	1365.980
-24.809	32.925	1606.834	1364.777
-23.794	32.945	1605.081	1363.381
-22.779	32.957	1603.444	1362.021
-21.765	32.846	1602.326	1360.217
-20.750	32.859	1600.934	1359.076
-19.736	32.932	1598.894	1357.816
-18.721	32.873	1597.803	1356.413
-17.706	32.920	1596.432	1355.533
-16.692	32.914	1594.742	1353.998
-15.677	32.801	1593.826	1352.356
-14.663	32.983	1592.315	1352.328
-13.648	32.894	1590.701	1350.262
-12.633	32.916	1588.884	1348.824
-11.619	32.872	1587.723	1347.472
-10.604	32.954	1586.519	1346.985
-9.590	32.941	1585.368	1345.859
-8.575	33.003	1583.375	1344.552
-7.560	32.994	1582.121	1343.372
-6.546	32.880	1581.236	1341.754
-5.531	32.897	1580.200	1340.944
-4.517	32.882	1579.121	1339.871
-3.502	32.859	1578.248	1338.912
-2.487	32.876	1576.423	1337.429
-1.473	32.682	1564.340	1325.763
-0.458	30.029	1545.029	1290.887
0.556	27.004	1545.445	1260.997
1.571	24.805	1569.531	1265.009
2.586	24.355	1582.667	1272.279
3.600	21.836	1529.911	1212.364
4.615	12.508	1419.648	1064.766
5.629	3.827	1352.948	960.882
6.644	2.134	1344.137	944.084
7.659	2.050	1343.138	942.774
8.673	2.020	1341.868	941.618
9.688	1.986	1340.025	940.033
10.702	1.691	1336.910	935.948
11.717	5.317	1343.980	963.199
12.731	15.599	1363.075	1040.782
13.746	23.964	1377.471	1103.822
14.761	26.181	1380.241	1119.709
15.775	26.437	1380.035	1121.024
16.790	26.533	1379.361	1120.975
17.804	26.632	1379.036	1121.222
18.819	26.803	1379.056	1122.197
19.834	26.894	1377.948	1121.761
20.848	26.954	1377.519	1121.682
21.863	26.964	1376.805	1121.061
22.877	27.000	1375.684	1120.276
23.892	27.028	1374.712	1119.558
24.907	26.869	1374.447	1118.264
25.921	27.000	1372.908	1117.720
26.936	27.056	1371.804	1117.066
27.950	27.010	1370.755	1115.828
28.965	26.900	1369.895	1114.353
29.980	26.916	1368.557	1113.268
30.994	26.985	1367.029	1112.349
32.009	26.889	1366.064	1110.876
33.023	26.983	1364.756	1110.287
34.038	26.862	1364.404	1109.164
35.053	26.985	1362.961	1108.646
36.067	26.969	1362.294	1107.906
37.082	26.965	1361.495	1107.133
38.096	26.955	1360.210	1105.931
39.111	26.977	1359.723	1105.567
40.126	26.934	1358.972	1104.599
41.140	26.956	1358.448	1104.209
42.155	26.973	1357.773	1103.669
43.169	26.973	1357.897	1103.670
44.184	26.943	1357.548	1103.109
45.199	26.884	1357.485	1102.599
46.213	26.891	1356.766	1101.961
47.228	26.990	1355.590	1101.505
48.242	26.970	1354.183	1100.144
49.257	26.997	1352.876	1099.150
50.271	26.952	1351.223	1097.439
51.286	26.998	1350.207	1096.795
52.301	26.929	1349.120	1095.398
53.315	26.947	1348.484	1094.890
54.330	26.922	1347.316	1093.698
55.344	26.941	1346.353	1092.930
56.359	26.934	1345.182	1091.840
57.374	26.967	1344.438	1091.339
58.388	26.950	1343.480	1090.365
59.403	26.916	1343.491	1090.073
60.417	27.000	1343.046	1090.121
61.432	26.894	1342.018	1088.551
62.447	27.040	1341.034	1088.536
63.461	27.011	1339.842	1087.299
64.476	27.001	1338.734	1086.243
65.490	27.032	1337.088	1084.993
66.505	26.936	1336.639	1083.964
67.520	26.877	1335.655	1082.714
68.534	27.035	1334.173	1082.358
69.549	26.918	1333.571	1081.080
70.563	27.010	1332.573	1080.720
71.578	26.961	1331.760	1079.672
72.593	26.934	1330.774	1078.617
73.607	26.938	1330.067	1077.974
74.622	26.976	1329.327	1077.508
75.636	27.092	1328.590	1077.501
76.651	26.932	1327.852	1075.860
77.666	26.952	1327.686	1075.746
78.680	26.897	1327.416	1075.108
79.695	26.997	1326.057	1074.502
80.709	27.000	1325.452	1073.932
81.724	26.958	1324.533	1072.849
82.739	27.039	1323.247	1072.191
83.753	26.985	1322.469	1071.144
84.768	26.857	1321.716	1069.688
85.782	26.954	1320.384	1069.085
86.797	26.943	1319.393	1068.125
87.812	26.995	1318.504	1067.613
88.826	26.922	1317.675	1066.422
89.841	27.044	1316.059	1065.734
90.855	27.163	1314.738	1065.268
91.870	27.147	1313.964	1064.452
92.884	26.981	1313.621	1063.107
93.899	27.081	1312.649	1062.810
94.914	27.051	1312.093	1062.090
95.928	27.060	1311.284	1061.396
96.943	27.132	1310.266	1060.897
97.957	26.992	1309.577	1059.428
98.972	26.959	1308.789	1058.507
99.987	27.003	1308.020	1058.045
101.001	27.037	1306.584	1056.989
102.016	27.074	1306.126	1056.739
103.030	26.994	1305.382	1055.578
104.045	26.971	1304.818	1054.900
105.060	27.018	1303.835	1054.282
106.074	27.000	1302.412	1052.935
107.089	27.041	1301.697	1052.500
108.103	27.081	1300.766	1051.884
109.118	27.142	1299.557	1051.166
110.133	27.093	1298.368	1049.830
111.147	27.032	1297.525	1048.705
112.162	27.125	1296.302	1048.161
113.176	27.048	1295.242	1046.766
114.191	27.134	1294.249	1046.365
115.206	27.193	1293.161	1045.731
116.220	27.046	1292.416	1044.191
117.235	26.942	1291.996	1043.162
118.249	27.050	1290.431	1042.430
119.264	27.087	1289.413	1041.726
120.279	27.250	1288.596	1041.908
121.293	27.031	1288.393	1040.394
122.308	27.104	1287.706	1040.166
123.322	27.117	1286.670	1039.310
124.337	27.173	1286.097	1039.076
125.352	27.170	1284.843	1037.957
126.366	27.160	1284.349	1037.410
127.381	27.066	1283.548	1036.132
128.395	27.175	1282.318	1035.666
129.410	27.115	1282.121	1035.079
130.424	27.167	1281.016	1034.390
131.439	27.148	1280.388	1033.681
132.454	27.169	1279.204	1032.756
133.468	27.066	1278.791	1031.747
134.483	27.119	1278.188	1031.467
135.497	27.171	1277.224	1030.893
136.512	27.148	1276.214	1029.856
137.527	27.251	1274.916	1029.301
138.541	27.137	1273.685	1027.573
139.556	27.122	1272.837	1026.710
140.570	27.123	1271.943	1025.903
141.585	27.073	1270.788	1024.603
142.600	27.136	1269.681	1023.975
143.614	27.153	1268.636	1023.134
144.629	27.073	1267.971	1022.059
145.643	27.003	1267.049	1020.830
146.658	27.112	1265.868	1020.398
147.673	27.125	1264.856	1019.570
148.687	27.080	1263.851	1018.414
149.702	27.079	1262.640	1017.342
150.716	27.078	1261.899	1016.650
151.731	27.037	1261.133	1015.716
152.746	27.120	1260.165	1015.308
153.760	27.173	1258.640	1014.285
154.775	27.031	1258.316	1013.141
155.789	27.143	1257.206	1012.783
156.804	27.153	1256.210	1011.947
157.819	27.125	1255.342	1011.006
158.833	27.127	1254.763	1010.461
159.848	27.164	1253.934	1009.905
160.862	27.258	1253.413	1009.918
161.877	27.257	1252.119	1008.786
162.892	27.233	1251.428	1008.003
163.906	27.296	1250.719	1007.692
164.921	27.283	1249.888	1006.861
165.935	27.238	1249.579	1006.275
166.950	27.302	1249.074	1006.134
167.964	27.266	1248.350	1005.260
168.979	27.205	1247.847	1004.430
169.994	27.174	1247.360	1003.779
171.008	27.210	1246.909	1003.526
172.023	27.245	1246.125	1003.001
173.037	27.226	1245.023	1001.917
174.052	27.200	1244.224	1001.041
175.067	27.235	1243.441	1000.516
176.081	27.281	1242.733	1000.115
177.096	27.370	1241.480	999.507
178.110	27.230	1241.088	998.330
179.125	27.259	1239.836	997.395
180.140	27.337	1238.660	996.787
181.154	27.360	1237.330	995.757
182.169	27.202	1236.992	994.533
183.183	27.275	1235.763	993.853
184.198	27.429	1234.810	993.841
185.213	27.358	1233.898	992.634
186.227	27.411	1233.092	992.184
187.242	27.323	1232.437	991.089
188.256	27.322	1231.569	990.298
189.271	27.312	1230.676	989.440
190.286	27.406	1229.878	989.220
191.300	27.264	1229.800	988.299
192.315	27.237	1229.405	987.747
193.329	27.431	1228.310	987.834
194.344	27.456	1227.779	987.452
195.359	27.493	1227.253	987.144
196.373	27.351	1227.262	986.293
197.388	27.268	1226.701	985.308
198.402	27.408	1226.058	985.462
199.417	27.384	1225.739	984.986
200.432	27.333	1225.227	984.212
201.446	27.351	1224.702	983.799
202.461	27.366	1223.585	982.896
203.475	27.377	1223.278	982.622
204.490	27.275	1222.244	981.154
205.504	27.359	1221.167	980.659
206.519	27.521	1219.724	980.283
207.534	27.515	1218.940	979.533
208.548	27.358	1218.433	978.198
209.563	27.462	1217.655	978.044
210.577	27.417	1217.107	977.274
211.592	27.430	1216.229	976.553
212.607	27.551	1215.053	976.170
213.621	27.605	1214.430	975.872
214.636	27.517	1214.131	975.075
215.650	27.446	1213.357	973.989
216.665	27.391	1212.077	972.582
217.680	27.414	1211.056	971.798
218.694	27.462	1210.652	971.643
219.709	27.561	1209.792	971.394
220.723	27.499	1209.289	970.575
221.738	27.330	1208.436	968.903
222.753	27.395	1207.783	968.644
223.767	27.350	1207.557	968.133
224.782	27.487	1207.013	968.341
225.796	27.561	1206.043	967.874
226.811	27.619	1205.143	967.374
227.826	27.629	1205.191	967.379
228.840	27.575	1204.063	966.100
229.855	27.577	1203.685	965.721
230.869	27.658	1202.862	965.403
231.884	27.641	1202.047	964.575
232.899	27.552	1201.671	963.719
233.913	27.469	1201.382	962.961
234.928	27.607	1200.039	962.529
235.942	27.799	1199.423	962.964
236.957	27.463	1199.584	961.232
237.972	27.648	1198.690	961.409
238.986	27.601	1197.987	960.513
240.001	27.711	1197.047	960.251
241.015	27.737	1196.531	959.889
242.030	27.805	1195.527	959.356
243.045	27.744	1194.471	958.106
244.059	27.784	1193.895	957.767
245.074	27.722	1193.598	957.116
246.088	27.856	1192.389	956.765
247.103	27.718	1192.064	955.696
248.117	27.846	1191.017	955.447
249.132	27.816	1189.997	954.384
250.147	27.849	1189.713	954.245
251.161	27.685	1189.573	953.192
252.176	27.795	1188.239	952.614
253.190	27.822	1188.045	952.515
254.205	27.799	1187.100	951.549
255.220	27.928	1186.652	951.780
256.234	27.863	1185.892	950.749
257.249	27.909	1185.371	950.483
258.263	27.803	1184.887	949.464
259.278	27.930	1184.335	949.598
260.293	27.863	1184.097	948.973
261.307	27.936	1183.218	948.562
262.322	27.943	1182.334	947.808
263.336	27.854	1182.043	947.030
264.351	27.877	1181.134	946.335
265.366	27.882	1180.636	945.879
266.380	27.803	1180.465	945.251
267.395	27.857	1179.299	944.513
268.409	27.885	1178.620	944.029
269.424	27.873	1178.070	943.441
270.439	27.915	1177.408	943.047
271.453	27.864	1177.186	942.518
272.468	27.881	1176.371	941.874
273.482	27.929	1175.280	941.162
274.497	27.946	1175.177	941.085
275.512	27.924	1174.714	940.518
276.526	28.068	1173.687	940.350
277.541	27.931	1173.324	939.273
278.555	28.041	1172.589	939.168
279.570	28.047	1171.670	938.379
280.585	28.015	1170.991	937.587
281.599	28.110	1169.738	936.990
282.614	28.009	1169.531	936.223
283.628	28.070	1168.274	935.445
284.643	28.152	1167.523	935.181
285.657	27.995	1167.082	933.941
286.672	27.957	1166.471	933.178
287.687	28.014	1165.367	932.501
288.701	28.173	1164.514	932.546
289.716	28.062	1163.903	931.411
290.730	28.142	1163.341	931.286
291.745	28.162	1162.657	930.756
292.760	28.090	1162.610	930.273
293.774	28.267	1161.700	930.362
294.789	28.254	1160.871	929.548
295.803	28.213	1160.586	929.031
296.818	28.183	1159.880	928.229
297.833	28.203	1159.241	927.738
298.847	28.261	1158.427	927.299
299.862	28.233	1157.518	926.348
300.876	28.282	1156.963	926.069
301.891	28.197	1156.845	925.464
302.906	28.274	1155.786	924.920
303.920	28.273	1155.304	924.450
304.935	28.268	1154.917	924.032
305.949	28.274	1154.037	923.279
306.964	28.353	1153.354	923.049
307.979	28.305	1153.016	922.451
308.993	28.188	1152.580	921.434
310.008	28.457	1151.314	921.692
311.022	28.426	1150.678	920.945
312.037	28.276	1150.167	919.705
313.052	28.425	1149.193	919.591
314.066	28.435	1148.259	918.811
315.081	28.357	1147.332	917.598
316.095	28.360	1147.164	917.398
317.110	28.324	1146.811	916.852
318.125	28.379	1145.907	916.325
319.139	28.381	1145.309	915.775
320.154	28.528	1144.317	915.635
321.168	28.455	1143.957	914.903
322.183	28.412	1143.335	914.108
323.197	28.401	1142.941	913.659
324.212	28.318	1142.445	912.767
325.227	28.454	1142.335	913.275
326.241	28.505	1141.236	912.572
327.256	28.486	1140.745	912.005
328.270	28.466	1139.825	911.085
329.285	28.658	1138.864	911.193
330.300	28.574	1138.077	910.062
331.314	28.388	1137.430	908.546
332.329	28.442	1136.745	908.184
333.343	28.640	1135.953	908.451
334.358	28.643	1135.331	907.888
335.373	28.673	1134.751	907.493
336.387	28.677	1133.631	906.535
337.402	28.695	1133.115	906.131
338.416	28.765	1132.717	906.078
339.431	28.620	1132.293	904.946
340.446	28.535	1131.937	904.160
341.460	28.733	1130.600	903.989
342.475	28.703	1129.817	903.135
343.489	28.704	1129.479	902.788
344.504	28.661	1128.480	901.700
345.519	28.777	1127.552	901.445
346.533	28.723	1126.818	900.516
347.548	28.744	1126.224	900.062
348.562	28.845	1125.366	899.794
349.577	28.805	1124.702	898.986
350.592	28.745	1124.060	898.099
351.606	28.735	1123.135	897.233
352.621	28.809	1122.763	897.218
353.635	28.870	1122.150	896.948
354.650	28.879	1121.600	896.474
355.665	28.856	1120.828	895.661
356.679	28.817	1120.162	894.860
357.694	28.872	1119.777	894.742
358.708	28.829	1119.152	893.954
359.723	28.756	1118.376	892.903
360.738	28.785	1117.924	892.600
361.752	28.957	1117.129	892.725
362.767	28.994	1116.644	892.435
363.781	28.904	1116.104	891.492
364.796	28.956	1115.757	891.386
365.810	28.969	1114.876	890.664
366.825	28.945	1114.811	890.420
367.840	29.025	1113.968	890.052
368.854	29.084	1113.326	889.746
369.869	29.002	1112.864	888.903
370.883	29.036	1111.841	888.169
371.898	28.976	1111.366	887.426
372.913	29.040	1110.680	887.107
373.927	29.117	1110.604	887.337
374.942	29.191	1109.797	886.972
375.956	29.130	1109.017	885.975
376.971	29.116	1108.617	885.511
377.986	29.102	1108.187	885.024
379.000	29.105	1108.009	884.817
380.015	29.078	1107.250	884.000
381.029	29.113	1106.112	883.183
382.044	29.198	1105.725	883.201
383.059	29.178	1105.092	882.521
384.073	29.122	1104.394	881.618
385.088	29.146	1103.685	881.091
386.102	29.281	1102.866	881.003
387.117	29.104	1101.754	879.193
388.132	29.224	1100.916	879.017
389.146	29.165	1100.540	878.360
390.161	29.224	1099.850	878.014
391.175	29.136	1099.373	877.133
392.190	29.309	1098.405	877.110
393.205	29.247	1097.907	876.339
394.219	29.292	1097.294	875.985
395.234	29.295	1096.547	875.327
396.248	29.141	1095.822	873.938
397.263	29.389	1094.673	874.119
398.278	29.440	1093.828	873.611
399.292	29.386	1093.878	873.315
400.307	29.294	1093.324	872.363
401.321	29.356	1092.640	872.029
402.336	29.318	1091.886	871.171
403.350	29.381	1091.085	870.754
404.365	29.390	1090.516	870.265
405.380	29.298	1090.182	869.487
406.394	29.417	1089.059	869.077
407.409	29.364	1088.377	868.206
408.423	29.514	1087.872	868.429
409.438	29.474	1087.115	867.561
410.453	29.634	1086.092	867.419
411.467	29.471	1086.023	866.525
412.482	29.526	1084.907	865.812
413.496	29.524	1084.414	865.334
414.511	29.467	1083.753	864.462
415.526	29.532	1083.503	864.491
416.540	29.613	1083.095	864.471
417.555	29.571	1082.657	863.847
418.569	29.566	1082.247	863.420
419.584	29.712	1081.397	863.347
420.599	29.627	1081.385	862.864
421.613	104.053	1320.742	1456.062
422.628	96.777	1355.590	1456.176
