DTS Sentinel unit serial number:	SN413079Multiplexer serial number:	ORYXHardware model number:	OX4-SRSoftware version number:	ORYX F/W v4.00 Oryx Data Collector v3.7.2.0data status	okinstallation	princeton_trtdifferential loss correction	single-endedforward channel	channel 2reverse channel	N/Adate	2019/09/11time	07:17:10forward acquisition time	60.00reverse acquisition time	0.00gamma	496.2192k internal	0.2327k external	0.2327temperature offset calibration	0.9940default loss term (dB/km)	0.3790temperature slope calibration	1.0000multiplexer offset coefficient	1.0000multiplexer slope coefficient	1.0000fibre end	0.00T internal ref (°C)	30.62T ext. ref 1 (°C)	-0.05T ext. ref 2 (°C)	27.06length (m)	temperature (°C)	Stokes	anti-Stokes-747.200	-34.676	0.190	-0.105
-746.185	-75.627	-0.452	0.162
-745.171	144.126	-0.162	-0.218
-744.156	800.000	0.055	0.171
-743.142	36.355	0.318	0.283
-742.127	-200.000	0.007	0.559
-741.112	-77.341	0.120	0.042
-740.098	-4.524	0.162	0.113
-739.083	165.297	0.154	-0.219
-738.069	145.455	0.166	0.224
-737.054	-200.000	-0.088	0.416
-736.039	106.665	-0.089	-0.106
-735.025	54.279	0.250	0.242
-734.010	800.000	-0.056	0.232
-732.996	171.022	-0.281	-0.405
-731.981	81.025	0.234	-0.255
-730.966	585.567	0.121	-0.300
-729.952	800.000	0.011	-0.038
-728.937	107.487	-0.159	0.191
-727.923	160.610	-0.137	0.193
-726.908	-44.786	-0.086	-0.043
-725.894	47.363	-0.133	-0.124
-724.879	218.767	-0.124	-0.200
-723.864	-162.765	0.303	0.015
-722.850	105.670	-0.090	-0.107
-721.835	229.779	-0.058	0.096
-720.821	118.763	0.092	0.115
-719.806	594.875	-0.093	-0.231
-718.791	208.512	-0.118	-0.187
-717.777	-157.839	-0.290	0.017
-716.762	-130.669	-0.141	-0.019
-715.748	477.288	-0.042	0.096
-714.733	-124.806	-0.288	-0.045
-713.718	-136.409	0.036	-0.004
-712.704	-54.121	0.255	-0.117
-711.689	-200.000	-0.030	-0.220
-710.675	800.000	-0.068	0.259
-709.660	69.087	0.157	0.162
-708.645	-200.000	-0.025	0.286
-707.631	30.772	0.183	0.157
-706.616	-25.606	0.011	0.007
-705.602	-200.000	0.017	0.192
-704.587	440.094	0.239	0.525
-703.572	-168.118	0.096	-0.004
-702.558	568.347	0.105	-0.256
-701.543	643.089	0.037	-0.095
-700.529	177.081	-0.114	0.166
-699.514	447.490	0.107	-0.238
-698.499	-174.061	0.079	-0.002
-697.485	-55.881	0.095	-0.043
-696.470	-200.000	-0.008	-0.438
-695.456	-5.577	-0.115	-0.079
-694.441	-63.744	0.216	-0.089
-693.426	-21.015	0.069	0.042
-692.412	-72.372	0.060	-0.023
-691.397	610.655	-0.095	-0.240
-690.383	68.979	-0.098	-0.101
-689.368	154.229	-0.160	-0.221
-688.354	-74.050	0.098	-0.036
-687.339	-80.268	-0.043	-0.015
-686.324	-69.803	-0.120	0.046
-685.310	152.340	-0.104	0.142
-684.295	-200.000	-0.042	-0.290
-683.281	800.000	-0.043	0.140
-682.266	-122.962	-0.216	0.035
-681.251	-200.000	0.031	-0.165
-680.237	800.000	0.052	-0.183
-679.222	-70.436	0.102	0.039
-678.208	392.038	0.069	-0.144
-677.193	-12.119	-0.263	-0.173
-676.178	-64.206	0.114	-0.047
-675.164	-161.720	0.126	0.006
-674.149	433.922	-0.080	0.175
-673.135	-85.948	0.321	-0.100
-672.120	101.579	0.194	0.227
-671.105	91.428	0.166	-0.187
-670.091	-200.000	-0.029	-0.356
-669.076	-200.000	0.018	-0.118
-668.062	-134.712	-0.239	-0.029
-667.047	-200.000	0.041	-0.333
-666.032	330.596	0.035	-0.068
-665.018	-32.309	0.084	0.047
-664.003	-136.747	0.229	0.027
-662.989	-1.735	0.252	-0.178
-661.974	506.975	-0.046	-0.108
-660.959	-105.286	-0.064	-0.015
-659.945	-93.264	0.111	-0.031
-658.930	-200.000	-0.046	-0.308
-657.916	353.887	0.072	-0.144
-656.901	403.111	-0.209	0.442
-655.886	37.121	0.014	0.012
-654.872	79.506	0.041	-0.044
-653.857	-200.000	-0.001	0.071
-652.843	604.724	0.103	0.258
-651.828	-85.508	0.246	0.077
-650.814	-72.632	0.120	0.044
-649.799	-170.277	0.158	-0.006
-648.784	38.297	-0.301	-0.269
-647.770	60.266	-0.119	0.119
-646.755	-200.000	-0.002	-0.096
-645.741	75.182	-0.128	0.136
-644.726	-72.286	-0.189	0.070
-643.711	800.000	-0.067	-0.253
-642.697	-67.687	-0.135	0.053
-641.682	-82.187	0.079	0.026
-640.668	-36.264	-0.253	0.137
-639.653	-160.487	-0.470	0.025
-638.638	-200.000	-0.042	-0.357
-637.624	417.563	-0.140	-0.301
-636.609	103.865	0.076	-0.089
-635.595	-62.379	-0.346	0.144
-634.580	797.833	0.184	-0.510
-633.565	10.988	-0.245	0.188
-632.551	-80.046	-0.202	0.068
-631.536	697.458	0.066	-0.175
-630.522	-116.160	0.029	0.005
-629.507	63.458	0.069	-0.070
-628.492	31.944	0.114	-0.099
-627.478	297.552	0.052	-0.096
-626.463	-85.460	-0.213	-0.066
-625.449	800.000	0.060	-0.221
-624.434	-200.000	-0.040	-0.326
-623.419	-101.191	-0.334	0.082
-622.405	-27.229	0.250	-0.146
-621.390	-58.961	-0.107	-0.046
-620.376	-161.017	-0.272	0.014
-619.361	-28.093	0.139	0.080
-618.346	-130.970	0.247	-0.033
-617.332	95.871	-0.205	-0.235
-616.317	128.312	-0.080	-0.102
-615.303	-70.575	0.218	-0.083
-614.288	171.736	0.048	-0.070
-613.273	-107.609	-0.117	-0.026
-612.259	3.183	-0.236	-0.172
-611.244	758.330	0.037	-0.101
-610.230	-140.398	0.265	0.028
-609.215	-118.858	0.126	-0.022
-608.201	-62.592	-0.058	0.024
-607.186	-39.091	0.043	-0.023
-606.171	-34.529	-0.121	0.066
-605.157	800.000	-0.085	0.258
-604.142	32.258	0.272	-0.236
-603.128	13.946	0.274	-0.214
-602.113	6.485	-0.115	0.086
-601.098	142.015	-0.135	-0.180
-600.084	236.138	0.045	-0.074
-599.069	-200.000	0.020	-0.351
-598.055	218.113	0.182	-0.291
-597.040	-50.849	-0.168	-0.079
-596.025	800.000	0.033	-0.137
-595.011	-48.914	0.200	-0.096
-593.996	-119.949	0.141	0.024
-592.982	-69.049	0.554	-0.214
-591.967	-200.000	0.014	-0.083
-590.952	7.979	0.175	0.132
-589.938	112.343	0.175	0.212
-588.923	800.000	-0.090	-0.299
-587.909	52.214	-0.146	-0.139
-586.894	11.663	-0.218	0.167
-585.879	-5.438	0.071	-0.049
-584.865	149.834	0.081	0.110
-583.850	675.270	0.008	0.020
-582.836	200.331	-0.131	-0.201
-581.821	121.692	0.152	-0.189
-580.806	106.837	0.125	0.149
-579.792	800.000	0.097	-0.304
-578.777	-82.891	-0.261	0.084
-577.763	790.886	-0.047	-0.130
-576.748	39.682	-0.095	0.085
-575.733	-18.242	-0.030	0.019
-574.719	-8.683	0.090	0.060
-573.704	186.530	0.079	-0.118
-572.690	-68.123	-0.192	-0.075
-571.675	14.437	-0.125	0.098
-570.661	-200.000	-0.027	0.120
-569.646	56.940	0.214	0.209
-568.631	-200.000	0.022	-0.138
-567.617	-136.490	0.157	0.018
-566.602	-200.000	0.332	0.001
-565.588	-104.461	0.374	-0.087
-564.573	-83.693	-0.012	-0.004
-563.558	303.231	0.056	0.104
-562.544	-200.000	0.007	-0.051
-561.529	800.000	-0.058	0.192
-560.515	-40.573	0.287	-0.149
-559.500	155.098	0.142	-0.195
-558.485	-92.204	-0.296	-0.084
-557.471	174.239	0.217	0.314
-556.456	-102.947	-0.112	-0.027
-555.442	-200.000	0.006	-0.038
-554.427	8.212	-0.082	0.062
-553.412	141.202	-0.082	0.109
-552.398	5.343	-0.051	-0.038
-551.383	-12.366	0.157	0.103
-550.369	-200.000	0.026	0.253
-549.354	-200.000	-0.054	0.237
-548.339	-56.466	0.103	-0.046
-547.325	-200.000	-0.022	-0.316
-546.310	113.580	-0.023	0.027
-545.296	5.817	-0.074	0.055
-544.281	-103.430	-0.472	-0.111
-543.266	-61.415	-0.099	0.042
-542.252	60.028	-0.086	-0.085
-541.237	-200.000	-0.008	-0.148
-540.223	800.000	0.185	-0.519
-539.208	57.517	0.215	0.210
-538.193	-200.000	0.029	-0.336
-537.179	800.000	0.015	0.057
-536.164	-200.000	-0.006	0.033
-535.150	272.127	0.158	-0.279
-534.135	800.000	0.045	-0.125
-533.121	27.050	-0.155	-0.130
-532.106	-170.761	-0.111	-0.004
-531.091	-200.000	0.027	0.224
-530.077	-94.169	0.303	0.083
-529.062	-200.000	-0.037	-0.161
-528.048	-200.000	0.052	0.284
-527.033	-119.031	0.134	0.023
-526.018	-7.691	0.340	0.229
-525.004	67.844	-0.111	0.113
-523.989	7.411	-0.190	-0.142
-522.975	-200.000	-0.031	-0.159
-521.960	108.727	0.048	-0.057
-520.945	149.176	0.135	0.183
-519.931	-46.841	0.449	-0.219
-518.916	-182.183	0.330	0.006
-517.902	-94.007	-0.086	0.024
-516.887	-42.077	-0.080	0.041
-515.872	188.101	-0.159	0.237
-514.858	336.208	0.086	-0.166
-513.843	-101.510	0.152	-0.037
-512.829	97.276	0.239	0.275
-511.814	99.382	-0.223	0.258
-510.799	-60.496	0.123	-0.052
-509.785	800.000	-0.072	0.243
-508.770	800.000	0.098	0.389
-507.756	800.000	0.045	0.160
-506.741	-140.920	0.208	0.021
-505.726	-200.000	-0.039	0.470
-504.712	-77.186	-0.309	-0.108
-503.697	231.567	-0.084	-0.138
-502.683	-200.000	-0.041	-0.258
-501.668	-200.000	0.024	0.178
-500.653	-136.233	0.146	0.017
-499.639	-71.029	-0.350	-0.131
-498.624	49.832	-0.095	0.089
-497.610	-55.551	-0.165	0.074
-496.595	32.063	0.095	0.082
-495.581	-119.114	0.091	-0.016
-494.566	-200.000	-0.012	-0.098
-493.551	-17.515	-0.197	0.123
-492.537	-113.126	-0.158	-0.031
-491.522	55.504	-0.372	0.359
-490.508	67.175	-0.319	-0.325
-489.493	100.819	-0.016	-0.018
-488.478	89.744	-0.164	0.183
-487.464	99.199	0.149	-0.172
-486.449	-200.000	-0.019	0.183
-485.435	-28.063	-0.353	-0.204
-484.420	-31.735	0.270	0.151
-483.405	530.772	-0.024	0.057
-482.391	-118.390	0.043	-0.008
-481.376	-146.959	0.515	-0.044
-480.362	800.000	-0.065	-0.261
-479.347	-80.258	-0.197	-0.066
-478.332	800.000	-0.047	0.167
-477.318	-49.540	0.162	-0.077
-476.303	800.000	0.063	0.228
-475.289	47.092	0.281	-0.260
-474.274	-181.163	0.072	0.001
-473.259	57.206	-0.215	-0.209
-472.245	-139.631	-0.247	0.026
-471.230	-100.200	-0.231	0.057
-470.216	-105.548	0.200	0.045
-469.201	109.485	0.155	-0.185
-468.186	754.692	-0.121	0.327
-467.172	-133.846	-0.050	-0.006
-466.157	46.367	-0.200	0.185
-465.143	-59.594	0.195	0.084
-464.128	142.345	0.112	-0.148
-463.113	-100.383	-0.111	0.027
-462.099	-44.999	-0.195	-0.097
-461.084	-200.000	0.005	-0.279
-460.070	-200.000	0.039	-0.178
-459.055	72.925	-0.062	-0.064
-458.040	-35.475	-0.342	0.185
-457.026	78.908	0.290	0.309
-456.011	-6.366	0.251	0.171
-454.997	-200.000	-0.001	-0.092
-453.982	-200.000	-0.022	0.108
-452.968	-77.548	0.068	-0.023
-451.953	800.000	-0.041	0.114
-450.938	-200.000	-0.081	-0.367
-449.924	196.916	-0.144	-0.219
-448.909	800.000	-0.023	0.077
-447.895	800.000	-0.037	0.120
-446.880	-200.000	0.011	0.154
-445.865	-71.882	-0.394	0.146
-444.851	-59.521	0.336	-0.144
-443.836	214.368	0.159	-0.251
-442.822	-43.310	-0.204	-0.103
-441.807	-200.000	-0.010	0.066
-440.792	435.373	-0.083	-0.180
-439.778	64.452	0.060	-0.060
-438.763	-50.360	0.151	0.071
-437.749	207.871	0.028	0.044
-436.734	28.474	-0.056	0.047
-435.719	-147.296	0.061	0.005
-434.705	-16.093	0.259	0.164
-433.690	800.000	0.006	0.023
-432.676	6.505	-0.468	-0.346
-431.661	19.917	-0.244	0.196
-430.646	-80.086	0.150	-0.050
-429.632	103.975	-0.131	-0.153
-428.617	-25.393	0.156	-0.092
-427.603	-96.733	0.329	0.086
-426.588	-145.119	0.297	0.027
-425.573	339.316	0.074	0.144
-424.559	-134.971	0.265	-0.032
-423.544	-137.901	0.158	0.018
-422.530	-150.399	-0.098	-0.008
-421.515	289.020	0.132	-0.238
-420.500	99.033	0.216	-0.248
-419.486	-51.871	-0.269	0.125
-418.471	-200.000	-0.056	0.417
-417.457	-39.406	-0.142	0.074
-416.442	-200.000	-0.051	-0.309
-415.428	58.343	0.331	-0.323
-414.413	679.591	-0.055	-0.142
-413.398	-200.000	-0.035	0.223
-412.384	73.203	-0.185	0.193
-411.369	-125.706	-0.165	0.025
-410.355	800.000	-0.038	0.107
-409.340	-75.363	0.155	-0.055
-408.325	215.090	-0.252	0.398
-407.311	66.112	0.327	-0.330
-406.296	17.431	-0.228	0.180
-405.282	800.000	0.047	-0.145
-404.267	1.307	-0.109	-0.078
-403.252	-200.000	-0.008	-0.263
-402.238	-83.893	-0.341	0.108
-401.223	274.538	0.107	-0.189
-400.209	-200.000	0.005	0.179
-399.194	-200.000	0.014	0.251
-398.179	310.336	0.164	0.305
-397.165	-141.731	0.221	0.022
-396.150	800.000	-0.043	-0.121
-395.136	-121.979	-0.247	0.040
-394.121	-94.551	-0.058	-0.016
-393.106	-26.538	-0.101	0.059
-392.092	13.708	-0.192	-0.148
-391.077	51.616	0.301	0.285
-390.063	-128.749	-0.275	0.039
-389.048	199.550	-0.062	0.094
-388.033	-79.549	0.242	-0.081
-387.019	101.945	0.122	-0.141
-386.004	-8.232	-0.080	-0.053
-384.990	-87.701	-0.246	-0.074
-383.975	-107.787	0.174	0.038
-382.960	7.348	0.242	0.180
-381.946	148.520	0.101	0.135
-380.931	446.374	-0.110	-0.240
-379.917	-145.070	-0.392	0.035
-378.902	209.965	-0.169	-0.264
-377.888	87.749	-0.097	-0.107
-376.873	105.475	-0.057	0.067
-375.858	15.986	0.146	-0.114
-374.844	-197.104	0.318	0.002
-373.829	305.217	0.184	0.339
-372.815	800.000	-0.064	0.242
-371.800	197.954	0.149	-0.226
-370.785	800.000	0.016	0.055
-369.771	-33.930	0.310	-0.169
-368.756	-148.766	-0.233	0.019
-367.742	221.687	-0.034	0.054
-366.727	75.160	0.074	-0.077
-365.712	24.162	0.321	-0.263
-364.698	-9.921	0.279	-0.184
-363.683	-120.528	-0.042	0.007
-362.669	-200.000	0.006	0.277
-361.654	103.802	0.084	0.098
-360.639	-96.592	0.202	-0.053
-359.625	800.000	0.092	0.342
-358.610	-85.939	0.106	0.032
-357.596	-37.461	-0.280	0.148
-356.581	-200.000	0.136	0.001
-355.566	-200.000	0.017	-0.196
-354.552	103.050	-0.173	0.201
-353.537	-117.921	0.332	0.059
-352.523	800.000	0.027	-0.080
-351.508	89.667	0.308	-0.341
-350.493	208.371	0.280	0.435
-349.479	-188.740	-0.332	0.004
-348.464	-82.073	-0.144	0.047
-347.450	-118.948	0.309	0.054
-346.435	-132.298	-0.145	0.019
-345.420	244.282	-0.091	0.152
-344.406	-118.409	-0.202	-0.035
-343.391	-107.249	0.199	0.043
-342.377	-32.709	0.173	-0.096
-341.362	-135.187	-0.216	-0.026
-340.348	50.149	-0.178	0.166
-339.333	-117.126	-0.237	-0.043
-338.318	-200.000	-0.105	-0.480
-337.304	-200.000	-0.001	-0.222
-336.289	145.265	0.165	0.220
-335.275	-47.073	-0.280	0.136
-334.260	800.000	0.065	0.223
-333.245	-200.000	-0.026	0.401
-332.231	-35.370	-0.151	0.082
-331.216	230.961	0.163	-0.266
-330.202	99.800	-0.196	0.225
-329.187	-129.789	0.311	-0.042
-328.172	-14.671	-0.198	-0.126
-327.158	158.625	0.139	0.191
-326.143	58.940	-0.053	-0.052
-325.129	800.000	0.110	0.350
-324.114	151.993	-0.174	0.235
-323.099	-200.000	-0.045	-0.339
-322.085	341.327	0.008	-0.015
-321.070	-36.668	-0.221	0.118
-320.056	-200.000	0.043	-0.255
-319.041	800.000	0.057	-0.174
-318.026	-11.485	-0.334	0.218
-317.012	-37.128	0.433	-0.230
-315.997	29.866	0.279	-0.236
-314.983	-40.000	-0.130	-0.067
-313.968	113.918	-0.265	-0.320
-312.953	144.559	0.204	0.270
-311.939	-73.687	0.072	-0.026
-310.924	434.766	0.019	-0.041
-309.910	-161.141	0.250	-0.013
-308.895	-28.667	0.143	-0.082
-307.880	25.868	-0.106	0.088
-306.866	169.278	-0.112	-0.158
-305.851	800.000	-0.038	0.151
-304.837	9.369	-0.184	0.138
-303.822	574.830	-0.107	0.259
-302.807	-77.147	0.217	0.075
-301.793	-136.621	-0.178	-0.020
-300.778	-31.711	0.083	-0.046
-299.764	-154.384	0.154	-0.010
-298.749	-158.405	-0.122	0.007
-297.735	800.000	-0.076	-0.241
-296.720	-122.213	0.313	0.051
-295.705	62.933	-0.132	0.131
-294.691	-200.000	-0.010	-0.247
-293.676	-20.371	-0.156	-0.095
-292.662	800.000	-0.068	0.220
-291.647	-71.314	-0.117	0.043
-290.632	-145.270	0.240	-0.021
-289.618	-170.415	-0.416	-0.014
-288.603	111.362	-0.211	0.252
-287.589	73.603	-0.084	-0.087
-286.574	800.000	0.035	0.102
-285.559	-82.299	0.213	-0.069
-284.545	-88.756	0.098	-0.029
-283.530	-65.535	0.108	0.043
-282.516	800.000	0.058	0.246
-281.501	800.000	-0.084	-0.315
-280.486	-41.506	0.335	-0.171
-279.472	167.845	-0.171	0.241
-278.457	800.000	-0.062	-0.244
-277.443	-94.689	-0.154	0.041
-276.428	511.694	0.089	-0.205
-275.413	71.664	-0.136	-0.140
-274.399	223.286	0.119	-0.189
-273.384	800.000	0.027	0.090
-272.370	-85.890	0.246	0.075
-271.355	800.000	0.051	-0.198
-270.340	392.767	0.088	-0.182
-269.326	-200.000	-0.023	0.208
-268.311	205.309	0.133	0.204
-267.297	-200.000	0.029	0.291
-266.282	-50.333	-0.352	0.165
-265.267	92.589	-0.119	-0.132
-264.253	-57.152	-0.110	0.048
-263.238	276.856	-0.085	-0.149
-262.224	-165.517	0.114	0.005
-261.209	397.671	0.031	0.063
-260.195	-148.980	0.322	0.026
-259.180	141.888	0.103	-0.135
-258.165	44.638	0.289	0.262
-257.151	-145.155	0.146	0.013
-256.136	-22.726	0.200	0.120
-255.122	-8.005	-0.119	0.079
-254.107	-39.821	0.262	0.136
-253.092	-170.321	0.138	-0.005
-252.078	-54.887	-0.561	-0.250
-251.063	-47.602	0.217	0.104
-250.049	95.424	0.193	0.218
-249.034	515.589	0.080	0.184
-248.019	31.364	0.215	0.182
-247.005	239.741	0.110	-0.180
-245.990	325.175	-0.098	0.186
-244.976	630.119	-0.041	-0.103
-243.961	-108.531	-0.215	-0.046
-242.946	800.000	0.049	0.191
-241.932	-27.715	0.079	0.045
-240.917	-59.231	0.115	-0.049
-239.903	-68.937	-0.336	0.128
-238.888	-200.000	-0.003	-0.115
-237.873	-87.601	0.126	0.038
-236.859	-65.910	0.127	0.050
-235.844	212.698	-0.075	0.117
-234.830	-125.574	-0.307	-0.046
-233.815	-200.000	0.001	0.020
-232.800	-145.770	0.118	-0.010
-231.786	-102.436	0.134	0.032
-230.771	-0.965	-0.192	0.134
-229.757	2.372	-0.288	0.206
-228.742	-75.564	0.207	-0.073
-227.727	200.325	0.041	-0.063
-226.713	-54.095	-0.173	0.078
-225.698	131.924	-0.126	-0.161
-224.684	-200.000	0.005	0.072
-223.669	35.518	0.092	-0.080
-222.655	-84.266	0.330	0.103
-221.640	153.943	0.262	0.355
-220.625	-200.000	0.048	0.230
-219.611	-66.527	-0.175	-0.069
-218.596	-172.975	0.162	-0.005
-217.582	28.413	-0.301	-0.251
-216.567	225.298	-0.124	-0.198
-215.552	-200.000	-0.043	0.332
-214.538	-200.000	0.024	-0.181
-213.523	-50.387	0.183	-0.085
-212.509	127.386	0.081	-0.102
-211.494	-200.000	-0.002	-0.122
-210.479	-23.969	-0.401	0.237
-209.465	800.000	0.078	-0.248
-208.450	-175.170	-0.215	0.006
-207.436	77.171	-0.147	0.154
-206.421	800.000	-0.016	-0.051
-205.406	-47.803	-0.113	-0.054
-204.392	-120.623	-0.242	-0.040
-203.377	-200.000	0.100	0.443
-202.363	-200.000	0.038	-0.191
-201.348	-97.421	-0.122	-0.031
-200.333	-57.129	0.181	0.079
-199.319	-200.000	-0.046	0.215
-198.304	-200.000	0.024	-0.207
-197.290	-108.417	-0.380	0.081
-196.275	-200.000	0.036	0.271
-195.260	-151.080	-0.188	0.014
-194.246	-51.736	0.098	-0.045
-193.231	48.456	-0.086	0.080
-192.217	53.261	-0.138	-0.130
-191.202	200.142	-0.098	-0.149
-190.187	53.342	-0.189	0.179
-189.173	-141.818	-0.322	0.032
-188.158	800.000	0.039	0.132
-187.144	-97.636	0.409	0.105
-186.129	-193.213	-0.046	0.000
-185.114	592.056	0.128	-0.311
-184.100	-58.280	0.223	-0.096
-183.085	116.340	0.062	0.075
-182.071	12.102	0.276	0.209
-181.056	-143.627	-0.321	-0.030
-180.042	26.101	0.262	-0.216
-179.027	-200.000	0.009	-0.246
-178.012	-200.000	-0.029	0.292
-176.998	-130.889	-0.181	0.024
-175.983	-117.627	-0.222	-0.039
-174.969	-12.668	-0.124	-0.080
-173.954	800.000	0.034	0.132
-172.939	-91.321	0.286	0.081
-171.925	300.655	-0.013	-0.024
-170.910	763.443	0.082	0.218
-169.896	213.294	0.056	-0.087
-168.881	-133.691	-0.327	0.040
-167.866	800.000	-0.079	0.304
-166.852	14.772	0.250	0.193
-165.837	-31.046	-0.328	0.182
-164.823	240.851	-0.178	0.293
-163.808	-173.295	-0.249	-0.007
-162.793	22.896	0.078	-0.063
-161.779	56.851	0.194	-0.186
-160.764	-200.000	-0.010	-0.310
-159.750	58.489	0.150	-0.145
-158.735	-111.467	-0.043	0.009
-157.720	-134.090	-0.038	-0.005
-156.706	-50.906	0.128	-0.059
-155.691	-200.000	0.040	0.457
-154.677	167.563	-0.066	-0.092
-153.662	23.141	-0.214	-0.173
-152.647	800.000	0.071	0.195
-151.633	-200.000	-0.002	0.165
-150.618	-200.000	0.013	0.314
-149.604	65.324	-0.075	-0.075
-148.589	-196.635	0.016	-0.000
-147.574	210.025	-0.099	0.154
-146.560	109.606	-0.166	0.196
-145.545	-200.000	0.004	-0.143
-144.531	800.000	-0.003	0.011
-143.516	134.581	-0.201	-0.257
-142.502	322.464	0.047	-0.088
-141.487	-66.666	0.165	-0.065
-140.472	36.717	-0.190	0.166
-139.458	-200.000	0.021	0.101
-138.443	10.575	-0.036	-0.027
-137.429	-200.000	0.014	-0.074
-136.414	-200.000	0.004	0.031
-135.399	114.769	-0.141	-0.169
-134.385	49.907	-0.185	0.171
-133.370	492.233	-0.067	0.151
-132.356	5.142	0.172	0.124
-131.341	-15.646	0.011	-0.007
-130.326	-143.897	0.286	-0.027
-129.312	-62.277	-0.146	-0.060
-128.297	-192.225	0.163	0.002
-127.283	481.691	0.096	0.215
-126.268	51.200	0.204	0.191
-125.253	306.419	-0.049	-0.089
-124.239	800.000	-0.061	0.219
-123.224	-162.571	0.173	0.008
-122.210	56.471	-0.171	-0.163
-121.195	326.560	-0.273	0.515
-120.180	-200.000	-0.087	0.412
-119.166	111.508	-0.101	-0.120
-118.151	444.599	0.120	0.260
-117.137	-10.660	0.086	-0.056
-116.122	7.664	0.091	-0.067
-115.107	324.508	0.154	-0.290
-114.093	40.508	-0.096	-0.085
-113.078	800.000	-0.013	0.047
-112.064	405.463	-0.117	-0.243
-111.049	-2.322	-0.093	0.064
-110.034	-200.000	0.008	-0.047
-109.020	88.163	0.134	-0.146
-108.005	11.083	0.087	-0.065
-106.991	-147.707	0.154	0.013
-105.976	-49.894	-0.216	0.101
-104.962	-200.000	0.006	-0.059
-103.947	406.407	-0.197	-0.410
-102.932	-105.417	-0.333	0.075
-101.918	800.000	-0.071	0.203
-100.903	249.188	0.191	-0.317
-99.889	433.505	0.159	0.340
-98.874	-18.828	0.118	-0.072
-97.859	49.372	-0.097	0.090
-96.845	-200.000	-0.017	-0.278
-95.830	-200.000	-0.031	-0.216
-94.816	800.000	-0.057	-0.189
-93.801	-113.951	0.186	0.035
-92.786	-17.089	-0.143	-0.089
-91.772	68.220	0.110	0.111
-90.757	283.613	0.084	0.149
-89.743	-200.000	-0.032	0.269
-88.728	-171.498	-0.115	-0.004
-87.713	-200.000	0.005	0.022
-86.699	136.473	0.123	-0.158
-85.684	-52.094	-0.056	-0.025
-84.670	91.231	0.079	0.087
-83.655	-18.419	-0.109	-0.067
-82.640	-46.396	0.159	0.077
-81.626	0.349	0.106	-0.074
-80.611	24.330	0.225	-0.183
-79.597	-146.702	-0.297	0.025
-78.582	143.947	0.301	-0.395
-77.567	783.942	-0.081	-0.217
-76.553	123.279	0.093	0.115
-75.538	-29.570	-0.329	-0.184
-74.524	-200.000	0.000	-0.016
-73.509	800.000	-0.010	0.032
-72.494	800.000	-0.078	-0.291
-71.480	-200.000	-0.092	-0.000
-70.465	-200.000	0.037	0.199
-69.451	338.419	-0.136	-0.259
-68.436	37.379	0.095	0.083
-67.422	-200.000	0.023	-0.252
-66.407	800.000	0.044	0.151
-65.392	-22.356	-0.338	-0.201
-64.378	191.408	-0.110	0.162
-63.363	12.311	0.236	0.178
-62.349	-200.000	0.025	0.253
-61.334	155.301	-1.012	-1.367
-60.319	-83.991	0.676	0.211
-59.305	800.000	-0.348	-1.089
-58.290	152.319	0.891	1.194
-57.276	399.012	0.736	1.512
-56.261	-200.000	98.050	599.623
-55.246	581.908	1422.840	3424.318
-54.232	186.230	2632.427	3843.005
-53.217	108.521	2293.464	2687.045
-52.203	40.159	1905.903	1681.379
-51.188	33.824	1692.092	1444.704
-50.173	31.197	1648.894	1388.259
-49.159	48.759	1697.160	1561.758
-48.144	49.948	1712.835	1585.086
-47.130	33.472	1672.375	1424.989
-46.115	30.699	1658.085	1392.045
-45.100	30.556	1653.424	1387.011
-44.086	30.437	1651.272	1384.263
-43.071	30.570	1648.169	1382.598
-42.057	30.420	1646.437	1379.978
-41.042	30.550	1643.793	1378.672
-40.027	30.435	1642.804	1376.935
-39.013	30.476	1640.308	1375.092
-37.998	30.532	1638.820	1374.200
-36.984	30.568	1637.201	1373.053
-35.969	30.634	1635.501	1372.059
-34.954	30.635	1633.864	1370.644
-33.940	30.704	1632.040	1369.568
-32.925	30.685	1630.626	1368.186
-31.911	30.661	1628.488	1366.163
-30.896	30.572	1626.801	1364.037
-29.881	30.581	1625.432	1362.904
-28.867	30.527	1623.731	1361.030
-27.852	30.585	1622.262	1360.166
-26.838	30.529	1620.909	1358.568
-25.823	30.652	1619.709	1358.405
-24.809	30.687	1617.881	1357.073
-23.794	30.650	1616.644	1355.712
-22.779	30.630	1615.237	1354.334
-21.765	30.690	1613.381	1353.160
-20.750	30.706	1611.858	1351.943
-19.736	30.682	1610.243	1350.367
-18.721	30.770	1608.465	1349.458
-17.706	30.658	1607.417	1347.713
-16.692	30.579	1606.252	1346.113
-15.677	30.618	1605.007	1345.296
-14.663	30.757	1602.864	1344.453
-13.648	30.586	1602.143	1342.556
-12.633	30.605	1600.431	1341.208
-11.619	30.675	1598.805	1340.292
-10.604	30.650	1597.148	1338.674
-9.590	30.653	1596.017	1337.691
-8.575	30.682	1594.477	1336.561
-7.560	30.608	1593.956	1335.539
-6.546	30.664	1592.262	1334.465
-5.531	30.607	1591.366	1333.254
-4.517	30.732	1590.003	1332.955
-3.502	30.736	1588.749	1331.882
-2.487	30.709	1587.509	1330.596
-1.473	30.628	1576.301	1320.574
-0.458	28.332	1557.658	1288.766
0.556	22.973	1559.354	1261.712
1.571	20.979	1584.371	1267.360
2.586	20.638	1597.959	1275.620
3.600	18.309	1544.987	1216.687
4.615	9.716	1433.486	1071.888
5.629	1.552	1368.153	970.975
6.644	0.032	1359.700	955.243
7.659	-0.073	1358.588	953.713
8.673	-0.078	1357.096	952.546
9.688	-0.061	1355.196	951.234
10.702	-0.284	1352.520	947.868
11.717	3.459	1360.034	976.794
12.731	13.026	1378.099	1050.848
13.746	20.276	1390.183	1106.367
14.761	22.166	1392.294	1120.002
15.775	22.377	1392.118	1121.106
16.790	22.464	1391.910	1121.397
17.804	22.550	1391.620	1121.609
18.819	22.828	1390.922	1122.713
19.834	22.826	1390.532	1122.287
20.848	22.876	1389.646	1121.793
21.863	22.943	1388.776	1121.418
22.877	22.926	1387.697	1120.340
23.892	22.904	1387.161	1119.667
24.907	22.930	1386.046	1118.833
25.921	22.986	1384.964	1118.216
26.936	22.814	1384.686	1116.800
27.950	22.859	1383.261	1115.836
28.965	22.944	1381.682	1115.000
29.980	22.911	1380.758	1113.952
30.994	22.928	1379.353	1112.825
32.009	22.851	1379.086	1112.026
33.023	22.962	1377.491	1111.340
34.038	23.046	1376.363	1110.858
35.053	22.885	1375.091	1108.723
36.067	22.916	1374.368	1108.236
37.082	22.901	1373.359	1107.231
38.096	22.910	1372.543	1106.531
39.111	22.907	1371.552	1105.619
40.126	22.860	1371.362	1105.072
41.140	22.936	1370.843	1105.031
42.155	22.841	1370.964	1104.437
43.169	22.973	1370.271	1104.605
44.184	22.896	1369.956	1103.775
45.199	22.832	1369.662	1103.038
46.213	22.952	1368.953	1103.121
47.228	22.924	1368.392	1102.397
48.242	22.910	1367.151	1101.208
49.257	22.818	1365.744	1099.407
50.271	22.908	1363.947	1098.423
51.286	22.915	1362.590	1097.278
52.301	22.997	1361.085	1096.477
53.315	22.838	1360.698	1095.080
54.330	22.913	1359.910	1094.813
55.344	22.815	1358.764	1093.187
56.359	22.936	1357.539	1092.855
57.374	22.834	1357.242	1091.887
58.388	22.834	1356.401	1091.114
59.403	22.863	1356.342	1091.151
60.417	22.803	1355.902	1090.330
61.432	22.798	1355.039	1089.510
62.447	22.973	1353.704	1089.416
63.461	22.885	1352.887	1088.119
64.476	22.908	1351.830	1087.315
65.490	22.897	1350.339	1085.952
66.505	22.872	1349.066	1084.679
67.520	22.996	1347.563	1084.136
68.534	23.016	1346.504	1083.307
69.549	23.001	1345.813	1082.568
70.563	22.988	1345.200	1081.898
71.578	22.802	1344.512	1080.112
72.593	22.914	1343.445	1079.841
73.607	22.988	1342.434	1079.390
74.622	22.936	1342.050	1078.664
75.636	22.978	1341.333	1078.250
76.651	22.899	1340.728	1077.185
77.666	22.816	1340.177	1076.144
78.680	22.876	1339.857	1076.154
79.695	22.906	1338.841	1075.428
80.709	22.969	1337.850	1074.919
81.724	22.869	1337.188	1073.687
82.739	22.908	1336.352	1073.154
83.753	22.911	1335.063	1072.043
84.768	22.945	1334.203	1071.461
85.782	23.073	1333.075	1071.239
86.797	22.998	1331.880	1069.730
87.812	22.982	1330.583	1068.494
88.826	22.988	1329.915	1067.900
89.841	23.005	1328.779	1066.999
90.855	23.046	1327.391	1066.033
91.870	22.996	1326.623	1065.026
92.884	22.983	1326.203	1064.512
93.899	22.971	1325.478	1063.768
94.914	23.050	1324.429	1063.306
95.928	22.999	1323.736	1062.349
96.943	23.049	1322.863	1061.852
97.957	23.050	1322.167	1061.205
98.972	23.041	1321.235	1060.312
99.987	22.961	1320.062	1058.794
101.001	22.926	1319.412	1057.973
102.016	22.983	1318.412	1057.420
103.030	23.016	1317.659	1056.917
104.045	23.008	1316.950	1056.206
105.060	22.923	1316.270	1055.060
106.074	23.050	1314.919	1054.641
107.089	23.084	1313.243	1053.409
108.103	23.072	1312.544	1052.679
109.118	23.069	1311.583	1051.798
110.133	23.019	1310.474	1050.520
111.147	23.065	1308.974	1049.495
112.162	23.043	1308.298	1048.731
113.176	23.078	1307.019	1047.821
114.191	23.110	1306.247	1047.297
115.206	23.020	1305.341	1045.947
116.220	22.988	1304.146	1044.706
117.235	23.102	1303.111	1044.463
118.249	23.040	1302.476	1043.495
119.264	23.108	1301.202	1042.781
120.279	23.147	1300.579	1042.421
121.293	23.104	1299.945	1041.568
122.308	23.198	1298.803	1041.109
123.322	23.063	1298.205	1039.747
124.337	23.136	1297.106	1039.203
125.352	23.189	1296.010	1038.541
126.366	23.041	1295.296	1037.012
127.381	23.182	1294.180	1036.855
128.395	23.155	1293.407	1035.984
129.410	23.189	1292.398	1035.283
130.424	23.096	1292.211	1034.498
131.439	23.045	1291.397	1033.455
132.454	23.097	1290.470	1032.927
133.468	23.028	1289.810	1031.905
134.483	23.072	1289.393	1031.737
135.497	23.067	1288.494	1030.894
136.512	23.153	1287.291	1030.346
137.527	23.047	1286.068	1028.655
138.541	23.116	1284.849	1027.990
139.556	23.146	1283.443	1026.951
140.570	22.967	1282.923	1025.406
141.585	23.102	1281.764	1025.171
142.600	23.053	1280.575	1023.847
143.614	22.972	1280.145	1022.940
144.629	23.013	1279.162	1022.302
145.643	23.030	1277.907	1021.308
146.658	23.018	1276.507	1020.029
147.673	23.039	1275.609	1019.340
148.687	22.984	1274.629	1018.149
149.702	23.015	1273.583	1017.405
150.716	23.009	1272.556	1016.461
151.731	23.063	1271.159	1015.562
152.746	23.152	1270.604	1015.539
153.760	23.077	1269.558	1014.186
154.775	23.046	1268.575	1013.133
155.789	23.091	1267.456	1012.409
156.804	23.050	1266.899	1011.640
157.819	22.979	1266.130	1010.527
158.833	23.103	1265.051	1010.287
159.848	23.097	1264.423	1009.663
160.862	23.228	1263.542	1009.617
161.877	23.121	1263.053	1008.523
162.892	23.134	1261.985	1007.659
163.906	23.175	1261.230	1007.199
164.921	23.323	1260.598	1007.447
165.935	23.315	1259.697	1006.590
166.950	23.187	1259.331	1005.486
167.964	23.245	1258.450	1005.020
168.979	23.263	1257.924	1004.613
169.994	23.236	1257.224	1003.812
171.008	23.261	1256.674	1003.428
172.023	23.306	1255.863	1002.943
173.037	23.226	1255.384	1002.019
174.052	23.257	1254.646	1001.520
175.067	23.210	1253.634	1000.356
176.081	23.310	1252.768	1000.142
177.096	23.150	1252.374	998.834
178.110	23.307	1250.829	998.397
179.125	23.285	1249.929	997.472
180.140	23.285	1249.299	996.881
181.154	23.265	1248.046	995.675
182.169	23.328	1246.437	994.662
183.183	23.303	1246.044	994.119
184.198	23.225	1244.951	992.718
185.213	23.376	1244.000	992.719
186.227	23.387	1242.941	991.849
187.242	23.388	1242.508	991.418
188.256	23.416	1241.399	990.603
189.271	23.378	1240.657	989.710
190.286	23.179	1240.111	988.080
191.300	23.246	1239.686	988.027
192.315	23.356	1239.046	988.041
193.329	23.293	1238.442	987.120
194.344	23.409	1237.894	987.246
195.359	23.437	1237.089	986.670
196.373	23.336	1237.177	986.094
197.388	23.305	1236.705	985.457
198.402	23.195	1236.529	984.619
199.417	23.347	1235.527	984.574
200.432	23.288	1234.812	983.591
201.446	23.321	1234.026	983.060
202.461	23.341	1233.569	982.722
203.475	23.312	1233.074	982.080
204.490	23.194	1232.274	980.703
205.504	23.300	1231.092	980.262
206.519	23.381	1230.195	979.906
207.534	23.571	1228.573	979.578
208.548	23.357	1227.632	977.561
209.563	23.407	1227.234	977.432
210.577	23.446	1226.372	976.872
211.592	23.488	1225.458	976.290
212.607	23.449	1225.149	975.745
213.621	23.513	1224.535	975.523
214.636	23.513	1223.402	974.530
215.650	23.410	1222.659	973.286
216.665	23.337	1222.052	972.320
217.680	23.537	1220.876	972.391
218.694	23.472	1220.425	971.592
219.709	23.407	1219.835	970.680
220.723	23.504	1218.746	970.259
221.738	23.439	1217.907	969.147
222.753	23.378	1217.089	968.078
223.767	23.389	1216.492	967.576
224.782	23.500	1216.176	967.848
225.796	23.607	1215.884	968.112
226.811	23.619	1214.969	967.364
227.826	23.596	1214.472	966.761
228.840	23.532	1213.742	965.742
229.855	23.619	1213.175	965.678
230.869	23.610	1212.457	964.973
231.884	23.467	1212.161	963.878
232.899	23.534	1211.156	963.357
233.913	23.559	1210.793	963.117
234.928	23.589	1209.660	962.292
235.942	23.664	1209.068	962.146
236.957	23.591	1208.419	961.146
237.972	23.675	1207.587	960.853
238.986	23.618	1207.315	960.242
240.001	23.701	1206.682	960.107
241.015	23.756	1205.888	959.685
242.030	23.626	1205.332	958.453
243.045	23.742	1204.740	958.527
244.059	23.749	1203.328	957.354
245.074	23.750	1202.645	956.731
246.088	23.810	1202.195	956.611
247.103	23.729	1201.553	955.581
248.117	23.748	1200.646	954.877
249.132	23.789	1199.495	954.101
250.147	23.755	1199.536	953.865
251.161	23.830	1198.120	953.058
252.176	23.783	1197.952	952.587
253.190	23.885	1196.695	952.049
254.205	23.868	1196.097	951.398
255.220	23.740	1195.955	950.516
256.234	23.794	1195.440	950.312
257.249	23.734	1194.545	949.195
258.263	23.772	1193.900	948.801
259.278	23.852	1193.712	948.994
260.293	23.861	1192.930	948.337
261.307	23.795	1192.517	947.574
262.322	23.887	1191.909	947.493
263.336	23.869	1191.048	946.634
264.351	23.863	1190.762	946.291
265.366	23.771	1190.040	945.140
266.380	23.797	1189.534	944.794
267.395	23.830	1188.589	944.138
268.409	23.859	1187.660	943.467
269.424	23.821	1187.839	943.324
270.439	23.862	1186.825	942.653
271.453	23.839	1186.129	941.896
272.468	23.786	1185.564	941.086
273.482	23.938	1184.350	940.840
274.497	23.911	1184.302	940.575
275.512	23.863	1183.967	939.975
276.526	23.842	1183.087	939.083
277.541	23.916	1182.272	938.740
278.555	24.016	1181.651	938.694
279.570	23.933	1181.088	937.727
280.585	23.895	1180.382	936.882
281.599	23.956	1179.569	936.475
282.614	24.076	1178.110	935.864
283.628	24.034	1177.194	934.830
284.643	24.026	1176.520	934.173
285.657	23.971	1175.979	933.371
286.672	23.977	1175.210	932.712
287.687	24.138	1174.147	932.628
288.701	24.007	1173.821	931.598
289.716	24.166	1172.755	931.500
290.730	24.133	1172.035	930.676
291.745	24.147	1171.587	930.311
292.760	24.186	1170.758	929.772
293.774	24.124	1170.416	929.096
294.789	24.179	1169.869	928.869
295.803	24.175	1169.302	928.314
296.818	24.196	1168.537	927.736
297.833	24.248	1167.583	927.164
298.847	24.249	1166.871	926.524
299.862	24.135	1166.683	925.700
300.876	24.156	1166.030	925.209
301.891	24.224	1165.201	924.822
302.906	24.266	1164.779	924.624
303.920	24.296	1163.905	924.000
304.935	24.282	1163.222	923.305
305.949	24.218	1162.998	922.714
306.964	24.179	1162.436	921.984
307.979	24.291	1161.317	921.596
308.993	24.270	1160.702	920.919
310.008	24.211	1160.265	920.185
311.022	24.301	1159.300	919.801
312.037	24.333	1158.395	919.168
313.052	24.260	1158.271	918.610
314.066	24.323	1156.916	917.781
315.081	24.405	1155.982	917.380
316.095	24.341	1155.479	916.570
317.110	24.373	1154.854	916.156
318.125	24.330	1154.380	915.479
319.139	24.370	1153.915	915.233
320.154	24.323	1153.006	914.189
321.168	24.468	1152.329	914.319
322.183	24.372	1152.061	913.529
323.197	24.351	1151.818	913.152
324.212	24.418	1151.244	912.960
325.227	24.345	1150.875	912.212
326.241	24.458	1149.533	911.642
327.256	24.515	1149.126	911.532
328.270	24.496	1148.257	910.666
329.285	24.459	1147.081	909.461
330.300	24.484	1146.330	908.914
331.314	24.411	1145.615	907.895
332.329	24.459	1144.918	907.507
333.343	24.530	1144.024	907.081
334.358	24.579	1143.287	906.661
335.373	24.595	1142.592	906.113
336.387	24.549	1141.977	905.312
337.402	24.523	1141.521	904.741
338.416	24.690	1140.751	904.893
339.431	24.564	1140.060	903.628
340.446	24.628	1139.449	903.389
341.460	24.564	1139.234	902.811
342.475	24.706	1138.204	902.634
343.489	24.590	1137.491	901.402
344.504	24.820	1136.104	901.384
345.519	24.753	1135.287	900.316
346.533	24.624	1135.024	899.381
347.548	24.489	1134.427	898.147
348.562	24.725	1133.539	898.553
349.577	24.684	1133.079	897.902
350.592	24.588	1131.764	896.301
351.606	24.574	1131.487	895.932
352.621	24.747	1130.637	896.045
353.635	24.644	1130.490	895.332
354.650	24.733	1129.608	895.000
355.665	24.743	1129.113	894.578
356.679	24.673	1128.365	893.558
357.694	24.738	1127.788	893.347
358.708	24.817	1127.283	893.261
359.723	24.766	1126.263	892.122
360.738	24.802	1125.528	891.636
361.752	24.895	1124.912	891.534
362.767	24.826	1124.572	890.841
363.781	24.907	1124.042	890.747
364.796	24.943	1123.317	890.274
365.810	24.852	1122.867	889.388
366.825	25.036	1122.188	889.681
367.840	24.910	1122.034	888.855
368.854	25.011	1120.888	888.371
369.869	24.897	1120.643	887.532
370.883	24.977	1120.030	887.364
371.898	25.050	1118.973	886.811
372.913	24.991	1118.537	886.095
373.927	24.952	1118.132	885.501
374.942	25.009	1117.552	885.245
375.956	25.012	1117.109	884.834
376.971	24.998	1116.633	884.306
377.986	24.987	1115.752	883.475
379.000	25.021	1115.457	883.333
380.015	25.040	1115.071	883.043
381.029	25.070	1114.515	882.671
382.044	25.161	1113.039	881.874
383.059	25.154	1112.566	881.384
384.073	25.117	1112.089	880.749
385.088	25.043	1111.287	879.670
386.102	25.012	1110.253	878.622
387.117	25.192	1109.292	878.665
388.132	25.002	1109.228	877.606
389.146	25.179	1108.067	877.477
390.161	25.163	1107.409	876.802
391.175	25.126	1107.004	876.223
392.190	25.218	1106.574	876.250
393.205	25.255	1105.554	875.546
394.219	25.168	1105.013	874.619
395.234	25.230	1104.020	874.057
396.248	25.258	1102.744	873.103
397.263	25.294	1102.204	872.776
398.278	25.195	1102.135	872.164
399.292	25.313	1101.259	871.964
400.307	25.354	1100.714	871.654
401.321	25.225	1100.174	870.525
402.336	25.375	1098.993	870.241
403.350	25.327	1098.656	869.666
404.365	25.347	1098.048	869.200
405.380	25.491	1097.073	869.051
406.394	25.553	1096.079	868.486
407.409	25.472	1095.698	867.716
408.423	25.456	1095.396	867.320
409.438	25.479	1094.109	866.336
410.453	25.481	1093.975	866.165
411.467	25.347	1093.242	864.862
412.482	25.380	1092.716	864.529
413.496	25.450	1091.989	864.211
414.511	25.447	1091.094	863.414
415.526	25.630	1090.636	863.855
416.540	25.492	1090.589	863.078
417.555	25.535	1089.939	862.692
418.569	25.538	1089.333	862.149
419.584	25.528	1088.872	861.661
420.599	25.552	1088.632	861.509
421.613	147.191	1403.592	1796.236
422.628	136.092	1449.464	1796.330
