DTS Sentinel unit serial number:	SN413079Multiplexer serial number:	ORYXHardware model number:	OX4-SRSoftware version number:	ORYX F/W v4.00 Oryx Data Collector v3.7.2.0data status	okinstallation	princeton_trtdifferential loss correction	single-endedforward channel	channel 2reverse channel	N/Adate	2019/09/16time	03:11:34forward acquisition time	60.00reverse acquisition time	0.00gamma	496.2192k internal	0.2334k external	0.2334temperature offset calibration	0.9971default loss term (dB/km)	0.3790temperature slope calibration	1.0000multiplexer offset coefficient	1.0000multiplexer slope coefficient	1.0000fibre end	0.00T internal ref (°C)	27.75T ext. ref 1 (°C)	10.47T ext. ref 2 (°C)	22.08length (m)	temperature (°C)	Stokes	anti-Stokes-747.200	-153.926	-0.371	-0.025
-746.185	-5.065	-0.198	0.137
-745.171	-200.000	0.016	0.203
-744.156	-76.429	0.317	0.112
-743.142	-200.000	-0.013	-0.231
-742.127	20.009	-0.185	0.150
-741.112	192.275	0.041	0.062
-740.098	-200.000	-0.030	-0.179
-739.083	-200.000	-0.000	-0.003
-738.069	800.000	-0.074	0.214
-737.054	-44.906	0.114	0.057
-736.039	117.735	-0.206	-0.254
-735.025	-120.573	-0.285	0.049
-734.010	-200.000	0.072	-0.319
-732.996	-143.540	-0.052	0.005
-731.981	-81.101	-0.119	0.040
-730.966	-200.000	-0.001	0.024
-729.952	-40.394	-0.340	0.177
-728.937	384.492	-0.087	-0.180
-727.923	-54.703	0.215	0.097
-726.908	329.901	0.119	0.229
-725.894	-98.611	-0.312	-0.080
-724.879	30.240	-0.173	-0.149
-723.864	70.603	0.150	0.155
-722.850	115.710	-0.169	0.208
-721.835	200.841	0.240	0.371
-720.821	800.000	0.154	0.493
-719.806	-200.000	-0.023	-0.253
-718.791	-141.190	-0.092	-0.009
-717.777	-200.000	0.015	0.104
-716.762	-75.774	0.080	-0.028
-715.748	-149.592	0.368	-0.029
-714.733	-153.938	-0.219	0.015
-713.718	800.000	0.065	-0.251
-712.704	-82.344	-0.226	-0.074
-711.689	-200.000	-0.057	-0.257
-710.675	573.727	0.066	0.161
-709.660	-176.513	-0.078	-0.002
-708.645	15.451	0.312	-0.246
-707.631	480.439	-0.099	-0.226
-706.616	-125.386	-0.134	0.021
-705.602	-51.416	-0.107	-0.050
-704.587	-166.777	-0.447	-0.018
-703.572	25.893	0.111	-0.093
-702.558	244.424	-0.190	-0.320
-701.543	21.922	-0.218	-0.178
-700.529	-22.200	0.023	0.014
-699.514	79.442	-0.266	-0.286
-698.499	216.788	0.136	-0.217
-697.485	-10.454	0.335	-0.223
-696.470	-59.479	0.068	-0.029
-695.456	0.929	0.064	-0.046
-694.441	800.000	0.076	-0.316
-693.426	-130.938	0.412	-0.055
-692.412	800.000	-0.078	0.341
-691.397	94.283	-0.102	-0.116
-690.383	-200.000	0.025	-0.166
-689.368	-68.826	0.295	0.114
-688.354	96.097	-0.173	-0.198
-687.339	-112.536	0.457	-0.091
-686.324	-152.545	-0.361	-0.026
-685.310	-35.089	-0.220	-0.121
-684.295	800.000	-0.040	0.175
-683.281	-77.870	-0.060	0.021
-682.266	259.608	-0.044	-0.076
-681.251	800.000	0.078	0.341
-680.237	48.413	-0.244	-0.229
-679.222	-167.267	-0.203	0.008
-678.208	177.685	0.082	0.120
-677.193	-106.701	0.048	-0.011
-676.178	-163.269	-0.226	0.011
-675.164	583.057	0.154	-0.379
-674.149	-53.668	-0.324	-0.148
-673.135	421.969	0.168	-0.362
-672.120	-111.768	-0.321	-0.065
-671.105	613.888	0.031	0.077
-670.091	800.000	0.020	0.064
-669.076	800.000	-0.013	-0.054
-668.062	133.200	-0.074	-0.096
-667.047	2.281	-0.162	0.117
-666.032	-141.891	-0.182	-0.018
-665.018	-43.963	0.173	0.087
-664.003	-42.537	0.318	-0.162
-662.989	-118.203	0.289	-0.052
-661.974	-94.555	-0.154	0.042
-660.959	108.901	0.080	-0.096
-659.945	-200.000	0.042	-0.191
-658.930	-24.295	0.090	0.054
-657.916	-163.927	-0.260	-0.012
-656.901	-72.183	0.129	-0.048
-655.886	166.448	-0.178	-0.252
-654.872	800.000	-0.025	0.075
-653.857	157.250	-0.231	0.320
-652.843	-130.666	-0.058	-0.008
-651.828	236.353	0.116	0.192
-650.814	-200.000	-0.020	0.242
-649.799	-177.477	0.461	0.011
-648.784	-51.652	-0.323	-0.151
-647.770	170.935	0.168	-0.242
-646.755	20.659	-0.071	0.057
-645.741	-200.000	-0.061	0.272
-644.726	-106.613	-0.251	-0.056
-643.711	800.000	0.022	-0.065
-642.697	61.069	-0.199	-0.198
-641.682	155.278	0.189	0.260
-640.668	-200.000	-0.025	0.144
-639.653	-46.069	0.219	-0.108
-638.638	-76.301	0.438	-0.154
-637.624	280.948	0.168	-0.302
-636.609	31.107	0.292	0.251
-635.595	9.187	0.120	0.091
-634.580	-27.221	0.136	-0.079
-633.565	-200.000	0.029	-0.414
-632.551	174.058	-0.224	-0.324
-631.536	800.000	-0.085	-0.322
-630.522	-120.867	-0.216	-0.036
-629.507	800.000	-0.080	-0.225
-628.492	-200.000	-0.094	-0.446
-627.478	591.713	0.133	0.329
-626.463	-56.591	-0.298	0.132
-625.449	-96.390	-0.257	0.068
-624.434	-37.429	0.185	-0.099
-623.419	800.000	0.077	0.244
-622.405	-39.596	0.144	-0.075
-621.390	151.982	-0.074	0.100
-620.376	-200.000	-0.013	0.202
-619.361	649.754	-0.035	0.089
-618.346	127.662	-0.063	-0.080
-617.332	3.304	-0.139	0.101
-616.317	-62.894	0.158	0.065
-615.303	-29.179	-0.179	-0.103
-614.288	-175.913	0.304	-0.008
-613.273	175.719	-0.106	0.154
-612.259	-200.000	-0.017	-0.246
-611.244	800.000	-0.032	-0.135
-610.230	-200.000	-0.034	-0.149
-609.215	-122.793	0.322	0.052
-608.201	777.282	-0.070	-0.190
-607.186	60.233	0.142	-0.141
-606.171	-69.810	0.287	-0.110
-605.157	800.000	-0.134	-0.393
-604.142	178.561	-0.029	-0.042
-603.128	-70.923	0.029	-0.011
-602.113	-200.000	-0.001	0.252
-601.098	-200.000	-0.049	-0.223
-600.084	-200.000	0.055	0.333
-599.069	-89.871	-0.374	0.109
-598.055	-133.053	-0.502	0.064
-597.040	-6.641	-0.162	0.110
-596.025	109.485	0.139	0.166
-595.011	576.271	0.061	0.148
-593.996	-200.000	-0.030	0.215
-592.982	7.038	-0.091	0.068
-591.967	-28.122	-0.226	-0.131
-590.952	-168.126	0.178	-0.007
-589.938	-174.894	0.246	-0.007
-588.923	800.000	-0.151	-0.586
-587.909	38.140	-0.034	0.030
-586.894	12.210	-0.112	0.086
-585.879	90.070	0.128	0.143
-584.865	-174.165	0.225	0.007
-583.850	53.799	-0.344	0.330
-582.836	-66.569	-0.216	0.085
-581.821	-78.182	-0.278	0.096
-580.806	242.761	-0.169	-0.283
-579.792	-30.078	-0.112	-0.064
-578.777	-71.685	0.092	0.034
-577.763	-130.811	-0.343	0.046
-576.748	800.000	-0.024	-0.075
-575.733	155.274	-0.100	0.137
-574.719	348.842	-0.076	-0.149
-573.704	-30.437	0.250	0.142
-572.690	-29.138	0.096	0.055
-571.675	127.484	-0.055	-0.069
-570.661	274.375	-0.072	-0.127
-569.646	-161.669	-0.112	-0.006
-568.631	728.284	0.194	0.518
-567.617	-101.577	-0.112	-0.027
-566.602	-69.099	-0.375	-0.144
-565.588	800.000	0.047	0.198
-564.573	-129.221	0.261	0.036
-563.558	-59.884	-0.069	-0.029
-562.544	-200.000	0.080	-0.372
-561.529	48.879	0.072	-0.067
-560.515	-1.525	-0.185	-0.130
-559.500	241.946	-0.110	0.184
-558.485	-115.455	-0.306	0.058
-557.471	800.000	0.022	0.066
-556.456	126.607	-0.029	0.037
-555.442	172.488	0.169	0.243
-554.427	800.000	-0.033	-0.099
-553.412	-105.616	-0.202	-0.046
-552.398	-38.018	0.165	-0.087
-551.383	7.495	0.133	0.099
-550.369	79.031	0.046	-0.049
-549.354	-200.000	-0.014	0.205
-548.339	-200.000	-0.004	-0.055
-547.325	-200.000	0.028	0.373
-546.310	16.605	-0.088	0.070
-545.296	152.187	-0.173	-0.236
-544.281	-78.409	-0.208	-0.071
-543.266	72.690	-0.170	0.177
-542.252	-200.000	-0.059	-0.269
-541.237	-200.000	0.023	-0.185
-540.223	-96.758	-0.135	0.035
-539.208	-0.290	-0.239	-0.169
-538.193	-89.640	-0.271	0.079
-537.179	-200.000	0.033	0.298
-536.164	-200.000	0.003	0.167
-535.150	34.629	-0.094	0.082
-534.135	-86.148	-0.099	0.030
-533.121	13.954	0.053	-0.041
-532.106	-17.807	-0.291	-0.182
-531.091	-200.000	-0.440	0.002
-530.077	-200.000	0.063	0.359
-529.062	56.563	0.120	0.117
-528.048	86.761	-0.089	-0.098
-527.033	800.000	-0.067	-0.284
-526.018	-32.319	-0.141	-0.078
-525.004	12.016	0.145	-0.111
-523.989	33.844	-0.127	-0.110
-522.975	-158.728	0.222	0.013
-521.960	356.616	0.110	0.219
-520.945	543.898	-0.149	-0.354
-519.931	-138.959	-0.044	-0.005
-518.916	-200.000	0.059	0.266
-517.902	638.042	-0.039	0.100
-516.887	-129.554	-0.071	-0.010
-515.872	-162.804	-0.263	0.013
-514.858	-200.000	-0.035	-0.271
-513.843	-200.000	0.014	-0.290
-512.829	800.000	-0.088	0.290
-511.814	800.000	-0.010	-0.032
-510.799	-30.453	0.404	-0.228
-509.785	57.852	0.130	0.126
-508.770	-7.525	0.083	0.056
-507.756	-183.400	0.165	0.003
-506.741	693.381	0.060	-0.157
-505.726	628.243	-0.084	0.211
-504.712	-200.000	-0.015	-0.132
-503.697	82.164	-0.135	-0.145
-502.683	-87.434	-0.156	-0.047
-501.668	800.000	0.107	0.372
-500.653	-123.390	-0.342	-0.054
-499.639	800.000	0.052	-0.203
-498.624	6.708	0.267	-0.198
-497.610	-158.391	-0.360	0.021
-496.595	-47.008	-0.110	-0.053
-495.581	29.889	-0.230	-0.195
-494.566	13.484	0.143	-0.110
-493.551	800.000	0.057	0.188
-492.537	136.499	-0.117	0.152
-491.522	-130.059	0.303	-0.041
-490.508	88.860	-0.056	-0.062
-489.493	-200.000	0.038	-0.171
-488.478	705.655	0.049	0.128
-487.464	59.356	-0.190	0.186
-486.449	299.520	0.085	-0.156
-485.435	-0.118	-0.245	0.174
-484.420	-0.440	0.157	0.111
-483.405	-53.848	0.208	0.094
-482.391	-82.952	-0.199	-0.064
-481.376	-33.559	0.353	0.194
-480.362	158.726	-0.222	-0.306
-479.347	240.555	-0.100	0.166
-478.332	43.751	-0.348	-0.317
-477.318	-200.000	0.020	0.116
-476.303	-200.000	0.037	0.204
-475.289	101.363	-0.232	0.269
-474.274	-55.537	0.104	0.046
-473.259	-1.049	0.102	-0.072
-472.245	-95.073	-0.184	0.049
-471.230	18.712	0.216	-0.172
-470.216	-200.000	-0.002	0.316
-469.201	800.000	-0.068	0.188
-468.186	-50.879	-0.228	-0.107
-467.172	18.922	0.191	-0.152
-466.157	77.823	0.203	0.215
-465.143	-99.965	0.455	-0.113
-464.128	-118.558	-0.175	0.031
-463.113	-200.000	-0.011	-0.085
-462.099	-51.237	0.261	0.121
-461.084	-46.047	0.161	0.079
-460.070	-200.000	-0.005	-0.216
-459.055	-69.139	-0.263	0.100
-458.040	440.262	0.118	0.256
-457.026	-162.574	0.316	0.015
-456.011	-138.617	0.257	0.028
-454.997	-126.819	0.198	0.029
-453.982	-102.203	0.199	0.048
-452.968	-108.366	0.197	-0.042
-451.953	-104.019	0.197	-0.046
-450.938	-200.000	-0.065	-0.360
-449.924	-49.175	-0.135	-0.064
-448.909	-118.702	-0.345	-0.060
-447.895	-200.000	0.006	0.398
-446.880	-76.777	0.214	-0.074
-445.865	800.000	0.111	-0.327
-444.851	108.145	-0.124	0.147
-443.836	89.762	-0.049	-0.054
-442.822	-200.000	-0.012	-0.052
-441.807	-125.594	-0.235	0.035
-440.792	-120.878	-0.204	-0.034
-439.778	800.000	-0.108	-0.337
-438.763	-89.217	0.154	0.045
-437.749	159.534	0.064	-0.088
-436.734	4.689	-0.197	-0.144
-435.719	557.859	-0.143	0.342
-434.705	-83.354	-0.086	0.027
-433.690	160.027	0.099	0.136
-432.676	-35.627	-0.188	0.101
-431.661	-188.693	0.298	-0.004
-430.646	174.528	-0.102	-0.146
-429.632	641.300	0.106	-0.267
-428.617	603.210	-0.140	-0.345
-427.603	177.027	0.082	0.119
-426.588	348.494	-0.098	0.191
-425.573	-103.829	0.156	0.036
-424.559	-66.680	-0.235	0.093
-423.544	-21.372	-0.130	-0.079
-422.530	-37.389	0.230	-0.122
-421.515	124.534	0.173	0.216
-420.500	800.000	-0.072	0.210
-419.486	-178.937	-0.149	-0.003
-418.471	52.206	-0.060	-0.057
-417.457	800.000	0.042	0.138
-416.442	800.000	0.046	-0.138
-415.428	-37.989	0.132	-0.069
-414.413	-21.576	-0.190	0.115
-413.398	154.478	0.186	0.253
-412.384	-184.123	0.272	0.004
-411.369	-46.412	0.174	-0.085
-410.355	192.580	-0.099	-0.148
-409.340	800.000	0.091	-0.378
-408.325	428.585	-0.051	0.109
-407.311	-200.000	0.002	-0.018
-406.296	-200.000	-0.052	-0.526
-405.282	-200.000	0.014	-0.248
-404.267	-200.000	-0.017	-0.112
-403.252	-80.732	-0.249	0.082
-402.238	276.095	0.134	-0.236
-401.223	-30.323	-0.129	0.073
-400.209	-200.000	-0.007	0.294
-399.194	800.000	0.018	0.057
-398.179	-162.684	0.266	0.013
-397.165	-89.262	-0.096	-0.028
-396.150	-188.588	-0.443	-0.005
-395.136	-200.000	0.003	0.141
-394.121	-136.018	0.226	-0.026
-393.106	-200.000	0.010	0.286
-392.092	445.252	0.113	0.247
-391.077	800.000	0.072	0.232
-390.063	6.127	0.165	-0.121
-389.048	-200.000	0.013	0.091
-388.033	800.000	0.085	-0.306
-387.019	-200.000	-0.011	-0.154
-386.004	233.472	0.143	-0.234
-384.990	326.101	0.028	-0.054
-383.975	-94.706	0.090	0.024
-382.960	-140.943	-0.205	0.021
-381.946	-200.000	0.006	-0.085
-380.931	800.000	-0.101	-0.386
-379.917	-0.989	0.253	0.178
-378.902	-200.000	-0.027	-0.136
-377.888	4.168	0.118	0.085
-376.873	99.147	-0.183	-0.209
-375.858	-125.540	-0.205	0.031
-374.844	-58.365	0.455	0.196
-373.829	45.684	0.250	-0.229
-372.815	28.874	0.035	-0.029
-371.800	370.360	-0.127	0.254
-370.785	251.972	-0.169	-0.285
-369.771	800.000	0.030	-0.113
-368.756	-1.900	0.155	0.108
-367.742	74.258	-0.047	0.049
-366.727	447.850	-0.028	-0.061
-365.712	-77.632	-0.303	-0.104
-364.698	290.242	-0.215	-0.386
-363.683	115.201	0.316	-0.382
-362.669	-129.374	-0.215	-0.030
-361.654	201.103	0.177	-0.270
-360.639	-64.382	0.499	-0.201
-359.625	26.823	0.135	-0.112
-358.610	65.045	0.258	0.258
-357.596	190.821	-0.144	-0.214
-356.581	234.149	-0.082	-0.134
-355.566	-200.000	-0.004	0.235
-354.552	537.703	0.144	-0.339
-353.537	141.162	-0.021	0.027
-352.523	-200.000	0.020	0.119
-351.508	326.952	-0.072	0.136
-350.493	800.000	-0.053	-0.216
-349.479	-165.071	0.122	0.005
-348.464	-83.584	0.222	0.070
-347.450	-67.665	-0.334	-0.130
-346.435	-139.988	-0.113	0.012
-345.420	111.118	0.185	-0.220
-344.406	-180.512	0.221	0.005
-343.391	133.486	-0.162	-0.208
-342.377	800.000	-0.076	-0.280
-341.362	-117.141	0.502	0.090
-340.348	-8.663	-0.137	0.091
-339.333	-48.242	-0.016	0.008
-338.318	243.213	-0.125	0.208
-337.304	800.000	-0.049	0.149
-336.289	570.771	-0.140	0.338
-335.275	36.588	-0.110	-0.096
-334.260	800.000	-0.090	0.314
-333.245	-104.694	0.188	-0.043
-332.231	-200.000	-0.020	0.224
-331.216	-126.218	0.118	0.017
-330.202	-180.277	-0.319	-0.007
-329.187	-111.528	0.291	0.059
-328.172	7.839	-0.051	-0.037
-327.158	68.725	0.317	0.322
-326.143	234.930	0.224	0.366
-325.129	800.000	-0.091	-0.288
-324.114	-200.000	0.016	-0.386
-323.099	-29.342	0.472	0.267
-322.085	-200.000	-0.013	-0.191
-321.070	620.222	-0.133	0.331
-320.056	-55.467	0.336	-0.149
-319.041	268.298	-0.049	-0.085
-318.026	-45.408	-0.276	-0.135
-317.012	-200.000	0.020	0.216
-315.997	-182.546	-0.152	-0.003
-314.983	-180.307	0.149	-0.003
-313.968	-200.000	-0.005	0.128
-312.953	186.302	-0.088	0.129
-311.939	28.414	0.047	0.039
-310.924	800.000	0.045	0.161
-309.910	-85.519	0.099	-0.030
-308.895	77.147	-0.180	0.189
-307.880	467.360	0.157	-0.347
-306.866	-60.738	0.221	-0.092
-305.851	800.000	0.048	0.185
-304.837	800.000	0.074	-0.220
-303.822	293.547	-0.038	-0.068
-302.807	-67.833	-0.401	0.155
-301.793	800.000	-0.020	-0.072
-300.778	-96.373	-0.305	0.080
-299.764	101.470	-0.165	0.190
-298.749	-31.798	0.150	-0.083
-297.735	129.016	0.134	-0.169
-296.720	-200.000	-0.074	0.529
-295.705	257.995	-0.109	0.186
-294.691	-200.000	0.052	0.228
-293.676	162.029	-0.066	0.091
-292.662	403.633	-0.097	0.201
-291.647	-100.960	0.132	-0.032
-290.632	106.177	-0.156	-0.182
-289.618	270.263	-0.205	-0.356
-288.603	-79.555	0.368	0.123
-287.589	-81.332	-0.172	-0.056
-286.574	-165.475	0.135	0.006
-285.559	590.476	-0.126	-0.306
-284.545	-103.826	-0.161	0.037
-283.530	800.000	0.010	0.030
-282.516	23.029	0.202	-0.163
-281.501	151.421	0.274	-0.368
-280.486	-43.155	0.219	-0.110
-279.472	203.034	0.036	0.055
-278.457	-79.065	-0.198	0.066
-277.443	25.427	0.077	-0.063
-276.428	-150.331	0.267	-0.020
-275.413	398.073	-0.066	-0.137
-274.399	-200.000	-0.067	0.315
-273.384	-2.407	-0.065	0.045
-272.370	488.590	-0.045	-0.101
-271.355	-200.000	0.038	0.350
-270.340	-54.368	0.058	-0.026
-269.326	800.000	-0.006	-0.021
-268.311	-92.174	0.316	0.088
-267.297	-200.000	-0.007	-0.057
-266.282	800.000	0.030	0.123
-265.267	-10.501	0.301	-0.197
-264.253	-49.906	0.179	0.084
-263.238	114.672	-0.161	0.194
-262.224	290.502	0.184	0.330
-261.209	9.443	0.093	0.069
-260.195	800.000	-0.022	0.083
-259.180	373.418	0.105	0.210
-258.165	46.587	-0.205	0.188
-257.151	306.349	-0.124	0.227
-256.136	-41.067	0.183	0.093
-255.122	226.561	0.082	-0.132
-254.107	249.327	-0.068	0.114
-253.092	311.596	0.116	-0.214
-252.078	-81.328	-0.092	-0.030
-251.063	-41.617	-0.157	0.080
-250.049	800.000	0.110	0.368
-249.034	167.583	0.159	-0.223
-248.019	-3.635	-0.310	-0.213
-247.005	41.302	-0.075	-0.067
-245.990	156.726	0.153	0.209
-244.976	-200.000	-0.031	0.196
-243.961	385.641	-0.183	0.373
-242.946	-97.187	0.178	0.046
-241.932	800.000	0.040	-0.142
-240.917	49.911	0.207	-0.193
-239.903	415.341	-0.085	-0.180
-238.888	-68.762	0.156	0.059
-237.873	172.282	0.100	-0.142
-236.859	-200.000	-0.033	-0.287
-235.844	391.574	-0.113	0.230
-234.830	-20.930	0.151	-0.091
-233.815	112.847	-0.073	0.087
-232.800	-1.345	0.094	0.066
-231.786	-135.588	0.121	0.014
-230.771	374.601	0.072	0.145
-229.757	-36.294	0.240	0.128
-228.742	800.000	0.057	-0.172
-227.727	-196.060	-0.113	0.001
-226.713	-14.885	0.213	0.135
-225.698	120.639	0.129	0.158
-224.684	385.221	-0.047	0.095
-223.669	-54.260	0.156	-0.070
-222.655	-147.888	0.138	-0.011
-221.640	28.570	-0.228	-0.190
-220.625	-200.000	-0.019	-0.106
-219.611	17.148	0.368	0.288
-218.596	23.107	-0.072	0.058
-217.582	800.000	-0.082	-0.239
-216.567	-16.706	-0.234	0.146
-215.552	-200.000	0.015	-0.255
-214.538	-42.691	-0.172	0.086
-213.523	383.763	0.074	0.150
-212.509	20.331	0.184	0.146
-211.494	-200.000	0.018	-0.267
-210.479	-56.723	-0.217	0.095
-209.465	407.172	0.036	0.074
-208.450	-200.000	0.011	0.141
-207.436	-81.704	0.408	-0.132
-206.421	41.898	-0.041	0.036
-205.406	-8.907	-0.174	-0.115
-204.392	402.479	0.143	-0.296
-203.377	-158.307	-0.138	0.008
-202.363	9.163	0.318	0.236
-201.348	-104.880	-0.028	0.006
-200.333	-113.239	-0.031	0.006
-199.319	189.874	-0.284	-0.419
-198.304	-134.604	0.076	-0.009
-197.290	184.519	-0.089	0.130
-196.275	77.801	0.161	0.168
-195.260	-200.000	-0.039	-0.205
-194.246	29.367	0.124	-0.104
-193.231	-200.000	-0.021	0.114
-192.217	-116.878	0.039	-0.007
-191.202	-200.000	-0.002	0.136
-190.187	34.071	-0.235	0.201
-189.173	174.485	-0.187	-0.266
-188.158	-77.607	0.396	-0.135
-187.144	-16.531	-0.164	0.102
-186.129	2.692	0.164	-0.117
-185.114	-147.735	0.075	-0.006
-184.100	-71.659	0.166	-0.061
-183.085	-11.601	-0.185	-0.120
-182.071	158.183	0.144	-0.197
-181.056	66.691	-0.120	-0.121
-180.042	733.389	-0.191	0.504
-179.027	-200.000	-0.035	0.389
-178.012	-5.915	0.234	-0.157
-176.998	-10.832	0.231	-0.150
-175.983	169.688	-0.236	0.331
-174.969	187.011	0.045	0.065
-173.954	-200.000	-0.020	0.374
-172.939	83.214	-0.320	-0.343
-171.925	275.600	-0.105	-0.182
-170.910	-126.916	-0.155	0.022
-169.896	-200.000	-0.026	-0.230
-168.881	-200.000	0.050	0.234
-167.866	-84.829	-0.023	0.007
-166.852	-73.030	-0.086	-0.031
-165.837	280.413	0.064	0.112
-164.823	309.483	0.160	0.294
-163.808	-60.184	0.147	-0.062
-162.793	-197.738	-0.354	0.002
-161.779	-200.000	-0.418	-0.001
-160.764	-73.181	-0.413	0.149
-159.750	-200.000	0.023	0.114
-158.735	-155.100	0.221	-0.014
-157.720	128.172	0.030	0.037
-156.706	125.309	0.145	0.179
-155.691	-200.000	0.045	0.396
-154.677	93.216	-0.147	0.163
-153.662	-131.002	-0.177	-0.023
-152.647	-200.000	0.032	-0.351
-151.633	-26.410	-0.239	-0.137
-150.618	142.749	-0.124	0.162
-149.604	-71.621	-0.092	0.034
-148.589	21.500	0.122	0.097
-147.574	-32.725	0.232	0.127
-146.560	-113.302	0.301	0.058
-145.545	374.065	-0.120	0.241
-144.531	445.385	-0.036	-0.077
-143.516	-98.819	0.249	-0.062
-142.502	-32.445	-0.089	0.049
-141.487	-200.000	0.008	-0.175
-140.472	16.618	-0.091	-0.070
-139.458	-122.607	-0.190	0.030
-138.443	-200.000	0.038	-0.239
-137.429	8.172	-0.324	-0.239
-136.414	-126.627	0.136	-0.020
-135.399	-200.000	-0.029	0.270
-134.385	250.960	0.106	-0.176
-133.370	131.193	-0.162	-0.204
-132.356	-34.308	-0.256	0.138
-131.341	-13.658	0.119	-0.076
-130.326	167.610	-0.087	-0.122
-129.312	111.496	-0.223	0.264
-128.297	-200.000	0.095	-0.480
-127.283	304.588	-0.086	0.157
-126.268	9.352	0.092	-0.069
-125.253	-200.000	0.006	-0.102
-124.239	800.000	0.089	0.279
-123.224	-146.523	0.178	-0.015
-122.210	170.756	0.034	-0.047
-121.195	-66.042	-0.089	0.035
-120.180	24.335	0.263	0.213
-119.166	-187.067	-0.193	-0.003
-118.151	105.963	0.102	-0.118
-117.137	-200.000	-0.033	-0.248
-116.122	325.525	-0.188	-0.352
-115.107	-64.594	0.225	-0.089
-114.093	-95.192	0.242	0.064
-113.078	354.268	0.031	0.061
-112.064	-92.776	0.375	-0.103
-111.049	-184.051	-0.266	0.004
-110.034	117.805	-0.223	0.269
-109.020	800.000	0.134	0.381
-108.005	800.000	0.027	0.091
-106.991	-121.445	0.240	0.039
-105.976	98.968	-0.273	0.309
-104.962	-61.029	-0.056	0.023
-103.947	-54.323	0.111	0.050
-102.932	-200.000	-0.010	-0.192
-101.918	800.000	0.013	-0.045
-100.903	6.564	-0.370	0.269
-99.889	800.000	0.136	-0.371
-98.874	-200.000	0.019	-0.172
-97.859	410.556	-0.106	-0.220
-96.845	-89.494	-0.416	-0.120
-95.830	800.000	0.104	0.315
-94.816	-200.000	-0.007	0.127
-93.801	-107.436	0.030	-0.006
-92.786	-60.208	-0.171	-0.071
-91.772	323.847	0.086	0.161
-90.757	-150.628	0.403	0.030
-89.743	-200.000	-0.007	-0.184
-88.728	-83.580	0.064	0.020
-87.713	-200.000	-0.053	-0.379
-86.699	1.483	0.151	0.106
-85.684	800.000	0.118	0.328
-84.670	354.968	-0.012	-0.023
-83.655	800.000	0.110	0.299
-82.640	800.000	-0.030	0.095
-81.626	800.000	0.104	-0.381
-80.611	-200.000	0.033	0.318
-79.597	68.868	-0.125	0.126
-78.582	-200.000	0.021	0.107
-77.567	241.302	-0.186	0.304
-76.553	78.309	0.148	0.154
-75.538	648.715	0.133	-0.333
-74.524	800.000	-0.066	0.226
-73.509	342.588	-0.033	0.064
-72.494	-200.000	0.028	-0.295
-71.480	-19.460	-0.115	0.070
-70.465	2.156	0.182	-0.129
-69.451	424.563	0.014	-0.029
-68.436	274.404	-0.131	0.226
-67.422	-32.593	-0.043	0.023
-66.407	-26.877	0.187	0.107
-65.392	23.529	-0.110	0.088
-64.378	110.660	0.051	-0.060
-63.363	-33.483	0.129	-0.070
-62.349	-47.453	0.205	-0.098
-61.334	66.705	-1.129	-1.124
-60.319	5.810	0.601	0.435
-59.305	800.000	-0.365	-1.068
-58.290	107.759	0.900	1.049
-57.276	-200.000	0.386	1.692
-56.261	-200.000	111.768	636.814
-55.246	473.576	1499.796	3308.003
-54.232	147.329	2675.419	3523.594
-53.217	97.572	2289.283	2573.282
-52.203	36.701	1902.809	1644.242
-51.188	30.813	1693.845	1418.904
-50.173	28.412	1652.106	1366.015
-49.159	50.118	1706.319	1575.594
-48.144	49.064	1721.288	1581.394
-47.130	30.573	1679.557	1404.897
-46.115	27.882	1665.201	1372.640
-45.100	27.670	1660.590	1367.197
-44.086	27.638	1658.033	1364.796
-43.071	27.543	1655.632	1362.059
-42.057	27.506	1653.113	1359.658
-41.042	27.652	1650.244	1358.327
-40.027	27.702	1648.395	1357.122
-39.013	27.562	1646.855	1354.765
-37.998	27.639	1645.069	1353.810
-36.984	27.638	1644.247	1353.074
-35.969	27.838	1641.912	1352.579
-34.954	27.767	1640.888	1351.161
-33.940	27.746	1639.025	1349.416
-32.925	27.785	1637.229	1348.168
-31.911	27.690	1635.653	1346.118
-30.896	27.736	1633.575	1344.692
-29.881	27.698	1632.038	1343.093
-28.867	27.741	1630.352	1341.969
-27.852	27.733	1628.821	1340.601
-26.838	27.672	1627.739	1339.211
-25.823	27.728	1626.130	1338.241
-24.809	27.767	1624.998	1337.545
-23.794	27.788	1623.542	1336.448
-22.779	27.774	1622.068	1335.080
-21.765	27.714	1620.397	1333.209
-20.750	27.686	1618.908	1331.725
-19.736	27.792	1617.411	1331.217
-18.721	27.792	1615.955	1329.962
-17.706	27.841	1614.814	1329.332
-16.692	27.787	1612.970	1327.367
-15.677	27.747	1612.021	1326.241
-14.663	27.904	1610.230	1325.854
-13.648	27.826	1609.394	1324.545
-12.633	27.793	1607.585	1322.770
-11.619	27.777	1606.166	1321.434
-10.604	27.788	1604.294	1319.921
-9.590	27.731	1603.575	1318.863
-8.575	27.832	1601.976	1318.227
-7.560	27.839	1600.871	1317.317
-6.546	27.783	1600.229	1316.333
-5.531	27.813	1598.550	1315.111
-4.517	27.735	1598.165	1314.185
-3.502	27.825	1596.684	1313.559
-2.487	27.864	1594.988	1312.393
-1.473	27.498	1583.112	1299.955
-0.458	24.693	1563.205	1263.762
0.556	19.446	1564.971	1233.348
1.571	17.259	1588.472	1235.869
2.586	16.913	1600.961	1242.942
3.600	16.472	1551.048	1200.954
4.615	13.731	1452.842	1106.547
5.629	11.006	1398.061	1047.216
6.644	10.526	1390.757	1038.581
7.659	10.445	1389.757	1037.219
8.673	10.443	1388.793	1036.400
9.688	10.476	1386.434	1034.755
10.702	10.290	1383.636	1031.389
11.717	11.631	1384.998	1040.859
12.731	14.660	1390.442	1064.195
13.746	17.210	1394.065	1083.150
14.761	17.518	1393.407	1084.511
15.775	16.555	1390.813	1076.271
16.790	15.536	1388.191	1067.669
17.804	14.631	1386.283	1060.360
18.819	14.227	1384.841	1056.602
19.834	13.922	1383.535	1053.573
20.848	13.759	1382.019	1051.293
21.863	13.434	1380.753	1048.178
22.877	13.352	1379.366	1046.517
23.892	13.345	1378.405	1045.650
24.907	13.287	1377.541	1044.533
25.921	13.258	1376.690	1043.615
26.936	13.259	1376.043	1043.040
27.950	13.463	1374.735	1043.240
28.965	13.438	1373.444	1042.014
29.980	13.494	1372.688	1041.695
30.994	13.506	1371.536	1040.808
32.009	13.574	1370.188	1040.116
33.023	13.697	1368.452	1039.479
34.038	13.490	1367.894	1037.669
35.053	13.463	1366.716	1036.511
36.067	13.496	1365.155	1035.445
37.082	13.399	1364.637	1034.351
38.096	13.531	1363.294	1034.069
39.111	13.416	1362.558	1032.699
40.126	13.379	1361.474	1031.555
41.140	13.315	1360.790	1030.549
42.155	13.211	1360.236	1029.390
43.169	13.307	1359.635	1029.441
44.184	13.292	1359.810	1029.387
45.199	13.284	1359.453	1028.977
46.213	13.315	1358.668	1028.488
47.228	13.329	1358.242	1028.159
48.242	13.387	1356.591	1027.179
49.257	13.328	1355.296	1025.743
50.271	13.377	1353.803	1024.824
51.286	13.452	1352.347	1024.095
52.301	13.494	1351.046	1023.281
53.315	13.307	1350.291	1021.459
54.330	13.305	1348.829	1020.254
55.344	13.292	1347.961	1019.429
56.359	13.194	1346.520	1017.643
57.374	13.192	1345.663	1016.893
58.388	13.189	1345.111	1016.367
59.403	13.169	1344.797	1015.920
60.417	13.208	1343.757	1015.281
61.432	13.231	1342.730	1014.558
62.447	13.148	1341.946	1013.363
63.461	13.159	1340.317	1012.111
64.476	13.117	1339.525	1011.170
65.490	13.011	1338.631	1009.755
66.505	13.136	1337.275	1009.409
67.520	13.196	1335.513	1008.353
68.534	13.216	1334.673	1007.752
69.549	13.115	1334.109	1006.620
70.563	13.111	1332.614	1005.378
71.578	13.098	1331.663	1004.495
72.593	13.078	1330.754	1003.599
73.607	13.018	1330.050	1002.616
74.622	13.040	1328.969	1001.844
75.636	13.080	1328.358	1001.535
76.651	13.021	1328.030	1000.846
77.666	13.013	1327.038	999.959
78.680	13.102	1327.240	1000.560
79.695	13.120	1325.789	999.489
80.709	13.041	1325.098	998.401
81.724	13.222	1324.067	998.628
82.739	13.351	1323.261	998.711
83.753	13.276	1322.454	997.564
84.768	13.416	1321.183	997.362
85.782	13.449	1320.172	996.707
86.797	13.378	1318.563	994.974
87.812	13.314	1317.724	993.872
88.826	13.336	1316.503	992.995
89.841	13.338	1315.245	991.972
90.855	13.452	1314.391	991.924
91.870	13.467	1313.261	991.072
92.884	13.472	1312.736	990.613
93.899	13.427	1311.683	989.467
94.914	13.471	1311.546	989.535
95.928	13.525	1310.314	988.840
96.943	13.469	1309.501	987.809
97.957	13.429	1308.202	986.499
98.972	13.452	1307.136	985.749
99.987	13.473	1305.761	984.749
101.001	13.340	1305.381	983.584
102.016	13.380	1304.283	982.909
103.030	13.370	1303.414	982.108
104.045	13.384	1302.344	981.295
105.060	13.308	1301.512	980.133
106.074	13.302	1299.537	978.522
107.089	13.233	1298.515	977.258
108.103	13.250	1296.635	975.858
109.118	13.255	1295.497	974.945
110.133	13.173	1294.315	973.482
111.147	13.278	1292.725	972.821
112.162	13.251	1291.862	971.925
113.176	13.345	1290.333	971.241
114.191	13.284	1290.076	970.603
115.206	13.380	1288.571	969.947
116.220	13.442	1287.268	969.247
117.235	13.312	1286.431	967.767
118.249	13.244	1285.099	966.285
119.264	13.293	1284.325	965.901
120.279	13.291	1282.839	964.690
121.293	13.236	1281.821	963.516
122.308	13.229	1281.015	962.787
123.322	13.139	1280.349	961.678
124.337	13.258	1279.154	961.387
125.352	13.271	1277.620	960.221
126.366	13.205	1276.634	959.010
127.381	13.203	1275.506	958.072
128.395	13.234	1274.583	957.470
129.410	13.191	1273.764	956.520
130.424	13.271	1273.084	956.388
131.439	13.345	1271.720	955.707
132.454	13.331	1270.888	954.915
133.468	13.416	1269.485	954.266
134.483	13.415	1268.998	953.813
135.497	13.315	1268.482	952.764
136.512	13.365	1267.055	951.897
137.527	13.411	1265.522	950.921
138.541	13.342	1264.091	949.366
139.556	13.343	1262.719	948.257
140.570	13.368	1262.006	947.783
141.585	13.351	1260.845	946.728
142.600	13.500	1259.401	946.415
143.614	13.532	1258.768	946.040
144.629	13.603	1257.512	945.414
145.643	13.441	1257.052	944.061
146.658	13.476	1255.461	942.983
147.673	13.501	1253.902	941.868
148.687	13.400	1252.929	940.481
149.702	13.384	1251.064	938.906
150.716	13.374	1250.388	938.263
151.731	13.348	1249.187	937.129
152.746	13.405	1247.615	936.193
153.760	13.411	1246.403	935.234
154.775	13.470	1245.301	934.653
155.789	13.509	1244.491	934.186
156.804	13.603	1242.819	933.377
157.819	13.549	1241.898	932.301
158.833	13.675	1240.939	932.206
159.848	13.676	1240.307	931.650
160.862	13.599	1239.115	930.244
161.877	13.574	1238.078	929.243
162.892	13.460	1236.931	927.658
163.906	13.528	1235.952	927.227
164.921	13.522	1235.109	926.474
165.935	13.538	1234.445	925.986
166.950	13.666	1233.445	925.867
167.964	13.501	1232.975	924.514
168.979	13.569	1232.202	924.233
169.994	13.630	1231.290	923.807
171.008	13.691	1230.353	923.361
172.023	13.716	1229.761	922.975
173.037	13.729	1229.145	922.502
174.052	13.779	1227.915	921.773
175.067	13.662	1226.769	920.184
176.081	13.605	1225.692	918.975
177.096	13.590	1224.788	918.135
178.110	13.723	1223.755	918.016
179.125	13.605	1222.575	916.398
180.140	13.738	1221.370	916.147
181.154	13.698	1220.206	914.975
182.169	13.805	1218.746	914.384
183.183	13.723	1217.742	913.102
184.198	13.827	1216.789	912.877
185.213	13.935	1215.106	912.126
186.227	13.846	1214.860	911.375
187.242	13.910	1213.427	910.567
188.256	13.951	1212.583	910.078
189.271	13.957	1211.433	909.167
190.286	13.905	1209.949	907.689
191.300	13.651	1209.454	905.850
192.315	13.603	1208.596	904.866
193.329	13.672	1208.423	905.031
194.344	13.656	1207.386	904.091
195.359	13.707	1207.028	904.020
196.373	13.860	1206.454	904.341
197.388	13.810	1206.538	904.056
198.402	14.005	1205.406	904.185
199.417	14.095	1205.209	904.447
200.432	14.216	1203.848	904.004
201.446	14.096	1202.882	902.549
202.461	14.278	1201.983	902.778
203.475	14.258	1200.925	901.798
204.490	14.100	1199.766	899.992
205.504	14.170	1198.522	899.357
206.519	14.073	1197.604	898.068
207.534	14.093	1196.183	897.029
208.548	14.046	1195.455	896.151
209.563	14.099	1194.536	895.665
210.577	14.133	1193.552	895.035
211.592	14.165	1192.812	894.569
212.607	14.235	1191.751	894.069
213.621	14.319	1190.831	893.753
214.636	14.201	1189.923	892.362
215.650	14.264	1189.128	892.022
216.665	14.197	1188.329	890.985
217.680	14.339	1187.094	890.740
218.694	14.449	1186.203	890.581
219.709	14.409	1185.525	889.781
220.723	14.298	1185.185	888.851
221.738	14.302	1184.586	888.348
222.753	14.252	1183.952	887.523
223.767	14.340	1182.988	887.191
224.782	14.503	1182.275	887.449
225.796	14.483	1181.864	886.956
226.811	14.556	1180.586	886.303
227.826	14.479	1180.083	885.441
228.840	14.437	1179.317	884.565
229.855	14.462	1178.575	884.061
230.869	14.425	1178.091	883.423
231.884	14.476	1176.834	882.673
232.899	14.424	1176.134	881.792
233.913	14.320	1175.687	880.831
234.928	14.407	1174.758	880.516
235.942	14.422	1173.810	879.806
236.957	14.325	1173.195	878.755
237.972	14.403	1172.608	878.653
238.986	14.429	1171.933	878.204
240.001	14.427	1171.212	877.578
241.015	14.539	1169.911	877.113
242.030	14.598	1169.405	876.963
243.045	14.562	1168.743	876.200
244.059	14.559	1167.907	875.485
245.074	14.587	1166.923	874.812
246.088	14.632	1166.396	874.576
247.103	14.668	1165.329	873.887
248.117	14.655	1164.681	873.256
249.132	14.843	1163.963	873.625
250.147	14.788	1163.607	872.991
251.161	14.866	1163.217	873.028
252.176	14.836	1161.998	871.879
253.190	14.991	1161.247	872.047
254.205	14.923	1160.840	871.314
255.220	14.984	1160.295	871.143
256.234	15.006	1159.578	870.643
257.249	15.038	1158.877	870.205
258.263	14.996	1158.336	869.503
259.278	14.984	1157.800	868.960
260.293	14.951	1157.184	868.251
261.307	15.107	1156.289	868.310
262.322	15.141	1155.811	868.053
263.336	15.090	1155.325	867.344
264.351	15.116	1154.730	866.959
265.366	15.173	1153.995	866.622
266.380	15.128	1153.358	865.835
267.395	15.161	1152.234	865.086
268.409	15.044	1151.606	863.935
269.424	15.105	1151.089	863.785
270.439	15.079	1150.177	862.891
271.453	15.137	1149.500	862.603
272.468	15.052	1148.756	861.531
273.482	15.140	1147.771	861.172
274.497	15.038	1147.896	860.665
275.512	15.150	1146.674	860.248
276.526	15.156	1145.951	859.657
277.541	15.244	1145.025	859.337
278.555	15.095	1144.508	858.114
279.570	15.176	1144.413	858.379
280.585	15.342	1143.009	858.098
281.599	15.338	1141.922	857.186
282.614	15.295	1141.185	856.340
283.628	15.288	1140.149	855.449
284.643	15.344	1139.251	854.985
285.657	15.259	1138.457	853.879
286.672	15.313	1137.365	853.262
287.687	15.414	1136.340	852.932
288.701	15.243	1136.072	851.784
289.716	15.344	1135.352	851.680
290.730	15.327	1134.540	850.910
291.745	15.337	1133.735	850.282
292.760	15.530	1132.845	850.516
293.774	15.490	1132.478	849.964
294.789	15.378	1132.538	849.367
295.803	15.481	1131.219	848.821
296.818	15.419	1130.577	847.955
297.833	15.417	1130.162	847.560
298.847	15.570	1128.538	847.038
299.862	15.544	1127.937	846.377
300.876	15.436	1127.597	845.504
301.891	15.562	1127.052	845.657
302.906	15.739	1125.903	845.610
303.920	15.733	1125.390	845.118
304.935	15.840	1124.742	845.093
305.949	15.791	1124.248	844.403
306.964	15.756	1123.428	843.538
307.979	15.778	1122.572	842.929
308.993	15.676	1122.034	841.941
310.008	15.806	1121.177	841.872
311.022	15.865	1120.297	841.434
312.037	15.931	1119.200	840.864
313.052	15.783	1118.383	839.438
314.066	15.703	1117.650	838.415
315.081	15.649	1117.020	837.597
316.095	15.710	1115.918	837.002
317.110	15.663	1115.457	836.345
318.125	15.728	1114.599	835.954
319.139	15.752	1114.042	835.583
320.154	15.709	1113.165	834.636
321.168	15.677	1113.005	834.281
322.183	15.865	1111.567	834.062
323.197	15.876	1111.397	833.915
324.212	15.751	1111.034	832.949
325.227	15.835	1110.286	832.733
326.241	15.841	1109.419	832.036
327.256	15.779	1108.673	831.098
328.270	15.755	1107.802	830.255
329.285	15.781	1106.787	829.548
330.300	15.745	1105.866	828.608
331.314	15.818	1105.150	828.357
332.329	15.854	1103.950	827.559
333.343	15.856	1103.441	827.113
334.358	15.886	1102.522	826.501
335.373	16.022	1101.794	826.548
336.387	15.999	1100.806	825.623
337.402	16.021	1100.096	825.125
338.416	16.079	1099.784	825.103
339.431	16.085	1098.729	824.263
340.446	16.023	1098.440	823.672
341.460	16.119	1097.625	823.457
342.475	16.150	1096.914	823.001
343.489	16.243	1095.653	822.439
344.504	16.348	1094.849	822.272
345.519	16.341	1093.933	821.475
346.533	16.261	1093.077	820.373
347.548	16.346	1092.541	820.310
348.562	16.287	1091.766	819.370
349.577	16.203	1091.135	818.419
350.592	16.251	1090.014	817.734
351.606	16.255	1089.825	817.539
352.621	16.167	1089.335	816.674
353.635	16.099	1088.631	815.748
354.650	16.185	1087.911	815.549
355.665	16.231	1086.818	814.881
356.679	16.252	1086.485	814.660
357.694	16.311	1086.136	814.613
358.708	16.393	1084.922	814.025
359.723	16.295	1084.350	813.052
360.738	16.473	1083.642	813.302
361.752	16.344	1083.272	812.334
362.767	16.416	1082.555	812.071
363.781	16.559	1081.834	812.146
364.796	16.486	1081.680	811.607
365.810	16.478	1081.108	811.069
366.825	16.585	1080.147	810.788
367.840	16.759	1079.443	811.021
368.854	16.724	1079.054	810.491
369.869	16.686	1078.489	809.813
370.883	16.552	1077.722	808.521
371.898	16.532	1077.027	807.836
372.913	16.630	1075.927	807.403
373.927	16.671	1075.961	807.555
374.942	16.636	1075.335	806.849
375.956	16.746	1074.635	806.773
376.971	16.703	1073.927	805.968
377.986	16.694	1073.689	805.674
379.000	16.678	1073.442	805.343
380.015	16.875	1072.189	805.266
381.029	16.893	1071.556	804.805
382.044	16.877	1070.897	804.161
383.059	16.841	1070.643	803.730
384.073	16.957	1069.334	803.228
385.088	16.920	1068.636	802.455
386.102	16.937	1067.530	801.636
387.117	16.888	1066.422	800.500
388.132	16.785	1065.551	799.287
389.146	16.926	1065.065	799.519
390.161	16.891	1064.333	798.733
391.175	16.832	1063.702	797.911
392.190	16.920	1063.245	797.913
393.205	16.978	1062.564	797.603
394.219	17.077	1061.518	797.211
395.234	16.958	1060.785	796.035
396.248	16.876	1060.044	795.021
397.263	16.906	1058.517	793.949
398.278	16.888	1058.070	793.456
399.292	16.851	1057.487	792.777
400.307	16.772	1057.017	791.985
401.321	16.899	1056.258	791.940
402.336	16.956	1055.088	791.260
403.350	16.873	1054.735	790.534
404.365	16.966	1053.631	790.074
405.380	17.006	1053.218	789.878
406.394	17.032	1052.648	789.502
407.409	17.151	1051.738	789.302
408.423	17.079	1051.380	788.631
409.438	17.246	1050.348	788.562
410.453	17.242	1049.897	788.133
411.467	17.379	1049.025	788.044
412.482	17.179	1048.184	786.419
413.496	17.280	1048.069	786.729
414.511	17.279	1047.677	786.360
415.526	17.329	1047.145	786.124
416.540	17.363	1046.443	785.685
417.555	17.544	1045.604	785.820
418.569	17.411	1045.179	784.817
419.584	17.397	1044.745	784.356
420.599	17.370	1044.286	783.816
421.613	104.689	1325.092	1475.818
422.628	96.187	1365.960	1475.896
