DTS Sentinel unit serial number:	SN413079Multiplexer serial number:	ORYXHardware model number:	OX4-SRSoftware version number:	ORYX F/W v4.00 Oryx Data Collector v3.7.2.0data status	okinstallation	princeton_trtdifferential loss correction	single-endedforward channel	channel 2reverse channel	N/Adate	2019/09/17time	06:43:34forward acquisition time	60.00reverse acquisition time	0.00gamma	496.2192k internal	0.2333k external	0.2333temperature offset calibration	0.9984default loss term (dB/km)	0.3790temperature slope calibration	1.0000multiplexer offset coefficient	1.0000multiplexer slope coefficient	1.0000fibre end	0.00T internal ref (°C)	27.87T ext. ref 1 (°C)	0.12T ext. ref 2 (°C)	21.29length (m)	temperature (°C)	Stokes	anti-Stokes-747.200	-200.000	0.064	0.411
-746.185	-3.490	-0.210	0.147
-745.171	-200.000	-0.040	-0.179
-744.156	-200.000	0.034	-0.248
-743.142	-200.000	0.046	0.447
-742.127	-35.643	-0.524	0.286
-741.112	-200.000	0.014	-0.210
-740.098	75.366	-0.082	0.088
-739.083	-64.185	0.184	-0.075
-738.069	-95.274	-0.114	-0.031
-737.054	84.948	0.093	0.102
-736.039	-94.018	-0.351	-0.097
-735.025	-5.336	0.224	0.154
-734.010	-200.000	-0.009	-0.202
-732.996	-22.840	0.261	-0.158
-731.981	-119.183	-0.127	0.022
-730.966	404.481	0.207	-0.439
-729.952	-54.416	-0.574	0.261
-728.937	72.609	-0.157	-0.164
-727.923	-7.345	-0.019	-0.013
-726.908	-25.820	0.099	-0.059
-725.894	-165.057	-0.163	0.007
-724.879	447.497	-0.101	-0.223
-723.864	800.000	0.073	-0.288
-722.850	800.000	0.042	0.148
-721.835	-200.000	0.003	-0.060
-720.821	-143.556	-0.278	0.027
-719.806	98.587	-0.108	0.125
-718.791	-25.434	-0.123	0.073
-717.777	-25.233	-0.080	-0.047
-716.762	207.606	-0.110	0.172
-715.748	-92.944	-0.051	-0.014
-714.733	53.272	-0.229	-0.220
-713.718	16.713	0.055	0.044
-712.704	-200.000	0.022	0.489
-711.689	-200.000	-0.023	0.384
-710.675	-200.000	-0.040	0.309
-709.660	-135.257	-0.031	0.004
-708.645	73.537	0.089	-0.094
-707.631	-199.741	-0.085	-0.000
-706.616	64.183	-0.155	-0.157
-705.602	14.848	-0.203	-0.160
-704.587	-151.640	0.249	0.018
-703.572	800.000	0.071	0.203
-702.558	-64.605	0.143	-0.058
-701.543	282.128	-0.217	0.390
-700.529	-89.048	-0.090	-0.027
-699.514	800.000	0.034	0.102
-698.499	72.591	0.101	-0.106
-697.485	800.000	-0.034	0.100
-696.470	-200.000	0.022	-0.264
-695.456	-200.000	-0.040	-0.179
-694.441	-200.000	0.040	0.263
-693.426	-200.000	-0.024	0.355
-692.412	800.000	-0.006	-0.016
-691.397	-67.309	-0.129	0.051
-690.383	-29.638	0.281	-0.161
-689.368	-200.000	-0.002	-0.053
-688.354	-119.841	-0.283	-0.049
-687.339	-34.250	0.114	-0.063
-686.324	-99.126	-0.219	-0.056
-685.310	-31.537	-0.186	0.105
-684.295	45.764	0.079	-0.074
-683.281	-134.989	-0.488	-0.059
-682.266	-127.023	0.221	-0.033
-681.251	-200.000	-0.013	0.132
-680.237	800.000	-0.085	0.245
-679.222	704.414	-0.119	0.315
-678.208	128.268	-0.092	-0.117
-677.193	-200.000	0.016	-0.129
-676.178	641.728	0.043	-0.110
-675.164	-28.095	0.063	0.037
-674.149	-96.982	-0.334	0.088
-673.135	800.000	-0.037	0.148
-672.120	482.087	-0.011	0.026
-671.105	-30.114	-0.123	-0.070
-670.091	-45.337	0.250	0.124
-669.076	110.270	0.063	-0.076
-668.062	345.431	0.167	0.328
-667.047	-120.138	-0.214	0.037
-666.032	-103.843	0.084	0.020
-665.018	-79.321	0.260	-0.088
-664.003	207.036	-0.111	0.173
-662.989	-200.000	-0.025	-0.235
-661.974	800.000	-0.056	-0.167
-660.959	-200.000	0.011	0.056
-659.945	633.459	-0.080	-0.203
-658.930	800.000	0.019	-0.056
-657.916	244.594	0.117	-0.196
-656.901	46.648	-0.098	0.092
-655.886	-22.988	0.055	0.033
-654.872	-200.000	-0.003	-0.102
-653.857	-94.580	-0.188	0.051
-652.843	-87.855	0.557	0.168
-651.828	-200.000	0.026	-0.118
-650.814	303.404	-0.150	0.279
-649.799	190.988	-0.081	-0.122
-648.784	425.078	-0.035	0.075
-647.770	122.323	0.088	0.110
-646.755	-200.000	0.036	-0.258
-645.741	0.897	0.219	-0.157
-644.726	-200.000	0.009	0.354
-643.711	-5.729	0.145	0.099
-642.697	-200.000	0.480	0.001
-641.682	-123.431	-0.181	0.029
-640.668	-56.160	-0.380	0.169
-639.653	800.000	-0.050	-0.151
-638.638	-92.669	0.375	0.105
-637.624	-13.144	-0.129	0.084
-636.609	-94.414	0.092	-0.025
-635.595	-35.526	0.080	0.043
-634.580	-120.798	-0.103	-0.017
-633.565	-200.000	-0.045	-0.263
-632.551	800.000	-0.067	0.287
-631.536	-11.293	0.126	0.083
-630.522	7.006	-0.305	-0.228
-629.507	-134.034	-0.329	0.041
-628.492	8.268	-0.256	0.193
-627.478	-200.000	-0.003	0.408
-626.463	-106.451	-0.277	-0.062
-625.449	-79.199	0.207	0.070
-624.434	542.051	0.010	-0.024
-623.419	21.842	-0.334	-0.272
-622.405	-106.177	0.297	0.067
-621.390	-200.000	-0.030	0.226
-620.376	91.873	0.085	0.096
-619.361	5.813	0.219	-0.162
-618.346	779.137	0.033	0.092
-617.332	133.236	0.165	-0.213
-616.317	-21.651	0.037	-0.023
-615.303	137.370	0.173	-0.227
-614.288	94.312	0.087	0.099
-613.273	591.671	0.050	-0.123
-612.259	113.635	0.194	-0.235
-611.244	-9.778	-0.083	-0.055
-610.230	-93.679	0.272	0.075
-609.215	-200.000	0.040	-0.333
-608.201	-200.000	-0.011	-0.330
-607.186	54.717	-0.130	-0.126
-606.171	-132.480	0.205	-0.026
-605.157	-2.240	0.178	0.125
-604.142	-122.323	0.259	0.042
-603.128	-200.000	-0.028	-0.259
-602.113	-81.490	-0.360	0.118
-601.098	135.343	0.197	-0.257
-600.084	50.956	0.136	-0.129
-599.069	35.282	-0.073	-0.064
-598.055	150.845	0.139	-0.188
-597.040	-200.000	-0.032	0.363
-596.025	155.379	-0.111	-0.152
-595.011	90.671	-0.214	-0.240
-593.996	-114.794	0.117	-0.022
-592.982	254.577	-0.034	-0.059
-591.967	-183.011	0.192	0.003
-590.952	333.418	-0.180	-0.348
-589.938	-42.435	0.241	-0.123
-588.923	6.101	-0.320	-0.237
-587.909	-140.173	-0.228	0.024
-586.894	-74.297	0.089	0.032
-585.879	16.370	0.089	-0.070
-584.865	97.458	0.164	0.188
-583.850	51.687	-0.138	0.131
-582.836	1.956	-0.242	-0.175
-581.821	-14.879	-0.181	-0.116
-580.806	-66.565	-0.156	0.062
-579.792	-71.296	0.139	0.052
-578.777	-28.117	-0.175	-0.101
-577.763	-200.000	-0.025	0.237
-576.748	250.593	0.103	0.175
-575.733	-18.549	-0.125	-0.078
-574.719	-200.000	0.049	-0.263
-573.704	122.763	-0.133	-0.166
-572.690	283.664	-0.196	-0.352
-571.675	-93.256	-0.252	-0.070
-570.661	-77.796	-0.463	-0.160
-569.646	-147.544	0.213	-0.018
-568.631	-66.299	-0.161	0.064
-567.617	-81.280	0.324	0.107
-566.602	-27.782	0.103	0.060
-565.588	800.000	0.091	-0.269
-564.573	800.000	0.057	0.169
-563.558	800.000	0.049	-0.213
-562.544	89.887	-0.076	-0.085
-561.529	-89.842	-0.469	-0.137
-560.515	-200.000	-0.058	0.406
-559.500	8.021	0.034	-0.026
-558.485	-96.329	-0.102	-0.027
-557.471	321.919	-0.118	0.224
-556.456	121.338	-0.111	0.138
-555.442	213.909	-0.256	-0.404
-554.427	-77.541	-0.183	0.063
-553.412	-200.000	0.296	-0.000
-552.398	104.630	0.079	0.093
-551.383	-154.108	0.252	0.017
-550.369	-113.326	0.392	-0.077
-549.354	-111.689	0.120	0.024
-548.339	800.000	-0.087	0.249
-547.325	81.435	0.171	-0.184
-546.310	-200.000	0.006	-0.084
-545.296	1.102	0.168	-0.120
-544.281	608.145	0.164	-0.408
-543.266	-200.000	0.003	0.056
-542.252	482.784	0.090	-0.204
-541.237	-80.584	-0.115	-0.038
-540.223	800.000	0.100	-0.291
-539.208	37.244	-0.035	-0.031
-538.193	107.333	-0.122	0.144
-537.179	-200.000	-0.028	-0.125
-536.164	15.432	0.110	0.086
-535.150	116.494	0.117	-0.143
-534.135	800.000	0.043	-0.119
-533.121	-105.420	0.353	0.080
-532.106	226.036	0.128	0.207
-531.091	-112.664	0.100	-0.020
-530.077	356.736	0.106	0.211
-529.062	-200.000	-0.006	-0.108
-528.048	128.166	0.112	-0.142
-527.033	-172.392	-0.140	-0.004
-526.018	92.841	0.182	-0.206
-525.004	11.883	0.174	-0.134
-523.989	-12.521	0.156	-0.102
-522.975	288.984	0.064	0.116
-521.960	45.569	-0.328	0.302
-520.945	271.476	0.036	0.063
-519.931	800.000	-0.072	-0.204
-518.916	-33.819	0.036	0.020
-517.902	-84.005	-0.126	0.040
-516.887	354.015	0.065	-0.129
-515.872	-200.000	0.025	-0.158
-514.858	59.145	-0.135	-0.132
-513.843	-124.949	0.120	0.018
-512.829	-147.160	0.096	-0.008
-511.814	800.000	0.051	-0.145
-510.799	-92.666	-0.156	0.043
-509.785	-136.130	-0.377	0.044
-508.770	-200.000	0.013	0.313
-507.756	626.042	-0.072	0.181
-506.741	276.227	-0.191	-0.337
-505.726	-77.642	-0.389	-0.134
-504.712	-79.953	-0.212	-0.071
-503.697	-131.829	0.251	-0.033
-502.683	-31.494	-0.200	-0.112
-501.668	-200.000	-0.011	0.336
-500.653	75.151	-0.180	0.189
-499.639	75.176	0.039	-0.041
-498.624	-200.000	-0.010	-0.231
-497.610	368.430	-0.077	0.156
-496.595	90.263	0.094	0.105
-495.581	47.178	0.082	0.076
-494.566	91.449	-0.128	0.144
-493.551	2.478	-0.200	0.144
-492.537	119.783	-0.116	0.144
-491.522	36.439	0.098	0.086
-490.508	281.272	0.106	-0.188
-489.493	75.315	-0.168	-0.177
-488.478	-33.535	-0.234	0.129
-487.464	13.005	-0.220	-0.169
-486.449	332.101	0.164	-0.316
-485.435	53.332	0.369	-0.352
-484.420	249.172	-0.039	-0.066
-483.405	-75.874	0.337	0.119
-482.391	-101.872	0.335	-0.081
-481.376	-200.000	0.003	-0.080
-480.362	800.000	0.102	-0.398
-479.347	333.485	-0.053	0.101
-478.332	205.251	0.114	-0.176
-477.318	800.000	-0.106	-0.328
-476.303	-200.000	-0.048	0.358
-475.289	800.000	-0.016	-0.062
-474.274	57.039	-0.225	0.218
-473.259	-55.157	0.191	0.086
-472.245	-200.000	-0.060	0.421
-471.230	-35.272	-0.254	-0.138
-470.216	-200.000	0.009	0.150
-469.201	112.323	-0.122	-0.147
-468.186	-200.000	-0.012	0.129
-467.172	-71.006	-0.045	-0.017
-466.157	29.900	-0.309	0.262
-465.143	148.806	0.218	0.294
-464.128	-183.776	-0.122	-0.002
-463.113	13.928	-0.282	-0.218
-462.099	65.729	0.136	0.137
-461.084	-200.000	0.019	0.261
-460.070	9.582	-0.237	-0.178
-459.055	-100.244	-0.264	0.065
-458.040	-200.000	0.016	-0.126
-457.026	-200.000	-0.001	0.183
-456.011	39.925	-0.190	-0.170
-454.997	88.609	0.124	-0.137
-453.982	-200.000	0.010	-0.324
-452.968	-83.091	0.255	-0.082
-451.953	-82.330	0.245	-0.079
-450.938	6.240	-0.204	-0.151
-449.924	-124.812	0.369	-0.057
-448.909	800.000	0.047	-0.191
-447.895	-12.102	-0.180	0.117
-446.880	-88.707	-0.268	0.079
-445.865	85.548	-0.119	-0.130
-444.851	800.000	0.030	0.116
-443.836	47.270	0.048	-0.044
-442.822	-68.634	-0.116	-0.045
-441.807	-194.966	-0.329	-0.003
-440.792	126.653	0.188	0.236
-439.778	42.592	-0.125	-0.113
-438.763	-112.529	0.201	-0.040
-437.749	-77.501	-0.320	-0.110
-436.734	-42.522	-0.256	-0.129
-435.719	441.541	0.121	0.263
-434.705	-15.482	0.329	0.209
-433.690	57.236	-0.118	-0.114
-432.676	129.663	-0.302	-0.383
-431.661	257.085	0.152	-0.259
-430.646	-166.803	0.153	0.006
-429.632	-169.097	-0.060	-0.002
-428.617	-56.169	0.405	-0.179
-427.603	-2.254	-0.189	0.132
-426.588	-107.749	0.133	0.029
-425.573	-1.863	-0.141	-0.098
-424.559	-62.441	-0.220	0.091
-423.544	-200.000	0.012	-0.129
-422.530	297.222	-0.173	-0.315
-421.515	-33.926	-0.143	0.078
-420.500	-62.333	0.409	0.169
-419.486	8.623	-0.292	0.218
-418.471	522.394	0.113	-0.264
-417.457	-11.133	-0.177	-0.116
-416.442	-3.362	0.085	0.059
-415.428	-5.126	-0.147	0.100
-414.413	54.490	-0.241	0.230
-413.398	161.970	0.074	-0.104
-412.384	-163.402	0.314	0.015
-411.369	-137.704	0.303	0.034
-410.355	-153.726	-0.202	-0.014
-409.340	-160.148	-0.212	-0.011
-408.325	-143.550	0.157	0.015
-407.311	-42.926	-0.266	0.134
-406.296	70.327	0.091	0.094
-405.282	800.000	0.069	-0.241
-404.267	-129.188	-0.127	-0.018
-403.252	800.000	-0.039	-0.109
-402.238	-38.948	-0.168	0.088
-401.223	-68.216	0.227	-0.087
-400.209	-200.000	0.014	-0.125
-399.194	-13.393	-0.245	0.158
-398.179	-42.546	0.081	-0.041
-397.165	-55.044	-0.158	0.070
-396.150	7.115	-0.039	-0.029
-395.136	467.554	0.017	0.037
-394.121	-168.116	0.230	-0.009
-393.106	-2.474	-0.260	0.180
-392.092	41.434	0.264	0.237
-391.077	-138.282	-0.173	-0.019
-390.063	-138.494	0.232	-0.025
-389.048	-123.306	0.233	0.037
-388.033	167.048	-0.132	-0.185
-387.019	-81.151	-0.188	0.062
-386.004	-200.000	-0.005	0.232
-384.990	15.380	-0.431	-0.335
-383.975	201.743	0.175	0.268
-382.960	32.193	0.097	-0.083
-381.946	-200.000	0.026	-0.222
-380.931	-200.000	0.054	-0.316
-379.917	-84.160	0.351	0.111
-378.902	372.292	0.057	0.115
-377.888	-115.382	-0.273	0.051
-376.873	-70.554	-0.318	-0.119
-375.858	108.236	-0.053	-0.063
-374.844	674.127	-0.155	0.398
-373.829	151.645	-0.084	-0.113
-372.815	45.445	0.120	0.110
-371.800	145.574	-0.158	-0.210
-370.785	-118.907	-0.170	-0.030
-369.771	-200.000	0.021	-0.206
-368.756	-25.815	0.240	0.140
-367.742	254.857	-0.162	0.275
-366.727	32.103	-0.059	-0.051
-365.712	-27.690	0.418	-0.240
-364.698	-143.630	-0.205	-0.019
-363.683	236.140	0.032	0.052
-362.669	-115.619	-0.073	-0.014
-361.654	59.764	0.126	-0.123
-360.639	-200.000	-0.088	0.468
-359.625	-200.000	0.015	-0.082
-358.610	620.957	0.106	-0.265
-357.596	327.631	0.129	0.246
-356.581	-169.247	0.182	-0.007
-355.566	800.000	-0.040	-0.141
-354.552	-128.514	-0.270	0.038
-353.537	-200.000	-0.052	0.268
-352.523	81.122	-0.273	0.292
-351.508	-200.000	0.033	0.328
-350.493	-178.346	0.173	0.004
-349.479	-116.358	-0.258	0.047
-348.464	271.881	-0.087	0.152
-347.450	-166.788	0.050	-0.002
-346.435	-104.044	0.201	0.046
-345.420	144.217	-0.122	-0.162
-344.406	-200.000	0.002	0.036
-343.391	21.219	-0.404	-0.325
-342.377	-127.587	-0.314	0.045
-341.362	206.296	-0.157	-0.243
-340.348	800.000	0.055	-0.228
-339.333	-131.282	0.677	-0.089
-338.318	-200.000	-0.039	0.341
-337.304	-51.171	-0.139	0.065
-336.289	542.192	-0.129	0.304
-335.275	-150.492	0.398	-0.030
-334.260	78.352	-0.041	-0.043
-333.245	-200.000	0.019	0.291
-332.231	10.838	0.274	-0.207
-331.216	20.883	0.268	0.215
-330.202	-200.000	-0.016	0.284
-329.187	100.760	-0.182	0.209
-328.172	26.140	-0.038	0.032
-327.158	195.871	-0.073	0.110
-326.143	81.871	0.309	-0.331
-325.129	12.037	0.178	-0.135
-324.114	469.287	0.092	-0.205
-323.099	-41.182	-0.064	0.033
-322.085	-92.346	0.423	0.118
-321.070	54.052	0.238	0.227
-320.056	-30.815	-0.047	-0.026
-319.041	-200.000	0.008	0.266
-318.026	258.278	0.099	0.168
-317.012	-39.671	0.366	0.189
-315.997	-200.000	-0.040	-0.234
-314.983	100.928	-0.170	-0.196
-313.968	800.000	0.070	0.222
-312.953	-57.199	0.099	-0.043
-311.939	397.690	0.149	0.308
-310.924	244.425	-0.091	-0.151
-309.910	-153.181	-0.011	0.001
-308.895	-117.217	0.215	-0.039
-307.880	-119.516	0.302	-0.052
-306.866	104.427	0.019	0.022
-305.851	11.525	-0.171	0.130
-304.837	18.019	-0.232	0.183
-303.822	-115.156	0.327	0.061
-302.807	-12.315	0.223	-0.144
-301.793	304.162	-0.074	-0.136
-300.778	152.108	0.109	-0.146
-299.764	-71.328	-0.037	-0.014
-298.749	153.715	-0.202	0.274
-297.735	-200.000	-0.049	-0.382
-296.720	-200.000	-0.024	-0.227
-295.705	-67.403	0.122	0.047
-294.691	-24.914	-0.191	0.112
-293.676	245.573	-0.039	0.065
-292.662	-200.000	0.016	0.148
-291.647	800.000	0.025	0.081
-290.632	-105.119	-0.161	-0.036
-289.618	-29.266	0.467	0.264
-288.603	175.033	-0.103	-0.147
-287.589	235.624	0.113	-0.184
-286.574	95.629	0.168	0.189
-285.559	-133.261	0.134	0.017
-284.545	-200.000	0.079	-0.490
-283.530	28.738	-0.323	-0.270
-282.516	800.000	-0.038	0.144
-281.501	131.938	-0.082	0.105
-280.486	-89.498	-0.059	0.017
-279.472	-200.000	-0.009	-0.192
-278.457	-109.760	-0.424	0.088
-277.443	198.117	0.270	0.407
-276.428	598.722	-0.100	0.246
-275.413	-38.993	-0.142	0.074
-274.399	153.177	0.031	-0.042
-273.384	13.243	-0.441	-0.338
-272.370	503.667	-0.173	0.395
-271.355	-77.191	0.353	-0.121
-270.340	230.628	-0.112	0.181
-269.326	5.163	0.091	-0.066
-268.311	97.261	-0.121	0.137
-267.297	-200.000	-0.083	0.443
-266.282	-200.000	0.039	-0.345
-265.267	517.144	-0.061	0.141
-264.253	91.820	-0.156	-0.173
-263.238	-86.012	-0.179	-0.055
-262.224	800.000	0.056	0.167
-261.209	-93.115	0.163	0.045
-260.195	-83.845	0.374	-0.118
-259.180	-200.000	-0.006	-0.030
-258.165	-200.000	0.008	0.347
-257.151	-200.000	0.017	-0.145
-256.136	176.411	-0.151	0.217
-255.122	-104.822	0.308	-0.070
-254.107	36.647	0.163	-0.142
-253.092	-22.589	-0.366	-0.218
-252.078	0.019	0.198	0.139
-251.063	-25.855	0.261	-0.152
-250.049	-44.653	0.092	0.045
-249.034	191.823	-0.114	0.169
-248.019	119.055	0.028	0.034
-247.005	800.000	-0.052	0.191
-245.990	294.458	0.046	0.084
-244.976	52.966	0.408	-0.385
-243.961	-200.000	-0.050	-0.256
-242.946	-95.009	-0.096	0.026
-241.932	352.339	-0.048	0.094
-240.917	-78.651	0.209	0.070
-239.903	88.253	-0.080	0.087
-238.888	-50.415	-0.101	0.047
-237.873	-70.176	-0.044	-0.016
-236.859	-200.000	0.033	0.321
-235.844	369.000	0.164	0.326
-234.830	800.000	0.023	0.082
-233.815	-48.988	-0.295	-0.140
-232.800	709.817	0.146	0.380
-231.786	-40.553	-0.301	0.154
-230.771	23.792	-0.085	0.069
-229.757	-193.711	-0.253	0.002
-228.742	-200.000	-0.004	0.074
-227.727	631.823	-0.035	-0.088
-226.713	-106.088	-0.311	0.069
-225.698	-129.399	-0.234	0.032
-224.684	367.078	-0.116	-0.230
-223.669	-169.056	0.756	0.028
-222.655	130.236	-0.164	0.206
-221.640	17.751	-0.070	-0.055
-220.625	158.261	-0.052	-0.071
-219.611	508.373	-0.116	0.267
-218.596	-20.260	0.167	-0.101
-217.582	-200.000	-0.014	0.124
-216.567	52.520	-0.383	0.360
-215.552	-64.484	0.129	0.051
-214.538	-51.710	0.180	-0.082
-213.523	-22.464	0.226	0.135
-212.509	124.660	-0.157	-0.195
-211.494	-44.780	0.378	0.186
-210.479	43.931	0.214	0.193
-209.465	19.901	-0.232	-0.184
-208.450	-200.000	0.027	-0.264
-207.436	-103.763	0.308	0.071
-206.421	167.019	-0.097	0.135
-205.406	132.910	-0.121	-0.154
-204.392	560.130	0.092	0.218
-203.377	-200.000	-0.020	0.398
-202.363	-67.546	0.159	0.062
-201.348	-105.857	-0.113	-0.025
-200.333	15.608	0.305	-0.236
-199.319	142.614	0.078	0.102
-198.304	-12.695	0.133	-0.086
-197.290	-27.437	-0.242	-0.139
-196.275	275.079	0.118	0.205
-195.260	34.943	0.263	0.226
-194.246	158.689	-0.097	0.132
-193.231	-118.723	0.221	-0.038
-192.217	-91.255	0.132	-0.037
-191.202	-139.265	-0.180	0.019
-190.187	800.000	0.018	-0.072
-189.173	534.451	0.098	-0.230
-188.158	-96.914	0.191	-0.049
-187.144	-65.914	-0.493	0.194
-186.129	121.130	0.325	0.398
-185.114	24.302	-0.157	0.128
-184.100	-200.000	0.002	0.018
-183.085	-200.000	-0.002	0.092
-182.071	93.854	-0.116	0.129
-181.056	-195.479	-0.312	0.002
-180.042	-99.824	0.179	0.044
-179.027	336.809	0.166	0.317
-178.012	-95.828	0.324	0.085
-176.998	59.057	-0.176	0.170
-175.983	49.489	-0.238	-0.221
-174.969	-200.000	-0.024	0.123
-173.954	13.496	0.387	0.296
-172.939	-23.905	0.204	-0.120
-171.925	-156.328	-0.190	-0.012
-170.910	543.485	-0.019	0.045
-169.896	-200.000	-0.035	0.236
-168.881	745.964	0.065	-0.173
-167.866	-132.916	-0.223	-0.028
-166.852	72.440	-0.147	0.150
-165.837	-14.122	-0.138	-0.088
-164.823	-184.991	0.026	-0.000
-163.808	-127.193	-0.186	0.027
-162.793	-200.000	0.034	-0.172
-161.779	800.000	0.105	-0.309
-160.764	288.958	0.077	0.136
-159.750	-200.000	0.016	-0.125
-158.735	-200.000	0.025	-0.229
-157.720	-200.000	-0.005	0.056
-156.706	445.459	-0.084	-0.181
-155.691	-88.034	-0.057	0.017
-154.677	-200.000	0.011	-0.308
-153.662	219.862	0.069	0.108
-152.647	-57.979	0.138	0.059
-151.633	800.000	-0.156	-0.499
-150.618	-149.842	-0.277	-0.021
-149.604	-14.700	0.351	-0.222
-148.589	-23.583	-0.091	0.054
-147.574	460.921	0.059	0.129
-146.560	-200.000	-0.028	-0.220
-145.545	66.220	0.048	0.048
-144.531	-200.000	-0.047	0.340
-143.516	-200.000	0.012	0.077
-142.502	-52.525	-0.213	0.097
-141.487	11.555	0.235	0.177
-140.472	470.663	-0.173	0.382
-139.458	-126.136	0.120	-0.018
-138.443	-178.367	0.170	0.004
-137.429	453.560	-0.105	0.229
-136.414	28.482	0.192	-0.160
-135.399	280.477	0.171	-0.301
-134.385	-11.954	-0.331	-0.213
-133.370	800.000	0.051	0.197
-132.356	-34.603	-0.057	0.031
-131.341	78.656	0.250	-0.262
-130.326	-4.625	-0.184	0.125
-129.312	22.316	0.236	0.189
-128.297	92.089	-0.188	-0.208
-127.283	1.468	-0.201	0.142
-126.268	276.939	0.138	-0.241
-125.253	32.861	0.072	-0.061
-124.239	-200.000	-0.000	-0.144
-123.224	-200.000	0.005	0.108
-122.210	39.866	0.133	0.117
-121.195	61.714	0.194	0.189
-120.180	-93.592	0.317	-0.086
-119.166	486.230	-0.104	-0.232
-118.151	224.891	-0.150	0.237
-117.137	-93.143	0.148	-0.040
-116.122	45.209	-0.159	0.144
-115.107	-200.000	0.016	-0.164
-114.093	-200.000	-0.018	-0.109
-113.078	800.000	0.075	-0.255
-112.064	150.819	-0.140	-0.187
-111.049	-200.000	0.015	-0.223
-110.034	84.613	0.184	0.198
-109.020	448.579	0.254	0.549
-108.005	-53.827	0.169	-0.076
-106.991	-82.289	-0.137	0.044
-105.976	63.920	-0.281	0.277
-104.962	147.035	-0.126	0.166
-103.947	587.724	-0.084	0.202
-102.932	302.858	0.095	-0.172
-101.918	192.314	-0.044	0.065
-100.903	-52.152	0.066	0.030
-99.889	-164.680	-0.245	0.011
-98.874	800.000	0.046	0.132
-97.859	800.000	0.155	-0.433
-96.845	133.726	-0.231	0.293
-95.830	-200.000	-0.039	0.365
-94.816	-143.570	0.027	0.003
-93.801	-0.038	0.279	-0.195
-92.786	800.000	-0.030	0.113
-91.772	22.989	0.109	0.088
-90.757	-65.461	0.039	-0.015
-89.743	146.425	-0.078	-0.103
-88.728	-164.294	0.201	0.009
-87.713	7.060	-0.034	-0.025
-86.699	-200.000	0.019	-0.149
-85.684	800.000	-0.065	0.225
-84.670	-200.000	0.022	-0.306
-83.655	-200.000	-0.008	-0.286
-82.640	-109.833	-0.302	-0.062
-81.626	-200.000	0.002	-0.126
-80.611	115.206	-0.152	0.181
-79.597	-1.532	-0.099	0.069
-78.582	-45.525	0.135	0.066
-77.567	-133.222	0.299	0.037
-76.553	800.000	0.144	-0.448
-75.538	396.679	0.177	-0.363
-74.524	800.000	-0.047	-0.181
-73.509	-118.715	-0.283	0.049
-72.494	-157.026	0.339	-0.020
-71.480	227.124	0.301	0.479
-70.465	29.053	-0.158	0.131
-69.451	49.177	0.186	-0.172
-68.436	27.934	-0.313	-0.258
-67.422	484.425	0.015	-0.034
-66.407	-163.839	-0.240	0.011
-65.392	-125.325	0.216	0.032
-64.378	322.332	-0.018	0.033
-63.363	-200.000	-0.075	0.355
-62.349	800.000	-0.057	0.211
-61.334	51.922	-1.148	-1.071
-60.319	405.741	0.175	0.361
-59.305	800.000	-0.348	-1.325
-58.290	236.454	0.959	1.554
-57.276	800.000	0.582	1.706
-56.261	-200.000	112.988	647.103
-55.246	477.654	1501.786	3326.587
-54.232	147.340	2673.765	3523.866
-53.217	98.231	2285.440	2576.782
-52.203	36.968	1897.929	1643.379
-51.188	31.010	1688.505	1416.875
-50.173	28.526	1647.327	1363.822
-49.159	50.516	1701.394	1575.064
-48.144	49.380	1715.614	1579.612
-47.130	30.701	1674.407	1402.493
-46.115	27.930	1660.173	1369.772
-45.100	27.817	1655.116	1364.700
-44.086	27.728	1652.786	1362.055
-43.071	27.683	1650.206	1359.543
-42.057	27.696	1647.587	1357.430
-41.042	27.740	1645.548	1356.019
-40.027	27.754	1643.757	1354.598
-39.013	27.713	1641.750	1352.583
-37.998	27.699	1640.143	1351.100
-36.984	27.724	1639.313	1350.552
-35.969	27.861	1637.854	1350.305
-34.954	27.904	1635.610	1348.721
-33.940	27.824	1634.145	1346.873
-32.925	27.823	1631.775	1344.859
-31.911	27.902	1630.242	1344.122
-30.896	27.861	1628.652	1342.455
-29.881	27.940	1626.876	1341.518
-28.867	27.824	1625.171	1339.208
-27.852	27.881	1623.687	1338.349
-26.838	27.850	1622.307	1336.928
-25.823	27.858	1621.228	1336.051
-24.809	27.926	1619.901	1335.396
-23.794	27.894	1618.253	1333.754
-22.779	27.918	1617.078	1332.904
-21.765	27.830	1615.931	1331.267
-20.750	27.822	1614.132	1329.674
-19.736	27.935	1613.061	1329.559
-18.721	27.962	1611.321	1328.272
-17.706	27.848	1610.520	1326.730
-16.692	27.863	1608.696	1325.281
-15.677	27.893	1607.232	1324.242
-14.663	28.014	1605.537	1323.670
-13.648	27.915	1604.058	1321.682
-12.633	27.940	1602.626	1320.627
-11.619	27.911	1601.430	1319.380
-10.604	27.920	1599.438	1317.753
-9.590	27.881	1598.609	1316.735
-8.575	27.934	1597.631	1316.263
-7.560	27.973	1595.741	1314.932
-6.546	28.008	1595.183	1314.673
-5.531	27.951	1593.911	1313.162
-4.517	27.870	1592.869	1311.667
-3.502	28.009	1591.474	1311.466
-2.487	27.976	1590.125	1310.063
-1.473	27.490	1577.946	1296.519
-0.458	24.263	1558.308	1257.608
0.556	18.807	1557.787	1222.438
1.571	16.244	1580.331	1221.495
2.586	15.657	1592.555	1226.552
3.600	14.480	1540.060	1177.707
4.615	8.198	1432.909	1054.264
5.629	1.572	1371.235	966.787
6.644	0.261	1363.822	953.185
7.659	0.139	1362.116	951.134
8.673	0.084	1361.428	950.222
9.688	-0.014	1359.360	948.081
10.702	-0.059	1356.092	945.435
11.717	3.189	1360.796	969.105
12.731	10.941	1372.852	1026.700
13.746	16.529	1380.189	1067.461
14.761	17.128	1379.898	1070.921
15.775	16.294	1377.743	1063.903
16.790	15.266	1374.936	1055.173
17.804	14.551	1372.827	1048.963
18.819	14.191	1371.430	1045.542
19.834	13.928	1369.937	1042.661
20.848	13.569	1369.345	1039.864
21.863	13.447	1367.763	1037.810
22.877	13.278	1366.488	1035.692
23.892	13.242	1365.665	1034.752
24.907	13.163	1365.204	1033.818
25.921	13.345	1363.526	1033.592
26.936	13.301	1362.941	1032.780
27.950	13.363	1362.155	1032.483
28.965	13.348	1361.243	1031.603
29.980	13.410	1360.545	1031.372
30.994	13.582	1358.809	1031.033
32.009	13.485	1358.632	1030.206
33.023	13.471	1357.299	1029.017
34.038	13.453	1355.753	1027.642
35.053	13.458	1354.686	1026.771
36.067	13.415	1353.913	1025.827
37.082	13.420	1353.188	1025.220
38.096	13.451	1352.416	1024.735
39.111	13.412	1351.256	1023.523
40.126	13.348	1350.740	1022.648
41.140	13.280	1349.677	1021.332
42.155	13.211	1349.333	1020.554
43.169	13.234	1349.118	1020.443
44.184	13.264	1348.610	1020.155
45.199	13.148	1348.479	1019.251
46.213	13.309	1347.725	1019.583
47.228	13.339	1346.668	1018.879
48.242	13.402	1345.312	1018.148
49.257	13.255	1344.443	1016.498
50.271	13.319	1342.625	1015.428
51.286	13.331	1341.222	1014.347
52.301	13.309	1340.056	1013.245
53.315	13.255	1339.065	1012.075
54.330	13.099	1338.481	1010.589
55.344	13.210	1336.938	1010.012
56.359	13.250	1336.190	1009.604
57.374	13.261	1335.342	1008.938
58.388	13.116	1334.615	1007.417
59.403	13.145	1333.911	1006.971
60.417	13.190	1332.672	1006.220
61.432	13.148	1331.904	1005.296
62.447	13.138	1331.201	1004.616
63.461	13.065	1329.915	1003.114
64.476	13.132	1328.392	1002.281
65.490	13.028	1327.990	1001.262
66.505	13.101	1325.864	1000.009
67.520	13.196	1324.668	999.597
68.534	13.138	1323.760	998.473
69.549	13.248	1322.707	998.253
70.563	13.102	1321.878	996.658
71.578	13.117	1320.132	995.346
72.593	13.009	1320.002	994.504
73.607	13.130	1318.620	994.102
74.622	13.076	1318.393	993.520
75.636	13.058	1317.438	992.607
76.651	13.164	1316.342	992.327
77.666	13.177	1316.303	992.290
78.680	13.151	1315.481	991.427
79.695	13.175	1314.372	990.646
80.709	13.128	1313.990	989.988
81.724	13.356	1312.699	990.294
82.739	13.268	1311.677	988.909
83.753	13.345	1311.092	988.843
84.768	13.347	1310.185	988.080
85.782	13.317	1309.017	986.937
86.797	13.248	1307.968	985.645
87.812	13.254	1306.931	984.814
88.826	13.262	1305.295	983.541
89.841	13.226	1304.358	982.535
90.855	13.476	1303.420	983.224
91.870	13.476	1302.410	982.376
92.884	13.432	1301.725	981.511
93.899	13.437	1301.082	980.965
94.914	13.511	1300.352	980.769
95.928	13.472	1299.371	979.711
96.943	13.483	1298.331	978.904
97.957	13.450	1297.317	977.857
98.972	13.417	1296.663	977.084
99.987	13.376	1295.619	975.971
101.001	13.350	1294.799	975.114
102.016	13.338	1293.831	974.229
103.030	13.375	1292.660	973.478
104.045	13.340	1291.620	972.404
105.060	13.353	1290.848	971.808
106.074	13.324	1289.218	970.327
107.089	13.212	1287.999	968.666
108.103	13.180	1286.444	967.227
109.118	13.270	1284.987	966.572
110.133	13.276	1284.093	965.846
111.147	13.280	1282.704	964.741
112.162	13.190	1281.801	963.450
113.176	13.433	1280.286	963.642
114.191	13.365	1279.766	962.771
115.206	13.393	1278.296	961.740
116.220	13.284	1277.327	960.297
117.235	13.180	1276.598	959.060
118.249	13.317	1275.387	958.856
119.264	13.295	1274.307	957.836
120.279	13.299	1273.235	956.969
121.293	13.243	1272.394	955.925
122.308	13.263	1271.097	954.983
123.322	13.193	1270.298	953.894
124.337	13.200	1269.486	953.237
125.352	13.283	1267.746	952.325
126.366	13.242	1266.906	951.375
127.381	13.185	1265.929	950.229
128.395	13.259	1265.112	949.959
129.410	13.226	1263.974	948.831
130.424	13.315	1263.134	948.624
131.439	13.259	1262.338	947.623
132.454	13.314	1261.361	947.122
133.468	13.308	1260.106	946.061
134.483	13.346	1259.266	945.563
135.497	13.323	1258.816	945.009
136.512	13.364	1257.444	944.129
137.527	13.310	1255.920	942.597
138.541	13.278	1254.395	941.186
139.556	13.364	1253.159	940.663
140.570	13.377	1252.654	940.276
141.585	13.362	1251.235	939.041
142.600	13.368	1250.348	938.329
143.614	13.527	1249.097	938.205
144.629	13.608	1247.836	937.631
145.643	13.462	1247.169	936.223
146.658	13.442	1245.700	934.926
147.673	13.468	1244.139	933.818
148.687	13.399	1243.315	932.731
149.702	13.441	1241.943	931.855
150.716	13.374	1240.601	930.385
151.731	13.361	1239.856	929.674
152.746	13.353	1238.289	928.369
153.760	13.452	1237.112	927.959
154.775	13.450	1235.966	927.009
155.789	13.572	1235.056	926.924
156.804	13.574	1234.167	926.189
157.819	13.485	1233.127	924.829
158.833	13.718	1231.671	924.954
159.848	13.692	1231.142	924.330
160.862	13.712	1230.161	923.622
161.877	13.478	1229.151	921.483
162.892	13.565	1227.914	920.959
163.906	13.614	1226.658	920.202
164.921	13.573	1225.848	919.288
165.935	13.594	1225.389	918.979
166.950	13.598	1224.576	918.310
167.964	13.598	1224.215	917.957
168.979	13.582	1223.835	917.504
169.994	13.592	1222.688	916.616
171.008	13.655	1221.554	916.037
172.023	13.647	1220.698	915.267
173.037	13.768	1220.209	915.487
174.052	13.694	1219.272	914.294
175.067	13.701	1218.247	913.485
176.081	13.623	1217.488	912.406
177.096	13.664	1216.286	911.652
178.110	13.614	1215.511	910.711
179.125	13.647	1213.979	909.668
180.140	13.756	1212.555	909.116
181.154	13.678	1211.539	907.849
182.169	13.854	1210.399	907.875
183.183	13.805	1209.324	906.722
184.198	13.844	1208.165	905.981
185.213	13.854	1207.413	905.393
186.227	13.817	1206.270	904.254
187.242	13.965	1204.896	903.952
188.256	13.904	1204.128	902.965
189.271	13.869	1203.847	902.483
190.286	13.831	1202.063	900.858
191.300	13.776	1201.371	899.963
192.315	13.772	1200.411	899.141
193.329	13.715	1199.997	898.445
194.344	13.802	1199.162	898.207
195.359	13.759	1199.093	897.844
196.373	13.889	1198.362	897.923
197.388	13.905	1197.937	897.612
198.402	14.079	1197.348	898.031
199.417	14.129	1196.485	897.574
200.432	14.185	1195.398	896.981
201.446	14.248	1194.560	896.613
202.461	14.249	1193.731	895.913
203.475	14.103	1193.164	894.625
204.490	14.119	1191.450	893.344
205.504	14.043	1190.654	892.262
206.519	14.115	1189.190	891.470
207.534	14.065	1188.431	890.558
208.548	14.125	1187.283	889.938
209.563	14.111	1186.680	889.336
210.577	14.118	1185.909	888.713
211.592	14.159	1184.827	888.042
212.607	14.181	1183.806	887.316
213.621	14.290	1182.973	887.196
214.636	14.272	1182.217	886.455
215.650	14.176	1181.169	885.078
216.665	14.273	1180.465	884.986
217.680	14.387	1179.469	884.767
218.694	14.373	1178.503	883.893
219.709	14.532	1177.394	883.826
220.723	14.537	1176.828	883.346
221.738	14.371	1176.127	881.863
222.753	14.376	1175.606	881.423
223.767	14.432	1174.897	881.107
224.782	14.453	1174.530	880.866
225.796	14.597	1173.461	880.750
226.811	14.502	1173.379	880.109
227.826	14.430	1172.238	878.794
228.840	14.415	1171.641	878.188
229.855	14.492	1170.638	877.765
230.869	14.457	1170.031	877.047
231.884	14.463	1169.149	876.341
232.899	14.404	1168.466	875.442
233.913	14.447	1167.753	875.055
234.928	14.424	1166.961	874.262
235.942	14.424	1166.295	873.688
236.957	14.336	1165.756	872.743
237.972	14.474	1164.871	872.725
238.986	14.450	1164.339	872.127
240.001	14.450	1163.725	871.590
241.015	14.497	1162.588	870.908
242.030	14.511	1161.584	870.151
243.045	14.475	1161.439	869.778
244.059	14.513	1160.588	869.258
245.074	14.480	1159.607	868.275
246.088	14.520	1158.833	867.828
247.103	14.643	1157.681	867.530
248.117	14.686	1156.947	867.123
249.132	14.688	1156.159	866.470
250.147	14.889	1155.329	866.809
251.161	14.816	1154.783	865.949
252.176	14.978	1154.360	866.393
253.190	14.960	1153.602	865.654
254.205	15.064	1152.642	865.393
255.220	15.003	1152.278	864.730
256.234	14.966	1151.631	863.976
257.249	15.018	1151.022	863.711
258.263	15.055	1150.274	863.262
259.278	15.112	1149.552	862.940
260.293	14.953	1149.705	862.158
261.307	15.050	1148.674	861.810
262.322	15.109	1147.691	861.297
263.336	15.104	1147.460	861.021
264.351	15.052	1147.222	860.500
265.366	15.065	1146.471	859.930
266.380	15.166	1145.659	859.760
267.395	15.066	1144.977	858.659
268.409	15.099	1143.929	857.969
269.424	15.118	1142.957	857.261
270.439	15.120	1142.906	857.158
271.453	15.106	1141.967	856.305
272.468	15.068	1141.202	855.463
273.482	15.106	1140.462	855.025
274.497	15.171	1139.722	854.727
275.512	15.138	1139.239	854.118
276.526	15.278	1138.431	854.154
277.541	15.146	1137.925	853.025
278.555	15.157	1136.750	852.123
279.570	15.197	1136.215	851.853
280.585	15.395	1135.504	852.246
281.599	15.269	1134.552	850.821
282.614	15.350	1133.206	850.145
283.628	15.366	1132.138	849.349
284.643	15.362	1131.391	848.695
285.657	15.369	1130.685	848.123
286.672	15.348	1130.028	847.448
287.687	15.379	1128.640	846.491
288.701	15.329	1128.269	845.886
289.716	15.381	1127.400	845.421
290.730	15.420	1126.791	845.084
291.745	15.365	1126.247	844.325
292.760	15.463	1125.116	843.894
293.774	15.512	1124.410	843.538
294.789	15.553	1124.110	843.446
295.803	15.548	1123.804	843.116
296.818	15.509	1122.450	841.828
297.833	15.533	1122.113	841.621
298.847	15.528	1120.978	840.671
299.862	15.641	1120.146	840.538
300.876	15.497	1119.806	839.489
301.891	15.584	1119.293	839.465
302.906	15.648	1118.362	839.013
303.920	15.636	1117.789	838.449
304.935	15.706	1117.422	838.447
305.949	15.715	1116.577	837.783
306.964	15.806	1115.729	837.527
307.979	15.677	1115.224	836.433
308.993	15.796	1114.209	836.190
310.008	15.769	1113.368	835.348
311.022	15.729	1112.946	834.758
312.037	15.828	1111.805	834.321
313.052	15.793	1110.694	833.239
314.066	15.759	1109.809	832.336
315.081	15.731	1108.938	831.471
316.095	15.720	1108.664	831.135
317.110	15.750	1107.705	830.489
318.125	15.714	1106.912	829.648
319.139	15.726	1106.381	829.233
320.154	15.814	1105.434	828.885
321.168	15.776	1104.831	828.169
322.183	15.777	1104.658	827.971
323.197	15.800	1103.826	827.391
324.212	15.773	1103.545	826.971
325.227	15.808	1102.759	826.481
326.241	15.841	1102.233	826.178
327.256	15.842	1101.176	825.316
328.270	15.860	1100.333	824.701
329.285	15.844	1099.481	823.912
330.300	15.829	1098.751	823.219
331.314	15.852	1097.500	822.320
332.329	15.905	1096.667	821.882
333.343	15.974	1095.465	821.243
334.358	15.973	1094.858	820.713
335.373	15.890	1094.398	819.888
336.387	16.013	1093.436	819.697
337.402	16.080	1092.996	819.618
338.416	16.043	1092.245	818.804
339.431	16.091	1091.653	818.520
340.446	16.056	1091.300	818.011
341.460	16.135	1090.560	817.768
342.475	16.235	1089.421	817.328
343.489	16.226	1088.527	816.540
344.504	16.202	1087.675	815.714
345.519	16.315	1086.710	815.462
346.533	16.290	1086.363	815.007
347.548	16.367	1085.326	814.529
348.562	16.399	1084.421	813.932
349.577	16.285	1083.686	812.760
350.592	16.273	1083.054	812.156
351.606	16.333	1082.411	811.889
352.621	16.377	1081.269	811.174
353.635	16.349	1081.130	810.864
354.650	16.321	1080.319	810.051
355.665	16.319	1079.375	809.260
356.679	16.427	1078.620	809.140
357.694	16.448	1078.277	808.910
358.708	16.347	1077.936	808.099
359.723	16.363	1077.193	807.547
360.738	16.437	1076.220	807.102
361.752	16.405	1075.890	806.630
362.767	16.416	1075.542	806.351
363.781	16.470	1074.729	805.926
364.796	16.647	1073.991	806.147
365.810	16.615	1073.408	805.485
366.825	16.518	1073.183	804.783
367.840	16.640	1072.480	804.765
368.854	16.619	1072.111	804.314
369.869	16.658	1071.331	803.843
370.883	16.741	1069.726	802.963
371.898	16.665	1069.401	802.287
372.913	16.709	1069.050	802.162
373.927	16.744	1068.428	801.788
374.942	16.693	1067.869	801.060
375.956	16.665	1067.406	800.506
376.971	16.772	1066.473	800.245
377.986	16.781	1065.972	799.836
379.000	16.773	1065.433	799.324
380.015	16.865	1064.868	799.264
381.029	16.929	1064.271	799.045
382.044	16.875	1063.245	797.952
383.059	16.892	1062.732	797.578
384.073	16.890	1062.227	797.116
385.088	16.925	1061.047	796.326
386.102	16.942	1060.245	795.734
387.117	16.912	1059.270	794.789
388.132	16.840	1058.274	793.636
389.146	16.954	1057.470	793.495
390.161	16.727	1057.210	792.169
391.175	16.928	1056.422	792.449
392.190	16.843	1056.018	791.679
393.205	16.934	1055.189	791.411
394.219	16.985	1054.530	791.084
395.234	16.963	1053.503	790.139
396.248	16.953	1052.298	789.122
397.263	16.996	1051.287	788.491
398.278	17.026	1050.972	788.325
399.292	16.945	1050.375	787.434
400.307	16.969	1049.282	786.655
401.321	16.858	1048.713	785.642
402.336	16.978	1048.165	785.718
403.350	17.012	1047.379	785.220
404.365	17.003	1046.844	784.709
405.380	17.175	1046.060	784.845
406.394	17.114	1045.797	784.296
407.409	17.184	1044.494	783.570
408.423	17.165	1043.947	783.005
409.438	17.228	1043.024	782.533
410.453	17.267	1042.320	782.113
411.467	17.339	1041.736	781.937
412.482	17.252	1041.208	781.073
413.496	17.327	1040.203	780.595
414.511	17.410	1039.734	780.557
415.526	17.317	1039.968	780.233
416.540	17.358	1039.102	779.703
417.555	17.388	1038.448	779.279
418.569	17.402	1038.401	779.243
419.584	17.380	1037.689	778.540
420.599	17.524	1036.816	778.470
421.613	104.952	1324.880	1476.086
422.628	96.223	1366.817	1476.176
