DTS Sentinel unit serial number:	SN413079Multiplexer serial number:	ORYXHardware model number:	OX4-SRSoftware version number:	ORYX F/W v4.00 Oryx Data Collector v3.7.2.0data status	okinstallation	princeton_trtdifferential loss correction	single-endedforward channel	channel 2reverse channel	N/Adate	2019/09/12time	23:15:35forward acquisition time	60.00reverse acquisition time	0.00gamma	496.2192k internal	0.2332k external	0.2332temperature offset calibration	1.0170default loss term (dB/km)	0.3790temperature slope calibration	1.0000multiplexer offset coefficient	1.0000multiplexer slope coefficient	1.0000fibre end	0.00T internal ref (°C)	29.12T ext. ref 1 (°C)	3.73T ext. ref 2 (°C)	23.80length (m)	temperature (°C)	Stokes	anti-Stokes-747.200	-200.000	-0.043	-0.308
-746.185	200.554	-0.201	0.310
-745.171	-200.000	-0.002	0.193
-744.156	93.321	-0.194	0.221
-743.142	-200.000	0.039	0.373
-742.127	443.456	-0.127	0.281
-741.112	-41.483	-0.120	-0.062
-740.098	49.637	0.352	0.334
-739.083	-200.000	-0.043	-0.368
-738.069	199.118	-0.240	0.369
-737.054	-200.000	-0.002	0.101
-736.039	-46.716	-0.103	0.051
-735.025	-70.074	0.084	0.032
-734.010	24.156	0.172	-0.143
-732.996	-200.000	0.016	0.129
-731.981	800.000	0.099	-0.326
-730.966	-140.199	-0.230	-0.024
-729.952	-99.494	-0.118	0.030
-728.937	-149.004	-0.408	0.033
-727.923	-133.031	0.105	-0.013
-726.908	54.816	-0.014	-0.014
-725.894	57.820	-0.129	-0.127
-724.879	-44.290	-0.047	-0.023
-723.864	-200.000	0.017	0.087
-722.850	800.000	0.015	-0.057
-721.835	-33.090	-0.323	-0.180
-720.821	626.686	0.040	-0.102
-719.806	-96.243	0.103	0.028
-718.791	-200.000	0.073	-0.391
-717.777	378.830	-0.123	-0.253
-716.762	-200.000	0.000	-0.045
-715.748	-40.344	-0.194	-0.101
-714.733	288.163	-0.185	0.336
-713.718	-200.000	0.041	-0.531
-712.704	284.286	0.102	-0.185
-711.689	675.790	0.091	-0.237
-710.675	-123.548	0.300	-0.048
-709.660	26.864	-0.220	-0.185
-708.645	-86.367	-0.254	-0.078
-707.631	151.854	-0.125	0.171
-706.616	516.083	-0.132	0.309
-705.602	-148.753	0.080	-0.007
-704.587	414.486	-0.097	-0.208
-703.572	-166.434	-0.198	-0.008
-702.558	-200.000	-0.004	-0.193
-701.543	34.778	-0.167	-0.147
-700.529	71.218	0.062	-0.065
-699.514	158.438	-0.079	-0.110
-698.499	-200.000	-0.015	-0.180
-697.485	257.772	-0.195	0.337
-696.470	-118.731	0.282	0.050
-695.456	24.152	0.270	0.223
-694.441	-143.728	0.061	-0.006
-693.426	-26.463	0.092	0.054
-692.412	-200.000	-0.003	0.331
-691.397	-200.000	-0.058	0.268
-690.383	228.577	0.037	0.061
-689.368	4.432	0.049	0.036
-688.354	62.125	-0.253	-0.253
-687.339	380.782	-0.089	-0.182
-686.324	-200.000	-0.040	0.180
-685.310	138.941	-0.113	0.149
-684.295	89.277	0.178	-0.199
-683.281	-180.239	-0.247	-0.005
-682.266	15.981	0.064	0.051
-681.251	636.647	0.063	0.160
-680.237	15.764	0.276	-0.218
-679.222	-154.895	-0.401	0.027
-678.208	-200.000	0.013	0.186
-677.193	40.831	-0.193	-0.175
-676.178	-200.000	-0.053	0.293
-675.164	800.000	-0.117	-0.355
-674.149	-58.879	-0.115	-0.050
-673.135	487.943	0.078	-0.179
-672.120	-36.330	0.128	0.069
-671.105	-13.067	-0.071	0.047
-670.091	-200.000	-0.009	0.234
-669.076	800.000	0.046	0.158
-668.062	-116.316	-0.251	-0.047
-667.047	-200.000	-0.004	0.036
-666.032	-104.112	0.158	-0.037
-665.018	0.852	-0.172	-0.124
-664.003	-56.054	0.114	0.051
-662.989	-95.810	-0.233	0.062
-661.974	-39.103	0.153	0.081
-660.959	-200.000	-0.051	0.257
-659.945	228.040	0.078	0.128
-658.930	224.791	-0.121	-0.196
-657.916	-200.000	-0.005	-0.104
-656.901	-48.456	-0.280	0.135
-655.886	86.766	-0.117	-0.130
-654.872	-200.000	-0.015	-0.090
-653.857	120.650	-0.106	0.133
-652.843	773.228	-0.100	-0.274
-651.828	-102.837	-0.023	-0.005
-650.814	-200.000	0.014	0.123
-649.799	235.517	-0.165	0.274
-648.784	-200.000	-0.002	0.355
-647.770	-200.000	0.013	0.234
-646.755	-64.331	-0.269	0.110
-645.741	-200.000	-0.034	-0.216
-644.726	-80.156	-0.377	-0.127
-643.711	18.645	-0.312	-0.251
-642.697	-81.079	0.179	-0.059
-641.682	53.044	-0.143	0.137
-640.668	-200.000	-0.015	0.176
-639.653	24.685	-0.097	0.080
-638.638	186.756	-0.232	-0.346
-637.624	-200.000	0.104	-0.482
-636.609	544.996	0.096	-0.231
-635.595	800.000	0.027	-0.080
-634.580	635.132	0.022	-0.057
-633.565	388.011	0.211	-0.436
-632.551	-200.000	0.031	0.169
-631.536	-28.099	0.069	0.040
-630.522	800.000	-0.055	0.207
-629.507	-168.656	0.188	-0.007
-628.492	62.895	-0.179	-0.179
-627.478	275.403	-0.076	0.135
-626.463	800.000	-0.051	-0.155
-625.449	800.000	0.122	-0.381
-624.434	48.160	-0.148	0.139
-623.419	800.000	-0.045	0.129
-622.405	-36.601	-0.213	0.115
-621.390	800.000	-0.038	-0.164
-620.376	-200.000	0.009	-0.054
-619.361	275.117	-0.033	0.059
-618.346	-134.496	0.570	0.070
-617.332	30.602	-0.222	0.190
-616.317	-200.000	-0.036	-0.334
-615.303	-42.335	-0.172	-0.088
-614.288	101.459	0.083	-0.097
-613.273	162.176	0.144	0.201
-612.259	411.260	-0.041	-0.088
-611.244	261.078	0.031	-0.054
-610.230	80.642	0.238	-0.257
-609.215	-147.087	-0.361	-0.031
-608.201	-25.673	0.156	0.092
-607.186	-172.848	-0.325	-0.010
-606.171	133.767	0.061	0.079
-605.157	-21.864	0.274	0.167
-604.142	-200.000	0.023	0.173
-603.128	-100.849	-0.305	-0.075
-602.113	-40.145	-0.245	-0.128
-601.098	-123.275	-0.285	0.046
-600.084	-200.000	0.005	-0.035
-599.069	92.928	-0.126	0.142
-598.055	146.198	-0.206	0.276
-597.040	70.342	-0.205	0.212
-596.025	275.857	0.043	0.075
-595.011	-71.703	-0.212	0.079
-593.996	104.309	-0.156	-0.184
-592.982	-51.460	0.248	0.116
-591.967	-93.261	-0.222	-0.062
-590.952	-44.254	0.193	0.097
-589.938	-200.000	-0.010	-0.055
-588.923	115.679	-0.099	-0.121
-587.909	-116.732	0.147	-0.027
-586.894	180.663	-0.245	-0.360
-585.879	-51.159	0.124	-0.058
-584.865	-29.361	-0.198	0.114
-583.850	4.509	-0.062	-0.045
-582.836	387.273	0.031	0.065
-581.821	66.154	0.104	-0.106
-580.806	800.000	-0.028	0.090
-579.792	38.591	0.097	-0.086
-578.777	-114.367	-0.081	-0.016
-577.763	437.919	-0.046	0.100
-576.748	-100.715	-0.237	-0.058
-575.733	800.000	0.079	0.266
-574.719	686.343	-0.038	0.099
-573.704	84.717	-0.119	0.130
-572.690	-200.000	0.021	-0.191
-571.675	-85.222	0.417	-0.130
-570.661	264.236	0.131	-0.228
-569.646	32.970	0.083	-0.072
-568.631	36.337	-0.344	-0.303
-567.617	82.344	-0.088	-0.095
-566.602	-75.805	0.377	-0.134
-565.588	138.178	-0.038	-0.050
-564.573	-31.945	0.323	0.180
-563.558	-156.477	-0.162	0.010
-562.544	-100.511	-0.244	-0.060
-561.529	1.284	-0.395	0.284
-560.515	255.660	-0.077	-0.132
-559.500	-71.043	-0.176	0.066
-558.485	-200.000	0.003	0.202
-557.471	800.000	-0.043	0.173
-556.456	-200.000	0.007	0.173
-555.442	-200.000	0.011	0.245
-554.427	-200.000	0.008	-0.168
-553.412	260.898	0.293	-0.507
-552.398	-135.073	-0.169	-0.020
-551.383	800.000	0.074	0.205
-550.369	-200.000	0.070	-0.386
-549.354	800.000	-0.065	0.190
-548.339	-90.130	0.366	-0.107
-547.325	-200.000	-0.003	0.106
-546.310	15.447	0.084	-0.066
-545.296	-69.748	-0.225	-0.086
-544.281	42.520	-0.154	0.140
-543.266	-192.080	0.356	-0.003
-542.252	-82.764	-0.182	0.059
-541.237	42.396	0.174	-0.158
-540.223	-60.441	0.239	0.102
-539.208	-16.993	0.153	0.096
-538.193	-62.917	0.242	0.100
-537.179	226.186	0.132	0.213
-536.164	-102.593	0.232	0.055
-535.150	216.965	0.166	0.264
-534.135	-200.000	0.045	0.255
-533.121	-136.638	-0.161	-0.019
-532.106	557.687	0.065	-0.157
-531.091	-12.526	0.253	0.164
-530.077	226.049	0.106	-0.171
-529.062	-104.135	-0.408	-0.095
-528.048	-200.000	0.094	-0.680
-527.033	161.984	-0.053	-0.073
-526.018	-200.000	-0.021	-0.109
-525.004	-200.000	0.004	-0.060
-523.989	-102.843	-0.482	0.114
-522.975	-200.000	-0.002	0.097
-521.960	-113.684	0.203	0.040
-520.945	-114.290	-0.179	0.034
-519.931	181.026	0.142	0.208
-518.916	-131.478	-0.318	-0.042
-517.902	14.164	0.155	0.120
-516.887	30.502	-0.397	-0.339
-515.872	655.299	-0.084	0.214
-514.858	-107.261	0.445	-0.098
-513.843	-6.762	-0.132	0.090
-512.829	121.564	-0.122	-0.152
-511.814	249.225	0.064	-0.108
-510.799	800.000	-0.072	-0.273
-509.785	301.657	0.108	-0.198
-508.770	-56.679	-0.198	0.087
-507.756	-136.959	-0.133	-0.015
-506.741	-200.000	0.019	-0.390
-505.726	-126.396	0.184	-0.027
-504.712	-148.682	0.139	0.011
-503.697	-86.235	-0.270	-0.083
-502.683	183.628	0.092	-0.136
-501.668	235.913	0.098	0.161
-500.653	206.688	-0.039	-0.060
-499.639	-6.956	0.222	-0.151
-498.624	-97.694	0.228	0.059
-497.610	290.235	0.115	0.208
-496.595	-80.099	-0.144	-0.048
-495.581	37.756	-0.208	0.184
-494.566	-58.893	0.230	0.099
-493.551	-30.357	0.165	-0.093
-492.537	-5.837	0.131	-0.090
-491.522	-200.000	0.026	0.134
-490.508	800.000	0.033	0.107
-489.493	91.127	0.116	-0.130
-488.478	135.795	0.141	-0.183
-487.464	-148.450	-0.020	-0.002
-486.449	28.776	0.280	0.237
-485.435	-72.314	-0.227	0.084
-484.420	-40.708	0.187	-0.096
-483.405	526.277	-0.108	-0.254
-482.391	256.494	-0.084	-0.143
-481.376	-138.796	0.146	0.016
-480.362	505.779	0.042	0.097
-479.347	228.159	-0.273	-0.442
-478.332	78.598	0.213	-0.227
-477.318	143.253	-0.137	0.182
-476.303	-74.627	0.335	-0.120
-475.289	-113.763	-0.154	0.030
-474.274	800.000	0.032	-0.095
-473.259	-129.293	0.220	0.031
-472.245	-5.239	-0.209	-0.143
-471.230	-191.756	-0.132	0.001
-470.216	-200.000	0.026	0.202
-469.201	-4.389	0.138	0.095
-468.186	243.560	0.123	0.205
-467.172	123.190	0.050	-0.062
-466.157	-129.261	-0.229	0.032
-465.143	10.156	0.228	0.172
-464.128	-159.542	-0.198	0.011
-463.113	12.817	0.385	0.296
-462.099	-71.614	-0.047	0.017
-461.084	-75.753	0.305	-0.108
-460.070	600.614	0.042	0.104
-459.055	-122.553	0.260	0.042
-458.040	59.707	0.126	-0.124
-457.026	800.000	0.043	0.174
-456.011	217.882	0.080	0.127
-454.997	-23.234	-0.252	-0.151
-453.982	-135.421	0.114	0.013
-452.968	263.192	-0.079	0.136
-451.953	800.000	0.037	-0.140
-450.938	119.729	-0.128	0.158
-449.924	800.000	-0.056	0.199
-448.909	-187.917	-0.123	0.002
-447.895	800.000	0.041	-0.153
-446.880	336.679	0.046	-0.089
-445.865	116.617	0.159	0.194
-444.851	-67.006	0.111	-0.044
-443.836	156.744	-0.181	-0.248
-442.822	-200.000	-0.026	-0.372
-441.807	289.884	-0.092	0.165
-440.792	83.772	-0.089	0.096
-439.778	-56.210	-0.327	0.145
-438.763	106.896	0.228	-0.269
-437.749	-135.123	-0.144	0.017
-436.734	-200.000	-0.013	0.096
-435.719	107.270	-0.129	0.152
-434.705	246.500	0.215	0.360
-433.690	-200.000	0.007	0.273
-432.676	-113.870	0.089	-0.017
-431.661	60.637	-0.128	-0.126
-430.646	-200.000	0.016	-0.133
-429.632	-200.000	-0.074	-0.371
-428.617	-101.379	-0.144	-0.035
-427.603	513.960	0.020	0.046
-426.588	28.413	0.185	-0.155
-425.573	-87.951	0.150	-0.045
-424.559	-50.019	-0.298	-0.140
-423.544	-7.532	-0.217	0.146
-422.530	141.586	0.140	-0.184
-421.515	-200.000	0.008	0.441
-420.500	108.249	-0.128	-0.151
-419.486	-120.067	0.159	-0.027
-418.471	-130.609	0.071	0.009
-417.457	-110.786	0.165	0.034
-416.442	-200.000	-0.047	-0.248
-415.428	-81.547	0.021	0.007
-414.413	-200.000	-0.040	0.305
-413.398	-19.159	0.168	-0.104
-412.384	-63.719	0.146	-0.060
-411.369	-164.303	-0.231	0.011
-410.355	125.150	-0.255	0.319
-409.340	-200.000	-0.041	-0.280
-408.325	-69.961	0.304	-0.115
-407.311	-141.853	0.216	0.021
-406.296	130.712	0.049	-0.062
-405.282	102.987	-0.183	0.212
-404.267	72.292	-0.169	-0.175
-403.252	433.296	-0.045	-0.096
-402.238	-123.551	0.217	0.034
-401.223	-200.000	-0.015	-0.114
-400.209	104.175	0.425	0.496
-399.194	636.526	0.098	0.248
-398.179	-41.672	0.233	-0.119
-397.165	-5.895	0.181	-0.123
-396.150	203.809	0.220	-0.337
-395.136	444.326	0.264	0.576
-394.121	-101.573	-0.152	0.037
-393.106	81.698	0.153	-0.164
-392.092	723.335	0.055	0.145
-391.077	-200.000	0.025	0.167
-390.063	137.573	-0.025	-0.033
-389.048	-125.604	0.046	-0.007
-388.033	-126.581	-0.401	0.059
-387.019	336.333	0.039	-0.074
-386.004	-200.000	0.100	0.452
-384.990	-200.000	-0.059	-0.273
-383.975	375.920	0.110	-0.223
-382.960	171.126	-0.026	0.037
-381.946	26.720	0.150	0.125
-380.931	16.587	-0.098	-0.077
-379.917	-152.827	0.328	0.023
-378.902	-70.139	-0.265	-0.100
-377.888	-200.000	0.018	-0.167
-376.873	206.110	-0.102	0.157
-375.858	800.000	0.067	-0.224
-374.844	160.368	-0.184	0.255
-373.829	395.892	-0.101	0.210
-372.815	310.779	0.134	-0.250
-371.800	35.595	0.196	0.171
-370.785	-200.000	-0.019	0.355
-369.771	-81.785	-0.211	0.068
-368.756	-200.000	0.069	-0.353
-367.742	18.954	-0.244	-0.194
-366.727	415.566	-0.062	0.131
-365.712	-131.578	0.176	-0.023
-364.698	800.000	-0.022	0.085
-363.683	345.508	-0.059	-0.115
-362.669	-152.417	-0.317	-0.023
-361.654	42.044	0.231	0.207
-360.639	47.622	0.306	-0.283
-359.625	377.598	-0.046	-0.094
-358.610	657.317	-0.090	0.229
-357.596	-200.000	0.005	-0.097
-356.581	519.612	0.059	-0.138
-355.566	68.802	-0.100	0.101
-354.552	-200.000	-0.019	0.240
-353.537	-200.000	-0.016	0.462
-352.523	800.000	-0.044	-0.166
-351.508	-122.744	0.290	0.047
-350.493	-154.665	-0.291	-0.019
-349.479	-200.000	-0.026	0.123
-348.464	237.386	-0.264	0.433
-347.450	394.477	-0.112	0.231
-346.435	57.393	0.194	0.187
-345.420	-200.000	0.012	0.352
-344.406	-134.286	0.093	-0.011
-343.391	277.549	-0.104	0.183
-342.377	-53.361	-0.144	0.065
-341.362	-122.099	-0.479	0.078
-340.348	130.063	-0.069	0.087
-339.333	-200.000	0.077	0.422
-338.318	73.832	-0.151	-0.156
-337.304	-200.000	-0.039	0.207
-336.289	251.196	-0.091	-0.153
-335.275	-200.000	-0.115	-0.504
-334.260	-130.710	-0.353	-0.047
-333.245	-184.223	0.102	-0.002
-332.231	18.068	0.110	-0.086
-331.216	-45.784	0.125	0.061
-330.202	93.388	0.195	0.219
-329.187	-4.060	0.222	-0.152
-328.172	18.491	-0.156	0.123
-327.158	-14.356	0.036	0.023
-326.143	71.015	0.129	0.132
-325.129	593.710	0.012	0.030
-324.114	-92.330	0.214	-0.060
-323.099	800.000	-0.030	0.101
-322.085	-109.303	-0.073	-0.015
-321.070	280.737	-0.151	0.268
-320.056	-30.459	0.254	-0.143
-319.041	-98.456	-0.254	0.064
-318.026	-139.057	-0.277	0.030
-317.012	-33.137	0.108	-0.059
-315.997	108.588	0.199	0.235
-314.983	-160.503	-0.538	-0.029
-313.968	-25.966	0.262	0.152
-312.953	-200.000	-0.002	-0.110
-311.939	86.060	-0.150	-0.163
-310.924	-200.000	0.026	-0.275
-309.910	-85.427	-0.309	-0.095
-308.895	220.607	0.093	-0.147
-307.880	-200.000	-0.001	-0.188
-306.866	-200.000	0.035	-0.198
-305.851	64.803	-0.016	-0.016
-304.837	59.241	-0.259	-0.252
-303.822	-200.000	-0.008	-0.200
-302.807	-120.256	-0.148	-0.025
-301.793	83.650	-0.145	-0.157
-300.778	-70.875	0.292	0.109
-299.764	-131.357	0.170	-0.022
-298.749	800.000	-0.116	0.346
-297.735	134.769	0.119	-0.153
-296.720	-15.116	0.319	0.202
-295.705	-106.344	-0.153	-0.034
-294.691	-76.197	-0.193	0.067
-293.676	113.171	-0.132	0.159
-292.662	53.395	-0.106	0.100
-291.647	800.000	0.034	-0.124
-290.632	19.756	0.142	-0.113
-289.618	353.822	-0.140	-0.276
-288.603	-30.467	0.272	0.152
-287.589	59.906	-0.163	0.159
-286.574	47.442	0.234	-0.216
-285.559	-200.000	-0.006	0.106
-284.545	142.671	-0.133	0.175
-283.530	-200.000	-0.048	0.408
-282.516	-200.000	-0.004	-0.154
-281.501	-108.142	-0.202	0.043
-280.486	264.721	0.106	-0.183
-279.472	-0.897	-0.040	-0.028
-278.457	-37.358	0.291	-0.154
-277.443	-91.120	-0.278	0.079
-276.428	252.773	0.086	-0.145
-275.413	27.293	0.286	-0.237
-274.399	51.801	-0.224	-0.211
-273.384	-57.402	0.180	0.078
-272.370	-52.083	-0.185	-0.085
-271.355	277.952	0.067	0.118
-270.340	-9.030	-0.217	-0.144
-269.326	129.010	0.198	-0.250
-268.311	-49.729	-0.138	0.065
-267.297	800.000	-0.101	0.278
-266.282	1.270	0.299	0.212
-265.267	615.203	0.102	0.252
-264.253	60.535	-0.344	0.337
-263.238	107.252	-0.268	0.314
-262.224	-49.072	-0.426	-0.201
-261.209	800.000	0.036	-0.107
-260.195	-23.618	0.184	0.109
-259.180	-75.667	0.192	0.067
-258.165	105.814	0.055	0.064
-257.151	800.000	0.092	-0.388
-256.136	-53.624	-0.215	-0.097
-255.122	-193.083	-0.254	-0.002
-254.107	455.020	-0.055	0.120
-253.092	-200.000	-0.007	0.086
-252.078	-200.000	0.019	0.171
-251.063	-73.379	-0.127	0.046
-250.049	93.433	0.063	-0.070
-249.034	-137.826	0.223	0.025
-248.019	-14.941	-0.315	0.199
-247.005	800.000	0.029	-0.089
-245.990	-48.301	0.254	-0.121
-244.976	85.239	-0.143	0.155
-243.961	129.793	0.111	-0.140
-242.946	-56.401	0.106	0.047
-241.932	-200.000	0.231	0.000
-240.917	-200.000	-0.000	-0.054
-239.903	800.000	0.110	-0.374
-238.888	-97.220	0.323	0.083
-237.873	-36.394	-0.128	0.068
-236.859	-73.071	0.309	0.112
-235.844	149.734	0.085	0.114
-234.830	-60.079	0.425	0.179
-233.815	151.287	0.225	0.302
-232.800	-2.181	-0.111	-0.077
-231.786	-179.779	0.169	-0.004
-230.771	39.357	0.162	0.143
-229.757	525.805	-0.146	0.340
-228.742	-14.156	0.102	-0.065
-227.727	-71.148	-0.061	-0.023
-226.713	-88.332	-0.082	-0.024
-225.698	-200.000	-0.004	-0.190
-224.684	-200.000	-0.023	-0.292
-223.669	-163.736	0.273	-0.013
-222.655	649.583	-0.022	-0.055
-221.640	-200.000	-0.011	0.153
-220.625	-115.899	0.300	-0.055
-219.611	-103.221	-0.178	0.041
-218.596	-89.151	0.231	0.067
-217.582	169.290	-0.194	-0.273
-216.567	800.000	0.090	0.276
-215.552	-56.379	0.281	-0.123
-214.538	-200.000	0.040	-0.186
-213.523	258.407	0.214	0.364
-212.509	-26.633	0.172	0.099
-211.494	63.569	-0.086	0.085
-210.479	536.263	0.050	-0.116
-209.465	36.217	-0.186	0.161
-208.450	-82.745	0.163	-0.052
-207.436	-81.292	-0.304	-0.099
-206.421	-200.000	0.060	0.283
-205.406	253.775	-0.015	-0.026
-204.392	273.173	0.106	-0.184
-203.377	-200.000	-0.016	0.145
-202.363	-61.922	-0.303	-0.125
-201.348	-20.589	0.273	0.165
-200.333	-95.345	-0.126	0.033
-199.319	148.428	0.067	-0.089
-198.304	69.969	0.085	0.087
-197.290	-167.736	-0.205	0.008
-196.275	20.516	-0.126	0.101
-195.260	27.845	-0.084	-0.069
-194.246	-131.580	-0.217	0.028
-193.231	391.366	0.192	-0.392
-192.217	-103.289	-0.387	-0.090
-191.202	265.058	0.109	-0.187
-190.187	114.168	-0.093	-0.111
-189.173	-94.010	-0.157	-0.042
-188.158	800.000	-0.091	-0.264
-187.144	211.011	0.194	-0.301
-186.129	-120.883	0.140	0.023
-185.114	-122.869	-0.112	0.018
-184.100	52.987	0.149	-0.141
-183.085	-45.001	-0.234	0.114
-182.071	-36.620	0.354	0.187
-181.056	-200.000	0.051	-0.323
-180.042	-43.014	-0.192	-0.096
-179.027	72.202	-0.031	-0.031
-178.012	-200.000	-0.037	-0.261
-176.998	-200.000	0.008	0.045
-175.983	-42.638	-0.137	0.069
-174.969	-112.077	-0.347	0.069
-173.954	703.716	0.117	-0.304
-172.939	53.585	0.090	0.085
-171.925	88.613	0.135	-0.148
-170.910	-200.000	0.027	-0.132
-169.896	111.794	0.167	-0.198
-168.881	622.407	-0.045	0.111
-167.866	85.162	0.072	0.077
-166.852	36.293	0.171	-0.148
-165.837	-95.859	-0.204	-0.054
-164.823	-200.000	0.033	0.184
-163.808	451.823	-0.014	0.030
-162.793	68.286	-0.112	0.113
-161.779	341.502	-0.096	0.185
-160.764	215.497	-0.108	0.168
-159.750	265.179	-0.068	-0.116
-158.735	800.000	-0.067	0.190
-157.720	-155.785	0.061	0.004
-156.706	-42.008	0.121	0.061
-155.691	-2.170	0.089	0.061
-154.677	-200.000	0.048	-0.240
-153.662	-128.758	-0.208	0.029
-152.647	-50.112	0.126	-0.058
-151.633	-116.209	-0.153	0.028
-150.618	-107.780	0.466	-0.100
-149.604	278.215	0.046	-0.081
-148.589	-200.000	0.003	-0.277
-147.574	589.519	0.090	-0.217
-146.560	648.340	-0.077	0.193
-145.545	60.963	-0.270	-0.263
-144.531	90.021	0.153	-0.168
-143.516	-200.000	-0.052	0.324
-142.502	609.298	0.104	-0.255
-141.487	600.898	0.037	-0.089
-140.472	-75.800	-0.401	-0.140
-139.458	316.095	0.090	0.167
-138.443	-82.738	0.264	0.084
-137.429	115.633	-0.137	0.164
-136.414	58.995	0.271	-0.262
-135.399	-59.212	-0.160	-0.068
-134.385	-104.559	-0.333	0.075
-133.370	-200.000	-0.005	-0.118
-132.356	-200.000	0.000	0.085
-131.341	63.227	-0.126	-0.124
-130.326	-117.069	0.143	-0.026
-129.312	800.000	0.075	-0.213
-128.297	166.136	-0.078	-0.108
-127.283	163.371	-0.073	0.100
-126.268	-108.104	0.107	-0.023
-125.253	800.000	0.061	-0.238
-124.239	800.000	0.077	-0.285
-123.224	800.000	0.039	0.137
-122.210	428.064	0.064	0.136
-121.195	533.053	0.098	0.229
-120.180	22.715	0.213	-0.171
-119.166	97.620	0.080	0.090
-118.151	57.630	0.259	-0.249
-117.137	-88.655	-0.249	0.073
-116.122	-200.000	0.020	0.135
-115.107	668.416	-0.137	0.348
-114.093	-120.733	-0.139	0.023
-113.078	-90.636	-0.288	-0.082
-112.064	-120.325	-0.346	0.058
-111.049	267.222	-0.070	0.121
-110.034	-126.185	0.208	-0.031
-109.020	292.906	-0.103	-0.185
-108.005	0.861	0.183	0.129
-106.991	14.028	0.414	0.316
-105.976	757.567	0.119	-0.316
-104.962	-38.242	-0.511	-0.266
-103.947	4.162	-0.233	-0.167
-102.932	800.000	-0.060	0.219
-101.918	-31.126	-0.286	0.158
-100.903	45.892	-0.023	0.021
-99.889	-200.000	-0.009	0.205
-98.874	490.178	0.164	0.368
-97.859	-110.211	0.164	0.033
-96.845	298.355	0.047	-0.085
-95.830	-200.000	-0.008	-0.283
-94.816	652.692	0.064	-0.161
-93.801	-149.703	0.212	-0.016
-92.786	-22.157	0.041	-0.024
-91.772	139.356	0.099	0.128
-90.757	69.441	0.128	0.129
-89.743	336.498	0.154	0.294
-88.728	-200.000	-0.052	0.439
-87.713	51.237	-0.194	-0.181
-86.699	59.029	0.133	0.128
-85.684	294.432	-0.106	-0.189
-84.670	-64.370	0.074	0.030
-83.655	800.000	-0.035	0.135
-82.640	23.223	0.389	-0.313
-81.626	-200.000	0.033	-0.231
-80.611	-26.785	0.196	0.112
-79.597	-200.000	0.021	0.130
-78.582	38.584	0.060	-0.052
-77.567	46.251	-0.088	0.080
-76.553	-200.000	0.005	-0.113
-75.538	800.000	-0.133	0.372
-74.524	-36.764	-0.101	-0.053
-73.509	86.204	-0.144	-0.156
-72.494	117.236	0.147	0.177
-71.480	-200.000	0.003	-0.233
-70.465	-30.433	-0.058	0.032
-69.451	22.185	-0.215	0.172
-68.436	771.435	-0.047	-0.124
-67.422	447.390	-0.139	0.300
-66.407	649.929	-0.014	0.034
-65.392	-28.131	-0.054	-0.031
-64.378	151.421	0.032	-0.043
-63.363	-200.000	-0.084	0.000
-62.349	-56.599	0.200	0.087
-61.334	84.431	-0.880	-0.943
-60.319	117.948	0.327	0.395
-59.305	-200.000	-0.201	-0.886
-58.290	80.556	0.635	0.670
-57.276	354.314	0.727	1.415
-56.261	-200.000	109.911	615.973
-55.246	513.813	1509.653	3448.157
-54.232	177.113	2697.032	3844.159
-53.217	104.677	2282.559	2633.669
-52.203	38.292	1891.024	1649.075
-51.188	32.359	1680.710	1420.952
-50.173	29.766	1637.628	1365.364
-49.159	48.817	1693.021	1555.153
-48.144	48.717	1708.786	1568.822
-47.130	31.816	1664.812	1403.228
-46.115	29.231	1650.157	1371.607
-45.100	29.056	1645.044	1366.003
-44.086	28.927	1642.707	1363.050
-43.071	28.953	1640.113	1361.041
-42.057	28.862	1637.912	1358.484
-41.042	28.935	1635.281	1356.789
-40.027	28.992	1633.483	1355.660
-39.013	28.933	1631.414	1353.458
-37.998	28.957	1630.073	1352.465
-36.984	28.989	1628.782	1351.578
-35.969	29.131	1627.379	1351.404
-34.954	29.139	1625.705	1350.015
-33.940	29.078	1624.152	1348.225
-32.925	29.103	1622.331	1346.844
-31.911	29.150	1620.489	1345.604
-30.896	29.165	1619.009	1344.430
-29.881	29.116	1617.608	1342.856
-28.867	29.182	1615.460	1341.506
-27.852	29.106	1614.289	1339.928
-26.838	29.078	1613.149	1338.721
-25.823	29.142	1611.485	1337.749
-24.809	29.150	1610.196	1336.689
-23.794	29.197	1608.705	1335.740
-22.779	29.121	1607.369	1334.024
-21.765	29.130	1605.972	1332.878
-20.750	29.116	1604.080	1331.153
-19.736	29.182	1602.479	1330.248
-18.721	29.252	1600.991	1329.462
-17.706	29.075	1600.648	1327.851
-16.692	29.144	1598.100	1326.178
-15.677	29.198	1596.926	1325.543
-14.663	29.212	1594.947	1323.950
-13.648	29.186	1594.119	1323.022
-12.633	29.177	1592.706	1321.733
-11.619	29.166	1590.903	1320.104
-10.604	29.129	1589.523	1318.645
-9.590	29.134	1588.476	1317.758
-8.575	29.240	1586.932	1317.184
-7.560	29.101	1586.494	1315.771
-6.546	29.186	1584.784	1314.907
-5.531	29.136	1584.158	1313.982
-4.517	29.129	1582.803	1312.756
-3.502	29.137	1581.502	1311.678
-2.487	29.235	1579.515	1310.679
-1.473	28.909	1567.935	1298.716
-0.458	25.941	1548.332	1261.692
0.556	23.826	1550.297	1229.425
1.571	21.363	1574.080	1230.851
2.586	20.969	1586.378	1237.561
3.600	18.774	1533.096	1180.816
4.615	11.577	1426.640	1052.519
5.629	4.840	1365.565	965.707
6.644	3.717	1357.866	953.251
7.659	3.716	1356.382	952.120
8.673	3.731	1355.955	951.825
9.688	3.746	1353.963	950.434
10.702	3.662	1350.719	947.561
11.717	6.770	1356.807	970.877
12.731	15.004	1371.655	1032.414
13.746	21.891	1383.227	1083.728
14.761	23.695	1384.988	1096.158
15.775	23.115	1383.380	1091.213
16.790	22.481	1380.943	1085.287
17.804	21.769	1379.276	1079.496
18.819	21.631	1378.352	1077.831
19.834	21.621	1377.374	1076.912
20.848	21.572	1376.913	1076.155
21.863	21.552	1375.503	1074.830
22.877	21.411	1374.532	1073.113
23.892	21.333	1373.639	1071.841
24.907	21.248	1372.997	1070.725
25.921	21.307	1371.552	1069.864
26.936	21.232	1370.879	1068.785
27.950	21.392	1369.804	1068.830
28.965	21.471	1369.314	1068.838
29.980	21.586	1368.129	1068.519
30.994	21.657	1367.563	1068.415
32.009	21.682	1366.431	1067.590
33.023	21.638	1365.446	1066.462
34.038	21.546	1363.914	1064.607
35.053	21.512	1362.670	1063.337
36.067	21.468	1361.207	1061.835
37.082	21.442	1360.681	1061.172
38.096	21.480	1360.251	1060.972
39.111	21.604	1358.918	1060.590
40.126	21.378	1358.261	1058.616
41.140	21.045	1357.284	1055.744
42.155	20.873	1356.691	1054.150
43.169	20.854	1356.527	1053.812
44.184	20.934	1356.197	1053.947
45.199	21.075	1355.589	1054.235
46.213	21.231	1355.771	1055.224
47.228	21.282	1355.278	1055.058
48.242	21.381	1353.678	1054.316
49.257	21.396	1352.609	1053.481
50.271	21.364	1350.832	1051.809
51.286	21.404	1349.763	1051.126
52.301	21.350	1348.223	1049.506
53.315	21.270	1347.363	1048.265
54.330	21.104	1346.212	1046.280
55.344	21.084	1345.060	1045.173
56.359	20.944	1344.234	1043.602
57.374	20.953	1343.087	1042.673
58.388	20.809	1342.816	1041.508
59.403	20.811	1342.092	1040.868
60.417	20.742	1340.710	1039.292
61.432	20.676	1340.220	1038.428
62.447	20.522	1339.391	1036.774
63.461	20.549	1337.965	1035.738
64.476	20.495	1337.270	1034.789
65.490	20.597	1335.742	1034.117
66.505	20.588	1334.217	1032.793
67.520	20.615	1333.268	1032.128
68.534	20.643	1332.168	1031.351
69.549	20.549	1331.300	1030.029
70.563	20.390	1330.060	1028.038
71.578	20.388	1328.975	1027.096
72.593	20.254	1328.015	1025.472
73.607	20.150	1327.474	1024.349
74.622	20.293	1326.725	1024.524
75.636	20.327	1326.200	1024.230
76.651	20.405	1325.554	1024.101
77.666	20.422	1325.322	1023.933
78.680	20.414	1324.786	1023.382
79.695	20.606	1324.009	1023.818
80.709	20.785	1323.670	1024.519
81.724	20.908	1322.987	1024.623
82.739	21.014	1322.528	1024.801
83.753	21.248	1321.504	1025.288
84.768	21.518	1320.813	1026.246
85.782	21.602	1319.966	1025.993
86.797	21.609	1319.263	1025.398
87.812	21.537	1317.491	1023.505
88.826	21.466	1316.336	1022.105
89.841	21.461	1315.599	1021.408
90.855	21.579	1314.694	1021.307
91.870	21.653	1314.056	1021.150
92.884	21.688	1313.452	1020.794
93.899	21.717	1312.577	1020.194
94.914	21.764	1311.914	1019.862
95.928	21.818	1310.141	1018.706
96.943	21.640	1309.494	1017.078
97.957	21.588	1308.831	1016.174
98.972	21.568	1308.245	1015.512
99.987	21.592	1307.223	1014.768
101.001	21.531	1306.548	1013.801
102.016	21.609	1304.906	1012.891
103.030	21.611	1304.547	1012.534
104.045	21.525	1303.777	1011.349
105.060	21.267	1301.826	1008.259
106.074	20.954	1300.571	1005.388
107.089	20.725	1298.447	1002.342
108.103	20.470	1297.658	1000.175
109.118	20.601	1295.961	999.534
110.133	20.611	1294.946	998.716
111.147	20.622	1293.917	997.898
112.162	20.794	1292.328	997.572
113.176	20.816	1291.297	996.811
114.191	20.830	1290.542	996.222
115.206	20.785	1289.742	995.260
116.220	20.786	1288.767	994.424
117.235	20.709	1287.181	992.670
118.249	20.716	1286.047	991.750
119.264	20.496	1285.171	989.734
120.279	20.472	1283.852	988.497
121.293	20.299	1282.807	986.622
122.308	20.278	1281.681	985.545
123.322	20.193	1280.404	983.996
124.337	20.119	1279.864	983.072
125.352	20.109	1278.751	982.076
126.366	20.103	1277.607	981.076
127.381	20.112	1276.520	980.208
128.395	20.012	1275.413	978.703
129.410	20.001	1274.799	978.084
130.424	20.190	1273.991	978.444
131.439	20.411	1273.341	979.103
132.454	20.543	1272.949	979.458
133.468	20.629	1271.915	979.062
134.483	20.645	1271.464	978.721
135.497	20.651	1270.942	978.260
136.512	20.684	1269.485	977.239
137.527	20.879	1268.224	977.279
138.541	20.790	1267.109	975.831
139.556	20.875	1265.648	975.096
140.570	20.907	1265.508	975.082
141.585	21.108	1264.384	975.255
142.600	21.247	1263.401	975.185
143.614	21.425	1262.810	975.635
144.629	21.555	1261.579	975.324
145.643	21.580	1260.174	974.290
146.658	21.230	1259.097	971.422
147.673	20.922	1257.876	968.685
148.687	20.901	1256.652	967.540
149.702	20.795	1254.656	965.331
150.716	20.681	1253.649	963.835
151.731	20.583	1252.208	962.103
152.746	20.653	1251.390	961.777
153.760	20.734	1250.602	961.532
154.775	20.937	1249.740	961.904
155.789	21.060	1248.619	961.638
156.804	21.039	1247.934	960.908
157.819	21.060	1247.392	960.519
158.833	21.297	1246.148	960.782
159.848	21.268	1246.216	960.588
160.862	21.401	1244.603	959.993
161.877	21.000	1242.786	956.307
162.892	20.644	1241.347	953.165
163.906	20.591	1240.452	952.099
164.921	20.597	1239.322	951.183
165.935	20.774	1238.872	951.723
166.950	20.781	1238.362	951.285
167.964	20.943	1237.337	951.297
168.979	20.815	1237.166	950.384
169.994	20.902	1235.538	949.522
171.008	20.754	1235.545	948.636
172.023	20.868	1235.094	948.827
173.037	21.190	1234.419	949.976
174.052	21.142	1233.470	948.899
175.067	20.857	1232.094	946.209
176.081	20.644	1230.707	943.905
177.096	20.625	1229.670	942.924
178.110	20.659	1228.574	942.185
179.125	20.780	1227.911	942.246
180.140	20.888	1227.397	942.354
181.154	21.121	1226.774	943.051
182.169	21.307	1225.327	942.858
183.183	21.244	1224.493	941.796
184.198	21.359	1222.956	941.151
185.213	21.322	1222.136	940.238
186.227	21.387	1221.203	939.783
187.242	21.396	1220.590	939.276
188.256	21.510	1219.733	939.146
189.271	21.683	1218.849	939.313
190.286	21.454	1217.388	936.875
191.300	20.875	1216.427	932.953
192.315	20.707	1215.426	931.202
193.329	20.804	1214.901	931.239
194.344	20.776	1214.408	930.628
195.359	20.801	1213.544	930.019
196.373	20.734	1213.479	929.525
197.388	20.931	1213.019	930.145
198.402	21.330	1212.536	931.822
199.417	21.665	1212.476	933.479
200.432	21.746	1211.700	933.225
201.446	21.835	1211.730	933.642
202.461	21.852	1210.887	933.002
203.475	21.823	1209.887	931.994
204.490	21.351	1208.270	928.157
205.504	21.214	1206.529	926.016
206.519	21.098	1205.396	924.445
207.534	21.114	1203.988	923.372
208.548	20.961	1203.369	922.004
209.563	21.153	1202.401	922.195
210.577	21.129	1201.472	921.273
211.592	21.275	1200.773	921.429
212.607	21.483	1200.520	922.251
213.621	21.474	1199.741	921.522
214.636	21.454	1198.236	920.180
215.650	21.347	1198.099	919.430
216.665	21.592	1196.919	919.731
217.680	21.822	1196.588	920.604
218.694	21.892	1195.457	920.017
219.709	21.651	1194.981	918.308
220.723	21.776	1194.210	918.285
221.738	21.658	1192.998	916.656
222.753	21.609	1192.580	915.998
223.767	21.511	1192.153	915.075
224.782	21.776	1191.781	916.094
225.796	21.981	1191.408	916.796
226.811	21.824	1190.139	914.923
227.826	21.530	1189.925	913.142
228.840	21.449	1188.325	911.411
229.855	21.498	1187.657	911.075
230.869	21.438	1187.049	910.212
231.884	21.397	1185.920	909.056
232.899	21.243	1185.170	907.596
233.913	21.150	1184.230	906.317
234.928	21.111	1183.064	905.142
235.942	20.973	1182.627	904.013
236.957	20.979	1182.031	903.508
237.972	20.983	1181.000	902.661
238.986	20.962	1180.490	902.080
240.001	21.134	1179.926	902.460
241.015	21.148	1179.037	901.773
242.030	21.260	1178.501	901.863
243.045	21.369	1178.145	902.069
244.059	21.399	1177.331	901.523
245.074	21.431	1176.702	901.126
246.088	21.585	1175.710	901.082
247.103	21.758	1175.238	901.528
248.117	21.933	1174.777	901.995
249.132	22.047	1174.251	902.098
250.147	22.335	1173.869	903.199
251.161	22.569	1173.268	903.858
252.176	22.679	1172.793	903.977
253.190	22.709	1172.041	903.471
254.205	22.762	1171.824	903.494
255.220	22.836	1171.199	903.314
256.234	22.697	1170.504	901.987
257.249	22.724	1169.781	901.485
258.263	22.565	1169.421	900.315
259.278	22.520	1168.978	899.669
260.293	22.677	1167.995	899.634
261.307	22.790	1167.286	899.581
262.322	22.798	1166.468	898.911
263.336	22.877	1166.035	898.904
264.351	22.845	1165.695	898.399
265.366	22.952	1164.617	898.030
266.380	22.802	1164.697	897.249
267.395	22.717	1163.143	895.544
268.409	22.561	1162.316	894.034
269.424	22.466	1161.745	893.034
270.439	22.526	1161.248	892.880
271.453	22.490	1159.874	891.560
272.468	22.224	1158.944	889.424
273.482	22.128	1158.219	888.300
274.497	22.100	1157.843	887.790
275.512	22.217	1157.013	887.666
276.526	22.184	1156.320	886.893
277.541	22.206	1155.728	886.468
278.555	22.360	1155.313	886.847
279.570	22.520	1155.155	887.453
280.585	22.878	1154.038	888.320
281.599	22.792	1153.209	887.170
282.614	22.579	1151.445	884.669
283.628	22.289	1150.801	882.637
284.643	22.273	1149.905	881.793
285.657	22.271	1148.783	880.843
286.672	22.317	1147.911	880.327
287.687	22.448	1146.929	880.153
288.701	22.443	1146.360	879.614
289.716	22.342	1145.622	878.464
290.730	22.431	1144.927	878.297
291.745	22.470	1144.256	877.900
292.760	22.457	1144.022	877.576
293.774	22.521	1143.454	877.381
294.789	22.719	1143.433	878.276
295.803	22.800	1142.081	877.560
296.818	22.482	1141.238	875.254
297.833	22.488	1140.268	874.466
298.847	22.452	1139.755	873.817
299.862	22.379	1139.023	872.817
300.876	22.352	1138.785	872.422
301.891	22.605	1137.949	872.956
302.906	22.818	1137.742	873.775
303.920	22.912	1136.909	873.524
304.935	23.075	1136.577	873.998
305.949	23.139	1136.074	873.851
306.964	23.137	1135.467	873.292
307.979	22.867	1134.564	871.190
308.993	22.765	1133.671	869.926
310.008	22.847	1133.256	869.935
311.022	22.990	1132.363	869.877
312.037	22.965	1130.963	868.598
313.052	22.818	1129.977	867.044
314.066	22.506	1128.952	864.647
315.081	22.376	1127.752	863.018
316.095	22.173	1127.188	861.514
317.110	22.237	1126.336	861.097
318.125	22.208	1125.782	860.456
319.139	22.106	1125.218	859.452
320.154	22.110	1124.816	859.088
321.168	22.200	1124.095	858.899
322.183	22.318	1122.875	858.467
323.197	22.346	1122.838	858.500
324.212	22.470	1122.258	858.584
325.227	22.516	1121.339	858.029
326.241	22.469	1120.848	857.349
327.256	22.248	1120.570	855.987
328.270	22.331	1119.011	855.122
329.285	22.326	1118.225	854.423
330.300	22.242	1117.501	853.387
331.314	22.398	1116.267	853.123
332.329	22.387	1115.255	852.222
333.343	22.439	1114.965	852.177
334.358	22.556	1114.325	852.179
335.373	22.738	1113.749	852.541
336.387	22.771	1113.288	852.272
337.402	22.873	1112.352	851.972
338.416	22.975	1111.964	852.090
339.431	23.092	1111.358	852.116
340.446	23.153	1111.035	852.088
341.460	23.375	1110.566	852.721
342.475	23.579	1109.512	852.818
343.489	23.550	1108.855	852.095
344.504	23.498	1108.273	851.324
345.519	23.666	1107.292	851.299
346.533	23.831	1106.330	851.275
347.548	23.778	1105.844	850.573
348.562	23.563	1104.892	848.736
349.577	23.287	1103.728	846.450
350.592	23.048	1102.532	844.314
351.606	22.797	1102.073	842.690
352.621	22.634	1100.839	840.897
353.635	22.623	1100.385	840.421
354.650	22.677	1099.293	839.769
355.665	22.777	1098.965	839.922
356.679	22.879	1098.806	840.210
357.694	23.161	1098.041	840.894
358.708	23.044	1097.708	840.008
359.723	23.081	1097.166	839.695
360.738	23.163	1096.322	839.360
361.752	23.186	1095.502	838.772
362.767	23.144	1094.811	837.968
363.781	23.214	1094.305	837.836
364.796	23.419	1094.202	838.654
365.810	23.513	1094.420	839.191
366.825	23.784	1093.291	839.534
367.840	24.002	1092.923	840.207
368.854	24.098	1092.531	840.283
369.869	23.975	1091.668	838.964
370.883	23.743	1090.757	837.096
371.898	23.612	1089.914	835.761
372.913	23.542	1089.367	834.937
373.927	23.608	1089.187	835.035
374.942	23.808	1088.264	835.194
375.956	23.695	1087.849	834.270
376.971	23.702	1086.952	833.543
377.986	23.786	1086.712	833.679
379.000	23.998	1086.444	834.392
380.015	24.129	1085.726	834.380
381.029	24.127	1085.308	833.975
382.044	24.052	1084.787	833.150
383.059	24.002	1083.836	832.112
384.073	23.912	1083.106	831.058
385.088	24.004	1082.175	830.700
386.102	23.857	1081.433	829.374
387.117	23.738	1079.783	827.477
388.132	23.440	1078.678	825.170
389.146	23.527	1077.754	824.797
390.161	23.367	1076.952	823.368
391.175	23.300	1076.539	822.666
392.190	23.492	1076.096	823.144
393.205	24.017	1075.468	825.027
394.219	23.938	1074.718	824.015
395.234	23.744	1073.427	822.054
396.248	23.465	1073.032	820.387
397.263	23.417	1071.687	819.063
398.278	23.251	1070.944	817.657
399.292	23.292	1070.045	817.087
400.307	23.367	1069.069	816.617
401.321	23.194	1068.816	815.552
402.336	23.035	1068.405	814.437
403.350	23.129	1067.439	814.061
404.365	23.230	1067.047	814.153
405.380	23.409	1066.160	814.228
406.394	23.590	1065.487	814.473
407.409	23.759	1065.176	814.937
408.423	24.105	1064.563	815.981
409.438	24.046	1064.321	815.456
410.453	24.131	1063.676	815.278
411.467	24.128	1063.292	814.898
412.482	24.151	1062.887	814.620
413.496	24.270	1062.017	814.425
414.511	24.349	1061.618	814.406
415.526	24.543	1061.123	814.841
416.540	24.716	1060.621	815.172
417.555	24.661	1059.701	814.142
418.569	24.259	1059.400	812.008
419.584	24.341	1058.823	811.865
420.599	24.371	1058.237	811.480
421.613	156.350	1404.347	1797.667
422.628	143.675	1454.771	1797.770
