DTS Sentinel unit serial number:	SN413079Multiplexer serial number:	ORYXHardware model number:	OX4-SRSoftware version number:	ORYX F/W v4.00 Oryx Data Collector v3.7.2.0data status	okinstallation	princeton_trtdifferential loss correction	single-endedforward channel	channel 2reverse channel	N/Adate	2019/09/16time	23:19:35forward acquisition time	60.00reverse acquisition time	0.00gamma	496.2192k internal	0.2330k external	0.2330temperature offset calibration	0.9973default loss term (dB/km)	0.3790temperature slope calibration	1.0000multiplexer offset coefficient	1.0000multiplexer slope coefficient	1.0000fibre end	0.00T internal ref (°C)	30.03T ext. ref 1 (°C)	0.10T ext. ref 2 (°C)	23.65length (m)	temperature (°C)	Stokes	anti-Stokes-747.200	800.000	-0.065	-0.217
-746.185	146.413	-0.141	0.191
-745.171	-200.000	0.030	0.283
-744.156	421.357	-0.133	0.288
-743.142	-169.797	-0.008	-0.000
-742.127	16.530	-0.220	0.175
-741.112	-96.581	0.231	0.061
-740.098	97.551	0.282	0.326
-739.083	-77.039	-0.256	0.090
-738.069	-200.000	0.013	0.191
-737.054	515.774	0.045	-0.105
-736.039	-25.573	-0.314	0.187
-735.025	-200.000	0.034	-0.263
-734.010	7.599	-0.147	-0.111
-732.996	13.202	-0.186	-0.145
-731.981	-0.543	-0.091	0.065
-730.966	-76.658	-0.111	-0.039
-729.952	297.296	0.076	-0.140
-728.937	-200.000	0.018	-0.145
-727.923	87.272	-0.187	-0.208
-726.908	800.000	0.005	-0.014
-725.894	-26.069	-0.308	0.182
-724.879	82.707	-0.078	-0.085
-723.864	93.376	-0.111	0.127
-722.850	-200.000	-0.030	0.144
-721.835	-200.000	-0.011	-0.078
-720.821	-200.000	0.006	0.106
-719.806	-105.355	-0.108	0.025
-718.791	-163.012	-0.524	0.026
-717.777	612.829	-0.052	-0.131
-716.762	495.600	-0.108	-0.249
-715.748	54.846	-0.129	-0.126
-714.733	-169.780	0.278	-0.010
-713.718	728.172	0.064	0.171
-712.704	436.195	0.085	-0.186
-711.689	-47.575	0.204	-0.100
-710.675	-176.354	-0.164	0.004
-709.660	-31.632	0.100	-0.056
-708.645	-186.468	-0.093	-0.001
-707.631	-5.584	0.193	0.133
-706.616	800.000	-0.082	0.266
-705.602	-112.139	-0.470	0.095
-704.587	-200.000	-0.009	-0.122
-703.572	293.859	0.102	0.187
-702.558	517.057	0.086	-0.201
-701.543	102.451	-0.205	0.241
-700.529	-115.920	-0.239	-0.045
-699.514	800.000	-0.072	-0.306
-698.499	-108.411	-0.141	-0.031
-697.485	800.000	0.127	-0.374
-696.470	37.204	0.118	-0.105
-695.456	-57.909	0.356	-0.156
-694.441	-177.188	-0.273	-0.007
-693.426	-139.635	-0.119	0.013
-692.412	487.918	-0.077	-0.176
-691.397	505.817	0.225	0.525
-690.383	-125.535	0.092	0.014
-689.368	105.025	0.082	-0.097
-688.354	-15.090	0.097	-0.063
-687.339	-96.114	-0.418	0.112
-686.324	-200.000	-0.015	-0.528
-685.310	-10.910	-0.079	-0.052
-684.295	514.904	-0.109	0.255
-683.281	-148.725	-0.020	-0.002
-682.266	800.000	0.042	-0.176
-681.251	800.000	-0.120	0.343
-680.237	800.000	-0.032	0.096
-679.222	80.640	-0.080	-0.087
-678.208	-79.099	-0.133	-0.045
-677.193	597.090	-0.068	-0.168
-676.178	-200.000	-0.022	0.227
-675.164	-98.266	0.195	0.050
-674.149	262.534	0.017	-0.030
-673.135	-200.000	0.029	-0.273
-672.120	427.514	-0.180	-0.389
-671.105	597.413	-0.029	-0.073
-670.091	-200.000	0.027	-0.289
-669.076	-67.233	0.267	-0.106
-668.062	-42.836	-0.265	-0.135
-667.047	-21.680	-0.383	-0.234
-666.032	-192.666	-0.193	0.002
-665.018	-23.654	-0.222	0.134
-664.003	99.401	-0.224	0.260
-662.989	-157.861	-0.294	-0.017
-661.974	461.301	0.064	0.143
-660.959	-89.604	-0.344	0.101
-659.945	162.832	0.051	0.072
-658.930	-200.000	-0.030	-0.253
-657.916	-200.000	0.035	-0.165
-656.901	-200.000	0.036	-0.164
-655.886	800.000	-0.067	-0.216
-654.872	602.024	-0.084	-0.210
-653.857	-200.000	0.033	-0.294
-652.843	800.000	-0.104	0.388
-651.828	-114.350	-0.078	0.015
-650.814	-200.000	-0.026	0.144
-649.799	-127.543	-0.315	-0.046
-648.784	31.604	0.066	0.057
-647.770	-2.787	-0.134	0.094
-646.755	800.000	-0.065	0.243
-645.741	129.417	-0.306	-0.392
-644.726	-13.224	0.253	-0.165
-643.711	-128.893	-0.053	0.007
-642.697	139.054	0.049	0.065
-641.682	-10.561	0.084	0.056
-640.668	800.000	0.062	-0.271
-639.653	221.607	-0.156	-0.252
-638.638	-92.777	0.305	-0.086
-637.624	-200.000	-0.013	-0.187
-636.609	15.909	-0.142	0.112
-635.595	-114.970	0.311	0.059
-634.580	800.000	-0.077	0.245
-633.565	92.777	-0.093	-0.106
-632.551	590.336	-0.076	-0.187
-631.536	346.039	0.043	-0.085
-630.522	197.546	-0.062	-0.096
-629.507	-200.000	-0.029	-0.381
-628.492	23.580	-0.061	0.050
-627.478	175.026	-0.109	0.159
-626.463	-55.859	-0.130	0.058
-625.449	-51.284	-0.146	-0.069
-624.434	18.878	0.219	0.176
-623.419	-109.540	-0.275	-0.058
-622.405	19.933	-0.286	-0.231
-621.390	-34.793	0.224	-0.123
-620.376	-54.020	-0.242	0.110
-619.361	-132.232	0.130	-0.017
-618.346	-172.048	0.362	0.012
-617.332	-200.000	-0.065	0.000
-616.317	-146.253	-0.185	-0.016
-615.303	186.191	-0.105	-0.156
-614.288	-80.890	-0.131	-0.044
-613.273	62.003	-0.097	-0.097
-612.259	-193.818	-0.160	0.001
-611.244	-200.000	-0.008	-0.148
-610.230	26.009	-0.326	-0.273
-609.215	800.000	-0.058	0.202
-608.201	11.528	0.190	0.146
-607.186	-200.000	0.018	-0.207
-606.171	-200.000	-0.026	-0.422
-605.157	-200.000	-0.011	-0.050
-604.142	-200.000	0.018	-0.114
-603.128	-93.628	-0.410	0.113
-602.113	-182.625	0.202	-0.004
-601.098	-67.188	0.245	-0.097
-600.084	800.000	0.150	-0.503
-599.069	358.006	-0.076	0.151
-598.055	220.698	-0.219	0.352
-597.040	-47.306	-0.200	0.098
-596.025	-70.369	0.463	-0.176
-595.011	-16.432	-0.122	0.078
-593.996	19.960	-0.188	0.151
-592.982	800.000	-0.057	0.199
-591.967	-200.000	0.015	0.182
-590.952	-200.000	0.025	-0.214
-589.938	-106.313	0.112	-0.025
-588.923	800.000	0.044	-0.191
-587.909	-138.317	-0.328	-0.036
-586.894	323.688	0.142	-0.270
-585.879	-103.701	0.501	-0.118
-584.865	143.217	0.141	-0.188
-583.850	-95.399	-0.303	0.081
-582.836	-90.084	0.317	0.093
-581.821	-48.580	0.185	-0.089
-580.806	800.000	0.116	-0.458
-579.792	-171.732	-0.374	-0.012
-578.777	-200.000	0.054	0.270
-577.763	-145.735	-0.414	-0.037
-576.748	-72.461	0.170	0.063
-575.733	-76.292	0.150	-0.053
-574.719	78.083	-0.212	-0.227
-573.704	-115.497	-0.225	-0.042
-572.690	67.791	-0.087	-0.089
-571.675	297.322	0.097	-0.177
-570.661	113.065	-0.150	-0.182
-569.646	40.845	0.230	0.208
-568.631	-200.000	-0.003	0.114
-567.617	-80.411	0.156	0.052
-566.602	115.535	-0.103	0.126
-565.588	-128.813	0.327	0.046
-564.573	293.853	-0.163	0.297
-563.558	-176.762	-0.087	-0.002
-562.544	-140.925	-0.195	-0.020
-561.529	425.153	0.129	-0.277
-560.515	-200.000	-0.009	0.239
-559.500	220.683	0.168	-0.270
-558.485	-200.000	0.027	-0.172
-557.471	-42.839	0.309	-0.157
-556.456	-93.883	0.204	0.056
-555.442	-200.000	-0.000	0.060
-554.427	-81.972	0.062	-0.020
-553.412	147.109	-0.109	0.147
-552.398	-35.734	0.181	-0.098
-551.383	-104.380	0.068	-0.016
-550.369	-200.000	0.049	-0.251
-549.354	255.329	-0.143	-0.245
-548.339	147.428	0.220	-0.297
-547.325	152.103	0.238	-0.324
-546.310	-139.502	0.055	-0.006
-545.296	-92.046	-0.302	0.085
-544.281	30.948	0.026	0.022
-543.266	-155.136	0.243	-0.016
-542.252	-200.000	-0.063	-0.305
-541.237	800.000	-0.029	-0.121
-540.223	-25.712	0.142	-0.084
-539.208	204.342	0.113	-0.175
-538.193	-125.425	0.125	0.019
-537.179	111.388	-0.046	-0.056
-536.164	-27.336	-0.281	-0.163
-535.150	-200.000	-0.003	-0.263
-534.135	800.000	0.084	-0.241
-533.121	-18.277	-0.294	0.183
-532.106	403.398	0.122	-0.257
-531.091	130.253	-0.154	-0.197
-530.077	331.766	-0.036	0.069
-529.062	206.835	-0.145	-0.226
-528.048	-71.726	-0.032	0.012
-527.033	-186.800	-0.192	0.003
-526.018	82.724	-0.056	-0.061
-525.004	-32.588	-0.124	0.069
-523.989	-15.152	0.093	-0.059
-522.975	397.417	-0.035	-0.072
-521.960	372.742	-0.089	0.181
-520.945	94.906	-0.114	-0.130
-519.931	24.645	-0.211	0.174
-518.916	-75.368	-0.158	0.056
-517.902	-101.850	0.399	-0.096
-516.887	76.540	-0.178	0.188
-515.872	-200.000	-0.020	0.254
-514.858	20.139	-0.146	0.118
-513.843	-200.000	0.034	-0.367
-512.829	35.443	-0.188	0.164
-511.814	-115.556	-0.198	-0.037
-510.799	-49.279	0.178	0.085
-509.785	-200.000	0.005	-0.131
-508.770	92.211	0.103	0.116
-507.756	55.999	-0.055	-0.053
-506.741	-52.334	0.204	0.094
-505.726	80.999	-0.143	0.154
-504.712	80.974	-0.186	0.200
-503.697	169.199	-0.187	-0.266
-502.683	60.120	-0.090	-0.089
-501.668	-68.274	0.250	0.097
-500.653	6.294	-0.050	-0.037
-499.639	800.000	0.070	0.233
-498.624	-166.052	0.363	-0.015
-497.610	-175.520	0.109	0.003
-496.595	82.626	0.227	0.246
-495.581	-53.539	0.034	0.016
-494.566	39.054	0.209	0.186
-493.551	-92.608	-0.350	-0.098
-492.537	37.837	0.285	-0.252
-491.522	730.323	0.156	-0.415
-490.508	-116.382	0.380	0.070
-489.493	-145.021	-0.228	0.021
-488.478	800.000	-0.075	-0.218
-487.464	101.632	0.125	0.145
-486.449	-137.557	-0.328	-0.037
-485.435	-200.000	0.006	0.041
-484.420	-200.000	0.000	0.202
-483.405	-0.372	-0.067	0.047
-482.391	-9.549	0.187	0.124
-481.376	-200.000	-0.059	0.301
-480.362	94.146	0.227	0.257
-479.347	0.157	-0.170	0.121
-478.332	-85.938	0.236	-0.073
-477.318	-128.384	0.196	-0.028
-476.303	800.000	0.106	0.308
-475.289	-80.206	-0.245	-0.082
-474.274	607.380	-0.018	-0.045
-473.259	-69.717	0.106	-0.040
-472.245	-114.251	0.211	-0.041
-471.230	-31.683	0.069	0.038
-470.216	-200.000	0.007	-0.165
-469.201	-72.070	0.393	-0.145
-468.186	354.619	-0.048	0.095
-467.172	-124.005	0.268	0.042
-466.157	-15.176	-0.225	0.144
-465.143	-174.758	0.163	0.005
-464.128	442.847	0.119	-0.260
-463.113	-71.711	0.221	0.082
-462.099	800.000	0.094	-0.279
-461.084	-109.768	0.177	-0.037
-460.070	390.255	-0.098	-0.203
-459.055	-43.368	-0.132	-0.066
-458.040	83.698	0.152	-0.165
-457.026	-123.225	-0.249	0.040
-456.011	-200.000	0.008	0.236
-454.997	185.626	-0.076	-0.113
-453.982	256.253	0.094	-0.161
-452.968	14.634	0.203	0.158
-451.953	-85.186	0.308	0.096
-450.938	-16.402	0.176	0.111
-449.924	-200.000	0.041	0.286
-448.909	800.000	-0.077	-0.217
-447.895	-200.000	-0.028	0.172
-446.880	112.591	-0.110	0.133
-445.865	212.528	0.071	-0.111
-444.851	320.813	0.086	0.164
-443.836	-112.466	0.304	-0.060
-442.822	421.021	-0.165	0.351
-441.807	45.059	-0.098	0.090
-440.792	800.000	-0.130	0.427
-439.778	36.647	-0.045	-0.039
-438.763	4.060	0.278	-0.202
-437.749	800.000	-0.087	0.266
-436.734	75.490	-0.174	-0.183
-435.719	84.367	0.144	0.156
-434.705	634.027	-0.059	-0.148
-433.690	60.146	0.204	0.201
-432.676	-184.610	-0.148	0.002
-431.661	11.071	0.201	0.153
-430.646	153.282	0.060	-0.082
-429.632	-200.000	-0.020	-0.121
-428.617	-163.878	-0.083	0.004
-427.603	-127.951	0.052	0.007
-426.588	-81.183	0.117	-0.039
-425.573	7.545	-0.111	0.083
-424.559	800.000	-0.063	0.205
-423.544	64.394	0.198	0.198
-422.530	18.805	0.213	0.170
-421.515	328.505	0.073	-0.140
-420.500	771.215	0.110	-0.298
-419.486	800.000	0.070	-0.301
-418.471	-200.000	-0.049	0.324
-417.457	44.742	-0.196	0.180
-416.442	243.778	0.070	-0.117
-415.428	-58.189	-0.161	-0.070
-414.413	15.758	0.227	0.178
-413.398	-116.341	-0.220	-0.040
-412.384	-112.879	-0.244	-0.048
-411.369	390.999	0.132	-0.273
-410.355	-160.644	0.356	-0.019
-409.340	-58.090	0.312	0.135
-408.325	3.552	-0.167	0.121
-407.311	-36.303	0.343	-0.184
-406.296	-162.796	-0.092	-0.004
-405.282	800.000	-0.015	-0.052
-404.267	341.513	-0.109	-0.213
-403.252	56.508	-0.301	0.291
-402.238	-200.000	0.015	0.184
-401.223	-118.283	0.236	0.042
-400.209	-49.735	-0.230	0.109
-399.194	-200.000	-0.015	0.214
-398.179	290.261	0.140	-0.253
-397.165	-70.677	0.321	0.120
-396.150	-79.203	0.174	0.059
-395.136	-89.239	0.243	0.071
-394.121	-116.416	0.058	-0.011
-393.106	104.794	-0.022	0.026
-392.092	764.548	-0.028	-0.075
-391.077	-108.515	-0.249	0.053
-390.063	-200.000	-0.020	0.240
-389.048	-22.797	-0.292	0.175
-388.033	26.685	-0.084	-0.070
-387.019	-200.000	-0.000	0.023
-386.004	-187.909	-0.161	-0.002
-384.990	800.000	0.085	0.338
-383.975	800.000	0.116	-0.386
-382.960	-200.000	0.008	-0.173
-381.946	228.367	-0.089	-0.145
-380.931	-200.000	0.001	-0.256
-379.917	-18.887	0.156	0.097
-378.902	-127.802	-0.134	-0.019
-377.888	85.938	0.234	0.256
-376.873	229.280	-0.061	0.100
-375.858	-115.227	0.140	-0.026
-374.844	-113.054	-0.275	-0.054
-373.829	-67.822	-0.298	0.116
-372.815	336.462	0.106	0.205
-371.800	-51.150	-0.023	0.011
-370.785	800.000	0.143	0.401
-369.771	-43.482	-0.394	0.198
-368.756	391.474	0.079	-0.163
-367.742	-161.442	-0.264	-0.013
-366.727	6.282	-0.128	-0.094
-365.712	138.073	-0.152	0.198
-364.698	65.403	0.120	-0.121
-363.683	164.222	0.092	-0.129
-362.669	-48.453	-0.304	-0.145
-361.654	-50.833	-0.241	-0.112
-360.639	-128.813	-0.335	0.047
-359.625	9.805	-0.185	0.139
-358.610	-132.390	0.158	0.020
-357.596	800.000	0.116	-0.417
-356.581	-39.053	-0.243	-0.127
-355.566	-144.737	-0.171	0.016
-354.552	-200.000	0.004	0.367
-353.537	563.787	0.060	0.143
-352.523	-39.056	-0.326	-0.170
-351.508	800.000	0.066	-0.281
-350.493	-200.000	-0.070	-0.350
-349.479	498.030	0.042	-0.095
-348.464	20.682	0.364	-0.292
-347.450	27.885	-0.156	0.130
-346.435	82.655	-0.065	0.070
-345.420	800.000	-0.036	0.126
-344.406	-200.000	-0.025	0.131
-343.391	-200.000	-0.029	-0.171
-342.377	-118.626	0.050	0.009
-341.362	-189.613	0.273	0.003
-340.348	-33.971	-0.257	-0.140
-339.333	54.774	0.313	0.300
-338.318	100.628	0.164	0.189
-337.304	-8.741	0.064	0.042
-336.289	800.000	-0.051	0.208
-335.275	196.799	0.094	0.142
-334.260	772.833	0.139	0.377
-333.245	670.065	0.046	0.119
-332.231	-76.870	-0.159	-0.055
-331.216	800.000	-0.162	0.534
-330.202	544.176	0.160	0.380
-329.187	114.015	0.122	-0.147
-328.172	52.484	-0.099	0.094
-327.158	190.665	0.217	-0.324
-326.143	-105.466	0.289	0.065
-325.129	89.052	-0.209	0.231
-324.114	-61.811	0.291	-0.121
-323.099	800.000	-0.051	0.214
-322.085	-6.967	-0.186	-0.125
-321.070	-29.323	-0.177	-0.100
-320.056	795.346	-0.012	-0.034
-319.041	-25.207	0.316	-0.185
-318.026	139.822	0.109	-0.142
-317.012	572.557	0.174	0.421
-315.997	338.895	0.103	-0.199
-314.983	800.000	0.083	0.235
-313.968	178.323	0.041	0.059
-312.953	540.960	-0.126	0.298
-311.939	-47.915	-0.155	-0.074
-310.924	46.732	0.050	0.046
-309.910	800.000	0.089	0.305
-308.895	-107.122	0.175	-0.038
-307.880	-143.700	-0.170	-0.016
-306.866	-200.000	0.068	-0.336
-305.851	140.075	-0.221	-0.289
-304.837	20.071	-0.160	-0.128
-303.822	16.093	0.274	0.214
-302.807	-55.573	0.157	-0.070
-301.793	800.000	0.070	0.198
-300.778	779.486	-0.078	0.210
-299.764	129.159	-0.220	-0.278
-298.749	-200.000	0.002	0.028
-297.735	37.768	0.206	-0.181
-296.720	800.000	-0.045	-0.126
-295.705	-25.551	0.077	-0.045
-294.691	63.629	0.253	0.251
-293.676	101.851	-0.156	-0.180
-292.662	150.890	-0.190	-0.256
-291.647	-93.358	-0.349	-0.096
-290.632	13.058	-0.061	-0.046
-289.618	-65.580	-0.147	-0.058
-288.603	68.082	-0.168	-0.171
-287.589	280.285	0.068	-0.121
-286.574	487.051	-0.114	-0.256
-285.559	140.128	0.278	0.363
-284.545	-38.306	0.292	0.153
-283.530	-69.242	-0.323	-0.123
-282.516	-125.022	-0.132	-0.020
-281.501	424.364	0.089	-0.189
-280.486	457.658	-0.090	0.199
-279.472	-54.412	-0.283	0.127
-278.457	-42.770	-0.033	0.017
-277.443	-55.877	-0.150	-0.066
-276.428	479.489	0.152	-0.340
-275.413	358.725	0.088	-0.174
-274.399	188.293	0.201	0.297
-273.384	-26.546	-0.217	-0.126
-272.370	65.588	-0.164	-0.164
-271.355	-200.000	0.045	0.302
-270.340	800.000	-0.068	0.248
-269.326	-40.092	-0.196	0.101
-268.311	-12.055	0.047	0.031
-267.297	108.905	0.236	0.279
-266.282	-8.217	-0.027	-0.018
-265.267	87.955	-0.038	0.042
-264.253	-66.776	-0.229	-0.089
-263.238	-135.795	0.176	-0.021
-262.224	20.496	0.154	0.123
-261.209	-148.698	0.063	-0.005
-260.195	-135.785	0.082	-0.010
-259.180	12.500	-0.358	-0.273
-258.165	-200.000	-0.040	-0.217
-257.151	18.907	-0.164	0.130
-256.136	-200.000	-0.028	0.157
-255.122	-200.000	-0.044	0.410
-254.107	-196.524	-0.134	0.001
-253.092	-29.206	-0.201	0.114
-252.078	-200.000	-0.008	-0.282
-251.063	800.000	0.071	-0.303
-250.049	79.898	0.169	-0.179
-249.034	-119.221	0.075	0.013
-248.019	-124.957	-0.093	0.014
-247.005	445.239	0.102	0.220
-245.990	112.408	0.260	0.310
-244.976	197.143	0.167	-0.251
-243.961	800.000	-0.047	0.128
-242.946	-84.709	-0.265	-0.082
-241.932	115.973	-0.225	0.272
-240.917	-139.755	0.150	-0.016
-239.903	-200.000	-0.061	0.300
-238.888	314.896	-0.093	-0.173
-237.873	800.000	-0.017	0.051
-236.859	-158.064	0.317	0.018
-235.844	800.000	-0.084	0.326
-234.830	-200.000	0.002	0.026
-233.815	800.000	-0.109	0.454
-232.800	465.355	0.071	-0.157
-231.786	61.403	-0.094	0.092
-230.771	800.000	-0.116	-0.432
-229.757	-200.000	0.017	0.112
-228.742	42.289	-0.146	-0.131
-227.727	201.531	-0.083	-0.126
-226.713	800.000	-0.101	0.286
-225.698	-70.462	0.149	-0.056
-224.684	-200.000	0.005	0.141
-223.669	-200.000	0.018	-0.286
-222.655	-88.787	0.205	-0.060
-221.640	800.000	-0.075	0.255
-220.625	-29.476	-0.207	0.117
-219.611	-200.000	-0.047	0.353
-218.596	-101.396	-0.232	0.056
-217.582	67.216	0.170	0.171
-216.567	-28.376	-0.070	0.040
-215.552	-200.000	0.017	-0.250
-214.538	-62.651	-0.217	0.089
-213.523	-200.000	-0.007	-0.265
-212.509	468.003	-0.039	0.087
-211.494	-96.950	0.368	0.095
-210.479	79.207	-0.218	-0.231
-209.465	-200.000	0.064	-0.479
-208.450	85.941	0.067	0.073
-207.436	122.303	0.086	0.106
-206.421	154.744	-0.161	0.218
-205.406	-52.256	-0.383	-0.175
-204.392	-115.672	-0.173	-0.032
-203.377	-42.389	0.117	-0.059
-202.363	248.789	-0.194	0.323
-201.348	800.000	0.085	-0.238
-200.333	39.821	-0.225	-0.199
-199.319	800.000	-0.070	-0.284
-198.304	800.000	-0.108	0.365
-197.290	-85.919	-0.143	0.044
-196.275	10.131	-0.065	-0.049
-195.260	-200.000	0.018	0.261
-194.246	-193.768	0.194	-0.002
-193.231	155.117	0.092	-0.124
-192.217	597.093	0.057	-0.139
-191.202	463.277	0.208	0.457
-190.187	-94.548	0.325	-0.087
-189.173	800.000	0.077	-0.211
-188.158	-105.794	0.293	0.065
-187.144	-79.382	-0.097	0.032
-186.129	41.783	0.110	0.099
-185.114	-101.371	0.391	0.094
-184.100	-65.491	0.097	-0.039
-183.085	307.667	0.215	-0.395
-182.071	-98.579	0.256	0.064
-181.056	62.549	-0.131	0.129
-180.042	-41.111	-0.169	-0.086
-179.027	-39.696	0.165	0.085
-178.012	-13.263	-0.180	-0.115
-176.998	-22.327	-0.172	0.102
-175.983	146.321	0.182	-0.241
-174.969	38.947	-0.241	0.212
-173.954	-86.850	-0.397	0.120
-172.939	-200.000	0.058	0.260
-171.925	-65.002	0.063	0.025
-170.910	86.155	-0.210	0.227
-169.896	396.859	-0.040	0.083
-168.881	26.010	0.086	0.071
-167.866	-67.811	-0.120	0.046
-166.852	-200.000	-0.096	-0.000
-165.837	-64.994	0.190	0.076
-164.823	-200.000	-0.015	0.295
-163.808	-200.000	0.000	0.013
-162.793	800.000	0.058	-0.181
-161.779	402.734	-0.058	-0.120
-160.764	434.099	0.091	0.194
-159.750	220.927	-0.233	0.368
-158.735	678.648	0.076	-0.195
-157.720	31.060	0.193	-0.163
-156.706	800.000	0.052	0.159
-155.691	-200.000	-0.004	0.021
-154.677	-24.566	0.176	0.103
-153.662	-139.368	0.191	0.020
-152.647	-16.079	-0.231	-0.144
-151.633	81.301	-0.177	-0.189
-150.618	86.739	0.133	-0.144
-149.604	342.051	-0.071	0.137
-148.589	209.050	-0.181	0.279
-147.574	-199.009	-0.142	0.001
-146.560	-62.405	0.283	0.116
-145.545	800.000	0.066	0.253
-144.531	800.000	-0.153	-0.431
-143.516	554.331	0.129	-0.305
-142.502	-98.397	-0.099	-0.025
-141.487	800.000	0.051	-0.142
-140.472	-71.639	-0.070	0.026
-139.458	-200.000	0.015	0.126
-138.443	-200.000	0.000	0.207
-137.429	-200.000	-0.000	-0.017
-136.414	-49.827	-0.317	-0.148
-135.399	-82.858	-0.447	-0.142
-134.385	800.000	-0.074	0.213
-133.370	5.953	0.444	-0.323
-132.356	-107.465	0.137	0.030
-131.341	-29.064	0.298	0.168
-130.326	582.913	-0.096	-0.232
-129.312	-134.476	-0.213	-0.026
-128.297	-31.995	-0.174	0.096
-127.283	-34.189	0.163	-0.088
-126.268	350.537	0.104	0.202
-125.253	-81.572	0.160	0.052
-124.239	-76.482	0.150	-0.052
-123.224	-28.854	-0.198	-0.112
-122.210	760.353	0.033	-0.089
-121.195	66.919	-0.100	-0.101
-120.180	-200.000	0.002	0.096
-119.166	0.501	-0.031	-0.021
-118.151	230.399	0.076	0.123
-117.137	-37.096	-0.352	0.185
-116.122	420.876	-0.082	-0.172
-115.107	-37.853	-0.295	-0.154
-114.093	-27.636	0.226	0.129
-113.078	121.968	0.081	0.099
-112.064	-200.000	-0.024	0.109
-111.049	-7.107	0.087	0.058
-110.034	143.183	0.167	0.218
-109.020	-200.000	0.009	-0.163
-108.005	-200.000	-0.022	-0.238
-106.991	800.000	0.077	-0.292
-105.976	182.185	0.067	-0.097
-104.962	29.482	-0.185	-0.154
-103.947	-149.328	-0.027	-0.002
-102.932	-200.000	0.048	-0.218
-101.918	-200.000	-0.010	0.062
-100.903	31.802	0.187	0.158
-99.889	13.534	-0.222	0.170
-98.874	-170.582	0.213	-0.007
-97.859	21.613	-0.073	-0.058
-96.845	-23.323	-0.188	-0.111
-95.830	-76.661	0.094	0.032
-94.816	77.384	-0.140	0.146
-93.801	-200.000	-0.046	-0.361
-92.786	-200.000	-0.016	0.000
-91.772	-30.732	-0.213	0.118
-90.757	-117.927	0.207	0.036
-89.743	-92.419	-0.108	-0.030
-88.728	58.918	0.220	-0.212
-87.713	28.346	-0.175	-0.145
-86.699	-113.385	0.240	0.046
-85.684	268.665	0.199	-0.342
-84.670	-200.000	0.083	0.410
-83.655	164.469	0.225	0.311
-82.640	-21.646	0.157	0.094
-81.626	800.000	0.098	0.295
-80.611	9.899	-0.223	-0.166
-79.597	6.424	-0.138	0.101
-78.582	-200.000	0.009	0.144
-77.567	-138.757	0.256	-0.027
-76.553	-98.461	0.213	-0.053
-75.538	0.880	0.204	0.144
-74.524	394.848	-0.065	0.132
-73.509	-110.676	0.326	0.066
-72.494	315.063	0.189	-0.349
-71.480	-146.839	-0.268	0.023
-70.465	179.972	0.049	0.070
-69.451	258.109	0.112	0.189
-68.436	800.000	-0.032	-0.090
-67.422	439.186	0.098	-0.211
-66.407	-50.470	-0.064	0.030
-65.392	45.744	-0.206	0.187
-64.378	-43.686	0.284	-0.140
-63.363	-126.396	-0.440	-0.064
-62.349	-200.000	0.156	0.000
-61.334	83.996	-0.942	-1.009
-60.319	139.257	0.339	0.437
-59.305	800.000	-0.336	-1.092
-58.290	800.000	0.422	1.152
-57.276	522.124	0.687	1.581
-56.261	-200.000	108.033	592.446
-55.246	459.285	1468.515	3203.460
-54.232	148.942	2653.100	3516.765
-53.217	101.022	2280.508	2600.260
-52.203	39.039	1896.024	1661.344
-51.188	33.206	1685.781	1433.033
-50.173	30.653	1642.106	1376.982
-49.159	49.213	1695.067	1561.488
-48.144	49.959	1710.764	1581.497
-47.130	32.820	1668.786	1415.468
-46.115	30.132	1654.638	1383.387
-45.100	29.997	1649.366	1377.915
-44.086	29.944	1646.925	1375.426
-43.071	29.853	1644.409	1372.603
-42.057	29.837	1642.024	1370.436
-41.042	29.851	1639.977	1368.779
-40.027	29.889	1638.273	1367.583
-39.013	29.887	1636.166	1365.749
-37.998	29.823	1634.816	1364.097
-36.984	29.855	1633.428	1363.121
-35.969	30.078	1631.761	1363.322
-34.954	30.160	1629.917	1362.325
-33.940	30.093	1628.420	1360.527
-32.925	30.006	1627.012	1358.657
-31.911	30.035	1625.043	1357.175
-30.896	29.936	1623.365	1354.992
-29.881	30.053	1621.200	1353.989
-28.867	30.101	1619.844	1353.150
-27.852	30.047	1618.853	1351.880
-26.838	30.007	1616.975	1349.968
-25.823	30.060	1615.828	1349.339
-24.809	30.028	1614.619	1348.045
-23.794	30.024	1613.398	1346.941
-22.779	30.000	1611.935	1345.491
-21.765	30.032	1609.768	1343.861
-20.750	30.058	1607.926	1342.460
-19.736	30.097	1606.631	1341.605
-18.721	30.064	1605.472	1340.345
-17.706	30.023	1604.029	1338.794
-16.692	30.045	1603.016	1338.054
-15.677	29.991	1601.239	1336.125
-14.663	30.065	1599.880	1335.476
-13.648	30.153	1598.264	1334.705
-12.633	30.067	1596.947	1332.932
-11.619	30.080	1595.374	1331.661
-10.604	29.993	1594.434	1330.202
-9.590	30.057	1592.603	1329.075
-8.575	30.070	1591.383	1328.104
-7.560	30.092	1590.175	1327.199
-6.546	30.102	1589.562	1326.702
-5.531	30.126	1588.378	1325.834
-4.517	30.083	1586.992	1324.319
-3.502	30.059	1585.732	1323.041
-2.487	30.146	1583.886	1322.070
-1.473	29.743	1572.460	1309.627
-0.458	26.732	1552.846	1272.144
0.556	21.235	1553.588	1239.214
1.571	18.836	1577.177	1240.621
2.586	18.386	1590.275	1247.532
3.600	16.761	1536.874	1194.089
4.615	9.257	1428.475	1060.424
5.629	1.727	1363.865	964.801
6.644	0.204	1355.505	949.204
7.659	0.112	1354.539	947.862
8.673	0.015	1353.713	946.590
9.688	0.070	1351.257	945.134
10.702	-0.118	1348.408	941.880
11.717	3.362	1354.218	967.742
12.731	11.922	1367.438	1031.199
13.746	17.201	1373.883	1069.275
14.761	17.218	1373.060	1068.649
15.775	16.281	1370.549	1060.716
16.790	15.261	1367.782	1052.083
17.804	14.445	1365.690	1045.266
18.819	14.007	1364.683	1041.658
19.834	13.811	1363.212	1039.213
20.848	13.571	1361.446	1036.276
21.863	13.326	1360.632	1034.031
22.877	13.173	1359.136	1031.850
23.892	13.082	1358.244	1030.510
24.907	13.101	1357.559	1030.021
25.921	13.180	1356.526	1029.634
26.936	13.174	1355.886	1029.023
27.950	13.164	1354.995	1028.194
28.965	13.161	1353.733	1027.127
29.980	13.322	1353.145	1027.590
30.994	13.387	1352.449	1027.370
32.009	13.345	1351.459	1026.266
33.023	13.474	1349.844	1025.754
34.038	13.364	1349.139	1024.444
35.053	13.381	1347.915	1023.529
36.067	13.302	1347.123	1022.351
37.082	13.332	1345.795	1021.437
38.096	13.305	1345.090	1020.644
39.111	13.359	1344.379	1020.349
40.126	13.356	1343.389	1019.486
41.140	13.109	1342.844	1017.460
42.155	13.171	1342.063	1017.161
43.169	13.137	1341.808	1016.669
44.184	13.204	1341.474	1016.737
45.199	13.164	1341.165	1016.168
46.213	13.213	1340.776	1016.085
47.228	13.289	1339.324	1015.360
48.242	13.229	1338.585	1014.343
49.257	13.283	1336.938	1013.335
50.271	13.230	1335.664	1011.955
51.286	13.218	1334.309	1010.765
52.301	13.336	1333.000	1010.408
53.315	13.319	1331.739	1009.257
54.330	13.141	1331.364	1007.797
55.344	13.125	1329.802	1006.428
56.359	13.264	1328.617	1006.287
57.374	13.157	1327.968	1005.058
58.388	13.017	1327.907	1004.068
59.403	13.120	1326.803	1003.772
60.417	13.089	1325.966	1002.865
61.432	13.020	1325.273	1001.831
62.447	12.966	1324.591	1000.901
63.461	12.940	1323.300	999.678
64.476	13.028	1321.700	998.916
65.490	13.075	1320.603	998.281
66.505	13.168	1318.482	997.151
67.520	13.089	1318.110	996.301
68.534	13.168	1316.812	995.710
69.549	13.111	1315.490	994.279
70.563	13.061	1314.454	993.108
71.578	12.989	1313.458	991.833
72.593	13.016	1312.658	991.307
73.607	13.009	1311.948	990.639
74.622	13.017	1311.016	989.896
75.636	12.984	1310.003	988.843
76.651	13.071	1309.421	988.840
77.666	13.000	1309.550	988.425
78.680	13.059	1308.861	988.167
79.695	13.087	1307.783	987.435
80.709	13.026	1306.906	986.324
81.724	13.093	1305.813	985.812
82.739	13.121	1304.941	985.230
83.753	13.210	1304.086	985.029
84.768	13.264	1303.140	984.549
85.782	13.305	1301.880	983.755
86.797	13.293	1300.519	982.564
87.812	13.193	1299.785	981.332
88.826	13.287	1298.145	980.562
89.841	13.250	1297.144	979.500
90.855	13.269	1296.362	978.936
91.870	13.291	1295.593	978.402
92.884	13.299	1294.850	977.801
93.899	13.307	1294.072	977.172
94.914	13.316	1293.597	976.783
95.928	13.372	1292.628	976.296
96.943	13.317	1291.369	974.933
97.957	13.331	1290.223	974.062
98.972	13.235	1289.762	973.066
99.987	13.389	1288.527	972.951
101.001	13.476	1286.732	972.022
102.016	13.291	1286.524	970.693
103.030	13.360	1285.964	970.588
104.045	13.304	1284.714	969.231
105.060	13.335	1283.368	968.310
106.074	13.280	1282.019	966.884
107.089	13.144	1281.099	965.313
108.103	13.132	1279.740	964.134
109.118	13.044	1278.696	962.748
110.133	13.129	1277.171	962.009
111.147	13.177	1276.070	961.372
112.162	13.191	1274.420	960.130
113.176	13.244	1273.680	959.793
114.191	13.361	1272.486	959.485
115.206	13.286	1271.955	958.568
116.220	13.275	1270.545	957.358
117.235	13.202	1269.568	956.113
118.249	13.276	1268.162	955.398
119.264	13.176	1267.693	954.379
120.279	13.109	1266.400	952.933
121.293	13.212	1264.854	952.284
122.308	13.044	1264.609	951.047
123.322	13.071	1263.394	950.203
124.337	13.159	1262.213	949.738
125.352	13.136	1260.445	948.190
126.366	13.143	1260.014	947.821
127.381	13.234	1258.672	947.252
128.395	13.036	1258.386	945.815
129.410	13.158	1257.265	945.586
130.424	13.158	1256.750	945.119
131.439	13.194	1255.525	944.320
132.454	13.197	1253.990	943.098
133.468	13.232	1253.175	942.604
134.483	13.280	1252.492	942.279
135.497	13.300	1251.588	941.626
136.512	13.308	1250.101	940.470
137.527	13.179	1249.114	938.911
138.541	13.317	1247.167	938.147
139.556	13.247	1246.134	936.892
140.570	13.340	1245.144	936.593
141.585	13.330	1244.269	935.795
142.600	13.399	1242.846	935.034
143.614	13.494	1242.056	934.889
144.629	13.485	1240.672	933.715
145.643	13.402	1239.508	932.287
146.658	13.352	1238.241	930.970
147.673	13.407	1237.031	930.289
148.687	13.361	1235.579	928.855
149.702	13.373	1234.351	927.917
150.716	13.246	1233.439	926.441
151.731	13.295	1232.247	925.739
152.746	13.337	1230.800	924.801
153.760	13.466	1229.511	924.473
154.775	13.367	1229.243	923.634
155.789	13.422	1227.498	922.551
156.804	13.541	1226.331	922.252
157.819	13.460	1225.726	921.268
158.833	13.623	1224.727	921.342
159.848	13.527	1223.570	919.857
160.862	13.598	1222.987	919.730
161.877	13.523	1221.961	918.459
162.892	13.525	1220.285	917.130
163.906	13.420	1220.073	916.312
164.921	13.523	1219.018	916.004
165.935	13.489	1218.234	915.149
166.950	13.437	1218.045	914.636
167.964	13.512	1217.195	914.331
168.979	13.573	1216.016	913.704
169.994	13.531	1215.176	912.760
171.008	13.531	1214.668	912.299
172.023	13.567	1213.736	911.713
173.037	13.729	1212.868	911.874
174.052	13.598	1212.255	910.612
175.067	13.533	1211.268	909.434
176.081	13.589	1210.369	908.984
177.096	13.533	1209.152	907.680
178.110	13.661	1207.892	907.355
179.125	13.664	1206.352	906.135
180.140	13.665	1205.694	905.570
181.154	13.677	1204.205	904.434
182.169	13.737	1203.121	903.866
183.183	13.728	1202.251	903.086
184.198	13.733	1201.214	902.253
185.213	13.720	1199.750	901.002
186.227	13.840	1198.790	900.853
187.242	13.820	1197.721	899.859
188.256	13.898	1196.942	899.618
189.271	13.871	1195.667	898.434
190.286	13.748	1194.801	897.040
191.300	13.548	1194.315	895.514
192.315	13.587	1193.862	895.308
193.329	13.589	1193.168	894.718
194.344	13.687	1192.259	894.486
195.359	13.645	1191.386	893.526
196.373	13.843	1190.974	894.204
197.388	13.846	1190.487	893.777
198.402	13.837	1190.551	893.696
199.417	13.959	1189.616	893.570
200.432	14.044	1188.564	893.156
201.446	13.990	1188.124	892.461
202.461	13.995	1186.989	891.554
203.475	14.087	1185.612	890.936
204.490	14.063	1184.484	889.879
205.504	13.984	1183.730	888.813
206.519	14.031	1182.170	887.814
207.534	14.040	1181.344	887.164
208.548	14.035	1179.943	886.002
209.563	14.088	1179.252	885.689
210.577	13.973	1178.620	884.526
211.592	14.126	1177.697	884.569
212.607	14.144	1176.980	884.045
213.621	14.144	1176.074	883.284
214.636	14.199	1175.162	882.815
215.650	14.231	1174.222	882.201
216.665	14.180	1173.232	881.107
217.680	14.239	1172.417	880.733
218.694	14.288	1171.723	880.394
219.709	14.302	1171.058	879.887
220.723	14.268	1169.974	878.816
221.738	14.240	1169.804	878.465
222.753	14.222	1168.739	877.490
223.767	14.229	1167.934	876.843
224.782	14.309	1167.630	876.961
225.796	14.420	1166.634	876.718
226.811	14.473	1165.930	876.391
227.826	14.466	1165.168	875.705
228.840	14.262	1165.053	874.467
229.855	14.351	1164.285	874.280
230.869	14.354	1162.917	873.194
231.884	14.267	1162.312	872.204
232.899	14.266	1161.470	871.492
233.913	14.349	1160.905	871.422
234.928	14.355	1160.024	870.717
235.942	14.279	1159.474	869.833
236.957	14.363	1158.412	869.395
237.972	14.316	1157.969	868.738
238.986	14.337	1157.233	868.220
240.001	14.394	1156.190	867.659
241.015	14.416	1155.346	867.060
242.030	14.543	1154.649	867.124
243.045	14.481	1153.925	866.181
244.059	14.409	1153.366	865.311
245.074	14.489	1152.463	864.973
246.088	14.483	1151.704	864.294
247.103	14.519	1150.970	863.851
248.117	14.561	1150.327	863.512
249.132	14.663	1149.464	863.315
250.147	14.698	1149.072	863.127
251.161	14.724	1148.090	862.446
252.176	14.775	1147.209	861.970
253.190	14.812	1147.080	861.988
254.205	14.892	1146.374	861.793
255.220	14.867	1145.248	860.742
256.234	14.964	1144.863	860.875
257.249	14.992	1144.052	860.336
258.263	14.956	1143.515	859.670
259.278	14.900	1143.035	858.945
260.293	14.925	1142.692	858.741
261.307	14.923	1142.111	858.216
262.322	14.984	1141.361	857.888
263.336	14.936	1140.607	857.002
264.351	15.030	1139.682	856.712
265.366	15.113	1139.203	856.698
266.380	15.105	1138.537	856.083
267.395	15.072	1137.703	855.210
268.409	14.926	1137.145	853.972
269.424	15.003	1136.531	853.828
270.439	15.150	1135.442	853.683
271.453	15.086	1135.084	853.013
272.468	15.014	1134.243	851.937
273.482	15.020	1133.597	851.409
274.497	15.122	1133.415	851.715
275.512	15.085	1132.682	850.900
276.526	15.034	1131.612	849.763
277.541	15.064	1130.919	849.319
278.555	15.075	1130.336	848.862
279.570	15.130	1129.889	848.730
280.585	15.152	1128.602	847.799
281.599	15.164	1127.773	847.164
282.614	15.203	1126.704	846.483
283.628	15.282	1125.491	845.894
284.643	15.242	1124.742	845.053
285.657	15.214	1123.763	844.102
286.672	15.292	1123.098	843.922
287.687	15.161	1122.254	842.555
288.701	15.278	1121.363	842.400
289.716	15.216	1120.661	841.482
290.730	15.278	1119.897	841.147
291.745	15.309	1119.326	840.802
292.760	15.395	1118.864	840.808
293.774	15.309	1118.534	840.057
294.789	15.353	1117.714	839.584
295.803	15.550	1116.506	839.589
296.818	15.478	1116.232	838.950
297.833	15.440	1115.523	838.153
298.847	15.457	1114.707	837.548
299.862	15.453	1113.929	836.872
300.876	15.373	1113.566	836.127
301.891	15.520	1112.526	836.005
302.906	15.650	1111.661	835.926
303.920	15.665	1111.191	835.572
304.935	15.602	1110.714	834.827
305.949	15.633	1110.126	834.466
306.964	15.673	1109.511	834.128
307.979	15.555	1108.635	832.809
308.993	15.645	1107.652	832.443
310.008	15.630	1107.157	831.922
311.022	15.692	1106.251	831.475
312.037	15.630	1105.583	830.595
313.052	15.764	1104.496	830.365
314.066	15.685	1103.533	829.179
315.081	15.507	1102.917	827.762
316.095	15.605	1102.021	827.504
317.110	15.571	1101.360	826.764
318.125	15.664	1100.677	826.634
319.139	15.551	1100.468	825.852
320.154	15.618	1099.631	825.477
321.168	15.752	1098.219	825.004
322.183	15.681	1098.381	824.704
323.197	15.653	1097.843	824.090
324.212	15.715	1097.210	823.846
325.227	15.683	1096.590	823.147
326.241	15.670	1096.088	822.635
327.256	15.735	1095.021	822.082
328.270	15.778	1093.760	821.269
329.285	15.717	1093.035	820.357
330.300	15.797	1091.981	819.882
331.314	15.755	1091.476	819.224
332.329	15.761	1090.751	818.641
333.343	15.779	1089.529	817.736
334.358	15.839	1089.047	817.591
335.373	15.847	1088.236	816.953
336.387	16.007	1087.198	816.875
337.402	15.947	1086.594	816.059
338.416	16.043	1085.821	815.872
339.431	16.054	1085.289	815.452
340.446	15.977	1084.992	814.785
341.460	16.002	1084.571	814.515
342.475	16.086	1083.265	813.870
343.489	16.066	1082.283	812.965
344.504	16.179	1081.473	812.830
345.519	16.318	1080.459	812.664
346.533	16.165	1079.720	811.300
347.548	16.321	1078.851	811.325
348.562	16.296	1078.239	810.673
349.577	16.253	1077.536	809.866
350.592	16.057	1077.064	808.498
351.606	16.166	1076.279	808.360
352.621	16.093	1075.591	807.425
353.635	16.209	1074.939	807.417
354.650	16.262	1074.101	806.970
355.665	16.096	1073.652	805.768
356.679	16.164	1072.780	805.364
357.694	16.285	1072.557	805.704
358.708	16.221	1072.032	804.933
359.723	16.238	1071.176	804.299
360.738	16.329	1070.485	804.146
361.752	16.278	1070.220	803.631
362.767	16.360	1069.100	803.109
363.781	16.379	1068.872	802.956
364.796	16.428	1068.296	802.684
365.810	16.456	1067.570	802.205
366.825	16.387	1067.051	801.417
367.840	16.710	1066.447	802.419
368.854	16.586	1065.990	801.418
369.869	16.585	1064.877	800.505
370.883	16.502	1064.365	799.659
371.898	16.546	1063.553	799.186
372.913	16.456	1063.344	798.531
373.927	16.537	1062.545	798.247
374.942	16.607	1061.797	797.943
375.956	16.619	1061.250	797.516
376.971	16.657	1060.659	797.180
377.986	16.558	1060.720	796.688
379.000	16.732	1059.769	796.725
380.015	16.748	1059.293	796.368
381.029	16.780	1058.622	795.946
382.044	16.722	1057.804	794.988
383.059	16.789	1057.182	794.765
384.073	16.856	1056.347	794.380
385.088	16.804	1055.260	793.247
386.102	16.807	1054.283	792.461
387.117	16.743	1053.207	791.280
388.132	16.705	1052.291	790.343
389.146	16.789	1052.174	790.578
390.161	16.836	1050.922	789.788
391.175	16.759	1050.488	789.032
392.190	16.934	1049.814	789.273
393.205	16.910	1048.987	788.466
394.219	16.909	1048.273	787.858
395.234	16.837	1047.511	786.880
396.248	16.935	1046.389	786.425
397.263	16.800	1045.699	785.209
398.278	16.724	1045.039	784.291
399.292	16.831	1044.227	784.107
400.307	16.965	1043.127	783.833
401.321	16.732	1043.293	782.810
402.336	16.799	1042.482	782.444
403.350	16.848	1041.661	781.983
404.365	16.814	1041.042	781.292
405.380	16.881	1040.271	780.954
406.394	16.897	1039.309	780.235
407.409	16.966	1038.688	780.017
408.423	17.086	1038.042	780.014
409.438	17.011	1037.484	779.183
410.453	17.129	1036.856	779.182
411.467	17.110	1035.981	778.371
412.482	17.308	1035.159	778.592
413.496	17.146	1034.408	777.215
414.511	17.223	1034.409	777.499
415.526	17.212	1034.130	777.169
416.540	17.295	1033.165	776.757
417.555	17.392	1032.630	776.729
418.569	17.335	1031.977	775.906
419.584	17.348	1031.739	775.719
420.599	17.238	1031.493	774.965
421.613	103.463	1322.196	1468.866
422.628	94.708	1364.511	1468.948
