DTS Sentinel unit serial number:	SN413079Multiplexer serial number:	ORYXHardware model number:	OX4-SRSoftware version number:	ORYX F/W v4.00 Oryx Data Collector v3.7.2.0data status	okinstallation	princeton_trtdifferential loss correction	single-endedforward channel	channel 2reverse channel	N/Adate	2019/09/18time	19:03:35forward acquisition time	60.00reverse acquisition time	0.00gamma	496.2192k internal	0.2322k external	0.2322temperature offset calibration	1.0019default loss term (dB/km)	0.3790temperature slope calibration	1.0000multiplexer offset coefficient	1.0000multiplexer slope coefficient	1.0000fibre end	0.00T internal ref (°C)	35.70T ext. ref 1 (°C)	0.93T ext. ref 2 (°C)	24.84length (m)	temperature (°C)	Stokes	anti-Stokes-747.200	-22.303	0.096	-0.059
-746.185	-144.180	0.077	-0.007
-745.171	-60.402	0.177	-0.076
-744.156	-41.829	-0.341	0.177
-743.142	-119.551	-0.229	-0.040
-742.127	-200.000	-0.010	0.510
-741.112	349.083	0.028	-0.056
-740.098	-200.000	-0.038	0.251
-739.083	-101.887	-0.261	-0.064
-738.069	-118.709	-0.048	0.009
-737.054	-200.000	-0.008	-0.251
-736.039	504.242	-0.171	-0.400
-735.025	203.259	0.005	-0.008
-734.010	-40.164	-0.224	-0.118
-732.996	-200.000	-0.037	-0.165
-731.981	100.266	-0.156	-0.183
-730.966	-77.501	-0.258	-0.090
-729.952	-130.449	-0.192	-0.026
-728.937	148.150	-0.163	-0.222
-727.923	-21.798	0.277	0.170
-726.908	94.528	-0.144	0.165
-725.894	-16.522	0.401	-0.256
-724.879	-200.000	0.035	0.160
-723.864	2.369	-0.258	0.188
-722.850	-200.000	-0.031	0.150
-721.835	-125.569	0.421	0.065
-720.821	-200.000	0.073	0.343
-719.806	-15.478	0.195	0.126
-718.791	205.810	-0.173	-0.272
-717.777	125.047	-0.188	0.239
-716.762	548.694	0.181	-0.438
-715.748	26.444	-0.351	0.296
-714.733	-200.000	-0.031	0.261
-713.718	-118.773	-0.147	0.026
-712.704	800.000	-0.008	-0.030
-711.689	-109.342	0.252	0.054
-710.675	-43.444	0.213	-0.109
-709.660	-9.936	-0.388	0.260
-708.645	367.732	-0.173	0.353
-707.631	-90.964	-0.275	0.080
-706.616	-200.000	0.026	0.215
-705.602	-53.013	-0.063	-0.029
-704.587	333.995	-0.137	-0.268
-703.572	304.994	-0.089	-0.167
-702.558	284.448	-0.057	-0.103
-701.543	320.053	-0.082	-0.157
-700.529	-121.380	0.205	0.034
-699.514	-103.648	0.330	0.078
-698.499	139.349	0.182	-0.241
-697.485	-200.000	0.026	0.219
-696.470	-200.000	0.050	-0.479
-695.456	-65.186	0.117	0.047
-694.441	-200.000	0.002	0.058
-693.426	-105.517	-0.122	0.028
-692.412	-200.000	0.015	0.157
-691.397	-4.127	0.179	0.125
-690.383	32.104	-0.311	0.270
-689.368	299.031	0.130	-0.241
-688.354	800.000	-0.057	0.179
-687.339	-36.602	0.349	-0.189
-686.324	-11.264	-0.396	-0.263
-685.310	-10.048	0.321	-0.215
-684.295	-200.000	-0.057	0.317
-683.281	356.402	0.063	0.126
-682.266	-200.000	0.003	-0.450
-681.251	-120.675	0.292	0.050
-680.237	577.482	0.037	0.091
-679.222	499.228	0.083	-0.192
-678.208	-200.000	-0.008	0.124
-677.193	320.216	0.007	-0.014
-676.178	800.000	-0.031	0.134
-675.164	43.957	-0.118	-0.109
-674.149	800.000	0.097	-0.284
-673.135	-105.585	-0.181	-0.041
-672.120	-200.000	0.005	-0.120
-671.105	-200.000	-0.064	-0.366
-670.091	-200.000	-0.026	-0.322
-669.076	-9.616	-0.076	-0.051
-668.062	-4.920	-0.193	0.134
-667.047	-32.279	0.040	-0.023
-666.032	-15.841	0.232	-0.149
-665.018	-200.000	-0.045	-0.200
-664.003	164.785	0.191	-0.272
-662.989	-200.000	-0.006	-0.050
-661.974	-118.675	-0.132	-0.024
-660.959	-96.710	-0.281	0.075
-659.945	-200.000	-0.029	-0.474
-658.930	-200.000	-0.049	0.289
-657.916	-89.271	0.221	-0.066
-656.901	387.139	0.108	-0.225
-655.886	53.184	-0.108	0.105
-654.872	1.501	0.159	0.115
-653.857	-200.000	0.052	-0.264
-652.843	149.596	0.292	-0.398
-651.828	-35.142	0.059	0.032
-650.814	33.418	0.197	-0.172
-649.799	4.843	-0.104	0.077
-648.784	445.590	-0.108	0.240
-647.770	-171.069	0.058	0.002
-646.755	-200.000	-0.006	0.187
-645.741	-167.097	-0.234	-0.010
-644.726	-200.000	0.031	0.262
-643.711	-40.696	0.113	-0.059
-642.697	800.000	-0.045	0.158
-641.682	1.737	0.221	-0.160
-640.668	-1.161	0.192	0.137
-639.653	-48.548	-0.437	0.211
-638.638	61.705	-0.099	-0.100
-637.624	104.455	-0.051	0.060
-636.609	-144.794	0.147	0.014
-635.595	540.102	-0.134	0.320
-634.580	-99.667	0.147	0.037
-633.565	-200.000	-0.053	-0.355
-632.551	34.469	-0.188	0.165
-631.536	97.704	-0.230	0.266
-630.522	-67.470	0.243	0.096
-629.507	-108.433	-0.328	-0.071
-628.492	150.491	0.113	-0.154
-627.478	-8.929	-0.231	-0.155
-626.463	14.253	-0.123	0.097
-625.449	-4.931	-0.310	-0.215
-624.434	800.000	-0.042	0.120
-623.419	-156.910	-0.307	0.019
-622.405	-163.069	0.351	0.017
-621.390	-54.594	-0.144	0.066
-620.376	800.000	0.047	-0.140
-619.361	141.881	0.073	0.097
-618.346	-76.425	0.220	-0.078
-617.332	-184.634	-0.106	-0.002
-616.317	-52.823	-0.265	0.123
-615.303	-44.457	0.214	0.108
-614.288	-34.446	0.189	-0.104
-613.273	-200.000	-0.036	-0.414
-612.259	168.135	0.040	-0.057
-611.244	253.338	0.079	0.136
-610.230	-24.188	-0.156	0.094
-609.215	-45.659	0.159	-0.079
-608.201	200.482	-0.169	0.261
-607.186	-111.054	-0.401	-0.083
-606.171	-71.241	0.119	-0.045
-605.157	5.588	0.202	0.150
-604.142	-88.034	0.163	0.049
-603.128	129.419	-0.073	0.094
-602.113	-72.037	0.165	-0.061
-601.098	239.927	-0.121	0.202
-600.084	-200.000	0.012	-0.571
-599.069	-104.893	-0.215	0.050
-598.055	-132.306	0.149	0.019
-597.040	-47.597	0.145	-0.071
-596.025	218.983	-0.050	-0.081
-595.011	196.361	0.137	-0.209
-593.996	-117.803	0.261	0.047
-592.982	800.000	-0.108	-0.331
-591.967	800.000	0.077	-0.226
-590.952	-200.000	0.053	0.605
-589.938	150.417	-0.153	0.209
-588.923	585.310	-0.153	-0.378
-587.909	-4.639	0.099	0.068
-586.894	141.692	-0.163	-0.216
-585.879	-93.911	0.346	-0.096
-584.865	-200.000	-0.012	0.189
-583.850	110.870	0.237	0.286
-582.836	265.577	-0.040	-0.070
-581.821	-84.111	0.089	0.028
-580.806	-83.433	0.076	0.025
-579.792	186.891	-0.285	-0.426
-578.777	-162.632	0.182	-0.009
-577.763	-200.000	0.015	0.233
-576.748	122.628	-0.085	0.106
-575.733	-24.213	0.281	-0.168
-574.719	-10.655	0.223	-0.148
-573.704	-200.000	-0.023	-0.376
-572.690	-200.000	-0.013	-0.157
-571.675	-44.463	0.316	0.159
-570.661	-200.000	-0.003	0.244
-569.646	62.258	-0.174	0.174
-568.631	-73.448	-0.142	-0.052
-567.617	-60.769	0.119	-0.050
-566.602	35.392	0.385	0.339
-565.588	-142.731	-0.221	0.022
-564.573	502.246	0.175	0.406
-563.558	-200.000	0.007	0.235
-562.544	800.000	0.090	0.329
-561.529	-80.694	-0.126	-0.042
-560.515	-25.573	0.114	0.067
-559.500	-173.268	0.057	0.002
-558.485	58.320	0.160	0.158
-557.471	662.671	0.088	-0.228
-556.456	-76.352	0.133	0.047
-555.442	-153.395	0.046	0.003
-554.427	139.055	0.227	0.299
-553.412	97.720	0.146	-0.169
-552.398	-200.000	-0.021	0.151
-551.383	-200.000	-0.002	-0.131
-550.369	143.507	-0.051	0.068
-549.354	-200.000	0.014	0.151
-548.339	124.690	0.210	-0.265
-547.325	209.374	-0.202	-0.317
-546.310	-103.782	0.178	-0.042
-545.296	-62.962	0.380	-0.158
-544.281	-126.073	-0.146	0.022
-543.266	-70.263	0.116	-0.044
-542.252	-200.000	-0.013	0.088
-541.237	132.240	0.149	0.192
-540.223	76.602	-0.087	-0.093
-539.208	800.000	0.082	0.238
-538.193	-129.456	-0.273	0.038
-537.179	60.787	0.206	0.205
-536.164	10.754	-0.178	0.136
-535.150	800.000	0.077	0.333
-534.135	-109.110	-0.398	0.085
-533.121	-145.297	-0.308	-0.028
-532.106	-80.302	0.246	0.083
-531.091	-200.000	0.073	-0.374
-530.077	-200.000	0.016	-0.213
-529.062	-46.675	-0.349	0.171
-528.048	9.710	-0.218	-0.166
-527.033	-200.000	0.043	-0.279
-526.018	52.907	0.095	0.091
-525.004	800.000	0.055	0.156
-523.989	106.926	-0.292	0.348
-522.975	-155.361	0.214	0.014
-521.960	421.219	-0.094	-0.202
-520.945	8.252	-0.209	0.158
-519.931	168.519	-0.054	-0.077
-518.916	65.687	-0.073	-0.074
-517.902	-200.000	0.014	-0.138
-516.887	42.302	-0.137	-0.124
-515.872	-200.000	-0.014	-0.115
-514.858	800.000	-0.040	0.171
-513.843	-110.015	0.068	0.014
-512.829	397.125	0.153	-0.319
-511.814	-200.000	0.056	-0.325
-510.799	83.607	0.098	-0.107
-509.785	-200.000	0.047	-0.254
-508.770	168.801	0.137	0.195
-507.756	-66.248	0.237	-0.094
-506.741	-73.672	-0.067	0.024
-505.726	408.679	0.105	0.223
-504.712	-200.000	-0.021	0.126
-503.697	-200.000	-0.026	-0.202
-502.683	698.281	0.029	0.076
-501.668	-128.426	-0.269	0.038
-500.653	-129.444	0.174	0.024
-499.639	39.481	0.050	-0.045
-498.624	343.996	-0.067	-0.131
-497.610	800.000	-0.065	-0.222
-496.595	-122.528	-0.344	0.056
-495.581	163.756	0.084	-0.118
-494.566	185.376	-0.187	0.278
-493.551	473.429	-0.139	0.314
-492.537	800.000	0.079	-0.219
-491.522	25.692	0.141	0.118
-490.508	-200.000	-0.008	0.155
-489.493	271.411	-0.072	-0.127
-488.478	-92.806	0.189	0.053
-487.464	59.875	0.130	0.129
-486.449	-36.053	0.453	0.245
-485.435	661.724	0.133	0.342
-484.420	-34.466	0.171	0.094
-483.405	-200.000	-0.029	-0.283
-482.391	-200.000	0.003	0.027
-481.376	-58.335	0.171	-0.074
-480.362	-74.086	0.142	-0.052
-479.347	37.548	-0.163	-0.144
-478.332	241.386	-0.139	0.232
-477.318	239.821	-0.094	-0.156
-476.303	-73.900	0.190	-0.069
-475.289	800.000	0.057	-0.200
-474.274	307.175	0.036	-0.067
-473.259	-57.417	-0.248	0.109
-472.245	422.686	-0.063	0.135
-471.230	-182.921	-0.028	0.001
-470.216	800.000	-0.080	-0.243
-469.201	800.000	0.100	0.278
-468.186	800.000	-0.024	-0.071
-467.172	143.019	-0.114	0.151
-466.157	-107.894	-0.229	-0.050
-465.143	-200.000	0.051	-0.248
-464.128	-200.000	-0.012	-0.485
-463.113	-100.072	-0.245	0.061
-462.099	60.472	-0.076	0.075
-461.084	60.599	-0.246	-0.243
-460.070	236.386	0.086	-0.143
-459.055	-200.000	0.044	-0.456
-458.040	-8.863	0.099	0.066
-457.026	-200.000	-0.064	-0.293
-456.011	-44.649	-0.250	-0.125
-454.997	-132.425	0.248	-0.032
-453.982	91.921	0.271	-0.304
-452.968	-140.388	0.387	-0.040
-451.953	200.730	0.134	-0.205
-450.938	725.326	0.068	-0.182
-449.924	800.000	-0.079	-0.238
-448.909	-200.000	0.037	0.177
-447.895	-200.000	0.020	0.341
-446.880	-90.296	0.228	-0.066
-445.865	81.056	-0.141	-0.152
-444.851	581.997	-0.130	-0.318
-443.836	216.944	0.098	0.156
-442.822	293.183	0.080	-0.145
-441.807	-200.000	-0.043	-0.287
-440.792	800.000	0.047	-0.146
-439.778	-200.000	0.005	-0.200
-438.763	276.561	-0.094	0.167
-437.749	-200.000	0.013	0.194
-436.734	44.160	0.239	0.218
-435.719	369.142	-0.203	-0.409
-434.705	-200.000	0.004	0.130
-433.690	-74.665	0.166	-0.060
-432.676	506.185	0.037	-0.085
-431.661	-63.393	-0.070	-0.029
-430.646	56.503	-0.111	0.108
-429.632	-64.252	0.124	0.050
-428.617	-65.163	-0.191	-0.077
-427.603	102.341	0.079	0.092
-426.588	800.000	0.046	-0.172
-425.573	90.767	0.182	0.204
-424.559	-200.000	-0.014	-0.183
-423.544	-200.000	-0.015	0.190
-422.530	672.609	-0.055	-0.142
-421.515	800.000	-0.102	-0.389
-420.500	-17.672	-0.271	-0.170
-419.486	-171.538	-0.064	-0.002
-418.471	667.943	-0.016	-0.041
-417.457	-147.918	-0.165	-0.014
-416.442	133.055	-0.086	0.111
-415.428	-28.860	0.120	-0.069
-414.413	-200.000	0.046	-0.373
-413.398	143.547	-0.172	-0.229
-412.384	233.822	-0.128	-0.210
-411.369	-51.913	0.093	-0.043
-410.355	-59.690	0.176	-0.075
-409.340	777.097	0.065	0.178
-408.325	-2.636	-0.108	-0.075
-407.311	-68.905	0.146	-0.056
-406.296	234.509	0.155	0.255
-405.282	-140.804	-0.130	-0.013
-404.267	-31.042	-0.206	0.116
-403.252	-187.418	0.208	0.003
-402.238	-200.000	-0.285	-0.001
-401.223	76.582	0.074	-0.079
-400.209	579.954	0.084	-0.205
-399.194	-200.000	-0.014	0.198
-398.179	-200.000	-0.032	0.328
-397.165	-63.791	-0.043	-0.018
-396.150	-200.000	0.023	0.321
-395.136	-94.442	-0.206	0.056
-394.121	800.000	0.083	-0.248
-393.106	800.000	0.065	0.210
-392.092	255.565	-0.120	-0.204
-391.077	232.586	-0.066	-0.108
-390.063	-87.619	0.163	0.049
-389.048	-62.262	-0.138	-0.057
-388.033	415.178	0.115	-0.243
-387.019	-200.000	-0.006	-0.293
-386.004	-200.000	-0.001	0.040
-384.990	20.702	-0.331	-0.267
-383.975	-47.838	0.140	-0.068
-382.960	50.465	0.103	-0.097
-381.946	-200.000	-0.019	0.249
-380.931	-117.374	-0.287	0.052
-379.917	498.022	0.094	0.214
-378.902	64.023	0.145	-0.145
-377.888	-174.824	-0.204	-0.006
-376.873	-63.514	-0.350	-0.143
-375.858	158.428	0.130	-0.179
-374.844	-66.672	0.367	-0.145
-373.829	-31.814	0.220	0.123
-372.815	-200.000	0.054	0.237
-371.800	69.743	0.035	-0.036
-370.785	-200.000	-0.011	-0.255
-369.771	-200.000	-0.014	-0.104
-368.756	-11.196	0.195	-0.128
-367.742	73.874	-0.135	0.141
-366.727	-63.430	0.077	0.032
-365.712	48.543	-0.134	-0.125
-364.698	168.039	0.246	-0.348
-363.683	7.328	-0.127	-0.094
-362.669	-57.336	0.158	-0.069
-361.654	-34.555	-0.153	-0.083
-360.639	72.663	0.017	-0.018
-359.625	-106.689	0.385	0.085
-358.610	-200.000	-0.005	0.139
-357.596	-82.998	0.259	0.083
-356.581	-87.883	-0.267	-0.080
-355.566	151.188	-0.002	0.003
-354.552	200.096	0.148	0.226
-353.537	165.081	0.125	0.176
-352.523	-104.801	0.280	0.064
-351.508	337.180	-0.166	-0.320
-350.493	180.698	0.043	-0.062
-349.479	-200.000	0.005	-0.047
-348.464	37.221	0.068	-0.060
-347.450	-154.116	0.340	-0.023
-346.435	-200.000	-0.024	-0.111
-345.420	-200.000	-0.001	-0.025
-344.406	-11.222	0.182	-0.119
-343.391	-10.349	0.309	-0.204
-342.377	-36.325	-0.245	0.131
-341.362	86.288	-0.118	0.129
-340.348	-200.000	0.024	-0.192
-339.333	-138.465	0.382	-0.042
-338.318	-200.000	0.018	-0.095
-337.304	301.599	0.212	0.389
-336.289	-27.214	0.256	0.148
-335.275	182.465	-0.249	-0.365
-334.260	800.000	0.055	-0.165
-333.245	800.000	-0.028	-0.094
-332.231	151.568	-0.381	0.516
-331.216	-200.000	-0.001	-0.011
-330.202	-200.000	-0.006	0.093
-329.187	-66.482	-0.124	-0.049
-328.172	-149.042	-0.239	0.019
-327.158	-115.773	0.153	0.029
-326.143	-37.373	-0.285	-0.151
-325.129	118.971	0.220	0.270
-324.114	-58.364	-0.269	0.116
-323.099	314.968	-0.114	0.213
-322.085	-16.432	-0.171	-0.108
-321.070	21.417	0.295	-0.238
-320.056	-75.155	-0.092	-0.033
-319.041	197.751	-0.101	0.153
-318.026	-149.306	-0.283	-0.022
-317.012	800.000	-0.093	0.259
-315.997	-200.000	-0.034	-0.173
-314.983	-122.441	-0.381	0.062
-313.968	-128.343	-0.163	0.023
-312.953	457.085	0.155	0.343
-311.939	-158.095	-0.242	-0.014
-310.924	-41.746	0.178	0.091
-309.910	-82.883	0.162	0.052
-308.895	19.516	0.267	0.213
-307.880	-10.674	0.365	0.240
-306.866	188.760	0.075	-0.111
-305.851	-200.000	0.028	0.204
-304.837	107.602	0.074	-0.088
-303.822	-200.000	-0.035	-0.286
-302.807	88.949	0.317	-0.350
-301.793	-2.378	0.297	-0.207
-300.778	-47.181	-0.085	-0.041
-299.764	52.489	-0.138	0.131
-298.749	232.480	-0.069	0.112
-297.735	800.000	-0.112	-0.316
-296.720	25.250	0.111	-0.092
-295.705	34.628	-0.230	-0.200
-294.691	800.000	0.117	0.477
-293.676	-51.796	-0.092	0.042
-292.662	666.612	0.022	-0.056
-291.647	579.876	0.086	-0.208
-290.632	27.414	0.068	0.057
-289.618	-200.000	-0.034	0.262
-288.603	-11.133	0.134	0.088
-287.589	800.000	0.069	-0.189
-286.574	-144.656	0.113	0.010
-285.559	-161.543	-0.133	0.007
-284.545	98.872	-0.196	-0.224
-283.530	-142.305	0.202	0.020
-282.516	800.000	-0.070	-0.233
-281.501	263.538	0.025	-0.043
-280.486	-75.565	-0.130	-0.046
-279.472	800.000	0.073	-0.272
-278.457	147.674	0.092	-0.123
-277.443	-37.084	0.085	-0.045
-276.428	-82.275	0.060	-0.019
-275.413	-114.195	0.128	-0.025
-274.399	-200.000	0.113	-0.498
-273.384	-200.000	-0.087	0.514
-272.370	66.682	-0.116	-0.117
-271.355	416.409	-0.081	0.171
-270.340	-97.552	0.220	0.057
-269.326	30.886	-0.244	0.207
-268.311	-200.000	-0.021	0.226
-267.297	356.846	0.061	0.121
-266.282	800.000	0.058	0.208
-265.267	496.750	0.155	0.353
-264.253	-200.000	-0.068	0.395
-263.238	-200.000	0.018	0.264
-262.224	288.079	-0.078	0.139
-261.209	-79.977	0.190	-0.063
-260.195	-77.259	0.215	-0.074
-259.180	-76.209	-0.241	0.084
-258.165	318.875	-0.296	0.556
-257.151	-120.290	-0.046	-0.008
-256.136	800.000	0.035	-0.101
-255.122	44.513	-0.207	0.188
-254.107	11.536	0.251	0.191
-253.092	800.000	0.118	0.432
-252.078	160.744	0.218	-0.301
-251.063	136.475	-0.067	-0.087
-250.049	97.914	0.136	-0.155
-249.034	297.512	-0.200	-0.364
-248.019	75.961	0.335	-0.351
-247.005	154.288	-0.168	0.229
-245.990	-200.000	-0.031	-0.152
-244.976	-161.846	-0.064	0.003
-243.961	429.831	0.157	0.336
-242.946	9.151	0.165	-0.124
-241.932	-200.000	-0.005	-0.131
-240.917	-200.000	0.010	0.064
-239.903	266.299	0.102	0.177
-238.888	204.689	0.234	0.360
-237.873	206.303	0.037	0.057
-236.859	19.997	-0.267	-0.213
-235.844	-80.700	-0.109	-0.036
-234.830	-128.595	-0.057	-0.008
-233.815	-67.968	0.030	0.011
-232.800	-200.000	0.035	0.299
-231.786	-200.000	0.049	0.254
-230.771	800.000	0.036	-0.123
-229.757	42.992	0.131	-0.118
-228.742	-55.130	-0.495	-0.220
-227.727	23.907	-0.056	-0.045
-226.713	732.614	-0.046	-0.122
-225.698	-200.000	0.003	-0.236
-224.684	-14.497	0.256	0.163
-223.669	189.528	-0.014	0.020
-222.655	21.849	-0.319	0.258
-221.640	378.689	-0.100	0.202
-220.625	800.000	-0.005	0.021
-219.611	-44.803	-0.479	-0.236
-218.596	-104.356	0.397	-0.091
-217.582	611.139	-0.079	-0.196
-216.567	-200.000	-0.036	-0.434
-215.552	191.912	-0.068	-0.102
-214.538	15.508	-0.095	0.074
-213.523	-200.000	0.031	0.270
-212.509	31.846	-0.325	-0.277
-211.494	-79.647	-0.341	-0.114
-210.479	160.106	0.037	-0.050
-209.465	576.139	-0.181	0.437
-208.450	-95.657	0.167	0.044
-207.436	-200.000	0.004	-0.144
-206.421	600.424	0.047	-0.117
-205.406	100.357	-0.097	-0.112
-204.392	-9.964	-0.184	0.121
-203.377	-186.567	0.057	0.001
-202.363	65.733	-0.179	0.179
-201.348	148.425	-0.139	0.185
-200.333	41.269	-0.088	0.078
-199.319	56.067	0.221	-0.212
-198.304	51.943	-0.127	-0.119
-197.290	-56.894	-0.182	-0.080
-196.275	-48.722	-0.302	0.143
-195.260	146.730	0.100	0.133
-194.246	-18.261	-0.033	-0.021
-193.231	-97.912	0.145	0.037
-192.217	282.103	0.068	-0.120
-191.202	800.000	-0.031	-0.127
-190.187	-135.999	-0.394	-0.046
-189.173	-67.496	-0.233	0.090
-188.158	-0.292	0.243	-0.171
-187.144	800.000	0.036	0.144
-186.129	-147.427	0.161	0.013
-185.114	647.924	0.050	0.126
-184.100	-20.740	-0.205	0.124
-183.085	94.950	-0.137	0.154
-182.071	499.720	0.026	0.060
-181.056	800.000	0.034	0.114
-180.042	-136.191	0.047	0.005
-179.027	-107.948	-0.254	-0.055
-178.012	-200.000	-0.070	0.310
-176.998	-165.927	0.268	-0.011
-175.983	-78.143	-0.202	-0.069
-174.969	175.214	-0.333	0.477
-173.954	-76.373	-0.086	0.030
-172.939	-135.518	0.045	-0.005
-171.925	-200.000	-0.010	0.160
-170.910	313.448	0.079	0.148
-169.896	20.413	0.100	-0.080
-168.881	-92.056	-0.115	0.032
-167.866	73.095	-0.277	0.286
-166.852	-200.000	0.019	0.118
-165.837	-200.000	-0.011	0.066
-164.823	37.981	-0.459	-0.403
-163.808	800.000	-0.096	0.386
-162.793	800.000	0.111	0.343
-161.779	800.000	0.045	0.126
-160.764	314.280	-0.061	0.113
-159.750	-44.835	-0.199	0.098
-158.735	-200.000	-0.029	-0.193
-157.720	25.597	0.024	-0.019
-156.706	-28.184	0.236	0.135
-155.691	-58.383	0.173	-0.074
-154.677	-200.000	0.040	-0.299
-153.662	373.794	-0.056	0.113
-152.647	35.403	0.168	0.146
-151.633	-33.389	0.215	-0.117
-150.618	800.000	-0.019	-0.069
-149.604	113.077	-0.234	0.280
-148.589	638.769	0.233	0.586
-147.574	-88.039	0.083	0.025
-146.560	76.843	0.107	-0.112
-145.545	3.416	-0.083	0.060
-144.531	-71.237	0.301	0.111
-143.516	-200.000	0.010	0.277
-142.502	-122.524	0.156	0.025
-141.487	-16.828	-0.187	0.117
-140.472	800.000	0.084	-0.231
-139.458	-143.683	-0.367	0.034
-138.443	-152.904	0.325	-0.023
-137.429	-13.249	0.446	-0.286
-136.414	629.224	0.037	0.093
-135.399	-97.572	-0.276	-0.071
-134.385	-75.361	-0.127	-0.045
-133.370	32.360	-0.125	0.106
-132.356	800.000	0.060	0.240
-131.341	-15.303	0.172	0.109
-130.326	36.217	0.166	-0.144
-129.312	109.777	-0.098	0.116
-128.297	800.000	-0.017	0.053
-127.283	800.000	0.089	0.362
-126.268	284.306	-0.063	-0.113
-125.253	96.469	0.078	-0.088
-124.239	-75.864	0.103	-0.036
-123.224	6.222	0.040	0.029
-122.210	-95.921	-0.235	-0.062
-121.195	-86.885	-0.063	-0.019
-120.180	127.435	-0.039	0.049
-119.166	-110.044	-0.199	-0.041
-118.151	61.327	0.182	0.179
-117.137	137.531	-0.067	0.087
-116.122	-2.982	-0.204	-0.140
-115.107	113.039	-0.168	-0.200
-114.093	280.041	-0.059	0.104
-113.078	68.559	-0.263	-0.266
-112.064	-200.000	0.025	-0.180
-111.049	-104.247	-0.273	-0.062
-110.034	43.444	-0.339	0.306
-109.020	13.586	0.175	-0.134
-108.005	259.707	0.102	-0.174
-106.991	88.960	-0.071	-0.077
-105.976	592.942	0.043	0.105
-104.962	-200.000	-0.034	0.157
-103.947	800.000	0.035	0.122
-102.932	-86.209	-0.256	0.078
-101.918	-2.146	0.234	0.162
-100.903	68.073	0.181	0.183
-99.889	-60.621	-0.171	0.071
-98.874	215.496	0.092	0.143
-97.859	-2.551	-0.053	-0.036
-96.845	800.000	0.164	-0.477
-95.830	442.881	0.052	0.113
-94.816	-112.697	0.207	0.041
-93.801	88.020	0.177	-0.194
-92.786	-21.055	0.279	0.168
-91.772	-200.000	-0.013	-0.179
-90.757	-94.863	0.158	-0.042
-89.743	109.879	0.185	0.219
-88.728	-66.979	0.239	-0.093
-87.713	-188.329	0.114	-0.001
-86.699	-63.030	0.191	-0.078
-85.684	-52.063	-0.152	0.070
-84.670	-70.402	-0.067	-0.025
-83.655	-70.829	0.214	-0.080
-82.640	-200.000	0.015	0.376
-81.626	-33.480	-0.309	-0.168
-80.611	83.076	0.256	-0.274
-79.597	-139.692	0.259	0.027
-78.582	800.000	0.082	-0.252
-77.567	-200.000	-0.020	-0.103
-76.553	-200.000	0.014	-0.134
-75.538	656.576	0.044	0.111
-74.524	-80.253	0.334	-0.110
-73.509	96.773	0.078	0.088
-72.494	517.444	-0.155	0.357
-71.480	-200.000	0.015	-0.095
-70.465	-200.000	0.029	-0.327
-69.451	30.558	0.042	0.035
-68.436	-200.000	-0.016	0.144
-67.422	22.710	0.230	0.186
-66.407	-16.820	0.139	-0.087
-65.392	-200.000	0.001	0.005
-64.378	-67.638	-0.114	-0.044
-63.363	24.362	0.249	-0.202
-62.349	800.000	-0.108	-0.319
-61.334	102.543	-1.047	-1.205
-60.319	3.502	0.473	0.339
-59.305	-200.000	-0.049	-0.627
-58.290	303.915	0.550	1.003
-57.276	332.161	0.719	1.364
-56.261	-200.000	95.966	564.057
-55.246	545.906	1385.706	3257.466
-54.232	153.481	2592.900	3491.069
-53.217	107.865	2307.873	2703.282
-52.203	45.250	1927.164	1747.235
-51.188	39.093	1716.936	1509.469
-50.173	36.292	1672.163	1449.054
-49.159	52.963	1718.256	1616.137
-48.144	56.280	1735.752	1657.728
-47.130	38.703	1694.892	1486.891
-46.115	35.914	1679.735	1452.532
-45.100	35.666	1674.842	1446.373
-44.086	35.653	1672.214	1443.948
-43.071	35.540	1669.899	1441.044
-42.057	35.585	1666.962	1438.793
-41.042	35.594	1665.439	1437.491
-40.027	35.675	1662.599	1435.581
-39.013	35.489	1661.223	1432.948
-37.998	35.618	1659.017	1431.950
-36.984	35.595	1657.876	1430.742
-35.969	35.677	1656.380	1429.999
-34.954	35.698	1654.681	1428.634
-33.940	35.784	1652.692	1427.496
-32.925	35.678	1651.356	1425.501
-31.911	35.673	1649.505	1423.812
-30.896	35.675	1647.555	1422.082
-29.881	35.668	1645.748	1420.416
-28.867	35.621	1644.408	1418.860
-27.852	35.629	1642.839	1417.511
-26.838	35.612	1641.692	1416.337
-25.823	35.665	1640.438	1415.586
-24.809	35.702	1638.723	1414.327
-23.794	35.728	1637.329	1413.254
-22.779	35.793	1635.319	1411.942
-21.765	35.748	1633.897	1410.331
-20.750	35.797	1632.259	1409.215
-19.736	35.753	1631.487	1408.172
-18.721	35.749	1629.803	1406.636
-17.706	35.767	1628.061	1405.206
-16.692	35.739	1626.278	1403.407
-15.677	35.699	1625.153	1402.087
-14.663	35.814	1623.645	1401.567
-13.648	35.804	1622.496	1400.452
-12.633	35.740	1620.929	1398.576
-11.619	35.705	1619.617	1397.130
-10.604	35.747	1617.828	1395.844
-9.590	35.808	1616.254	1394.866
-8.575	35.776	1614.925	1393.438
-7.560	35.703	1614.363	1392.363
-6.546	35.754	1612.858	1391.382
-5.531	35.749	1612.084	1390.626
-4.517	35.735	1611.028	1389.558
-3.502	35.669	1609.872	1388.024
-2.487	35.897	1607.810	1387.840
-1.473	34.994	1594.841	1370.129
-0.458	30.388	1571.061	1317.063
0.556	23.498	1566.057	1263.395
1.571	19.575	1586.271	1251.224
2.586	18.364	1597.977	1251.502
3.600	16.542	1546.124	1197.895
4.615	9.649	1438.225	1068.639
5.629	2.524	1373.016	974.867
6.644	1.041	1364.290	959.200
7.659	0.941	1362.907	957.509
8.673	0.886	1361.904	956.374
9.688	0.852	1360.675	955.211
10.702	0.630	1357.325	951.375
11.717	3.586	1362.085	973.292
12.731	11.188	1373.213	1029.336
13.746	16.619	1380.607	1069.195
14.761	17.546	1381.019	1075.274
15.775	16.898	1378.899	1069.441
16.790	15.793	1376.588	1060.592
17.804	15.013	1374.186	1053.743
18.819	14.672	1372.654	1050.326
19.834	14.418	1371.158	1047.491
20.848	14.109	1369.877	1044.483
21.863	13.898	1368.598	1042.092
22.877	13.754	1367.315	1040.118
23.892	13.634	1366.450	1038.613
24.907	13.606	1365.908	1037.934
25.921	13.597	1365.064	1037.145
26.936	13.729	1363.705	1036.850
27.950	13.679	1363.110	1035.993
28.965	13.825	1361.585	1035.651
29.980	13.923	1360.616	1035.433
30.994	13.921	1360.045	1034.895
32.009	13.945	1359.169	1034.288
33.023	13.830	1358.344	1032.849
34.038	14.003	1356.389	1032.348
35.053	13.755	1356.003	1030.423
36.067	13.743	1355.046	1029.532
37.082	13.803	1354.030	1029.043
38.096	13.799	1353.412	1028.457
39.111	13.820	1352.298	1027.649
40.126	13.797	1351.167	1026.557
41.140	13.664	1350.510	1025.141
42.155	13.773	1349.894	1025.256
43.169	13.606	1350.355	1024.484
44.184	13.640	1349.982	1024.318
45.199	13.734	1349.477	1024.431
46.213	13.751	1348.853	1023.968
47.228	13.786	1347.471	1023.042
48.242	13.721	1346.770	1022.022
49.257	13.774	1345.035	1020.937
50.271	13.750	1343.549	1019.571
51.286	13.719	1342.379	1018.404
52.301	13.758	1341.123	1017.599
53.315	13.706	1340.058	1016.387
54.330	13.766	1339.432	1016.191
55.344	13.767	1337.965	1014.990
56.359	13.655	1336.912	1013.419
57.374	13.698	1336.403	1013.205
58.388	13.760	1335.230	1012.608
59.403	13.598	1334.982	1011.337
60.417	13.665	1334.180	1011.050
61.432	13.608	1333.200	1009.873
62.447	13.600	1332.058	1008.866
63.461	13.528	1331.351	1007.806
64.476	13.541	1329.963	1006.742
65.490	13.598	1328.880	1006.179
66.505	13.531	1327.338	1004.516
67.520	13.630	1325.710	1003.798
68.534	13.684	1324.804	1003.348
69.549	13.659	1323.722	1002.290
70.563	13.663	1322.627	1001.397
71.578	13.536	1321.968	1000.043
72.593	13.571	1320.768	999.253
73.607	13.505	1320.176	998.320
74.622	13.580	1319.113	997.880
75.636	13.558	1318.575	997.252
76.651	13.470	1318.276	996.412
77.666	13.513	1317.710	996.152
78.680	13.568	1316.576	995.536
79.695	13.592	1315.740	994.963
80.709	13.579	1314.930	994.182
81.724	13.583	1314.204	993.572
82.739	13.762	1312.764	993.464
83.753	13.820	1311.636	992.873
84.768	13.756	1311.133	992.020
85.782	13.728	1309.753	990.719
86.797	13.780	1308.378	989.905
87.812	13.596	1307.492	988.049
88.826	13.723	1306.185	987.732
89.841	13.738	1305.601	987.292
90.855	13.731	1304.570	986.384
91.870	13.766	1303.428	985.639
92.884	13.757	1302.544	984.830
93.899	13.840	1302.081	984.882
94.914	13.924	1301.103	984.556
95.928	13.875	1300.279	983.556
96.943	13.941	1299.035	982.916
97.957	13.834	1298.616	981.880
98.972	13.899	1297.013	980.968
99.987	13.858	1296.341	980.128
101.001	13.739	1295.837	978.958
102.016	13.740	1294.523	977.887
103.030	13.796	1293.386	977.270
104.045	13.824	1292.513	976.689
105.060	13.823	1291.251	975.642
106.074	13.625	1290.150	973.559
107.089	13.677	1288.837	972.791
108.103	13.619	1287.708	971.511
109.118	13.606	1286.439	970.389
110.133	13.775	1284.967	970.183
111.147	13.709	1283.642	968.711
112.162	13.745	1282.226	967.765
113.176	13.723	1281.434	966.957
114.191	13.605	1280.865	965.755
115.206	13.648	1279.776	965.100
116.220	13.786	1277.846	964.361
117.235	13.759	1276.537	963.130
118.249	13.706	1275.618	962.045
119.264	13.695	1274.878	961.339
120.279	13.805	1273.508	960.857
121.293	13.726	1272.694	959.699
122.308	13.642	1271.633	958.327
123.322	13.704	1270.478	957.728
124.337	13.759	1269.329	957.098
125.352	13.579	1268.605	955.428
126.366	13.589	1267.643	954.678
127.381	13.688	1266.488	954.294
128.395	13.665	1265.333	953.206
129.410	13.712	1264.183	952.527
130.424	13.734	1263.649	952.165
131.439	13.684	1262.580	950.991
132.454	13.847	1261.344	950.908
133.468	13.749	1260.899	949.925
134.483	13.756	1260.367	949.484
135.497	13.780	1258.903	948.429
136.512	13.758	1257.638	947.270
137.527	13.846	1256.372	946.735
138.541	13.750	1255.169	945.199
139.556	13.883	1253.489	944.602
140.570	13.795	1252.946	943.611
141.585	13.883	1251.478	942.922
142.600	13.906	1250.348	942.117
143.614	14.006	1248.986	941.573
144.629	14.001	1248.194	940.867
145.643	13.965	1247.148	939.788
146.658	13.831	1245.538	937.736
147.673	13.978	1244.097	937.399
148.687	13.803	1243.072	935.555
149.702	13.790	1241.563	934.268
150.716	13.698	1241.040	933.271
151.731	13.686	1239.869	932.239
152.746	13.790	1238.187	931.480
153.760	13.887	1236.964	931.017
154.775	13.907	1235.754	930.141
155.789	13.965	1234.338	929.316
156.804	14.045	1233.070	928.724
157.819	13.943	1232.909	927.952
158.833	13.998	1231.655	927.232
159.848	13.976	1230.978	926.520
160.862	14.017	1229.348	925.439
161.877	13.917	1228.608	924.244
162.892	13.926	1227.564	923.424
163.906	13.977	1226.478	922.811
164.921	13.880	1226.174	921.961
165.935	14.012	1225.053	921.767
166.950	13.932	1224.477	920.809
167.964	14.104	1223.237	920.746
168.979	14.020	1222.879	919.931
169.994	13.992	1221.919	918.972
171.008	13.909	1221.693	918.265
172.023	14.084	1219.978	917.861
173.037	14.074	1219.690	917.504
174.052	14.153	1218.595	917.036
175.067	13.982	1217.828	915.438
176.081	14.114	1216.705	915.238
177.096	14.030	1215.725	913.955
178.110	14.050	1214.810	913.300
179.125	14.075	1213.670	912.499
180.140	14.209	1212.087	911.962
181.154	14.115	1211.041	910.580
182.169	14.068	1210.043	909.491
183.183	14.131	1209.055	909.012
184.198	14.160	1207.786	908.136
185.213	14.230	1206.249	907.284
186.227	14.306	1205.274	906.884
187.242	14.299	1204.418	906.123
188.256	14.178	1203.578	904.751
189.271	14.304	1202.526	904.566
190.286	14.102	1201.695	902.760
191.300	14.070	1200.816	901.848
192.315	14.072	1200.361	901.438
193.329	14.169	1199.855	901.503
194.344	14.156	1198.869	900.612
195.359	14.215	1197.961	900.168
196.373	14.272	1197.527	900.071
197.388	14.335	1196.762	899.759
198.402	14.459	1196.523	900.168
199.417	14.401	1195.971	899.363
200.432	14.480	1195.029	898.999
201.446	14.517	1193.918	898.280
202.461	14.561	1192.906	897.680
203.475	14.495	1192.368	896.841
204.490	14.418	1191.430	895.639
205.504	14.570	1189.843	895.186
206.519	14.588	1188.661	894.315
207.534	14.489	1187.640	892.936
208.548	14.544	1186.382	892.204
209.563	14.489	1185.802	891.396
210.577	14.542	1184.949	890.957
211.592	14.535	1184.045	890.164
212.607	14.662	1183.158	890.096
213.621	14.626	1182.077	889.012
214.636	14.623	1181.550	888.521
215.650	14.611	1180.929	887.907
216.665	14.728	1179.349	887.265
217.680	14.750	1178.461	886.634
218.694	14.638	1178.185	885.752
219.709	14.698	1176.944	885.059
220.723	14.698	1176.351	884.535
221.738	14.729	1175.694	884.127
222.753	14.748	1175.171	883.757
223.767	14.705	1174.281	882.784
224.782	14.786	1173.829	882.790
225.796	14.782	1173.208	882.228
226.811	14.914	1172.289	882.152
227.826	14.829	1171.821	881.277
228.840	14.770	1171.060	880.315
229.855	14.942	1170.138	880.449
230.869	14.847	1169.553	879.429
231.884	14.862	1168.561	878.688
232.899	14.790	1167.955	877.773
233.913	14.781	1167.432	877.259
234.928	14.808	1166.455	876.585
235.942	14.823	1165.669	875.994
236.957	14.885	1165.041	875.771
237.972	14.800	1164.330	874.715
238.986	14.801	1163.594	874.092
240.001	14.876	1163.094	874.029
241.015	14.937	1161.917	873.385
242.030	14.915	1161.509	872.885
243.045	14.962	1160.364	872.196
244.059	14.997	1159.545	871.682
245.074	15.159	1158.305	871.520
246.088	15.068	1157.867	870.640
247.103	15.082	1157.181	870.117
248.117	15.064	1156.400	869.362
249.132	15.137	1156.053	869.400
250.147	15.164	1155.029	868.696
251.161	15.191	1154.558	868.403
252.176	15.194	1153.981	867.905
253.190	15.208	1153.133	867.267
254.205	15.219	1152.737	866.949
255.220	15.325	1151.877	866.773
256.234	15.270	1151.281	865.964
257.249	15.322	1150.182	865.329
258.263	15.346	1149.798	865.085
259.278	15.293	1149.230	864.309
260.293	15.366	1148.676	864.190
261.307	15.471	1148.060	864.194
262.322	15.349	1147.540	863.099
263.336	15.541	1146.721	863.392
264.351	15.494	1146.067	862.582
265.366	15.400	1145.881	861.881
266.380	15.493	1144.855	861.513
267.395	15.362	1144.506	860.500
268.409	15.518	1143.262	860.287
269.424	15.488	1142.904	859.792
270.439	15.521	1142.128	859.301
271.453	15.497	1141.337	858.507
272.468	15.557	1140.296	857.949
273.482	15.457	1140.231	857.316
274.497	15.570	1139.348	857.151
275.512	15.546	1138.751	856.507
276.526	15.579	1138.024	856.053
277.541	15.536	1136.784	854.827
278.555	15.585	1136.398	854.708
279.570	15.572	1135.570	853.945
280.585	15.663	1134.706	853.679
281.599	15.655	1133.855	852.921
282.614	15.683	1132.503	851.971
283.628	15.692	1131.666	851.316
284.643	15.770	1130.668	850.880
285.657	15.738	1130.057	850.184
286.672	15.751	1129.142	849.486
287.687	15.660	1128.187	848.233
288.701	15.780	1127.624	848.339
289.716	15.825	1126.769	847.850
290.730	15.795	1125.799	846.894
291.745	15.803	1125.326	846.505
292.760	15.797	1124.656	845.894
293.774	15.786	1124.523	845.662
294.789	15.992	1123.302	845.707
295.803	15.977	1122.639	845.055
296.818	15.855	1122.312	844.122
297.833	15.769	1121.549	843.046
298.847	15.928	1120.322	842.844
299.862	15.893	1119.942	842.307
300.876	16.001	1118.975	842.044
301.891	15.999	1118.386	841.519
302.906	15.922	1117.845	840.651
303.920	16.042	1117.163	840.662
304.935	16.078	1116.550	840.305
305.949	16.147	1115.843	840.045
306.964	16.156	1115.055	839.421
307.979	16.037	1114.384	838.250
308.993	16.082	1113.521	837.750
310.008	15.997	1112.749	836.674
311.022	16.253	1111.461	836.901
312.037	16.174	1110.878	835.994
313.052	16.083	1110.252	835.002
314.066	16.081	1109.345	834.235
315.081	16.088	1108.609	833.641
316.095	15.970	1108.081	832.586
317.110	16.123	1107.267	832.656
318.125	16.175	1106.112	831.973
319.139	16.088	1105.784	831.224
320.154	16.157	1104.838	830.776
321.168	16.205	1104.455	830.652
322.183	16.272	1103.702	830.344
323.197	16.184	1103.451	829.647
324.212	16.235	1102.685	829.251
325.227	16.321	1101.840	828.964
326.241	16.211	1101.246	827.902
327.256	16.266	1100.477	827.523
328.270	16.283	1099.580	826.855
329.285	16.198	1098.747	825.742
330.300	16.154	1097.948	824.853
331.314	16.200	1097.050	824.328
332.329	16.226	1096.023	823.611
333.343	16.318	1094.931	823.166
334.358	16.399	1093.848	822.672
335.373	16.424	1093.243	822.268
336.387	16.382	1092.613	821.518
337.402	16.395	1092.281	821.259
338.416	16.503	1091.156	820.865
339.431	16.385	1091.171	820.228
340.446	16.553	1089.857	819.984
341.460	16.552	1089.234	819.436
342.475	16.492	1088.158	818.265
343.489	16.614	1087.183	818.048
344.504	16.673	1086.189	817.515
345.519	16.682	1085.823	817.210
346.533	16.667	1085.199	816.593
347.548	16.694	1084.360	816.022
348.562	16.585	1084.189	815.296
349.577	16.688	1082.499	814.448
350.592	16.634	1081.792	813.585
351.606	16.635	1081.409	813.231
352.621	16.605	1080.974	812.687
353.635	16.599	1080.076	811.908
354.650	16.613	1079.675	811.602
355.665	16.612	1079.133	811.119
356.679	16.713	1078.162	810.802
357.694	16.651	1077.562	809.982
358.708	16.804	1076.765	810.041
359.723	16.896	1075.682	809.598
360.738	16.713	1075.402	808.441
361.752	16.852	1075.034	808.753
362.767	16.877	1073.883	807.936
363.781	16.906	1073.753	807.907
364.796	16.859	1072.924	806.986
365.810	16.960	1072.478	807.060
366.825	16.924	1072.265	806.657
367.840	17.056	1071.440	806.593
368.854	16.920	1071.159	805.662
369.869	16.886	1070.405	804.865
370.883	17.088	1069.167	804.822
371.898	17.047	1068.386	803.966
372.913	17.094	1067.891	803.747
373.927	17.182	1067.437	803.751
374.942	17.065	1066.884	802.709
375.956	17.112	1066.836	802.821
376.971	17.089	1065.866	801.911
377.986	17.170	1065.092	801.644
379.000	17.254	1064.716	801.684
380.015	17.259	1063.914	801.032
381.029	17.207	1063.527	800.428
382.044	17.251	1062.821	800.030
383.059	17.126	1062.258	798.949
384.073	17.264	1061.435	798.910
385.088	17.345	1060.313	798.371
386.102	17.218	1059.707	797.251
387.117	17.229	1058.546	796.357
388.132	17.363	1057.443	796.083
389.146	17.258	1057.139	795.294
390.161	17.333	1056.159	794.836
391.175	17.244	1055.449	793.817
392.190	17.247	1054.602	793.124
393.205	17.396	1054.143	793.403
394.219	17.506	1053.073	793.039
395.234	17.482	1052.302	792.279
396.248	17.378	1051.374	791.027
397.263	17.332	1050.281	789.917
398.278	17.267	1049.943	789.293
399.292	17.326	1049.510	789.171
400.307	17.315	1048.186	788.056
401.321	17.374	1047.880	788.027
402.336	17.269	1047.357	787.080
403.350	17.448	1046.066	786.867
404.365	17.414	1045.746	786.400
405.380	17.477	1044.784	785.897
406.394	17.512	1044.316	785.637
407.409	17.435	1043.732	784.775
408.423	17.550	1042.641	784.413
409.438	17.585	1041.829	783.894
410.453	17.557	1041.503	783.451
411.467	17.614	1040.925	783.207
412.482	17.724	1040.163	783.070
413.496	17.669	1039.139	781.978
414.511	17.703	1039.008	781.966
415.526	17.722	1038.503	781.606
416.540	17.773	1037.951	781.352
417.555	17.819	1037.395	781.076
418.569	17.801	1036.834	780.503
419.584	17.859	1036.073	780.125
420.599	17.918	1035.573	779.950
421.613	100.605	1314.093	1443.022
422.628	92.282	1354.662	1443.137
