DTS Sentinel unit serial number:	SN413079Multiplexer serial number:	ORYXHardware model number:	OX4-SRSoftware version number:	ORYX F/W v4.00 Oryx Data Collector v3.7.2.0data status	okinstallation	princeton_trtdifferential loss correction	single-endedforward channel	channel 2reverse channel	N/Adate	2019/09/15time	01:23:35forward acquisition time	60.00reverse acquisition time	0.00gamma	496.2192k internal	0.2325k external	0.2325temperature offset calibration	1.0036default loss term (dB/km)	0.3790temperature slope calibration	1.0000multiplexer offset coefficient	1.0000multiplexer slope coefficient	1.0000fibre end	0.00T internal ref (°C)	31.92T ext. ref 1 (°C)	4.50T ext. ref 2 (°C)	26.81length (m)	temperature (°C)	Stokes	anti-Stokes-747.200	66.360	0.298	0.305
-746.185	529.297	0.025	-0.060
-745.171	99.680	-0.232	-0.272
-744.156	-106.100	-0.131	0.030
-743.142	168.271	-0.109	-0.157
-742.127	-93.666	0.191	0.053
-741.112	11.448	0.046	-0.035
-740.098	-84.814	-0.075	-0.024
-739.083	238.758	0.011	0.019
-738.069	129.800	0.186	0.239
-737.054	-200.000	0.036	0.234
-736.039	481.204	0.046	0.106
-735.025	-200.000	-0.003	0.016
-734.010	258.880	0.008	0.015
-732.996	28.054	0.221	0.188
-731.981	-44.853	-0.116	0.058
-730.966	-200.000	-0.019	0.303
-729.952	-200.000	0.018	-0.218
-728.937	-95.384	-0.069	-0.019
-727.923	355.271	0.063	-0.127
-726.908	-68.898	-0.289	-0.113
-725.894	111.919	-0.119	-0.145
-724.879	-51.464	-0.211	0.100
-723.864	-2.677	-0.160	-0.113
-722.850	33.421	-0.279	-0.244
-721.835	66.012	0.183	0.187
-720.821	281.212	-0.115	-0.207
-719.806	-35.596	-0.355	0.194
-718.791	507.223	0.067	0.157
-717.777	162.924	0.104	0.147
-716.762	390.926	0.102	-0.213
-715.748	110.726	-0.184	0.223
-714.733	-200.000	-0.004	-0.141
-713.718	800.000	0.030	-0.103
-712.704	-166.239	0.133	-0.006
-711.689	-47.687	-0.291	0.142
-710.675	50.840	0.114	-0.109
-709.660	-15.532	-0.232	0.150
-708.645	-21.836	-0.098	-0.060
-707.631	567.082	0.064	-0.157
-706.616	310.282	0.077	-0.144
-705.602	-200.000	-0.037	-0.324
-704.587	-200.000	0.046	0.477
-703.572	4.951	-0.043	0.032
-702.558	-18.135	-0.080	0.051
-701.543	2.769	-0.126	0.092
-700.529	800.000	0.052	-0.200
-699.514	119.586	0.165	-0.206
-698.499	-121.082	-0.499	0.084
-697.485	146.751	0.130	-0.176
-696.470	-134.112	0.107	0.013
-695.456	16.590	0.233	-0.185
-694.441	-99.666	-0.314	0.079
-693.426	-73.124	-0.093	-0.034
-692.412	-117.429	-0.234	-0.043
-691.397	142.081	-0.052	-0.070
-690.383	125.926	0.046	-0.058
-689.368	-42.639	-0.103	0.053
-688.354	112.789	0.169	0.206
-687.339	-21.882	0.173	0.106
-686.324	-4.743	-0.130	0.090
-685.310	-200.000	0.018	-0.354
-684.295	-72.564	-0.146	-0.054
-683.281	118.528	-0.222	-0.276
-682.266	-150.378	0.469	0.036
-681.251	308.104	0.105	0.197
-680.237	281.937	-0.180	0.324
-679.222	800.000	0.075	0.296
-678.208	-96.659	-0.176	0.047
-677.193	-200.000	-0.033	-0.437
-676.178	611.910	0.114	-0.286
-675.164	-90.225	-0.409	-0.120
-674.149	121.251	-0.060	0.075
-673.135	-200.000	-0.049	0.349
-672.120	-16.057	0.153	-0.098
-671.105	21.384	0.207	-0.169
-670.091	800.000	-0.094	-0.370
-669.076	800.000	-0.022	0.069
-668.062	51.541	0.146	0.139
-667.047	-200.000	-0.034	0.152
-666.032	-51.686	-0.135	0.063
-665.018	130.643	0.086	-0.111
-664.003	-200.000	-0.007	0.066
-662.989	-15.717	0.193	-0.124
-661.974	7.785	-0.139	0.105
-660.959	251.067	-0.044	-0.075
-659.945	46.300	-0.055	-0.051
-658.930	-89.386	0.278	-0.082
-657.916	-54.499	-0.129	0.059
-656.901	-92.400	-0.336	-0.095
-655.886	43.373	-0.260	-0.239
-654.872	-14.123	0.126	0.082
-653.857	81.677	0.037	0.040
-652.843	-31.261	-0.078	0.044
-651.828	-70.655	0.206	0.078
-650.814	800.000	0.047	-0.145
-649.799	121.726	0.223	0.280
-648.784	45.304	-0.356	-0.330
-647.770	373.737	-0.142	-0.291
-646.755	781.470	0.120	-0.329
-645.741	-109.605	0.197	-0.042
-644.726	-200.000	0.018	-0.179
-643.711	-200.000	-0.015	-0.114
-642.697	-198.771	-0.180	-0.001
-641.682	-24.908	0.161	0.096
-640.668	-132.217	0.201	0.026
-639.653	664.342	0.201	-0.522
-638.638	-200.000	0.010	0.123
-637.624	-0.434	0.083	-0.059
-636.609	-79.606	0.278	-0.094
-635.595	800.000	0.099	0.322
-634.580	-200.000	-0.055	-0.250
-633.565	-200.000	0.003	-0.044
-632.551	800.000	0.082	0.246
-631.536	-137.717	0.217	-0.024
-630.522	-200.000	-0.004	-0.213
-629.507	800.000	0.084	-0.354
-628.492	800.000	-0.088	-0.259
-627.478	126.253	-0.290	0.368
-626.463	-119.050	0.426	0.075
-625.449	-56.897	0.229	-0.101
-624.434	-90.323	-0.353	-0.103
-623.419	-83.190	-0.343	0.111
-622.405	267.375	-0.124	-0.218
-621.390	-136.491	0.165	-0.019
-620.376	-142.173	-0.169	0.017
-619.361	86.336	-0.146	-0.162
-618.346	-72.232	-0.253	0.094
-617.332	-108.031	-0.244	-0.053
-616.317	-18.668	0.241	0.151
-615.303	-200.000	0.016	0.200
-614.288	800.000	0.135	0.410
-613.273	-56.995	0.270	-0.120
-612.259	-19.063	0.087	0.055
-611.244	-30.409	-0.309	-0.176
-610.230	-69.503	-0.319	0.123
-609.215	-124.609	-0.110	-0.017
-608.201	5.534	0.166	-0.123
-607.186	10.135	0.184	-0.140
-606.171	291.534	0.035	-0.064
-605.157	800.000	0.098	-0.305
-604.142	-161.638	-0.295	0.015
-603.128	-116.349	-0.161	-0.030
-602.113	181.808	0.074	-0.110
-601.098	-118.250	-0.158	-0.028
-600.084	-15.315	-0.272	-0.175
-599.069	23.616	0.114	-0.094
-598.055	-60.459	0.168	-0.072
-597.040	800.000	-0.028	-0.117
-596.025	-87.523	-0.311	-0.094
-595.011	-155.339	-0.239	-0.016
-593.996	156.768	0.086	0.119
-592.982	45.037	0.225	0.208
-591.967	-62.823	0.118	0.049
-590.952	-106.186	-0.152	0.034
-589.938	348.008	0.051	0.101
-588.923	9.688	-0.137	0.104
-587.909	-200.000	0.035	0.354
-586.894	289.016	-0.220	0.400
-585.879	95.973	-0.109	-0.125
-584.865	-192.211	0.203	-0.002
-583.850	745.085	0.038	0.104
-582.836	-200.000	-0.020	-0.123
-581.821	606.374	0.089	0.223
-580.806	800.000	-0.059	-0.214
-579.792	-200.000	-0.010	0.047
-578.777	43.853	0.118	0.108
-577.763	-86.626	0.224	-0.069
-576.748	8.089	0.285	0.215
-575.733	55.034	-0.076	-0.074
-574.719	-90.660	-0.208	-0.060
-573.704	210.759	0.190	-0.300
-572.690	87.512	-0.050	-0.055
-571.675	-40.453	0.171	-0.089
-570.661	671.818	-0.067	0.174
-569.646	22.470	-0.104	0.085
-568.631	-20.269	-0.119	-0.073
-567.617	-92.306	-0.224	0.063
-566.602	50.705	-0.130	-0.124
-565.588	138.420	-0.022	0.029
-564.573	-50.234	-0.172	0.082
-563.558	-26.668	-0.087	0.051
-562.544	-95.301	-0.141	0.038
-561.529	-116.728	-0.189	0.035
-560.515	-12.777	-0.359	0.235
-559.500	-119.847	0.139	-0.024
-558.485	-68.503	-0.089	0.035
-557.471	77.926	-0.105	0.112
-556.456	-121.915	0.108	0.018
-555.442	-27.047	0.408	-0.238
-554.427	28.054	-0.210	-0.177
-553.412	-144.863	-0.138	0.013
-552.398	-200.000	-0.018	-0.185
-551.383	64.940	-0.121	0.122
-550.369	-200.000	0.003	0.268
-549.354	-114.190	-0.218	-0.042
-548.339	1.994	0.112	0.081
-547.325	-121.439	-0.179	-0.030
-546.310	114.061	-0.052	0.064
-545.296	-40.988	0.221	0.114
-544.281	240.546	0.052	0.086
-543.266	79.761	0.172	0.185
-542.252	139.899	0.110	0.146
-541.237	-200.000	-0.020	0.178
-540.223	800.000	-0.032	0.134
-539.208	-52.353	-0.111	-0.051
-538.193	-59.338	-0.337	0.145
-537.179	-4.691	-0.456	0.315
-536.164	-131.766	-0.202	0.027
-535.150	-176.573	0.367	-0.009
-534.135	170.273	0.061	-0.087
-533.121	-74.239	-0.118	-0.043
-532.106	177.522	0.074	0.108
-531.091	-90.137	-0.287	0.084
-530.077	-151.050	0.459	-0.035
-529.062	33.717	0.131	-0.114
-528.048	653.804	0.120	-0.308
-527.033	663.947	0.088	-0.227
-526.018	800.000	-0.033	-0.113
-525.004	60.092	-0.151	-0.149
-523.989	-69.920	-0.304	0.116
-522.975	-98.983	-0.255	-0.065
-521.960	-200.000	-0.038	0.213
-520.945	90.373	-0.169	0.189
-519.931	280.385	-0.074	-0.132
-518.916	-200.000	0.055	-0.247
-517.902	800.000	-0.107	-0.321
-516.887	96.621	-0.058	-0.066
-515.872	-200.000	-0.024	-0.199
-514.858	-200.000	0.094	-0.585
-513.843	-149.650	-0.089	-0.007
-512.829	-162.252	-0.312	0.016
-511.814	-200.000	0.027	0.340
-510.799	-134.015	-0.206	0.026
-509.785	-115.067	0.133	-0.025
-508.770	173.239	0.232	-0.334
-507.756	-70.051	0.145	-0.055
-506.741	318.426	-0.160	0.303
-505.726	-200.000	-0.021	0.416
-504.712	-200.000	0.002	-0.129
-503.697	428.476	-0.144	-0.311
-502.683	70.877	-0.232	0.240
-501.668	109.666	0.049	-0.058
-500.653	-78.464	0.112	0.038
-499.639	-51.087	-0.238	-0.111
-498.624	97.566	0.160	-0.183
-497.610	200.492	0.149	-0.229
-496.595	-55.597	0.262	-0.117
-495.581	-196.914	0.271	0.002
-494.566	25.318	0.233	0.194
-493.551	-173.989	0.344	-0.010
-492.537	-39.441	0.126	-0.066
-491.522	-46.784	-0.069	0.034
-490.508	-200.000	-0.006	-0.066
-489.493	-46.490	-0.025	0.012
-488.478	-77.549	-0.241	-0.083
-487.464	201.655	0.109	0.168
-486.449	78.468	0.147	-0.157
-485.435	-175.870	0.139	0.004
-484.420	-151.883	-0.387	-0.028
-483.405	207.076	0.129	0.201
-482.391	109.371	0.140	-0.168
-481.376	-151.897	-0.057	-0.004
-480.362	-200.000	-0.005	0.230
-479.347	-200.000	0.036	-0.173
-478.332	800.000	0.060	0.239
-477.318	-200.000	0.000	-0.076
-476.303	39.291	0.214	-0.192
-475.289	-85.597	-0.270	-0.084
-474.274	-101.760	-0.260	-0.063
-473.259	156.554	0.128	-0.177
-472.245	-200.000	-0.025	0.156
-471.230	-103.703	-0.245	-0.057
-470.216	800.000	0.048	0.188
-469.201	26.274	-0.199	0.166
-468.186	529.328	0.049	0.115
-467.172	-44.454	-0.045	0.022
-466.157	23.752	-0.035	0.029
-465.143	22.300	0.286	0.233
-464.128	-149.984	-0.338	0.026
-463.113	47.516	-0.285	0.265
-462.099	-171.238	-0.207	-0.007
-461.084	-150.233	0.308	-0.024
-460.070	38.253	-0.042	-0.037
-459.055	365.170	0.078	0.157
-458.040	18.048	0.116	-0.092
-457.026	-149.686	-0.124	0.010
-456.011	26.294	-0.151	0.126
-454.997	207.878	-0.032	0.050
-453.982	800.000	-0.075	0.254
-452.968	-200.000	-0.063	-0.311
-451.953	52.482	-0.044	-0.042
-450.938	264.311	0.121	0.211
-449.924	567.431	-0.091	0.221
-448.909	-102.624	0.205	-0.049
-447.895	281.418	0.046	0.083
-446.880	309.840	0.077	-0.144
-445.865	-51.052	-0.205	-0.096
-444.851	-200.000	-0.002	-0.154
-443.836	-90.726	0.203	0.058
-442.822	800.000	-0.019	-0.057
-441.807	-117.377	-0.168	0.030
-440.792	800.000	0.008	-0.028
-439.778	78.973	-0.224	0.239
-438.763	9.054	-0.230	0.173
-437.749	133.834	-0.217	0.280
-436.734	800.000	0.121	0.440
-435.719	697.510	0.127	0.331
-434.705	-200.000	0.028	0.205
-433.690	-90.480	0.237	0.068
-432.676	-112.168	0.190	0.038
-431.661	-50.774	-0.140	0.066
-430.646	-200.000	-0.027	-0.248
-429.632	115.618	-0.065	-0.079
-428.617	-200.000	-0.008	0.136
-427.603	82.743	0.230	-0.249
-426.588	255.192	-0.253	-0.433
-425.573	-30.711	0.159	0.090
-424.559	800.000	0.097	0.341
-423.544	198.223	0.104	-0.158
-422.530	262.357	0.107	-0.186
-421.515	-200.000	0.012	0.120
-420.500	3.342	-0.261	0.189
-419.486	800.000	0.047	-0.191
-418.471	800.000	-0.039	-0.134
-417.457	-186.934	0.142	0.002
-416.442	-1.708	-0.112	0.079
-415.428	-89.733	0.371	-0.108
-414.413	-38.363	0.179	-0.095
-413.398	234.701	0.075	-0.123
-412.384	800.000	-0.115	-0.453
-411.369	-200.000	0.034	0.170
-410.355	-200.000	-0.028	0.252
-409.340	464.717	0.022	-0.049
-408.325	683.545	0.016	-0.041
-407.311	-173.065	0.296	0.009
-406.296	307.947	-0.058	0.107
-405.282	228.715	-0.110	-0.179
-404.267	222.218	0.055	0.088
-403.252	-200.000	-0.009	0.116
-402.238	5.269	-0.136	-0.100
-401.223	-200.000	-0.066	-0.327
-400.209	33.911	-0.080	0.070
-399.194	-127.304	-0.191	-0.028
-398.179	-50.577	-0.259	0.122
-397.165	800.000	-0.090	-0.337
-396.150	800.000	0.090	-0.266
-395.136	34.662	-0.099	-0.087
-394.121	1.613	-0.017	-0.012
-393.106	-24.665	0.363	0.215
-392.092	-184.530	0.194	-0.003
-391.077	-92.177	-0.202	-0.057
-390.063	-38.463	0.298	-0.157
-389.048	-115.407	0.190	-0.036
-388.033	16.768	-0.114	-0.090
-387.019	-12.326	-0.330	-0.215
-386.004	-200.000	0.058	-0.263
-384.990	-13.159	0.190	0.123
-383.975	-115.761	0.198	-0.037
-382.960	-200.000	0.007	-0.127
-381.946	28.326	-0.023	0.020
-380.931	308.605	-0.131	0.244
-379.917	-200.000	-0.034	-0.521
-378.902	-3.109	0.033	-0.023
-377.888	-41.231	-0.112	0.058
-376.873	672.820	0.118	0.306
-375.858	18.439	0.156	-0.124
-374.844	-200.000	-0.012	-0.267
-373.829	594.354	0.085	-0.210
-372.815	-200.000	0.005	0.152
-371.800	26.587	-0.228	-0.190
-370.785	-96.015	-0.365	-0.097
-369.771	305.442	0.192	-0.355
-368.756	-200.000	0.003	0.031
-367.742	19.807	0.316	-0.253
-366.727	-145.107	-0.173	0.016
-365.712	0.037	0.014	0.010
-364.698	800.000	-0.071	0.279
-363.683	4.737	-0.184	0.134
-362.669	82.881	-0.117	-0.126
-361.654	-46.741	-0.331	0.161
-360.639	-105.919	-0.221	0.049
-359.625	-5.450	0.251	0.171
-358.610	-200.000	-0.007	-0.038
-357.596	297.856	-0.061	0.111
-356.581	112.467	-0.122	-0.147
-355.566	-200.000	-0.010	0.433
-354.552	800.000	-0.070	-0.286
-353.537	-200.000	0.028	-0.167
-352.523	-1.255	0.212	0.149
-351.508	58.305	-0.111	0.109
-350.493	423.083	0.121	0.258
-349.479	-7.941	0.321	0.215
-348.464	-45.191	-0.040	-0.020
-347.450	-55.346	0.132	-0.059
-346.435	30.167	0.176	0.150
-345.420	800.000	0.089	-0.350
-344.406	-51.464	-0.247	-0.115
-343.391	132.123	-0.050	-0.064
-342.377	-46.297	0.241	0.118
-341.362	-200.000	0.004	0.490
-340.348	-3.520	-0.192	0.133
-339.333	616.532	-0.040	-0.100
-338.318	21.335	-0.051	0.041
-337.304	468.362	-0.106	-0.237
-336.289	-200.000	0.003	-0.065
-335.275	-104.692	-0.348	0.080
-334.260	-179.452	0.420	-0.009
-333.245	28.171	-0.117	-0.098
-332.231	113.454	-0.301	-0.363
-331.216	-200.000	-0.019	-0.098
-330.202	800.000	0.043	0.157
-329.187	-87.317	-0.235	-0.071
-328.172	800.000	-0.039	-0.149
-327.158	-169.469	0.224	0.008
-326.143	-106.538	0.152	0.034
-325.129	167.601	-0.176	-0.248
-324.114	-21.037	-0.363	-0.221
-323.099	-200.000	0.025	0.331
-322.085	-110.039	-0.133	-0.028
-321.070	-200.000	0.018	0.165
-320.056	36.249	-0.341	0.298
-319.041	-70.628	0.328	0.123
-318.026	-55.137	-0.149	0.067
-317.012	-139.729	0.176	-0.019
-315.997	-200.000	-0.010	0.050
-314.983	-16.406	-0.235	-0.148
-313.968	-105.230	0.141	-0.032
-312.953	-66.592	-0.149	0.059
-311.939	-84.873	-0.133	0.041
-310.924	-25.288	-0.250	0.147
-309.910	-107.470	0.085	0.018
-308.895	-40.737	0.079	0.041
-307.880	73.423	0.105	0.109
-306.866	-200.000	-0.005	0.324
-305.851	24.250	-0.021	-0.018
-304.837	175.339	-0.048	-0.069
-303.822	-41.192	0.268	0.137
-302.807	800.000	-0.135	0.500
-301.793	-127.189	0.042	0.006
-300.778	-200.000	-0.011	0.128
-299.764	-97.413	0.054	0.014
-298.749	-145.529	0.453	-0.040
-297.735	0.476	-0.305	-0.216
-296.720	46.902	-0.088	0.081
-295.705	321.861	0.174	-0.328
-294.691	800.000	0.042	-0.138
-293.676	3.842	-0.409	0.296
-292.662	158.716	-0.059	-0.081
-291.647	-200.000	0.037	0.369
-290.632	800.000	-0.032	0.128
-289.618	-200.000	0.026	0.135
-288.603	278.403	0.136	-0.241
-287.589	302.275	-0.232	0.425
-286.574	181.881	-0.194	0.282
-285.559	-146.461	0.295	0.026
-284.545	-2.130	-0.296	-0.206
-283.530	800.000	-0.123	-0.377
-282.516	-4.817	0.099	-0.068
-281.501	-44.254	-0.128	-0.063
-280.486	-101.147	-0.388	-0.094
-279.472	800.000	0.067	0.280
-278.457	12.292	0.281	0.215
-277.443	66.685	0.076	0.076
-276.428	51.799	0.067	-0.063
-275.413	51.974	0.263	0.248
-274.399	-200.000	-0.029	0.128
-273.384	800.000	0.047	-0.179
-272.370	800.000	-0.041	-0.128
-271.355	1.223	-0.158	0.112
-270.340	-134.659	0.061	0.007
-269.326	-200.000	0.220	0.001
-268.311	-62.864	0.044	0.018
-267.297	423.215	0.133	-0.282
-266.282	43.752	-0.089	0.081
-265.267	800.000	0.040	0.148
-264.253	-37.300	-0.253	-0.134
-263.238	800.000	-0.080	0.266
-262.224	-123.572	-0.202	-0.032
-261.209	401.275	0.076	-0.159
-260.195	-200.000	-0.022	-0.181
-259.180	145.978	0.190	0.252
-258.165	-32.295	-0.079	-0.043
-257.151	-121.109	-0.108	-0.018
-256.136	319.653	-0.042	0.079
-255.122	-20.638	-0.086	-0.052
-254.107	182.199	0.222	-0.324
-253.092	-100.188	-0.109	0.027
-252.078	-0.145	0.259	0.182
-251.063	78.482	0.141	-0.149
-250.049	511.583	0.081	0.188
-249.034	354.208	0.129	-0.255
-248.019	-37.805	-0.178	0.094
-247.005	800.000	0.097	-0.286
-245.990	30.885	0.182	-0.154
-244.976	95.118	0.154	-0.173
-243.961	18.764	-0.106	0.084
-242.946	-102.947	0.228	-0.054
-241.932	-84.758	0.564	-0.176
-240.917	-200.000	-0.028	-0.162
-239.903	58.319	-0.299	-0.291
-238.888	-94.396	0.199	0.054
-237.873	7.653	0.095	-0.071
-236.859	-200.000	0.101	0.508
-235.844	-200.000	0.017	-0.219
-234.830	67.463	0.153	0.155
-233.815	-200.000	0.005	0.103
-232.800	622.540	-0.043	0.106
-231.786	359.029	-0.163	0.323
-230.771	-39.115	0.323	0.168
-229.757	-101.065	-0.417	0.101
-228.742	227.399	-0.133	-0.214
-227.727	-85.586	0.351	0.108
-226.713	-200.000	0.171	0.000
-225.698	257.009	-0.021	0.036
-224.684	-147.791	0.197	-0.016
-223.669	-105.287	-0.130	0.029
-222.655	800.000	0.120	0.497
-221.640	-160.282	0.434	-0.023
-220.625	133.600	-0.182	-0.232
-219.611	252.271	-0.039	0.065
-218.596	-91.666	-0.123	0.035
-217.582	-7.815	-0.031	0.021
-216.567	184.159	-0.029	-0.043
-215.552	69.625	-0.177	-0.180
-214.538	291.410	0.082	-0.147
-213.523	-28.497	-0.261	-0.149
-212.509	96.066	-0.210	0.237
-211.494	-86.858	-0.113	0.034
-210.479	800.000	-0.055	0.178
-209.465	3.860	0.156	0.113
-208.450	800.000	0.066	0.183
-207.436	-101.540	-0.162	0.039
-206.421	-86.882	0.583	0.176
-205.406	800.000	0.053	0.181
-204.392	-53.771	0.178	0.080
-203.377	800.000	-0.123	-0.341
-202.363	-46.957	0.276	-0.133
-201.348	16.978	-0.089	0.070
-200.333	-159.688	0.313	0.017
-199.319	800.000	0.031	0.098
-198.304	125.761	-0.047	0.058
-197.290	-52.830	0.301	0.137
-196.275	-128.684	-0.500	-0.070
-195.260	190.475	0.119	-0.176
-194.246	-63.292	-0.245	-0.100
-193.231	-200.000	-0.014	0.217
-192.217	73.982	0.204	-0.212
-191.202	181.565	0.088	0.128
-190.187	416.364	0.035	0.073
-189.173	132.218	0.174	0.222
-188.158	-136.712	0.199	-0.023
-187.144	-200.000	0.028	0.288
-186.129	-135.752	-0.215	-0.025
-185.114	-18.747	0.227	0.139
-184.100	158.130	0.121	-0.165
-183.085	47.561	0.284	0.262
-182.071	105.517	0.027	0.031
-181.056	-84.753	0.094	0.029
-180.042	-200.000	-0.002	-0.149
-179.027	88.959	0.149	0.164
-178.012	800.000	0.052	0.174
-176.998	367.502	0.127	-0.253
-175.983	-125.968	-0.167	0.025
-174.969	55.088	0.089	0.085
-173.954	-156.001	-0.092	-0.006
-172.939	565.453	0.041	0.099
-171.925	-8.586	-0.028	0.019
-170.910	-117.748	0.260	-0.046
-169.896	-200.000	0.017	-0.087
-168.881	7.105	0.079	0.058
-167.866	76.040	-0.064	-0.066
-166.852	-63.298	-0.137	-0.056
-165.837	-123.122	0.259	-0.041
-164.823	-163.558	-0.235	-0.011
-163.808	800.000	-0.093	0.343
-162.793	43.890	-0.203	-0.184
-161.779	-117.100	0.456	-0.082
-160.764	-200.000	-0.018	-0.232
-159.750	119.829	0.156	-0.190
-158.735	-110.815	0.112	-0.023
-157.720	396.325	0.018	0.037
-156.706	800.000	0.020	-0.079
-155.691	-200.000	-0.050	-0.474
-154.677	251.467	0.134	-0.225
-153.662	-137.175	-0.272	0.031
-152.647	800.000	-0.097	0.263
-151.633	800.000	0.150	-0.409
-150.618	800.000	0.066	-0.221
-149.604	-97.063	0.184	0.047
-148.589	-200.000	-0.035	-0.343
-147.574	52.181	0.171	-0.160
-146.560	-29.584	-0.316	0.178
-145.545	137.246	-0.212	-0.274
-144.531	205.387	-0.030	0.045
-143.516	-134.410	-0.076	0.009
-142.502	222.474	-0.251	0.398
-141.487	461.638	-0.161	0.354
-140.472	-200.000	0.005	0.134
-139.458	-160.948	-0.177	-0.009
-138.443	800.000	0.051	0.199
-137.429	93.853	-0.284	0.317
-136.414	800.000	0.027	0.098
-135.399	50.331	0.213	0.198
-134.385	226.780	-0.097	0.156
-133.370	-98.107	0.133	0.034
-132.356	-0.839	-0.217	-0.151
-131.341	530.509	0.154	0.358
-130.326	-48.226	0.144	-0.068
-129.312	-200.000	-0.013	-0.093
-128.297	-157.585	0.151	0.009
-127.283	-109.890	-0.148	-0.031
-126.268	-92.180	0.074	0.020
-125.253	-10.544	0.027	-0.017
-124.239	-200.000	0.031	0.211
-123.224	60.619	0.091	0.089
-122.210	-73.414	0.323	0.116
-121.195	89.264	0.194	0.212
-120.180	1.586	-0.292	-0.207
-119.166	164.125	0.129	-0.178
-118.151	-43.738	-0.133	-0.066
-117.137	-78.215	0.357	0.121
-116.122	427.897	0.188	0.399
-115.107	-145.825	0.074	-0.006
-114.093	-99.739	0.394	0.097
-113.078	304.266	0.245	0.448
-112.064	37.276	-0.050	0.044
-111.049	79.011	0.120	-0.126
-110.034	278.639	-0.130	-0.227
-109.020	800.000	-0.052	-0.193
-108.005	-28.702	0.137	-0.078
-106.991	-5.705	-0.244	0.165
-105.976	800.000	0.069	0.212
-104.962	-200.000	0.039	0.171
-103.947	-1.227	-0.187	0.130
-102.932	800.000	-0.005	-0.019
-101.918	10.012	-0.091	-0.068
-100.903	-180.233	-0.135	-0.003
-99.889	800.000	0.099	0.297
-98.874	223.293	0.069	-0.109
-97.859	800.000	-0.053	0.188
-96.845	800.000	0.079	0.218
-95.830	235.711	-0.107	-0.174
-94.816	-113.178	0.255	-0.049
-93.801	-200.000	0.004	0.284
-92.786	24.417	-0.223	-0.182
-91.772	-155.942	0.261	0.016
-90.757	504.349	-0.064	0.146
-89.743	24.394	-0.222	0.181
-88.728	90.051	0.157	0.173
-87.713	208.767	0.113	-0.174
-86.699	205.358	0.231	-0.352
-85.684	800.000	-0.078	-0.278
-84.670	-1.036	-0.169	-0.118
-83.655	-79.368	0.393	-0.131
-82.640	800.000	0.082	0.333
-81.626	218.442	-0.050	-0.079
-80.611	115.908	-0.219	-0.263
-79.597	-98.027	0.109	0.028
-78.582	76.375	0.075	0.078
-77.567	-200.000	-0.014	0.131
-76.553	800.000	-0.033	0.089
-75.538	537.653	0.148	0.345
-74.524	110.971	0.199	0.235
-73.509	120.354	0.246	-0.300
-72.494	-200.000	-0.021	-0.240
-71.480	581.064	0.098	-0.237
-70.465	17.449	0.330	0.258
-69.451	101.557	0.083	-0.095
-68.436	51.164	0.042	-0.039
-67.422	-140.035	0.120	-0.012
-66.407	800.000	-0.057	-0.201
-65.392	194.096	-0.128	-0.190
-64.378	173.585	0.038	0.053
-63.363	-200.000	-0.019	-0.293
-62.349	800.000	0.052	-0.160
-61.334	70.876	-0.934	-0.951
-60.319	-5.545	0.413	0.279
-59.305	471.692	-0.377	-0.833
-58.290	313.259	0.507	0.936
-57.276	732.003	0.590	1.551
-56.261	-200.000	95.643	596.502
-55.246	658.366	1370.619	3463.124
-54.232	198.839	2554.902	3842.974
-53.217	113.409	2268.230	2704.308
-52.203	41.416	1896.303	1685.265
-51.188	35.157	1686.476	1451.492
-50.173	32.572	1642.326	1394.335
-49.159	50.116	1688.683	1565.651
-48.144	51.666	1705.553	1592.855
-47.130	34.844	1666.483	1431.713
-46.115	32.056	1652.167	1398.624
-45.100	31.879	1647.156	1393.015
-44.086	31.914	1644.682	1391.123
-43.071	31.786	1642.261	1388.076
-42.057	31.781	1639.681	1385.803
-41.042	31.783	1637.906	1384.258
-40.027	31.823	1636.135	1383.005
-39.013	31.748	1634.447	1380.969
-37.998	31.727	1632.540	1379.150
-36.984	31.741	1631.755	1378.533
-35.969	31.994	1629.283	1378.252
-34.954	31.885	1628.338	1376.597
-33.940	31.893	1626.503	1375.051
-32.925	31.867	1624.649	1373.237
-31.911	31.962	1622.795	1372.307
-30.896	31.861	1621.052	1370.041
-29.881	31.972	1618.922	1369.000
-28.867	31.837	1617.974	1367.160
-27.852	31.819	1616.570	1365.787
-26.838	31.962	1614.199	1364.765
-25.823	32.008	1612.917	1363.963
-24.809	31.983	1611.668	1362.672
-23.794	31.887	1610.562	1360.987
-22.779	31.978	1608.645	1359.975
-21.765	31.959	1607.482	1358.797
-20.750	31.910	1605.950	1357.097
-19.736	31.932	1604.791	1356.223
-18.721	31.988	1602.970	1355.033
-17.706	31.931	1601.858	1353.628
-16.692	31.943	1600.462	1352.480
-15.677	31.881	1598.484	1350.307
-14.663	32.080	1596.998	1350.428
-13.648	31.995	1596.020	1348.942
-12.633	31.987	1594.494	1347.541
-11.619	31.915	1593.097	1345.785
-10.604	32.074	1591.014	1345.116
-9.590	31.892	1590.332	1343.179
-8.575	31.978	1588.893	1342.526
-7.560	31.982	1587.914	1341.674
-6.546	31.992	1586.491	1340.493
-5.531	32.024	1585.092	1339.487
-4.517	31.986	1584.084	1338.305
-3.502	31.963	1583.076	1337.238
-2.487	32.065	1581.416	1336.510
-1.473	31.769	1569.616	1324.397
-0.458	28.849	1550.364	1287.674
0.556	24.829	1550.628	1257.080
1.571	22.404	1574.287	1258.834
2.586	21.945	1586.826	1265.437
3.600	19.349	1533.718	1204.860
4.615	11.779	1426.161	1070.892
5.629	5.619	1364.139	985.566
6.644	4.601	1357.108	974.022
7.659	4.516	1355.312	972.115
8.673	4.417	1354.564	970.872
9.688	4.456	1352.597	969.624
10.702	4.360	1349.831	966.954
11.717	7.255	1355.369	988.927
12.731	14.529	1368.678	1044.242
13.746	19.012	1375.455	1077.464
14.761	18.863	1373.484	1074.894
15.775	17.817	1370.965	1066.294
16.790	16.751	1368.495	1057.626
17.804	15.960	1366.198	1050.823
18.819	15.582	1364.493	1047.064
19.834	15.279	1363.344	1044.202
20.848	15.134	1362.374	1042.467
21.863	14.880	1361.169	1039.869
22.877	14.733	1360.110	1038.057
23.892	14.806	1358.713	1037.348
24.907	14.729	1358.009	1036.244
25.921	14.709	1357.339	1035.515
26.936	14.809	1356.331	1035.277
27.950	14.826	1355.341	1034.536
28.965	14.833	1354.145	1033.575
29.980	15.057	1353.122	1034.084
30.994	15.139	1352.193	1033.790
32.009	15.051	1351.156	1032.362
33.023	15.051	1349.725	1031.176
34.038	15.074	1348.363	1030.188
35.053	15.096	1346.839	1029.064
36.067	14.932	1345.947	1027.290
37.082	14.919	1345.218	1026.562
38.096	14.931	1344.778	1026.206
39.111	14.987	1343.422	1025.426
40.126	14.853	1342.509	1023.819
41.140	14.785	1341.759	1022.736
42.155	14.710	1341.351	1021.874
43.169	14.655	1341.388	1021.480
44.184	14.681	1340.761	1021.071
45.199	14.639	1340.412	1020.456
46.213	14.685	1340.031	1020.356
47.228	14.773	1338.901	1019.942
48.242	14.796	1337.851	1019.193
49.257	14.906	1336.395	1018.663
50.271	14.867	1335.015	1017.288
51.286	14.914	1333.744	1016.514
52.301	14.869	1332.518	1015.216
53.315	14.773	1331.423	1013.710
54.330	14.705	1330.587	1012.569
55.344	14.573	1329.825	1011.102
56.359	14.761	1327.925	1010.706
57.374	14.705	1327.185	1009.712
58.388	14.674	1326.377	1008.819
59.403	14.645	1326.032	1008.293
60.417	14.744	1325.240	1008.201
61.432	14.566	1324.228	1006.271
62.447	14.475	1323.667	1005.203
63.461	14.514	1322.237	1004.265
64.476	14.461	1321.138	1003.019
65.490	14.502	1320.018	1002.326
66.505	14.555	1318.496	1001.401
67.520	14.543	1316.975	1000.086
68.534	14.591	1316.086	999.611
69.549	14.588	1315.101	998.754
70.563	14.633	1313.903	998.026
71.578	14.522	1313.005	996.592
72.593	14.413	1312.275	995.299
73.607	14.387	1311.631	994.566
74.622	14.461	1310.699	994.218
75.636	14.488	1309.608	993.460
76.651	14.457	1308.836	992.603
77.666	14.477	1308.492	992.371
78.680	14.564	1307.764	992.252
79.695	14.468	1307.209	991.170
80.709	14.542	1306.568	991.034
81.724	14.566	1305.592	990.350
82.739	14.622	1305.189	990.291
83.753	14.779	1304.329	990.479
84.768	14.758	1303.051	989.300
85.782	14.958	1302.020	989.610
86.797	14.886	1300.624	988.036
87.812	14.817	1299.626	986.786
88.826	14.829	1298.467	985.890
89.841	14.757	1297.629	984.738
90.855	14.869	1296.882	984.747
91.870	14.974	1295.815	984.466
92.884	14.940	1294.630	983.281
93.899	15.024	1293.863	983.103
94.914	15.024	1293.057	982.401
95.928	15.012	1292.233	981.623
96.943	14.968	1291.391	980.638
97.957	15.040	1290.196	980.062
98.972	15.005	1289.185	979.003
99.987	14.863	1288.750	977.758
101.001	14.973	1287.605	977.445
102.016	14.953	1286.287	976.240
103.030	14.909	1285.430	975.245
104.045	14.973	1284.859	975.103
105.060	14.867	1283.386	973.277
106.074	14.675	1282.073	971.080
107.089	14.666	1280.683	969.890
108.103	14.616	1279.274	968.445
109.118	14.493	1278.673	967.192
110.133	14.656	1276.832	966.656
111.147	14.608	1275.789	965.503
112.162	14.726	1274.337	965.004
113.176	14.630	1273.452	963.696
114.191	14.689	1272.179	962.988
115.206	14.734	1271.177	962.403
116.220	14.806	1269.732	961.638
117.235	14.770	1268.464	960.383
118.249	14.728	1267.811	959.562
119.264	14.661	1266.772	958.309
120.279	14.669	1265.452	957.270
121.293	14.608	1264.946	956.451
122.308	14.481	1263.782	954.760
123.322	14.527	1262.717	954.137
124.337	14.566	1261.211	953.134
125.352	14.555	1260.260	952.272
126.366	14.528	1259.135	951.180
127.381	14.531	1258.390	950.550
128.395	14.672	1256.759	950.037
129.410	14.633	1256.407	949.463
130.424	14.649	1255.568	948.838
131.439	14.605	1254.527	947.717
132.454	14.715	1253.411	947.416
133.468	14.757	1252.550	946.921
134.483	14.674	1252.113	946.032
135.497	14.727	1250.911	945.344
136.512	14.724	1249.619	944.265
137.527	14.759	1248.205	943.310
138.541	14.745	1246.765	942.058
139.556	14.780	1245.700	941.372
140.570	14.872	1244.683	941.038
141.585	14.817	1243.710	939.905
142.600	14.954	1242.169	939.431
143.614	15.021	1241.402	939.139
144.629	15.002	1240.111	937.975
145.643	14.938	1239.325	936.938
146.658	14.947	1238.256	936.097
147.673	14.789	1236.980	934.169
148.687	14.881	1235.311	933.336
149.702	14.887	1233.999	932.299
150.716	14.737	1233.081	930.686
151.731	14.758	1231.820	929.770
152.746	14.885	1230.360	929.290
153.760	14.850	1229.366	928.262
154.775	14.928	1228.421	927.902
155.789	14.992	1227.085	927.166
156.804	14.905	1226.988	926.527
157.819	14.980	1225.692	925.884
158.833	15.016	1224.601	925.174
159.848	15.112	1223.909	925.101
160.862	15.143	1222.570	924.179
161.877	14.991	1221.582	922.514
162.892	14.829	1221.017	921.107
163.906	14.864	1219.895	920.376
164.921	14.890	1219.002	919.765
165.935	14.917	1218.125	919.169
166.950	14.927	1217.490	918.659
167.964	14.982	1216.744	918.319
168.979	14.992	1215.841	917.613
169.994	14.979	1215.200	916.975
171.008	14.938	1214.156	915.885
172.023	15.080	1213.526	916.105
173.037	15.146	1212.512	915.620
174.052	15.198	1211.823	915.302
175.067	15.080	1210.628	913.673
176.081	14.989	1209.988	912.612
177.096	14.959	1208.853	911.513
178.110	14.969	1207.713	910.627
179.125	15.010	1206.611	909.940
180.140	15.079	1205.088	909.082
181.154	15.045	1204.178	908.133
182.169	15.005	1203.069	907.000
183.183	15.197	1201.562	906.820
184.198	15.282	1200.602	906.478
185.213	15.296	1199.610	905.724
186.227	15.221	1198.315	904.260
187.242	15.253	1197.202	903.514
188.256	15.384	1196.301	903.461
189.271	15.353	1195.320	902.469
190.286	15.228	1193.945	900.683
191.300	14.964	1193.695	898.992
192.315	14.974	1192.704	898.224
193.329	15.045	1192.034	898.022
194.344	15.086	1191.679	897.891
195.359	15.071	1191.219	897.385
196.373	15.206	1190.654	897.605
197.388	15.361	1190.341	898.118
198.402	15.439	1189.517	897.836
199.417	15.426	1188.944	897.255
200.432	15.513	1188.077	896.984
201.446	15.507	1187.431	896.385
202.461	15.563	1186.481	895.887
203.475	15.605	1185.647	895.402
204.490	15.619	1184.097	894.227
205.504	15.429	1183.112	892.392
206.519	15.405	1181.870	891.248
207.534	15.375	1180.768	890.181
208.548	15.428	1179.838	889.685
209.563	15.360	1179.414	888.923
210.577	15.388	1178.568	888.357
211.592	15.380	1177.259	887.249
212.607	15.681	1176.419	888.127
213.621	15.655	1175.488	887.209
214.636	15.634	1174.455	886.239
215.650	15.624	1173.634	885.489
216.665	15.708	1172.926	885.317
217.680	15.716	1172.276	884.791
218.694	15.718	1171.310	883.996
219.709	15.690	1170.598	883.233
220.723	15.622	1169.968	882.322
221.738	15.791	1168.689	882.166
222.753	15.818	1168.312	881.944
223.767	15.783	1167.833	881.323
224.782	15.915	1166.766	881.126
225.796	15.967	1166.161	880.867
226.811	15.965	1165.450	880.241
227.826	15.833	1165.031	879.158
228.840	15.843	1164.398	878.652
229.855	15.675	1163.755	877.215
230.869	15.759	1162.693	876.772
231.884	15.738	1161.866	875.960
232.899	15.690	1161.328	875.232
233.913	15.708	1160.567	874.674
234.928	15.712	1159.340	873.693
235.942	15.676	1158.983	873.157
236.957	15.661	1158.349	872.523
237.972	15.661	1157.486	871.797
238.986	15.700	1157.236	871.734
240.001	15.795	1156.164	871.343
241.015	15.740	1155.266	870.304
242.030	15.876	1154.314	870.213
243.045	15.832	1153.643	869.404
244.059	16.002	1152.763	869.540
245.074	16.050	1151.840	869.014
246.088	16.012	1151.198	868.257
247.103	16.106	1150.579	868.199
248.117	16.002	1150.205	867.305
249.132	16.237	1148.923	867.468
250.147	16.311	1148.345	867.336
251.161	16.426	1147.220	866.997
252.176	16.443	1146.857	866.733
253.190	16.377	1146.736	866.226
254.205	16.417	1146.115	865.884
255.220	16.415	1145.562	865.382
256.234	16.377	1145.088	864.753
257.249	16.444	1144.065	864.248
258.263	16.332	1143.754	863.362
259.278	16.495	1142.547	863.205
260.293	16.482	1142.371	862.931
261.307	16.549	1141.522	862.555
262.322	16.538	1141.070	862.080
263.336	16.637	1140.229	861.876
264.351	16.605	1139.960	861.432
265.366	16.531	1139.470	860.607
266.380	16.522	1138.499	859.756
267.395	16.569	1137.522	859.177
268.409	16.600	1136.857	858.757
269.424	16.561	1136.270	858.039
270.439	16.472	1135.856	857.201
271.453	16.451	1134.952	856.336
272.468	16.487	1133.737	855.524
273.482	16.412	1133.148	854.626
274.497	16.470	1132.892	854.651
275.512	16.539	1131.958	854.221
276.526	16.517	1131.106	853.389
277.541	16.568	1130.304	852.967
278.555	16.640	1129.628	852.741
279.570	16.751	1128.600	852.449
280.585	16.679	1128.030	851.579
281.599	16.755	1127.373	851.391
282.614	16.773	1125.783	850.207
283.628	16.710	1124.997	849.220
284.643	16.682	1124.080	848.314
285.657	16.665	1123.445	847.677
286.672	16.664	1122.446	846.840
287.687	16.673	1121.816	846.336
288.701	16.849	1120.906	846.455
289.716	16.764	1120.070	845.324
290.730	16.685	1119.800	844.652
291.745	16.771	1118.708	844.181
292.760	16.824	1118.486	844.203
293.774	16.890	1118.004	844.095
294.789	16.882	1117.406	843.529
295.803	16.914	1116.371	842.829
296.818	16.820	1115.525	841.648
297.833	16.774	1115.219	841.114
298.847	16.858	1114.262	840.737
299.862	16.829	1113.611	840.025
300.876	16.906	1112.994	839.867
301.891	17.014	1112.019	839.592
302.906	17.030	1111.693	839.352
303.920	16.964	1111.324	838.671
304.935	17.129	1110.364	838.690
305.949	17.136	1109.944	838.333
306.964	17.228	1108.834	837.872
307.979	17.130	1107.972	836.663
308.993	17.102	1107.397	836.019
310.008	17.274	1106.434	836.062
311.022	17.197	1105.975	835.264
312.037	17.258	1105.151	834.871
313.052	17.113	1103.870	833.114
314.066	17.161	1102.841	832.502
315.081	17.096	1101.800	831.321
316.095	17.009	1101.561	830.644
317.110	17.068	1100.789	830.277
318.125	17.044	1099.937	829.444
319.139	17.018	1099.621	829.002
320.154	17.137	1098.699	828.816
321.168	16.988	1097.935	827.439
322.183	17.005	1097.733	827.298
323.197	17.165	1097.054	827.492
324.212	17.149	1096.276	826.753
325.227	17.073	1095.935	826.052
326.241	17.099	1095.186	825.540
327.256	17.055	1094.621	824.830
328.270	17.188	1093.116	824.270
329.285	17.223	1092.775	824.108
330.300	17.232	1091.612	823.200
331.314	17.134	1090.746	822.002
332.329	17.297	1089.498	821.775
333.343	17.281	1089.187	821.389
334.358	17.229	1088.298	820.396
335.373	17.307	1087.614	820.186
336.387	17.470	1086.869	820.335
337.402	17.363	1086.261	819.290
338.416	17.407	1085.464	818.829
339.431	17.523	1084.535	818.612
340.446	17.498	1084.575	818.451
341.460	17.574	1084.146	818.419
342.475	17.744	1082.597	817.991
343.489	17.616	1082.119	816.945
344.504	17.600	1081.140	816.056
345.519	17.661	1080.448	815.756
346.533	17.639	1079.874	815.145
347.548	17.722	1078.943	814.764
348.562	17.649	1078.207	813.790
349.577	17.627	1077.441	813.034
350.592	17.520	1076.731	811.915
351.606	17.545	1075.794	811.257
352.621	17.554	1075.212	810.789
353.635	17.435	1074.515	809.625
354.650	17.516	1073.758	809.370
355.665	17.534	1073.188	808.952
356.679	17.579	1072.735	808.755
357.694	17.603	1072.029	808.261
358.708	17.696	1071.508	808.239
359.723	17.597	1070.772	807.144
360.738	17.761	1070.196	807.417
361.752	17.602	1069.873	806.346
362.767	17.768	1069.005	806.409
363.781	17.831	1068.304	806.104
364.796	17.830	1067.855	805.688
365.810	17.980	1066.796	805.528
366.825	17.984	1066.460	805.222
367.840	17.986	1065.978	804.793
368.854	18.149	1065.162	804.876
369.869	18.111	1064.948	804.461
370.883	18.150	1063.881	803.769
371.898	17.919	1063.274	802.155
372.913	18.035	1062.866	802.318
373.927	18.025	1062.032	801.573
374.942	18.043	1061.423	801.125
375.956	18.023	1061.095	800.716
376.971	18.048	1060.177	800.070
377.986	18.030	1060.117	799.867
379.000	18.229	1059.197	800.033
380.015	18.236	1058.742	799.649
381.029	18.249	1058.152	799.197
382.044	18.192	1057.673	798.498
383.059	18.227	1056.570	797.756
384.073	18.251	1056.085	797.432
385.088	18.245	1055.436	796.842
386.102	18.281	1054.137	795.959
387.117	18.190	1053.057	794.650
388.132	18.053	1052.265	793.345
389.146	18.070	1051.424	792.722
390.161	18.225	1050.389	792.589
391.175	18.225	1049.985	792.214
392.190	18.270	1049.536	792.013
393.205	18.392	1048.644	791.833
394.219	18.217	1048.137	790.573
395.234	18.306	1047.148	790.167
396.248	18.272	1045.935	789.026
397.263	18.348	1044.467	788.200
398.278	18.204	1044.399	787.414
399.292	18.090	1043.473	786.121
400.307	18.221	1042.624	786.016
401.321	18.222	1042.398	785.780
402.336	18.140	1041.858	784.927
403.350	18.174	1040.966	784.342
404.365	18.267	1039.938	783.924
405.380	18.247	1039.714	783.592
406.394	18.321	1039.023	783.342
407.409	18.485	1038.320	783.495
408.423	18.578	1037.259	783.048
409.438	18.622	1036.725	782.774
410.453	18.601	1035.989	782.055
411.467	18.684	1035.246	781.805
412.482	18.733	1034.675	781.527
413.496	18.707	1034.245	781.014
414.511	18.706	1033.172	780.130
415.526	18.815	1033.183	780.566
416.540	18.801	1032.537	779.942
417.555	18.804	1032.286	779.696
418.569	18.728	1031.691	778.835
419.584	18.785	1031.015	778.513
420.599	18.781	1030.911	778.350
421.613	150.867	1400.699	1795.640
422.628	137.673	1454.547	1795.727
