DTS Sentinel unit serial number:	SN413079Multiplexer serial number:	ORYXHardware model number:	OX4-SRSoftware version number:	ORYX F/W v4.00 Oryx Data Collector v3.7.2.0data status	okinstallation	princeton_trtdifferential loss correction	single-endedforward channel	channel 2reverse channel	N/Adate	2019/09/18time	20:11:35forward acquisition time	60.00reverse acquisition time	0.00gamma	496.2192k internal	0.2334k external	0.2334temperature offset calibration	1.0033default loss term (dB/km)	0.3790temperature slope calibration	1.0000multiplexer offset coefficient	1.0000multiplexer slope coefficient	1.0000fibre end	0.00T internal ref (°C)	29.55T ext. ref 1 (°C)	1.00T ext. ref 2 (°C)	20.14length (m)	temperature (°C)	Stokes	anti-Stokes-747.200	-129.486	-0.123	0.017
-746.185	-79.699	-0.114	-0.038
-745.171	-200.000	-0.009	0.118
-744.156	45.239	-0.309	0.286
-743.142	129.143	0.231	-0.296
-742.127	-185.985	-0.167	0.002
-741.112	-200.000	-0.050	-0.348
-740.098	-200.000	-0.037	0.193
-739.083	35.203	0.085	-0.075
-738.069	-200.000	-0.027	-0.278
-737.054	-116.953	-0.090	0.017
-736.039	-171.953	-0.264	-0.009
-735.025	321.200	0.040	0.076
-734.010	-19.625	-0.388	-0.241
-732.996	380.627	-0.135	0.278
-731.981	800.000	-0.124	0.450
-730.966	128.804	0.072	-0.093
-729.952	-73.452	-0.341	-0.125
-728.937	1.015	0.109	-0.079
-727.923	800.000	0.048	-0.178
-726.908	190.240	-0.162	-0.245
-725.894	66.110	-0.153	-0.156
-724.879	221.185	-0.080	0.130
-723.864	800.000	0.064	-0.281
-722.850	379.839	-0.162	0.332
-721.835	-17.470	-0.269	-0.170
-720.821	-33.959	-0.334	-0.185
-719.806	78.467	0.202	0.217
-718.791	800.000	0.033	0.134
-717.777	800.000	-0.089	-0.288
-716.762	-19.296	-0.506	-0.315
-715.748	-23.243	-0.053	-0.032
-714.733	800.000	0.024	0.089
-713.718	-124.363	-0.273	-0.043
-712.704	-200.000	0.080	-0.394
-711.689	-91.831	0.101	0.029
-710.675	-168.606	-0.275	-0.010
-709.660	-170.132	0.347	-0.012
-708.645	-58.248	-0.096	0.042
-707.631	-103.924	-0.196	-0.046
-706.616	800.000	0.030	0.128
-705.602	146.780	-0.194	0.261
-704.587	-173.986	0.154	-0.005
-703.572	214.454	-0.093	-0.147
-702.558	-165.476	0.131	-0.006
-701.543	661.244	0.032	0.083
-700.529	245.528	-0.072	-0.121
-699.514	-200.000	0.035	0.365
-698.499	-60.486	0.260	-0.111
-697.485	-90.336	0.332	-0.097
-696.470	-200.000	-0.040	0.185
-695.456	800.000	-0.049	0.178
-694.441	126.022	-0.042	0.053
-693.426	82.718	-0.226	-0.246
-692.412	-8.940	0.292	-0.196
-691.397	-98.665	0.236	-0.060
-690.383	-200.000	-0.025	-0.258
-689.368	226.392	-0.027	-0.044
-688.354	-147.105	0.224	-0.019
-687.339	26.091	-0.164	-0.137
-686.324	-134.371	-0.295	0.036
-685.310	457.146	0.122	-0.271
-684.295	-87.232	0.037	-0.011
-683.281	76.317	-0.149	0.158
-682.266	21.431	-0.185	-0.151
-681.251	800.000	0.041	-0.118
-680.237	-175.662	-0.185	-0.005
-679.222	-113.613	0.340	0.067
-678.208	-141.445	0.294	0.030
-677.193	164.881	-0.097	-0.138
-676.178	-101.270	-0.185	0.045
-675.164	-200.000	-0.000	0.026
-674.149	220.391	-0.185	0.297
-673.135	417.551	0.076	-0.163
-672.120	-164.412	0.254	0.012
-671.105	-33.156	0.396	-0.220
-670.091	-38.281	-0.241	-0.128
-669.076	37.203	0.075	0.066
-668.062	-200.000	0.031	0.389
-667.047	194.822	0.185	-0.281
-666.032	-200.000	0.027	-0.244
-665.018	-13.214	-0.047	-0.030
-664.003	167.474	0.104	-0.148
-662.989	2.466	-0.180	-0.131
-661.974	22.532	-0.293	-0.240
-660.959	-128.753	0.335	-0.047
-659.945	-40.001	-0.169	-0.088
-658.930	62.474	0.052	0.052
-657.916	-4.866	-0.051	-0.036
-656.901	437.728	0.167	-0.364
-655.886	-200.000	0.065	-0.431
-654.872	-120.072	-0.590	-0.101
-653.857	250.426	-0.139	-0.237
-652.843	406.583	0.071	0.150
-651.828	-56.797	0.166	0.073
-650.814	-200.000	0.034	-0.175
-649.799	147.293	-0.186	-0.250
-648.784	-7.573	0.252	-0.171
-647.770	117.522	0.165	-0.203
-646.755	-200.000	-0.001	0.052
-645.741	-200.000	-0.043	0.205
-644.726	-104.654	-0.193	0.045
-643.711	31.615	0.126	0.109
-642.697	651.248	0.044	-0.112
-641.682	-200.000	0.013	-0.061
-640.668	561.817	-0.085	-0.205
-639.653	-200.000	0.020	0.557
-638.638	800.000	-0.087	-0.246
-637.624	-4.692	0.253	0.175
-636.609	-109.427	-0.210	-0.045
-635.595	-200.000	0.002	0.100
-634.580	-200.000	0.006	-0.033
-633.565	-106.300	-0.253	-0.057
-632.551	209.617	-0.081	-0.128
-631.536	392.979	-0.147	0.307
-630.522	144.470	0.182	0.244
-629.507	-83.749	-0.210	-0.067
-628.492	89.757	0.120	-0.134
-627.478	800.000	0.069	0.279
-626.463	-93.227	0.231	-0.064
-625.449	-91.633	0.168	0.048
-624.434	-200.000	-0.005	0.140
-623.419	73.325	0.267	-0.280
-622.405	-117.926	-0.099	-0.018
-621.390	-100.133	0.054	0.013
-620.376	534.793	-0.102	0.242
-619.361	320.546	0.102	-0.193
-618.346	2.800	-0.134	-0.097
-617.332	405.877	-0.080	0.168
-616.317	-200.000	0.006	0.090
-615.303	-82.396	-0.539	0.175
-614.288	800.000	-0.046	-0.128
-613.273	64.241	0.088	-0.089
-612.259	55.554	-0.180	0.174
-611.244	167.668	0.141	-0.201
-610.230	103.794	-0.150	-0.176
-609.215	147.180	0.099	0.133
-608.201	21.107	-0.082	0.067
-607.186	-40.836	-0.300	0.155
-606.171	-95.883	-0.385	0.103
-605.157	-74.313	-0.222	0.080
-604.142	272.316	0.118	-0.208
-603.128	-42.459	-0.102	-0.052
-602.113	-187.818	-0.077	0.001
-601.098	176.223	-0.068	-0.098
-600.084	712.308	0.160	-0.423
-599.069	41.673	-0.045	-0.040
-598.055	800.000	-0.047	0.195
-597.040	515.081	-0.231	-0.539
-596.025	-3.391	-0.261	-0.181
-595.011	39.063	0.249	-0.222
-593.996	3.355	-0.034	0.024
-592.982	-200.000	0.000	-0.135
-591.967	-156.342	0.098	-0.006
-590.952	667.757	0.030	-0.077
-589.938	-50.293	-0.085	0.040
-588.923	15.997	-0.023	-0.018
-587.909	-93.971	0.077	0.021
-586.894	-22.163	0.031	0.019
-585.879	-200.000	-0.044	-0.287
-584.865	730.631	0.032	-0.086
-583.850	97.958	-0.206	0.237
-582.836	-51.047	-0.176	0.082
-581.821	-200.000	-0.005	0.592
-580.806	464.248	0.161	0.360
-579.792	79.056	0.259	0.277
-578.777	45.496	-0.210	-0.193
-577.763	91.777	0.185	0.207
-576.748	26.810	-0.391	0.327
-575.733	138.525	0.050	0.065
-574.719	314.924	0.316	0.595
-573.704	-141.875	-0.173	0.017
-572.690	-200.000	0.032	-0.342
-571.675	-113.300	-0.294	0.058
-570.661	-71.390	0.127	0.048
-569.646	-149.036	-0.174	-0.014
-568.631	-109.390	0.063	0.013
-567.617	-66.812	0.087	0.035
-566.602	-14.151	-0.266	-0.171
-565.588	800.000	0.034	-0.116
-564.573	13.588	-0.219	-0.170
-563.558	-200.000	-0.005	0.106
-562.544	-63.929	0.218	-0.089
-561.529	-106.274	0.197	-0.044
-560.515	-137.975	-0.295	-0.033
-559.500	378.365	0.127	-0.259
-558.485	-111.177	0.186	-0.038
-557.471	-200.000	-0.042	0.267
-556.456	-109.721	-0.115	0.024
-555.442	379.803	-0.026	0.054
-554.427	-200.000	-0.039	-0.187
-553.412	-144.626	-0.046	0.004
-552.398	-200.000	0.007	0.078
-551.383	-78.686	-0.097	-0.033
-550.369	694.546	0.145	-0.381
-549.354	-200.000	-0.023	-0.140
-548.339	-200.000	0.012	0.293
-547.325	-119.107	0.067	-0.012
-546.310	-38.901	0.224	-0.118
-545.296	-161.652	-0.094	-0.005
-544.281	-150.759	0.442	-0.033
-543.266	408.324	0.092	-0.195
-542.252	266.099	0.263	0.458
-541.237	8.431	0.223	0.168
-540.223	-200.000	-0.000	-0.109
-539.208	24.759	-0.069	0.057
-538.193	77.784	0.160	-0.169
-537.179	-155.843	0.354	0.023
-536.164	-81.710	-0.322	0.105
-535.150	27.017	-0.143	0.119
-534.135	-83.783	-0.307	0.097
-533.121	-86.179	0.209	-0.064
-532.106	394.621	-0.108	0.223
-531.091	13.587	0.196	0.152
-530.077	-85.694	0.107	0.033
-529.062	800.000	-0.036	-0.145
-528.048	-200.000	-0.016	0.075
-527.033	800.000	0.045	-0.172
-526.018	95.134	-0.043	0.049
-525.004	-74.768	-0.145	0.052
-523.989	168.103	-0.285	-0.404
-522.975	24.944	-0.096	0.079
-521.960	-100.854	0.083	-0.020
-520.945	175.706	-0.218	-0.315
-519.931	87.583	-0.257	-0.283
-518.916	151.629	-0.069	0.094
-517.902	498.511	0.049	-0.112
-516.887	3.145	0.102	0.074
-515.872	49.126	-0.158	-0.148
-514.858	-56.306	0.220	-0.097
-513.843	-32.033	-0.275	-0.153
-512.829	-146.780	0.345	-0.030
-511.814	-200.000	0.045	-0.389
-510.799	-118.675	0.178	0.031
-509.785	-200.000	-0.034	0.271
-508.770	-130.804	0.436	0.058
-507.756	271.765	0.126	-0.222
-506.741	-115.738	0.229	-0.043
-505.726	-199.077	0.036	0.000
-504.712	-135.218	-0.263	-0.031
-503.697	-200.000	0.028	0.264
-502.683	-24.126	-0.232	0.138
-501.668	15.242	-0.147	-0.115
-500.653	309.408	0.032	-0.059
-499.639	-80.131	0.295	0.098
-498.624	-29.905	-0.125	0.071
-497.610	112.906	-0.061	0.073
-496.595	72.159	0.301	-0.312
-495.581	-200.000	-0.026	-0.185
-494.566	-200.000	0.007	0.065
-493.551	-57.109	-0.256	0.112
-492.537	34.807	0.108	0.094
-491.522	-47.066	0.088	0.043
-490.508	-91.337	-0.239	-0.068
-489.493	-200.000	-0.020	-0.091
-488.478	-200.000	-0.020	-0.126
-487.464	128.461	-0.063	0.080
-486.449	135.741	-0.195	-0.252
-485.435	184.237	-0.121	0.178
-484.420	408.966	-0.192	0.404
-483.405	-32.147	-0.214	-0.119
-482.391	-26.238	0.165	0.096
-481.376	-29.034	0.071	0.041
-480.362	-167.003	0.172	-0.007
-479.347	109.694	0.266	0.317
-478.332	-200.000	0.010	-0.149
-477.318	185.049	0.190	-0.281
-476.303	358.980	-0.156	0.311
-475.289	-92.898	-0.169	-0.047
-474.274	-78.030	0.243	-0.083
-473.259	765.113	-0.044	0.120
-472.245	44.603	-0.200	0.182
-471.230	-117.723	0.162	-0.029
-470.216	-200.000	0.010	-0.207
-469.201	-61.623	0.079	-0.033
-468.186	49.800	-0.212	0.198
-467.172	-13.089	0.188	0.122
-466.157	2.916	-0.356	-0.257
-465.143	-93.190	-0.136	-0.037
-464.128	334.343	-0.032	0.061
-463.113	-19.221	0.360	0.222
-462.099	-14.150	-0.202	0.130
-461.084	299.507	0.155	-0.284
-460.070	-129.493	0.222	0.031
-459.055	-32.194	0.148	-0.082
-458.040	295.001	0.114	0.208
-457.026	-180.678	0.279	0.006
-456.011	-200.000	0.100	0.444
-454.997	-50.500	-0.293	0.138
-453.982	768.326	0.069	0.188
-452.968	17.421	-0.475	-0.375
-451.953	-200.000	-0.085	0.394
-450.938	-157.388	-0.212	-0.013
-449.924	72.492	0.162	0.168
-448.909	449.914	0.081	-0.177
-447.895	186.422	0.087	0.128
-446.880	762.738	-0.106	-0.285
-445.865	-23.133	0.237	-0.142
-444.851	49.055	-0.126	0.117
-443.836	196.081	0.051	-0.077
-442.822	-1.755	-0.344	-0.241
-441.807	-129.068	-0.145	-0.020
-440.792	38.463	0.136	-0.120
-439.778	-71.595	-0.164	-0.061
-438.763	-197.972	-0.243	-0.001
-437.749	800.000	0.072	-0.240
-436.734	-51.110	-0.404	0.188
-435.719	-200.000	-0.027	0.194
-434.705	132.083	0.047	0.060
-433.690	-59.985	0.343	0.146
-432.676	-200.000	0.018	0.167
-431.661	157.037	-0.030	0.041
-430.646	-96.493	0.154	0.040
-429.632	-45.468	0.166	-0.082
-428.617	800.000	-0.074	-0.240
-427.603	-22.816	0.187	-0.112
-426.588	-14.240	0.181	0.116
-425.573	800.000	-0.059	0.232
-424.559	800.000	0.050	0.159
-423.544	-170.500	0.190	-0.007
-422.530	-85.707	0.316	-0.097
-421.515	74.496	-0.061	-0.064
-420.500	190.774	-0.030	-0.045
-419.486	-14.611	-0.206	-0.131
-418.471	18.453	-0.119	-0.094
-417.457	-169.994	0.093	-0.003
-416.442	-86.673	0.282	0.086
-415.428	-81.859	0.320	0.104
-414.413	-73.679	-0.244	-0.088
-413.398	-48.085	-0.265	0.127
-412.384	-11.657	-0.130	0.085
-411.369	-138.577	-0.138	-0.015
-410.355	-200.000	-0.052	-0.233
-409.340	428.135	0.075	-0.162
-408.325	-200.000	0.046	0.471
-407.311	-80.694	0.096	-0.032
-406.296	-114.677	-0.274	-0.052
-405.282	-90.486	-0.236	-0.068
-404.267	-11.368	0.098	-0.064
-403.252	800.000	0.112	-0.310
-402.238	-45.249	0.073	-0.036
-401.223	800.000	0.042	-0.119
-400.209	-34.313	-0.036	-0.019
-399.194	18.984	-0.150	-0.119
-398.179	771.597	0.087	0.235
-397.165	-122.582	0.215	0.035
-396.150	-66.402	-0.045	-0.018
-395.136	107.397	-0.287	-0.339
-394.121	-48.384	-0.055	0.026
-393.106	733.983	0.090	-0.238
-392.092	800.000	-0.048	-0.162
-391.077	-103.104	0.243	0.057
-390.063	150.120	-0.084	-0.113
-389.048	-18.845	0.314	-0.194
-388.033	-11.321	0.080	0.052
-387.019	-58.651	0.247	0.106
-386.004	-200.000	0.021	0.109
-384.990	800.000	0.119	0.456
-383.975	128.229	0.008	0.010
-382.960	-150.839	0.207	0.016
-381.946	-9.655	-0.105	0.069
-380.931	571.045	0.013	0.031
-379.917	96.515	0.313	-0.355
-378.902	48.979	-0.083	-0.077
-377.888	-2.318	0.083	0.058
-376.873	39.097	-0.146	0.130
-375.858	-200.000	-0.023	-0.180
-374.844	-200.000	-0.004	-0.158
-373.829	800.000	0.052	0.221
-372.815	84.286	-0.112	-0.122
-371.800	575.084	0.064	-0.154
-370.785	-200.000	0.041	0.289
-369.771	-19.294	-0.511	0.314
-368.756	-169.353	-0.258	-0.009
-367.742	800.000	0.075	0.229
-366.727	-2.633	-0.105	-0.073
-365.712	75.110	-0.073	-0.076
-364.698	-23.389	-0.380	0.226
-363.683	547.184	0.141	0.334
-362.669	800.000	-0.059	-0.215
-361.654	-1.661	-0.228	-0.159
-360.639	-45.080	0.158	0.078
-359.625	800.000	-0.088	0.334
-358.610	-92.311	-0.378	0.106
-357.596	-94.148	0.219	0.060
-356.581	-200.000	-0.021	0.234
-355.566	-54.724	0.287	-0.129
-354.552	-90.381	0.268	-0.077
-353.537	230.715	-0.212	-0.343
-352.523	56.403	0.140	0.135
-351.508	-22.240	0.072	0.043
-350.493	70.786	-0.208	0.213
-349.479	-25.321	-0.103	-0.060
-348.464	74.168	0.087	-0.090
-347.450	-95.219	0.218	0.058
-346.435	-10.281	-0.144	0.094
-345.420	69.232	-0.195	0.198
-344.406	24.317	-0.040	0.033
-343.391	-200.000	-0.061	-0.516
-342.377	800.000	0.039	-0.148
-341.362	-200.000	-0.065	0.340
-340.348	-200.000	0.010	-0.206
-339.333	40.513	-0.157	-0.140
-338.318	800.000	0.013	-0.044
-337.304	-140.600	-0.300	0.031
-336.289	143.376	-0.219	-0.288
-335.275	203.057	-0.104	0.159
-334.260	800.000	-0.064	-0.262
-333.245	22.696	0.161	-0.131
-332.231	38.101	-0.429	0.378
-331.216	28.145	-0.111	0.093
-330.202	-133.697	0.265	0.033
-329.187	131.247	-0.245	-0.311
-328.172	800.000	0.024	-0.092
-327.158	-200.000	0.005	0.135
-326.143	40.511	-0.379	0.337
-325.129	341.314	0.121	-0.235
-324.114	424.348	-0.125	-0.265
-323.099	-200.000	0.013	0.083
-322.085	-126.225	-0.167	-0.025
-321.070	-31.247	0.210	-0.117
-320.056	800.000	-0.100	0.320
-319.041	50.191	-0.347	0.324
-318.026	-138.332	0.066	0.007
-317.012	800.000	0.041	0.114
-315.997	800.000	-0.026	-0.088
-314.983	5.220	0.260	0.189
-313.968	-53.527	-0.170	0.077
-312.953	-56.921	0.262	0.114
-311.939	263.182	-0.097	0.167
-310.924	404.289	0.157	-0.327
-309.910	67.379	0.031	-0.031
-308.895	743.511	-0.060	-0.160
-307.880	-200.000	-0.056	0.314
-306.866	-138.936	0.381	-0.041
-305.851	135.635	-0.229	0.294
-304.837	800.000	-0.027	-0.078
-303.822	-127.339	0.098	-0.014
-302.807	-89.563	-0.356	-0.103
-301.793	-188.126	0.067	0.001
-300.778	-87.888	0.145	-0.043
-299.764	125.825	-0.145	0.180
-298.749	39.491	0.110	0.097
-297.735	-22.528	0.122	-0.073
-296.720	-185.037	0.099	0.002
-295.705	46.812	0.042	-0.038
-294.691	800.000	0.026	0.091
-293.676	4.279	0.233	0.169
-292.662	-77.933	0.261	0.089
-291.647	46.200	0.143	-0.131
-290.632	7.588	0.254	-0.187
-289.618	258.165	0.208	-0.353
-288.603	-71.409	0.490	-0.181
-287.589	467.213	-0.110	-0.243
-286.574	3.424	-0.217	-0.156
-285.559	-141.423	-0.062	0.006
-284.545	-142.861	-0.189	0.018
-283.530	143.405	0.106	-0.139
-282.516	-96.474	0.099	0.026
-281.501	-96.677	-0.107	-0.028
-280.486	120.843	0.097	-0.118
-279.472	53.432	-0.118	0.111
-278.457	-200.000	-0.004	-0.131
-277.443	-200.000	-0.014	-0.156
-276.428	22.991	-0.168	0.136
-275.413	210.841	0.045	0.070
-274.399	-87.476	-0.188	0.056
-273.384	361.211	0.175	-0.346
-272.370	-77.972	0.176	0.060
-271.355	-54.318	0.038	0.017
-270.340	-64.403	0.219	-0.088
-269.326	-133.972	-0.430	-0.053
-268.311	515.288	0.024	-0.055
-267.297	246.284	0.043	0.072
-266.282	-105.593	-0.348	0.078
-265.267	800.000	-0.108	0.453
-264.253	-200.000	-0.024	0.153
-263.238	-83.492	0.478	0.151
-262.224	46.833	0.157	0.144
-261.209	418.432	0.131	-0.277
-260.195	-48.277	0.020	-0.009
-259.180	-85.600	-0.179	0.055
-258.165	-88.597	0.081	-0.024
-257.151	800.000	0.059	-0.168
-256.136	-200.000	0.011	-0.157
-255.122	-200.000	0.021	0.133
-254.107	750.146	0.039	-0.103
-253.092	33.176	0.125	0.106
-252.078	800.000	-0.131	-0.471
-251.063	150.100	-0.241	0.322
-250.049	-200.000	-0.002	0.087
-249.034	-120.880	0.186	0.031
-248.019	105.529	0.219	-0.256
-247.005	-200.000	0.021	0.103
-245.990	-30.048	-0.312	-0.175
-244.976	257.921	-0.121	-0.205
-243.961	-200.000	0.009	-0.214
-242.946	-114.430	0.302	-0.057
-241.932	-200.000	-0.010	-0.095
-240.917	85.472	0.055	-0.060
-239.903	-50.636	0.091	0.042
-238.888	-14.982	-0.134	-0.085
-237.873	-19.786	0.373	-0.227
-236.859	266.290	-0.079	-0.137
-235.844	800.000	0.081	-0.246
-234.830	105.165	0.109	-0.127
-233.815	350.242	0.116	0.226
-232.800	-200.000	0.034	-0.304
-231.786	662.340	0.021	-0.055
-230.771	-117.511	-0.074	-0.013
-229.757	23.871	0.193	0.157
-228.742	-200.000	0.052	-0.426
-227.727	-200.000	0.057	0.262
-226.713	-70.275	0.093	-0.035
-225.698	292.089	0.035	0.062
-224.684	-77.585	-0.247	-0.084
-223.669	-88.815	0.161	-0.047
-222.655	-31.434	-0.433	-0.240
-221.640	-73.872	0.254	0.091
-220.625	-200.000	-0.014	-0.162
-219.611	-80.558	0.194	0.064
-218.596	-88.971	0.155	0.045
-217.582	-150.846	-0.194	-0.014
-216.567	-175.924	-0.106	0.003
-215.552	-200.000	-0.012	0.392
-214.538	100.950	-0.206	0.236
-213.523	-200.000	-0.032	-0.208
-212.509	1.164	-0.284	0.201
-211.494	-200.000	-0.047	0.380
-210.479	800.000	0.050	0.181
-209.465	-137.462	-0.063	0.007
-208.450	-64.710	0.299	-0.119
-207.436	-155.559	-0.146	0.009
-206.421	130.564	-0.055	0.069
-205.406	158.385	0.012	-0.017
-204.392	-200.000	0.058	-0.267
-203.377	-78.621	0.118	0.040
-202.363	-1.336	-0.161	-0.112
-201.348	531.733	-0.130	0.303
-200.333	-67.020	0.318	0.123
-199.319	27.513	-0.105	-0.087
-198.304	269.422	0.097	0.167
-197.290	-83.046	-0.100	-0.032
-196.275	-94.050	-0.130	0.035
-195.260	316.179	0.079	0.147
-194.246	19.799	-0.209	-0.166
-193.231	137.616	-0.168	-0.217
-192.217	67.598	0.056	-0.056
-191.202	166.487	0.068	-0.094
-190.187	-17.325	-0.173	0.107
-189.173	-53.612	-0.164	-0.074
-188.158	-90.573	0.214	0.061
-187.144	200.494	0.227	0.343
-186.129	-173.171	0.218	-0.007
-185.114	46.858	0.223	0.204
-184.100	-18.260	0.356	-0.219
-183.085	182.077	-0.062	0.089
-182.071	-134.611	-0.167	-0.020
-181.056	35.015	0.410	0.353
-180.042	800.000	0.029	0.118
-179.027	-39.017	0.161	-0.083
-178.012	70.318	0.125	0.127
-176.998	-42.556	-0.228	-0.114
-175.983	670.182	-0.070	-0.178
-174.969	-57.345	-0.222	-0.096
-173.954	257.325	0.159	0.269
-172.939	120.613	0.140	0.171
-171.925	513.820	-0.046	-0.105
-170.910	-67.963	0.275	-0.106
-169.896	-200.000	-0.058	0.341
-168.881	-92.198	0.346	0.096
-167.866	73.634	0.317	-0.326
-166.852	-147.589	0.182	0.015
-165.837	-200.000	0.004	-0.075
-164.823	686.558	0.182	0.467
-163.808	254.170	0.129	-0.216
-162.793	-116.459	-0.413	0.075
-161.779	-5.133	0.131	0.088
-160.764	77.741	-0.101	-0.105
-159.750	264.957	0.059	-0.100
-158.735	48.077	0.048	0.044
-157.720	26.418	0.130	-0.107
-156.706	0.298	-0.105	0.073
-155.691	19.417	-0.270	-0.213
-154.677	-200.000	0.041	0.203
-153.662	-200.000	-0.016	0.142
-152.647	-105.305	-0.587	-0.131
-151.633	-200.000	-0.003	0.062
-150.618	59.051	0.227	-0.220
-149.604	22.643	0.176	-0.141
-148.589	36.331	0.116	0.101
-147.574	265.348	-0.094	0.161
-146.560	50.039	-0.259	-0.240
-145.545	33.151	-0.132	-0.112
-144.531	-23.490	0.178	0.105
-143.516	619.991	0.053	-0.132
-142.502	-76.979	0.179	-0.061
-141.487	301.864	0.018	0.032
-140.472	-123.976	0.227	0.035
-139.458	40.612	-0.141	-0.125
-138.443	2.361	0.201	-0.143
-137.429	-200.000	0.096	0.438
-136.414	344.447	0.076	0.146
-135.399	-64.954	0.246	0.098
-134.385	-200.000	-0.313	-0.001
-133.370	-85.412	-0.219	-0.067
-132.356	419.151	-0.163	-0.342
-131.341	-25.551	-0.117	-0.068
-130.326	-200.000	-0.034	-0.333
-129.312	-136.316	0.232	0.027
-128.297	191.891	0.105	-0.155
-127.283	211.119	0.092	-0.142
-126.268	-200.000	0.008	0.072
-125.253	-200.000	0.036	-0.168
-124.239	-200.000	0.001	-0.161
-123.224	12.901	-0.141	-0.107
-122.210	133.106	-0.158	0.201
-121.195	-200.000	-0.040	0.243
-120.180	-200.000	0.004	-0.026
-119.166	-96.263	-0.189	-0.049
-118.151	-134.543	0.242	-0.029
-117.137	-86.928	0.333	0.100
-116.122	42.140	0.137	-0.122
-115.107	-200.000	0.009	-0.483
-114.093	800.000	-0.042	-0.121
-113.078	25.414	0.196	0.160
-112.064	236.917	0.106	0.172
-111.049	46.266	-0.055	0.050
-110.034	-38.044	0.035	-0.018
-109.020	-147.590	-0.194	0.016
-108.005	334.072	-0.171	0.325
-106.991	800.000	0.094	0.264
-105.976	-200.000	0.004	-0.099
-104.962	800.000	-0.029	-0.124
-103.947	53.437	0.203	0.191
-102.932	362.189	-0.171	-0.336
-101.918	-113.314	-0.235	-0.045
-100.903	171.414	0.041	0.058
-99.889	13.318	0.273	-0.208
-98.874	382.289	0.050	0.100
-97.859	250.072	-0.070	0.116
-96.845	-200.000	0.005	0.054
-95.830	88.719	0.232	-0.253
-94.816	138.344	-0.182	0.234
-93.801	182.541	0.070	0.100
-92.786	-200.000	-0.011	0.116
-91.772	-165.828	-0.080	-0.003
-90.757	-35.499	-0.088	0.047
-89.743	-200.000	-0.014	0.170
-88.728	800.000	0.057	-0.240
-87.713	57.730	0.057	-0.054
-86.699	-200.000	-0.015	-0.075
-85.684	789.282	0.069	-0.186
-84.670	-200.000	-0.015	-0.167
-83.655	-79.279	-0.177	0.059
-82.640	-200.000	0.049	0.355
-81.626	2.100	-0.171	0.121
-80.611	105.333	0.122	0.141
-79.597	-139.386	0.166	0.017
-78.582	0.903	-0.068	-0.047
-77.567	42.787	-0.012	0.011
-76.553	242.158	0.101	-0.165
-75.538	18.787	0.262	0.205
-74.524	-200.000	0.000	-0.090
-73.509	-136.699	0.416	-0.047
-72.494	112.102	-0.166	0.196
-71.480	-36.539	0.252	-0.133
-70.465	800.000	0.038	0.125
-69.451	-95.846	0.015	0.004
-68.436	-50.611	0.176	-0.081
-67.422	-167.940	0.086	0.003
-66.407	388.063	0.127	-0.258
-65.392	-161.833	-0.380	0.019
-64.378	-137.246	-0.192	0.021
-63.363	800.000	0.094	-0.300
-62.349	800.000	0.052	-0.145
-61.334	200.013	-0.706	-1.060
-60.319	48.561	0.447	0.410
-59.305	275.403	-0.600	-1.040
-58.290	233.023	0.689	1.108
-57.276	269.356	0.912	1.566
-56.261	-200.000	110.568	686.930
-55.246	517.508	1484.440	3396.822
-54.232	149.538	2659.237	3523.465
-53.217	103.424	2275.600	2611.308
-52.203	39.150	1894.278	1657.325
-51.188	32.820	1688.120	1429.138
-50.173	30.201	1646.157	1374.180
-49.159	53.052	1699.957	1591.328
-48.144	53.535	1714.630	1608.616
-47.130	32.517	1673.151	1413.967
-46.115	29.735	1658.892	1381.111
-45.100	29.500	1654.230	1375.428
-44.086	29.416	1651.541	1372.509
-43.071	29.326	1649.542	1370.125
-42.057	29.307	1647.165	1367.956
-41.042	29.396	1645.456	1367.144
-40.027	29.407	1642.890	1365.037
-39.013	29.515	1641.172	1364.356
-37.998	29.390	1639.988	1362.393
-36.984	29.438	1638.477	1361.440
-35.969	29.592	1636.493	1360.870
-34.954	29.504	1635.608	1359.430
-33.940	29.519	1633.699	1357.902
-32.925	29.570	1632.108	1356.901
-31.911	29.559	1630.228	1355.202
-30.896	29.509	1628.791	1353.585
-29.881	29.525	1626.787	1351.985
-28.867	29.483	1625.461	1350.525
-27.852	29.448	1624.168	1349.141
-26.838	29.484	1623.094	1348.454
-25.823	29.521	1621.714	1347.526
-24.809	29.579	1620.252	1346.678
-23.794	29.584	1618.577	1345.268
-22.779	29.456	1617.618	1343.488
-21.765	29.564	1615.555	1342.508
-20.750	29.476	1614.399	1340.857
-19.736	29.587	1612.681	1340.180
-18.721	29.619	1611.637	1339.490
-17.706	29.638	1610.316	1338.475
-16.692	29.596	1608.608	1336.698
-15.677	29.585	1607.069	1335.290
-14.663	29.600	1605.911	1334.382
-13.648	29.604	1604.517	1333.199
-12.633	29.579	1603.017	1331.723
-11.619	29.602	1601.192	1330.319
-10.604	29.623	1599.626	1329.117
-9.590	29.640	1598.340	1328.117
-8.575	29.686	1597.260	1327.498
-7.560	29.606	1596.265	1326.044
-6.546	29.605	1595.085	1325.005
-5.531	29.546	1594.165	1323.764
-4.517	29.546	1593.164	1322.875
-3.502	29.599	1591.621	1321.927
-2.487	29.590	1590.210	1320.633
-1.473	28.879	1577.667	1305.124
-0.458	24.825	1556.095	1258.772
0.556	19.287	1555.011	1216.618
1.571	16.123	1576.307	1210.499
2.586	15.358	1587.958	1213.799
3.600	14.016	1536.074	1164.640
4.615	8.365	1430.653	1047.642
5.629	2.388	1369.839	965.391
6.644	1.067	1362.695	951.978
7.659	0.961	1361.616	950.473
8.673	1.004	1360.460	949.850
9.688	0.988	1358.584	948.354
10.702	0.847	1355.074	944.943
11.717	3.804	1358.644	965.842
12.731	10.750	1369.838	1017.349
13.746	16.305	1377.956	1058.196
14.761	17.624	1378.671	1066.912
15.775	17.000	1376.726	1061.414
16.790	16.003	1374.187	1053.135
17.804	15.226	1371.963	1046.484
18.819	14.887	1370.278	1042.993
19.834	14.553	1369.383	1040.137
20.848	14.360	1368.394	1038.089
21.863	14.069	1366.887	1035.042
22.877	13.952	1365.395	1033.096
23.892	14.012	1364.403	1032.629
24.907	13.876	1363.551	1031.046
25.921	13.810	1363.137	1030.233
26.936	13.945	1361.985	1030.107
27.950	14.079	1360.524	1029.740
28.965	13.999	1359.852	1028.644
29.980	14.000	1359.343	1028.176
30.994	14.114	1358.046	1027.807
32.009	14.126	1357.412	1027.311
33.023	14.155	1355.922	1026.273
34.038	14.068	1354.843	1024.832
35.053	14.088	1353.473	1023.823
36.067	14.106	1352.351	1022.996
37.082	14.166	1351.347	1022.513
38.096	14.052	1351.049	1021.497
39.111	14.053	1350.290	1020.842
40.126	14.007	1349.373	1019.772
41.140	13.909	1348.537	1018.453
42.155	13.986	1347.833	1018.303
43.169	13.904	1347.974	1017.814
44.184	13.904	1347.675	1017.502
45.199	13.957	1346.941	1017.180
46.213	13.980	1346.525	1016.920
47.228	14.008	1345.772	1016.428
48.242	14.088	1344.006	1015.494
49.257	14.053	1342.431	1014.002
50.271	14.054	1341.280	1013.051
51.286	14.033	1340.229	1012.036
52.301	14.098	1339.134	1011.514
53.315	13.999	1337.911	1009.898
54.330	13.934	1337.344	1008.991
55.344	14.067	1335.623	1008.406
56.359	13.930	1334.702	1006.792
57.374	13.810	1334.459	1005.795
58.388	13.854	1333.560	1005.295
59.403	13.796	1333.218	1004.596
60.417	13.805	1332.255	1003.837
61.432	13.848	1331.342	1003.318
62.447	13.796	1330.448	1002.243
63.461	13.802	1328.681	1000.856
64.476	13.834	1327.883	1000.363
65.490	13.867	1326.297	999.277
66.505	13.891	1325.156	998.471
67.520	13.910	1324.073	997.683
68.534	13.902	1323.150	996.848
69.549	13.854	1322.049	995.647
70.563	13.852	1321.021	994.770
71.578	13.881	1319.845	993.970
72.593	13.886	1318.969	993.251
73.607	13.734	1318.397	991.823
74.622	13.786	1317.023	991.015
75.636	13.799	1316.516	990.622
76.651	13.786	1316.226	990.240
77.666	13.870	1314.936	989.685
78.680	13.762	1314.754	988.817
79.695	13.776	1313.944	988.199
80.709	13.717	1313.407	987.359
81.724	13.804	1312.500	987.107
82.739	13.952	1311.213	986.930
83.753	13.919	1310.456	986.076
84.768	14.029	1309.429	985.871
85.782	14.027	1308.335	984.948
86.797	14.037	1306.560	983.584
87.812	13.956	1305.761	982.413
88.826	13.911	1304.702	981.265
89.841	13.971	1303.822	980.869
90.855	14.012	1303.025	980.426
91.870	14.050	1301.685	979.555
92.884	13.990	1300.983	978.585
93.899	13.989	1300.619	978.220
94.914	13.998	1299.440	977.302
95.928	14.065	1298.633	976.999
96.943	14.061	1297.907	976.347
97.957	13.964	1296.929	974.954
98.972	14.006	1295.746	974.225
99.987	14.066	1294.252	973.364
101.001	14.059	1293.192	972.442
102.016	14.023	1292.505	971.631
103.030	13.986	1292.012	970.957
104.045	14.042	1290.471	970.039
105.060	14.010	1289.538	969.068
106.074	13.980	1288.078	967.710
107.089	13.923	1286.859	966.377
108.103	13.892	1285.950	965.427
109.118	13.955	1284.532	964.641
110.133	13.993	1283.392	963.924
111.147	13.830	1282.163	961.968
112.162	14.043	1280.684	962.005
113.176	13.947	1279.468	960.451
114.191	13.900	1279.284	959.956
115.206	14.044	1277.250	959.180
116.220	14.040	1276.009	958.136
117.235	13.950	1275.074	956.836
118.249	13.963	1274.196	956.167
119.264	13.946	1273.437	955.413
120.279	13.961	1272.061	954.384
121.293	13.999	1270.960	953.689
122.308	13.869	1270.276	952.346
123.322	13.989	1269.051	952.029
124.337	13.957	1267.976	950.959
125.352	13.989	1266.492	949.943
126.366	13.874	1265.509	948.467
127.381	13.980	1264.865	948.502
128.395	13.942	1263.582	947.243
129.410	13.914	1263.032	946.585
130.424	14.017	1262.017	946.325
131.439	13.946	1261.168	945.206
132.454	14.032	1259.987	944.721
133.468	14.060	1259.414	944.371
134.483	14.031	1258.324	943.302
135.497	14.036	1256.987	942.248
136.512	13.953	1255.790	940.797
137.527	14.070	1254.757	940.601
138.541	14.065	1253.578	939.607
139.556	14.107	1251.813	938.436
140.570	14.072	1251.103	937.621
141.585	13.986	1250.068	936.281
142.600	14.137	1248.918	936.184
143.614	14.137	1247.706	935.192
144.629	14.144	1247.025	934.639
145.643	14.148	1245.379	933.348
146.658	14.178	1244.032	932.423
147.673	14.128	1242.728	931.081
148.687	14.140	1241.648	930.260
149.702	14.074	1240.296	928.793
150.716	14.002	1239.372	927.620
151.731	14.091	1238.095	927.077
152.746	14.084	1237.218	926.297
153.760	14.066	1235.685	924.967
154.775	14.175	1234.385	924.521
155.789	14.175	1233.526	923.795
156.804	14.160	1232.724	923.028
157.819	14.172	1231.482	922.083
158.833	14.318	1230.592	922.147
159.848	14.274	1229.566	921.053
160.862	14.354	1228.853	920.876
161.877	14.209	1227.144	918.716
162.892	14.256	1225.856	917.927
163.906	14.259	1225.544	917.629
164.921	14.184	1224.533	916.381
165.935	14.221	1224.108	916.182
166.950	14.273	1223.177	915.692
167.964	14.343	1222.276	915.321
168.979	14.350	1221.651	914.810
169.994	14.308	1220.880	913.921
171.008	14.397	1219.518	913.308
172.023	14.392	1219.084	912.878
173.037	14.300	1218.706	912.006
174.052	14.392	1217.465	911.503
175.067	14.370	1216.686	910.716
176.081	14.356	1215.413	909.611
177.096	14.442	1214.445	909.275
178.110	14.355	1213.506	908.016
179.125	14.353	1212.450	907.134
180.140	14.470	1210.563	906.280
181.154	14.412	1209.567	905.134
182.169	14.378	1208.679	904.209
183.183	14.466	1207.278	903.556
184.198	14.477	1206.371	902.855
185.213	14.518	1204.916	901.908
186.227	14.617	1203.755	901.495
187.242	14.561	1202.998	900.548
188.256	14.648	1201.555	899.856
189.271	14.581	1201.014	899.012
190.286	14.679	1199.534	898.349
191.300	14.410	1199.327	896.669
192.315	14.412	1198.482	895.970
193.329	14.507	1197.731	895.839
194.344	14.510	1197.137	895.333
195.359	14.452	1196.925	894.783
196.373	14.510	1196.048	894.358
197.388	14.674	1195.576	894.805
198.402	14.707	1194.853	894.363
199.417	14.682	1194.049	893.546
200.432	14.757	1193.477	893.443
201.446	14.739	1192.742	892.714
202.461	14.792	1191.901	892.288
203.475	14.859	1190.359	891.415
204.490	14.831	1189.556	890.586
205.504	14.872	1188.164	889.684
206.519	14.795	1186.844	888.207
207.534	14.771	1186.171	887.494
208.548	14.741	1185.157	886.501
209.563	14.822	1184.162	886.107
210.577	14.757	1183.064	884.862
211.592	14.788	1182.645	884.632
212.607	14.920	1181.257	884.216
213.621	14.932	1180.426	883.579
214.636	15.023	1179.543	883.317
215.650	14.957	1178.798	882.333
216.665	14.948	1178.145	881.722
217.680	14.932	1177.396	880.996
218.694	14.989	1176.369	880.449
219.709	15.018	1175.313	879.737
220.723	14.949	1174.914	878.995
221.738	14.979	1174.304	878.621
222.753	14.930	1173.583	877.748
223.767	15.128	1172.513	877.907
224.782	15.123	1172.019	877.434
225.796	15.167	1171.463	877.171
226.811	15.059	1170.536	875.835
227.826	15.174	1169.864	875.855
228.840	15.131	1169.310	875.137
229.855	15.157	1168.624	874.682
230.869	15.079	1167.874	873.637
231.884	15.154	1166.936	873.247
232.899	15.099	1165.978	872.168
233.913	15.146	1165.308	871.833
234.928	15.128	1164.564	871.107
235.942	15.130	1164.169	870.742
236.957	15.158	1163.040	869.970
237.972	15.139	1162.506	869.394
238.986	15.209	1161.682	869.062
240.001	15.195	1161.283	868.615
241.015	15.213	1160.208	867.827
242.030	15.197	1159.727	867.306
243.045	15.302	1158.604	866.932
244.059	15.303	1158.086	866.475
245.074	15.225	1157.481	865.540
246.088	15.196	1156.654	864.698
247.103	15.383	1155.317	864.584
248.117	15.374	1155.161	864.344
249.132	15.383	1154.070	863.501
250.147	15.386	1153.289	862.857
251.161	15.384	1152.788	862.392
252.176	15.484	1152.168	862.367
253.190	15.475	1151.605	861.821
254.205	15.572	1150.902	861.718
255.220	15.520	1150.608	861.154
256.234	15.674	1149.537	861.068
257.249	15.579	1149.197	860.248
258.263	15.559	1148.501	859.549
259.278	15.633	1147.844	859.359
260.293	15.669	1147.179	858.968
261.307	15.634	1146.925	858.525
262.322	15.660	1145.926	857.832
263.336	15.779	1144.935	857.623
264.351	15.768	1144.739	857.346
265.366	15.772	1144.078	856.795
266.380	15.770	1143.178	856.036
267.395	15.774	1142.451	855.434
268.409	15.835	1141.550	854.995
269.424	15.766	1141.519	854.543
270.439	15.853	1140.535	854.171
271.453	15.907	1139.768	853.797
272.468	15.817	1138.850	852.575
273.482	15.785	1138.236	851.881
274.497	15.858	1137.718	851.788
275.512	15.846	1137.242	851.294
276.526	15.855	1136.419	850.650
277.541	15.761	1135.790	849.629
278.555	15.959	1134.791	849.806
279.570	15.980	1133.956	849.208
280.585	15.918	1133.359	848.374
281.599	15.963	1132.404	847.810
282.614	16.004	1131.334	847.139
283.628	16.081	1129.816	846.317
284.643	16.001	1129.328	845.476
285.657	15.991	1128.770	844.932
286.672	15.940	1127.708	843.807
287.687	15.964	1127.203	843.475
288.701	15.995	1126.374	842.933
289.716	16.122	1125.030	842.487
290.730	16.120	1124.853	842.270
291.745	16.108	1123.953	841.463
292.760	16.090	1123.551	840.999
293.774	16.165	1122.969	840.861
294.789	16.241	1122.284	840.655
295.803	16.267	1121.407	840.053
296.818	16.086	1120.720	838.559
297.833	16.121	1120.165	838.247
298.847	16.275	1119.050	838.100
299.862	16.268	1118.175	837.338
300.876	16.210	1117.510	836.477
301.891	16.272	1117.044	836.365
302.906	16.320	1116.171	835.872
303.920	16.440	1115.627	835.985
304.935	16.314	1115.316	835.054
305.949	16.493	1114.639	835.357
306.964	16.542	1113.780	834.883
307.979	16.427	1112.844	833.542
308.993	16.359	1112.451	832.838
310.008	16.422	1111.568	832.413
311.022	16.536	1110.460	832.070
312.037	16.626	1109.700	831.868
313.052	16.474	1109.204	830.678
314.066	16.399	1108.440	829.663
315.081	16.426	1107.275	828.849
316.095	16.418	1106.671	828.286
317.110	16.478	1105.826	827.874
318.125	16.456	1105.379	827.357
319.139	16.397	1104.747	826.522
320.154	16.468	1104.300	826.464
321.168	16.399	1103.822	825.693
322.183	16.408	1103.046	825.085
323.197	16.512	1102.236	824.916
324.212	16.482	1101.809	824.374
325.227	16.466	1101.276	823.825
326.241	16.605	1100.319	823.713
327.256	16.620	1099.840	823.357
328.270	16.616	1098.222	822.053
329.285	16.617	1097.407	821.373
330.300	16.668	1096.592	820.939
331.314	16.666	1095.409	819.973
332.329	16.583	1095.153	819.304
333.343	16.722	1093.755	818.858
334.358	16.672	1092.882	817.891
335.373	16.838	1092.026	817.979
336.387	16.780	1091.577	817.288
337.402	16.759	1090.818	816.546
338.416	16.756	1090.392	816.144
339.431	16.734	1089.749	815.485
340.446	16.884	1089.299	815.796
341.460	16.967	1088.221	815.314
342.475	16.915	1087.534	814.477
343.489	16.879	1086.503	813.462
344.504	16.886	1085.724	812.842
345.519	17.002	1084.531	812.430
346.533	17.025	1084.110	812.154
347.548	17.013	1083.301	811.416
348.562	16.949	1082.645	810.549
349.577	17.010	1081.944	810.245
350.592	17.093	1080.853	809.750
351.606	16.835	1080.611	808.268
352.621	17.017	1080.095	808.676
353.635	16.930	1079.400	807.671
354.650	17.008	1078.151	807.037
355.665	17.017	1077.514	806.532
356.679	16.969	1077.372	806.125
357.694	17.053	1076.344	805.682
358.708	17.017	1075.987	805.172
359.723	17.144	1075.243	805.150
360.738	17.084	1075.088	804.678
361.752	17.020	1074.232	803.663
362.767	17.051	1073.709	803.346
363.781	17.190	1072.889	803.318
364.796	17.209	1072.348	802.931
365.810	17.180	1071.719	802.254
366.825	17.334	1071.258	802.565
367.840	17.378	1070.645	802.244
368.854	17.436	1069.808	801.816
369.869	17.272	1069.227	800.536
370.883	17.295	1068.178	799.792
371.898	17.254	1067.706	799.171
372.913	17.319	1067.508	799.261
373.927	17.302	1066.850	798.614
374.942	17.374	1066.358	798.516
375.956	17.508	1065.808	798.661
376.971	17.519	1064.953	798.002
377.986	17.532	1064.219	797.440
379.000	17.442	1063.873	796.690
380.015	17.632	1062.824	796.723
381.029	17.492	1062.790	795.972
382.044	17.534	1062.095	795.577
383.059	17.699	1060.980	795.444
384.073	17.596	1060.458	794.498
385.088	17.635	1059.497	793.890
386.102	17.544	1058.902	792.951
387.117	17.630	1057.476	792.215
388.132	17.619	1056.680	791.496
389.146	17.621	1056.455	791.269
390.161	17.579	1055.436	790.238
391.175	17.614	1055.106	790.083
392.190	17.596	1053.853	788.993
393.205	17.794	1053.000	789.203
394.219	17.789	1052.084	788.421
395.234	17.736	1051.362	787.567
396.248	17.715	1049.950	786.340
397.263	17.701	1049.522	785.885
398.278	17.686	1049.089	785.426
399.292	17.625	1048.695	784.780
400.307	17.586	1047.739	783.814
401.321	17.692	1047.027	783.701
402.336	17.707	1046.273	783.133
403.350	17.712	1045.570	782.562
404.365	17.767	1044.921	782.260
405.380	17.904	1044.010	782.135
406.394	17.921	1042.936	781.342
407.409	17.845	1042.479	780.579
408.423	17.859	1041.858	780.113
409.438	17.923	1041.388	779.982
410.453	17.915	1040.602	779.290
411.467	18.014	1040.113	779.303
412.482	17.953	1039.505	778.501
413.496	17.977	1038.465	777.763
414.511	18.034	1038.024	777.624
415.526	18.159	1037.161	777.477
416.540	18.247	1037.174	777.818
417.555	18.171	1036.639	777.004
418.569	18.178	1036.187	776.627
419.584	18.133	1035.654	775.955
420.599	18.197	1035.085	775.747
421.613	106.701	1323.993	1475.491
422.628	97.865	1366.025	1475.567
