DTS Sentinel unit serial number:	SN413079Multiplexer serial number:	ORYXHardware model number:	OX4-SRSoftware version number:	ORYX F/W v4.00 Oryx Data Collector v3.7.2.0data status	okinstallation	princeton_trtdifferential loss correction	single-endedforward channel	channel 2reverse channel	N/Adate	2019/09/16time	05:07:35forward acquisition time	60.00reverse acquisition time	0.00gamma	496.2192k internal	0.2335k external	0.2335temperature offset calibration	0.9975default loss term (dB/km)	0.3790temperature slope calibration	1.0000multiplexer offset coefficient	1.0000multiplexer slope coefficient	1.0000fibre end	0.00T internal ref (°C)	27.19T ext. ref 1 (°C)	11.02T ext. ref 2 (°C)	22.15length (m)	temperature (°C)	Stokes	anti-Stokes-747.200	-149.932	0.108	-0.008
-746.185	31.409	-0.390	0.337
-745.171	200.473	0.098	0.151
-744.156	-88.213	0.102	-0.031
-743.142	92.468	0.261	0.296
-742.127	127.862	0.028	0.036
-741.112	-102.369	-0.193	0.046
-740.098	216.065	-0.042	0.067
-739.083	800.000	-0.021	-0.085
-738.069	-200.000	0.018	0.199
-737.054	-31.897	-0.189	-0.106
-736.039	-38.781	-0.123	0.065
-735.025	800.000	0.019	-0.070
-734.010	-200.000	-0.035	0.179
-732.996	31.146	0.041	-0.036
-731.981	-200.000	-0.007	-0.101
-730.966	-200.000	0.012	0.105
-729.952	40.812	0.030	0.027
-728.937	153.458	0.054	-0.075
-727.923	800.000	0.066	-0.218
-726.908	503.091	-0.133	-0.310
-725.894	14.770	0.241	-0.189
-724.879	-79.107	-0.268	-0.092
-723.864	750.926	0.137	-0.371
-722.850	100.429	-0.226	-0.263
-721.835	-105.261	-0.073	0.017
-720.821	-78.636	-0.064	0.022
-719.806	-73.498	-0.104	-0.038
-718.791	172.550	0.071	-0.102
-717.777	84.079	-0.126	0.138
-716.762	-78.569	-0.266	-0.091
-715.748	800.000	-0.138	-0.394
-714.733	-25.944	0.119	0.070
-713.718	0.340	-0.107	-0.077
-712.704	-65.099	-0.255	0.103
-711.689	71.358	-0.105	-0.109
-710.675	800.000	0.049	0.190
-709.660	-97.673	-0.189	-0.049
-708.645	205.395	0.037	-0.058
-707.631	-103.365	0.130	-0.031
-706.616	-58.447	-0.420	-0.183
-705.602	10.335	0.270	-0.206
-704.587	410.667	0.080	0.170
-703.572	-7.600	-0.114	-0.077
-702.558	800.000	-0.089	0.292
-701.543	33.727	0.074	-0.065
-700.529	-74.362	0.099	-0.036
-699.514	39.578	-0.044	0.040
-698.499	99.257	0.117	0.135
-697.485	-136.948	0.309	-0.036
-696.470	-181.797	0.139	-0.003
-695.456	-184.914	0.172	0.003
-694.441	-200.000	0.014	-0.187
-693.426	618.195	0.148	0.372
-692.412	36.157	-0.041	-0.036
-691.397	-200.000	-0.029	0.162
-690.383	18.624	-0.107	0.086
-689.368	-108.535	-0.163	-0.035
-688.354	-150.641	0.105	0.008
-687.339	800.000	0.045	-0.158
-686.324	184.405	0.147	-0.218
-685.310	-200.000	0.063	-0.520
-684.295	800.000	-0.156	-0.603
-683.281	-87.714	0.266	-0.080
-682.266	-200.000	0.026	0.472
-681.251	-103.902	0.291	-0.068
-680.237	136.073	-0.166	-0.217
-679.222	-138.695	-0.197	-0.022
-678.208	-193.161	0.116	0.001
-677.193	-39.844	0.308	0.161
-676.178	208.367	-0.129	0.202
-675.164	163.411	-0.210	-0.296
-674.149	-137.494	-0.270	0.031
-673.135	50.409	-0.213	0.202
-672.120	-52.947	0.138	-0.064
-671.105	257.287	-0.113	-0.195
-670.091	189.891	0.051	0.076
-669.076	-45.168	0.274	0.136
-668.062	-112.291	-0.251	0.050
-667.047	-174.007	0.506	0.015
-666.032	-200.000	0.012	-0.182
-665.018	211.384	0.057	0.089
-664.003	267.709	-0.109	0.191
-662.989	117.176	-0.130	0.161
-661.974	-38.135	0.241	-0.128
-660.959	800.000	-0.057	-0.224
-659.945	59.491	0.134	0.133
-658.930	235.481	-0.242	0.401
-657.916	-137.929	-0.243	0.027
-656.901	-84.841	0.151	0.048
-655.886	800.000	0.018	-0.076
-654.872	34.832	0.139	-0.121
-653.857	800.000	0.010	0.040
-652.843	375.280	-0.009	0.019
-651.828	-200.000	0.064	0.291
-650.814	-200.000	-0.000	0.069
-649.799	-200.000	0.030	0.156
-648.784	800.000	-0.106	-0.299
-647.770	120.628	0.187	-0.233
-646.755	-200.000	-0.058	-0.285
-645.741	-200.000	0.002	0.008
-644.726	25.836	-0.046	0.038
-643.711	-155.154	0.227	0.015
-642.697	448.580	0.071	-0.156
-641.682	40.504	0.294	-0.265
-640.668	800.000	0.008	0.024
-639.653	-7.352	-0.129	0.087
-638.638	43.703	-0.176	-0.161
-637.624	642.439	-0.071	0.182
-636.609	-103.006	0.240	-0.057
-635.595	-88.361	-0.454	0.136
-634.580	216.973	-0.160	0.254
-633.565	-37.231	-0.080	0.043
-632.551	242.916	0.067	0.112
-631.536	199.489	-0.108	0.166
-630.522	67.942	0.173	-0.177
-629.507	-200.000	-0.001	0.147
-628.492	-200.000	0.022	-0.137
-627.478	-138.732	0.315	-0.034
-626.463	-135.621	0.263	0.031
-625.449	-84.198	-0.178	0.056
-624.434	800.000	0.045	-0.142
-623.419	-107.366	-0.115	0.025
-622.405	-200.000	-0.014	0.141
-621.390	800.000	0.102	-0.306
-620.376	628.086	-0.076	0.191
-619.361	42.135	0.099	-0.090
-618.346	5.265	-0.241	-0.177
-617.332	-23.840	0.188	0.112
-616.317	-14.935	-0.090	0.058
-615.303	276.638	-0.170	0.303
-614.288	-96.263	0.170	-0.045
-613.273	-200.000	-0.003	-0.139
-612.259	25.045	0.259	-0.215
-611.244	-200.000	-0.027	0.236
-610.230	-112.675	0.293	0.058
-609.215	-77.729	0.118	-0.041
-608.201	-172.995	0.204	0.006
-607.186	800.000	0.065	-0.190
-606.171	39.875	0.092	-0.083
-605.157	-61.167	-0.365	-0.154
-604.142	-33.157	-0.265	0.147
-603.128	-107.144	0.153	0.034
-602.113	800.000	-0.072	-0.258
-601.098	-200.000	0.040	0.319
-600.084	-9.623	0.031	-0.020
-599.069	331.685	-0.042	0.082
-598.055	242.517	0.038	0.064
-597.040	347.567	0.028	-0.056
-596.025	36.055	0.273	-0.240
-595.011	499.723	-0.046	-0.105
-593.996	468.352	0.013	-0.028
-592.982	257.534	0.102	-0.175
-591.967	-56.973	-0.251	0.111
-590.952	49.004	-0.209	-0.196
-589.938	189.994	0.104	-0.156
-588.923	-200.000	0.000	0.176
-587.909	622.606	0.073	-0.183
-586.894	-168.079	-0.271	0.011
-585.879	40.786	-0.050	-0.045
-584.865	-200.000	-0.016	0.263
-583.850	-69.230	-0.055	0.021
-582.836	-44.310	0.093	0.047
-581.821	163.852	-0.139	0.195
-580.806	-82.993	0.234	-0.075
-579.792	-200.000	0.093	-0.429
-578.777	42.625	-0.152	0.138
-577.763	123.964	0.259	0.325
-576.748	14.401	-0.336	0.262
-575.733	-54.032	-0.226	0.103
-574.719	-10.164	0.090	-0.060
-573.704	-50.699	0.282	-0.133
-572.690	-46.445	0.145	-0.071
-571.675	-31.981	-0.417	0.233
-570.661	-200.000	-0.013	-0.194
-569.646	-41.836	-0.091	0.046
-568.631	14.291	0.131	0.102
-567.617	-173.875	0.163	0.005
-566.602	-51.058	-0.233	0.109
-565.588	96.327	0.304	0.347
-564.573	49.043	0.159	-0.149
-563.558	411.943	-0.095	-0.201
-562.544	24.879	0.186	-0.154
-561.529	379.573	0.048	0.099
-560.515	-137.914	0.265	0.030
-559.500	-96.375	0.227	0.060
-558.485	7.895	-0.103	0.077
-557.471	800.000	-0.137	-0.415
-556.456	-150.145	-0.243	0.019
-555.442	613.076	0.057	-0.142
-554.427	242.924	0.025	0.042
-553.412	71.193	0.160	0.165
-552.398	-76.872	-0.153	-0.053
-551.383	-77.343	0.163	0.056
-550.369	800.000	-0.088	0.249
-549.354	235.084	-0.154	-0.254
-548.339	-20.779	0.236	0.144
-547.325	-154.356	-0.271	0.018
-546.310	34.792	0.063	0.055
-545.296	-127.942	-0.124	0.018
-544.281	800.000	0.096	-0.265
-543.266	800.000	-0.043	0.144
-542.252	-68.283	0.158	0.061
-541.237	34.397	0.114	0.099
-540.223	-47.876	-0.202	-0.097
-539.208	58.743	-0.143	0.140
-538.193	-200.000	0.017	-0.417
-537.179	-103.193	-0.154	0.036
-536.164	463.651	-0.036	-0.080
-535.150	-107.699	-0.119	-0.026
-534.135	-66.900	-0.033	0.013
-533.121	110.812	0.045	0.054
-532.106	0.908	-0.090	-0.064
-531.091	-13.535	0.209	0.135
-530.077	-200.000	-0.010	-0.185
-529.062	509.672	0.097	0.224
-528.048	76.894	-0.212	0.224
-527.033	287.477	0.100	-0.181
-526.018	-200.000	0.001	0.134
-525.004	-200.000	-0.047	0.377
-523.989	318.242	-0.207	-0.390
-522.975	178.007	-0.087	0.127
-521.960	-80.194	-0.185	0.062
-520.945	-200.000	0.044	0.217
-519.931	45.869	-0.010	-0.009
-518.916	-84.730	-0.379	-0.119
-517.902	79.726	-0.268	0.287
-516.887	-21.397	0.068	-0.042
-515.872	-39.156	-0.018	-0.009
-514.858	-78.604	-0.183	-0.062
-513.843	255.376	-0.147	0.251
-512.829	3.861	0.142	-0.103
-511.814	800.000	-0.140	-0.534
-510.799	-200.000	0.010	0.152
-509.785	435.646	-0.061	0.132
-508.770	800.000	0.045	0.193
-507.756	622.201	0.112	-0.282
-506.741	72.532	-0.163	0.170
-505.726	-200.000	0.015	0.287
-504.712	-117.140	-0.266	0.048
-503.697	-200.000	0.003	-0.019
-502.683	-200.000	-0.228	0.000
-501.668	-142.366	0.113	-0.011
-500.653	-21.235	0.202	-0.123
-499.639	117.071	-0.031	-0.038
-498.624	800.000	-0.061	0.168
-497.610	-200.000	0.014	-0.160
-496.595	-200.000	0.004	-0.054
-495.581	307.904	-0.212	-0.393
-494.566	-42.930	0.178	0.090
-493.551	-28.537	-0.268	-0.154
-492.537	-0.175	-0.185	0.131
-491.522	141.332	0.102	0.134
-490.508	-126.676	-0.233	0.034
-489.493	-172.567	0.170	-0.005
-488.478	392.885	0.065	0.134
-487.464	-200.000	0.002	-0.143
-486.449	-179.306	0.287	-0.006
-485.435	-20.077	0.126	0.078
-484.420	449.661	-0.062	-0.136
-483.405	-90.133	-0.304	-0.088
-482.391	800.000	-0.053	-0.161
-481.376	800.000	0.120	0.431
-480.362	562.419	-0.099	-0.237
-479.347	-200.000	0.000	-0.120
-478.332	239.951	-0.127	-0.210
-477.318	-31.255	-0.243	0.136
-476.303	-158.165	-0.119	-0.007
-475.289	-135.224	-0.493	0.059
-474.274	75.723	0.138	0.145
-473.259	-200.000	-0.035	-0.357
-472.245	-38.356	0.216	-0.114
-471.230	-22.132	0.291	-0.176
-470.216	157.530	-0.151	-0.208
-469.201	-125.348	-0.045	-0.007
-468.186	-102.738	-0.100	0.024
-467.172	421.559	-0.026	0.055
-466.157	24.352	0.149	-0.122
-465.143	-200.000	-0.118	0.000
-464.128	217.629	-0.069	-0.109
-463.113	294.359	0.112	0.204
-462.099	-26.064	0.207	-0.121
-461.084	-54.746	-0.205	-0.092
-460.070	278.211	0.078	-0.138
-459.055	29.121	0.169	0.142
-458.040	578.358	0.153	0.373
-457.026	-200.000	-0.015	0.120
-456.011	-200.000	0.000	0.439
-454.997	-35.679	0.494	0.266
-453.982	-200.000	-0.021	0.103
-452.968	-83.407	-0.114	-0.036
-451.953	592.000	-0.055	-0.134
-450.938	-80.571	-0.311	0.103
-449.924	56.632	-0.163	-0.158
-448.909	-67.661	-0.131	-0.051
-447.895	-54.462	0.132	0.059
-446.880	-166.640	0.205	0.008
-445.865	-200.000	-0.004	0.054
-444.851	-114.683	0.258	-0.049
-443.836	53.034	0.105	-0.099
-442.822	-200.000	-0.021	-0.194
-441.807	-40.388	-0.091	-0.047
-440.792	141.076	-0.238	0.313
-439.778	71.661	0.252	0.260
-438.763	632.198	-0.142	-0.357
-437.749	-140.665	0.073	0.007
-436.734	-200.000	0.002	-0.100
-435.719	-109.337	0.242	-0.051
-434.705	-110.415	-0.100	-0.021
-433.690	-100.911	0.166	-0.040
-432.676	-14.921	-0.182	0.116
-431.661	800.000	0.147	0.505
-430.646	-145.947	0.067	0.006
-429.632	800.000	0.090	0.292
-428.617	-200.000	-0.002	0.164
-427.603	-200.000	0.029	-0.158
-426.588	-12.661	0.271	-0.175
-425.573	-97.423	0.149	-0.038
-424.559	800.000	0.177	0.545
-423.544	800.000	-0.052	-0.156
-422.530	56.384	-0.022	-0.022
-421.515	-58.405	-0.175	0.076
-420.500	-61.063	-0.114	-0.048
-419.486	-49.932	-0.252	0.119
-418.471	338.669	0.083	0.160
-417.457	-41.488	0.216	0.110
-416.442	-200.000	0.001	0.129
-415.428	5.601	-0.161	0.118
-414.413	-105.294	0.241	-0.054
-413.398	-75.306	0.161	0.057
-412.384	751.211	0.110	-0.295
-411.369	-26.857	0.241	-0.140
-410.355	210.323	0.047	-0.074
-409.340	-34.425	-0.137	0.074
-408.325	-43.474	-0.139	0.069
-407.311	592.129	0.026	-0.063
-406.296	79.297	0.100	-0.106
-405.282	166.878	0.241	0.340
-404.267	310.174	-0.070	-0.129
-403.252	11.508	0.091	-0.069
-402.238	779.613	-0.076	-0.206
-401.223	-41.885	0.042	-0.021
-400.209	-167.487	-0.258	0.010
-399.194	-94.137	-0.158	-0.043
-398.179	111.631	0.117	0.140
-397.165	-200.000	-0.043	0.262
-396.150	601.544	-0.107	0.265
-395.136	102.111	0.250	0.289
-394.121	-33.960	-0.360	0.196
-393.106	67.043	0.075	-0.076
-392.092	-64.291	0.234	-0.094
-391.077	-89.664	-0.243	-0.071
-390.063	-200.000	-0.007	-0.296
-389.048	800.000	0.011	-0.038
-388.033	-127.490	-0.147	0.021
-387.019	800.000	0.065	0.258
-386.004	48.444	0.213	0.198
-384.990	132.977	0.090	0.115
-383.975	-89.694	0.035	0.010
-382.960	-142.933	-0.152	0.015
-381.946	475.215	0.089	0.199
-380.931	-200.000	0.011	0.151
-379.917	182.744	0.167	-0.244
-378.902	-200.000	-0.024	-0.178
-377.888	800.000	0.052	-0.169
-376.873	-200.000	0.014	0.097
-375.858	800.000	0.076	-0.218
-374.844	-200.000	0.007	0.146
-373.829	-200.000	0.043	0.335
-372.815	-51.715	0.213	-0.098
-371.800	104.497	0.195	-0.227
-370.785	13.556	0.201	0.155
-369.771	1.832	0.422	0.301
-368.756	-39.663	0.042	0.022
-367.742	-200.000	-0.031	0.159
-366.727	-123.786	0.148	0.023
-365.712	222.077	-0.240	-0.382
-364.698	371.558	0.089	-0.180
-363.683	47.415	-0.121	0.112
-362.669	-200.000	-0.011	0.086
-361.654	-200.000	0.002	-0.047
-360.639	304.835	-0.162	0.298
-359.625	601.637	0.177	0.434
-358.610	-159.342	-0.052	0.003
-357.596	33.920	0.082	0.071
-356.581	-200.000	0.052	0.302
-355.566	6.714	0.140	-0.103
-354.552	544.286	-0.073	0.171
-353.537	-200.000	-0.060	0.354
-352.523	-104.700	0.269	-0.061
-351.508	800.000	-0.097	-0.270
-350.493	800.000	0.058	-0.236
-349.479	-200.000	-0.005	0.353
-348.464	-115.046	-0.457	0.086
-347.450	-135.007	0.288	-0.034
-346.435	-110.765	-0.397	0.081
-345.420	-161.655	0.478	0.024
-344.406	505.989	0.036	0.083
-343.391	42.874	0.085	0.077
-342.377	-18.559	-0.188	0.116
-341.362	-200.000	0.015	0.269
-340.348	-142.670	-0.320	0.031
-339.333	-176.502	0.523	0.013
-338.318	137.251	0.193	-0.250
-337.304	-137.871	0.107	-0.012
-336.289	800.000	0.056	-0.214
-335.275	-2.853	-0.255	0.176
-334.260	-145.550	-0.658	0.058
-333.245	71.869	0.302	-0.310
-332.231	229.683	0.087	-0.140
-331.216	505.079	-0.067	0.153
-330.202	244.686	-0.170	0.282
-329.187	458.755	0.222	0.488
-328.172	-200.000	0.013	-0.165
-327.158	293.458	0.172	-0.310
-326.143	81.176	0.114	0.122
-325.129	118.972	0.043	-0.053
-324.114	14.163	0.083	0.064
-323.099	9.831	0.181	-0.135
-322.085	-10.166	0.173	-0.113
-321.070	-124.130	-0.251	-0.039
-320.056	353.670	-0.056	0.110
-319.041	-114.956	0.160	0.030
-318.026	-30.711	0.099	0.056
-317.012	-13.481	-0.109	-0.070
-315.997	-30.611	0.335	-0.188
-314.983	225.114	-0.084	0.135
-313.968	-113.014	-0.252	0.049
-312.953	624.940	-0.084	-0.210
-311.939	172.107	0.106	-0.150
-310.924	-192.471	-0.096	0.001
-309.910	725.484	0.128	0.338
-308.895	-60.259	0.154	0.065
-307.880	-52.642	-0.216	-0.099
-306.866	-61.761	-0.355	0.147
-305.851	367.979	0.097	0.193
-304.837	72.813	0.059	-0.061
-303.822	-180.117	0.096	-0.002
-302.807	800.000	-0.023	0.075
-301.793	-37.038	0.007	-0.003
-300.778	-50.524	0.179	-0.083
-299.764	256.488	0.045	-0.076
-298.749	593.736	0.169	-0.412
-297.735	-99.295	-0.141	-0.035
-296.720	-72.983	0.262	0.095
-295.705	-100.267	-0.341	-0.084
-294.691	800.000	-0.030	0.124
-293.676	-146.433	0.202	-0.017
-292.662	140.114	-0.109	0.142
-291.647	-9.065	0.261	0.173
-290.632	-27.144	-0.236	0.136
-289.618	-37.245	0.065	0.034
-288.603	-67.241	-0.259	-0.101
-287.589	507.496	-0.063	0.143
-286.574	-54.747	0.422	-0.188
-285.559	63.982	-0.175	0.173
-284.545	484.338	0.093	0.208
-283.530	258.966	0.126	-0.214
-282.516	-8.815	0.117	-0.078
-281.501	-200.000	-0.015	0.151
-280.486	271.465	0.101	-0.175
-279.472	186.243	0.262	-0.385
-278.457	250.746	0.100	0.167
-277.443	-92.589	0.232	-0.064
-276.428	20.351	-0.360	0.287
-275.413	10.490	-0.124	-0.093
-274.399	145.443	-0.038	-0.050
-273.384	800.000	-0.095	-0.368
-272.370	-51.565	0.061	-0.028
-271.355	-99.780	0.036	0.009
-270.340	-43.432	-0.197	0.098
-269.326	800.000	0.094	-0.294
-268.311	-200.000	0.002	-0.047
-267.297	37.179	-0.195	-0.170
-266.282	125.858	0.117	0.145
-265.267	800.000	-0.019	0.051
-264.253	-96.622	0.479	0.124
-263.238	-6.319	-0.145	-0.098
-262.224	-200.000	-0.019	0.261
-261.209	-200.000	0.093	0.418
-260.195	28.958	-0.167	-0.140
-259.180	14.746	0.164	0.127
-258.165	73.456	0.303	-0.313
-257.151	25.089	0.235	-0.192
-256.136	800.000	0.121	-0.477
-255.122	136.619	-0.165	-0.212
-254.107	71.332	-0.147	0.150
-253.092	-200.000	0.035	-0.381
-252.078	-4.834	0.080	0.055
-251.063	-182.021	-0.178	0.003
-250.049	5.208	0.059	-0.043
-249.034	31.885	-0.289	-0.245
-248.019	-108.932	0.265	-0.056
-247.005	-112.349	0.224	-0.044
-245.990	244.539	0.035	-0.058
-244.976	99.865	0.102	-0.116
-243.961	130.858	0.097	0.123
-242.946	26.312	-0.345	-0.284
-241.932	64.191	-0.095	-0.094
-240.917	-47.143	0.244	-0.117
-239.903	85.416	-0.043	0.046
-238.888	-148.944	0.221	0.018
-237.873	800.000	0.084	-0.300
-236.859	-97.249	-0.118	0.030
-235.844	-103.808	0.279	-0.064
-234.830	195.556	0.194	-0.290
-233.815	149.290	0.068	-0.090
-232.800	-99.320	-0.090	0.022
-231.786	-141.215	0.253	0.025
-230.771	-117.712	0.199	-0.035
-229.757	-120.879	-0.127	-0.021
-228.742	-200.000	0.019	0.166
-227.727	-200.000	-0.016	-0.184
-226.713	401.442	-0.123	-0.253
-225.698	-60.431	-0.272	-0.114
-224.684	105.400	-0.170	-0.198
-223.669	-115.847	-0.255	-0.047
-222.655	-64.282	0.089	-0.036
-221.640	3.252	0.070	0.050
-220.625	369.847	-0.149	0.296
-219.611	731.465	-0.133	0.349
-218.596	112.325	0.212	0.252
-217.582	792.124	0.036	-0.098
-216.567	169.505	0.099	-0.139
-215.552	24.828	0.024	0.019
-214.538	-11.084	-0.171	0.111
-213.523	-40.936	0.221	-0.112
-212.509	-200.000	0.005	-0.175
-211.494	-152.705	0.076	0.005
-210.479	-51.020	-0.185	-0.085
-209.465	-200.000	0.020	0.183
-208.450	14.210	-0.166	-0.128
-207.436	-179.939	0.297	-0.006
-206.421	800.000	0.053	-0.150
-205.406	-104.611	0.104	0.024
-204.392	-79.409	-0.247	-0.082
-203.377	-200.000	-0.064	0.332
-202.363	166.611	0.246	-0.343
-201.348	19.067	0.052	0.041
-200.333	-32.392	0.104	0.057
-199.319	-153.341	-0.485	-0.033
-198.304	-106.867	-0.049	-0.011
-197.290	800.000	-0.049	-0.173
-196.275	166.392	0.136	0.189
-195.260	-74.350	-0.090	0.032
-194.246	-200.000	0.027	0.156
-193.231	199.065	0.130	-0.195
-192.217	64.032	-0.188	0.186
-191.202	185.540	-0.184	-0.268
-190.187	-9.433	-0.353	-0.232
-189.173	-19.416	-0.138	-0.084
-188.158	-139.847	-0.177	-0.018
-187.144	-166.825	-0.084	0.003
-186.129	96.247	0.117	-0.132
-185.114	-181.600	-0.381	-0.007
-184.100	116.267	-0.118	-0.142
-183.085	-27.800	0.044	-0.025
-182.071	-200.000	-0.004	-0.044
-181.056	1.233	-0.076	0.054
-180.042	-200.000	0.031	0.286
-179.027	-42.850	-0.350	0.175
-178.012	-64.754	-0.119	0.047
-176.998	-126.172	-0.392	-0.058
-175.983	-95.581	0.070	0.018
-174.969	123.288	-0.068	0.084
-173.954	175.319	-0.091	0.130
-172.939	800.000	0.035	0.110
-171.925	83.501	-0.036	-0.038
-170.910	-164.262	-0.279	0.013
-169.896	30.691	0.169	0.142
-168.881	-159.546	0.318	-0.017
-167.866	54.555	-0.005	-0.005
-166.852	66.223	-0.308	-0.307
-165.837	21.479	-0.301	0.241
-164.823	-64.884	-0.032	0.013
-163.808	-116.099	-0.108	0.020
-162.793	-121.070	0.082	-0.013
-161.779	773.951	0.018	0.049
-160.764	-200.000	0.019	-0.100
-159.750	-134.263	-0.149	-0.018
-158.735	43.765	0.120	0.108
-157.720	-144.743	-0.180	0.016
-156.706	-200.000	0.014	-0.207
-155.691	-91.109	-0.111	-0.031
-154.677	88.439	-0.084	-0.092
-153.662	-196.813	0.151	-0.001
-152.647	-67.458	-0.288	-0.111
-151.633	512.685	-0.116	-0.265
-150.618	-200.000	-0.002	-0.220
-149.604	-200.000	0.008	0.161
-148.589	-37.460	-0.297	-0.156
-147.574	-98.464	-0.339	0.085
-146.560	143.566	-0.054	-0.071
-145.545	-88.873	0.255	-0.074
-144.531	-100.281	-0.131	-0.032
-143.516	-200.000	-0.017	0.114
-142.502	11.982	-0.088	0.066
-141.487	466.534	0.098	0.216
-140.472	-16.711	0.141	-0.087
-139.458	569.413	-0.044	-0.105
-138.443	-44.198	0.063	0.031
-137.429	-23.072	-0.067	-0.040
-136.414	-200.000	0.020	-0.116
-135.399	800.000	0.067	-0.265
-134.385	-200.000	0.011	-0.301
-133.370	-200.000	0.000	-0.100
-132.356	-200.000	0.007	-0.146
-131.341	-155.023	0.130	-0.008
-130.326	-131.078	0.470	0.061
-129.312	-175.186	0.326	-0.009
-128.297	-102.627	0.228	0.053
-127.283	45.354	-0.143	-0.130
-126.268	58.627	-0.355	-0.342
-125.253	-81.634	0.098	0.032
-124.239	-109.061	0.055	0.011
-123.224	-109.132	0.500	-0.104
-122.210	309.455	0.094	-0.171
-121.195	243.853	-0.139	0.229
-120.180	171.223	-0.037	0.052
-119.166	-53.432	0.222	0.100
-118.151	341.794	-0.176	-0.338
-117.137	-96.151	-0.321	0.084
-116.122	-26.177	0.170	-0.098
-115.107	-200.000	0.050	0.257
-114.093	282.734	0.157	0.276
-113.078	150.055	-0.168	0.223
-112.064	360.836	0.066	0.129
-111.049	62.987	0.024	-0.023
-110.034	-200.000	-0.055	0.423
-109.020	800.000	0.118	-0.392
-108.005	-20.512	0.052	0.031
-106.991	800.000	0.089	-0.277
-105.976	-77.911	0.192	-0.065
-104.962	-200.000	0.017	-0.146
-103.947	-94.456	0.249	-0.067
-102.932	-160.619	0.320	-0.017
-101.918	-168.375	0.272	-0.010
-100.903	-200.000	0.100	-0.459
-99.889	-6.311	0.104	-0.069
-98.874	-167.826	0.148	-0.006
-97.859	-113.400	0.309	-0.059
-96.845	30.400	0.278	0.232
-95.830	-15.176	-0.261	0.163
-94.816	109.981	0.123	0.145
-93.801	-55.372	0.186	0.082
-92.786	175.880	0.219	0.311
-91.772	-200.000	0.001	0.016
-90.757	800.000	0.081	-0.297
-89.743	154.119	0.106	0.143
-88.728	-152.040	0.299	-0.021
-87.713	94.303	0.073	-0.082
-86.699	53.337	-0.166	0.156
-85.684	-119.512	-0.332	0.056
-84.670	-200.000	0.020	-0.134
-83.655	-200.000	0.030	-0.145
-82.640	-178.055	0.310	-0.007
-81.626	109.873	0.119	0.139
-80.611	-131.620	-0.125	-0.016
-79.597	-81.333	0.396	0.128
-78.582	383.947	0.174	-0.352
-77.567	291.384	0.107	-0.191
-76.553	-200.000	0.037	-0.283
-75.538	-27.631	0.190	-0.108
-74.524	174.420	-0.100	-0.141
-73.509	111.448	-0.026	-0.031
-72.494	-32.907	-0.178	-0.097
-71.480	-80.082	-0.309	0.101
-70.465	-200.000	-0.007	0.236
-69.451	-74.647	-0.123	0.043
-68.436	-116.651	0.136	-0.024
-67.422	-182.979	-0.374	-0.007
-66.407	-80.054	-0.223	0.073
-65.392	585.146	0.138	-0.331
-64.378	-114.030	0.235	-0.045
-63.363	70.803	-0.098	0.100
-62.349	-117.297	0.329	-0.058
-61.334	19.208	-1.159	-0.910
-60.319	5.379	0.533	0.385
-59.305	-200.000	-0.261	-1.313
-58.290	469.138	0.579	1.271
-57.276	800.000	0.546	1.531
-56.261	-200.000	114.751	647.235
-55.246	468.916	1511.694	3319.217
-54.232	145.746	2688.995	3524.489
-53.217	96.481	2292.337	2565.668
-52.203	36.065	1903.693	1639.025
-51.188	30.178	1695.939	1415.325
-50.173	27.833	1653.935	1362.737
-49.159	49.641	1709.244	1574.181
-48.144	48.020	1723.493	1574.968
-47.130	29.881	1681.865	1401.111
-46.115	27.194	1667.464	1368.851
-45.100	27.011	1662.826	1363.616
-44.086	27.015	1659.948	1361.238
-43.071	27.039	1657.301	1359.193
-42.057	27.043	1655.138	1357.392
-41.042	26.996	1653.130	1355.338
-40.027	27.037	1650.950	1353.807
-39.013	27.023	1649.132	1352.159
-37.998	26.975	1647.416	1350.341
-36.984	27.069	1646.173	1349.965
-35.969	27.168	1644.518	1349.289
-34.954	27.269	1642.548	1348.370
-33.940	27.045	1641.722	1345.974
-32.925	27.135	1639.403	1344.690
-31.911	27.240	1637.533	1343.876
-30.896	27.165	1635.838	1341.880
-29.881	27.203	1634.304	1340.848
-28.867	27.189	1632.914	1339.547
-27.852	27.261	1630.697	1338.207
-26.838	27.150	1629.634	1336.470
-25.823	27.080	1628.594	1335.044
-24.809	27.257	1626.882	1334.889
-23.794	27.243	1625.449	1333.557
-22.779	27.206	1624.301	1332.292
-21.765	27.224	1622.897	1331.222
-20.750	27.122	1621.399	1329.189
-19.736	27.187	1619.633	1328.167
-18.721	27.195	1618.478	1327.222
-17.706	27.175	1617.128	1325.916
-16.692	27.230	1615.559	1324.980
-15.677	27.217	1614.121	1323.657
-14.663	27.283	1612.407	1322.679
-13.648	27.297	1610.820	1321.422
-12.633	27.275	1609.476	1320.105
-11.619	27.142	1608.490	1318.286
-10.604	27.254	1606.815	1317.667
-9.590	27.267	1605.014	1316.236
-8.575	27.332	1603.486	1315.399
-7.560	27.254	1602.667	1314.108
-6.546	27.255	1601.884	1313.424
-5.531	27.218	1600.939	1312.333
-4.517	27.172	1599.793	1311.004
-3.502	27.167	1598.499	1309.859
-2.487	27.317	1596.336	1309.112
-1.473	26.928	1585.208	1297.156
-0.458	24.313	1566.249	1263.094
0.556	19.269	1568.515	1234.030
1.571	17.124	1592.608	1237.266
2.586	16.861	1605.901	1245.544
3.600	16.545	1555.262	1203.917
4.615	14.080	1457.037	1111.325
5.629	11.480	1402.623	1052.976
6.644	11.080	1395.907	1045.275
7.659	11.009	1394.378	1043.582
8.673	10.981	1393.333	1042.527
9.688	11.000	1391.074	1040.867
10.702	10.943	1388.212	1038.271
11.717	12.075	1389.440	1046.324
12.731	15.015	1394.436	1068.799
13.746	17.225	1397.788	1085.406
14.761	17.493	1397.247	1086.598
15.775	16.640	1394.929	1079.264
16.790	15.573	1391.902	1070.031
17.804	14.698	1390.322	1063.155
18.819	14.319	1388.132	1058.973
19.834	14.157	1386.608	1056.690
20.848	13.845	1385.629	1053.867
21.863	13.503	1384.667	1050.874
22.877	13.416	1383.222	1049.135
23.892	13.234	1382.839	1047.595
24.907	13.396	1381.421	1047.458
25.921	13.304	1380.287	1045.921
26.936	13.316	1379.924	1045.632
27.950	13.321	1378.942	1044.827
28.965	13.476	1377.777	1044.826
29.980	13.579	1376.678	1044.550
30.994	13.614	1375.078	1043.466
32.009	13.663	1373.719	1042.653
33.023	13.589	1372.623	1041.258
34.038	13.587	1371.280	1040.137
35.053	13.594	1370.034	1039.144
36.067	13.551	1369.128	1038.094
37.082	13.514	1368.378	1037.206
38.096	13.536	1367.046	1036.238
39.111	13.510	1366.572	1035.624
40.126	13.554	1365.362	1034.895
41.140	13.414	1364.147	1033.007
42.155	13.350	1364.058	1032.449
43.169	13.288	1364.211	1032.087
44.184	13.252	1363.840	1031.489
45.199	13.232	1363.527	1031.035
46.213	13.305	1363.176	1031.133
47.228	13.446	1361.393	1030.570
48.242	13.401	1360.221	1029.315
49.257	13.480	1358.709	1028.569
50.271	13.389	1357.318	1026.861
51.286	13.536	1355.564	1026.351
52.301	13.474	1354.612	1025.160
53.315	13.317	1353.727	1023.426
54.330	13.303	1352.603	1022.401
55.344	13.353	1351.428	1021.730
56.359	13.423	1350.432	1021.317
57.374	13.388	1349.361	1020.200
58.388	13.290	1349.022	1019.250
59.403	13.350	1347.518	1018.395
60.417	13.305	1347.271	1017.840
61.432	13.234	1346.685	1016.872
62.447	13.223	1345.731	1015.995
63.461	13.156	1345.080	1014.999
64.476	13.143	1343.539	1013.670
65.490	13.158	1342.149	1012.624
66.505	13.220	1340.610	1011.752
67.520	13.227	1339.417	1010.803
68.534	13.198	1338.712	1010.003
69.549	13.175	1337.146	1008.591
70.563	13.210	1336.447	1008.193
71.578	13.153	1335.547	1007.074
72.593	13.240	1333.901	1006.272
73.607	13.086	1333.954	1005.285
74.622	13.048	1333.194	1004.394
75.636	13.185	1331.942	1004.196
76.651	13.119	1331.601	1003.446
77.666	13.053	1331.310	1002.737
78.680	13.033	1330.899	1002.222
79.695	13.113	1329.791	1001.779
80.709	13.189	1328.972	1001.537
81.724	13.304	1328.238	1001.594
82.739	13.302	1327.402	1000.858
83.753	13.455	1326.027	1000.662
84.768	13.460	1324.965	999.800
85.782	13.684	1323.878	1000.244
86.797	13.434	1322.766	997.809
87.812	13.449	1321.288	996.693
88.826	13.400	1320.502	995.720
89.841	13.453	1319.593	995.264
90.855	13.433	1318.514	994.240
91.870	13.478	1317.563	993.704
92.884	13.490	1316.988	993.257
93.899	13.518	1316.066	992.645
94.914	13.652	1314.818	992.417
95.928	13.521	1314.684	991.440
96.943	13.552	1313.514	990.660
97.957	13.514	1312.391	989.493
98.972	13.498	1311.505	988.642
99.987	13.524	1310.177	987.710
101.001	13.515	1309.060	986.729
102.016	13.461	1308.654	986.014
103.030	13.568	1307.446	985.651
104.045	13.513	1306.424	984.465
105.060	13.484	1304.771	982.964
106.074	13.400	1303.830	981.667
107.089	13.317	1302.577	980.145
108.103	13.265	1300.910	978.499
109.118	13.284	1299.917	977.775
110.133	13.251	1299.130	976.904
111.147	13.224	1297.467	975.409
112.162	13.404	1295.489	974.893
113.176	13.313	1295.149	974.018
114.191	13.393	1294.093	973.608
115.206	13.357	1292.903	972.415
116.220	13.347	1291.964	971.560
117.235	13.412	1290.901	971.062
118.249	13.342	1289.551	969.550
119.264	13.285	1288.493	968.334
120.279	13.334	1286.988	967.404
121.293	13.334	1286.445	966.906
122.308	13.295	1285.482	965.869
123.322	13.244	1284.470	964.725
124.337	13.298	1283.241	964.036
125.352	13.254	1282.160	962.882
126.366	13.322	1281.383	962.610
127.381	13.312	1279.964	961.398
128.395	13.320	1278.606	960.337
129.410	13.205	1278.130	959.231
130.424	13.319	1277.110	959.042
131.439	13.458	1275.582	958.612
132.454	13.449	1275.136	958.139
133.468	13.445	1274.089	957.245
134.483	13.384	1273.825	956.612
135.497	13.411	1272.651	955.798
136.512	13.401	1271.449	954.757
137.527	13.416	1269.763	953.492
138.541	13.356	1268.275	951.946
139.556	13.456	1267.014	951.486
140.570	13.454	1265.976	950.611
141.585	13.519	1265.019	950.183
142.600	13.523	1263.712	949.143
143.614	13.596	1262.760	948.762
144.629	13.570	1261.601	947.657
145.643	13.708	1260.583	947.595
146.658	13.579	1259.524	945.980
147.673	13.499	1257.904	944.222
148.687	13.482	1256.914	943.302
149.702	13.603	1255.145	942.578
150.716	13.523	1253.630	940.903
151.731	13.446	1253.053	939.946
152.746	13.462	1251.739	938.970
153.760	13.586	1250.276	938.494
154.775	13.557	1249.535	937.688
155.789	13.712	1248.308	937.560
156.804	13.618	1247.172	936.096
157.819	13.716	1246.429	936.007
158.833	13.787	1245.223	935.418
159.848	13.759	1244.518	934.648
160.862	13.682	1243.672	933.495
161.877	13.629	1242.016	931.875
162.892	13.559	1241.180	930.771
163.906	13.524	1240.300	929.831
164.921	13.516	1239.739	929.282
165.935	13.614	1238.384	928.732
166.950	13.752	1237.537	928.793
167.964	13.664	1236.944	927.768
168.979	13.619	1236.817	927.342
169.994	13.702	1235.612	926.822
171.008	13.721	1234.577	926.070
172.023	13.772	1234.414	926.150
173.037	13.783	1233.410	925.372
174.052	13.789	1232.169	924.396
175.067	13.733	1231.057	923.166
176.081	13.767	1229.743	922.287
177.096	13.845	1228.875	921.987
178.110	13.741	1228.388	920.965
179.125	13.711	1226.976	919.656
180.140	13.777	1225.933	919.164
181.154	13.877	1224.258	918.377
182.169	13.826	1223.590	917.514
183.183	13.913	1222.219	916.885
184.198	13.868	1220.864	915.540
185.213	13.875	1219.562	914.518
186.227	14.011	1218.975	914.748
187.242	13.980	1217.746	913.575
188.256	14.039	1217.110	913.341
189.271	14.060	1215.582	912.226
190.286	13.849	1214.825	910.424
191.300	13.671	1214.239	908.926
192.315	13.769	1213.037	908.481
193.329	13.743	1212.945	908.190
194.344	13.840	1212.082	907.995
195.359	13.841	1211.475	907.466
196.373	13.896	1210.900	907.252
197.388	13.999	1210.717	907.599
198.402	14.179	1209.621	907.679
199.417	14.174	1209.345	907.364
200.432	14.200	1208.769	906.993
201.446	14.115	1208.229	906.044
202.461	14.281	1206.797	905.796
203.475	14.384	1205.683	905.437
204.490	14.207	1204.549	903.548
205.504	14.204	1203.442	902.619
206.519	14.226	1201.953	901.543
207.534	14.106	1201.334	900.351
208.548	14.238	1199.970	899.959
209.563	14.178	1199.446	899.163
210.577	14.208	1198.460	898.507
211.592	14.240	1197.912	898.189
212.607	14.266	1196.786	897.404
213.621	14.384	1195.798	897.221
214.636	14.261	1195.345	896.140
215.650	14.318	1194.441	895.688
216.665	14.346	1193.301	894.905
217.680	14.565	1192.382	895.313
218.694	14.432	1191.779	894.067
219.709	14.415	1190.928	893.261
220.723	14.413	1189.868	892.374
221.738	14.427	1189.089	891.783
222.753	14.436	1188.170	891.067
223.767	14.483	1187.417	890.673
224.782	14.579	1186.785	890.635
225.796	14.436	1186.690	889.721
226.811	14.611	1185.753	889.869
227.826	14.487	1185.063	888.613
228.840	14.479	1184.640	888.174
229.855	14.555	1183.409	887.576
230.869	14.475	1182.724	886.561
231.884	14.515	1181.633	885.877
232.899	14.497	1180.483	884.840
233.913	14.494	1180.365	884.659
234.928	14.447	1180.014	884.065
235.942	14.510	1178.778	883.395
236.957	14.474	1178.108	882.628
237.972	14.419	1177.657	881.920
238.986	14.426	1176.879	881.293
240.001	14.579	1175.692	881.136
241.015	14.468	1175.114	880.041
242.030	14.616	1173.807	879.763
243.045	14.608	1173.449	879.375
244.059	14.547	1172.739	878.444
245.074	14.610	1172.167	878.267
246.088	14.656	1171.633	878.031
247.103	14.714	1170.556	877.454
248.117	14.659	1170.119	876.758
249.132	14.793	1168.979	876.532
250.147	14.842	1168.557	876.392
251.161	14.947	1167.489	876.064
252.176	15.039	1167.298	876.327
253.190	14.949	1166.602	875.256
254.205	15.046	1166.163	875.356
255.220	15.069	1165.172	874.655
256.234	15.017	1164.621	873.891
257.249	15.154	1163.342	873.569
258.263	15.073	1162.827	872.682
259.278	14.927	1162.977	871.957
260.293	15.003	1162.089	871.608
261.307	15.133	1161.557	871.813
262.322	15.101	1160.625	870.869
263.336	15.183	1159.823	870.616
264.351	15.203	1158.918	869.960
265.366	15.164	1158.402	869.297
266.380	15.150	1157.939	868.800
267.395	15.141	1157.012	867.979
268.409	15.153	1156.237	867.385
269.424	15.224	1155.743	867.304
270.439	15.175	1154.909	866.347
271.453	15.151	1154.455	865.806
272.468	15.184	1153.131	864.909
273.482	15.198	1152.333	864.302
274.497	15.218	1151.995	864.079
275.512	15.243	1151.433	863.708
276.526	15.248	1150.239	862.760
277.541	15.158	1150.104	862.121
278.555	15.302	1149.027	861.978
279.570	15.308	1148.567	861.586
280.585	15.446	1147.661	861.539
281.599	15.375	1147.342	860.860
282.614	15.396	1145.675	859.640
283.628	15.350	1145.072	858.876
284.643	15.448	1143.872	858.403
285.657	15.350	1143.229	857.342
286.672	15.421	1141.759	856.528
287.687	15.441	1141.329	856.229
288.701	15.551	1140.416	856.030
289.716	15.390	1139.895	854.744
290.730	15.392	1139.114	854.094
291.745	15.437	1138.498	853.784
292.760	15.601	1137.073	853.471
293.774	15.451	1137.436	852.908
294.789	15.465	1136.720	852.365
295.803	15.629	1135.697	852.353
296.818	15.521	1134.977	851.195
297.833	15.453	1134.239	850.218
298.847	15.653	1133.362	850.498
299.862	15.623	1132.445	849.583
300.876	15.638	1131.838	849.127
301.891	15.598	1131.255	848.414
302.906	15.655	1130.722	848.226
303.920	15.696	1130.119	847.907
304.935	15.819	1129.020	847.627
305.949	15.827	1128.343	847.085
306.964	15.861	1128.071	846.976
307.979	15.827	1126.928	845.869
308.993	15.677	1126.818	844.961
310.008	15.830	1125.903	844.969
311.022	15.794	1125.130	844.134
312.037	15.841	1123.559	843.113
313.052	15.771	1123.162	842.390
314.066	15.746	1122.050	841.359
315.081	15.755	1121.384	840.830
316.095	15.770	1120.700	840.316
317.110	15.712	1119.981	839.414
318.125	15.798	1119.140	839.139
319.139	15.680	1118.609	838.079
320.154	15.701	1117.917	837.590
321.168	15.699	1117.441	837.148
322.183	15.818	1116.862	837.235
323.197	15.767	1116.496	836.632
324.212	15.899	1115.557	836.510
325.227	15.769	1114.910	835.305
326.241	15.688	1114.364	834.419
327.256	15.806	1113.251	834.098
328.270	15.899	1112.354	833.810
329.285	15.856	1111.406	832.815
330.300	15.812	1110.394	831.765
331.314	15.936	1109.619	831.724
332.329	15.888	1108.601	830.651
333.343	16.020	1107.341	830.284
334.358	16.048	1106.655	829.833
335.373	16.133	1105.951	829.649
336.387	15.918	1105.530	828.200
337.402	16.057	1104.425	827.985
338.416	16.012	1104.427	827.690
339.431	16.211	1103.087	827.589
340.446	16.085	1103.040	826.864
341.460	16.187	1102.379	826.797
342.475	16.271	1101.222	826.265
343.489	16.244	1100.088	825.209
344.504	16.321	1099.552	825.111
345.519	16.316	1098.314	824.082
346.533	16.414	1097.565	823.926
347.548	16.381	1096.779	823.101
348.562	16.407	1095.888	822.487
349.577	16.423	1095.105	821.905
350.592	16.310	1094.829	821.079
351.606	16.262	1094.126	820.245
352.621	16.288	1093.228	819.625
353.635	16.268	1092.532	818.932
354.650	16.247	1091.941	818.315
355.665	16.341	1090.914	817.930
356.679	16.440	1090.656	818.143
357.694	16.384	1090.350	817.569
358.708	16.400	1089.544	816.972
359.723	16.385	1088.746	816.225
360.738	16.481	1088.010	816.065
361.752	16.488	1087.618	815.735
362.767	16.457	1087.191	815.194
363.781	16.467	1086.578	814.708
364.796	16.445	1085.904	814.025
365.810	16.530	1085.573	814.115
366.825	16.750	1084.567	814.347
367.840	16.689	1084.330	813.803
368.854	16.741	1083.589	813.425
369.869	16.681	1082.804	812.473
370.883	16.758	1081.268	811.618
371.898	16.635	1081.013	810.765
372.913	16.705	1080.450	810.605
373.927	16.703	1080.098	810.264
374.942	16.671	1079.352	809.476
375.956	16.750	1078.841	809.399
376.971	16.755	1078.331	808.972
377.986	16.913	1077.442	808.985
379.000	16.898	1076.935	808.460
380.015	16.868	1076.726	808.090
381.029	16.962	1075.721	807.711
382.044	17.021	1074.947	807.338
383.059	16.975	1074.473	806.695
384.073	16.839	1073.978	805.604
385.088	16.944	1072.783	805.135
386.102	16.947	1071.838	804.367
387.117	16.907	1070.723	803.270
388.132	16.927	1070.134	802.852
389.146	16.976	1068.839	802.041
390.161	16.899	1068.273	801.184
391.175	16.908	1067.864	800.847
392.190	16.884	1067.199	800.165
393.205	16.997	1066.447	800.064
394.219	17.061	1065.785	799.799
395.234	17.052	1064.915	799.032
396.248	17.023	1063.658	797.881
397.263	16.998	1062.551	796.861
398.278	16.961	1062.314	796.440
399.292	16.959	1061.615	795.836
400.307	16.920	1061.111	795.207
401.321	16.988	1060.131	794.719
402.336	16.899	1059.538	793.788
403.350	17.030	1058.871	793.830
404.365	16.977	1058.127	792.958
405.380	17.003	1057.225	792.330
406.394	17.067	1056.860	792.287
407.409	16.988	1056.456	791.545
408.423	17.092	1055.424	791.187
409.438	17.299	1054.469	791.364
410.453	17.292	1053.823	790.776
411.467	17.409	1053.083	790.697
412.482	17.411	1052.422	790.136
413.496	17.364	1051.941	789.487
414.511	17.236	1051.184	788.258
415.526	17.428	1050.677	788.698
416.540	17.493	1050.349	788.681
417.555	17.510	1049.744	788.238
418.569	17.418	1049.347	787.443
419.584	17.454	1049.093	787.350
420.599	17.487	1048.418	786.924
421.613	104.868	1326.024	1476.767
422.628	96.458	1366.429	1476.856
