DTS Sentinel unit serial number:	SN413079Multiplexer serial number:	ORYXHardware model number:	OX4-SRSoftware version number:	ORYX F/W v4.00 Oryx Data Collector v3.7.2.0data status	okinstallation	princeton_trtdifferential loss correction	single-endedforward channel	channel 2reverse channel	N/Adate	2019/09/16time	20:23:35forward acquisition time	60.00reverse acquisition time	0.00gamma	496.2192k internal	0.2328k external	0.2328temperature offset calibration	0.9961default loss term (dB/km)	0.3790temperature slope calibration	1.0000multiplexer offset coefficient	1.0000multiplexer slope coefficient	1.0000fibre end	0.00T internal ref (°C)	32.78T ext. ref 1 (°C)	0.03T ext. ref 2 (°C)	26.69length (m)	temperature (°C)	Stokes	anti-Stokes-747.200	-200.000	-0.017	0.233
-746.185	-144.804	-0.067	-0.006
-745.171	-200.000	-0.004	0.198
-744.156	-200.000	0.011	0.232
-743.142	-93.139	0.076	0.021
-742.127	-200.000	0.005	-0.210
-741.112	136.843	0.212	0.279
-740.098	148.923	-0.158	0.216
-739.083	55.212	0.180	-0.175
-738.069	339.829	0.105	0.206
-737.054	-123.917	-0.261	-0.041
-736.039	-200.000	-0.072	-0.342
-735.025	800.000	-0.024	0.073
-734.010	145.092	0.247	0.332
-732.996	-200.000	0.038	0.205
-731.981	-99.952	-0.061	-0.015
-730.966	5.316	0.232	0.172
-729.952	17.111	-0.178	-0.142
-728.937	323.724	-0.065	-0.124
-727.923	-95.828	-0.092	0.025
-726.908	800.000	-0.039	-0.166
-725.894	53.475	-0.169	-0.163
-724.879	-200.000	-0.002	-0.104
-723.864	-133.114	0.119	0.015
-722.850	568.081	-0.033	-0.081
-721.835	47.173	-0.172	-0.161
-720.821	-60.362	-0.278	-0.119
-719.806	800.000	-0.073	0.215
-718.791	-75.207	-0.321	0.115
-717.777	101.165	-0.087	-0.101
-716.762	135.011	-0.168	-0.219
-715.748	402.868	-0.152	-0.321
-714.733	27.385	-0.124	0.105
-713.718	-144.178	0.302	0.028
-712.704	-200.000	0.005	0.099
-711.689	80.058	-0.258	-0.280
-710.675	170.663	-0.119	-0.171
-709.660	179.264	0.149	0.220
-708.645	-13.558	-0.069	-0.045
-707.631	152.551	0.171	0.235
-706.616	72.622	-0.030	-0.031
-705.602	493.077	-0.112	0.259
-704.587	-14.123	-0.321	-0.209
-703.572	-200.000	0.042	-0.520
-702.558	-84.725	0.201	0.064
-701.543	-200.000	-0.011	0.162
-700.529	8.285	0.129	-0.097
-699.514	604.266	-0.054	-0.134
-698.499	-119.838	0.199	-0.035
-697.485	386.231	-0.058	0.121
-696.470	-200.000	-0.148	-0.001
-695.456	541.564	0.102	0.244
-694.441	-35.026	-0.206	0.113
-693.426	-200.000	0.013	-0.056
-692.412	-112.998	-0.052	0.010
-691.397	123.713	-0.157	-0.198
-690.383	-166.239	0.172	0.007
-689.368	-125.239	-0.365	0.056
-688.354	-134.163	-0.372	-0.046
-687.339	99.471	0.249	0.289
-686.324	-56.358	-0.399	0.178
-685.310	-4.463	-0.151	-0.105
-684.295	134.882	-0.219	0.286
-683.281	-45.795	0.250	-0.124
-682.266	65.966	0.136	0.139
-681.251	530.536	0.179	-0.425
-680.237	800.000	-0.028	-0.099
-679.222	-14.547	0.254	0.164
-678.208	-48.712	0.152	-0.074
-677.193	55.852	-0.081	-0.079
-676.178	-50.394	0.064	0.030
-675.164	-155.977	-0.098	0.006
-674.149	-200.000	0.343	-0.000
-673.135	-144.272	-0.308	0.029
-672.120	-200.000	0.012	0.059
-671.105	-41.167	0.160	-0.083
-670.091	385.690	0.090	-0.187
-669.076	-200.000	0.002	-0.239
-668.062	-183.238	0.091	-0.002
-667.047	-200.000	-0.016	-0.158
-666.032	800.000	-0.027	0.090
-665.018	354.430	0.078	0.155
-664.003	-36.749	-0.070	0.038
-662.989	800.000	0.078	-0.329
-661.974	800.000	0.110	-0.329
-660.959	800.000	0.082	0.319
-659.945	-40.132	0.163	0.085
-658.930	406.099	0.152	-0.322
-657.916	154.573	0.096	-0.133
-656.901	-47.774	-0.259	0.126
-655.886	-200.000	-0.028	-0.145
-654.872	-143.494	0.241	0.023
-653.857	800.000	-0.075	-0.260
-652.843	312.268	-0.224	-0.422
-651.828	221.771	0.081	-0.130
-650.814	-80.775	-0.241	0.080
-649.799	-55.298	-0.068	0.030
-648.784	31.573	0.106	-0.092
-647.770	800.000	-0.134	-0.465
-646.755	756.085	-0.136	-0.371
-645.741	-200.000	-0.017	-0.092
-644.726	800.000	0.137	0.411
-643.711	51.783	0.109	0.104
-642.697	-31.783	-0.202	-0.114
-641.682	156.884	0.258	-0.358
-640.668	104.620	0.145	-0.171
-639.653	-200.000	0.006	-0.327
-638.638	-104.328	-0.168	0.039
-637.624	-1.910	0.282	0.199
-636.609	-107.865	-0.135	0.029
-635.595	-63.564	-0.020	0.008
-634.580	-103.900	-0.044	0.010
-633.565	-112.589	0.190	0.038
-632.551	135.160	0.014	0.018
-631.536	90.693	0.097	0.109
-630.522	800.000	-0.054	-0.193
-629.507	-115.983	0.323	0.060
-628.492	14.196	-0.092	-0.072
-627.478	28.877	0.174	-0.148
-626.463	206.349	-0.192	-0.301
-625.449	-169.890	-0.244	0.009
-624.434	43.968	-0.204	0.188
-623.419	-114.560	0.233	-0.045
-622.405	89.754	-0.371	0.416
-621.390	118.267	-0.229	-0.283
-620.376	800.000	0.158	0.581
-619.361	191.955	-0.213	0.322
-618.346	88.361	-0.236	0.263
-617.332	-200.000	-0.104	0.482
-616.317	-177.547	-0.080	0.002
-615.303	-105.593	0.062	-0.014
-614.288	-200.000	0.025	0.276
-613.273	36.049	-0.056	-0.049
-612.259	246.362	0.109	0.185
-611.244	-44.108	-0.054	0.027
-610.230	-116.152	-0.100	0.019
-609.215	-52.070	-0.270	0.126
-608.201	161.422	0.155	0.217
-607.186	-200.000	-0.193	-0.001
-606.171	125.875	0.055	0.070
-605.157	-4.804	0.303	-0.210
-604.142	173.624	0.018	-0.026
-603.128	-32.935	0.280	-0.156
-602.113	-68.699	-0.268	0.104
-601.098	-187.668	-0.077	-0.001
-600.084	383.707	-0.118	0.244
-599.069	-200.000	-0.246	0.001
-598.055	800.000	0.046	0.148
-597.040	-200.000	-0.032	0.218
-596.025	-200.000	-0.010	0.218
-595.011	-71.812	-0.206	-0.077
-593.996	223.109	-0.043	-0.069
-592.982	484.044	0.058	-0.133
-591.967	10.751	0.032	-0.024
-590.952	-200.000	0.035	0.216
-589.938	-132.348	-0.155	-0.020
-588.923	-102.610	-0.124	0.030
-587.909	-13.914	0.080	0.052
-586.894	-200.000	-0.030	0.149
-585.879	-127.904	0.116	-0.017
-584.865	598.383	0.035	-0.087
-583.850	800.000	0.033	0.107
-582.836	-200.000	-0.007	0.035
-581.821	800.000	0.055	0.230
-580.806	-154.157	-0.261	0.018
-579.792	-18.184	0.153	-0.096
-578.777	500.710	0.033	-0.077
-577.763	-200.000	-0.070	-0.377
-576.748	-33.493	0.301	-0.167
-575.733	800.000	-0.114	0.353
-574.719	207.500	-0.149	-0.232
-573.704	656.643	-0.120	-0.308
-572.690	-162.615	-0.124	0.006
-571.675	-184.045	-0.251	0.004
-570.661	319.990	-0.059	-0.113
-569.646	41.559	0.152	-0.138
-568.631	197.003	0.167	-0.254
-567.617	-200.000	0.023	-0.169
-566.602	-19.825	-0.354	-0.219
-565.588	-20.273	0.071	-0.044
-564.573	-200.000	-0.008	0.143
-563.558	-82.071	-0.199	0.065
-562.544	-107.585	-0.182	0.040
-561.529	-200.000	-0.002	-0.053
-560.515	-103.628	-0.350	-0.082
-559.500	108.011	-0.053	-0.064
-558.485	3.172	0.153	-0.112
-557.471	-84.395	0.161	-0.051
-556.456	619.591	-0.076	0.191
-555.442	-1.135	0.221	-0.156
-554.427	9.482	0.404	0.306
-553.412	310.138	-0.086	-0.161
-552.398	460.916	-0.083	-0.185
-551.383	-82.703	0.171	-0.055
-550.369	257.620	-0.106	0.183
-549.354	177.586	-0.054	0.079
-548.339	-192.907	0.249	0.002
-547.325	800.000	-0.039	0.139
-546.310	139.387	-0.029	-0.038
-545.296	54.081	0.215	0.206
-544.281	-200.000	-0.029	-0.180
-543.266	660.118	-0.046	0.118
-542.252	647.381	-0.167	-0.427
-541.237	-157.356	0.322	-0.019
-540.223	103.601	-0.076	0.090
-539.208	-101.553	0.115	-0.028
-538.193	-39.827	0.188	-0.098
-537.179	-38.061	-0.300	-0.159
-536.164	-58.699	-0.157	0.068
-535.150	-98.938	0.201	0.051
-534.135	36.528	0.200	0.177
-533.121	800.000	0.046	0.166
-532.106	397.844	0.081	-0.170
-531.091	-102.062	-0.295	-0.071
-530.077	-200.000	-0.022	0.099
-529.062	43.225	-0.083	0.076
-528.048	-101.013	0.235	-0.058
-527.033	268.871	-0.368	0.645
-526.018	-200.000	0.021	0.231
-525.004	-23.161	-0.278	-0.167
-523.989	180.529	0.210	-0.307
-522.975	-200.000	-0.005	-0.174
-521.960	110.399	-0.243	-0.292
-520.945	728.014	-0.108	-0.287
-519.931	-53.603	-0.333	0.152
-518.916	125.484	0.172	-0.217
-517.902	70.209	0.177	-0.182
-516.887	-42.305	-0.133	0.068
-515.872	399.350	0.075	-0.156
-514.858	800.000	0.056	-0.177
-513.843	-56.412	-0.081	0.036
-512.829	182.740	0.268	0.394
-511.814	44.922	-0.288	-0.265
-510.799	-48.154	-0.109	-0.052
-509.785	-108.800	0.319	-0.068
-508.770	-104.675	-0.312	-0.072
-507.756	-200.000	0.018	0.100
-506.741	-117.718	-0.103	0.018
-505.726	99.670	-0.130	-0.151
-504.712	-130.589	-0.340	-0.046
-503.697	800.000	-0.063	0.181
-502.683	-200.000	0.051	-0.263
-501.668	-200.000	-0.007	-0.246
-500.653	138.050	0.121	0.158
-499.639	-62.652	-0.160	0.066
-498.624	-200.000	-0.004	-0.432
-497.610	284.010	-0.130	-0.233
-496.595	-200.000	-0.055	0.317
-495.581	199.060	-0.070	0.108
-494.566	-88.342	-0.266	-0.079
-493.551	617.261	0.061	0.154
-492.537	-32.817	-0.132	-0.073
-491.522	-133.606	0.186	-0.023
-490.508	218.121	-0.112	0.179
-489.493	-137.895	-0.179	-0.020
-488.478	655.371	0.063	-0.162
-487.464	208.537	0.106	-0.165
-486.449	9.171	0.241	0.182
-485.435	-166.932	0.258	0.011
-484.420	-113.620	-0.062	-0.012
-483.405	-200.000	0.031	-0.176
-482.391	630.432	0.117	-0.297
-481.376	-104.703	0.247	-0.057
-480.362	-10.356	-0.239	0.158
-479.347	-5.444	0.384	-0.263
-478.332	-200.000	0.054	-0.262
-477.318	104.689	0.263	0.309
-476.303	-50.184	0.183	-0.086
-475.289	800.000	-0.053	0.174
-474.274	93.139	-0.147	-0.166
-473.259	243.537	-0.310	0.519
-472.245	-1.377	-0.121	0.085
-471.230	-114.362	-0.213	-0.041
-470.216	14.310	0.159	-0.123
-469.201	-12.738	0.084	0.055
-468.186	266.538	-0.085	0.148
-467.172	-67.342	-0.276	0.108
-466.157	-200.000	0.019	0.206
-465.143	-200.000	-0.025	0.224
-464.128	-200.000	0.009	-0.055
-463.113	-200.000	-0.036	0.305
-462.099	-19.296	-0.098	0.060
-461.084	-4.559	-0.051	-0.035
-460.070	116.010	0.184	0.224
-459.055	-200.000	-0.012	-0.057
-458.040	96.189	0.048	-0.055
-457.026	34.232	0.132	-0.115
-456.011	-15.338	0.305	-0.194
-454.997	184.506	0.151	0.224
-453.982	-36.613	0.211	-0.113
-452.968	346.956	0.081	0.158
-451.953	-126.959	-0.463	0.068
-450.938	210.429	0.252	0.394
-449.924	-42.229	-0.090	0.046
-448.909	51.852	0.130	-0.123
-447.895	651.149	0.026	-0.066
-446.880	27.550	-0.235	0.197
-445.865	800.000	0.072	0.251
-444.851	-146.367	0.068	-0.006
-443.836	800.000	0.017	0.049
-442.822	-32.604	0.037	-0.021
-441.807	-151.570	-0.334	-0.025
-440.792	-62.375	0.080	-0.033
-439.778	-15.816	0.205	0.130
-438.763	89.082	0.065	-0.072
-437.749	-119.942	0.286	0.049
-436.734	-137.732	0.081	-0.009
-435.719	-132.529	0.175	0.022
-434.705	800.000	0.091	-0.257
-433.690	-200.000	-0.026	0.260
-432.676	52.080	-0.155	0.147
-431.661	65.123	0.188	0.189
-430.646	-2.501	-0.203	-0.141
-429.632	253.490	0.100	-0.170
-428.617	-52.650	-0.201	0.092
-427.603	-67.448	0.088	-0.035
-426.588	142.438	-0.105	0.139
-425.573	-87.311	-0.150	0.045
-424.559	-89.292	0.291	-0.085
-423.544	30.357	0.111	0.095
-422.530	-32.379	0.347	0.193
-421.515	-9.188	-0.092	0.061
-420.500	800.000	0.106	-0.295
-419.486	-7.135	-0.150	0.102
-418.471	188.596	-0.191	0.285
-417.457	170.207	0.250	-0.356
-416.442	800.000	0.029	-0.080
-415.428	-200.000	-0.012	0.058
-414.413	-44.424	0.363	0.181
-413.398	800.000	0.035	0.115
-412.384	50.690	0.084	0.079
-411.369	182.305	-0.156	0.229
-410.355	121.924	-0.129	-0.160
-409.340	-49.948	0.090	0.042
-408.325	261.807	0.085	0.146
-407.311	-117.774	0.288	-0.051
-406.296	-45.872	-0.186	0.091
-405.282	160.940	-0.199	0.277
-404.267	78.862	0.108	-0.115
-403.252	-38.351	0.120	-0.063
-402.238	174.170	-0.129	0.185
-401.223	735.323	0.023	0.060
-400.209	-114.413	-0.373	0.071
-399.194	-18.346	-0.201	-0.125
-398.179	-200.000	-0.015	0.180
-397.165	-25.618	-0.171	-0.100
-396.150	-31.834	0.247	-0.138
-395.136	-95.789	-0.123	-0.033
-394.121	362.419	0.064	0.128
-393.106	-200.000	-0.046	0.223
-392.092	-30.545	-0.166	0.093
-391.077	-147.558	0.155	0.013
-390.063	-23.895	-0.300	0.178
-389.048	343.420	0.088	-0.172
-388.033	139.919	-0.206	-0.270
-387.019	313.962	-0.053	-0.099
-386.004	228.135	-0.171	-0.276
-384.990	-76.090	0.047	-0.016
-383.975	-97.971	0.240	0.061
-382.960	-40.115	0.038	0.019
-381.946	-129.457	0.309	-0.043
-380.931	27.155	-0.092	0.077
-379.917	-2.316	0.294	-0.205
-378.902	-131.515	-0.088	-0.012
-377.888	-72.144	-0.174	-0.064
-376.873	-59.593	0.117	0.050
-375.858	-49.983	0.089	0.042
-374.844	-200.000	-0.022	-0.252
-373.829	46.960	0.097	0.090
-372.815	-79.777	-0.219	-0.073
-371.800	-200.000	-0.009	-0.135
-370.785	64.420	0.054	-0.054
-369.771	13.272	-0.189	0.146
-368.756	-101.919	-0.245	0.059
-367.742	383.681	0.099	-0.203
-366.727	32.067	0.145	-0.124
-365.712	2.014	-0.056	0.040
-364.698	45.515	-0.146	-0.134
-363.683	70.309	0.121	0.124
-362.669	702.854	-0.092	0.241
-361.654	60.998	-0.051	-0.051
-360.639	417.369	-0.059	-0.125
-359.625	46.481	0.099	0.092
-358.610	78.498	0.141	0.150
-357.596	-200.000	-0.003	0.273
-356.581	-94.547	0.118	-0.032
-355.566	-30.690	-0.350	0.197
-354.552	-200.000	-0.080	0.367
-353.537	28.091	-0.302	-0.253
-352.523	422.368	-0.121	-0.258
-351.508	-26.117	0.178	0.104
-350.493	-122.044	0.115	-0.019
-349.479	-200.000	-0.016	-0.147
-348.464	536.679	0.138	-0.326
-347.450	800.000	0.046	0.163
-346.435	-200.000	0.042	0.361
-345.420	452.216	0.052	0.114
-344.406	6.003	0.144	0.106
-343.391	-200.000	0.041	-0.270
-342.377	280.579	0.030	-0.053
-341.362	620.539	-0.070	-0.176
-340.348	138.655	0.152	-0.198
-339.333	332.939	-0.153	0.293
-338.318	-200.000	0.015	-0.245
-337.304	-200.000	-0.062	0.382
-336.289	-109.682	-0.198	0.041
-335.275	188.580	-0.166	0.246
-334.260	-98.091	0.305	0.078
-333.245	-77.679	-0.358	-0.123
-332.231	-200.000	0.075	-0.400
-331.216	-47.643	0.382	-0.184
-330.202	-123.668	-0.250	0.039
-329.187	-101.399	0.216	0.052
-328.172	434.840	0.067	-0.145
-327.158	154.486	-0.077	-0.105
-326.143	444.645	0.111	0.242
-325.129	-200.000	0.004	0.057
-324.114	-200.000	0.107	-0.529
-323.099	-6.525	-0.021	-0.014
-322.085	-82.674	0.145	-0.047
-321.070	-200.000	-0.013	-0.093
-320.056	-200.000	-0.010	-0.392
-319.041	-79.825	0.135	0.045
-318.026	-200.000	0.008	-0.080
-317.012	121.533	-0.213	0.264
-315.997	-40.971	-0.042	0.022
-314.983	21.012	0.218	-0.175
-313.968	-80.245	0.105	0.035
-312.953	610.243	-0.056	0.139
-311.939	-200.000	0.023	0.291
-310.924	-120.059	0.157	0.027
-309.910	-71.808	0.050	0.018
-308.895	-200.000	0.196	-0.000
-307.880	21.093	0.255	-0.205
-306.866	800.000	0.111	-0.338
-305.851	150.661	0.204	0.274
-304.837	723.489	0.041	0.107
-303.822	95.534	0.173	0.196
-302.807	-200.000	-0.050	-0.339
-301.793	-43.841	0.155	0.077
-300.778	49.255	-0.058	-0.054
-299.764	-200.000	-0.001	-0.307
-298.749	-19.953	0.078	-0.047
-297.735	-200.000	0.040	0.208
-296.720	-140.008	0.364	0.038
-295.705	-59.027	-0.248	-0.106
-294.691	-68.686	-0.204	-0.078
-293.676	59.526	0.240	0.234
-292.662	-103.263	-0.249	-0.058
-291.647	-119.323	-0.148	0.026
-290.632	800.000	-0.011	0.033
-289.618	-112.988	-0.388	0.076
-288.603	-112.202	-0.019	-0.004
-287.589	-166.350	-0.261	0.011
-286.574	800.000	0.034	0.097
-285.559	-200.000	-0.014	0.066
-284.545	-103.065	0.117	-0.027
-283.530	229.537	-0.236	-0.381
-282.516	-65.431	-0.270	-0.108
-281.501	26.763	0.200	-0.165
-280.486	96.168	-0.093	0.105
-279.472	-89.197	-0.210	0.061
-278.457	143.990	-0.179	-0.236
-277.443	-200.000	0.032	-0.154
-276.428	-24.139	0.148	0.087
-275.413	-153.427	0.047	-0.003
-274.399	373.659	-0.079	-0.160
-273.384	454.201	-0.080	-0.175
-272.370	-200.000	0.013	0.128
-271.355	299.178	0.087	-0.158
-270.340	175.249	0.091	-0.130
-269.326	800.000	-0.081	0.310
-268.311	4.730	-0.237	0.172
-267.297	618.389	0.066	-0.165
-266.282	435.713	-0.080	0.173
-265.267	-48.613	0.076	0.036
-264.253	-30.910	-0.256	0.143
-263.238	-0.165	-0.079	-0.056
-262.224	316.858	-0.125	0.234
-261.209	176.512	-0.102	-0.146
-260.195	-100.043	0.137	-0.034
-259.180	214.107	-0.103	-0.161
-258.165	-92.691	-0.290	0.080
-257.151	-200.000	-0.019	-0.108
-256.136	305.553	0.111	0.204
-255.122	416.656	-0.130	-0.275
-254.107	-200.000	0.013	-0.202
-253.092	167.300	0.124	-0.174
-252.078	-91.463	0.141	-0.040
-251.063	192.058	0.089	0.132
-250.049	22.459	0.087	0.070
-249.034	-124.482	0.229	-0.035
-248.019	508.425	0.085	-0.196
-247.005	-118.265	-0.070	-0.012
-245.990	64.032	-0.069	0.068
-244.976	-200.000	-0.007	-0.101
-243.961	-142.531	0.193	0.019
-242.946	230.077	-0.097	0.157
-241.932	267.837	-0.047	0.081
-240.917	205.892	-0.155	0.239
-239.903	-200.000	0.060	-0.304
-238.888	471.224	0.057	-0.127
-237.873	-141.485	0.163	-0.016
-236.859	800.000	-0.050	0.200
-235.844	-24.784	-0.137	-0.080
-234.830	-157.092	-0.347	-0.021
-233.815	369.964	0.133	0.267
-232.800	-62.797	0.225	0.092
-231.786	592.396	-0.156	-0.381
-230.771	-34.311	0.097	-0.053
-229.757	800.000	0.101	0.293
-228.742	800.000	0.102	-0.286
-227.727	-30.302	0.286	-0.160
-226.713	26.072	0.076	-0.062
-225.698	-103.611	0.228	-0.053
-224.684	670.329	0.001	-0.003
-223.669	-49.072	-0.377	0.178
-222.655	-145.963	0.491	0.043
-221.640	-200.000	-0.013	-0.096
-220.625	29.881	0.173	-0.145
-219.611	-110.394	-0.129	-0.026
-218.596	-24.866	-0.248	0.145
-217.582	-11.727	-0.030	-0.020
-216.567	800.000	-0.031	0.086
-215.552	116.521	-0.161	-0.195
-214.538	165.281	-0.032	-0.045
-213.523	800.000	0.079	-0.224
-212.509	69.349	-0.087	-0.089
-211.494	-11.596	0.090	0.058
-210.479	42.165	-0.078	-0.070
-209.465	-97.879	-0.086	-0.022
-208.450	-200.000	-0.014	-0.107
-207.436	-19.908	-0.073	0.044
-206.421	16.894	-0.119	-0.093
-205.406	126.238	-0.088	-0.110
-204.392	333.908	0.138	-0.263
-203.377	126.760	-0.048	0.060
-202.363	800.000	0.044	-0.159
-201.348	308.599	-0.061	0.112
-200.333	-15.712	0.292	-0.183
-199.319	-3.380	-0.104	0.072
-198.304	-147.501	-0.154	0.013
-197.290	-82.023	-0.006	-0.002
-196.275	-200.000	-0.004	0.229
-195.260	-45.173	0.333	0.163
-194.246	-5.447	0.091	-0.062
-193.231	-200.000	0.028	-0.230
-192.217	-40.645	-0.065	0.033
-191.202	-200.000	0.027	0.154
-190.187	-195.518	0.374	0.003
-189.173	-149.238	-0.236	0.019
-188.158	-200.000	0.008	0.306
-187.144	93.843	-0.212	0.237
-186.129	-137.705	0.262	0.029
-185.114	368.601	0.050	0.100
-184.100	70.611	-0.202	-0.206
-183.085	-157.691	0.353	-0.021
-182.071	-60.153	-0.169	0.071
-181.056	-32.798	0.331	0.181
-180.042	2.310	0.080	0.057
-179.027	21.507	0.175	0.140
-178.012	-107.856	-0.131	-0.028
-176.998	-200.000	-0.008	0.253
-175.983	-145.399	0.098	-0.009
-174.969	11.875	0.160	0.121
-173.954	-122.179	-0.108	0.017
-172.939	58.366	-0.107	-0.104
-171.925	-200.000	0.012	0.090
-170.910	121.375	-0.164	-0.202
-169.896	590.661	-0.105	0.256
-168.881	-47.745	-0.047	-0.023
-167.866	-194.588	0.119	0.001
-166.852	-200.000	-0.031	-0.135
-165.837	-104.681	0.288	0.065
-164.823	124.801	0.033	-0.040
-163.808	-87.766	0.507	0.151
-162.793	-84.918	-0.027	0.008
-161.779	266.972	-0.044	0.075
-160.764	426.769	-0.048	-0.101
-159.750	-97.113	0.174	-0.045
-158.735	-124.593	-0.135	-0.021
-157.720	104.722	-0.211	-0.245
-156.706	-200.000	0.001	0.096
-155.691	-22.569	0.201	0.120
-154.677	-67.428	-0.228	-0.088
-153.662	194.351	-0.021	0.031
-152.647	-160.651	0.199	0.010
-151.633	-200.000	0.048	0.255
-150.618	-16.726	0.248	0.155
-149.604	-200.000	-0.063	0.335
-148.589	-77.155	-0.110	0.038
-147.574	119.219	0.062	-0.076
-146.560	520.184	-0.177	-0.409
-145.545	-176.117	-0.073	-0.002
-144.531	-129.280	-0.187	-0.026
-143.516	68.150	0.108	0.109
-142.502	172.224	0.166	0.235
-141.487	-132.994	0.345	-0.043
-140.472	-200.000	-0.032	-0.378
-139.458	-154.443	0.159	-0.011
-138.443	-200.000	-0.025	0.130
-137.429	-200.000	0.019	-0.194
-136.414	-152.566	0.272	-0.019
-135.399	444.663	-0.097	-0.210
-134.385	-23.001	-0.151	0.090
-133.370	-55.473	-0.273	0.120
-132.356	25.479	-0.092	0.075
-131.341	-145.644	-0.256	-0.023
-130.326	-200.000	-0.023	0.147
-129.312	12.685	-0.071	-0.054
-128.297	70.776	-0.031	-0.032
-127.283	-179.121	-0.191	0.004
-126.268	48.609	0.282	0.260
-125.253	379.561	0.080	0.161
-124.239	104.970	-0.047	0.055
-123.224	219.117	0.125	-0.197
-122.210	-200.000	-0.001	0.079
-121.195	-7.973	-0.132	-0.087
-120.180	-106.912	0.133	-0.029
-119.166	800.000	-0.056	-0.235
-118.151	-200.000	-0.047	-0.381
-117.137	192.454	-0.043	0.063
-116.122	-45.210	0.159	-0.077
-115.107	-200.000	0.000	0.294
-114.093	-127.929	0.118	-0.017
-113.078	405.906	0.091	-0.189
-112.064	800.000	-0.053	-0.218
-111.049	-200.000	0.057	-0.000
-110.034	800.000	-0.051	-0.178
-109.020	-64.472	-0.135	-0.054
-108.005	800.000	-0.108	-0.335
-106.991	372.930	0.106	-0.213
-105.976	-143.609	-0.160	-0.015
-104.962	-0.781	-0.322	-0.224
-103.947	-196.333	0.202	0.001
-102.932	-111.856	0.319	-0.063
-101.918	-90.150	0.033	-0.009
-100.903	800.000	0.042	0.131
-99.889	-73.979	0.184	-0.066
-98.874	-98.507	-0.344	-0.086
-97.859	-200.000	0.012	-0.207
-96.845	-6.393	0.125	0.084
-95.830	-168.668	-0.286	-0.011
-94.816	-113.373	0.339	-0.065
-93.801	-200.000	-0.031	-0.283
-92.786	-73.375	0.415	0.149
-91.772	2.649	0.151	0.107
-90.757	-140.889	0.339	-0.034
-89.743	55.985	-0.091	0.087
-88.728	-144.747	0.575	-0.052
-87.713	-200.000	0.001	-0.169
-86.699	110.430	0.085	0.100
-85.684	-147.909	0.194	0.016
-84.670	-200.000	0.008	-0.041
-83.655	176.356	-0.053	-0.075
-82.640	-105.543	-0.072	-0.016
-81.626	169.541	-0.170	0.239
-80.611	259.513	-0.012	-0.020
-79.597	-33.479	0.289	0.157
-78.582	397.079	0.063	0.130
-77.567	-153.139	0.064	-0.004
-76.553	800.000	-0.159	0.474
-75.538	298.598	-0.091	0.164
-74.524	-0.040	-0.423	0.296
-73.509	-19.316	-0.181	0.110
-72.494	123.624	-0.118	-0.145
-71.480	-135.855	-0.259	0.030
-70.465	800.000	-0.086	0.303
-69.451	617.326	0.139	0.342
-68.436	-200.000	0.009	-0.135
-67.422	-168.547	0.098	-0.004
-66.407	-168.358	-0.082	-0.003
-65.392	-93.784	-0.224	-0.061
-64.378	553.698	0.194	0.458
-63.363	43.377	0.350	0.314
-62.349	800.000	-0.030	-0.086
-61.334	135.556	-0.873	-1.114
-60.319	311.972	0.298	0.549
-59.305	487.467	-0.386	-0.865
-58.290	176.260	0.664	0.946
-57.276	441.881	0.615	1.321
-56.261	-200.000	93.145	570.373
-55.246	576.861	1358.470	3257.202
-54.232	164.882	2530.647	3503.935
-53.217	107.446	2264.621	2642.759
-52.203	42.131	1894.964	1687.884
-51.188	35.997	1685.557	1455.145
-50.173	33.333	1641.348	1397.285
-49.159	51.093	1686.588	1568.885
-48.144	52.606	1703.533	1595.891
-47.130	35.720	1664.952	1435.056
-46.115	32.911	1650.847	1402.021
-45.100	32.747	1645.780	1396.443
-44.086	32.712	1643.309	1394.036
-43.071	32.672	1640.754	1391.518
-42.057	32.760	1638.031	1389.799
-41.042	32.653	1636.584	1387.731
-40.027	32.744	1634.220	1386.340
-39.013	32.668	1632.656	1384.401
-37.998	32.550	1631.455	1382.460
-36.984	32.773	1629.345	1382.249
-35.969	32.773	1628.433	1381.426
-34.954	32.857	1626.496	1380.339
-33.940	32.719	1625.316	1378.273
-32.925	32.702	1623.399	1376.472
-31.911	32.809	1621.385	1375.491
-30.896	32.778	1619.555	1373.657
-29.881	32.803	1618.251	1372.676
-28.867	32.798	1616.223	1370.866
-27.852	32.763	1614.742	1369.298
-26.838	32.744	1613.529	1368.077
-25.823	32.796	1612.047	1367.143
-24.809	32.786	1610.694	1365.868
-23.794	32.846	1609.326	1365.089
-22.779	32.835	1607.830	1363.687
-21.765	32.795	1605.995	1361.790
-20.750	32.786	1604.294	1360.231
-19.736	32.749	1603.521	1359.253
-18.721	32.782	1602.051	1358.190
-17.706	32.770	1600.531	1356.763
-16.692	32.753	1599.082	1355.357
-15.677	32.806	1597.261	1354.140
-14.663	32.811	1596.180	1353.207
-13.648	32.801	1595.062	1352.129
-12.633	32.833	1592.867	1350.450
-11.619	32.843	1591.398	1349.219
-10.604	32.786	1589.967	1347.546
-9.590	32.755	1588.890	1346.359
-8.575	32.866	1587.384	1345.824
-7.560	33.010	1585.859	1345.496
-6.546	32.860	1584.927	1343.586
-5.531	32.803	1584.185	1342.501
-4.517	32.763	1583.083	1341.224
-3.502	32.853	1581.570	1340.531
-2.487	32.853	1580.240	1339.348
-1.473	32.460	1567.982	1326.144
-0.458	29.539	1548.307	1289.094
0.556	23.732	1548.832	1255.658
1.571	21.295	1571.206	1256.187
2.586	20.756	1584.985	1263.186
3.600	18.921	1532.412	1208.291
4.615	10.511	1423.044	1066.839
5.629	1.907	1356.429	962.662
6.644	0.121	1347.029	944.705
7.659	-0.045	1346.194	942.992
8.673	0.047	1344.743	942.472
9.688	-0.013	1342.933	940.743
10.702	-0.252	1340.156	937.224
11.717	3.690	1346.122	966.003
12.731	12.612	1360.564	1032.474
13.746	17.748	1366.660	1069.291
14.761	17.232	1364.613	1064.363
15.775	16.214	1361.655	1055.600
16.790	15.113	1359.465	1046.929
17.804	14.398	1357.146	1040.585
18.819	14.046	1355.778	1037.247
19.834	13.711	1354.166	1033.833
20.848	13.468	1353.227	1031.513
21.863	13.209	1352.043	1028.905
22.877	13.002	1350.883	1026.643
23.892	12.975	1349.715	1025.496
24.907	13.038	1349.257	1025.455
25.921	12.984	1348.210	1024.230
26.936	13.026	1347.179	1023.616
27.950	13.056	1346.398	1023.117
28.965	13.088	1345.773	1022.749
29.980	13.173	1344.513	1022.227
30.994	13.386	1343.166	1022.432
32.009	13.340	1342.604	1021.628
33.023	13.269	1341.502	1020.263
34.038	13.259	1340.224	1019.138
35.053	13.159	1339.442	1017.836
36.067	13.212	1338.230	1017.150
37.082	13.187	1337.696	1016.504
38.096	13.225	1336.248	1015.545
39.111	13.189	1335.497	1014.666
40.126	13.256	1334.328	1014.098
41.140	13.133	1333.743	1012.812
42.155	12.938	1333.605	1011.417
43.169	12.951	1333.804	1011.558
44.184	13.019	1332.922	1011.220
45.199	12.977	1332.767	1010.751
46.213	13.051	1331.897	1010.460
47.228	13.159	1330.920	1010.287
48.242	13.033	1329.832	1008.604
49.257	13.014	1328.768	1007.587
50.271	13.117	1326.683	1006.548
51.286	13.057	1326.001	1005.577
52.301	13.158	1324.747	1005.149
53.315	13.075	1323.474	1003.589
54.330	13.057	1322.704	1002.808
55.344	13.053	1321.273	1001.611
56.359	13.053	1319.946	1000.517
57.374	12.992	1319.480	999.705
58.388	13.036	1318.641	999.250
59.403	12.926	1318.182	998.145
60.417	12.883	1317.467	997.258
61.432	13.015	1315.928	996.798
62.447	12.833	1315.938	995.621
63.461	12.955	1313.762	994.620
64.476	12.936	1313.034	993.866
65.490	12.975	1312.214	993.396
66.505	12.870	1310.977	991.735
67.520	12.997	1309.068	990.968
68.534	12.896	1308.434	989.797
69.549	12.933	1306.899	988.767
70.563	12.949	1305.959	988.062
71.578	12.855	1304.923	986.630
72.593	12.799	1304.328	985.756
73.607	12.875	1302.703	984.897
74.622	12.712	1302.794	983.906
75.636	12.925	1301.348	983.995
76.651	12.876	1300.726	983.150
77.666	12.852	1300.528	982.769
78.680	12.868	1299.904	982.308
79.695	12.841	1298.986	981.365
80.709	12.928	1297.812	980.909
81.724	12.960	1297.279	980.607
82.739	13.025	1296.185	980.077
83.753	12.976	1295.374	979.087
84.768	13.080	1294.229	978.755
85.782	13.159	1292.866	978.102
86.797	13.205	1291.962	977.608
87.812	12.993	1290.787	975.377
88.826	13.060	1289.256	974.531
89.841	13.106	1288.271	973.972
90.855	13.161	1287.361	973.519
91.870	13.149	1286.550	972.749
92.884	13.177	1285.562	972.082
93.899	13.172	1284.906	971.469
94.914	13.276	1283.999	971.308
95.928	13.199	1283.576	970.454
96.943	13.196	1282.632	969.636
97.957	13.177	1281.665	968.704
98.972	13.259	1280.671	968.350
99.987	13.233	1279.763	967.428
101.001	13.245	1278.731	966.628
102.016	13.207	1277.952	965.731
103.030	13.111	1277.348	964.629
104.045	13.179	1275.875	963.831
105.060	13.163	1275.193	963.135
106.074	13.055	1273.411	961.079
107.089	13.014	1272.032	959.709
108.103	13.013	1270.819	958.704
109.118	13.043	1269.844	958.059
110.133	12.940	1268.768	956.568
111.147	12.981	1267.466	955.736
112.162	12.955	1265.798	954.244
113.176	13.022	1265.107	954.025
114.191	13.165	1263.704	953.708
115.206	13.069	1262.848	952.426
116.220	13.020	1261.939	951.375
117.235	13.035	1260.919	950.606
118.249	13.039	1259.702	949.628
119.264	13.092	1258.843	949.199
120.279	13.120	1257.385	948.175
121.293	13.036	1256.534	946.968
122.308	12.940	1255.683	945.695
123.322	12.933	1254.916	944.995
124.337	12.964	1253.997	944.398
125.352	13.114	1252.190	943.807
126.366	12.986	1251.317	942.336
127.381	12.980	1250.519	941.619
128.395	13.099	1249.064	941.115
129.410	13.088	1248.353	940.433
130.424	13.049	1248.143	939.971
131.439	13.106	1247.068	939.402
132.454	13.063	1245.952	938.232
133.468	13.184	1244.798	937.969
134.483	13.114	1244.407	937.196
135.497	13.068	1243.735	936.346
136.512	13.051	1242.449	935.199
137.527	13.172	1240.606	934.414
138.541	13.122	1239.295	933.058
139.556	13.117	1238.093	932.047
140.570	13.234	1237.074	931.854
141.585	13.243	1236.173	931.144
142.600	13.241	1234.975	930.149
143.614	13.278	1233.794	929.383
144.629	13.241	1232.643	928.225
145.643	13.274	1231.591	927.538
146.658	13.201	1230.217	926.012
147.673	13.292	1229.045	925.555
148.687	13.132	1228.201	923.946
149.702	13.130	1226.999	922.950
150.716	13.128	1225.136	921.454
151.731	13.350	1223.874	921.658
152.746	13.302	1222.821	920.521
153.760	13.300	1221.343	919.310
154.775	13.264	1220.487	918.387
155.789	13.385	1219.205	918.011
156.804	13.254	1219.017	917.063
157.819	13.307	1217.529	916.154
158.833	13.418	1216.683	916.053
159.848	13.389	1215.605	915.001
160.862	13.400	1214.801	914.373
161.877	13.345	1213.086	912.697
162.892	13.260	1212.504	911.711
163.906	13.355	1211.457	911.365
164.921	13.312	1210.046	909.992
165.935	13.216	1210.129	909.445
166.950	13.464	1208.690	909.645
167.964	13.370	1208.328	908.773
168.979	13.349	1208.005	908.337
169.994	13.373	1206.986	907.623
171.008	13.322	1206.286	906.733
172.023	13.511	1205.206	906.875
173.037	13.488	1204.898	906.442
174.052	13.462	1203.914	905.477
175.067	13.323	1202.798	903.800
176.081	13.452	1201.725	903.617
177.096	13.352	1200.751	902.256
178.110	13.488	1199.530	902.002
179.125	13.475	1198.645	901.186
180.140	13.537	1196.869	900.109
181.154	13.554	1195.961	899.437
182.169	13.502	1195.060	898.401
183.183	13.498	1194.144	897.610
184.198	13.563	1192.789	896.861
185.213	13.624	1191.482	896.130
186.227	13.617	1190.870	895.554
187.242	13.767	1189.235	895.052
188.256	13.785	1188.391	894.438
189.271	13.697	1187.691	893.358
190.286	13.516	1186.847	891.668
191.300	13.378	1185.859	890.106
192.315	13.353	1185.078	889.305
193.329	13.405	1184.471	889.050
194.344	13.488	1183.789	888.905
195.359	13.390	1183.688	888.224
196.373	13.560	1182.824	888.410
197.388	13.704	1182.551	888.899
198.402	13.686	1182.044	888.340
199.417	13.752	1181.296	888.055
200.432	13.896	1180.238	887.949
201.446	13.921	1179.816	887.687
202.461	14.000	1178.638	887.145
203.475	13.952	1177.756	886.144
204.490	13.936	1176.120	884.752
205.504	13.890	1175.157	883.703
206.519	13.917	1173.843	882.780
207.534	13.893	1172.688	881.705
208.548	13.735	1171.974	880.254
209.563	13.867	1171.061	880.192
210.577	13.975	1170.105	879.966
211.592	14.030	1169.245	879.535
212.607	13.936	1168.639	878.502
213.621	14.081	1167.664	878.457
214.636	14.011	1166.762	877.329
215.650	13.930	1166.127	876.346
216.665	13.997	1165.028	875.800
217.680	14.088	1164.120	875.519
218.694	14.149	1163.332	875.166
219.709	14.160	1162.393	874.440
220.723	14.093	1161.853	873.606
221.738	14.069	1160.960	872.734
222.753	14.122	1160.491	872.580
223.767	14.132	1159.541	871.843
224.782	14.072	1159.147	871.151
225.796	14.207	1158.744	871.483
226.811	14.202	1157.669	870.570
227.826	14.221	1156.660	869.834
228.840	14.206	1156.302	869.409
229.855	14.220	1155.535	868.827
230.869	14.168	1155.183	868.212
231.884	14.180	1154.107	867.390
232.899	14.159	1153.319	866.611
233.913	14.191	1152.556	866.128
234.928	14.130	1151.992	865.310
235.942	14.106	1151.204	864.520
236.957	14.152	1150.436	864.105
237.972	14.183	1149.880	863.769
238.986	14.091	1149.375	862.836
240.001	14.235	1148.426	862.798
241.015	14.185	1147.767	861.966
242.030	14.299	1146.720	861.694
243.045	14.371	1145.753	861.260
244.059	14.259	1145.360	860.312
245.074	14.332	1144.093	859.660
246.088	14.275	1143.577	858.900
247.103	14.468	1142.841	859.268
248.117	14.476	1141.848	858.487
249.132	14.572	1141.533	858.671
250.147	14.590	1140.577	857.965
251.161	14.551	1140.086	857.319
252.176	14.523	1139.435	856.613
253.190	14.703	1138.650	856.870
254.205	14.710	1138.123	856.434
255.220	14.629	1137.544	855.504
256.234	14.743	1136.631	855.326
257.249	14.790	1136.144	855.128
258.263	14.805	1135.674	854.775
259.278	14.815	1135.141	854.350
260.293	14.768	1134.569	853.602
261.307	15.042	1133.210	853.900
262.322	14.851	1133.096	852.766
263.336	14.920	1132.607	852.673
264.351	14.790	1132.106	851.560
265.366	14.874	1131.606	851.536
266.380	14.841	1130.941	850.793
267.395	14.931	1129.816	850.327
268.409	14.737	1129.334	848.904
269.424	14.867	1128.304	848.716
270.439	14.913	1127.808	848.500
271.453	14.899	1127.160	847.864
272.468	14.916	1125.977	846.985
273.482	14.927	1125.070	846.285
274.497	15.017	1124.652	846.350
275.512	14.994	1124.141	845.774
276.526	14.848	1123.588	844.548
277.541	14.904	1122.566	843.988
278.555	14.937	1121.992	843.647
279.570	15.093	1121.236	843.792
280.585	15.161	1120.235	843.302
281.599	15.157	1119.770	842.858
282.614	15.170	1118.432	841.842
283.628	15.025	1117.358	840.233
284.643	15.054	1116.899	839.959
285.657	15.045	1116.100	839.240
286.672	15.131	1115.244	838.952
287.687	15.115	1114.500	838.237
288.701	15.191	1113.098	837.489
289.716	15.184	1113.038	837.336
290.730	15.188	1112.036	836.525
291.745	15.139	1111.753	835.994
292.760	15.172	1111.104	835.598
293.774	15.231	1110.255	835.177
294.789	15.268	1109.735	834.899
295.803	15.316	1109.197	834.657
296.818	15.270	1108.431	833.782
297.833	15.239	1107.383	832.764
298.847	15.294	1106.768	832.500
299.862	15.232	1105.989	831.535
300.876	15.336	1105.288	831.446
301.891	15.465	1104.832	831.670
302.906	15.367	1103.926	830.432
303.920	15.332	1103.563	829.910
304.935	15.500	1102.641	829.976
305.949	15.550	1101.975	829.645
306.964	15.415	1101.652	828.665
307.979	15.608	1100.479	828.661
308.993	15.417	1100.247	827.468
310.008	15.551	1099.169	827.245
311.022	15.540	1098.254	826.429
312.037	15.525	1097.985	826.080
313.052	15.595	1096.467	825.211
314.066	15.577	1095.465	824.293
315.081	15.438	1094.983	823.175
316.095	15.452	1094.366	822.707
317.110	15.408	1093.878	822.055
318.125	15.457	1093.278	821.768
319.139	15.547	1092.239	821.357
320.154	15.568	1091.427	820.773
321.168	15.515	1091.171	820.249
322.183	15.452	1090.735	819.543
323.197	15.514	1089.823	819.087
324.212	15.508	1089.498	818.743
325.227	15.560	1088.626	818.267
326.241	15.572	1088.067	817.835
327.256	15.503	1087.361	816.896
328.270	15.539	1086.352	816.237
329.285	15.524	1085.651	815.568
330.300	15.562	1084.667	814.940
331.314	15.599	1083.404	814.098
332.329	15.621	1082.674	813.583
333.343	15.619	1082.042	813.027
334.358	15.655	1080.959	812.317
335.373	15.726	1080.249	812.055
336.387	15.729	1079.655	811.551
337.402	15.764	1079.205	811.308
338.416	15.827	1078.377	810.919
339.431	15.799	1077.924	810.372
340.446	15.922	1077.018	810.210
341.460	15.979	1076.228	809.818
342.475	15.978	1075.161	808.939
343.489	16.005	1074.521	808.517
344.504	16.032	1073.655	807.919
345.519	16.031	1072.870	807.254
346.533	16.170	1071.866	807.093
347.548	16.031	1071.608	806.161
348.562	16.114	1070.703	805.806
349.577	16.118	1069.756	805.041
350.592	16.069	1069.029	804.188
351.606	15.994	1068.316	803.226
352.621	15.905	1067.939	802.445
353.635	16.056	1067.206	802.544
354.650	16.120	1066.366	802.142
355.665	16.102	1065.543	801.369
356.679	16.070	1065.089	800.804
357.694	16.180	1064.670	800.941
358.708	16.089	1064.001	799.935
359.723	16.101	1063.334	799.421
360.738	16.071	1063.241	799.138
361.752	16.076	1062.514	798.541
362.767	16.098	1061.706	797.968
363.781	16.239	1060.874	797.941
364.796	16.247	1060.590	797.694
365.810	16.254	1060.095	797.286
366.825	16.310	1059.424	796.972
367.840	16.450	1058.856	797.134
368.854	16.507	1058.335	796.939
369.869	16.458	1057.361	795.906
370.883	16.396	1056.458	794.865
371.898	16.363	1056.005	794.300
372.913	16.427	1055.628	794.244
373.927	16.389	1055.218	793.689
374.942	16.391	1054.691	793.232
375.956	16.409	1054.245	792.909
376.971	16.504	1053.227	792.518
377.986	16.542	1052.475	792.062
379.000	16.486	1052.116	791.460
380.015	16.570	1052.055	791.736
381.029	16.603	1050.753	790.842
382.044	16.739	1050.089	790.908
383.059	16.699	1048.950	789.794
384.073	16.670	1048.579	789.309
385.088	16.687	1047.897	788.803
386.102	16.699	1046.949	788.077
387.117	16.569	1046.461	787.032
388.132	16.714	1045.126	786.633
389.146	16.618	1044.325	785.517
390.161	16.647	1043.681	785.097
391.175	16.641	1043.115	784.574
392.190	16.729	1042.137	784.174
393.205	16.715	1041.682	783.699
394.219	16.689	1041.060	783.043
395.234	16.620	1040.332	782.107
396.248	16.638	1039.474	781.476
397.263	16.744	1037.994	780.783
398.278	16.621	1037.324	779.642
399.292	16.599	1036.622	778.943
400.307	16.742	1035.700	778.838
401.321	16.791	1035.560	778.892
402.336	16.709	1034.684	777.784
403.350	16.717	1034.005	777.245
404.365	16.763	1033.866	777.282
405.380	16.775	1033.042	776.649
406.394	16.789	1031.978	775.844
407.409	16.986	1031.115	776.027
408.423	16.956	1030.806	775.590
409.438	16.883	1030.078	774.640
410.453	16.921	1029.272	774.140
411.467	16.992	1028.915	774.126
412.482	17.007	1028.002	773.441
413.496	17.115	1027.172	773.236
414.511	17.034	1026.766	772.496
415.526	17.136	1026.410	772.621
416.540	17.123	1026.274	772.391
417.555	17.250	1025.382	772.231
418.569	17.172	1024.900	771.443
419.584	17.222	1024.245	771.112
420.599	17.290	1024.163	771.291
421.613	101.467	1317.063	1455.942
422.628	92.708	1359.704	1456.031
