DTS Sentinel unit serial number:	SN413079Multiplexer serial number:	ORYXHardware model number:	OX4-SRSoftware version number:	ORYX F/W v4.00 Oryx Data Collector v3.7.2.0data status	okinstallation	princeton_trtdifferential loss correction	single-endedforward channel	channel 2reverse channel	N/Adate	2019/09/15time	22:39:35forward acquisition time	60.00reverse acquisition time	0.00gamma	496.2192k internal	0.2335k external	0.2335temperature offset calibration	0.9950default loss term (dB/km)	0.3790temperature slope calibration	1.0000multiplexer offset coefficient	1.0000multiplexer slope coefficient	1.0000fibre end	0.00T internal ref (°C)	28.97T ext. ref 1 (°C)	8.81T ext. ref 2 (°C)	22.42length (m)	temperature (°C)	Stokes	anti-Stokes-747.200	-200.000	0.025	0.160
-746.185	800.000	-0.041	0.167
-745.171	268.210	0.215	-0.378
-744.156	800.000	-0.085	-0.237
-743.142	-44.500	-0.205	0.103
-742.127	-3.034	-0.280	0.196
-741.112	436.914	-0.113	0.247
-740.098	-200.000	0.015	0.312
-739.083	47.541	0.128	-0.120
-738.069	-200.000	0.005	-0.110
-737.054	31.556	-0.075	-0.065
-736.039	-55.634	-0.287	-0.129
-735.025	-5.873	0.278	-0.191
-734.010	-103.673	-0.214	0.050
-732.996	24.752	-0.111	0.093
-731.981	521.618	-0.042	0.098
-730.966	800.000	-0.075	-0.226
-729.952	-48.090	0.373	-0.181
-728.937	224.576	-0.092	0.149
-727.923	-200.000	-0.057	0.258
-726.908	58.523	0.092	0.091
-725.894	-36.434	0.261	-0.141
-724.879	-113.975	-0.157	-0.031
-723.864	453.601	0.137	-0.304
-722.850	37.647	0.247	-0.220
-721.835	127.378	-0.262	-0.334
-720.821	800.000	-0.012	-0.046
-719.806	575.575	-0.096	-0.235
-718.791	800.000	0.078	-0.269
-717.777	27.530	0.149	-0.126
-716.762	-148.892	-0.222	0.018
-715.748	-54.958	0.200	-0.091
-714.733	-200.000	-0.022	0.131
-713.718	400.443	0.131	-0.276
-712.704	34.934	-0.325	-0.285
-711.689	-74.518	-0.043	-0.016
-710.675	511.846	-0.095	-0.221
-709.660	68.318	0.019	0.020
-708.645	131.914	-0.042	0.054
-707.631	331.041	0.110	0.212
-706.616	-117.823	-0.310	-0.056
-705.602	-14.432	0.257	-0.166
-704.587	-187.959	-0.134	-0.002
-703.572	-110.954	-0.223	-0.046
-702.558	800.000	0.068	-0.252
-701.543	498.982	-0.169	-0.391
-700.529	-103.695	0.400	-0.094
-699.514	-111.016	-0.418	-0.086
-698.499	-200.000	-0.061	0.287
-697.485	414.143	-0.172	-0.368
-696.470	-126.615	-0.262	-0.039
-695.456	-200.000	0.133	0.001
-694.441	39.042	0.118	-0.106
-693.426	72.631	-0.236	0.247
-692.412	31.646	-0.136	0.117
-691.397	-79.517	0.228	-0.077
-690.383	676.672	-0.055	-0.142
-689.368	-63.599	-0.151	0.062
-688.354	16.490	-0.225	-0.178
-687.339	32.284	-0.036	0.031
-686.324	-153.623	-0.425	0.029
-685.310	63.054	-0.170	0.171
-684.295	-171.889	0.046	0.002
-683.281	-200.000	0.012	-0.137
-682.266	-200.000	0.051	-0.377
-681.251	-200.000	0.012	-0.126
-680.237	-200.000	0.072	0.365
-679.222	186.972	0.266	0.397
-678.208	-106.851	-0.097	-0.021
-677.193	463.809	0.024	0.054
-676.178	402.182	-0.119	0.251
-675.164	86.993	0.172	0.190
-674.149	-60.951	0.211	0.089
-673.135	-200.000	-0.012	-0.079
-672.120	224.266	0.138	-0.223
-671.105	149.364	-0.108	-0.146
-670.091	43.075	0.266	-0.243
-669.076	275.357	-0.121	-0.215
-668.062	-149.999	-0.133	-0.010
-667.047	-71.001	0.088	0.033
-666.032	24.549	-0.138	0.114
-665.018	126.889	-0.062	0.079
-664.003	-200.000	0.011	0.255
-662.989	-77.786	-0.118	0.041
-661.974	-85.739	0.097	0.030
-660.959	-200.000	0.004	0.104
-659.945	65.440	0.004	-0.004
-658.930	-200.000	0.018	0.112
-657.916	-200.000	0.060	0.355
-656.901	103.960	-0.218	0.256
-655.886	-5.011	-0.342	-0.236
-654.872	261.787	0.079	0.137
-653.857	741.238	-0.057	-0.153
-652.843	-31.778	-0.105	-0.059
-651.828	-144.792	-0.255	0.023
-650.814	-74.463	0.200	0.072
-649.799	-113.762	-0.211	-0.041
-648.784	-71.546	-0.213	0.080
-647.770	7.430	-0.304	0.227
-646.755	-200.000	0.000	-0.286
-645.741	-8.506	-0.017	-0.012
-644.726	-185.381	-0.131	-0.002
-643.711	265.485	-0.142	-0.247
-642.697	800.000	0.019	-0.064
-641.682	-165.187	0.060	-0.003
-640.668	-131.892	0.574	-0.075
-639.653	593.560	0.042	-0.104
-638.638	-159.416	0.293	-0.016
-637.624	-108.531	-0.230	0.050
-636.609	140.296	0.089	-0.117
-635.595	-58.222	0.122	0.053
-634.580	-143.433	-0.213	0.020
-633.565	800.000	-0.072	-0.278
-632.551	314.380	0.022	-0.041
-631.536	-200.000	0.035	-0.241
-630.522	800.000	0.076	-0.324
-629.507	-200.000	0.018	0.242
-628.492	347.684	0.162	0.319
-627.478	-67.526	-0.039	0.015
-626.463	61.958	0.196	0.196
-625.449	800.000	0.050	-0.155
-624.434	-122.676	-0.170	0.028
-623.419	-54.438	0.323	0.146
-622.405	800.000	-0.027	-0.104
-621.390	800.000	-0.021	-0.068
-620.376	-70.870	0.223	0.084
-619.361	-74.985	-0.059	-0.021
-618.346	800.000	0.049	0.202
-617.332	-51.486	-0.276	-0.129
-616.317	137.378	-0.037	0.048
-615.303	291.876	-0.095	0.172
-614.288	-200.000	-0.019	0.190
-613.273	800.000	0.072	0.263
-612.259	-70.094	0.280	-0.106
-611.244	-200.000	0.006	0.034
-610.230	236.071	0.073	-0.121
-609.215	449.179	0.073	0.160
-608.201	-124.659	-0.061	-0.009
-607.186	800.000	0.077	0.325
-606.171	-187.551	-0.228	0.003
-605.157	-58.130	-0.327	-0.142
-604.142	86.712	0.219	0.242
-603.128	81.302	0.124	-0.134
-602.113	-200.000	-0.031	0.322
-601.098	-162.325	0.153	0.008
-600.084	22.021	0.129	0.105
-599.069	-160.892	-0.313	0.016
-598.055	-109.184	-0.144	0.030
-597.040	334.235	0.086	0.166
-596.025	86.164	0.155	0.171
-595.011	-200.000	0.008	-0.298
-593.996	243.231	0.136	-0.228
-592.982	64.277	-0.057	-0.057
-591.967	494.355	0.040	-0.093
-590.952	-200.000	-0.030	-0.130
-589.938	-54.926	0.149	0.067
-588.923	-97.907	-0.178	0.046
-587.909	-40.684	-0.211	-0.109
-586.894	343.167	0.126	0.245
-585.879	-200.000	0.020	0.173
-584.865	160.441	0.328	-0.457
-583.850	-200.000	0.003	-0.015
-582.836	-45.950	-0.129	-0.064
-581.821	-27.035	-0.133	-0.077
-580.806	-29.287	-0.401	-0.229
-579.792	-200.000	-0.084	-0.402
-578.777	-200.000	0.005	0.081
-577.763	-88.589	0.016	0.005
-576.748	189.391	-0.096	0.144
-575.733	325.935	0.090	0.171
-574.719	138.569	0.099	-0.129
-573.704	-200.000	0.016	-0.394
-572.690	-200.000	0.013	-0.133
-571.675	-23.272	0.134	0.080
-570.661	-119.271	0.110	0.019
-569.646	-85.207	0.075	0.023
-568.631	-200.000	-0.060	-0.302
-567.617	800.000	-0.033	-0.106
-566.602	-200.000	-0.013	0.130
-565.588	-56.418	0.258	-0.114
-564.573	-62.762	0.128	0.053
-563.558	7.206	0.195	0.145
-562.544	-200.000	0.008	0.054
-561.529	612.936	-0.054	-0.134
-560.515	-150.064	-0.181	-0.014
-559.500	-85.562	-0.168	-0.052
-558.485	268.508	0.080	0.140
-557.471	27.320	-0.176	0.148
-556.456	-200.000	-0.038	-0.195
-555.442	-93.021	0.225	-0.063
-554.427	342.531	-0.155	-0.302
-553.412	800.000	-0.048	0.202
-552.398	-200.000	0.006	0.061
-551.383	-146.748	0.242	0.021
-550.369	800.000	-0.100	-0.352
-549.354	264.028	0.045	-0.079
-548.339	800.000	0.043	0.186
-547.325	800.000	0.029	-0.117
-546.310	-200.000	0.002	-0.103
-545.296	53.544	0.147	-0.141
-544.281	-13.625	-0.064	0.041
-543.266	-75.530	0.057	0.020
-542.252	-200.000	0.088	0.398
-541.237	-104.917	-0.247	-0.056
-540.223	-195.808	0.192	0.001
-539.208	-139.690	-0.377	-0.040
-538.193	150.671	-0.075	-0.102
-537.179	164.892	-0.235	-0.331
-536.164	-51.361	-0.061	0.029
-535.150	89.149	-0.025	0.028
-534.135	38.604	0.023	-0.021
-533.121	-200.000	-0.043	0.233
-532.106	-200.000	-0.037	-0.278
-531.091	-120.475	0.272	-0.046
-530.077	-115.643	0.390	0.073
-529.062	15.450	-0.040	0.031
-528.048	-159.768	0.071	0.004
-527.033	32.603	-0.159	0.137
-526.018	161.955	0.036	-0.050
-525.004	-151.189	0.287	0.021
-523.989	358.703	-0.074	0.147
-522.975	-89.186	-0.240	-0.071
-521.960	-96.802	0.170	-0.044
-520.945	423.835	-0.056	0.120
-519.931	800.000	0.060	-0.211
-518.916	72.280	-0.029	-0.030
-517.902	181.732	0.047	-0.068
-516.887	-200.000	0.000	-0.162
-515.872	-91.655	0.104	-0.029
-514.858	-88.755	-0.252	-0.075
-513.843	-80.952	0.141	0.047
-512.829	37.542	-0.304	-0.269
-511.814	-107.391	-0.090	0.020
-510.799	-161.783	-0.209	-0.011
-509.785	-200.000	-0.047	-0.269
-508.770	-200.000	-0.026	0.445
-507.756	-125.074	-0.496	-0.076
-506.741	657.167	0.008	-0.022
-505.726	-200.000	0.003	0.206
-504.712	119.761	0.137	0.169
-503.697	686.854	0.023	0.061
-502.683	77.681	-0.063	-0.067
-501.668	-106.526	-0.383	-0.085
-500.653	-61.944	-0.387	-0.161
-499.639	10.796	-0.141	-0.107
-498.624	-200.000	0.022	0.363
-497.610	45.460	0.082	0.075
-496.595	-115.534	-0.100	-0.019
-495.581	-62.009	0.034	-0.014
-494.566	-94.040	-0.246	-0.067
-493.551	-175.065	0.382	0.011
-492.537	800.000	-0.011	0.044
-491.522	-102.010	-0.183	0.044
-490.508	-37.546	0.237	-0.126
-489.493	118.805	-0.084	-0.104
-488.478	539.979	-0.127	0.301
-487.464	-200.000	-0.125	0.000
-486.449	48.139	0.134	-0.125
-485.435	-91.174	-0.309	-0.088
-484.420	100.637	-0.290	-0.335
-483.405	800.000	0.050	0.141
-482.391	800.000	0.101	0.391
-481.376	461.150	-0.099	0.218
-480.362	23.642	-0.080	0.065
-479.347	38.640	-0.273	-0.242
-478.332	-104.075	0.244	-0.056
-477.318	238.445	0.103	-0.169
-476.303	37.295	-0.169	-0.149
-475.289	198.979	-0.054	-0.083
-474.274	-200.000	0.016	-0.214
-473.259	-44.605	0.244	0.121
-472.245	-200.000	0.020	0.193
-471.230	-200.000	0.021	0.337
-470.216	-2.217	0.051	0.035
-469.201	56.069	0.204	-0.197
-468.186	-200.000	-0.094	-0.417
-467.172	-200.000	0.029	0.288
-466.157	184.875	0.273	0.402
-465.143	393.925	0.098	-0.204
-464.128	-35.398	0.139	-0.075
-463.113	117.191	0.259	0.317
-462.099	92.152	0.186	0.208
-461.084	-62.191	-0.274	0.114
-460.070	688.408	-0.073	0.191
-459.055	800.000	0.029	-0.119
-458.040	119.616	-0.034	0.041
-457.026	81.486	0.138	0.148
-456.011	-200.000	-0.032	-0.155
-454.997	110.745	0.077	0.092
-453.982	-66.268	0.130	-0.051
-452.968	-8.280	0.098	-0.066
-451.953	-200.000	-0.030	-0.216
-450.938	-62.701	-0.146	0.060
-449.924	418.519	-0.094	0.199
-448.909	-200.000	0.006	0.267
-447.895	-64.911	0.056	-0.022
-446.880	800.000	-0.139	-0.432
-445.865	800.000	0.072	0.227
-444.851	2.064	0.078	0.056
-443.836	-72.031	-0.308	-0.114
-442.822	-60.768	-0.286	0.120
-441.807	-200.000	-0.005	-0.034
-440.792	270.279	-0.086	0.151
-439.778	142.313	-0.122	0.161
-438.763	236.182	-0.216	0.355
-437.749	-112.139	0.217	0.043
-436.734	83.729	-0.100	-0.109
-435.719	-174.042	-0.089	-0.003
-434.705	67.476	-0.175	0.177
-433.690	-200.000	0.013	-0.067
-432.676	-22.268	0.144	0.087
-431.661	258.924	-0.156	-0.268
-430.646	87.966	0.217	0.239
-429.632	522.132	0.092	-0.215
-428.617	-200.000	-0.008	-0.083
-427.603	800.000	-0.036	-0.150
-426.588	17.731	-0.099	-0.078
-425.573	-200.000	-0.061	-0.340
-424.559	4.294	0.008	0.006
-423.544	-43.326	-0.334	-0.168
-422.530	4.370	0.216	-0.157
-421.515	-200.000	0.020	-0.117
-420.500	47.727	-0.119	0.110
-419.486	-170.092	-0.305	-0.011
-418.471	317.588	0.064	0.120
-417.457	108.378	0.174	-0.206
-416.442	35.190	0.080	0.069
-415.428	800.000	-0.059	0.221
-414.413	-200.000	0.008	-0.150
-413.398	50.607	0.169	-0.159
-412.384	-200.000	0.016	0.168
-411.369	4.062	-0.269	-0.195
-410.355	-12.540	0.124	0.081
-409.340	800.000	-0.029	0.120
-408.325	584.740	-0.145	0.354
-407.311	774.877	-0.022	0.060
-406.296	-187.766	0.060	0.001
-405.282	-113.440	0.080	-0.016
-404.267	-63.879	0.173	0.070
-403.252	-7.011	0.097	0.065
-402.238	-200.000	-0.007	-0.184
-401.223	-113.630	-0.179	0.035
-400.209	41.029	-0.131	0.117
-399.194	-28.270	0.149	-0.085
-398.179	-146.225	-0.349	-0.030
-397.165	-21.967	0.065	-0.039
-396.150	-200.000	-0.008	0.107
-395.136	-200.000	0.075	-0.341
-394.121	181.279	-0.056	-0.081
-393.106	315.444	0.104	0.195
-392.092	-110.260	-0.271	-0.056
-391.077	-104.080	0.282	0.065
-390.063	68.513	-0.196	-0.200
-389.048	-200.000	-0.032	0.219
-388.033	-151.874	-0.341	-0.025
-387.019	251.877	0.129	-0.218
-386.004	-149.394	-0.142	0.011
-384.990	296.789	-0.090	0.163
-383.975	5.353	-0.314	-0.230
-382.960	44.706	0.086	-0.078
-381.946	4.727	0.078	-0.057
-380.931	70.370	-0.128	-0.131
-379.917	-165.237	0.276	0.012
-378.902	126.082	-0.276	-0.345
-377.888	-200.000	0.052	-0.272
-376.873	142.486	-0.145	0.191
-375.858	-200.000	0.070	0.349
-374.844	-20.897	0.249	-0.151
-373.829	-172.088	0.157	-0.005
-372.815	-87.793	0.219	0.065
-371.800	5.210	-0.168	0.122
-370.785	-94.414	-0.219	0.059
-369.771	-61.056	0.194	-0.081
-368.756	-71.873	0.112	-0.041
-367.742	-33.297	-0.072	-0.040
-366.727	246.447	0.189	-0.316
-365.712	-103.752	0.395	0.092
-364.698	127.135	0.192	0.242
-363.683	88.195	0.244	0.268
-362.669	-13.979	0.164	-0.105
-361.654	-200.000	-0.008	0.093
-360.639	37.891	-0.219	0.192
-359.625	-107.410	0.658	-0.143
-358.610	12.677	-0.324	-0.248
-357.596	-33.885	0.277	-0.151
-356.581	103.206	0.119	0.138
-355.566	800.000	-0.121	0.379
-354.552	19.922	-0.079	-0.063
-353.537	-153.385	-0.073	-0.005
-352.523	-126.093	-0.103	0.015
-351.508	-190.000	0.284	0.003
-350.493	-200.000	-0.028	0.193
-349.479	11.622	-0.385	0.292
-348.464	-122.535	-0.096	-0.015
-347.450	-14.082	-0.036	0.023
-346.435	9.780	-0.090	0.068
-345.420	469.492	0.121	0.268
-344.406	-38.606	0.314	0.164
-343.391	800.000	-0.029	0.107
-342.377	-152.074	-0.238	-0.017
-341.362	-156.198	0.163	0.010
-340.348	-200.000	-0.250	0.000
-339.333	-18.813	0.163	-0.100
-338.318	800.000	0.039	0.149
-337.304	800.000	0.027	-0.091
-336.289	-115.295	-0.114	-0.021
-335.275	253.768	0.146	0.247
-334.260	110.331	0.089	0.106
-333.245	-200.000	0.011	0.167
-332.231	469.355	0.165	-0.367
-331.216	-190.885	-0.510	-0.005
-330.202	-79.972	-0.198	0.066
-329.187	17.105	0.253	-0.199
-328.172	-101.096	-0.269	0.065
-327.158	163.705	0.105	-0.146
-326.143	766.228	-0.026	-0.071
-325.129	-99.045	0.130	0.033
-324.114	122.775	0.155	-0.191
-323.099	58.708	-0.205	0.199
-322.085	62.411	-0.142	0.141
-321.070	78.451	0.281	-0.296
-320.056	109.382	-0.021	-0.025
-319.041	37.805	0.124	-0.109
-318.026	46.255	0.203	0.186
-317.012	-84.732	0.237	0.074
-315.997	-35.739	-0.035	0.019
-314.983	680.184	-0.160	0.411
-313.968	41.788	-0.297	-0.266
-312.953	-82.216	-0.094	0.030
-311.939	74.333	-0.292	0.303
-310.924	-82.511	0.480	0.154
-309.910	50.041	-0.228	-0.213
-308.895	2.965	0.317	-0.228
-307.880	-73.089	0.052	0.019
-306.866	-30.315	0.065	0.036
-305.851	216.569	-0.035	0.055
-304.837	325.742	0.165	-0.312
-303.822	6.382	0.301	-0.221
-302.807	-6.766	-0.159	-0.107
-301.793	-200.000	-0.017	-0.273
-300.778	-130.364	0.084	0.011
-299.764	-200.000	0.032	-0.158
-298.749	187.792	-0.079	-0.116
-297.735	12.461	0.147	-0.112
-296.720	-17.561	0.325	-0.202
-295.705	192.251	0.094	0.141
-294.691	800.000	0.054	0.147
-293.676	759.862	-0.061	-0.163
-292.662	800.000	-0.047	-0.172
-291.647	-132.559	-0.358	0.045
-290.632	-88.579	-0.206	0.061
-289.618	275.920	-0.030	-0.053
-288.603	502.077	0.042	-0.095
-287.589	-200.000	0.003	0.304
-286.574	19.044	0.218	0.173
-285.559	-24.395	-0.181	0.106
-284.545	-20.940	-0.155	0.094
-283.530	290.084	0.057	0.102
-282.516	800.000	-0.022	0.085
-281.501	-42.196	-0.222	0.112
-280.486	800.000	0.072	0.297
-279.472	800.000	0.113	-0.311
-278.457	-15.425	0.284	0.179
-277.443	-200.000	0.085	0.438
-276.428	102.457	-0.235	0.271
-275.413	37.949	0.172	0.150
-274.399	-200.000	0.024	0.126
-273.384	-18.134	0.192	0.119
-272.370	-152.239	-0.242	0.017
-271.355	-118.735	-0.157	-0.027
-270.340	800.000	-0.091	0.263
-269.326	345.314	0.097	0.188
-268.311	183.327	0.075	-0.109
-267.297	780.503	0.150	-0.405
-266.282	-147.536	0.102	0.008
-265.267	-119.149	-0.417	-0.072
-264.253	-177.612	0.230	0.006
-263.238	-168.238	-0.340	-0.013
-262.224	34.784	0.185	-0.159
-261.209	-200.000	0.014	0.178
-260.195	-78.019	0.211	-0.072
-259.180	33.284	-0.342	0.293
-258.165	-200.000	0.013	0.401
-257.151	74.273	0.276	0.285
-256.136	-35.020	0.147	-0.079
-255.122	-40.669	-0.141	0.072
-254.107	162.874	0.104	-0.144
-253.092	25.616	0.179	0.147
-252.078	-200.000	0.010	-0.159
-251.063	86.631	-0.132	0.143
-250.049	800.000	-0.088	0.278
-249.034	-200.000	0.003	0.022
-248.019	192.625	-0.214	-0.319
-247.005	-200.000	-0.008	0.145
-245.990	-2.538	0.227	0.157
-244.976	-170.960	-0.210	0.007
-243.961	-182.590	-0.266	0.005
-242.946	-92.621	0.423	-0.117
-241.932	-200.000	0.033	0.207
-240.917	-116.362	-0.188	-0.034
-239.903	44.380	0.349	-0.315
-238.888	-52.457	0.083	-0.038
-237.873	87.692	-0.204	-0.223
-236.859	-200.000	0.016	0.245
-235.844	800.000	-0.100	-0.281
-234.830	-127.368	-0.162	-0.023
-233.815	-50.352	-0.297	-0.138
-232.800	800.000	-0.049	0.166
-231.786	30.823	-0.088	-0.074
-230.771	-200.000	0.021	-0.309
-229.757	800.000	0.098	-0.276
-228.742	189.219	-0.200	-0.294
-227.727	241.328	-0.212	-0.349
-226.713	-200.000	0.031	-0.189
-225.698	127.902	0.140	-0.175
-224.684	70.867	0.096	0.098
-223.669	-160.926	-0.115	0.006
-222.655	102.624	0.126	-0.145
-221.640	-85.734	0.023	-0.007
-220.625	-91.544	0.217	0.061
-219.611	-200.000	-0.015	-0.132
-218.596	-200.000	-0.036	0.259
-217.582	-200.000	-0.027	-0.173
-216.567	-106.108	0.332	-0.073
-215.552	-49.629	0.308	-0.144
-214.538	118.967	0.237	-0.288
-213.523	366.166	-0.241	0.478
-212.509	-200.000	0.015	0.126
-211.494	-78.694	0.146	-0.049
-210.479	-200.000	-0.021	-0.118
-209.465	-200.000	-0.009	0.159
-208.450	-18.496	-0.071	0.044
-207.436	29.088	0.070	0.058
-206.421	76.137	-0.091	0.095
-205.406	-187.847	0.171	-0.002
-204.392	-66.377	-0.258	0.101
-203.377	-52.757	-0.332	0.151
-202.363	-3.705	-0.057	-0.039
-201.348	14.352	0.156	0.120
-200.333	-81.020	-0.049	0.016
-199.319	-80.554	-0.221	-0.072
-198.304	800.000	0.039	0.134
-197.290	800.000	0.099	-0.318
-196.275	52.495	-0.244	0.229
-195.260	-120.066	-0.216	-0.036
-194.246	-94.270	0.285	0.077
-193.231	32.052	-0.193	-0.164
-192.217	5.162	0.063	0.046
-191.202	109.835	-0.157	-0.186
-190.187	-200.000	-0.019	0.165
-189.173	53.154	-0.127	0.120
-188.158	800.000	0.087	-0.253
-187.144	-125.266	-0.136	-0.020
-186.129	-200.000	-0.014	0.187
-185.114	95.743	-0.105	0.118
-184.100	-33.213	0.120	0.065
-183.085	-134.603	0.315	0.038
-182.071	29.244	0.122	-0.102
-181.056	-79.315	-0.252	-0.084
-180.042	-5.728	-0.211	0.142
-179.027	-79.926	-0.193	-0.064
-178.012	-75.634	0.071	-0.025
-176.998	-187.666	0.197	0.003
-175.983	-73.715	0.074	0.027
-174.969	16.327	0.159	0.123
-173.954	29.584	-0.107	-0.089
-172.939	-32.708	0.175	0.096
-171.925	67.278	-0.100	0.100
-170.910	-200.000	0.000	-0.272
-169.896	-120.738	0.134	0.022
-168.881	-200.000	0.017	0.195
-167.866	-115.132	0.423	0.079
-166.852	800.000	0.111	-0.355
-165.837	800.000	0.064	-0.235
-164.823	397.460	0.135	0.277
-163.808	-65.181	-0.112	-0.044
-162.793	-84.841	0.075	0.023
-161.779	-70.041	0.291	0.109
-160.764	-24.117	-0.152	0.089
-159.750	-200.000	-0.016	0.153
-158.735	800.000	-0.083	-0.290
-157.720	-29.738	0.165	-0.093
-156.706	174.740	-0.206	0.293
-155.691	-36.673	0.102	-0.054
-154.677	344.743	-0.163	-0.314
-153.662	-158.067	0.235	-0.014
-152.647	-200.000	0.014	0.072
-151.633	-60.267	0.204	0.085
-150.618	-50.353	-0.207	-0.096
-149.604	-200.000	0.050	0.218
-148.589	-200.000	0.036	0.301
-147.574	800.000	0.075	0.227
-146.560	-58.702	-0.181	0.077
-145.545	-200.000	0.019	0.184
-144.531	289.805	0.171	0.304
-143.516	-200.000	0.033	0.285
-142.502	-186.174	0.148	0.002
-141.487	-14.352	0.073	0.046
-140.472	45.149	-0.064	0.058
-139.458	-49.631	-0.311	-0.145
-138.443	92.470	0.112	-0.124
-137.429	242.335	0.067	-0.110
-136.414	-2.144	0.167	0.115
-135.399	-147.326	-0.323	0.027
-134.385	-28.804	0.280	0.158
-133.370	136.128	-0.140	-0.179
-132.356	-67.656	0.299	0.115
-131.341	-110.430	-0.241	-0.049
-130.326	140.468	-0.045	0.058
-129.312	49.956	0.084	-0.078
-128.297	153.555	0.102	0.137
-127.283	-200.000	0.040	0.259
-126.268	122.340	0.039	0.047
-125.253	20.954	0.118	-0.094
-124.239	315.758	-0.083	-0.153
-123.224	-197.962	0.240	0.001
-122.210	480.357	-0.040	0.090
-121.195	-35.176	0.499	0.266
-120.180	116.262	-0.034	0.041
-119.166	-192.228	-0.183	-0.002
-118.151	800.000	-0.115	-0.343
-117.137	63.251	0.216	-0.212
-116.122	177.346	-0.126	-0.180
-115.107	-127.263	0.061	-0.009
-114.093	-98.461	0.080	-0.020
-113.078	-200.000	0.015	0.274
-112.064	302.548	-0.100	-0.181
-111.049	-173.866	-0.176	0.005
-110.034	800.000	0.052	0.181
-109.020	26.713	-0.313	-0.257
-108.005	70.951	0.101	-0.103
-106.991	55.393	0.319	0.302
-105.976	-177.483	0.490	0.012
-104.962	-112.061	-0.051	0.010
-103.947	800.000	0.086	-0.329
-102.932	800.000	-0.099	0.275
-101.918	-77.550	0.437	0.148
-100.903	-121.131	-0.262	0.043
-99.889	1.876	-0.178	0.126
-98.874	-200.000	0.004	0.122
-97.859	-57.240	-0.041	0.018
-96.845	800.000	-0.061	0.187
-95.830	102.692	-0.141	0.161
-94.816	232.559	0.207	0.333
-93.801	-112.594	0.233	0.045
-92.786	-49.620	0.173	0.080
-91.772	-16.449	-0.060	0.037
-90.757	-200.000	-0.006	0.177
-89.743	-74.120	0.276	-0.098
-88.728	451.049	-0.187	0.403
-87.713	800.000	-0.074	0.276
-86.699	648.247	0.074	-0.184
-85.684	-91.773	0.297	0.083
-84.670	270.554	0.167	0.287
-83.655	-83.492	0.081	0.025
-82.640	29.195	-0.169	0.141
-81.626	272.462	0.198	-0.342
-80.611	-32.040	0.170	-0.093
-79.597	788.742	-0.052	-0.139
-78.582	-77.469	-0.113	-0.038
-77.567	128.736	-0.204	0.255
-76.553	116.308	-0.142	-0.170
-75.538	800.000	-0.040	-0.117
-74.524	222.067	-0.128	-0.202
-73.509	-200.000	0.006	0.358
-72.494	-200.000	0.012	0.073
-71.480	10.841	0.064	-0.048
-70.465	-93.785	0.195	0.053
-69.451	-4.886	0.127	-0.086
-68.436	-56.896	0.034	0.015
-67.422	-200.000	0.029	-0.276
-66.407	-200.000	0.002	0.044
-65.392	-200.000	0.033	0.390
-64.378	-47.116	-0.078	0.037
-63.363	711.656	-0.057	0.148
-62.349	-39.599	-0.214	0.110
-61.334	365.402	-0.503	-0.991
-60.319	800.000	0.221	0.813
-59.305	800.000	-0.308	-0.905
-58.290	310.416	0.586	1.074
-57.276	552.657	0.558	1.311
-56.261	-200.000	109.673	630.341
-55.246	473.801	1490.084	3285.713
-54.232	148.361	2668.068	3522.438
-53.217	100.609	2270.280	2578.623
-52.203	38.097	1883.649	1638.650
-51.188	32.231	1675.192	1413.297
-50.173	29.573	1632.976	1358.111
-49.159	50.596	1686.572	1560.168
-48.144	50.799	1701.846	1575.748
-47.130	31.746	1660.599	1397.151
-46.115	28.992	1645.804	1364.259
-45.100	28.832	1640.870	1358.928
-44.086	28.860	1637.782	1356.523
-43.071	28.749	1635.977	1354.159
-42.057	28.802	1633.557	1352.489
-41.042	28.813	1632.073	1351.290
-40.027	28.943	1629.673	1350.202
-39.013	28.818	1628.024	1347.868
-37.998	28.807	1626.231	1346.247
-36.984	28.817	1625.056	1345.296
-35.969	28.870	1623.441	1344.291
-34.954	28.972	1622.098	1343.870
-33.940	28.941	1620.198	1342.021
-32.925	28.900	1618.451	1340.221
-31.911	29.100	1616.538	1340.038
-30.896	28.908	1615.300	1337.564
-29.881	28.940	1613.563	1336.307
-28.867	28.855	1612.374	1334.651
-27.852	28.989	1610.742	1334.218
-26.838	29.015	1608.781	1332.731
-25.823	28.978	1607.482	1331.336
-24.809	28.971	1606.482	1330.399
-23.794	28.928	1605.465	1329.192
-22.779	28.991	1603.864	1328.268
-21.765	28.920	1602.410	1326.502
-20.750	28.913	1600.925	1325.167
-19.736	29.072	1599.720	1325.265
-18.721	29.120	1597.974	1324.109
-17.706	28.986	1597.054	1322.335
-16.692	29.012	1594.865	1320.657
-15.677	29.069	1593.172	1319.611
-14.663	29.041	1592.448	1318.756
-13.648	28.964	1591.244	1317.159
-12.633	29.062	1589.428	1316.301
-11.619	28.994	1587.751	1314.375
-10.604	29.040	1586.366	1313.504
-9.590	29.016	1584.887	1312.059
-8.575	29.087	1583.713	1311.536
-7.560	29.085	1582.309	1310.309
-6.546	28.962	1582.208	1309.297
-5.531	29.041	1580.620	1308.495
-4.517	28.967	1579.430	1306.929
-3.502	28.996	1578.517	1306.332
-2.487	29.140	1576.227	1305.400
-1.473	28.562	1564.889	1291.895
-0.458	25.479	1545.942	1254.716
0.556	19.546	1546.493	1221.470
1.571	17.223	1569.347	1222.715
2.586	16.683	1582.393	1228.848
3.600	15.855	1532.144	1183.905
4.615	12.731	1434.377	1087.659
5.629	9.623	1378.742	1025.627
6.644	8.943	1371.602	1015.917
7.659	8.806	1370.653	1014.253
8.673	8.735	1369.801	1013.089
9.688	8.766	1367.269	1011.321
10.702	8.675	1364.002	1008.243
11.717	10.121	1366.472	1019.096
12.731	13.927	1373.221	1048.096
13.746	16.836	1377.522	1069.677
14.761	17.126	1376.980	1070.994
15.775	16.287	1374.165	1063.422
16.790	15.214	1371.604	1054.599
17.804	14.308	1369.550	1047.230
18.819	13.884	1368.009	1043.295
19.834	13.696	1366.846	1041.140
20.848	13.444	1365.395	1038.359
21.863	13.230	1363.888	1035.780
22.877	13.015	1362.949	1033.626
23.892	12.969	1362.187	1032.675
24.907	12.975	1361.284	1031.933
25.921	13.006	1360.512	1031.453
26.936	13.058	1359.216	1030.700
27.950	13.061	1358.486	1030.075
28.965	13.062	1357.623	1029.336
29.980	13.221	1356.121	1029.095
30.994	13.301	1354.716	1028.438
32.009	13.305	1354.061	1027.875
33.023	13.370	1352.651	1027.113
34.038	13.294	1351.187	1025.441
35.053	13.166	1350.211	1023.818
36.067	13.182	1348.651	1022.645
37.082	13.161	1348.371	1022.210
38.096	13.113	1347.694	1021.312
39.111	13.275	1346.056	1020.979
40.126	13.145	1345.700	1019.813
41.140	12.992	1344.896	1018.174
42.155	12.995	1344.254	1017.612
43.169	12.946	1343.853	1016.917
44.184	12.973	1343.587	1016.793
45.199	13.049	1343.320	1016.969
46.213	13.029	1342.742	1016.322
47.228	13.036	1342.065	1015.762
48.242	13.234	1339.830	1015.193
49.257	13.203	1338.722	1014.073
50.271	13.094	1337.891	1012.686
51.286	13.182	1336.311	1011.939
52.301	13.108	1335.213	1010.564
53.315	13.009	1333.874	1008.857
54.330	13.057	1332.907	1008.330
55.344	13.075	1331.473	1007.267
56.359	12.943	1330.723	1005.806
57.374	13.023	1329.667	1005.408
58.388	12.973	1328.996	1004.503
59.403	12.959	1328.616	1004.044
60.417	12.994	1327.617	1003.416
61.432	12.893	1326.675	1002.001
62.447	12.838	1325.965	1001.038
63.461	12.810	1324.690	999.818
64.476	12.886	1323.103	998.994
65.490	12.806	1322.362	997.861
66.505	12.923	1320.602	997.154
67.520	12.899	1319.496	996.081
68.534	12.917	1318.467	995.328
69.549	12.921	1317.840	994.792
70.563	12.846	1316.449	993.198
71.578	12.878	1315.412	992.523
72.593	12.811	1314.615	991.430
73.607	12.709	1314.111	990.347
74.622	12.762	1313.220	989.910
75.636	12.702	1312.763	989.117
76.651	12.823	1311.880	989.088
77.666	12.785	1311.462	988.460
78.680	12.815	1310.798	988.049
79.695	12.859	1309.925	987.570
80.709	12.979	1308.832	987.374
81.724	12.923	1308.242	986.510
82.739	13.051	1307.260	986.443
83.753	13.039	1306.469	985.688
84.768	13.154	1305.324	985.425
85.782	13.172	1304.529	984.845
86.797	13.193	1303.218	983.893
87.812	13.035	1301.591	981.637
88.826	13.055	1300.798	981.072
89.841	13.143	1299.524	980.546
90.855	13.105	1298.910	979.769
91.870	13.154	1298.239	979.470
92.884	13.190	1297.106	978.739
93.899	13.199	1296.253	978.061
94.914	13.274	1295.232	977.650
95.928	13.226	1294.762	976.926
96.943	13.320	1293.411	976.376
97.957	13.196	1292.631	974.965
98.972	13.206	1291.766	974.288
99.987	13.183	1290.593	973.184
101.001	13.113	1289.944	972.192
102.016	13.135	1288.962	971.495
103.030	13.070	1288.362	970.575
104.045	13.174	1287.009	970.085
105.060	13.182	1285.924	969.223
106.074	13.053	1284.525	967.327
107.089	12.974	1282.810	965.491
108.103	12.958	1281.750	964.516
109.118	12.853	1280.422	962.816
110.133	12.929	1279.112	962.190
111.147	12.947	1277.760	961.192
112.162	13.035	1276.085	960.358
113.176	13.023	1275.873	960.045
114.191	12.964	1274.773	958.787
115.206	13.000	1273.436	957.910
116.220	13.046	1272.272	957.211
117.235	13.012	1270.988	955.968
118.249	12.999	1269.956	955.029
119.264	12.901	1268.902	953.589
120.279	12.968	1268.085	953.276
121.293	12.981	1266.688	952.214
122.308	12.886	1266.470	951.419
123.322	12.831	1264.777	949.745
124.337	12.915	1263.839	949.442
125.352	12.960	1262.491	948.605
126.366	12.906	1261.650	947.578
127.381	12.942	1260.606	946.919
128.395	12.917	1259.802	946.087
129.410	12.906	1258.930	945.285
130.424	12.960	1257.970	944.789
131.439	13.019	1256.976	944.297
132.454	13.071	1255.871	943.683
133.468	13.038	1255.112	942.838
134.483	13.021	1254.653	942.313
135.497	13.049	1253.363	941.421
136.512	13.070	1252.326	940.674
137.527	13.019	1250.904	939.234
138.541	13.114	1249.237	938.444
139.556	13.071	1248.202	937.336
140.570	13.103	1247.544	936.938
141.585	13.199	1246.296	936.463
142.600	13.206	1245.016	935.459
143.614	13.322	1244.120	935.358
144.629	13.253	1243.515	934.434
145.643	13.215	1242.261	933.194
146.658	13.258	1240.499	932.030
147.673	13.237	1239.344	930.958
148.687	13.176	1237.876	929.434
149.702	13.110	1237.004	928.323
150.716	13.104	1235.558	927.123
151.731	13.062	1234.736	926.187
152.746	13.095	1233.522	925.378
153.760	13.210	1231.747	924.613
154.775	13.236	1231.022	924.129
155.789	13.168	1230.504	923.280
156.804	13.256	1229.160	922.682
157.819	13.300	1228.065	922.022
158.833	13.341	1226.976	921.353
159.848	13.345	1226.323	920.801
160.862	13.421	1224.991	920.142
161.877	13.302	1224.020	918.671
162.892	13.236	1222.907	917.386
163.906	13.088	1222.332	916.057
164.921	13.312	1220.804	916.071
165.935	13.235	1220.661	915.455
166.950	13.354	1219.446	915.120
167.964	13.393	1218.534	914.574
168.979	13.257	1218.089	913.403
169.994	13.283	1217.625	913.118
171.008	13.299	1216.674	912.417
172.023	13.425	1215.892	912.439
173.037	13.370	1215.010	911.398
174.052	13.480	1213.902	911.089
175.067	13.307	1213.041	909.413
176.081	13.229	1211.959	908.092
177.096	13.252	1211.040	907.446
178.110	13.301	1209.700	906.631
179.125	13.344	1208.852	906.152
180.140	13.294	1207.785	904.999
181.154	13.412	1206.336	904.480
182.169	13.430	1205.201	903.647
183.183	13.473	1204.386	903.188
184.198	13.609	1202.643	902.544
185.213	13.563	1201.832	901.604
186.227	13.599	1200.714	900.879
187.242	13.727	1199.587	900.650
188.256	13.677	1199.050	899.899
189.271	13.666	1198.236	899.146
190.286	13.599	1196.600	897.478
191.300	13.412	1195.949	895.896
192.315	13.329	1195.479	895.015
193.329	13.444	1194.730	895.000
194.344	13.437	1194.071	894.388
195.359	13.456	1193.982	894.344
196.373	13.611	1193.185	894.504
197.388	13.647	1192.448	894.068
198.402	13.691	1192.169	894.016
199.417	13.679	1191.646	893.479
200.432	13.777	1191.119	893.535
201.446	13.882	1189.416	892.740
202.461	13.893	1188.900	892.338
203.475	13.873	1187.847	891.360
204.490	13.811	1186.926	890.255
205.504	13.871	1185.056	889.095
206.519	13.835	1183.974	888.013
207.534	13.800	1183.294	887.239
208.548	13.683	1182.414	885.871
209.563	13.805	1181.308	885.615
210.577	13.814	1180.571	885.034
211.592	13.958	1179.446	884.883
212.607	13.998	1178.251	884.120
213.621	14.036	1177.442	883.634
214.636	14.003	1176.920	882.990
215.650	13.967	1176.291	882.250
216.665	13.873	1175.245	880.885
217.680	14.088	1174.264	881.213
218.694	14.083	1173.932	880.863
219.709	14.135	1172.731	880.158
220.723	14.099	1171.948	879.300
221.738	13.976	1171.649	878.345
222.753	14.069	1170.498	877.896
223.767	14.088	1170.190	877.693
224.782	14.135	1169.282	877.177
225.796	14.066	1169.256	876.718
226.811	14.093	1168.424	876.160
227.826	14.050	1167.496	875.160
228.840	14.043	1166.747	874.482
229.855	14.128	1166.222	874.460
230.869	14.117	1165.115	873.497
231.884	14.116	1164.224	872.743
232.899	14.073	1163.610	871.983
233.913	14.199	1162.154	871.470
234.928	14.033	1161.888	870.328
235.942	14.107	1161.271	870.174
236.957	14.052	1160.657	869.349
237.972	14.061	1159.642	868.562
238.986	14.142	1159.208	868.582
240.001	14.009	1158.711	867.439
241.015	14.164	1157.021	866.905
242.030	14.129	1156.584	866.319
243.045	14.241	1155.755	866.201
244.059	14.230	1155.008	865.509
245.074	14.273	1154.202	865.051
246.088	14.273	1153.246	864.256
247.103	14.344	1152.600	864.066
248.117	14.476	1152.103	864.299
249.132	14.567	1151.383	864.159
250.147	14.536	1150.522	863.273
251.161	14.565	1149.937	862.907
252.176	14.631	1149.163	862.589
253.190	14.592	1148.521	861.830
254.205	14.521	1148.233	861.173
255.220	14.648	1147.284	861.040
256.234	14.675	1146.871	860.792
257.249	14.737	1145.765	860.206
258.263	14.709	1144.940	859.369
259.278	14.735	1144.797	859.318
260.293	14.698	1144.409	858.760
261.307	14.754	1143.566	858.337
262.322	14.874	1142.828	858.323
263.336	14.817	1142.195	857.479
264.351	14.831	1141.684	857.092
265.366	14.843	1141.087	856.633
266.380	14.854	1140.566	856.223
267.395	14.829	1139.619	855.308
268.409	14.792	1138.723	854.366
269.424	14.775	1138.313	853.896
270.439	14.861	1137.674	853.782
271.453	14.824	1136.700	852.790
272.468	14.834	1135.964	852.212
273.482	14.844	1135.115	851.548
274.497	14.958	1134.463	851.563
275.512	14.910	1134.052	850.937
276.526	14.792	1133.684	849.987
277.541	14.861	1132.581	849.435
278.555	14.954	1131.784	849.232
279.570	14.871	1131.277	848.355
280.585	15.094	1130.557	848.870
281.599	15.101	1129.339	847.920
282.614	14.964	1128.242	846.324
283.628	15.031	1127.279	845.870
284.643	15.043	1126.371	845.170
285.657	15.105	1125.303	844.609
286.672	15.061	1124.670	843.836
287.687	15.068	1123.971	843.271
288.701	15.124	1123.042	842.784
289.716	15.002	1122.324	841.554
290.730	15.130	1121.392	841.426
291.745	15.066	1120.985	840.723
292.760	15.132	1120.248	840.430
293.774	15.183	1119.689	840.190
294.789	15.222	1118.850	839.682
295.803	15.237	1118.654	839.536
296.818	15.195	1117.540	838.415
297.833	15.205	1116.674	837.740
298.847	15.245	1116.371	837.639
299.862	15.157	1115.490	836.464
300.876	15.284	1114.749	836.470
301.891	15.361	1113.654	835.957
302.906	15.362	1113.399	835.698
303.920	15.469	1112.733	835.656
304.935	15.350	1112.308	834.668
305.949	15.443	1111.734	834.627
306.964	15.554	1111.020	834.573
307.979	15.325	1110.496	832.968
308.993	15.441	1109.720	832.885
310.008	15.459	1108.594	832.058
311.022	15.520	1108.192	831.985
312.037	15.542	1107.066	831.174
313.052	15.598	1105.797	830.425
314.066	15.334	1105.133	828.546
315.081	15.265	1104.715	827.819
316.095	15.453	1103.435	827.714
317.110	15.405	1102.547	826.737
318.125	15.436	1101.946	826.366
319.139	15.467	1101.270	825.941
320.154	15.425	1100.945	825.419
321.168	15.329	1100.538	824.566
322.183	15.360	1099.960	824.212
323.197	15.412	1099.660	824.169
324.212	15.433	1098.837	823.582
325.227	15.503	1097.963	823.198
326.241	15.628	1097.068	823.067
327.256	15.564	1096.094	821.951
328.270	15.449	1095.582	820.931
329.285	15.684	1094.171	820.950
330.300	15.578	1093.469	819.835
331.314	15.584	1092.869	819.341
332.329	15.693	1091.502	818.771
333.343	15.602	1090.911	817.813
334.358	15.574	1090.427	817.242
335.373	15.780	1089.124	817.196
336.387	15.757	1088.764	816.743
337.402	15.816	1087.855	816.273
338.416	15.574	1087.697	814.910
339.431	15.886	1086.660	815.572
340.446	15.802	1086.330	814.845
341.460	15.820	1085.957	814.580
342.475	15.817	1085.159	813.893
343.489	15.979	1083.981	813.721
344.504	15.974	1083.249	813.078
345.519	15.997	1082.223	812.346
346.533	15.998	1081.357	811.626
347.548	16.092	1080.396	811.286
348.562	16.041	1079.676	810.428
349.577	16.015	1079.291	809.945
350.592	15.954	1078.521	809.001
351.606	15.959	1077.655	808.303
352.621	15.949	1077.040	807.725
353.635	15.922	1076.505	807.121
354.650	15.921	1075.592	806.360
355.665	15.940	1075.442	806.267
356.679	15.979	1074.335	805.555
357.694	15.928	1074.199	805.138
358.708	16.121	1073.169	805.213
359.723	16.104	1072.708	804.715
360.738	16.067	1071.946	803.896
361.752	16.079	1071.174	803.302
362.767	16.189	1070.727	803.420
363.781	16.150	1070.394	802.915
364.796	16.179	1069.796	802.533
365.810	16.200	1069.053	802.006
366.825	16.382	1068.129	802.104
367.840	16.349	1067.590	801.471
368.854	16.364	1067.303	801.257
369.869	16.368	1066.836	800.855
370.883	16.331	1065.709	799.764
371.898	16.308	1064.808	798.908
372.913	16.206	1064.783	798.332
373.927	16.331	1064.135	798.370
374.942	16.450	1063.246	798.192
375.956	16.447	1062.745	797.734
376.971	16.417	1062.282	797.174
377.986	16.463	1061.819	796.971
379.000	16.573	1061.355	797.070
380.015	16.685	1060.405	796.816
381.029	16.592	1059.847	795.886
382.044	16.641	1058.945	795.370
383.059	16.692	1058.483	795.190
384.073	16.601	1057.921	794.270
385.088	16.529	1057.027	793.193
386.102	16.713	1055.859	793.108
387.117	16.601	1054.441	791.447
388.132	16.549	1054.178	790.937
389.146	16.547	1052.951	789.938
390.161	16.517	1052.755	789.584
391.175	16.541	1051.873	788.960
392.190	16.571	1051.327	788.624
393.205	16.684	1050.639	788.565
394.219	16.752	1049.897	788.253
395.234	16.640	1048.950	786.952
396.248	16.613	1047.867	785.946
397.263	16.615	1046.786	785.071
398.278	16.643	1046.406	784.846
399.292	16.611	1045.562	783.998
400.307	16.599	1044.740	783.255
401.321	16.550	1044.206	782.558
402.336	16.575	1043.277	781.911
403.350	16.588	1042.993	781.691
404.365	16.588	1042.574	781.306
405.380	16.626	1041.365	780.505
406.394	16.698	1040.823	780.361
407.409	16.737	1039.949	779.818
408.423	16.765	1039.269	779.366
409.438	16.940	1038.821	779.766
410.453	16.987	1037.888	779.214
411.467	16.953	1037.202	778.474
412.482	17.019	1036.649	778.294
413.496	16.996	1036.126	777.727
414.511	17.120	1035.595	777.827
415.526	17.037	1035.248	777.114
416.540	17.077	1035.004	777.049
417.555	17.081	1034.088	776.310
418.569	16.996	1033.721	775.576
419.584	17.073	1033.131	775.417
420.599	17.140	1032.584	775.245
421.613	104.094	1324.516	1474.515
422.628	95.300	1366.991	1474.634
