DTS Sentinel unit serial number:	SN413079Multiplexer serial number:	ORYXHardware model number:	OX4-SRSoftware version number:	ORYX F/W v4.00 Oryx Data Collector v3.7.2.0data status	okinstallation	princeton_trtdifferential loss correction	single-endedforward channel	channel 2reverse channel	N/Adate	2019/09/17time	21:03:35forward acquisition time	60.00reverse acquisition time	0.00gamma	496.2192k internal	0.2337k external	0.2337temperature offset calibration	0.9985default loss term (dB/km)	0.3790temperature slope calibration	1.0000multiplexer offset coefficient	1.0000multiplexer slope coefficient	1.0000fibre end	0.00T internal ref (°C)	28.47T ext. ref 1 (°C)	0.20T ext. ref 2 (°C)	20.02length (m)	temperature (°C)	Stokes	anti-Stokes-747.200	-114.872	-0.100	0.019
-746.185	-105.811	-0.018	-0.004
-745.171	-183.232	-0.129	0.002
-744.156	99.261	-0.102	-0.118
-743.142	-200.000	-0.037	0.263
-742.127	390.122	-0.155	0.322
-741.112	196.913	-0.051	0.078
-740.098	86.757	-0.216	0.239
-739.083	287.750	0.059	0.108
-738.069	800.000	-0.144	0.422
-737.054	-63.364	-0.178	0.073
-736.039	-89.692	-0.508	-0.149
-735.025	-16.988	0.134	0.085
-734.010	169.099	0.254	0.364
-732.996	-200.000	0.018	-0.266
-731.981	178.706	-0.063	0.092
-730.966	570.694	0.037	0.090
-729.952	-39.845	-0.100	0.053
-728.937	-15.950	0.479	-0.306
-727.923	221.204	-0.269	-0.434
-726.908	-200.000	0.023	-0.238
-725.894	294.830	-0.166	-0.304
-724.879	136.088	-0.114	0.148
-723.864	156.746	0.033	0.046
-722.850	800.000	-0.042	-0.158
-721.835	721.481	0.068	-0.182
-720.821	50.960	-0.102	0.097
-719.806	-97.959	-0.227	-0.059
-718.791	-133.120	-0.248	0.031
-717.777	-171.247	-0.199	-0.007
-716.762	-200.000	0.017	-0.168
-715.748	132.420	-0.190	-0.246
-714.733	-18.483	0.084	0.052
-713.718	59.473	0.188	0.186
-712.704	-200.000	-0.043	-0.221
-711.689	-14.083	0.258	0.167
-710.675	-105.640	-0.040	0.009
-709.660	470.600	-0.161	-0.364
-708.645	-39.202	0.352	0.185
-707.631	-166.552	0.145	0.006
-706.616	-16.264	0.016	0.010
-705.602	-59.851	-0.214	0.092
-704.587	-200.000	-0.031	-0.188
-703.572	-200.000	0.028	-0.160
-702.558	-144.343	0.130	-0.012
-701.543	240.568	0.094	-0.156
-700.529	-103.410	-0.230	-0.054
-699.514	-200.000	0.017	-0.338
-698.499	27.827	0.109	-0.092
-697.485	-133.057	-0.423	-0.054
-696.470	-77.462	0.185	0.064
-695.456	340.769	-0.111	-0.218
-694.441	-82.945	0.086	-0.028
-693.426	381.104	-0.104	-0.213
-692.412	-200.000	-0.006	0.159
-691.397	-172.595	-0.229	0.007
-690.383	-77.426	-0.335	-0.116
-689.368	62.329	0.072	0.072
-688.354	-93.725	-0.411	0.114
-687.339	89.519	0.119	0.133
-686.324	672.811	-0.071	-0.184
-685.310	800.000	-0.088	0.283
-684.295	140.866	-0.142	-0.188
-683.281	21.962	0.277	-0.226
-682.266	800.000	-0.112	0.315
-681.251	126.903	-0.203	-0.258
-680.237	-155.966	-0.211	0.013
-679.222	50.563	-0.053	-0.050
-678.208	-127.724	0.098	0.014
-677.193	195.173	0.329	-0.500
-676.178	800.000	0.060	-0.188
-675.164	486.306	-0.085	-0.193
-674.149	191.884	0.093	0.140
-673.135	-55.867	-0.138	0.062
-672.120	800.000	-0.023	-0.065
-671.105	-200.000	-0.104	-0.528
-670.091	-200.000	0.052	0.340
-669.076	-5.527	-0.108	-0.074
-668.062	-161.809	-0.176	0.009
-667.047	260.154	0.126	0.218
-666.032	800.000	-0.038	-0.157
-665.018	315.743	0.077	-0.146
-664.003	-200.000	0.023	-0.413
-662.989	-200.000	0.016	-0.222
-661.974	800.000	-0.056	0.186
-660.959	37.562	0.166	-0.147
-659.945	15.683	0.244	-0.192
-658.930	-55.467	-0.403	-0.181
-657.916	-33.206	-0.212	-0.118
-656.901	310.447	0.082	-0.154
-655.886	253.495	-0.233	0.398
-654.872	-155.078	-0.243	-0.016
-653.857	-49.313	-0.133	0.064
-652.843	6.161	0.238	-0.177
-651.828	29.085	0.187	0.159
-650.814	-101.371	0.210	-0.051
-649.799	5.266	-0.184	0.136
-648.784	-200.000	-0.029	0.267
-647.770	143.231	-0.111	0.147
-646.755	-47.999	0.132	-0.064
-645.741	-187.582	0.264	-0.004
-644.726	138.369	0.105	-0.138
-643.711	-200.000	-0.021	-0.123
-642.697	-43.441	0.141	-0.071
-641.682	71.885	0.363	-0.377
-640.668	-40.500	-0.017	-0.009
-639.653	-6.006	-0.251	0.171
-638.638	-109.496	0.239	0.051
-637.624	-100.866	0.098	-0.024
-636.609	5.690	-0.117	-0.087
-635.595	-85.789	-0.050	-0.015
-634.580	386.669	-0.105	0.217
-633.565	-25.502	0.086	-0.051
-632.551	800.000	0.021	-0.072
-631.536	-200.000	-0.040	0.250
-630.522	-48.458	0.056	0.027
-629.507	60.870	0.149	-0.148
-628.492	-200.000	-0.054	-0.354
-627.478	-200.000	-0.006	-0.072
-626.463	-200.000	0.031	-0.568
-625.449	215.531	-0.091	-0.144
-624.434	-200.000	0.099	-0.438
-623.419	-30.852	-0.052	0.029
-622.405	138.920	-0.172	-0.226
-621.390	227.797	0.117	0.190
-620.376	4.559	0.302	0.222
-619.361	-47.624	-0.066	0.032
-618.346	768.902	-0.076	0.207
-617.332	-124.413	-0.253	-0.039
-616.317	64.803	0.093	0.094
-615.303	446.447	0.039	-0.086
-614.288	136.652	0.149	-0.194
-613.273	177.437	0.136	-0.198
-612.259	-162.326	0.409	-0.020
-611.244	-88.575	-0.162	-0.048
-610.230	-146.522	-0.215	0.019
-609.215	-200.000	0.136	0.000
-608.201	-61.652	0.186	-0.078
-607.186	-51.341	0.134	0.063
-606.171	-123.927	-0.281	0.044
-605.157	-0.069	-0.155	0.110
-604.142	257.572	0.069	0.118
-603.128	-154.129	-0.597	0.040
-602.113	-200.000	-0.037	0.254
-601.098	-41.831	-0.434	0.222
-600.084	61.595	-0.169	-0.168
-599.069	-154.539	-0.268	-0.018
-598.055	119.260	-0.137	0.169
-597.040	686.021	0.125	-0.325
-596.025	-7.994	-0.225	-0.152
-595.011	800.000	0.030	-0.096
-593.996	-200.000	-0.029	-0.445
-592.982	800.000	-0.091	0.297
-591.967	132.965	-0.217	-0.279
-590.952	-94.564	0.235	-0.064
-589.938	729.411	0.166	0.442
-588.923	-51.086	-0.095	-0.044
-587.909	-62.086	0.268	-0.112
-586.894	29.339	0.269	0.228
-585.879	106.764	0.068	0.081
-584.865	-200.000	0.010	-0.312
-583.850	98.798	-0.123	-0.141
-582.836	43.834	0.071	0.064
-581.821	-200.000	-0.006	-0.075
-580.806	111.008	0.046	0.056
-579.792	-77.894	-0.592	0.204
-578.777	-82.697	0.186	-0.060
-577.763	-124.854	-0.256	0.039
-576.748	-99.113	-0.170	-0.043
-575.733	800.000	-0.043	-0.174
-574.719	27.382	-0.276	0.231
-573.704	-81.475	-0.187	0.061
-572.690	22.909	-0.027	-0.022
-571.675	-124.251	-0.031	0.005
-570.661	310.997	0.126	0.235
-569.646	-33.204	0.239	0.132
-568.631	-200.000	0.030	-0.316
-567.617	-150.103	0.352	0.027
-566.602	83.088	0.333	-0.361
-565.588	-76.585	0.337	0.118
-564.573	-94.619	-0.161	0.044
-563.558	167.914	-0.094	0.134
-562.544	-200.000	-0.070	-0.313
-561.529	164.459	-0.114	0.160
-560.515	53.127	-0.336	0.321
-559.500	-54.321	0.363	-0.164
-558.485	-200.000	0.044	0.255
-557.471	163.215	-0.154	0.216
-556.456	87.860	0.180	0.199
-555.442	-200.000	0.011	0.192
-554.427	-131.430	-0.458	0.060
-553.412	-200.000	0.012	-0.210
-552.398	-145.173	0.158	0.014
-551.383	-154.045	-0.176	-0.012
-550.369	737.178	-0.047	-0.125
-549.354	-65.958	0.268	0.107
-548.339	99.950	-0.167	0.193
-547.325	-80.842	-0.264	0.087
-546.310	64.643	0.095	0.095
-545.296	-94.051	-0.338	-0.092
-544.281	36.830	-0.096	-0.085
-543.266	-170.188	0.270	-0.010
-542.252	8.232	-0.141	0.106
-541.237	407.335	-0.117	0.247
-540.223	298.682	0.041	0.076
-539.208	125.163	-0.226	-0.283
-538.193	375.186	-0.106	-0.215
-537.179	-200.000	0.066	0.327
-536.164	-200.000	-0.018	0.277
-535.150	800.000	-0.107	0.352
-534.135	397.349	0.076	-0.158
-533.121	800.000	-0.038	-0.157
-532.106	548.177	0.026	-0.062
-531.091	18.431	-0.196	-0.156
-530.077	800.000	-0.101	0.302
-529.062	-133.243	-0.160	-0.020
-528.048	31.754	-0.161	0.138
-527.033	-34.845	0.199	-0.108
-526.018	305.843	0.170	-0.315
-525.004	283.163	0.140	-0.251
-523.989	-200.000	-0.066	-0.411
-522.975	-156.504	0.306	0.019
-521.960	-96.960	0.065	-0.017
-520.945	-200.000	-0.013	0.159
-519.931	449.450	0.126	-0.276
-518.916	114.766	-0.108	0.131
-517.902	-105.556	-0.099	0.022
-516.887	299.065	-0.047	-0.087
-515.872	-200.000	-0.023	0.178
-514.858	-90.088	-0.260	0.075
-513.843	21.354	0.091	0.074
-512.829	-83.447	0.167	0.053
-511.814	17.221	0.161	0.127
-510.799	-127.431	-0.203	0.029
-509.785	448.980	-0.077	0.169
-508.770	-166.314	-0.463	0.019
-507.756	791.809	0.069	-0.190
-506.741	-95.290	-0.185	-0.049
-505.726	-22.433	-0.204	-0.123
-504.712	-102.095	0.180	-0.043
-503.697	800.000	0.055	-0.157
-502.683	-59.929	0.222	0.094
-501.668	-51.443	-0.227	-0.105
-500.653	-162.705	0.179	0.009
-499.639	230.201	0.073	0.118
-498.624	-86.873	-0.536	-0.163
-497.610	-68.822	-0.239	-0.092
-496.595	17.622	-0.070	0.056
-495.581	434.764	-0.063	0.137
-494.566	-127.196	-0.156	-0.023
-493.551	28.715	-0.120	-0.101
-492.537	-200.000	0.015	-0.090
-491.522	-200.000	-0.010	0.060
-490.508	-200.000	-0.030	0.137
-489.493	144.670	0.120	-0.160
-488.478	-200.000	-0.002	-0.306
-487.464	-200.000	0.022	-0.140
-486.449	-82.043	0.165	0.054
-485.435	-117.772	0.299	-0.053
-484.420	248.930	0.035	-0.059
-483.405	800.000	-0.066	-0.200
-482.391	102.585	-0.088	-0.102
-481.376	103.335	-0.091	-0.106
-480.362	462.313	0.173	-0.383
-479.347	-105.485	0.059	0.013
-478.332	-175.161	-0.128	0.004
-477.318	221.962	-0.150	0.240
-476.303	-200.000	-0.092	0.476
-475.289	-5.921	-0.109	0.074
-474.274	-2.935	-0.168	-0.116
-473.259	-95.289	0.232	0.062
-472.245	-135.446	-0.443	0.052
-471.230	-63.020	-0.169	-0.069
-470.216	-196.944	-0.063	0.000
-469.201	287.924	-0.143	-0.257
-468.186	-200.000	0.045	0.301
-467.172	99.427	-0.123	-0.141
-466.157	485.942	0.202	0.456
-465.143	77.699	0.077	0.081
-464.128	-43.728	-0.171	0.086
-463.113	-49.191	0.354	0.168
-462.099	-200.000	-0.012	0.309
-461.084	80.000	-0.003	-0.003
-460.070	-198.164	0.184	-0.001
-459.055	800.000	-0.040	-0.137
-458.040	-190.659	-0.283	-0.003
-457.026	800.000	-0.017	-0.067
-456.011	-53.043	-0.108	-0.049
-454.997	-85.186	-0.243	0.075
-453.982	243.467	-0.134	0.223
-452.968	40.887	0.057	-0.051
-451.953	-200.000	0.042	-0.233
-450.938	68.058	-0.147	-0.149
-449.924	46.328	0.087	0.080
-448.909	-200.000	0.010	0.062
-447.895	589.693	0.035	-0.087
-446.880	-32.164	0.197	0.110
-445.865	426.068	0.154	0.329
-444.851	-88.233	0.240	0.071
-443.836	35.084	0.091	0.079
-442.822	-200.000	0.019	0.322
-441.807	-147.602	0.166	-0.014
-440.792	-85.928	0.179	0.055
-439.778	362.453	-0.166	0.331
-438.763	-70.127	-0.153	0.058
-437.749	727.145	0.023	0.061
-436.734	68.028	0.098	0.100
-435.719	-200.000	-0.020	-0.199
-434.705	161.530	-0.077	0.106
-433.690	-154.075	0.163	0.011
-432.676	-200.000	-0.017	-0.377
-431.661	309.723	-0.166	0.309
-430.646	-105.514	0.128	-0.029
-429.632	-67.570	-0.268	-0.104
-428.617	127.957	0.176	-0.222
-427.603	81.166	-0.100	0.107
-426.588	-123.996	0.374	0.058
-425.573	-35.368	-0.222	-0.120
-424.559	259.862	0.028	-0.048
-423.544	250.525	-0.172	-0.290
-422.530	277.602	-0.048	0.085
-421.515	146.289	0.132	0.176
-420.500	800.000	-0.042	0.153
-419.486	235.726	0.095	0.156
-418.471	103.092	-0.114	0.132
-417.457	-200.000	0.017	0.121
-416.442	-200.000	0.012	0.059
-415.428	298.109	0.095	-0.173
-414.413	-151.701	0.253	-0.018
-413.398	79.087	-0.234	0.249
-412.384	6.745	0.173	0.127
-411.369	-182.235	0.347	-0.006
-410.355	-200.000	0.002	-0.041
-409.340	-168.157	-0.105	-0.004
-408.325	-92.251	-0.159	-0.044
-407.311	-200.000	-0.072	-0.328
-406.296	340.530	0.095	-0.183
-405.282	34.813	0.144	-0.125
-404.267	190.666	0.145	0.216
-403.252	-57.191	-0.258	0.113
-402.238	-71.237	-0.317	0.118
-401.223	115.266	-0.242	-0.292
-400.209	568.651	0.105	-0.251
-399.194	800.000	-0.019	-0.053
-398.179	-114.848	0.161	0.030
-397.165	72.395	-0.142	0.147
-396.150	438.199	0.116	0.251
-395.136	174.672	0.122	-0.175
-394.121	-82.653	-0.212	-0.068
-393.106	-90.846	-0.036	0.010
-392.092	-84.817	-0.127	0.040
-391.077	79.241	0.132	-0.140
-390.063	-116.156	0.516	-0.095
-389.048	-96.555	0.253	-0.066
-388.033	53.469	-0.126	0.119
-387.019	774.990	0.082	0.222
-386.004	-114.185	0.346	0.066
-384.990	274.918	-0.160	0.281
-383.975	-107.965	0.111	-0.024
-382.960	-200.000	-0.021	-0.177
-381.946	-42.901	-0.284	0.143
-380.931	43.058	-0.171	0.155
-379.917	543.961	-0.175	0.413
-378.902	-20.718	-0.176	0.107
-377.888	61.987	0.129	-0.127
-376.873	-23.916	-0.260	-0.154
-375.858	94.883	0.123	-0.138
-374.844	37.772	-0.353	-0.310
-373.829	7.364	0.133	0.098
-372.815	-200.000	0.009	-0.161
-371.800	295.736	0.251	-0.455
-370.785	329.763	-0.049	-0.093
-369.771	-10.208	0.227	-0.149
-368.756	-93.127	-0.113	-0.031
-367.742	-76.578	0.235	0.081
-366.727	-66.168	0.058	-0.023
-365.712	68.086	0.110	-0.111
-364.698	-41.452	0.146	-0.074
-363.683	-108.197	0.163	-0.035
-362.669	800.000	0.106	0.305
-361.654	800.000	-0.027	0.082
-360.639	316.927	-0.043	-0.080
-359.625	141.857	-0.120	-0.157
-358.610	-18.166	0.222	0.137
-357.596	-27.116	-0.128	0.074
-356.581	59.467	-0.300	-0.293
-355.566	-110.863	-0.214	-0.044
-354.552	685.113	0.054	-0.138
-353.537	242.398	0.123	-0.204
-352.523	-39.083	-0.173	-0.090
-351.508	204.831	-0.196	0.301
-350.493	-14.528	0.192	-0.122
-349.479	2.679	0.347	-0.249
-348.464	-55.686	0.317	-0.140
-347.450	-98.676	-0.325	-0.082
-346.435	164.659	0.174	-0.243
-345.420	-84.712	-0.241	-0.075
-344.406	-200.000	0.072	0.396
-343.391	381.500	-0.127	0.258
-342.377	81.267	0.216	-0.231
-341.362	97.721	-0.115	0.130
-340.348	-0.004	-0.110	-0.077
-339.333	-168.337	0.037	-0.001
-338.318	57.890	0.206	0.199
-337.304	24.310	-0.454	0.370
-336.289	800.000	0.042	0.164
-335.275	452.846	0.116	0.253
-334.260	265.560	0.136	-0.235
-333.245	22.770	-0.034	0.028
-332.231	139.751	0.205	0.267
-331.216	56.688	-0.129	-0.124
-330.202	800.000	-0.038	0.130
-329.187	800.000	0.023	-0.096
-328.172	800.000	-0.077	0.289
-327.158	124.913	-0.175	0.218
-326.143	110.968	0.174	0.207
-325.129	-88.137	0.081	0.024
-324.114	800.000	0.086	0.258
-323.099	111.955	-0.199	-0.237
-322.085	15.208	0.320	-0.248
-321.070	-200.000	-0.010	0.186
-320.056	790.939	0.124	0.335
-319.041	252.992	-0.198	0.333
-318.026	-5.134	0.210	0.142
-317.012	-144.208	0.107	-0.010
-315.997	-3.871	0.276	-0.189
-314.983	-9.884	0.061	-0.040
-313.968	252.874	-0.110	0.186
-312.953	0.403	-0.108	0.076
-311.939	-127.071	0.174	0.025
-310.924	-163.142	0.170	0.008
-309.910	-200.000	0.024	0.361
-308.895	52.853	0.145	0.137
-307.880	-145.999	-0.199	-0.017
-306.866	-38.182	-0.200	0.105
-305.851	-176.161	-0.379	-0.010
-304.837	-200.000	-0.076	0.481
-303.822	64.887	-0.032	-0.032
-302.807	800.000	-0.037	-0.128
-301.793	-138.583	0.180	-0.019
-300.778	800.000	0.046	-0.180
-299.764	160.217	-0.050	0.069
-298.749	329.305	-0.109	0.207
-297.735	-59.953	0.231	-0.097
-296.720	800.000	0.089	-0.312
-295.705	-20.218	-0.302	-0.184
-294.691	-33.096	-0.261	-0.143
-293.676	-200.000	0.028	-0.335
-292.662	-32.670	-0.130	0.071
-291.647	-200.000	-0.026	-0.128
-290.632	270.465	0.086	-0.150
-289.618	-11.986	0.279	-0.181
-288.603	30.838	0.175	-0.148
-287.589	-200.000	0.060	-0.265
-286.574	-200.000	-0.020	0.112
-285.559	-137.160	0.235	-0.026
-284.545	-162.609	0.515	-0.025
-283.530	-94.124	-0.300	0.081
-282.516	-200.000	0.030	0.189
-281.501	543.871	0.117	0.276
-280.486	-200.000	0.045	-0.280
-279.472	-200.000	0.028	-0.213
-278.457	-200.000	-0.016	-0.125
-277.443	77.096	-0.221	-0.231
-276.428	800.000	-0.063	-0.228
-275.413	-200.000	0.032	-0.174
-274.399	-164.312	-0.242	-0.011
-273.384	-26.214	0.220	-0.127
-272.370	767.090	-0.156	0.419
-271.355	99.454	0.154	0.175
-270.340	529.010	-0.049	-0.114
-269.326	-74.551	-0.217	-0.077
-268.311	-52.804	-0.287	0.130
-267.297	199.700	-0.164	-0.248
-266.282	113.429	0.130	-0.155
-265.267	-131.753	-0.341	-0.044
-264.253	155.605	0.059	0.080
-263.238	31.986	0.037	-0.031
-262.224	-127.772	0.182	-0.026
-261.209	42.578	0.236	0.212
-260.195	-107.983	0.039	0.008
-259.180	-40.088	0.071	0.036
-258.165	576.062	0.063	0.151
-257.151	-176.440	0.187	-0.005
-256.136	-200.000	-0.092	0.544
-255.122	-200.000	-0.027	-0.173
-254.107	455.828	0.167	-0.365
-253.092	-200.000	0.074	-0.768
-252.078	-150.442	0.093	-0.007
-251.063	-29.481	-0.219	0.123
-250.049	9.713	0.187	0.139
-249.034	127.395	-0.069	-0.086
-248.019	-91.778	-0.120	-0.034
-247.005	800.000	-0.058	0.221
-245.990	-133.007	0.193	-0.024
-244.976	0.208	0.175	-0.123
-243.961	-200.000	0.045	0.353
-242.946	-53.031	0.113	-0.051
-241.932	144.524	0.182	-0.239
-240.917	-0.613	-0.648	0.452
-239.903	800.000	-0.037	0.147
-238.888	-8.337	-0.105	0.069
-237.873	-31.766	-0.184	-0.102
-236.859	800.000	-0.046	-0.131
-235.844	800.000	0.078	0.314
-234.830	800.000	0.073	-0.285
-233.815	-46.474	0.311	0.150
-232.800	-104.391	0.220	-0.050
-231.786	23.142	0.198	0.160
-230.771	184.058	-0.013	0.019
-229.757	196.498	-0.175	-0.263
-228.742	-33.205	0.165	0.090
-227.727	-19.112	0.262	-0.160
-226.713	-200.000	-0.016	0.468
-225.698	800.000	-0.151	0.465
-224.684	-200.000	-0.026	0.434
-223.669	214.426	0.193	-0.301
-222.655	301.142	0.156	0.284
-221.640	-4.041	-0.100	-0.068
-220.625	-68.238	0.260	-0.100
-219.611	-90.113	-0.114	-0.033
-218.596	-93.845	0.376	0.102
-217.582	-119.822	-0.472	0.080
-216.567	618.197	-0.098	-0.241
-215.552	-64.260	0.109	0.044
-214.538	311.591	-0.113	-0.208
-213.523	-200.000	0.045	0.198
-212.509	-82.852	-0.316	-0.100
-211.494	98.438	0.113	-0.128
-210.479	378.148	-0.079	0.159
-209.465	-200.000	0.001	-0.169
-208.450	-200.000	-0.004	0.095
-207.436	-70.346	0.252	-0.094
-206.421	-78.156	0.451	0.153
-205.406	-200.000	0.043	-0.311
-204.392	53.824	-0.206	-0.195
-203.377	127.037	0.247	-0.308
-202.363	-200.000	0.073	-0.353
-201.348	62.308	0.125	0.123
-200.333	-200.000	0.296	-0.001
-199.319	167.452	-0.184	-0.256
-198.304	18.771	0.285	-0.224
-197.290	51.549	0.011	-0.010
-196.275	255.062	-0.054	-0.090
-195.260	-130.275	-0.113	0.015
-194.246	-69.041	0.259	0.098
-193.231	120.185	-0.127	0.154
-192.217	-182.596	-0.056	0.001
-191.202	-46.118	-0.144	0.070
-190.187	80.780	-0.270	0.286
-189.173	-36.973	-0.078	-0.041
-188.158	-19.211	-0.121	0.074
-187.144	800.000	0.137	-0.403
-186.129	-89.917	0.184	0.053
-185.114	14.882	-0.104	0.080
-184.100	-200.000	0.005	-0.220
-183.085	740.767	0.079	-0.208
-182.071	90.272	-0.154	0.169
-181.056	800.000	-0.046	0.155
-180.042	727.269	0.132	0.345
-179.027	-75.027	-0.092	0.032
-178.012	-200.000	-0.009	0.163
-176.998	800.000	0.014	-0.056
-175.983	265.396	0.125	-0.213
-174.969	-172.423	0.173	0.005
-173.954	271.556	-0.115	-0.199
-172.939	-200.000	-0.063	-0.327
-171.925	556.631	-0.138	-0.327
-170.910	-5.847	0.082	-0.055
-169.896	64.470	0.316	-0.312
-168.881	-113.640	-0.256	0.049
-167.866	800.000	-0.035	-0.102
-166.852	-133.098	-0.408	0.051
-165.837	570.685	0.167	0.399
-164.823	-96.577	0.161	0.042
-163.808	-200.000	-0.018	0.258
-162.793	295.061	-0.085	-0.153
-161.779	-59.775	0.327	-0.137
-160.764	14.466	-0.072	0.055
-159.750	161.715	0.185	0.254
-158.735	179.906	0.179	-0.257
-157.720	-200.000	0.022	-0.134
-156.706	-3.757	0.115	0.079
-155.691	11.406	0.196	0.147
-154.677	154.009	0.067	0.090
-153.662	-139.133	-0.407	0.043
-152.647	-15.180	0.183	0.115
-151.633	-138.345	-0.226	-0.025
-150.618	-18.687	0.327	-0.200
-149.604	-200.000	-0.007	0.045
-148.589	-81.299	-0.046	0.015
-147.574	179.950	0.087	0.125
-146.560	-200.000	-0.032	0.190
-145.545	0.107	0.174	0.122
-144.531	433.868	-0.077	-0.163
-143.516	-13.810	-0.190	0.121
-142.502	148.075	-0.229	0.302
-141.487	-22.120	0.229	0.136
-140.472	8.462	0.054	-0.040
-139.458	-129.086	0.285	0.039
-138.443	-200.000	0.032	0.319
-137.429	98.775	0.105	-0.118
-136.414	-63.124	0.153	0.062
-135.399	-87.570	0.169	0.050
-134.385	16.015	-0.139	-0.107
-133.370	554.490	0.016	-0.037
-132.356	164.078	-0.115	0.158
-131.341	-35.635	0.039	0.021
-130.326	-33.689	0.026	0.014
-129.312	-69.214	-0.157	0.059
-128.297	219.715	-0.107	0.167
-127.283	-200.000	-0.027	-0.159
-126.268	-94.070	-0.188	0.051
-125.253	58.828	0.130	-0.125
-124.239	88.759	-0.171	0.186
-123.224	-10.872	0.161	0.104
-122.210	-42.955	0.165	-0.082
-121.195	-46.049	-0.178	0.086
-120.180	50.988	-0.209	0.194
-119.166	-88.698	0.052	0.015
-118.151	564.634	0.096	-0.228
-117.137	800.000	-0.126	0.356
-116.122	-87.372	0.136	0.040
-115.107	66.940	0.318	-0.317
-114.093	-200.000	0.005	-0.067
-113.078	22.240	-0.139	-0.111
-112.064	72.052	0.179	-0.183
-111.049	-69.887	0.196	0.073
-110.034	-30.999	0.417	-0.231
-109.020	342.588	-0.101	-0.193
-108.005	-126.853	0.276	0.040
-106.991	-200.000	0.026	-0.144
-105.976	-59.934	0.169	-0.071
-104.962	24.429	-0.185	-0.150
-103.947	147.339	0.084	-0.111
-102.932	4.966	0.111	0.080
-101.918	430.540	0.089	-0.189
-100.903	800.000	0.110	-0.313
-99.889	-200.000	-0.033	0.165
-98.874	225.130	0.098	-0.155
-97.859	167.780	-0.096	-0.134
-96.845	-102.852	-0.105	0.024
-95.830	540.320	0.148	0.344
-94.816	-98.082	0.159	-0.040
-93.801	-117.415	-0.259	0.046
-92.786	-140.693	-0.238	-0.024
-91.772	-102.689	0.105	-0.024
-90.757	-14.509	0.080	0.050
-89.743	-68.585	0.205	-0.078
-88.728	28.937	0.041	0.034
-87.713	599.939	-0.069	-0.166
-86.699	10.439	0.100	-0.075
-85.684	-8.643	-0.263	0.172
-84.670	-116.179	0.079	0.014
-83.655	-111.636	0.245	-0.049
-82.640	-136.177	0.040	-0.005
-81.626	800.000	0.023	0.066
-80.611	-8.671	-0.050	-0.033
-79.597	63.711	-0.314	-0.308
-78.582	510.790	-0.136	0.308
-77.567	207.824	0.184	0.281
-76.553	-200.000	0.038	0.239
-75.538	3.300	-0.439	0.313
-74.524	-90.877	-0.343	0.097
-73.509	315.060	0.039	-0.072
-72.494	279.602	0.100	0.174
-71.480	-84.055	-0.138	-0.043
-70.465	77.903	-0.313	0.326
-69.451	800.000	0.046	0.154
-68.436	-29.462	0.071	-0.040
-67.422	800.000	-0.072	-0.288
-66.407	-30.153	-0.051	-0.028
-65.392	786.422	-0.096	-0.257
-64.378	-74.494	-0.186	0.066
-63.363	110.139	0.057	-0.067
-62.349	-54.062	0.232	0.103
-61.334	139.861	-0.799	-1.028
-60.319	81.452	0.704	0.743
-59.305	800.000	-0.279	-1.076
-58.290	132.215	0.824	1.037
-57.276	477.656	0.640	1.415
-56.261	-200.000	111.610	656.943
-55.246	515.972	1469.956	3355.211
-54.232	153.364	2636.610	3525.881
-53.217	99.306	2264.488	2557.642
-52.203	37.392	1886.242	1633.392
-51.188	31.560	1682.325	1412.875
-50.173	29.168	1640.899	1360.385
-49.159	50.858	1695.212	1568.584
-48.144	50.341	1710.153	1578.477
-47.130	31.259	1669.379	1399.528
-46.115	28.541	1655.446	1367.561
-45.100	28.251	1650.957	1361.640
-44.086	28.405	1647.588	1359.947
-43.071	28.316	1645.158	1357.233
-42.057	28.302	1643.231	1355.481
-41.042	28.338	1640.950	1353.814
-40.027	28.434	1639.141	1352.978
-39.013	28.419	1636.878	1350.945
-37.998	28.344	1635.793	1349.441
-36.984	28.316	1634.701	1348.279
-35.969	28.462	1633.205	1348.065
-34.954	28.459	1631.670	1346.725
-33.940	28.458	1630.094	1345.363
-32.925	28.477	1627.745	1343.512
-31.911	28.460	1625.943	1341.849
-30.896	28.418	1624.569	1340.354
-29.881	28.504	1623.082	1339.699
-28.867	28.410	1621.544	1337.693
-27.852	28.369	1620.482	1336.464
-26.838	28.359	1618.650	1334.826
-25.823	28.468	1617.249	1334.413
-24.809	28.415	1616.233	1333.131
-23.794	28.420	1614.870	1331.991
-22.779	28.504	1612.852	1330.887
-21.765	28.541	1611.150	1329.697
-20.750	28.486	1609.554	1327.930
-19.736	28.479	1608.320	1326.805
-18.721	28.489	1607.503	1326.154
-17.706	28.537	1605.980	1325.192
-16.692	28.449	1604.288	1323.109
-15.677	28.549	1603.001	1322.716
-14.663	28.601	1601.685	1321.949
-13.648	28.541	1600.366	1320.375
-12.633	28.487	1598.890	1318.722
-11.619	28.482	1597.539	1317.515
-10.604	28.560	1595.661	1316.477
-9.590	28.589	1594.365	1315.561
-8.575	28.491	1593.716	1314.271
-7.560	28.526	1592.820	1313.734
-6.546	28.496	1591.491	1312.372
-5.531	28.615	1590.120	1312.038
-4.517	28.464	1589.247	1310.186
-3.502	28.509	1588.275	1309.654
-2.487	28.512	1586.207	1307.915
-1.473	27.842	1574.059	1293.106
-0.458	24.214	1552.920	1250.288
0.556	18.146	1552.153	1210.568
1.571	15.258	1573.935	1206.686
2.586	14.543	1585.506	1210.265
3.600	13.156	1532.475	1159.945
4.615	7.396	1428.223	1043.152
5.629	1.455	1367.136	960.964
6.644	0.295	1359.303	948.074
7.659	0.203	1358.443	946.818
8.673	0.175	1356.967	945.526
9.688	0.137	1355.249	944.008
10.702	-0.073	1351.909	940.282
11.717	2.808	1355.738	960.922
12.731	9.912	1366.201	1012.947
13.746	15.718	1374.649	1055.669
14.761	16.957	1375.686	1064.153
15.775	16.204	1373.800	1057.881
16.790	15.240	1371.107	1049.678
17.804	14.487	1368.881	1043.172
18.819	14.054	1367.374	1039.221
19.834	13.817	1366.023	1036.623
20.848	13.598	1364.938	1034.343
21.863	13.366	1363.743	1031.897
22.877	13.167	1362.471	1029.603
23.892	13.192	1361.366	1028.837
24.907	13.128	1361.092	1028.136
25.921	13.224	1359.879	1027.729
26.936	13.263	1358.905	1027.142
27.950	13.172	1358.239	1025.985
28.965	13.300	1357.211	1025.911
29.980	13.390	1355.865	1025.360
30.994	13.409	1355.210	1024.889
32.009	13.414	1354.347	1024.180
33.023	13.417	1353.220	1023.255
34.038	13.427	1351.769	1022.131
35.053	13.331	1350.734	1020.665
36.067	13.300	1349.908	1019.761
37.082	13.255	1348.995	1018.700
38.096	13.352	1348.182	1018.591
39.111	13.359	1347.257	1017.851
40.126	13.344	1346.317	1016.958
41.140	13.194	1345.994	1015.699
42.155	13.247	1345.206	1015.341
43.169	13.174	1344.950	1014.607
44.184	13.076	1345.020	1013.969
45.199	13.118	1344.153	1013.483
46.213	13.250	1343.635	1013.813
47.228	13.257	1342.451	1012.875
48.242	13.400	1340.975	1012.548
49.257	13.285	1339.440	1010.593
50.271	13.291	1338.652	1009.948
51.286	13.278	1337.240	1008.714
52.301	13.268	1336.228	1007.801
53.315	13.243	1335.436	1006.963
54.330	13.198	1334.377	1005.798
55.344	13.167	1332.801	1004.331
56.359	13.265	1331.561	1003.904
57.374	13.178	1331.235	1003.045
58.388	13.115	1330.318	1001.883
59.403	13.162	1329.962	1001.807
60.417	13.107	1328.943	1000.618
61.432	13.027	1328.486	999.700
62.447	13.060	1327.358	998.963
63.461	13.098	1325.842	997.964
64.476	13.093	1324.760	997.030
65.490	13.148	1323.586	996.389
66.505	13.028	1322.636	994.867
67.520	13.143	1320.952	994.202
68.534	13.110	1320.156	993.317
69.549	13.094	1319.164	992.386
70.563	13.158	1317.723	991.599
71.578	13.029	1316.640	989.921
72.593	13.124	1315.840	989.805
73.607	13.075	1315.219	988.958
74.622	13.063	1313.962	987.851
75.636	12.982	1313.451	986.893
76.651	13.008	1313.025	986.640
77.666	13.008	1312.446	986.118
78.680	12.948	1311.685	985.101
79.695	13.007	1310.783	984.691
80.709	13.090	1310.175	984.643
81.724	13.155	1309.254	984.250
82.739	13.233	1307.873	983.591
83.753	13.179	1307.224	982.693
84.768	13.232	1306.227	982.173
85.782	13.330	1305.213	981.904
86.797	13.270	1303.670	980.302
87.812	13.164	1302.765	978.904
88.826	13.260	1301.341	978.314
89.841	13.258	1300.327	977.454
90.855	13.246	1299.516	976.687
91.870	13.324	1298.295	976.148
92.884	13.297	1297.628	975.399
93.899	13.379	1296.791	975.164
94.914	13.372	1296.096	974.513
95.928	13.363	1295.543	973.959
96.943	13.355	1294.518	973.054
97.957	13.308	1293.913	972.237
98.972	13.305	1292.869	971.350
99.987	13.316	1291.628	970.398
101.001	13.282	1290.508	969.269
102.016	13.302	1289.688	968.686
103.030	13.238	1289.018	967.724
104.045	13.352	1287.517	967.177
105.060	13.292	1286.695	966.125
106.074	13.300	1284.777	964.642
107.089	13.225	1283.685	963.300
108.103	13.166	1282.613	962.068
109.118	13.108	1282.090	961.252
110.133	13.255	1279.859	960.350
111.147	13.182	1278.552	958.861
112.162	13.211	1277.975	958.510
113.176	13.209	1276.823	957.549
114.191	13.283	1275.462	956.876
115.206	13.208	1274.592	955.706
116.220	13.291	1273.079	954.963
117.235	13.250	1272.132	953.933
118.249	13.188	1271.545	953.050
119.264	13.230	1270.094	952.120
120.279	13.188	1268.604	950.676
121.293	13.244	1267.555	950.128
122.308	13.168	1267.209	949.347
123.322	13.131	1266.415	948.457
124.337	13.051	1265.070	946.909
125.352	13.163	1263.552	946.329
126.366	13.179	1262.033	945.201
127.381	13.162	1261.407	944.552
128.395	13.196	1260.321	943.845
129.410	13.228	1259.615	943.418
130.424	13.178	1258.657	942.330
131.439	13.300	1257.455	942.044
132.454	13.269	1256.582	941.132
133.468	13.154	1255.514	939.591
134.483	13.192	1255.422	939.658
135.497	13.147	1254.172	938.382
136.512	13.181	1253.245	937.796
137.527	13.273	1251.367	936.832
138.541	13.287	1249.791	935.649
139.556	13.308	1248.573	934.771
140.570	13.276	1248.025	934.098
141.585	13.363	1246.367	933.263
142.600	13.421	1245.593	932.933
143.614	13.412	1244.703	932.128
144.629	13.432	1243.479	931.245
145.643	13.478	1242.036	930.342
146.658	13.287	1241.414	928.720
147.673	13.422	1239.590	928.031
148.687	13.229	1239.005	926.425
149.702	13.235	1237.716	925.412
150.716	13.397	1236.141	925.062
151.731	13.351	1234.816	923.733
152.746	13.256	1233.851	922.397
153.760	13.438	1232.506	922.323
154.775	13.458	1231.593	921.669
155.789	13.430	1230.651	920.727
156.804	13.435	1229.436	919.765
157.819	13.433	1228.462	918.944
158.833	13.498	1227.399	918.427
159.848	13.563	1226.811	918.268
160.862	13.535	1225.770	917.251
161.877	13.493	1224.490	915.982
162.892	13.506	1223.620	915.321
163.906	13.400	1223.041	914.219
164.921	13.467	1221.665	913.482
165.935	13.422	1221.285	912.868
166.950	13.559	1220.453	912.921
167.964	13.574	1219.299	912.062
168.979	13.631	1218.695	911.838
169.994	13.569	1217.973	910.878
171.008	13.567	1216.722	909.849
172.023	13.660	1216.317	909.976
173.037	13.622	1215.444	909.034
174.052	13.544	1214.806	908.054
175.067	13.702	1212.935	907.435
176.081	13.628	1212.441	906.583
177.096	13.542	1211.416	905.264
178.110	13.625	1210.426	904.900
179.125	13.584	1209.483	903.892
180.140	13.609	1208.277	903.045
181.154	13.629	1206.896	902.041
182.169	13.629	1205.853	901.182
183.183	13.755	1204.161	900.525
184.198	13.732	1203.211	899.609
185.213	13.751	1202.132	898.823
186.227	13.741	1201.061	897.890
187.242	13.768	1199.837	897.041
188.256	13.811	1198.901	896.494
189.271	13.852	1198.132	896.064
190.286	13.716	1197.207	894.556
191.300	13.767	1195.749	893.664
192.315	13.690	1195.753	893.173
193.329	13.669	1195.197	892.566
194.344	13.703	1194.432	892.097
195.359	13.815	1193.465	891.901
196.373	13.716	1193.488	891.306
197.388	13.796	1192.809	891.150
198.402	13.937	1192.022	891.239
199.417	13.874	1191.642	890.539
200.432	13.983	1190.126	889.908
201.446	13.998	1189.649	889.553
202.461	13.984	1188.570	888.596
203.475	14.070	1187.835	888.428
204.490	14.008	1186.327	886.888
205.504	14.031	1184.958	885.909
206.519	13.946	1184.113	884.745
207.534	14.044	1183.051	884.396
208.548	14.011	1182.230	883.528
209.563	13.995	1181.511	882.829
210.577	14.003	1180.452	882.002
211.592	14.022	1179.368	881.216
212.607	14.160	1178.630	881.314
213.621	14.137	1177.567	880.322
214.636	14.086	1176.714	879.336
215.650	14.107	1176.023	878.855
216.665	14.271	1174.419	878.441
217.680	14.136	1174.222	877.504
218.694	14.186	1173.711	877.311
219.709	14.271	1172.791	876.991
220.723	14.296	1171.457	876.045
221.738	14.312	1170.780	875.550
222.753	14.260	1170.499	874.987
223.767	14.343	1169.623	874.688
224.782	14.359	1169.155	874.346
225.796	14.330	1168.687	873.766
226.811	14.460	1167.877	873.765
227.826	14.443	1166.903	872.873
228.840	14.342	1166.290	871.806
229.855	14.392	1165.665	871.524
230.869	14.395	1164.799	870.815
231.884	14.359	1163.772	869.782
232.899	14.302	1163.687	869.341
233.913	14.371	1162.534	868.766
234.928	14.284	1162.055	867.879
235.942	14.437	1160.756	867.625
236.957	14.332	1160.218	866.599
237.972	14.356	1159.633	866.213
238.986	14.327	1158.704	865.290
240.001	14.332	1158.224	864.885
241.015	14.439	1157.154	864.564
242.030	14.463	1156.523	864.138
243.045	14.339	1155.724	862.821
244.059	14.391	1155.049	862.511
245.074	14.450	1154.001	861.960
246.088	14.486	1153.438	861.646
247.103	14.550	1152.491	861.195
248.117	14.539	1152.104	860.772
249.132	14.647	1151.182	860.561
250.147	14.706	1150.524	860.299
251.161	14.698	1149.967	859.765
252.176	14.687	1149.442	859.243
253.190	14.794	1148.312	858.867
254.205	14.982	1147.719	859.316
255.220	14.917	1147.345	858.627
256.234	14.761	1147.146	857.602
257.249	14.883	1145.915	857.228
258.263	14.807	1145.577	856.513
259.278	14.908	1144.787	856.360
260.293	14.976	1144.101	856.120
261.307	14.996	1143.255	855.513
262.322	14.931	1143.122	855.009
263.336	15.005	1142.391	854.763
264.351	15.048	1141.941	854.569
265.366	15.087	1140.801	853.842
266.380	15.055	1140.514	853.385
267.395	15.098	1139.535	852.797
268.409	15.043	1138.745	851.850
269.424	14.932	1138.617	851.113
270.439	14.972	1138.222	850.949
271.453	15.027	1137.022	850.254
272.468	15.036	1136.164	849.583
273.482	15.021	1135.576	848.995
274.497	15.031	1135.057	848.581
275.512	15.161	1134.145	848.482
276.526	15.041	1133.425	847.262
277.541	15.076	1132.619	846.759
278.555	15.207	1131.784	846.726
279.570	15.169	1131.219	846.033
280.585	15.178	1130.366	845.365
281.599	15.241	1129.537	844.991
282.614	15.211	1128.513	843.996
283.628	15.119	1127.491	842.695
284.643	15.181	1126.872	842.471
285.657	15.287	1125.733	842.075
286.672	15.345	1124.552	841.409
287.687	15.213	1123.911	840.193
288.701	15.332	1123.007	840.042
289.716	15.295	1122.717	839.564
290.730	15.284	1122.387	839.185
291.745	15.320	1121.210	838.414
292.760	15.411	1120.254	838.076
293.774	15.396	1119.536	837.392
294.789	15.426	1119.763	837.638
295.803	15.412	1118.679	836.685
296.818	15.419	1118.028	836.157
297.833	15.398	1117.229	835.381
298.847	15.439	1116.494	834.964
299.862	15.429	1115.907	834.397
300.876	15.408	1115.461	833.889
301.891	15.622	1114.196	833.930
302.906	15.528	1113.936	833.195
303.920	15.551	1112.933	832.484
304.935	15.629	1112.521	832.488
305.949	15.636	1111.545	831.720
306.964	15.688	1110.980	831.482
307.979	15.597	1110.650	830.712
308.993	15.710	1109.732	830.508
310.008	15.645	1108.846	829.451
311.022	15.687	1108.091	829.021
312.037	15.750	1107.006	828.447
313.052	15.759	1106.227	827.834
314.066	15.638	1105.365	826.518
315.081	15.570	1104.818	825.704
316.095	15.618	1103.544	824.915
317.110	15.609	1103.277	824.598
318.125	15.671	1102.433	824.199
319.139	15.667	1102.123	823.872
320.154	15.686	1101.139	823.159
321.168	15.692	1100.261	822.459
322.183	15.630	1099.863	821.786
323.197	15.743	1099.044	821.653
324.212	15.714	1098.640	821.137
325.227	15.791	1097.698	820.734
326.241	15.814	1097.301	820.477
327.256	15.727	1096.523	819.401
328.270	15.812	1095.924	819.292
329.285	15.820	1094.366	818.095
330.300	15.850	1093.880	817.806
331.314	15.802	1092.931	816.789
332.329	15.765	1092.405	816.145
333.343	15.766	1091.280	815.235
334.358	15.854	1090.425	814.950
335.373	15.855	1090.256	814.756
336.387	15.797	1089.114	813.551
337.402	15.909	1088.365	813.461
338.416	15.954	1087.400	812.886
339.431	16.083	1086.774	812.967
340.446	16.134	1085.688	812.330
341.460	15.922	1085.739	811.274
342.475	16.063	1084.569	811.008
343.489	16.061	1083.833	810.377
344.504	16.102	1082.766	809.705
345.519	16.004	1082.492	808.958
346.533	16.238	1081.513	809.276
347.548	16.187	1080.984	808.562
348.562	16.289	1079.872	808.148
349.577	16.190	1079.335	807.200
350.592	16.112	1078.766	806.333
351.606	16.260	1077.437	805.972
352.621	16.237	1076.767	805.291
353.635	16.202	1076.519	804.865
354.650	16.043	1075.942	803.606
355.665	16.132	1075.047	803.292
356.679	16.274	1073.754	802.929
357.694	16.201	1073.825	802.564
358.708	16.317	1073.097	802.501
359.723	16.434	1072.391	802.456
360.738	16.453	1071.684	801.949
361.752	16.268	1071.339	800.741
362.767	16.387	1071.054	801.022
363.781	16.426	1069.980	800.332
364.796	16.373	1069.377	799.560
365.810	16.373	1069.298	799.426
366.825	16.528	1068.278	799.329
367.840	16.451	1067.802	798.536
368.854	16.531	1067.557	798.663
369.869	16.475	1066.708	797.692
370.883	16.566	1065.494	797.143
371.898	16.514	1064.900	796.381
372.913	16.543	1064.392	796.066
373.927	16.534	1064.081	795.722
374.942	16.550	1063.549	795.328
375.956	16.682	1062.933	795.418
376.971	16.597	1062.286	794.463
377.986	16.615	1061.987	794.255
379.000	16.612	1061.291	793.649
380.015	16.740	1060.616	793.676
381.029	16.902	1059.635	793.628
382.044	16.839	1058.914	792.725
383.059	16.857	1058.371	792.333
384.073	16.844	1057.546	791.585
385.088	16.873	1056.569	790.919
386.102	16.782	1055.798	789.847
387.117	16.714	1055.430	789.186
388.132	16.764	1054.331	788.526
389.146	16.738	1053.530	787.735
390.161	16.794	1052.640	787.259
391.175	16.777	1051.875	786.539
392.190	16.851	1051.441	786.490
393.205	16.971	1050.441	786.230
394.219	16.899	1049.912	785.429
395.234	16.839	1048.996	784.399
396.248	16.885	1048.137	783.899
397.263	16.912	1046.996	783.101
398.278	16.839	1046.454	782.286
399.292	16.827	1045.857	781.715
400.307	16.752	1045.065	780.712
401.321	16.995	1043.835	780.840
402.336	16.852	1043.613	779.950
403.350	16.855	1042.867	779.335
404.365	16.916	1042.413	779.209
405.380	16.924	1041.588	778.559
406.394	16.922	1041.000	778.041
407.409	17.059	1040.282	778.065
408.423	17.088	1039.529	777.563
409.438	17.113	1038.475	776.821
410.453	17.153	1038.028	776.600
411.467	17.159	1037.498	776.165
412.482	17.197	1036.874	775.801
413.496	17.143	1036.144	774.942
414.511	17.184	1035.553	774.615
415.526	17.350	1035.485	775.255
416.540	17.278	1034.619	774.207
417.555	17.257	1034.203	773.732
418.569	17.224	1033.841	773.243
419.584	17.506	1033.033	773.851
420.599	17.426	1032.204	772.802
421.613	106.080	1324.621	1478.201
422.628	97.169	1367.194	1478.289
