DTS Sentinel unit serial number:	SN413079Multiplexer serial number:	ORYXHardware model number:	OX4-SRSoftware version number:	ORYX F/W v4.00 Oryx Data Collector v3.7.2.0data status	okinstallation	princeton_trtdifferential loss correction	single-endedforward channel	channel 2reverse channel	N/Adate	2019/09/19time	02:07:35forward acquisition time	60.00reverse acquisition time	0.00gamma	496.2192k internal	0.2353k external	0.2353temperature offset calibration	1.0020default loss term (dB/km)	0.3790temperature slope calibration	1.0000multiplexer offset coefficient	1.0000multiplexer slope coefficient	1.0000fibre end	0.00T internal ref (°C)	21.19T ext. ref 1 (°C)	0.69T ext. ref 2 (°C)	14.85length (m)	temperature (°C)	Stokes	anti-Stokes-747.200	117.625	0.080	0.098
-746.185	11.669	-0.231	-0.177
-745.171	800.000	0.058	0.194
-744.156	-0.146	-0.067	-0.048
-743.142	62.498	0.105	0.104
-742.127	551.558	-0.051	0.121
-741.112	-200.000	0.032	0.335
-740.098	49.847	0.173	0.162
-739.083	-200.000	-0.009	0.235
-738.069	2.338	-0.340	0.245
-737.054	329.203	0.141	0.271
-736.039	255.121	0.159	-0.271
-735.025	-200.000	0.043	0.288
-734.010	-64.822	-0.191	-0.077
-732.996	321.028	-0.105	-0.199
-731.981	-200.000	-0.040	-0.205
-730.966	72.883	-0.050	-0.052
-729.952	-36.552	-0.425	-0.228
-728.937	597.483	-0.018	0.044
-727.923	153.837	-0.201	-0.275
-726.908	800.000	-0.022	-0.062
-725.894	-19.498	0.115	0.071
-724.879	-200.000	0.004	-0.296
-723.864	329.871	0.011	-0.021
-722.850	-200.000	-0.015	-0.183
-721.835	76.456	-0.259	0.274
-720.821	137.773	-0.143	0.186
-719.806	698.310	0.023	0.061
-718.791	-74.807	-0.175	-0.063
-717.777	-200.000	0.008	0.117
-716.762	800.000	0.056	0.176
-715.748	-106.062	0.171	-0.038
-714.733	-84.199	0.184	-0.058
-713.718	-200.000	0.006	-0.193
-712.704	-200.000	-0.003	0.087
-711.689	-200.000	0.009	0.109
-710.675	99.953	-0.180	-0.207
-709.660	-200.000	0.006	-0.262
-708.645	-45.243	0.294	0.145
-707.631	662.162	0.034	-0.087
-706.616	225.547	-0.218	-0.351
-705.602	749.261	0.095	0.255
-704.587	-47.380	0.206	-0.100
-703.572	-184.886	-0.324	-0.005
-702.558	81.014	0.239	0.257
-701.543	800.000	0.135	-0.376
-700.529	800.000	0.101	0.342
-699.514	-200.000	-0.004	0.143
-698.499	-32.096	-0.271	0.151
-697.485	-120.054	-0.284	0.048
-696.470	-200.000	0.039	-0.322
-695.456	-200.000	-0.001	0.110
-694.441	758.565	0.042	0.112
-693.426	-96.531	0.356	0.093
-692.412	102.988	0.144	-0.168
-691.397	8.578	-0.141	0.106
-690.383	-38.371	-0.123	-0.065
-689.368	-136.299	-0.013	-0.002
-688.354	30.153	-0.163	-0.139
-687.339	-58.270	-0.126	-0.055
-686.324	172.294	-0.185	-0.264
-685.310	40.116	-0.159	-0.142
-684.295	149.089	-0.079	0.106
-683.281	186.415	0.085	0.125
-682.266	149.313	0.248	-0.334
-681.251	13.064	0.230	-0.177
-680.237	42.112	0.277	-0.250
-679.222	637.554	0.033	-0.084
-678.208	-74.842	0.280	0.100
-677.193	-133.935	-0.402	0.050
-676.178	292.016	0.056	0.102
-675.164	-127.554	0.189	-0.027
-674.149	-200.000	-0.006	0.282
-673.135	-110.478	-0.047	-0.010
-672.120	482.850	-0.083	0.187
-671.105	-136.171	-0.162	-0.019
-670.091	156.186	-0.123	0.169
-669.076	223.180	0.084	0.135
-668.062	-133.473	-0.049	0.006
-667.047	800.000	-0.044	-0.122
-666.032	-117.165	0.076	-0.014
-665.018	-111.963	0.185	0.037
-664.003	-200.000	-0.013	0.189
-662.989	-200.000	0.017	0.370
-661.974	172.743	0.037	0.053
-660.959	169.885	0.175	0.249
-659.945	-50.153	-0.074	-0.035
-658.930	68.522	-0.316	-0.322
-657.916	615.692	-0.173	0.431
-656.901	113.189	-0.130	-0.157
-655.886	-200.000	-0.059	-0.390
-654.872	-24.619	-0.271	0.160
-653.857	294.681	0.200	-0.364
-652.843	-200.000	-0.002	-0.309
-651.828	800.000	-0.063	-0.234
-650.814	124.731	0.192	-0.240
-649.799	278.421	0.148	-0.262
-648.784	50.213	0.130	0.122
-647.770	-78.191	-0.130	0.044
-646.755	20.826	0.351	0.282
-645.741	125.571	-0.195	-0.245
-644.726	684.418	-0.096	-0.249
-643.711	-12.633	-0.118	-0.076
-642.697	47.054	-0.051	0.047
-641.682	800.000	-0.064	-0.186
-640.668	800.000	0.088	-0.299
-639.653	-200.000	-0.054	-0.237
-638.638	-65.521	-0.354	0.141
-637.624	-15.506	0.134	-0.085
-636.609	-92.760	-0.225	-0.063
-635.595	800.000	0.118	-0.365
-634.580	7.469	0.097	0.072
-633.565	-200.000	0.001	-0.125
-632.551	-146.970	0.197	0.017
-631.536	-85.233	0.300	0.093
-630.522	-68.001	-0.077	0.030
-629.507	686.061	-0.058	-0.151
-628.492	-46.896	-0.018	-0.009
-627.478	309.669	-0.091	-0.170
-626.463	68.247	0.117	-0.119
-625.449	64.899	-0.076	0.076
-624.434	-126.444	-0.466	-0.069
-623.419	729.646	-0.083	-0.219
-622.405	184.338	-0.049	-0.072
-621.390	315.954	0.105	-0.197
-620.376	-0.376	0.153	-0.108
-619.361	-113.915	-0.176	0.034
-618.346	800.000	0.035	0.116
-617.332	60.475	-0.092	0.091
-616.317	-134.720	-0.242	0.029
-615.303	582.842	-0.096	-0.233
-614.288	-40.665	0.194	0.100
-613.273	294.416	0.049	0.089
-612.259	-64.922	-0.063	-0.025
-611.244	-33.548	0.168	0.092
-610.230	1.697	-0.230	-0.165
-609.215	-100.859	0.133	-0.032
-608.201	-2.463	-0.131	-0.091
-607.186	-137.699	0.406	-0.045
-606.171	-200.000	0.030	0.207
-605.157	-54.545	-0.245	-0.110
-604.142	-83.273	-0.317	0.101
-603.128	-200.000	-0.081	0.430
-602.113	-3.832	-0.064	-0.044
-601.098	14.673	-0.202	0.156
-600.084	136.022	-0.011	0.014
-599.069	-175.356	0.195	-0.005
-598.055	-141.694	-0.426	-0.042
-597.040	-61.573	-0.125	0.052
-596.025	-11.389	0.134	0.087
-595.011	-28.233	-0.553	0.316
-593.996	-32.256	0.486	-0.269
-592.982	68.197	-0.079	0.080
-591.967	-30.132	0.172	-0.097
-590.952	-78.466	-0.058	-0.020
-589.938	166.806	0.176	-0.247
-588.923	97.312	-0.212	0.241
-587.909	188.571	-0.085	-0.126
-586.894	-200.000	-0.023	-0.191
-585.879	100.242	-0.139	0.160
-584.865	800.000	-0.067	-0.293
-583.850	85.891	0.176	-0.192
-582.836	25.342	0.055	-0.045
-581.821	-17.147	-0.315	0.197
-580.806	-61.662	-0.287	0.119
-579.792	519.371	-0.078	-0.180
-578.777	-136.305	-0.162	0.019
-577.763	800.000	-0.042	-0.135
-576.748	-84.477	0.110	-0.034
-575.733	317.883	0.124	-0.233
-574.719	519.865	0.121	-0.282
-573.704	226.275	-0.118	0.190
-572.690	-200.000	-0.041	0.206
-571.675	166.805	0.294	0.413
-570.661	57.683	0.055	0.053
-569.646	20.443	-0.186	-0.149
-568.631	16.509	0.195	-0.153
-567.617	253.536	-0.192	-0.325
-566.602	24.824	0.275	-0.225
-565.588	800.000	0.021	0.060
-564.573	-79.660	-0.224	0.075
-563.558	-63.202	-0.149	-0.061
-562.544	-10.537	0.051	-0.034
-561.529	-200.000	0.026	-0.149
-560.515	196.743	-0.159	-0.240
-559.500	19.660	0.033	-0.027
-558.485	-62.846	-0.063	0.026
-557.471	118.286	0.104	-0.127
-556.456	-55.994	-0.538	-0.238
-555.442	80.250	0.062	-0.066
-554.427	133.384	-0.195	0.250
-553.412	-144.236	0.083	0.008
-552.398	64.829	-0.046	-0.046
-551.383	128.264	-0.174	-0.219
-550.369	357.984	0.076	0.150
-549.354	524.049	-0.063	-0.146
-548.339	-58.532	-0.392	-0.168
-547.325	145.063	-0.087	-0.116
-546.310	-66.631	0.397	-0.156
-545.296	-110.854	-0.242	-0.049
-544.281	-49.125	-0.154	0.073
-543.266	800.000	-0.058	0.187
-542.252	-83.321	-0.170	0.054
-541.237	172.799	-0.154	-0.219
-540.223	-200.000	-0.024	0.105
-539.208	-200.000	0.037	-0.185
-538.193	12.410	-0.124	-0.094
-537.179	-71.060	-0.066	-0.025
-536.164	249.137	0.117	-0.196
-535.150	99.057	0.072	-0.082
-534.135	10.423	0.206	-0.155
-533.121	367.437	0.113	-0.226
-532.106	74.102	0.222	-0.230
-531.091	-33.426	-0.227	-0.124
-530.077	-60.696	0.303	-0.127
-529.062	71.152	-0.181	-0.185
-528.048	-200.000	0.012	-0.053
-527.033	-200.000	-0.003	0.144
-526.018	-147.262	0.041	0.003
-525.004	-200.000	-0.013	0.097
-523.989	91.365	-0.228	-0.253
-522.975	-86.232	0.528	0.161
-521.960	-200.000	0.043	0.288
-520.945	-3.666	-0.069	-0.047
-519.931	800.000	-0.065	-0.200
-518.916	226.926	-0.074	0.118
-517.902	-200.000	0.031	-0.191
-516.887	-54.447	0.186	0.083
-515.872	762.970	0.079	-0.212
-514.858	-110.396	0.207	0.042
-513.843	-47.799	0.251	0.120
-512.829	-129.540	-0.578	-0.079
-511.814	-67.426	-0.232	-0.090
-510.799	51.588	0.078	0.073
-509.785	800.000	0.068	0.237
-508.770	81.658	-0.197	0.211
-507.756	72.697	0.130	0.135
-506.741	800.000	-0.016	0.060
-505.726	-49.815	-0.224	0.105
-504.712	-98.587	0.013	-0.003
-503.697	60.271	-0.162	0.159
-502.683	20.759	-0.129	-0.103
-501.668	341.635	-0.098	-0.188
-500.653	14.769	0.118	0.091
-499.639	-106.956	-0.128	0.028
-498.624	674.868	-0.030	-0.076
-497.610	800.000	0.088	0.273
-496.595	800.000	0.092	0.363
-495.581	-76.450	-0.197	-0.068
-494.566	-99.265	-0.044	0.011
-493.551	141.705	0.190	-0.248
-492.537	-120.929	-0.574	0.095
-491.522	-21.820	0.140	0.084
-490.508	-101.853	0.183	0.044
-489.493	-200.000	-0.027	0.244
-488.478	201.797	-0.116	0.176
-487.464	-6.544	-0.238	0.160
-486.449	680.831	0.161	-0.413
-485.435	-134.766	-0.157	0.019
-484.420	59.362	0.199	0.193
-483.405	346.322	-0.062	-0.120
-482.391	72.295	0.299	-0.308
-481.376	603.734	-0.067	-0.165
-480.362	-53.696	-0.222	-0.100
-479.347	55.239	-0.055	0.052
-478.332	145.580	-0.093	0.123
-477.318	800.000	0.036	0.121
-476.303	-200.000	-0.039	-0.221
-475.289	31.168	-0.148	0.125
-474.274	-71.749	-0.184	-0.068
-473.259	-44.948	0.262	-0.129
-472.245	-13.714	0.218	0.139
-471.230	95.601	0.258	0.290
-470.216	-148.985	-0.298	-0.024
-469.201	-7.732	0.360	0.240
-468.186	601.737	0.054	0.134
-467.172	800.000	0.053	-0.155
-466.157	213.946	-0.147	-0.229
-465.143	-119.999	-0.130	-0.022
-464.128	-108.215	-0.148	0.032
-463.113	-114.747	-0.321	-0.060
-462.099	374.955	-0.125	0.252
-461.084	770.222	-0.004	-0.010
-460.070	41.378	-0.058	-0.052
-459.055	-200.000	0.011	-0.078
-458.040	194.585	0.204	0.305
-457.026	157.212	0.052	0.071
-456.011	201.616	-0.248	-0.376
-454.997	159.129	-0.048	0.065
-453.982	229.125	-0.125	0.201
-452.968	149.898	-0.084	-0.112
-451.953	-200.000	-0.000	0.177
-450.938	226.602	-0.332	0.531
-449.924	-13.683	0.427	-0.272
-448.909	-113.500	-0.271	0.052
-447.895	-62.571	0.262	0.107
-446.880	714.003	0.072	0.189
-445.865	-2.770	0.094	-0.065
-444.851	15.639	0.220	-0.171
-443.836	596.015	-0.120	-0.293
-442.822	192.203	0.011	-0.017
-441.807	-123.210	0.184	-0.029
-440.792	-200.000	-0.072	0.388
-439.778	-74.574	-0.299	0.106
-438.763	-83.370	0.520	-0.164
-437.749	250.818	-0.143	0.240
-436.734	-38.498	-0.146	0.076
-435.719	-94.210	-0.048	0.013
-434.705	800.000	-0.080	0.324
-433.690	103.525	-0.270	0.313
-432.676	-89.832	0.140	-0.040
-431.661	213.405	-0.065	-0.102
-430.646	-10.033	0.072	-0.047
-429.632	-200.000	0.002	-0.142
-428.617	-200.000	-0.034	0.275
-427.603	-17.594	0.206	-0.127
-426.588	33.345	-0.141	-0.121
-425.573	27.165	0.250	0.207
-424.559	-145.958	-0.175	0.015
-423.544	71.141	0.142	-0.145
-422.530	-76.846	0.264	-0.091
-421.515	63.232	0.247	-0.244
-420.500	-6.850	0.052	0.035
-419.486	229.369	0.165	0.265
-418.471	-28.508	0.212	-0.120
-417.457	348.359	0.216	-0.419
-416.442	-137.666	-0.350	0.039
-415.428	-200.000	0.030	0.267
-414.413	2.833	-0.120	0.086
-413.398	565.695	0.085	-0.202
-412.384	-200.000	0.044	-0.220
-411.369	-200.000	-0.049	-0.337
-410.355	151.593	0.065	-0.087
-409.340	-100.164	0.471	-0.115
-408.325	-200.000	0.074	-0.401
-407.311	-80.250	0.277	0.091
-406.296	-200.000	0.006	-0.239
-405.282	-145.192	0.357	-0.032
-404.267	-200.000	0.007	0.085
-403.252	-200.000	0.497	0.001
-402.238	334.459	-0.088	0.167
-401.223	33.036	-0.252	0.215
-400.209	80.665	-0.146	-0.155
-399.194	-200.000	0.028	-0.184
-398.179	249.954	0.125	-0.209
-397.165	-92.047	-0.078	0.022
-396.150	-103.762	-0.256	-0.059
-395.136	50.200	-0.270	0.251
-394.121	241.193	0.169	-0.278
-393.106	3.343	0.100	-0.071
-392.092	-28.086	-0.229	0.131
-391.077	166.561	0.207	-0.289
-390.063	800.000	0.029	-0.082
-389.048	-31.632	-0.250	0.138
-388.033	-121.185	-0.050	-0.008
-387.019	67.108	-0.052	0.052
-386.004	-200.000	-0.011	0.281
-384.990	800.000	-0.074	-0.285
-383.975	800.000	0.061	0.205
-382.960	-91.596	0.118	0.033
-381.946	92.941	-0.228	0.253
-380.931	-138.607	-0.096	0.010
-379.917	-130.008	0.437	0.059
-378.902	-99.057	0.259	0.065
-377.888	169.843	-0.162	-0.227
-376.873	-25.258	-0.249	-0.145
-375.858	125.367	0.087	0.108
-374.844	514.494	0.108	0.249
-373.829	-200.000	0.009	-0.385
-372.815	-200.000	0.031	-0.387
-371.800	-200.000	-0.004	0.023
-370.785	13.221	-0.388	-0.296
-369.771	11.996	0.260	0.196
-368.756	-200.000	-0.028	0.141
-367.742	-200.000	-0.047	-0.400
-366.727	-200.000	-0.006	0.087
-365.712	97.097	0.169	-0.191
-364.698	-200.000	-0.041	0.299
-363.683	-200.000	-0.046	0.251
-362.669	-140.171	0.206	0.021
-361.654	800.000	0.052	-0.160
-360.639	243.156	-0.041	0.068
-359.625	19.704	0.081	0.064
-358.610	-200.000	-0.024	0.337
-357.596	-115.237	-0.199	-0.037
-356.581	-200.000	-0.019	-0.220
-355.566	3.921	0.306	-0.220
-354.552	-66.962	0.181	0.070
-353.537	110.322	-0.182	0.214
-352.523	-200.000	0.094	0.529
-351.508	545.102	-0.121	0.284
-350.493	-200.000	0.042	-0.188
-349.479	74.218	0.254	0.262
-348.464	-45.263	0.318	0.155
-347.450	800.000	-0.034	0.097
-346.435	800.000	-0.124	-0.340
-345.420	462.989	-0.136	-0.298
-344.406	4.820	0.198	-0.143
-343.391	-111.118	-0.222	-0.045
-342.377	-200.000	-0.028	-0.269
-341.362	173.260	-0.117	-0.166
-340.348	13.849	0.344	0.262
-339.333	440.222	-0.072	-0.155
-338.318	-117.515	-0.218	0.039
-337.304	-200.000	-0.044	-0.224
-336.289	800.000	0.054	0.181
-335.275	-94.367	-0.240	-0.064
-334.260	-101.789	0.123	-0.029
-333.245	-1.731	0.187	0.129
-332.231	198.412	-0.068	-0.103
-331.216	-95.191	-0.194	0.051
-330.202	-73.095	0.158	0.057
-329.187	-73.656	-0.167	-0.060
-328.172	-38.566	-0.146	0.076
-327.158	-200.000	0.031	-0.179
-326.143	21.607	0.120	-0.096
-325.129	14.607	-0.049	0.037
-324.114	-32.796	0.093	0.050
-323.099	0.195	-0.198	-0.139
-322.085	277.872	-0.236	0.412
-321.070	-200.000	0.084	0.383
-320.056	-159.697	0.100	-0.005
-319.041	-200.000	0.014	-0.110
-318.026	-45.917	-0.497	-0.240
-317.012	-200.000	-0.011	0.181
-315.997	800.000	0.057	-0.222
-314.983	270.110	-0.120	-0.208
-313.968	-176.315	0.044	-0.001
-312.953	203.641	0.186	0.283
-311.939	-116.470	0.449	-0.081
-310.924	-18.905	-0.151	0.092
-309.910	-143.719	0.168	0.016
-308.895	26.851	0.091	0.075
-307.880	337.627	0.076	-0.145
-306.866	800.000	0.085	0.244
-305.851	800.000	-0.059	0.234
-304.837	-39.022	0.321	0.166
-303.822	800.000	-0.058	-0.160
-302.807	-189.289	0.228	-0.003
-301.793	37.812	0.314	0.274
-300.778	13.797	0.324	-0.247
-299.764	21.097	-0.218	0.173
-298.749	-23.741	-0.286	-0.168
-297.735	409.799	0.050	0.104
-296.720	-200.000	-0.284	0.000
-295.705	-175.382	0.058	-0.002
-294.691	130.144	-0.155	0.194
-293.676	36.060	0.137	0.118
-292.662	-150.743	-0.169	-0.013
-291.647	-40.127	-0.217	-0.111
-290.632	-132.338	-0.197	0.025
-289.618	-15.696	-0.270	-0.169
-288.603	-136.003	-0.161	0.019
-287.589	289.533	-0.076	-0.136
-286.574	81.945	0.103	0.109
-285.559	340.057	-0.221	0.422
-284.545	165.401	0.072	-0.099
-283.530	615.012	0.109	0.267
-282.516	-67.461	-0.096	-0.037
-281.501	-36.857	0.057	0.030
-280.486	-95.766	0.151	-0.040
-279.472	-120.195	0.056	0.009
-278.457	-12.082	-0.080	-0.051
-277.443	-107.485	-0.274	-0.059
-276.428	-112.093	0.057	0.011
-275.413	35.597	0.170	0.146
-274.399	800.000	-0.086	0.312
-273.384	86.493	0.226	-0.244
-272.370	83.963	0.304	0.325
-271.355	-200.000	-0.039	0.364
-270.340	125.916	0.049	-0.060
-269.326	92.635	-0.126	-0.139
-268.311	-55.339	0.262	-0.115
-267.297	-19.057	-0.391	-0.238
-266.282	-26.133	0.215	-0.124
-265.267	469.615	-0.015	-0.033
-264.253	-108.983	0.188	0.039
-263.238	-121.815	0.065	0.010
-262.224	-14.404	0.251	-0.158
-261.209	150.322	0.198	0.263
-260.195	-200.000	0.004	0.051
-259.180	800.000	-0.074	0.300
-258.165	800.000	0.066	0.225
-257.151	98.012	-0.042	-0.048
-256.136	-12.172	0.444	0.284
-255.122	97.389	-0.204	0.229
-254.107	11.663	0.180	0.135
-253.092	54.395	0.110	0.104
-252.078	98.213	0.271	0.305
-251.063	391.294	-0.120	0.244
-250.049	-158.419	0.055	0.003
-249.034	-116.179	0.148	0.027
-248.019	-200.000	-0.065	-0.321
-247.005	-60.566	-0.208	-0.086
-245.990	-200.000	0.010	-0.045
-244.976	640.996	0.109	0.271
-243.961	-110.219	0.366	0.075
-242.946	-30.730	-0.266	0.147
-241.932	-32.187	0.172	-0.094
-240.917	-200.000	0.047	-0.225
-239.903	-200.000	0.058	-0.318
-238.888	-111.064	0.223	-0.045
-237.873	-72.012	-0.362	0.132
-236.859	-200.000	-0.035	-0.207
-235.844	684.520	-0.104	0.265
-234.830	274.226	-0.213	-0.369
-233.815	146.299	-0.187	-0.245
-232.800	-1.626	0.159	0.109
-231.786	800.000	0.082	0.285
-230.771	163.884	0.214	-0.294
-229.757	-71.054	0.227	-0.084
-228.742	-179.923	-0.209	0.004
-227.727	45.386	-0.065	-0.059
-226.713	249.173	0.162	0.268
-225.698	12.262	-0.093	0.070
-224.684	-104.131	-0.236	-0.054
-223.669	-200.000	0.006	-0.086
-222.655	356.083	0.052	0.102
-221.640	-88.916	-0.039	0.011
-220.625	-200.000	-0.013	0.154
-219.611	-15.249	0.198	0.124
-218.596	-22.948	0.029	0.017
-217.582	800.000	0.085	0.321
-216.567	-118.865	0.424	0.073
-215.552	-36.137	-0.052	0.027
-214.538	-76.486	-0.269	-0.092
-213.523	800.000	-0.115	0.373
-212.509	-200.000	0.073	-0.379
-211.494	-1.824	0.254	0.175
-210.479	-129.876	-0.308	0.041
-209.465	127.189	0.175	0.217
-208.450	800.000	0.024	-0.075
-207.436	61.020	-0.103	-0.099
-206.421	-200.000	-0.049	0.395
-205.406	800.000	-0.063	0.181
-204.392	800.000	0.032	0.119
-203.377	-6.520	0.178	0.118
-202.363	-88.488	-0.279	-0.081
-201.348	54.268	-0.099	-0.093
-200.333	21.909	0.132	-0.105
-199.319	800.000	-0.061	0.179
-198.304	-188.056	-0.053	0.001
-197.290	41.523	0.104	0.092
-196.275	133.271	-0.076	0.096
-195.260	-200.000	-0.039	0.386
-194.246	-135.947	-0.141	0.016
-193.231	-13.907	-0.282	-0.178
-192.217	49.189	0.102	-0.093
-191.202	-200.000	0.004	-0.451
-190.187	-200.000	-0.001	0.177
-189.173	-10.944	-0.334	-0.215
-188.158	-200.000	-0.030	-0.144
-187.144	-101.726	0.482	-0.114
-186.129	140.773	-0.076	0.098
-185.114	218.360	-0.095	0.148
-184.100	-58.779	0.411	0.173
-183.085	-44.158	0.278	-0.136
-182.071	-175.573	-0.227	0.006
-181.056	-200.000	-0.010	0.049
-180.042	160.356	0.158	-0.216
-179.027	447.892	-0.025	0.054
-178.012	356.638	-0.192	0.373
-176.998	297.253	0.078	0.139
-175.983	-122.214	-0.292	0.047
-174.969	-77.062	0.076	-0.026
-173.954	182.382	0.118	-0.169
-172.939	800.000	-0.031	0.089
-171.925	-59.080	0.228	-0.096
-170.910	800.000	0.080	0.215
-169.896	-88.795	-0.174	-0.050
-168.881	159.391	-0.247	-0.336
-167.866	98.264	0.221	0.248
-166.852	-200.000	-0.077	0.383
-165.837	436.295	0.075	-0.159
-164.823	47.627	0.065	0.059
-163.808	-23.664	-0.185	0.108
-162.793	-52.624	0.088	0.040
-161.779	45.387	0.143	0.128
-160.764	-191.290	0.048	0.000
-159.750	-200.000	0.020	0.272
-158.735	144.945	0.144	0.188
-157.720	304.226	-0.116	0.209
-156.706	-143.714	0.110	-0.010
-155.691	4.538	0.241	-0.172
-154.677	-200.000	0.023	-0.180
-153.662	-55.152	0.359	-0.157
-152.647	-200.000	-0.020	-0.508
-151.633	-4.564	0.054	-0.037
-150.618	37.818	-0.062	0.053
-149.604	-173.988	-0.153	-0.004
-148.589	-200.000	-0.031	0.164
-147.574	398.426	0.037	0.076
-146.560	625.011	0.051	0.126
-145.545	-200.000	-0.011	0.102
-144.531	91.652	0.106	0.117
-143.516	168.508	-0.156	0.217
-142.502	-200.000	0.074	-0.366
-141.487	-56.042	-0.125	0.054
-140.472	-135.596	0.189	0.022
-139.458	233.433	-0.069	-0.110
-138.443	207.972	-0.070	-0.107
-137.429	73.370	0.133	0.136
-136.414	-164.214	-0.391	0.018
-135.399	800.000	0.081	0.229
-134.385	198.405	0.078	-0.116
-133.370	-200.000	0.023	-0.259
-132.356	95.064	-0.103	-0.115
-131.341	-51.750	0.224	0.102
-130.326	182.866	0.040	0.058
-129.312	-200.000	-0.029	-0.186
-128.297	273.578	-0.038	-0.065
-127.283	-65.417	0.048	-0.019
-126.268	2.801	-0.180	0.127
-125.253	-9.002	-0.125	-0.081
-124.239	-140.221	0.207	0.021
-123.224	-10.324	0.066	0.043
-122.210	-200.000	0.043	0.284
-121.195	188.908	-0.134	0.196
-120.180	-53.108	-0.311	-0.139
-119.166	-200.000	0.029	0.123
-118.151	-28.310	-0.222	-0.125
-117.137	34.970	0.085	-0.072
-116.122	-53.125	0.327	0.146
-115.107	-16.603	0.102	-0.063
-114.093	800.000	0.073	0.236
-113.078	-200.000	0.024	-0.203
-112.064	-88.547	0.175	0.051
-111.049	242.160	0.069	0.113
-110.034	179.417	-0.161	0.229
-109.020	-111.463	-0.172	0.034
-108.005	211.021	-0.144	0.220
-106.991	-89.431	-0.365	-0.104
-105.976	177.963	-0.144	-0.204
-104.962	-131.972	-0.136	0.017
-103.947	30.240	-0.044	0.036
-102.932	0.630	-0.470	-0.327
-101.918	-94.056	-0.172	-0.046
-100.903	-172.379	-0.410	-0.013
-99.889	5.846	-0.076	0.055
-98.874	477.237	-0.063	-0.139
-97.859	32.619	-0.324	0.272
-96.845	-50.442	0.290	0.133
-95.830	800.000	-0.051	-0.204
-94.816	-41.370	0.174	-0.087
-93.801	22.720	-0.135	0.107
-92.786	133.224	0.200	0.252
-91.772	-200.000	-0.028	0.304
-90.757	196.676	-0.269	-0.398
-89.743	800.000	-0.070	-0.196
-88.728	86.460	-0.126	-0.135
-87.713	-104.407	0.138	0.031
-86.699	-200.000	-0.031	-0.658
-85.684	-200.000	0.020	0.121
-84.670	-47.959	-0.086	-0.040
-83.655	120.113	0.015	0.018
-82.640	270.886	0.077	0.131
-81.626	-200.000	0.048	-0.333
-80.611	-13.969	-0.187	-0.117
-79.597	-74.554	0.249	-0.087
-78.582	-200.000	0.003	-0.328
-77.567	-41.921	0.188	0.094
-76.553	-200.000	-0.038	0.253
-75.538	800.000	0.082	0.272
-74.524	636.185	0.123	0.303
-73.509	0.144	-0.100	0.069
-72.494	368.331	0.045	-0.089
-71.480	185.493	0.284	0.410
-70.465	31.861	0.164	-0.137
-69.451	800.000	0.066	-0.265
-68.436	-78.366	0.153	-0.051
-67.422	800.000	-0.060	-0.238
-66.407	-200.000	0.021	0.289
-65.392	-94.823	-0.156	0.041
-64.378	-101.874	-0.228	-0.053
-63.363	-21.042	0.334	-0.198
-62.349	-44.911	0.011	0.005
-61.334	81.449	-1.180	-1.239
-60.319	30.381	0.968	0.803
-59.305	736.575	-0.524	-1.364
-58.290	281.818	0.835	1.452
-57.276	172.520	1.019	1.423
-56.261	-200.000	135.665	687.010
-55.246	339.486	1679.261	3177.358
-54.232	133.870	2814.683	3537.176
-53.217	83.005	2310.253	2439.230
-52.203	29.977	1908.668	1579.257
-51.188	24.130	1704.348	1365.464
-50.173	22.170	1667.029	1320.804
-49.159	44.158	1740.448	1549.193
-48.144	41.230	1749.259	1534.462
-47.130	23.789	1700.139	1359.271
-46.115	21.268	1684.844	1327.849
-45.100	21.190	1679.729	1323.173
-44.086	21.087	1677.206	1320.355
-43.071	20.997	1674.779	1317.717
-42.057	21.073	1672.414	1316.378
-41.042	21.051	1670.804	1314.887
-40.027	21.066	1668.917	1313.462
-39.013	21.075	1666.742	1311.769
-37.998	21.081	1665.456	1310.751
-36.984	21.016	1664.509	1309.464
-35.969	21.073	1663.196	1308.806
-34.954	21.222	1661.243	1308.336
-33.940	21.143	1658.898	1305.842
-32.925	21.086	1657.740	1304.457
-31.911	21.089	1656.318	1303.307
-30.896	21.159	1654.247	1302.150
-29.881	21.131	1653.557	1301.347
-28.867	21.120	1652.225	1300.163
-27.852	21.299	1649.863	1299.580
-26.838	21.155	1648.630	1297.491
-25.823	21.149	1647.432	1296.453
-24.809	21.189	1646.589	1296.035
-23.794	21.234	1644.777	1294.886
-22.779	21.279	1643.314	1294.021
-21.765	21.162	1641.485	1291.662
-20.750	21.276	1640.044	1291.323
-19.736	21.117	1638.750	1289.078
-18.721	21.259	1637.406	1289.013
-17.706	21.232	1635.977	1287.639
-16.692	21.168	1634.069	1285.619
-15.677	21.270	1632.801	1285.321
-14.663	21.228	1632.098	1284.407
-13.648	21.247	1630.434	1283.183
-12.633	21.276	1628.551	1281.865
-11.619	21.303	1627.166	1280.923
-10.604	21.340	1625.271	1279.651
-9.590	21.370	1623.999	1278.817
-8.575	21.188	1623.342	1276.914
-7.560	21.211	1622.251	1276.173
-6.546	21.177	1621.571	1275.339
-5.531	21.272	1620.259	1274.956
-4.517	21.235	1618.723	1273.427
-3.502	21.270	1617.795	1272.897
-2.487	21.242	1615.759	1271.045
-1.473	20.806	1603.676	1258.339
-0.458	17.784	1583.896	1221.166
0.556	13.164	1586.134	1189.044
1.571	11.005	1609.649	1190.779
2.586	10.741	1621.996	1197.857
3.600	10.118	1567.406	1153.002
4.615	5.754	1462.362	1046.550
5.629	1.468	1406.824	979.147
6.644	0.674	1400.280	969.415
7.659	0.740	1399.308	969.080
8.673	0.690	1398.333	967.994
9.688	0.646	1395.774	965.856
10.702	0.621	1392.077	963.058
11.717	2.711	1394.806	978.201
12.731	8.816	1403.653	1023.407
13.746	14.828	1413.268	1068.886
14.761	17.168	1416.347	1086.097
15.775	16.698	1414.510	1081.596
16.790	15.664	1411.998	1072.979
17.804	14.948	1409.657	1066.541
18.819	14.513	1408.427	1062.747
19.834	14.367	1406.801	1060.498
20.848	14.125	1405.929	1058.204
21.863	13.883	1404.304	1055.351
22.877	13.731	1403.138	1053.412
23.892	13.705	1401.748	1052.113
24.907	13.626	1401.144	1051.066
25.921	13.636	1400.247	1050.362
26.936	13.708	1399.513	1050.177
27.950	13.747	1398.559	1049.615
28.965	13.767	1397.590	1048.922
29.980	13.933	1396.364	1048.958
30.994	13.920	1395.988	1048.495
32.009	14.033	1394.306	1047.856
33.023	13.931	1393.375	1046.417
34.038	13.802	1392.466	1044.830
35.053	13.901	1391.043	1044.295
36.067	13.757	1390.066	1042.566
37.082	13.821	1389.211	1042.231
38.096	13.968	1388.151	1042.266
39.111	13.889	1387.812	1041.423
40.126	13.813	1386.855	1040.137
41.140	13.849	1386.030	1039.651
42.155	13.744	1385.244	1038.317
43.169	13.703	1385.684	1038.295
44.184	13.700	1385.206	1037.827
45.199	13.781	1384.445	1037.673
46.213	13.786	1384.002	1037.281
47.228	13.771	1383.257	1036.534
48.242	13.797	1381.901	1035.590
49.257	13.745	1380.766	1034.322
50.271	13.773	1378.927	1033.025
51.286	13.842	1377.389	1032.212
52.301	13.857	1375.636	1030.904
53.315	13.698	1375.064	1029.396
54.330	13.670	1374.309	1028.563
55.344	13.836	1372.261	1027.968
56.359	13.628	1371.831	1026.271
57.374	13.706	1370.513	1025.674
58.388	13.625	1370.352	1024.962
59.403	13.645	1369.652	1024.471
60.417	13.656	1368.792	1023.806
61.432	13.705	1367.525	1023.071
62.447	13.682	1366.956	1022.410
63.461	13.686	1365.688	1021.395
64.476	13.649	1364.441	1020.148
65.490	13.669	1363.380	1019.384
66.505	13.627	1361.496	1017.628
67.520	13.681	1360.172	1016.879
68.534	13.726	1358.976	1016.175
69.549	13.683	1358.152	1015.201
70.563	13.667	1357.222	1014.322
71.578	13.701	1355.598	1013.227
72.593	13.608	1355.125	1012.213
73.607	13.576	1354.572	1011.513
74.622	13.562	1353.409	1010.471
75.636	13.515	1353.115	1009.873
76.651	13.519	1352.269	1009.181
77.666	13.576	1351.476	1008.848
78.680	13.653	1350.871	1008.772
79.695	13.628	1349.886	1007.798
80.709	13.617	1349.183	1007.116
81.724	13.636	1348.644	1006.740
82.739	13.655	1347.775	1006.115
83.753	13.754	1346.398	1005.598
84.768	13.805	1345.540	1005.178
85.782	13.863	1344.284	1004.505
86.797	13.839	1342.431	1002.883
87.812	13.696	1342.002	1001.613
88.826	13.746	1340.709	1000.860
89.841	13.720	1339.387	999.629
90.855	13.814	1338.032	999.092
91.870	13.861	1337.207	998.671
92.884	13.816	1336.810	998.018
93.899	13.837	1335.676	997.207
94.914	13.869	1335.160	996.929
95.928	13.948	1333.925	996.392
96.943	13.919	1333.404	995.738
97.957	13.941	1332.040	994.765
98.972	13.972	1330.801	993.936
99.987	13.860	1330.533	992.980
101.001	13.871	1329.260	992.007
102.016	13.918	1327.958	991.229
103.030	13.867	1327.274	990.325
104.045	13.902	1325.852	989.385
105.060	13.850	1325.102	988.428
106.074	13.804	1323.703	987.024
107.089	13.834	1322.165	985.966
108.103	13.710	1321.100	984.349
109.118	13.727	1319.709	983.328
110.133	13.837	1318.145	982.724
111.147	13.791	1317.123	981.604
112.162	13.664	1316.223	980.094
113.176	13.905	1314.441	980.104
114.191	13.827	1313.422	978.800
115.206	13.844	1313.003	978.503
116.220	13.853	1311.517	977.358
117.235	13.743	1310.625	975.961
118.249	13.950	1309.045	975.917
119.264	13.869	1307.881	974.486
120.279	13.800	1307.000	973.337
121.293	13.816	1306.386	972.889
122.308	13.744	1305.567	971.769
123.322	13.719	1304.418	970.684
124.337	13.785	1303.249	970.115
125.352	13.685	1301.787	968.357
126.366	13.766	1300.443	967.743
127.381	13.733	1299.492	966.754
128.395	13.798	1298.663	966.434
129.410	13.722	1297.436	964.990
130.424	13.768	1296.981	964.833
131.439	13.757	1295.811	963.819
132.454	13.830	1294.666	963.302
133.468	13.823	1293.585	962.371
134.483	13.862	1292.792	961.925
135.497	13.782	1292.110	960.868
136.512	13.918	1290.301	960.223
137.527	13.823	1289.108	958.701
138.541	13.819	1287.553	957.438
139.556	13.838	1286.227	956.477
140.570	13.870	1285.292	955.884
141.585	13.999	1283.625	955.297
142.600	14.033	1282.575	954.630
143.614	14.053	1281.829	954.103
144.629	14.008	1280.639	952.875
145.643	14.057	1279.733	952.396
146.658	13.953	1278.570	950.854
147.673	14.010	1277.006	949.929
148.687	13.905	1276.090	948.565
149.702	13.956	1274.246	947.401
150.716	13.915	1273.212	946.314
151.731	13.882	1272.352	945.404
152.746	13.932	1270.980	944.588
153.760	13.978	1269.582	943.727
154.775	14.077	1268.730	943.569
155.789	14.119	1267.017	942.451
156.804	13.958	1266.898	941.368
157.819	14.187	1265.216	941.329
158.833	14.184	1264.455	940.664
159.848	14.156	1263.831	939.958
160.862	14.155	1262.264	938.701
161.877	14.049	1261.317	937.318
162.892	14.108	1259.934	936.541
163.906	14.119	1259.612	936.277
164.921	14.067	1258.468	935.053
165.935	14.097	1257.611	934.503
166.950	14.214	1256.593	934.323
167.964	14.114	1255.920	933.176
168.979	14.152	1255.322	932.860
169.994	14.119	1254.608	932.067
171.008	14.180	1253.493	931.496
172.023	14.339	1252.821	931.805
173.037	14.258	1252.176	930.790
174.052	14.232	1251.520	930.072
175.067	14.214	1250.339	929.015
176.081	14.197	1249.305	928.067
177.096	14.164	1248.575	927.256
178.110	14.178	1247.385	926.370
179.125	14.309	1245.899	925.911
180.140	14.336	1244.465	924.915
181.154	14.300	1243.228	923.714
182.169	14.306	1242.222	922.920
183.183	14.414	1240.520	922.173
184.198	14.471	1239.958	921.985
185.213	14.305	1238.863	920.174
186.227	14.353	1237.978	919.699
187.242	14.390	1236.804	918.950
188.256	14.463	1235.586	918.368
189.271	14.455	1234.988	917.796
190.286	14.412	1233.471	916.353
191.300	14.348	1233.092	915.640
192.315	14.336	1232.549	915.085
193.329	14.290	1231.795	914.194
194.344	14.345	1230.794	913.674
195.359	14.338	1230.428	913.278
196.373	14.478	1229.839	913.531
197.388	14.479	1229.323	913.070
198.402	14.520	1228.891	912.895
199.417	14.603	1227.938	912.559
200.432	14.656	1226.906	912.000
201.446	14.636	1226.165	911.260
202.461	14.738	1225.144	910.978
203.475	14.721	1224.107	910.031
204.490	14.732	1222.819	909.054
205.504	14.674	1221.608	907.761
206.519	14.641	1220.626	906.768
207.534	14.665	1218.871	905.517
208.548	14.818	1217.848	905.505
209.563	14.676	1217.883	904.684
210.577	14.662	1216.873	903.777
211.592	14.701	1215.678	903.019
212.607	14.700	1214.897	902.353
213.621	14.658	1214.159	901.498
214.636	14.670	1213.460	900.967
215.650	14.711	1212.604	900.471
216.665	14.827	1211.015	899.835
217.680	14.832	1210.315	899.262
218.694	14.819	1209.485	898.497
219.709	14.877	1209.273	898.568
220.723	14.999	1207.752	898.016
221.738	14.962	1206.786	897.020
222.753	14.894	1206.707	896.517
223.767	14.950	1205.934	896.161
224.782	14.979	1205.371	895.822
225.796	14.920	1204.657	894.893
226.811	14.935	1204.089	894.474
227.826	14.980	1203.248	894.013
228.840	14.942	1202.654	893.288
229.855	15.015	1201.554	892.779
230.869	15.129	1200.465	892.499
231.884	15.053	1199.564	891.347
232.899	15.017	1198.584	890.350
233.913	15.030	1198.150	890.018
234.928	14.992	1198.021	889.640
235.942	14.966	1196.947	888.623
236.957	14.977	1196.207	888.055
237.972	15.024	1195.205	887.484
238.986	14.970	1194.532	886.617
240.001	15.009	1194.376	886.631
241.015	15.096	1193.488	886.355
242.030	15.061	1192.487	885.346
243.045	15.039	1191.687	884.559
244.059	15.118	1190.527	884.034
245.074	15.190	1189.058	883.246
246.088	15.271	1188.224	882.977
247.103	15.267	1188.080	882.768
248.117	15.249	1187.640	882.271
249.132	15.220	1186.567	881.243
250.147	15.307	1185.744	881.009
251.161	15.247	1185.097	880.137
252.176	15.413	1184.286	880.326
253.190	15.401	1184.013	879.983
254.205	15.545	1182.934	879.858
255.220	15.506	1182.644	879.359
256.234	15.522	1181.977	878.868
257.249	15.481	1181.111	877.933
258.263	15.500	1180.534	877.524
259.278	15.511	1180.101	877.182
260.293	15.478	1179.966	876.836
261.307	15.567	1178.786	876.343
262.322	15.672	1177.917	876.169
263.336	15.531	1177.341	874.929
264.351	15.617	1176.604	874.752
265.366	15.733	1175.565	874.506
266.380	15.643	1175.126	873.629
267.395	15.698	1174.664	873.498
268.409	15.576	1173.776	872.126
269.424	15.571	1173.470	871.795
270.439	15.690	1172.469	871.590
271.453	15.694	1171.774	871.015
272.468	15.598	1170.960	869.840
273.482	15.703	1170.007	869.598
274.497	15.688	1169.590	869.133
275.512	15.741	1169.051	868.928
276.526	15.840	1168.254	868.771
277.541	15.780	1167.375	867.733
278.555	15.739	1166.957	867.134
279.570	15.931	1166.136	867.433
280.585	15.866	1165.186	866.318
281.599	15.929	1164.230	865.852
282.614	16.002	1163.030	865.260
283.628	16.002	1161.849	864.304
284.643	15.885	1160.913	862.933
285.657	15.968	1160.521	862.990
286.672	15.914	1159.498	861.875
287.687	15.889	1158.313	860.788
288.701	16.054	1157.621	861.042
289.716	16.000	1157.029	860.250
290.730	16.050	1156.009	859.672
291.745	15.954	1155.324	858.598
292.760	15.970	1155.155	858.477
293.774	16.055	1154.316	858.208
294.789	16.084	1153.479	857.659
295.803	16.101	1153.207	857.466
296.818	16.059	1152.107	856.359
297.833	16.127	1151.686	856.318
298.847	16.058	1150.896	855.305
299.862	16.161	1149.915	855.019
300.876	16.160	1149.324	854.500
301.891	16.170	1148.752	854.052
302.906	16.114	1148.253	853.321
303.920	16.261	1147.023	853.076
304.935	16.372	1146.507	853.176
305.949	16.197	1146.221	852.002
306.964	16.284	1145.259	851.654
307.979	16.304	1144.339	850.992
308.993	16.305	1143.474	850.279
310.008	16.437	1142.701	850.293
311.022	16.412	1142.213	849.728
312.037	16.417	1141.235	848.954
313.052	16.407	1140.108	847.986
314.066	16.393	1139.307	847.247
315.081	16.414	1138.635	846.779
316.095	16.360	1137.705	845.742
317.110	16.319	1137.134	845.037
318.125	16.331	1136.492	844.546
319.139	16.349	1135.588	843.888
320.154	16.381	1135.050	843.573
321.168	16.346	1134.708	843.067
322.183	16.371	1134.166	842.716
323.197	16.452	1133.086	842.242
324.212	16.384	1132.213	841.184
325.227	16.288	1132.122	840.560
326.241	16.421	1131.156	840.434
327.256	16.374	1130.602	839.711
328.270	16.421	1129.846	839.310
329.285	16.395	1128.803	838.331
330.300	16.415	1127.723	837.557
331.314	16.510	1126.470	837.020
332.329	16.564	1125.581	836.550
333.343	16.559	1124.639	835.752
334.358	16.507	1124.305	835.175
335.373	16.492	1123.776	834.633
336.387	16.589	1122.633	834.189
337.402	16.580	1121.645	833.339
338.416	16.731	1121.404	833.826
339.431	16.618	1120.768	832.723
340.446	16.751	1119.612	832.447
341.460	16.812	1119.031	832.242
342.475	16.739	1118.007	831.047
343.489	16.764	1117.040	830.377
344.504	16.929	1115.952	830.301
345.519	16.853	1115.508	829.526
346.533	16.925	1114.498	829.055
347.548	16.924	1114.288	828.821
348.562	16.799	1113.490	827.541
349.577	16.896	1112.505	827.211
350.592	16.826	1111.918	826.361
351.606	16.836	1111.242	825.832
352.621	16.864	1110.350	825.236
353.635	16.937	1109.624	824.974
354.650	16.868	1109.327	824.348
355.665	16.945	1108.243	823.840
356.679	16.975	1107.716	823.521
357.694	16.922	1107.370	822.935
358.708	16.797	1106.853	821.873
359.723	16.974	1105.804	821.878
360.738	16.999	1105.312	821.561
361.752	17.082	1104.399	821.210
362.767	17.079	1103.870	820.732
363.781	17.138	1103.323	820.538
364.796	17.145	1102.672	820.013
365.810	17.053	1102.169	819.123
366.825	17.199	1101.506	819.263
367.840	17.176	1100.879	818.611
368.854	17.214	1100.470	818.418
369.869	17.287	1099.775	818.183
370.883	17.306	1098.430	817.201
371.898	17.291	1097.743	816.545
372.913	17.292	1097.404	816.226
373.927	17.331	1096.689	815.809
374.942	17.353	1096.173	815.457
375.956	17.347	1095.996	815.223
376.971	17.266	1095.317	814.258
377.986	17.415	1094.450	814.256
379.000	17.403	1094.146	813.901
380.015	17.355	1093.565	813.167
381.029	17.467	1092.527	812.855
382.044	17.482	1091.964	812.436
383.059	17.468	1091.554	811.994
384.073	17.601	1090.496	811.769
385.088	17.559	1089.554	810.797
386.102	17.525	1088.475	809.761
387.117	17.550	1087.533	809.106
388.132	17.450	1086.550	807.831
389.146	17.359	1086.305	807.144
390.161	17.395	1085.770	806.844
391.175	17.476	1084.721	806.378
392.190	17.592	1083.708	806.101
393.205	17.607	1083.175	805.708
394.219	17.604	1082.596	805.189
395.234	17.648	1081.404	804.438
396.248	17.536	1080.519	803.182
397.263	17.598	1079.564	802.691
398.278	17.602	1078.996	802.220
399.292	17.615	1078.054	801.510
400.307	17.587	1077.575	800.948
401.321	17.447	1077.527	800.185
402.336	17.683	1076.400	800.385
403.350	17.710	1075.661	799.891
404.365	17.686	1074.751	799.033
405.380	17.723	1074.182	798.710
406.394	17.798	1073.375	798.393
407.409	17.791	1072.578	797.694
408.423	17.942	1071.695	797.672
409.438	17.800	1071.267	796.621
410.453	17.805	1070.581	796.064
411.467	17.833	1069.705	795.475
412.482	17.925	1068.894	795.229
413.496	17.967	1068.479	795.042
414.511	17.909	1067.819	794.211
415.526	17.933	1067.606	794.097
416.540	18.091	1066.869	794.213
417.555	18.052	1066.153	793.428
418.569	18.059	1066.121	793.367
419.584	18.154	1065.289	793.116
420.599	18.055	1065.081	792.431
421.613	109.636	1333.077	1490.912
422.628	101.349	1372.043	1490.965
