DTS Sentinel unit serial number:	SN413079Multiplexer serial number:	ORYXHardware model number:	OX4-SRSoftware version number:	ORYX F/W v4.00 Oryx Data Collector v3.7.2.0data status	okinstallation	princeton_trtdifferential loss correction	single-endedforward channel	channel 2reverse channel	N/Adate	2019/09/17time	23:27:35forward acquisition time	60.00reverse acquisition time	0.00gamma	496.2192k internal	0.2348k external	0.2348temperature offset calibration	0.9984default loss term (dB/km)	0.3790temperature slope calibration	1.0000multiplexer offset coefficient	1.0000multiplexer slope coefficient	1.0000fibre end	0.00T internal ref (°C)	24.31T ext. ref 1 (°C)	0.17T ext. ref 2 (°C)	17.59length (m)	temperature (°C)	Stokes	anti-Stokes-747.200	800.000	0.024	-0.067
-746.185	20.582	0.158	0.128
-745.171	-78.844	0.310	0.105
-744.156	-102.490	0.128	0.031
-743.142	236.991	-0.139	0.231
-742.127	194.298	-0.083	0.126
-741.112	-27.580	0.058	0.034
-740.098	-200.000	-0.049	0.365
-739.083	10.070	-0.160	0.122
-738.069	80.230	-0.366	0.393
-737.054	-200.000	-0.038	0.244
-736.039	329.659	-0.191	0.366
-735.025	210.495	0.110	0.172
-734.010	-110.307	-0.132	0.027
-732.996	800.000	0.077	-0.328
-731.981	30.856	-0.132	0.113
-730.966	149.113	-0.111	0.150
-729.952	84.891	-0.046	0.050
-728.937	-175.691	-0.340	-0.009
-727.923	-13.303	0.096	0.062
-726.908	30.977	0.112	-0.096
-725.894	-108.199	-0.355	-0.077
-724.879	-19.527	0.038	0.023
-723.864	-200.000	0.005	-0.351
-722.850	646.009	-0.068	-0.173
-721.835	189.950	0.042	0.063
-720.821	-200.000	0.066	0.347
-719.806	216.072	-0.091	-0.144
-718.791	-200.000	-0.033	-0.208
-717.777	-141.000	-0.202	0.021
-716.762	12.867	-0.142	-0.110
-715.748	800.000	0.044	0.130
-714.733	-200.000	0.051	-0.520
-713.718	-5.575	-0.131	0.090
-712.704	-179.509	0.097	0.002
-711.689	-74.942	-0.270	0.096
-710.675	-62.539	-0.164	-0.068
-709.660	800.000	0.011	0.046
-708.645	36.899	-0.081	-0.071
-707.631	191.944	0.034	0.051
-706.616	-200.000	0.004	0.099
-705.602	800.000	0.039	-0.130
-704.587	22.947	0.171	-0.139
-703.572	-91.964	-0.284	-0.080
-702.558	800.000	0.117	0.373
-701.543	-200.000	-0.028	-0.329
-700.529	193.038	0.014	0.021
-699.514	-9.358	0.143	-0.095
-698.499	436.810	0.113	-0.246
-697.485	-20.350	-0.439	-0.270
-696.470	-7.964	0.166	-0.112
-695.456	79.850	0.152	-0.163
-694.441	-38.454	-0.178	0.094
-693.426	-104.724	-0.333	-0.076
-692.412	800.000	0.112	0.395
-691.397	116.423	-0.032	-0.039
-690.383	274.723	0.038	-0.067
-689.368	37.324	-0.286	-0.253
-688.354	-200.000	-0.006	0.078
-687.339	-200.000	-0.017	-0.099
-686.324	191.899	0.131	0.196
-685.310	-131.577	-0.449	-0.059
-684.295	-11.301	0.203	-0.133
-683.281	316.113	-0.239	-0.450
-682.266	274.211	-0.174	-0.307
-681.251	-159.237	-0.364	-0.020
-680.237	217.977	-0.155	-0.247
-679.222	-117.930	-0.119	0.021
-678.208	311.795	0.079	0.148
-677.193	238.527	0.011	0.019
-676.178	-66.223	0.184	-0.073
-675.164	48.954	0.126	-0.118
-674.149	-200.000	0.001	-0.041
-673.135	800.000	0.052	-0.153
-672.120	-200.000	-0.045	-0.351
-671.105	-83.346	0.232	0.074
-670.091	-136.885	-0.261	0.030
-669.076	-200.000	0.009	-0.264
-668.062	26.209	0.119	-0.099
-667.047	153.381	-0.166	-0.226
-666.032	203.911	-0.077	0.119
-665.018	91.787	0.225	-0.253
-664.003	367.286	-0.082	-0.164
-662.989	368.067	-0.076	-0.152
-661.974	800.000	0.071	0.264
-660.959	-200.000	0.004	0.160
-659.945	31.774	0.242	-0.208
-658.930	-47.828	-0.460	-0.222
-657.916	-29.890	0.034	-0.020
-656.901	29.696	-0.093	0.079
-655.886	-130.568	0.279	0.037
-654.872	-200.000	-0.039	-0.270
-653.857	-200.000	-0.081	-0.392
-652.843	-78.302	-0.152	-0.052
-651.828	598.525	-0.142	0.351
-650.814	-158.982	0.235	0.013
-649.799	-200.000	-0.038	-0.228
-648.784	-200.000	-0.059	-0.426
-647.770	-100.773	-0.085	-0.021
-646.755	201.194	0.127	0.195
-645.741	-132.837	-0.311	0.039
-644.726	-45.381	-0.136	-0.067
-643.711	266.386	0.156	0.271
-642.697	800.000	-0.023	-0.075
-641.682	-200.000	0.022	-0.172
-640.668	-125.782	0.263	0.040
-639.653	-4.798	-0.189	0.130
-638.638	47.571	-0.103	-0.096
-637.624	-99.046	-0.271	0.068
-636.609	-114.873	-0.363	0.069
-635.595	-64.811	0.146	-0.059
-634.580	60.403	-0.261	-0.257
-633.565	-32.755	-0.135	0.075
-632.551	192.801	0.023	0.035
-631.536	-123.371	-0.333	0.053
-630.522	79.501	-0.217	0.232
-629.507	-123.316	-0.157	-0.025
-628.492	800.000	-0.043	0.135
-627.478	-200.000	0.028	-0.181
-626.463	208.201	-0.167	0.259
-625.449	800.000	-0.032	-0.109
-624.434	-160.758	-0.052	0.003
-623.419	178.011	0.038	0.056
-622.405	450.925	0.137	-0.301
-621.390	-200.000	0.026	0.129
-620.376	-200.000	-0.023	0.158
-619.361	48.447	-0.076	-0.071
-618.346	800.000	0.073	-0.310
-617.332	-200.000	-0.032	-0.223
-616.317	49.656	-0.240	-0.225
-615.303	800.000	-0.038	-0.145
-614.288	72.403	-0.207	0.214
-613.273	240.781	-0.120	0.200
-612.259	-63.119	-0.088	0.036
-611.244	800.000	0.063	-0.233
-610.230	-93.439	-0.502	0.138
-609.215	361.474	-0.173	-0.344
-608.201	73.500	0.121	-0.126
-607.186	-200.000	-0.009	0.334
-606.171	479.318	-0.105	0.236
-605.157	50.519	0.203	-0.191
-604.142	-45.083	-0.118	0.058
-603.128	-200.000	-0.014	0.127
-602.113	139.126	-0.149	0.194
-601.098	157.303	-0.138	0.189
-600.084	-200.000	0.006	-0.057
-599.069	800.000	-0.061	-0.226
-598.055	-200.000	-0.039	-0.326
-597.040	33.337	0.063	0.054
-596.025	621.200	-0.044	-0.111
-595.011	-15.742	-0.265	0.167
-593.996	-200.000	0.015	-0.352
-592.982	-129.258	-0.212	-0.029
-591.967	-9.748	-0.113	0.075
-590.952	-122.968	-0.177	0.028
-589.938	51.954	-0.005	0.005
-588.923	274.228	-0.229	-0.403
-587.909	24.221	0.184	0.151
-586.894	-199.594	-0.242	0.001
-585.879	-161.748	0.102	0.005
-584.865	-75.805	0.210	-0.074
-583.850	-12.433	-0.092	-0.060
-582.836	18.702	-0.267	-0.212
-581.821	101.765	-0.013	0.015
-580.806	-9.765	0.404	0.267
-579.792	142.079	0.093	-0.123
-578.777	-200.000	0.019	0.197
-577.763	-2.799	0.148	-0.103
-576.748	-126.006	0.118	0.018
-575.733	86.352	0.201	0.220
-574.719	-87.379	-0.143	0.043
-573.704	52.878	-0.184	-0.174
-572.690	-200.000	0.022	-0.410
-571.675	800.000	0.143	-0.412
-570.661	225.413	-0.134	0.216
-569.646	19.298	0.109	0.087
-568.631	124.350	0.164	-0.204
-567.617	800.000	-0.036	-0.137
-566.602	-64.245	-0.174	-0.070
-565.588	-13.782	-0.122	-0.078
-564.573	-200.000	0.010	0.257
-563.558	-0.860	0.069	0.048
-562.544	-119.504	0.227	0.039
-561.529	1.833	-0.071	0.051
-560.515	-76.498	-0.137	0.048
-559.500	57.643	-0.405	-0.393
-558.485	447.870	-0.102	-0.222
-557.471	-18.634	0.027	0.017
-556.456	292.194	0.128	-0.230
-555.442	800.000	-0.078	0.243
-554.427	-149.728	-0.425	-0.033
-553.412	784.456	-0.011	0.031
-552.398	475.237	0.132	0.295
-551.383	341.852	0.217	-0.420
-550.369	-54.838	-0.122	-0.055
-549.354	286.585	-0.190	0.339
-548.339	146.899	-0.083	-0.111
-547.325	800.000	-0.076	0.328
-546.310	-200.000	-0.059	-0.357
-545.296	-28.977	0.161	-0.092
-544.281	169.076	0.094	-0.133
-543.266	-28.940	-0.270	-0.154
-542.252	-131.153	-0.085	-0.011
-541.237	-45.849	0.204	0.100
-540.223	-129.090	0.197	-0.027
-539.208	409.403	-0.215	-0.451
-538.193	-102.759	0.184	-0.043
-537.179	-200.000	0.028	-0.136
-536.164	-44.072	0.118	-0.059
-535.150	-67.997	0.205	-0.079
-534.135	373.697	0.154	-0.310
-533.121	-200.000	-0.038	0.174
-532.106	285.857	0.099	0.178
-531.091	28.908	-0.075	0.063
-530.077	-146.839	-0.265	0.023
-529.062	-200.000	0.018	0.126
-528.048	-10.799	0.154	-0.101
-527.033	-134.746	-0.329	0.040
-526.018	-132.888	-0.271	-0.034
-525.004	-84.184	0.245	0.077
-523.989	292.054	0.038	0.069
-522.975	46.114	-0.266	0.244
-521.960	-200.000	0.023	0.277
-520.945	102.213	-0.202	-0.234
-519.931	-110.818	0.308	0.063
-518.916	78.360	-0.096	0.101
-517.902	-83.561	0.232	-0.074
-516.887	-24.371	-0.274	-0.162
-515.872	132.317	-0.263	0.336
-514.858	-200.000	0.018	-0.221
-513.843	89.354	-0.275	-0.303
-512.829	-200.000	-0.037	0.383
-511.814	29.644	0.246	0.208
-510.799	800.000	-0.098	0.322
-509.785	112.907	0.125	-0.150
-508.770	388.062	-0.101	0.208
-507.756	-200.000	0.000	0.183
-506.741	-47.374	0.230	0.111
-505.726	800.000	0.067	0.268
-504.712	-64.387	0.106	0.043
-503.697	800.000	0.026	0.104
-502.683	45.219	0.284	0.259
-501.668	-72.981	0.366	0.133
-500.653	-97.370	0.068	0.017
-499.639	221.577	-0.092	0.146
-498.624	252.580	-0.133	-0.224
-497.610	11.995	0.381	-0.290
-496.595	-143.866	0.131	-0.012
-495.581	-200.000	0.039	-0.269
-494.566	800.000	0.082	-0.269
-493.551	-30.885	-0.214	-0.120
-492.537	598.462	0.115	0.282
-491.522	800.000	-0.020	-0.083
-490.508	-63.812	0.345	-0.140
-489.493	800.000	-0.129	-0.356
-488.478	-28.403	-0.417	-0.238
-487.464	-200.000	0.019	-0.366
-486.449	597.785	0.045	-0.111
-485.435	-84.447	-0.191	0.060
-484.420	7.865	0.335	-0.248
-483.405	-37.272	-0.082	0.043
-482.391	74.717	0.325	-0.339
-481.376	-118.912	-0.175	0.030
-480.362	-200.000	0.024	-0.120
-479.347	-159.139	0.257	-0.014
-478.332	90.659	0.127	0.141
-477.318	136.869	0.137	-0.177
-476.303	-83.735	-0.394	0.124
-475.289	-1.479	-0.144	0.101
-474.274	84.732	0.138	-0.150
-473.259	-68.932	-0.087	-0.033
-472.245	-200.000	0.061	-0.278
-471.230	-91.662	-0.102	0.029
-470.216	64.781	0.171	-0.170
-469.201	800.000	-0.069	0.207
-468.186	-200.000	-0.029	-0.271
-467.172	13.150	0.117	0.090
-466.157	-31.699	0.046	0.025
-465.143	28.185	0.263	0.219
-464.128	-129.440	-0.196	-0.027
-463.113	-200.000	-0.026	-0.114
-462.099	-200.000	-0.032	-0.331
-461.084	-57.233	0.225	0.098
-460.070	395.269	0.203	0.418
-459.055	675.761	0.027	-0.069
-458.040	-200.000	0.019	0.453
-457.026	-41.224	-0.241	0.123
-456.011	-116.619	0.364	0.066
-454.997	800.000	-0.093	0.287
-453.982	800.000	-0.076	0.322
-452.968	282.382	0.118	-0.209
-451.953	128.286	0.171	0.215
-450.938	-27.475	0.250	0.143
-449.924	289.335	-0.161	0.287
-448.909	499.506	-0.172	0.393
-447.895	-76.504	0.216	0.075
-446.880	-150.620	-0.304	0.023
-445.865	-78.492	0.162	-0.055
-444.851	-1.521	0.169	0.117
-443.836	13.970	-0.205	-0.157
-442.822	-76.561	0.375	-0.130
-441.807	65.095	-0.234	0.233
-440.792	-161.391	0.193	0.010
-439.778	-71.146	0.269	0.100
-438.763	234.464	-0.121	0.197
-437.749	-200.000	0.055	-0.381
-436.734	-163.458	-0.391	-0.018
-435.719	7.846	0.218	-0.161
-434.705	15.630	-0.260	-0.202
-433.690	149.398	-0.098	0.130
-432.676	123.934	0.049	0.061
-431.661	9.688	-0.405	-0.303
-430.646	288.285	-0.170	-0.303
-429.632	800.000	0.060	-0.170
-428.617	260.054	0.071	0.121
-427.603	-151.017	0.198	-0.015
-426.588	-92.751	0.349	0.096
-425.573	488.155	0.041	-0.093
-424.559	30.389	0.017	0.014
-423.544	-200.000	0.022	-0.175
-422.530	-200.000	-0.047	0.270
-421.515	-77.230	-0.279	-0.096
-420.500	-3.963	-0.173	0.119
-419.486	-200.000	0.007	-0.138
-418.471	120.116	-0.214	-0.262
-417.457	155.155	-0.129	-0.175
-416.442	-200.000	-0.036	-0.239
-415.428	-10.931	0.071	0.046
-414.413	229.188	0.122	-0.197
-413.398	-153.390	-0.177	0.012
-412.384	-111.873	0.355	0.071
-411.369	-112.734	-0.281	0.055
-410.355	-200.000	0.016	0.186
-409.340	-104.104	0.141	0.032
-408.325	-200.000	-0.000	-0.103
-407.311	493.039	0.188	-0.424
-406.296	-27.398	-0.124	-0.071
-405.282	61.344	-0.126	-0.124
-404.267	-100.064	-0.079	-0.019
-403.252	-116.629	0.182	0.033
-402.238	177.144	-0.090	-0.130
-401.223	-58.780	0.211	0.090
-400.209	-200.000	0.034	0.298
-399.194	-83.299	0.238	0.075
-398.179	714.845	-0.039	-0.102
-397.165	800.000	-0.081	-0.256
-396.150	-126.474	0.230	0.034
-395.136	191.604	-0.061	-0.090
-394.121	236.657	-0.061	-0.099
-393.106	13.414	0.146	0.112
-392.092	800.000	-0.054	-0.196
-391.077	-116.481	-0.347	-0.063
-390.063	-133.351	0.192	-0.024
-389.048	299.544	0.029	0.053
-388.033	142.184	-0.140	-0.183
-387.019	-200.000	0.028	0.262
-386.004	-200.000	-0.051	0.268
-384.990	-129.465	-0.399	0.055
-383.975	-200.000	0.055	0.442
-382.960	-33.114	0.350	-0.191
-381.946	-200.000	-0.023	0.115
-380.931	-61.341	0.244	-0.101
-379.917	22.707	0.280	0.226
-378.902	467.552	-0.035	0.076
-377.888	-200.000	-0.043	0.272
-376.873	-30.908	0.089	0.050
-375.858	-200.000	0.004	-0.178
-374.844	-110.039	-0.193	0.040
-373.829	-100.628	0.254	-0.062
-372.815	-200.000	0.044	-0.344
-371.800	82.999	-0.287	0.308
-370.785	344.860	-0.188	-0.364
-369.771	33.142	-0.131	0.112
-368.756	143.891	0.232	0.304
-367.742	-200.000	0.054	-0.348
-366.727	96.262	-0.153	-0.173
-365.712	156.096	0.116	0.158
-364.698	10.688	0.100	0.075
-363.683	-200.000	0.002	0.354
-362.669	-42.322	0.189	-0.095
-361.654	-89.925	0.106	-0.030
-360.639	14.944	-0.123	0.094
-359.625	-109.809	0.215	0.045
-358.610	800.000	0.088	-0.320
-357.596	800.000	0.039	-0.146
-356.581	800.000	-0.041	-0.125
-355.566	52.470	-0.270	0.253
-354.552	-70.284	0.372	0.139
-353.537	-200.000	0.061	-0.264
-352.523	6.427	0.263	0.192
-351.508	174.728	0.168	-0.239
-350.493	144.191	-0.255	-0.334
-349.479	-32.464	0.114	0.063
-348.464	-69.582	0.090	0.034
-347.450	52.146	0.073	0.068
-346.435	65.706	0.287	0.286
-345.420	-87.962	-0.153	0.045
-344.406	-110.072	0.292	0.060
-343.391	98.899	0.160	0.182
-342.377	103.403	-0.033	-0.038
-341.362	-76.938	-0.169	0.058
-340.348	-71.394	-0.264	0.097
-339.333	-2.986	0.144	0.099
-338.318	401.130	0.097	0.199
-337.304	210.273	0.068	-0.106
-336.289	212.544	0.185	0.287
-335.275	143.064	0.250	0.327
-334.260	366.298	-0.207	0.409
-333.245	-28.645	-0.130	0.074
-332.231	-136.032	-0.396	0.046
-331.216	-200.000	-0.036	-0.271
-330.202	5.196	0.082	0.060
-329.187	-200.000	-0.028	-0.163
-328.172	-200.000	-0.002	-0.285
-327.158	-200.000	-0.030	0.145
-326.143	-18.471	-0.092	-0.057
-325.129	559.374	-0.065	0.154
-324.114	-71.643	0.171	0.063
-323.099	756.550	0.051	0.136
-322.085	-46.617	-0.094	0.045
-321.070	-152.612	0.048	-0.003
-320.056	182.088	0.222	0.321
-319.041	-200.000	0.012	0.262
-318.026	153.789	0.222	0.299
-317.012	113.711	0.242	0.289
-315.997	-200.000	-0.011	-0.097
-314.983	800.000	0.049	-0.193
-313.968	-200.000	0.060	-0.343
-312.953	-111.120	-0.262	-0.053
-311.939	99.042	0.121	-0.137
-310.924	-200.000	0.018	0.175
-309.910	-76.288	0.192	0.067
-308.895	22.905	-0.021	-0.017
-307.880	-160.328	0.365	-0.019
-306.866	800.000	0.061	0.233
-305.851	515.872	0.034	-0.079
-304.837	-200.000	0.094	0.434
-303.822	-177.515	-0.274	-0.007
-302.807	-26.373	0.292	0.168
-301.793	-200.000	-0.014	0.247
-300.778	486.129	-0.106	0.238
-299.764	-105.948	-0.212	0.047
-298.749	289.971	-0.082	-0.147
-297.735	-57.465	0.099	-0.042
-296.720	-34.690	-0.103	-0.056
-295.705	313.206	0.044	0.082
-294.691	-52.050	0.142	0.065
-293.676	-116.608	-0.248	0.045
-292.662	132.418	-0.035	-0.044
-291.647	283.892	-0.178	0.315
-290.632	-130.530	0.209	-0.028
-289.618	-81.205	0.319	-0.103
-288.603	101.343	-0.186	0.213
-287.589	-200.000	0.009	-0.153
-286.574	45.341	0.217	-0.196
-285.559	-200.000	0.026	-0.111
-284.545	211.283	0.227	0.350
-283.530	245.873	0.097	0.160
-282.516	-200.000	0.055	-0.312
-281.501	23.169	-0.248	-0.200
-280.486	-200.000	0.049	0.436
-279.472	-200.000	0.043	-0.198
-278.457	800.000	-0.065	-0.211
-277.443	-137.295	-0.571	-0.064
-276.428	131.535	-0.013	0.016
-275.413	-200.000	0.044	-0.200
-274.399	244.185	0.141	0.232
-273.384	800.000	0.055	-0.193
-272.370	-169.045	0.131	0.005
-271.355	-200.000	0.027	0.195
-270.340	-39.022	-0.225	0.116
-269.326	164.758	0.066	-0.091
-268.311	-141.445	0.262	0.026
-267.297	244.714	0.014	-0.023
-266.282	-72.436	0.188	-0.068
-265.267	-159.088	0.077	0.004
-264.253	800.000	0.077	0.296
-263.238	800.000	0.030	0.129
-262.224	410.731	-0.140	-0.292
-261.209	338.630	0.196	-0.374
-260.195	-200.000	-0.036	-0.165
-259.180	-200.000	0.009	-0.058
-258.165	153.646	0.082	-0.110
-257.151	-169.110	-0.235	0.009
-256.136	-124.644	-0.086	-0.013
-255.122	-200.000	-0.190	0.000
-254.107	289.057	-0.066	-0.118
-253.092	295.920	-0.118	0.211
-252.078	74.435	0.230	-0.237
-251.063	-200.000	0.024	0.165
-250.049	-141.784	-0.132	0.013
-249.034	-33.767	-0.278	0.150
-248.019	-34.789	-0.058	-0.031
-247.005	-200.000	0.071	0.359
-245.990	-94.574	-0.242	-0.065
-244.976	593.896	-0.096	0.233
-243.961	26.664	-0.324	0.265
-242.946	-200.000	-0.046	-0.241
-241.932	386.325	0.175	-0.354
-240.917	-200.000	-0.013	-0.081
-239.903	-23.171	-0.101	-0.059
-238.888	-25.244	0.180	0.104
-237.873	601.519	0.012	0.029
-236.859	800.000	-0.063	-0.173
-235.844	800.000	-0.147	0.436
-234.830	-200.000	-0.020	0.254
-233.815	67.130	-0.100	-0.100
-232.800	-62.819	-0.209	0.085
-231.786	-200.000	0.003	0.325
-230.771	19.826	-0.094	0.074
-229.757	-176.164	-0.169	0.004
-228.742	-118.687	-0.102	-0.018
-227.727	-200.000	-0.032	-0.205
-226.713	662.490	0.128	-0.323
-225.698	113.422	-0.094	-0.111
-224.684	95.329	-0.163	0.182
-223.669	368.493	-0.029	-0.058
-222.655	-37.492	-0.059	0.031
-221.640	461.495	-0.047	-0.103
-220.625	-106.286	0.202	0.044
-219.611	-45.412	0.246	-0.119
-218.596	592.435	-0.174	0.420
-217.582	-191.307	-0.213	0.002
-216.567	3.689	0.150	0.107
-215.552	-200.000	-0.010	0.281
-214.538	-108.653	0.163	0.034
-213.523	261.030	-0.136	0.231
-212.509	-26.414	0.094	0.054
-211.494	-200.000	-0.031	-0.207
-210.479	-200.000	-0.058	0.305
-209.465	242.313	0.047	0.077
-208.450	800.000	-0.040	-0.155
-207.436	800.000	0.097	-0.262
-206.421	-17.493	0.404	0.248
-205.406	43.251	0.070	0.063
-204.392	-200.000	-0.003	-0.075
-203.377	-71.179	0.122	-0.045
-202.363	-24.595	-0.029	-0.017
-201.348	-98.133	-0.162	-0.041
-200.333	60.496	-0.155	-0.150
-199.319	663.585	0.140	-0.352
-198.304	-94.125	0.099	0.026
-197.290	292.910	-0.109	-0.194
-196.275	120.889	-0.293	0.356
-195.260	800.000	0.068	-0.287
-194.246	106.000	-0.044	0.051
-193.231	-19.883	-0.167	-0.101
-192.217	-178.479	0.292	0.007
-191.202	101.169	-0.191	-0.218
-190.187	342.462	-0.094	0.181
-189.173	190.523	0.197	0.289
-188.158	-200.000	-0.001	-0.132
-187.144	-63.057	0.307	0.124
-186.129	51.076	-0.221	0.205
-185.114	92.482	0.115	-0.127
-184.100	369.690	-0.101	0.201
-183.085	-200.000	-0.010	-0.141
-182.071	87.220	0.153	0.165
-181.056	-200.000	-0.026	0.177
-180.042	-90.463	-0.093	-0.026
-179.027	596.541	0.097	-0.235
-178.012	-142.992	0.151	0.014
-176.998	216.245	0.191	-0.297
-175.983	-101.183	0.246	0.059
-174.969	-48.270	0.208	-0.098
-173.954	370.379	0.106	0.209
-172.939	13.749	-0.091	0.069
-171.925	-98.029	-0.110	0.028
-170.910	800.000	0.088	-0.267
-169.896	-200.000	-0.043	0.265
-168.881	-25.137	-0.225	0.130
-167.866	79.530	0.204	0.214
-166.852	800.000	-0.056	0.175
-165.837	-200.000	0.019	-0.177
-164.823	-161.436	0.301	0.015
-163.808	233.627	0.196	-0.315
-162.793	-85.040	0.147	0.045
-161.779	-133.101	0.302	0.037
-160.764	-200.000	-0.015	-0.263
-159.750	-200.000	0.032	-0.144
-158.735	-22.195	-0.070	-0.042
-157.720	800.000	-0.042	-0.179
-156.706	118.828	0.072	0.087
-155.691	307.881	-0.033	0.061
-154.677	-200.000	-0.020	-0.295
-153.662	294.296	-0.127	-0.226
-152.647	-154.258	-0.227	-0.015
-151.633	-34.281	0.209	0.112
-150.618	-200.000	0.004	0.200
-149.604	-29.136	-0.168	-0.094
-148.589	-111.990	-0.023	-0.005
-147.574	733.684	0.069	-0.180
-146.560	-200.000	-0.011	0.071
-145.545	59.997	0.302	-0.292
-144.531	51.912	0.165	0.153
-143.516	337.201	0.096	0.183
-142.502	-173.494	-0.134	-0.004
-141.487	300.629	0.053	0.095
-140.472	800.000	-0.044	0.159
-139.458	265.170	0.090	-0.153
-138.443	713.255	0.102	0.265
-137.429	690.672	0.068	0.173
-136.414	-140.110	0.400	0.041
-135.399	-91.642	0.184	0.051
-134.385	-126.348	0.187	0.027
-133.370	70.939	0.101	0.102
-132.356	365.626	0.062	-0.122
-131.341	-38.783	-0.118	0.060
-130.326	-200.000	0.008	-0.069
-129.312	-200.000	0.001	0.076
-128.297	-121.681	-0.061	0.010
-127.283	26.831	-0.326	-0.267
-126.268	-200.000	-0.019	-0.153
-125.253	-120.930	0.157	0.026
-124.239	92.362	0.048	0.053
-123.224	270.425	0.239	0.410
-122.210	245.001	0.150	0.246
-121.195	799.358	0.017	0.046
-120.180	104.078	-0.013	0.014
-119.166	127.999	-0.178	0.221
-118.151	470.327	0.070	-0.154
-117.137	-24.993	0.464	0.268
-116.122	-167.818	-0.183	0.007
-115.107	-114.377	-0.290	-0.054
-114.093	-200.000	0.008	0.206
-113.078	800.000	-0.067	0.249
-112.064	238.208	0.140	-0.227
-111.049	569.843	-0.096	0.227
-110.034	-177.341	0.325	-0.008
-109.020	223.371	-0.066	0.104
-108.005	800.000	0.193	0.578
-106.991	-34.572	0.278	-0.148
-105.976	-103.794	0.442	0.101
-104.962	0.478	-0.083	0.058
-103.947	-134.305	-0.247	0.030
-102.932	-200.000	0.046	0.241
-101.918	-62.677	0.397	0.161
-100.903	-117.322	-0.132	-0.023
-99.889	-200.000	0.021	-0.122
-98.874	-200.000	0.001	-0.180
-97.859	554.975	-0.058	-0.136
-96.845	800.000	-0.022	-0.078
-95.830	-65.295	0.039	0.015
-94.816	126.096	-0.062	0.076
-93.801	390.132	-0.022	-0.044
-92.786	-200.000	0.008	0.055
-91.772	-105.283	-0.192	-0.043
-90.757	173.834	-0.037	-0.052
-89.743	210.697	0.117	-0.178
-88.728	105.640	-0.137	-0.158
-87.713	598.150	0.038	0.091
-86.699	179.827	0.067	0.095
-85.684	-163.218	0.306	0.014
-84.670	800.000	-0.016	0.052
-83.655	-200.000	-0.022	0.185
-82.640	-162.409	-0.035	-0.002
-81.626	236.756	0.081	0.130
-80.611	604.284	0.061	-0.148
-79.597	-124.577	-0.251	0.038
-78.582	-200.000	0.017	-0.281
-77.567	-71.161	0.107	0.039
-76.553	-200.000	-0.042	0.315
-75.538	-200.000	0.023	0.170
-74.524	-44.850	0.076	0.037
-73.509	75.737	-0.056	-0.058
-72.494	104.753	-0.067	-0.076
-71.480	-16.379	0.373	0.231
-70.465	165.471	0.277	0.382
-69.451	-168.594	0.222	0.008
-68.436	-200.000	-0.025	-0.113
-67.422	800.000	-0.019	-0.069
-66.407	-49.724	0.084	0.039
-65.392	-61.700	-0.128	0.052
-64.378	-30.682	-0.146	0.080
-63.363	800.000	-0.098	0.378
-62.349	-18.262	0.285	0.173
-61.334	60.215	-1.297	-1.248
-60.319	25.667	0.760	0.616
-59.305	429.919	-0.529	-1.113
-58.290	172.981	0.974	1.364
-57.276	649.194	0.741	1.845
-56.261	-200.000	121.659	642.371
-55.246	441.707	1528.837	3253.722
-54.232	149.649	2682.555	3534.324
-53.217	93.027	2268.885	2493.082
-52.203	33.337	1887.329	1592.708
-51.188	27.537	1684.652	1377.901
-50.173	25.208	1646.303	1329.246
-49.159	45.555	1712.824	1537.816
-48.144	43.851	1725.283	1536.031
-47.130	26.826	1678.078	1366.947
-46.115	24.420	1662.777	1336.433
-45.100	24.228	1657.903	1331.032
-44.086	24.252	1654.794	1328.660
-43.071	24.175	1652.944	1326.549
-42.057	24.189	1650.492	1324.629
-41.042	24.232	1648.542	1323.335
-40.027	24.212	1646.696	1321.650
-39.013	24.136	1645.215	1319.845
-37.998	24.080	1643.530	1318.030
-36.984	24.180	1642.271	1317.710
-35.969	24.265	1640.553	1316.900
-34.954	24.355	1639.226	1316.452
-33.940	24.334	1637.048	1314.492
-32.925	24.245	1635.750	1312.743
-31.911	24.308	1634.243	1311.944
-30.896	24.310	1632.463	1310.479
-29.881	24.280	1630.913	1308.966
-28.867	24.157	1629.495	1306.872
-27.852	24.250	1628.011	1306.311
-26.838	24.449	1626.409	1306.431
-25.823	24.339	1625.009	1304.449
-24.809	24.371	1623.823	1303.677
-23.794	24.379	1622.517	1302.634
-22.779	24.361	1620.901	1301.159
-21.765	24.339	1619.640	1299.932
-20.750	24.389	1617.639	1298.637
-19.736	24.356	1616.317	1297.283
-18.721	24.370	1615.126	1296.383
-17.706	24.410	1613.361	1295.201
-16.692	24.377	1611.755	1293.621
-15.677	24.307	1610.625	1292.154
-14.663	24.306	1610.010	1291.603
-13.648	24.365	1608.439	1290.719
-12.633	24.413	1606.195	1289.217
-11.619	24.330	1604.923	1287.545
-10.604	24.301	1603.773	1286.361
-9.590	24.305	1602.673	1285.454
-8.575	24.383	1600.870	1284.522
-7.560	24.404	1599.689	1283.675
-6.546	24.339	1598.957	1282.570
-5.531	24.360	1597.838	1281.772
-4.517	24.370	1596.284	1280.548
-3.502	24.319	1596.225	1280.082
-2.487	24.463	1593.669	1279.015
-1.473	23.944	1581.726	1265.684
-0.458	20.807	1562.336	1228.032
0.556	15.611	1563.927	1196.182
1.571	13.355	1586.350	1196.912
2.586	13.008	1598.469	1203.420
3.600	11.880	1544.835	1154.991
4.615	6.634	1439.694	1041.716
5.629	1.282	1381.027	965.212
6.644	0.219	1373.849	953.381
7.659	0.163	1372.922	952.298
8.673	0.120	1371.704	951.101
9.688	0.178	1369.393	949.781
10.702	0.064	1365.645	946.376
11.717	2.771	1369.530	966.046
12.731	9.569	1380.401	1016.656
13.746	15.265	1389.194	1059.126
14.761	16.918	1390.047	1070.120
15.775	16.295	1388.119	1064.618
16.790	15.223	1385.825	1056.012
17.804	14.448	1383.514	1049.280
18.819	14.107	1382.089	1045.962
19.834	13.942	1380.744	1043.815
20.848	13.585	1379.936	1040.867
21.863	13.503	1378.053	1038.844
22.877	13.310	1376.993	1036.740
23.892	13.113	1376.775	1035.250
24.907	13.192	1375.290	1034.535
25.921	13.273	1374.198	1034.133
26.936	13.296	1373.744	1033.840
27.950	13.288	1372.592	1032.833
28.965	13.371	1371.241	1032.245
29.980	13.409	1370.641	1031.936
30.994	13.338	1370.119	1031.008
32.009	13.487	1368.968	1030.980
33.023	13.439	1367.903	1029.789
34.038	13.443	1366.140	1028.395
35.053	13.420	1365.283	1027.516
36.067	13.349	1364.324	1026.265
37.082	13.282	1363.603	1025.215
38.096	13.318	1362.586	1024.584
39.111	13.353	1361.533	1023.916
40.126	13.349	1360.067	1022.698
41.140	13.212	1359.789	1021.552
42.155	13.173	1359.649	1021.119
43.169	13.169	1359.278	1020.725
44.184	13.161	1359.079	1020.433
45.199	13.162	1358.649	1020.029
46.213	13.167	1358.017	1019.491
47.228	13.292	1356.879	1019.321
48.242	13.316	1355.560	1018.387
49.257	13.294	1354.123	1017.077
50.271	13.347	1352.493	1016.089
51.286	13.317	1351.506	1015.074
52.301	13.400	1350.247	1014.552
53.315	13.254	1349.179	1012.762
54.330	13.299	1348.067	1012.117
55.344	13.251	1346.817	1010.793
56.359	13.232	1345.924	1009.915
57.374	13.222	1344.850	1008.963
58.388	13.181	1344.508	1008.366
59.403	13.102	1343.897	1007.336
60.417	13.165	1343.024	1006.976
61.432	13.193	1341.714	1006.074
62.447	13.083	1341.040	1004.813
63.461	13.116	1339.933	1004.095
64.476	13.147	1338.541	1003.150
65.490	13.076	1337.494	1001.846
66.505	13.227	1335.693	1001.323
67.520	13.133	1335.010	1000.154
68.534	13.230	1333.425	999.463
69.549	13.107	1332.690	998.080
70.563	13.172	1331.484	997.482
71.578	13.115	1330.226	996.109
72.593	13.136	1328.893	995.148
73.607	12.969	1328.787	993.975
74.622	13.048	1327.388	993.317
75.636	13.013	1326.823	992.593
76.651	13.143	1325.505	992.298
77.666	13.115	1325.223	991.833
78.680	13.083	1325.077	991.445
79.695	13.101	1323.854	990.547
80.709	13.092	1323.551	990.179
81.724	13.242	1322.136	989.937
82.739	13.199	1321.347	988.996
83.753	13.265	1320.645	988.777
84.768	13.337	1318.901	987.814
85.782	13.324	1318.241	987.158
86.797	13.274	1316.963	985.814
87.812	13.275	1315.646	984.747
88.826	13.277	1314.725	983.982
89.841	13.286	1313.627	983.126
90.855	13.324	1312.647	982.533
91.870	13.444	1311.391	982.219
92.884	13.408	1310.592	981.317
93.899	13.328	1310.532	980.714
94.914	13.360	1309.466	980.017
95.928	13.445	1308.438	979.663
96.943	13.456	1306.998	978.563
97.957	13.426	1306.571	977.983
98.972	13.306	1305.625	976.477
99.987	13.338	1304.661	975.862
101.001	13.284	1303.566	974.637
102.016	13.306	1302.719	974.047
103.030	13.315	1301.781	973.311
104.045	13.413	1300.705	972.999
105.060	13.324	1299.765	971.687
106.074	13.303	1298.358	970.426
107.089	13.203	1297.135	968.841
108.103	13.157	1295.932	967.586
109.118	13.216	1294.574	966.830
110.133	13.141	1293.631	965.601
111.147	13.153	1292.086	964.437
112.162	13.264	1290.735	963.988
113.176	13.290	1289.695	963.279
114.191	13.287	1288.626	962.377
115.206	13.291	1287.438	961.427
116.220	13.314	1285.974	960.380
117.235	13.304	1285.373	959.793
118.249	13.213	1284.002	958.156
119.264	13.320	1282.936	957.892
120.279	13.283	1281.973	956.878
121.293	13.195	1281.089	955.625
122.308	13.257	1279.737	954.887
123.322	13.294	1278.896	954.391
124.337	13.148	1277.881	952.704
125.352	13.253	1276.210	951.979
126.366	13.199	1275.475	951.036
127.381	13.188	1274.627	950.258
128.395	13.240	1272.689	949.027
129.410	13.277	1272.084	948.706
130.424	13.207	1271.898	948.081
131.439	13.238	1270.420	947.070
132.454	13.298	1269.394	946.568
133.468	13.259	1268.520	945.606
134.483	13.192	1268.451	945.087
135.497	13.231	1267.390	944.436
136.512	13.198	1265.711	942.913
137.527	13.328	1264.332	942.546
138.541	13.255	1262.719	940.841
139.556	13.276	1261.650	940.082
140.570	13.361	1260.648	939.738
141.585	13.346	1259.436	938.665
142.600	13.322	1257.996	937.374
143.614	13.485	1257.262	937.666
144.629	13.476	1256.067	936.638
145.643	13.511	1254.638	935.689
146.658	13.397	1253.860	934.386
147.673	13.382	1252.427	933.151
148.687	13.357	1251.001	931.863
149.702	13.424	1249.502	931.040
150.716	13.330	1248.487	929.676
151.731	13.424	1247.697	929.531
152.746	13.390	1246.442	928.322
153.760	13.513	1245.393	928.151
154.775	13.301	1243.927	925.786
155.789	13.424	1243.053	925.744
156.804	13.507	1241.828	925.213
157.819	13.386	1241.317	924.073
158.833	13.493	1240.050	923.648
159.848	13.652	1238.961	923.638
160.862	13.605	1237.683	922.342
161.877	13.537	1236.718	921.166
162.892	13.446	1235.833	919.919
163.906	13.494	1234.998	919.483
164.921	13.611	1233.838	919.187
165.935	13.567	1232.963	918.209
166.950	13.571	1232.349	917.691
167.964	13.600	1231.477	917.121
168.979	13.526	1230.840	916.156
169.994	13.603	1230.203	916.030
171.008	13.587	1229.177	915.093
172.023	13.613	1228.142	914.389
173.037	13.684	1227.395	914.139
174.052	13.796	1226.360	913.905
175.067	13.627	1225.188	912.022
176.081	13.726	1224.461	911.946
177.096	13.726	1223.649	911.260
178.110	13.558	1222.769	909.598
179.125	13.660	1221.571	909.186
180.140	13.575	1220.410	907.780
181.154	13.652	1218.879	906.978
182.169	13.736	1217.398	906.256
183.183	13.849	1216.408	906.058
184.198	13.874	1214.998	905.064
185.213	13.893	1213.733	904.141
186.227	13.804	1212.751	902.851
187.242	13.895	1211.791	902.549
188.256	13.959	1211.108	902.308
189.271	13.829	1210.261	900.894
190.286	13.740	1209.252	899.578
191.300	13.657	1208.159	898.235
192.315	13.628	1207.649	897.619
193.329	13.645	1207.272	897.351
194.344	13.827	1206.147	897.420
195.359	13.923	1205.630	897.477
196.373	13.842	1205.029	896.513
197.388	13.934	1204.641	896.641
198.402	13.986	1204.369	896.637
199.417	14.006	1203.461	895.993
200.432	14.164	1202.209	895.830
201.446	14.171	1201.624	895.353
202.461	14.144	1200.540	894.323
203.475	14.113	1199.476	893.285
204.490	14.013	1198.833	892.187
205.504	14.120	1197.149	891.431
206.519	14.018	1196.502	890.319
207.534	13.936	1195.079	888.745
208.548	14.033	1194.226	888.550
209.563	14.112	1193.276	888.189
210.577	14.104	1192.477	887.474
211.592	14.143	1191.279	886.711
212.607	14.110	1190.808	886.106
213.621	14.145	1190.014	885.622
214.636	14.298	1188.742	885.411
215.650	14.150	1188.322	884.232
216.665	14.174	1187.358	883.566
217.680	14.262	1186.082	883.004
218.694	14.372	1185.429	883.023
219.709	14.329	1184.901	882.323
220.723	14.374	1183.862	881.710
221.738	14.220	1183.597	880.622
222.753	14.319	1182.533	880.275
223.767	14.480	1181.866	880.549
224.782	14.410	1181.232	879.628
225.796	14.377	1180.328	878.706
226.811	14.546	1179.909	879.208
227.826	14.530	1178.997	878.363
228.840	14.448	1178.414	877.418
229.855	14.331	1177.695	876.194
230.869	14.465	1176.758	876.124
231.884	14.487	1175.662	875.344
232.899	14.290	1175.401	874.036
233.913	14.398	1174.858	874.123
234.928	14.444	1173.784	873.486
235.942	14.453	1172.851	872.763
236.957	14.421	1172.394	872.179
237.972	14.462	1171.314	871.513
238.986	14.368	1171.060	870.756
240.001	14.349	1170.603	870.239
241.015	14.383	1169.449	869.479
242.030	14.474	1168.469	869.148
243.045	14.512	1167.932	868.872
244.059	14.583	1166.714	868.256
245.074	14.636	1166.006	867.931
246.088	14.619	1165.028	867.035
247.103	14.641	1164.348	866.571
248.117	14.549	1164.259	865.947
249.132	14.680	1163.133	865.715
250.147	14.693	1162.832	865.482
251.161	14.799	1161.737	865.137
252.176	14.786	1161.098	864.517
253.190	14.849	1160.371	864.223
254.205	14.874	1159.793	863.848
255.220	14.970	1159.347	863.935
256.234	14.878	1158.723	862.921
257.249	14.906	1158.151	862.562
258.263	14.886	1157.197	861.670
259.278	14.954	1156.961	861.770
260.293	14.835	1156.503	860.736
261.307	15.039	1155.505	860.971
262.322	14.922	1154.908	859.847
263.336	15.068	1154.270	860.047
264.351	15.143	1153.521	859.797
265.366	15.041	1153.356	859.072
266.380	15.120	1152.233	858.567
267.395	15.079	1151.225	857.528
268.409	14.979	1150.907	856.703
269.424	15.092	1150.058	856.577
270.439	15.075	1149.544	856.031
271.453	15.025	1148.604	854.999
272.468	15.078	1147.672	854.497
273.482	15.129	1146.687	853.951
274.497	15.152	1146.402	853.782
275.512	15.082	1145.988	853.037
276.526	15.149	1144.590	852.263
277.541	15.246	1144.465	852.589
278.555	15.149	1143.592	851.372
279.570	15.227	1142.614	850.963
280.585	15.301	1141.910	850.737
281.599	15.213	1140.952	849.502
282.614	15.265	1139.928	848.930
283.628	15.224	1139.037	847.982
284.643	15.294	1137.836	847.367
285.657	15.318	1137.131	846.888
286.672	15.276	1136.046	845.796
287.687	15.390	1135.404	845.818
288.701	15.313	1134.611	844.764
289.716	15.372	1133.756	844.349
290.730	15.349	1133.070	843.647
291.745	15.368	1132.324	843.111
292.760	15.306	1132.023	842.503
293.774	15.469	1131.058	842.529
294.789	15.614	1130.422	842.708
295.803	15.491	1130.541	842.104
296.818	15.441	1129.777	841.208
297.833	15.425	1128.786	840.315
298.847	15.565	1127.660	840.106
299.862	15.516	1127.176	839.428
300.876	15.462	1126.456	838.546
301.891	15.562	1125.559	838.305
302.906	15.633	1124.778	838.001
303.920	15.753	1123.730	837.742
304.935	15.637	1123.782	837.132
305.949	15.840	1122.733	837.284
306.964	15.673	1122.304	836.061
307.979	15.595	1121.892	835.293
308.993	15.730	1120.917	835.161
310.008	15.677	1119.796	833.990
311.022	15.756	1118.996	833.713
312.037	15.840	1118.250	833.500
313.052	15.780	1117.535	832.594
314.066	15.750	1116.838	831.854
315.081	15.736	1115.759	830.907
316.095	15.696	1115.287	830.284
317.110	15.741	1114.572	829.903
318.125	15.754	1113.528	829.113
319.139	15.790	1112.984	828.812
320.154	15.732	1112.460	828.066
321.168	15.567	1112.011	826.843
322.183	15.668	1111.354	826.780
323.197	15.749	1110.790	826.684
324.212	15.894	1110.022	826.751
325.227	15.841	1109.594	826.099
326.241	15.832	1108.966	825.515
327.256	15.792	1107.877	824.437
328.270	15.892	1106.990	824.194
329.285	15.768	1106.100	822.851
330.300	15.956	1104.778	822.713
331.314	15.828	1104.230	821.607
332.329	15.770	1103.417	820.648
333.343	15.922	1103.167	821.129
334.358	15.957	1101.872	820.261
335.373	16.087	1100.697	819.948
336.387	16.062	1100.247	819.419
337.402	16.050	1099.523	818.747
338.416	16.077	1099.107	818.498
339.431	16.132	1098.276	818.072
340.446	16.200	1097.192	817.521
341.460	16.171	1096.827	817.040
342.475	16.250	1095.984	816.718
343.489	16.166	1095.187	815.648
344.504	16.185	1094.272	814.985
345.519	16.245	1093.390	814.545
346.533	16.235	1092.668	813.889
347.548	16.331	1091.472	813.388
348.562	16.443	1090.972	813.484
349.577	16.283	1090.324	812.157
350.592	16.314	1089.628	811.714
351.606	16.199	1088.828	810.496
352.621	16.253	1087.907	810.000
353.635	16.209	1087.683	809.550
354.650	16.170	1086.843	808.663
355.665	16.230	1085.968	808.231
356.679	16.405	1084.732	808.075
357.694	16.378	1084.825	807.943
358.708	16.463	1083.968	807.641
359.723	16.337	1083.691	806.760
360.738	16.341	1082.875	806.098
361.752	16.463	1082.465	806.307
362.767	16.454	1081.527	805.492
363.781	16.370	1081.120	804.718
364.796	16.472	1080.553	804.711
365.810	16.464	1079.940	804.143
366.825	16.468	1079.302	803.616
367.840	16.703	1078.811	804.299
368.854	16.687	1077.879	803.454
369.869	16.640	1077.337	802.759
370.883	16.642	1076.667	802.195
371.898	16.540	1075.707	800.927
372.913	16.585	1075.477	800.897
373.927	16.682	1074.824	800.801
374.942	16.746	1073.958	800.388
375.956	16.732	1073.608	799.986
376.971	16.709	1073.366	799.628
377.986	16.634	1072.654	798.673
379.000	16.709	1072.170	798.597
380.015	16.783	1071.802	798.603
381.029	16.855	1070.884	798.184
382.044	16.734	1070.415	797.196
383.059	16.814	1069.761	797.011
384.073	16.857	1068.520	796.222
385.088	16.893	1067.707	795.714
386.102	16.943	1066.582	795.040
387.117	16.873	1066.098	794.278
388.132	16.791	1065.003	793.009
389.146	16.737	1064.355	792.205
390.161	16.901	1063.614	792.349
391.175	16.910	1062.723	791.658
392.190	16.910	1062.231	791.220
393.205	16.928	1061.298	790.540
394.219	16.874	1060.776	789.832
395.234	17.065	1059.443	789.655
396.248	16.985	1058.574	788.568
397.263	17.055	1057.646	788.128
398.278	16.980	1056.904	787.159
399.292	16.998	1056.468	786.847
400.307	16.875	1055.712	785.647
401.321	16.952	1055.045	785.437
402.336	16.935	1054.693	785.028
403.350	17.025	1053.685	784.626
404.365	17.057	1052.941	784.148
405.380	17.022	1052.696	783.734
406.394	16.938	1052.147	782.867
407.409	17.123	1050.792	782.642
408.423	17.149	1050.532	782.502
409.438	17.104	1050.000	781.830
410.453	17.270	1049.093	781.848
411.467	17.326	1048.100	781.297
412.482	17.313	1047.680	780.856
413.496	17.246	1046.774	779.804
414.511	17.317	1046.412	779.787
415.526	17.363	1045.904	779.550
416.540	17.304	1045.792	779.128
417.555	17.487	1044.862	779.203
418.569	17.436	1044.156	778.378
419.584	17.393	1043.952	777.958
420.599	17.396	1043.208	777.351
421.613	108.227	1328.776	1487.006
422.628	99.443	1370.335	1487.053
