DTS Sentinel unit serial number:	SN413079Multiplexer serial number:	ORYXHardware model number:	OX4-SRSoftware version number:	ORYX F/W v4.00 Oryx Data Collector v3.7.2.0data status	okinstallation	princeton_trtdifferential loss correction	single-endedforward channel	channel 2reverse channel	N/Adate	2019/09/19time	09:03:35forward acquisition time	60.00reverse acquisition time	0.00gamma	496.2192k internal	0.2352k external	0.2352temperature offset calibration	0.9998default loss term (dB/km)	0.3790temperature slope calibration	1.0000multiplexer offset coefficient	1.0000multiplexer slope coefficient	1.0000fibre end	0.00T internal ref (°C)	21.61T ext. ref 1 (°C)	0.60T ext. ref 2 (°C)	18.44length (m)	temperature (°C)	Stokes	anti-Stokes-747.200	-91.935	-0.156	0.044
-746.185	-31.323	-0.245	-0.138
-745.171	8.402	0.374	-0.280
-744.156	-75.025	-0.342	0.122
-743.142	-200.000	-0.013	-0.101
-742.127	-200.000	0.002	0.056
-741.112	50.752	-0.194	-0.183
-740.098	-86.576	-0.317	-0.097
-739.083	-200.000	-0.133	-0.000
-738.069	-7.963	-0.083	0.056
-737.054	332.847	0.151	0.291
-736.039	82.177	-0.318	-0.343
-735.025	-200.000	-0.030	0.166
-734.010	-99.593	-0.550	-0.138
-732.996	339.000	-0.078	0.151
-731.981	-187.486	-0.232	-0.003
-730.966	-200.000	0.006	0.161
-729.952	86.194	0.129	0.141
-728.937	-60.947	0.120	-0.051
-727.923	-200.000	0.006	-0.074
-726.908	800.000	-0.103	-0.351
-725.894	-87.740	-0.387	-0.116
-724.879	101.816	-0.167	0.194
-723.864	362.803	0.036	-0.073
-722.850	433.047	-0.113	0.244
-721.835	-200.000	0.003	-0.281
-720.821	-15.681	-0.188	-0.120
-719.806	4.988	-0.241	-0.177
-718.791	-200.000	0.010	-0.283
-717.777	62.443	0.045	-0.045
-716.762	-200.000	-0.005	-0.499
-715.748	-13.370	0.120	-0.077
-714.733	-81.477	0.392	0.128
-713.718	110.124	-0.112	-0.134
-712.704	-147.152	-0.283	0.024
-711.689	166.546	-0.148	-0.208
-710.675	-158.227	-0.296	-0.017
-709.660	-113.931	-0.354	-0.068
-708.645	-133.345	0.252	0.032
-707.631	800.000	0.040	-0.161
-706.616	-135.033	0.178	0.021
-705.602	240.380	-0.174	-0.289
-704.587	90.690	0.233	-0.260
-703.572	151.348	0.098	0.133
-702.558	-200.000	-0.001	-0.113
-701.543	65.460	-0.133	-0.134
-700.529	-113.027	0.110	0.022
-699.514	-200.000	0.030	-0.224
-698.499	182.183	-0.153	0.225
-697.485	-133.273	0.130	0.016
-696.470	-37.555	0.232	-0.123
-695.456	312.808	-0.144	0.269
-694.441	-57.926	-0.229	0.099
-693.426	-58.931	-0.360	0.155
-692.412	-200.000	-0.060	0.312
-691.397	-160.980	0.077	0.004
-690.383	-100.347	0.169	0.042
-689.368	-45.031	-0.035	-0.017
-688.354	800.000	-0.044	-0.152
-687.339	-12.709	0.330	-0.214
-686.324	-167.232	0.269	-0.011
-685.310	-85.131	-0.538	0.167
-684.295	-200.000	-0.011	0.101
-683.281	-162.184	0.007	0.000
-682.266	212.229	-0.066	0.104
-681.251	-200.000	-0.009	0.123
-680.237	140.896	0.141	-0.185
-679.222	-143.033	-0.293	-0.028
-678.208	98.178	-0.061	-0.070
-677.193	-88.837	-0.497	0.147
-676.178	234.796	0.071	-0.117
-675.164	107.921	-0.170	0.201
-674.149	-200.000	-0.066	-0.459
-673.135	34.274	0.141	0.123
-672.120	151.289	-0.177	0.239
-671.105	222.083	0.045	-0.072
-670.091	-21.569	0.077	0.046
-669.076	-200.000	0.039	0.179
-668.062	-108.353	-0.228	-0.049
-667.047	-1.386	-0.312	0.219
-666.032	534.151	-0.073	-0.171
-665.018	-200.000	0.026	-0.411
-664.003	-37.534	-0.169	-0.090
-662.989	-200.000	-0.038	0.297
-661.974	276.800	0.149	-0.263
-660.959	-200.000	0.035	0.296
-659.945	777.118	0.120	-0.326
-658.930	495.154	-0.070	0.161
-657.916	-68.093	0.364	-0.141
-656.901	-19.265	-0.047	0.029
-655.886	-100.052	0.252	0.062
-654.872	740.705	-0.053	0.140
-653.857	800.000	0.044	-0.123
-652.843	-64.534	0.372	-0.150
-651.828	28.693	-0.199	-0.167
-650.814	290.305	0.111	0.200
-649.799	-200.000	-0.006	0.041
-648.784	-200.000	-0.006	-0.311
-647.770	-28.077	-0.424	-0.244
-646.755	800.000	0.042	0.176
-645.741	657.375	-0.069	-0.176
-644.726	142.339	0.083	0.109
-643.711	31.724	-0.236	-0.202
-642.697	-200.000	-0.053	0.304
-641.682	353.785	0.140	-0.277
-640.668	-0.964	0.125	-0.088
-639.653	-125.602	0.412	-0.062
-638.638	-57.260	0.189	-0.083
-637.624	6.017	-0.336	-0.247
-636.609	-81.332	-0.327	-0.107
-635.595	-200.000	0.013	-0.075
-634.580	-48.494	-0.331	-0.158
-633.565	72.354	0.215	0.222
-632.551	143.901	0.103	0.137
-631.536	-58.085	-0.236	-0.102
-630.522	-38.270	-0.133	-0.070
-629.507	-200.000	0.043	0.230
-628.492	-84.627	-0.277	0.087
-627.478	28.605	0.053	-0.045
-626.463	800.000	0.062	-0.206
-625.449	2.466	-0.126	-0.091
-624.434	-83.111	-0.130	0.041
-623.419	-200.000	0.007	-0.140
-622.405	512.387	-0.123	-0.285
-621.390	-81.663	-0.238	-0.077
-620.376	-132.636	-0.127	-0.016
-619.361	-200.000	0.048	0.311
-618.346	-179.697	0.119	0.003
-617.332	260.165	0.147	-0.252
-616.317	-36.207	-0.318	0.170
-615.303	-19.447	0.294	0.181
-614.288	483.395	0.115	-0.260
-613.273	-117.242	-0.341	0.062
-612.259	-61.750	0.198	0.082
-611.244	800.000	-0.098	-0.300
-610.230	152.357	-0.200	-0.271
-609.215	-51.365	0.040	0.018
-608.201	486.165	-0.115	-0.259
-607.186	-162.606	-0.325	-0.016
-606.171	-200.000	0.003	-0.202
-605.157	-67.444	-0.053	-0.021
-604.142	66.713	0.141	0.142
-603.128	-78.951	0.327	-0.110
-602.113	198.792	0.197	-0.299
-601.098	137.756	0.086	0.111
-600.084	-200.000	0.069	-0.325
-599.069	-165.322	-0.150	0.007
-598.055	-200.000	0.005	-0.105
-597.040	72.753	0.184	-0.190
-596.025	8.771	0.177	0.133
-595.011	2.274	0.112	-0.080
-593.996	146.846	0.101	0.135
-592.982	800.000	-0.072	-0.224
-591.967	-52.801	-0.194	-0.089
-590.952	395.516	-0.103	-0.213
-589.938	94.371	-0.093	-0.105
-588.923	107.765	-0.196	-0.232
-587.909	-73.348	-0.277	-0.101
-586.894	-200.000	-0.003	0.106
-585.879	370.645	-0.111	-0.223
-584.865	-71.387	0.269	0.100
-583.850	43.363	-0.165	-0.149
-582.836	800.000	0.060	-0.203
-581.821	-200.000	-0.043	0.197
-580.806	-103.666	0.050	-0.012
-579.792	-200.000	-0.001	-0.192
-578.777	347.641	0.055	0.108
-577.763	800.000	-0.026	0.073
-576.748	-49.978	0.280	-0.132
-575.733	800.000	0.044	-0.134
-574.719	-200.000	0.004	-0.081
-573.704	-46.353	-0.182	-0.089
-572.690	-83.677	-0.142	0.045
-571.675	800.000	0.064	0.228
-570.661	81.379	-0.059	0.064
-569.646	-33.442	0.252	-0.138
-568.631	-156.168	-0.342	-0.021
-567.617	524.611	-0.064	0.149
-566.602	-200.000	0.008	-0.053
-565.588	61.191	0.105	-0.104
-564.573	-145.308	-0.308	-0.028
-563.558	-200.000	0.104	0.471
-562.544	-135.347	-0.040	0.005
-561.529	69.324	0.179	0.182
-560.515	367.112	-0.068	-0.137
-559.500	144.621	-0.084	0.111
-558.485	-200.000	0.023	-0.271
-557.471	382.966	0.185	0.376
-556.456	800.000	-0.061	0.260
-555.442	-200.000	-0.054	0.298
-554.427	178.213	-0.243	-0.351
-553.412	-173.898	0.288	-0.008
-552.398	-81.799	-0.337	-0.109
-551.383	309.473	0.193	0.358
-550.369	-5.252	-0.028	0.019
-549.354	476.771	-0.093	-0.208
-548.339	19.686	-0.208	-0.166
-547.325	-23.389	-0.299	-0.178
-546.310	-200.000	-0.005	-0.070
-545.296	-48.849	0.388	-0.184
-544.281	-143.703	0.050	-0.005
-543.266	174.007	0.134	0.192
-542.252	-200.000	-0.061	0.421
-541.237	800.000	0.114	-0.330
-540.223	-103.167	-0.214	-0.050
-539.208	-200.000	0.008	-0.091
-538.193	-200.000	-0.021	-0.202
-537.179	-200.000	0.005	-0.114
-536.164	181.123	0.113	0.165
-535.150	-161.452	-0.149	0.008
-534.135	-200.000	0.004	0.091
-533.121	62.105	0.267	0.263
-532.106	-200.000	0.066	-0.339
-531.091	298.984	-0.125	0.228
-530.077	-50.037	0.044	-0.021
-529.062	-73.914	0.278	-0.100
-528.048	130.267	-0.070	-0.088
-527.033	-26.395	-0.057	-0.033
-526.018	-51.974	0.415	0.191
-525.004	-136.369	0.084	0.010
-523.989	-194.829	-0.098	0.001
-522.975	15.422	0.101	-0.078
-521.960	-142.324	-0.045	-0.004
-520.945	101.360	0.141	0.162
-519.931	-133.950	-0.204	-0.025
-518.916	145.066	0.144	0.191
-517.902	-33.695	-0.278	-0.152
-516.887	-7.103	-0.210	0.141
-515.872	598.770	-0.101	0.247
-514.858	79.410	-0.230	0.244
-513.843	-150.148	-0.213	0.016
-512.829	231.160	-0.098	-0.159
-511.814	800.000	0.065	0.200
-510.799	-142.043	-0.262	-0.026
-509.785	-41.640	-0.080	0.041
-508.770	180.660	-0.217	0.314
-507.756	0.080	-0.175	-0.123
-506.741	-28.179	-0.057	-0.033
-505.726	-116.005	0.143	-0.026
-504.712	-66.524	-0.109	-0.043
-503.697	-200.000	-0.006	-0.145
-502.683	789.635	0.032	0.087
-501.668	-153.767	-0.046	0.003
-500.653	36.381	0.264	-0.230
-499.639	10.875	-0.118	0.089
-498.624	-11.975	0.077	0.050
-497.610	-170.189	-0.140	-0.005
-496.595	200.809	0.134	-0.203
-495.581	63.233	0.124	0.123
-494.566	168.370	-0.103	0.145
-493.551	239.275	-0.015	0.025
-492.537	693.662	-0.063	-0.163
-491.522	520.237	-0.068	0.156
-490.508	702.000	0.073	-0.191
-489.493	-132.117	0.581	-0.075
-488.478	23.342	-0.275	-0.223
-487.464	800.000	0.088	-0.289
-486.449	-183.496	0.406	-0.007
-485.435	-200.000	-0.012	-0.207
-484.420	-134.511	0.146	-0.018
-483.405	167.788	0.155	-0.218
-482.391	-63.970	0.333	-0.134
-481.376	-38.112	-0.324	-0.170
-480.362	-155.385	0.370	-0.024
-479.347	66.712	-0.206	-0.206
-478.332	2.931	0.019	0.014
-477.318	-75.190	0.111	-0.039
-476.303	393.543	-0.068	-0.140
-475.289	116.361	-0.098	0.118
-474.274	-113.309	-0.191	0.037
-473.259	-160.448	-0.179	-0.009
-472.245	145.446	0.057	-0.075
-471.230	800.000	0.081	-0.317
-470.216	249.212	-0.245	-0.409
-469.201	-152.148	-0.344	-0.025
-468.186	-146.455	0.145	0.012
-467.172	-13.331	0.215	0.138
-466.157	118.363	-0.155	-0.189
-465.143	78.177	0.033	0.035
-464.128	-105.299	-0.146	0.033
-463.113	800.000	0.087	0.252
-462.099	4.390	0.174	-0.126
-461.084	-36.840	-0.071	-0.038
-460.070	177.880	0.033	-0.047
-459.055	3.801	-0.312	-0.225
-458.040	74.320	-0.396	-0.411
-457.026	-112.692	0.113	-0.022
-456.011	-200.000	-0.051	-0.286
-454.997	800.000	0.059	-0.215
-453.982	-24.637	-0.178	0.104
-452.968	-200.000	-0.032	0.147
-451.953	-200.000	-0.024	0.158
-450.938	1.797	-0.097	0.069
-449.924	-102.453	-0.249	-0.059
-448.909	-27.121	-0.261	-0.150
-447.895	-157.213	0.190	-0.011
-446.880	-160.503	-0.087	0.005
-445.865	245.421	0.077	0.127
-444.851	-87.791	-0.359	0.107
-443.836	-200.000	-0.007	-0.153
-442.822	800.000	0.059	0.193
-441.807	328.809	-0.030	0.057
-440.792	632.610	-0.060	0.150
-439.778	-47.163	0.167	0.080
-438.763	774.717	0.151	0.406
-437.749	-184.227	0.157	0.003
-436.734	398.062	0.080	0.165
-435.719	-8.614	-0.119	0.079
-434.705	-55.643	0.053	-0.024
-433.690	-16.007	0.257	0.161
-432.676	69.189	-0.181	-0.183
-431.661	1.302	-0.244	0.173
-430.646	97.969	0.251	-0.285
-429.632	117.758	0.103	0.125
-428.617	-14.695	-0.047	0.030
-427.603	106.057	-0.346	-0.403
-426.588	-41.629	0.093	0.047
-425.573	-200.000	-0.175	0.000
-424.559	-200.000	0.002	0.024
-423.544	-200.000	0.013	0.126
-422.530	-185.632	-0.209	-0.003
-421.515	-200.000	0.003	0.409
-420.500	372.812	0.108	0.217
-419.486	193.897	0.185	0.276
-418.471	-4.588	-0.022	0.015
-417.457	-200.000	0.081	0.429
-416.442	-35.273	-0.038	0.020
-415.428	89.423	-0.203	-0.223
-414.413	24.632	0.258	0.210
-413.398	173.710	-0.030	0.043
-412.384	-200.000	0.051	0.245
-411.369	-200.000	-0.007	0.260
-410.355	-45.782	0.238	-0.116
-409.340	281.765	-0.065	-0.115
-408.325	52.494	0.151	-0.142
-407.311	682.379	-0.072	0.185
-406.296	-44.893	0.088	0.043
-405.282	-131.683	-0.316	-0.041
-404.267	43.227	-0.304	-0.273
-403.252	800.000	-0.031	-0.117
-402.238	531.789	-0.033	0.077
-401.223	-200.000	-0.020	0.254
-400.209	-91.412	0.204	-0.057
-399.194	-200.000	0.044	-0.275
-398.179	492.557	-0.029	0.066
-397.165	-39.351	-0.508	0.262
-396.150	-103.259	-0.013	0.003
-395.136	-200.000	-0.027	0.396
-394.121	-82.679	-0.400	0.127
-393.106	-119.505	0.195	0.033
-392.092	-92.562	0.052	-0.014
-391.077	73.055	0.198	-0.203
-390.063	25.674	-0.233	0.191
-389.048	-200.000	0.046	0.210
-388.033	134.465	0.077	0.098
-387.019	-200.000	0.037	-0.206
-386.004	800.000	0.037	-0.109
-384.990	-143.699	0.247	0.023
-383.975	2.116	-0.132	-0.093
-382.960	67.439	-0.154	-0.155
-381.946	-152.780	-0.229	-0.016
-380.931	13.332	-0.233	0.178
-379.917	-92.030	0.284	-0.079
-378.902	275.971	-0.067	-0.117
-377.888	-58.534	-0.099	-0.042
-376.873	-81.669	-0.058	-0.019
-375.858	114.789	-0.044	0.053
-374.844	800.000	0.104	0.395
-373.829	44.510	-0.239	0.216
-372.815	217.084	-0.176	0.275
-371.800	276.395	-0.076	-0.132
-370.785	21.164	0.027	0.022
-369.771	97.928	-0.270	0.305
-368.756	27.951	0.245	0.203
-367.742	413.907	0.049	0.103
-366.727	-87.736	0.310	-0.092
-365.712	-53.032	0.280	0.126
-364.698	81.620	-0.137	0.146
-363.683	-30.922	0.217	-0.121
-362.669	-14.265	-0.104	0.066
-361.654	560.003	-0.025	0.060
-360.639	14.995	-0.068	0.052
-359.625	-168.283	0.168	0.006
-358.610	223.201	-0.050	-0.078
-357.596	224.787	0.067	0.107
-356.581	-200.000	-0.038	0.196
-355.566	-102.968	-0.389	-0.091
-354.552	800.000	0.032	0.101
-353.537	-131.349	-0.146	-0.019
-352.523	62.493	-0.092	0.091
-351.508	-12.501	0.111	-0.071
-350.493	-200.000	0.003	0.018
-349.479	800.000	0.096	0.275
-348.464	-54.353	-0.163	0.072
-347.450	-135.619	0.275	0.032
-346.435	753.738	-0.006	0.017
-345.420	-90.568	0.134	0.038
-344.406	678.356	-0.069	0.176
-343.391	62.200	0.062	-0.060
-342.377	-56.273	-0.287	-0.125
-341.362	-21.361	0.152	-0.091
-340.348	85.946	0.155	0.167
-339.333	286.546	-0.072	-0.128
-338.318	-115.891	0.373	-0.068
-337.304	161.274	-0.151	-0.207
-336.289	-200.000	0.015	0.230
-335.275	13.339	-0.208	-0.159
-334.260	-200.000	0.047	0.380
-333.245	-188.496	0.231	0.003
-332.231	-200.000	-0.001	-0.125
-331.216	339.854	-0.127	0.242
-330.202	-200.000	0.019	0.442
-329.187	250.378	0.071	-0.119
-328.172	-117.382	-0.285	0.051
-327.158	18.197	0.138	-0.108
-326.143	17.761	-0.121	-0.094
-325.129	-187.942	0.186	-0.002
-324.114	73.685	-0.176	0.181
-323.099	-18.745	-0.217	0.133
-322.085	-139.904	0.220	-0.023
-321.070	31.126	0.178	0.150
-320.056	-29.354	-0.233	0.131
-319.041	-75.224	0.243	0.085
-318.026	-98.989	-0.147	-0.037
-317.012	-73.640	0.370	0.132
-315.997	285.847	0.083	-0.146
-314.983	-62.728	0.198	0.080
-313.968	800.000	-0.020	0.084
-312.953	-200.000	0.023	-0.267
-311.939	-37.204	-0.210	-0.110
-310.924	43.409	-0.245	0.220
-309.910	-104.988	0.202	-0.046
-308.895	-34.427	-0.056	-0.030
-307.880	235.437	0.191	-0.309
-306.866	-200.000	-0.088	0.552
-305.851	94.465	-0.082	-0.091
-304.837	-37.553	0.008	-0.004
-303.822	-200.000	-0.013	0.257
-302.807	51.275	0.151	-0.140
-301.793	56.553	-0.133	0.127
-300.778	-21.349	-0.116	-0.069
-299.764	-200.000	-0.021	0.163
-298.749	366.222	-0.129	0.254
-297.735	64.157	-0.094	0.093
-296.720	418.374	-0.130	0.272
-295.705	75.458	-0.056	-0.058
-294.691	155.993	0.203	0.275
-293.676	261.151	-0.087	-0.147
-292.662	-106.228	0.164	0.036
-291.647	800.000	0.056	-0.239
-290.632	25.336	0.237	-0.193
-289.618	-13.278	0.019	0.012
-288.603	654.492	0.052	0.131
-287.589	-58.263	0.380	-0.162
-286.574	-17.887	-0.176	0.108
-285.559	800.000	0.084	0.335
-284.545	-18.274	0.205	0.125
-283.530	335.899	-0.127	0.242
-282.516	-167.776	0.261	0.010
-281.501	210.007	0.074	0.113
-280.486	-112.282	-0.125	0.024
-279.472	-155.752	0.119	0.007
-278.457	135.976	-0.087	-0.111
-277.443	-183.549	-0.107	0.002
-276.428	-80.477	-0.296	-0.097
-275.413	49.627	-0.101	0.093
-274.399	800.000	0.059	-0.196
-273.384	-30.295	0.107	0.060
-272.370	27.209	0.160	-0.131
-271.355	41.715	0.169	0.150
-270.340	417.077	0.138	-0.288
-269.326	-200.000	0.023	0.184
-268.311	-31.429	0.290	-0.160
-267.297	182.008	0.101	-0.146
-266.282	800.000	-0.028	0.090
-265.267	183.878	0.089	-0.129
-264.253	-200.000	0.016	-0.078
-263.238	800.000	0.088	0.249
-262.224	-200.000	0.050	-0.323
-261.209	-42.223	0.073	0.037
-260.195	617.114	0.057	-0.141
-259.180	-14.357	0.445	0.281
-258.165	704.837	-0.102	0.264
-257.151	-92.569	0.316	0.087
-256.136	327.476	-0.163	-0.306
-255.122	597.032	0.036	-0.087
-254.107	-200.000	0.033	0.305
-253.092	-149.462	-0.311	-0.024
-252.078	-200.000	0.048	-0.217
-251.063	-71.029	0.304	0.112
-250.049	800.000	-0.043	0.152
-249.034	800.000	-0.081	-0.234
-248.019	-16.645	-0.426	0.264
-247.005	-39.179	0.206	0.106
-245.990	-23.363	0.610	0.358
-244.976	-64.262	-0.108	0.043
-243.961	96.303	0.079	-0.089
-242.946	-3.385	0.121	0.082
-241.932	800.000	0.058	0.199
-240.917	800.000	-0.116	-0.450
-239.903	-200.000	0.021	0.142
-238.888	-200.000	0.064	-0.337
-237.873	-44.892	-0.075	-0.036
-236.859	-200.000	-0.042	-0.193
-235.844	310.618	0.184	-0.336
-234.830	800.000	0.100	-0.424
-233.815	-152.661	-0.232	-0.016
-232.800	-99.445	0.362	0.089
-231.786	-63.225	0.236	0.095
-230.771	-54.079	0.384	0.171
-229.757	800.000	0.030	0.080
-228.742	-180.357	-0.125	0.003
-227.727	-100.217	0.189	-0.046
-226.713	180.079	-0.031	0.044
-225.698	800.000	0.134	0.488
-224.684	-14.469	-0.295	-0.186
-223.669	-64.558	0.250	-0.099
-222.655	157.353	-0.055	-0.075
-221.640	-33.401	0.149	-0.081
-220.625	155.834	-0.171	0.230
-219.611	-200.000	-0.006	0.126
-218.596	-125.580	-0.346	0.051
-217.582	632.443	0.120	-0.297
-216.567	800.000	0.076	-0.302
-215.552	-200.000	-0.010	0.242
-214.538	-200.000	0.015	-0.294
-213.523	518.444	0.088	-0.202
-212.509	-169.278	-0.112	0.004
-211.494	-109.054	-0.235	-0.049
-210.479	138.767	-0.133	-0.171
-209.465	-40.001	0.207	-0.105
-208.450	20.908	-0.098	-0.077
-207.436	-166.454	0.167	-0.007
-206.421	-200.000	-0.002	0.185
-205.406	-200.000	0.041	-0.175
-204.392	-60.772	0.118	0.049
-203.377	-95.552	0.375	0.098
-202.363	-35.295	-0.317	-0.169
-201.348	800.000	-0.048	0.165
-200.333	-32.475	0.101	0.055
-199.319	319.442	-0.086	0.160
-198.304	-19.386	-0.119	-0.072
-197.290	-109.610	-0.071	-0.015
-196.275	800.000	0.039	-0.124
-195.260	-41.313	-0.106	0.053
-194.246	-86.079	-0.222	0.067
-193.231	-200.000	-0.001	0.296
-192.217	340.404	0.165	-0.315
-191.202	800.000	-0.049	-0.196
-190.187	800.000	-0.095	-0.279
-189.173	-200.000	0.068	0.382
-188.158	-83.006	0.184	0.058
-187.144	800.000	0.057	0.196
-186.129	-200.000	0.021	0.226
-185.114	730.861	0.106	0.277
-184.100	-118.644	-0.191	0.033
-183.085	-141.876	0.160	-0.016
-182.071	90.290	-0.029	-0.032
-181.056	85.261	0.135	-0.145
-180.042	33.697	0.206	0.174
-179.027	-39.860	-0.462	0.235
-178.012	-200.000	0.014	-0.219
-176.998	-200.000	-0.019	0.122
-175.983	-20.046	0.088	-0.053
-174.969	-55.523	0.199	-0.087
-173.954	104.271	-0.095	-0.109
-172.939	-200.000	-0.001	-0.023
-171.925	-200.000	-0.002	0.135
-170.910	207.410	0.157	0.238
-169.896	245.386	0.138	-0.226
-168.881	-200.000	-0.051	-0.224
-167.866	437.683	-0.132	-0.281
-166.852	-123.750	0.193	0.030
-165.837	14.755	-0.064	0.049
-164.823	-18.941	-0.127	-0.077
-163.808	-166.234	-0.392	-0.016
-162.793	-25.262	0.137	-0.079
-161.779	271.320	-0.106	-0.182
-160.764	800.000	0.074	-0.232
-159.750	161.901	0.120	0.163
-158.735	185.833	0.090	0.131
-157.720	-130.359	0.374	-0.050
-156.706	126.478	-0.118	0.146
-155.691	-85.312	0.331	0.101
-154.677	-82.351	-0.177	0.056
-153.662	-56.073	0.222	0.096
-152.647	204.361	-0.084	0.127
-151.633	800.000	0.158	-0.424
-150.618	-15.240	0.211	-0.132
-149.604	800.000	-0.048	0.167
-148.589	382.298	0.124	0.249
-147.574	-134.736	-0.110	0.013
-146.560	28.617	0.247	-0.204
-145.545	-127.612	-0.445	-0.063
-144.531	-112.637	0.143	0.028
-143.516	761.849	0.051	0.135
-142.502	800.000	0.055	0.208
-141.487	-22.748	-0.183	0.107
-140.472	-110.229	0.013	-0.003
-139.458	-15.198	0.178	0.111
-138.443	-47.591	0.173	0.082
-137.429	-18.465	0.239	0.145
-136.414	539.815	-0.060	0.139
-135.399	779.417	-0.046	-0.123
-134.385	170.410	-0.165	-0.230
-133.370	88.084	-0.258	-0.279
-132.356	34.789	-0.113	0.096
-131.341	-144.672	-0.106	0.010
-130.326	6.966	-0.062	-0.045
-129.312	-77.068	0.407	-0.138
-128.297	800.000	0.099	-0.333
-127.283	-12.117	-0.197	0.125
-126.268	-200.000	-0.012	0.234
-125.253	-131.533	-0.334	0.043
-124.239	-101.022	0.376	-0.090
-123.224	-104.180	-0.169	0.038
-122.210	-136.637	-0.274	0.031
-121.195	84.484	-0.197	0.210
-120.180	71.935	0.196	0.199
-119.166	-95.744	0.095	-0.025
-118.151	54.797	0.221	-0.207
-117.137	85.777	0.103	0.111
-116.122	-101.918	-0.436	-0.103
-115.107	-200.000	-0.042	0.349
-114.093	-200.000	-0.006	-0.199
-113.078	800.000	0.130	0.378
-112.064	244.590	-0.229	-0.374
-111.049	129.858	-0.256	-0.318
-110.034	129.616	0.162	0.201
-109.020	-200.000	0.015	-0.290
-108.005	-40.438	-0.152	-0.077
-106.991	800.000	0.089	-0.302
-105.976	33.163	0.109	0.092
-104.962	-92.634	0.248	0.068
-103.947	-108.356	-0.315	0.066
-102.932	-13.177	-0.341	-0.215
-101.918	-200.000	-0.050	-0.240
-100.903	414.659	0.050	-0.105
-99.889	101.188	0.092	-0.104
-98.874	159.376	-0.328	-0.443
-97.859	92.934	-0.031	0.034
-96.845	-83.186	-0.348	-0.109
-95.830	-126.017	0.212	0.031
-94.816	-200.000	0.002	-0.181
-93.801	139.814	-0.209	-0.268
-92.786	18.552	0.163	0.127
-91.772	800.000	0.049	-0.159
-90.757	190.932	-0.146	0.214
-89.743	-105.831	0.268	0.059
-88.728	161.649	0.068	-0.092
-87.713	-76.385	0.166	-0.057
-86.699	-36.243	-0.360	0.189
-85.684	-200.000	0.034	-0.186
-84.670	-106.632	0.283	0.061
-83.655	94.461	-0.114	0.126
-82.640	-97.150	-0.253	-0.064
-81.626	-109.851	-0.305	-0.062
-80.611	122.507	-0.119	-0.144
-79.597	-129.622	0.308	0.041
-78.582	-107.850	0.089	-0.019
-77.567	196.547	-0.015	0.022
-76.553	-48.591	-0.238	0.111
-75.538	39.541	0.160	-0.140
-74.524	195.130	-0.188	-0.277
-73.509	54.966	-0.110	-0.103
-72.494	-101.412	0.099	0.023
-71.480	-106.437	0.509	-0.110
-70.465	-113.087	0.191	0.037
-69.451	-96.512	0.062	0.016
-68.436	62.584	0.145	-0.141
-67.422	-87.730	0.403	-0.118
-66.407	-141.365	0.107	-0.011
-65.392	268.476	-0.047	0.079
-64.378	800.000	-0.005	0.022
-63.363	303.087	-0.059	-0.107
-62.349	-27.507	0.591	0.334
-61.334	57.896	-1.076	-1.023
-60.319	123.332	0.586	0.714
-59.305	406.464	-0.591	-1.213
-58.290	235.514	0.963	1.545
-57.276	800.000	0.538	1.532
-56.261	-200.000	131.104	648.833
-55.246	348.086	1656.741	3171.080
-54.232	132.094	2827.670	3535.658
-53.217	84.503	2333.917	2479.397
-52.203	30.735	1924.413	1599.301
-51.188	24.526	1716.246	1378.482
-50.173	22.614	1676.145	1331.793
-49.159	44.013	1748.481	1555.717
-48.144	41.319	1759.278	1544.419
-47.130	24.059	1709.696	1369.415
-46.115	21.649	1693.432	1337.946
-45.100	21.466	1688.466	1332.571
-44.086	21.464	1685.849	1330.442
-43.071	21.445	1683.455	1328.351
-42.057	21.504	1681.233	1326.994
-41.042	21.561	1679.256	1325.816
-40.027	21.500	1677.258	1323.725
-39.013	21.459	1675.493	1321.968
-37.998	21.469	1673.940	1320.761
-36.984	21.554	1672.490	1320.209
-35.969	21.511	1671.118	1318.752
-34.954	21.682	1668.863	1318.203
-33.940	21.626	1667.126	1316.357
-32.925	21.548	1665.759	1314.641
-31.911	21.515	1664.488	1313.342
-30.896	21.639	1662.280	1312.478
-29.881	21.567	1660.848	1310.750
-28.867	21.555	1659.353	1309.432
-27.852	21.624	1657.748	1308.628
-26.838	21.601	1656.623	1307.518
-25.823	21.666	1655.229	1306.851
-24.809	21.696	1653.485	1305.642
-23.794	21.678	1651.967	1304.262
-22.779	21.605	1651.341	1303.167
-21.765	21.663	1649.307	1301.943
-20.750	21.509	1648.292	1299.949
-19.736	21.703	1646.499	1299.923
-18.721	21.726	1645.021	1298.874
-17.706	21.629	1643.293	1296.741
-16.692	21.614	1642.257	1295.759
-15.677	21.617	1640.485	1294.331
-14.663	21.673	1639.894	1294.227
-13.648	21.721	1638.039	1293.064
-12.633	21.732	1636.456	1291.848
-11.619	21.648	1634.736	1289.819
-10.604	21.605	1633.858	1288.758
-9.590	21.570	1632.061	1287.033
-8.575	21.612	1630.638	1286.169
-7.560	21.647	1629.503	1285.481
-6.546	21.717	1628.427	1285.095
-5.531	21.572	1627.871	1283.540
-4.517	21.600	1626.677	1282.755
-3.502	21.568	1625.306	1281.387
-2.487	21.691	1623.742	1281.002
-1.473	21.560	1611.907	1270.663
-0.458	19.194	1592.826	1238.577
0.556	14.822	1596.474	1211.876
1.571	12.881	1620.852	1215.968
2.586	12.582	1632.582	1222.439
3.600	11.652	1577.843	1174.668
4.615	6.561	1470.379	1060.397
5.629	1.499	1412.800	986.010
6.644	0.658	1405.878	975.662
7.659	0.617	1404.165	974.127
8.673	0.592	1404.048	973.796
9.688	0.513	1401.627	971.521
10.702	0.355	1398.122	967.994
11.717	2.844	1400.295	985.401
12.731	9.117	1410.502	1032.959
13.746	14.772	1419.554	1076.011
14.761	17.003	1421.551	1091.804
15.775	16.463	1420.300	1087.271
16.790	15.466	1417.571	1078.685
17.804	14.721	1415.245	1072.043
18.819	14.422	1413.326	1068.573
19.834	14.099	1412.283	1065.619
20.848	13.801	1411.275	1062.861
21.863	13.610	1409.899	1060.504
22.877	13.424	1409.072	1058.597
23.892	13.355	1408.069	1057.311
24.907	13.358	1406.832	1056.310
25.921	13.451	1405.249	1055.620
26.936	13.421	1404.832	1055.025
27.950	13.474	1404.400	1054.940
28.965	13.582	1402.910	1054.417
29.980	13.510	1402.791	1053.773
30.994	13.611	1401.161	1053.103
32.009	13.695	1399.617	1052.382
33.023	13.544	1399.293	1051.085
34.038	13.678	1397.112	1050.199
35.053	13.587	1396.256	1048.889
36.067	13.566	1395.140	1047.826
37.082	13.526	1394.479	1046.983
38.096	13.565	1393.203	1046.179
39.111	13.611	1392.686	1045.987
40.126	13.553	1391.998	1045.015
41.140	13.489	1391.074	1043.822
42.155	13.514	1390.524	1043.476
43.169	13.409	1390.590	1042.770
44.184	13.491	1390.332	1043.004
45.199	13.373	1390.264	1042.118
46.213	13.541	1388.823	1041.999
47.228	13.554	1388.063	1041.418
48.242	13.488	1386.923	1040.056
49.257	13.518	1385.241	1038.896
50.271	13.463	1383.680	1037.287
51.286	13.511	1382.831	1036.861
52.301	13.475	1381.282	1035.379
53.315	13.528	1380.458	1035.000
54.330	13.472	1379.321	1033.707
55.344	13.365	1378.276	1032.165
56.359	13.458	1377.052	1031.740
57.374	13.359	1376.061	1030.287
58.388	13.343	1375.861	1029.949
59.403	13.439	1374.750	1029.621
60.417	13.429	1374.101	1028.980
61.432	13.355	1373.375	1027.890
62.447	13.284	1372.803	1026.929
63.461	13.256	1371.450	1025.650
64.476	13.379	1370.052	1025.277
65.490	13.302	1368.882	1023.836
66.505	13.259	1367.603	1022.519
67.520	13.505	1365.698	1022.524
68.534	13.368	1365.310	1021.297
69.549	13.448	1363.179	1020.104
70.563	13.455	1362.522	1019.568
71.578	13.356	1361.526	1018.125
72.593	13.250	1360.881	1016.901
73.607	13.303	1359.577	1016.162
74.622	13.255	1358.690	1015.113
75.636	13.384	1358.266	1015.499
76.651	13.373	1356.920	1014.333
77.666	13.336	1356.569	1013.754
78.680	13.315	1355.989	1013.104
79.695	13.456	1354.859	1013.031
80.709	13.462	1354.427	1012.654
81.724	13.381	1353.402	1011.308
82.739	13.505	1352.581	1011.357
83.753	13.447	1351.528	1010.126
84.768	13.444	1350.224	1009.046
85.782	13.605	1349.084	1009.087
86.797	13.491	1347.781	1007.329
87.812	13.491	1346.463	1006.257
88.826	13.470	1345.476	1005.299
89.841	13.528	1344.230	1004.634
90.855	13.567	1343.619	1004.324
91.870	13.559	1342.466	1003.327
92.884	13.549	1341.166	1002.201
93.899	13.572	1340.855	1002.019
94.914	13.656	1339.901	1001.730
95.928	13.634	1339.182	1000.969
96.943	13.614	1338.135	999.978
97.957	13.571	1337.027	998.802
98.972	13.516	1336.561	998.033
99.987	13.633	1334.942	997.437
101.001	13.520	1334.273	996.172
102.016	13.515	1333.327	995.350
103.030	13.556	1332.441	994.845
104.045	13.636	1331.357	994.429
105.060	13.572	1330.314	993.178
106.074	13.458	1329.009	991.429
107.089	13.361	1328.021	990.027
108.103	13.457	1326.430	989.325
109.118	13.563	1325.030	988.829
110.133	13.488	1323.555	987.194
111.147	13.499	1322.714	986.540
112.162	13.430	1320.949	984.726
113.176	13.502	1319.988	984.353
114.191	13.612	1318.657	983.924
115.206	13.596	1317.788	983.098
116.220	13.499	1316.227	981.272
117.235	13.504	1315.482	980.657
118.249	13.530	1314.357	979.887
119.264	13.412	1313.362	978.361
120.279	13.486	1312.307	977.922
121.293	13.510	1311.419	977.319
122.308	13.512	1310.453	976.525
123.322	13.402	1309.351	974.970
124.337	13.459	1308.301	974.432
125.352	13.528	1306.698	973.559
126.366	13.560	1305.404	972.700
127.381	13.547	1304.676	971.990
128.395	13.494	1303.398	970.646
129.410	13.502	1302.430	969.886
130.424	13.569	1301.471	969.479
131.439	13.497	1300.857	968.514
132.454	13.468	1299.694	967.393
133.468	13.467	1298.748	966.596
134.483	13.438	1298.172	965.914
135.497	13.407	1297.150	964.884
136.512	13.506	1295.220	963.942
137.527	13.456	1294.074	962.710
138.541	13.577	1292.417	962.097
139.556	13.599	1290.887	961.001
140.570	13.545	1290.330	960.187
141.585	13.592	1289.189	959.525
142.600	13.677	1287.693	958.818
143.614	13.648	1286.840	957.930
144.629	13.668	1285.855	957.230
145.643	13.792	1284.358	956.744
146.658	13.641	1283.678	955.282
147.673	13.698	1281.935	954.228
148.687	13.682	1280.934	953.308
149.702	13.697	1279.614	952.329
150.716	13.680	1278.040	950.974
151.731	13.661	1277.261	950.205
152.746	13.655	1275.836	949.023
153.760	13.747	1274.444	948.433
154.775	13.741	1273.828	947.855
155.789	13.718	1272.512	946.658
156.804	13.695	1271.309	945.551
157.819	13.803	1270.105	945.184
158.833	13.856	1269.395	944.877
159.848	13.868	1268.533	944.221
160.862	13.834	1267.502	943.175
161.877	13.859	1266.119	942.204
162.892	13.764	1265.498	941.117
163.906	13.711	1264.330	939.868
164.921	13.760	1263.394	939.365
165.935	13.902	1262.575	939.480
166.950	13.828	1261.625	938.267
167.964	13.911	1260.916	938.129
168.979	13.889	1260.373	937.517
169.994	13.815	1259.475	936.347
171.008	13.914	1258.120	935.814
172.023	13.841	1257.602	934.938
173.037	13.910	1257.063	934.843
174.052	13.973	1255.716	934.109
175.067	13.999	1254.833	933.517
176.081	13.823	1254.315	932.063
177.096	13.931	1252.970	931.585
178.110	13.980	1251.836	930.932
179.125	14.079	1249.954	930.005
180.140	13.988	1249.284	928.914
181.154	14.063	1247.704	928.075
182.169	14.108	1246.160	927.098
183.183	14.008	1245.961	926.308
184.198	14.054	1244.655	925.512
185.213	14.050	1243.598	924.626
186.227	14.096	1242.174	923.739
187.242	14.140	1241.216	923.188
188.256	14.164	1240.083	922.398
189.271	14.098	1239.117	921.233
190.286	14.054	1238.208	920.232
191.300	14.056	1237.454	919.598
192.315	14.059	1236.448	918.791
193.329	14.086	1235.761	918.348
194.344	14.143	1235.126	918.109
195.359	14.072	1234.747	917.352
196.373	14.166	1234.193	917.376
197.388	14.185	1233.318	916.751
198.402	14.199	1233.087	916.577
199.417	14.370	1232.033	916.653
200.432	14.355	1231.724	916.255
201.446	14.313	1230.591	915.102
202.461	14.284	1229.626	914.148
203.475	14.464	1228.135	913.941
204.490	14.310	1227.000	912.173
205.504	14.315	1226.227	911.546
206.519	14.431	1224.758	911.006
207.534	14.404	1223.081	909.533
208.548	14.245	1222.634	908.250
209.563	14.379	1221.868	908.332
210.577	14.359	1221.033	907.525
211.592	14.396	1220.164	907.001
212.607	14.496	1219.236	906.770
213.621	14.497	1218.351	906.038
214.636	14.394	1217.607	904.848
215.650	14.459	1216.348	904.183
216.665	14.552	1215.491	903.970
217.680	14.562	1214.515	903.218
218.694	14.570	1213.709	902.581
219.709	14.543	1213.090	901.899
220.723	14.570	1212.098	901.226
221.738	14.598	1211.741	901.031
222.753	14.651	1210.704	900.465
223.767	14.647	1210.266	900.040
224.782	14.704	1209.119	899.413
225.796	14.662	1208.609	898.730
226.811	14.717	1207.807	898.348
227.826	14.733	1207.029	897.775
228.840	14.711	1206.462	897.158
229.855	14.810	1205.581	896.956
230.869	14.691	1204.792	895.648
231.884	14.707	1204.327	895.309
232.899	14.708	1203.293	894.465
233.913	14.622	1202.712	893.496
234.928	14.625	1202.183	893.038
235.942	14.754	1201.446	893.105
236.957	14.818	1200.235	892.467
237.972	14.667	1199.623	891.127
238.986	14.693	1199.249	890.909
240.001	14.825	1197.974	890.584
241.015	14.749	1197.058	889.422
242.030	14.780	1196.446	889.053
243.045	14.799	1195.696	888.518
244.059	14.829	1194.942	888.037
245.074	14.820	1194.167	887.337
246.088	14.844	1193.507	886.893
247.103	14.948	1192.314	886.482
248.117	15.001	1191.605	886.156
249.132	15.041	1191.033	885.863
250.147	15.044	1190.233	885.205
251.161	15.059	1189.598	884.734
252.176	15.058	1188.762	884.030
253.190	15.089	1188.298	883.769
254.205	15.163	1187.878	883.768
255.220	15.078	1187.013	882.600
256.234	15.203	1186.077	882.484
257.249	15.158	1185.595	881.809
258.263	15.224	1184.690	881.405
259.278	15.038	1184.433	880.157
260.293	15.265	1183.415	880.519
261.307	15.276	1182.854	880.081
262.322	15.309	1182.247	879.721
263.336	15.251	1181.824	879.028
264.351	15.323	1180.692	878.483
265.366	15.315	1180.113	877.931
266.380	15.394	1179.561	877.860
267.395	15.427	1178.357	877.055
268.409	15.290	1177.977	875.979
269.424	15.249	1177.449	875.299
270.439	15.371	1176.646	875.258
271.453	15.375	1176.136	874.825
272.468	15.445	1174.746	874.076
273.482	15.325	1173.725	872.614
274.497	15.436	1173.489	872.938
275.512	15.392	1173.060	872.314
276.526	15.492	1171.931	871.920
277.541	15.452	1171.222	871.106
278.555	15.490	1170.530	870.711
279.570	15.526	1169.864	870.322
280.585	15.518	1168.679	869.326
281.599	15.542	1168.186	869.005
282.614	15.513	1167.336	868.143
283.628	15.529	1165.942	867.115
284.643	15.620	1164.867	866.709
285.657	15.569	1164.211	865.882
286.672	15.556	1163.429	865.156
287.687	15.604	1162.646	864.742
288.701	15.653	1161.719	864.228
289.716	15.594	1161.155	863.430
290.730	15.683	1159.888	862.866
291.745	15.687	1159.443	862.483
292.760	15.734	1158.549	861.979
293.774	15.751	1158.356	861.848
294.789	15.749	1157.794	861.344
295.803	15.719	1156.839	860.402
296.818	15.784	1155.964	860.007
297.833	15.707	1155.441	859.151
298.847	15.807	1154.442	858.841
299.862	15.875	1153.793	858.632
300.876	15.822	1153.072	857.745
301.891	15.929	1152.073	857.475
302.906	15.746	1151.972	856.390
303.920	15.822	1151.519	856.365
304.935	15.976	1150.277	856.146
305.949	15.988	1149.893	855.849
306.964	16.038	1148.953	855.324
307.979	15.956	1148.034	854.148
308.993	15.930	1147.358	853.442
310.008	16.023	1146.424	853.142
311.022	16.067	1145.871	852.874
312.037	16.062	1144.987	852.115
313.052	16.116	1144.025	851.601
314.066	16.055	1142.777	850.287
315.081	16.101	1142.306	850.094
316.095	16.019	1141.588	849.072
317.110	16.127	1140.653	848.845
318.125	15.969	1140.457	847.829
319.139	15.985	1139.542	847.152
320.154	16.016	1139.186	846.968
321.168	16.041	1138.131	846.236
322.183	16.168	1137.718	846.488
323.197	16.121	1136.928	845.590
324.212	16.130	1136.353	845.137
325.227	16.188	1135.824	844.956
326.241	16.120	1135.160	844.046
327.256	16.186	1134.248	843.624
328.270	16.182	1133.094	842.674
329.285	16.163	1132.394	841.981
330.300	16.228	1131.304	841.420
331.314	16.118	1130.355	840.092
332.329	16.246	1129.213	839.807
333.343	16.206	1128.875	839.283
334.358	16.357	1127.634	839.036
335.373	16.262	1127.119	838.108
336.387	16.175	1126.578	837.200
337.402	16.258	1125.681	836.870
338.416	16.158	1124.986	835.784
339.431	16.375	1124.398	836.346
340.446	16.409	1123.504	835.774
341.460	16.525	1123.127	835.995
342.475	16.407	1121.834	834.377
343.489	16.598	1121.028	834.647
344.504	16.524	1120.129	833.538
345.519	16.579	1119.188	833.033
346.533	16.535	1118.406	832.161
347.548	16.588	1117.801	831.898
348.562	16.660	1116.991	831.575
349.577	16.566	1116.307	830.530
350.592	16.638	1115.162	829.959
351.606	16.628	1114.944	829.674
352.621	16.520	1113.933	828.317
353.635	16.457	1113.543	827.646
354.650	16.455	1112.852	827.051
355.665	16.591	1111.717	826.800
356.679	16.670	1111.120	826.669
357.694	16.676	1110.439	826.118
358.708	16.624	1110.171	825.592
359.723	16.746	1108.740	825.049
360.738	16.653	1108.792	824.561
361.752	16.599	1108.258	823.827
362.767	16.665	1107.491	823.504
363.781	16.695	1106.865	823.112
364.796	16.665	1106.407	822.556
365.810	16.916	1105.355	822.917
366.825	16.895	1104.756	822.298
367.840	16.905	1104.368	821.985
368.854	16.949	1103.752	821.665
369.869	16.943	1103.052	821.044
370.883	16.861	1102.096	819.862
371.898	16.871	1101.438	819.348
372.913	16.961	1100.424	818.955
373.927	16.943	1100.432	818.804
374.942	17.110	1099.659	818.962
375.956	17.024	1099.089	818.050
376.971	17.017	1098.624	817.597
377.986	17.050	1098.104	817.297
379.000	17.071	1097.290	816.718
380.015	17.083	1097.067	816.539
381.029	17.109	1096.560	816.214
382.044	17.069	1095.539	815.189
383.059	17.182	1094.700	815.037
384.073	17.210	1093.559	814.246
385.088	17.237	1092.827	813.762
386.102	17.178	1092.082	812.853
387.117	17.178	1090.897	811.898
388.132	17.188	1089.991	811.198
389.146	17.117	1089.380	810.334
390.161	17.196	1088.417	809.924
391.175	17.235	1087.687	809.493
392.190	17.206	1087.623	809.238
393.205	17.270	1086.797	808.855
394.219	17.282	1085.892	808.166
395.234	17.184	1085.113	807.050
396.248	17.291	1083.669	806.413
397.263	17.249	1083.005	805.648
398.278	17.303	1082.258	805.278
399.292	17.261	1081.616	804.526
400.307	17.248	1081.088	804.004
401.321	17.354	1080.322	803.864
402.336	17.303	1079.532	802.963
403.350	17.271	1078.638	802.078
404.365	17.440	1078.061	802.373
405.380	17.366	1077.932	801.859
406.394	17.468	1076.307	801.057
407.409	17.496	1075.663	800.639
408.423	17.556	1074.971	800.335
409.438	17.421	1074.780	799.487
410.453	17.467	1073.565	798.730
411.467	17.654	1072.967	799.090
412.482	17.583	1072.320	798.206
413.496	17.642	1071.670	797.927
414.511	17.628	1071.352	797.553
415.526	17.575	1071.109	797.056
416.540	17.715	1070.222	796.978
417.555	17.731	1069.359	796.341
418.569	17.758	1069.068	796.178
419.584	17.749	1068.679	795.778
420.599	17.640	1067.873	794.599
421.613	108.660	1332.169	1488.749
422.628	100.526	1370.598	1488.837
