DTS Sentinel unit serial number:	SN413079Multiplexer serial number:	ORYXHardware model number:	OX4-SRSoftware version number:	ORYX F/W v4.00 Oryx Data Collector v3.7.2.0data status	okinstallation	princeton_trtdifferential loss correction	single-endedforward channel	channel 2reverse channel	N/Adate	2019/09/15time	11:47:34forward acquisition time	60.00reverse acquisition time	0.00gamma	496.2192k internal	0.2315k external	0.2315temperature offset calibration	1.0016default loss term (dB/km)	0.3790temperature slope calibration	1.0000multiplexer offset coefficient	1.0000multiplexer slope coefficient	1.0000fibre end	0.00T internal ref (°C)	34.37T ext. ref 1 (°C)	5.05T ext. ref 2 (°C)	29.93length (m)	temperature (°C)	Stokes	anti-Stokes-747.200	800.000	0.135	0.419
-746.185	-200.000	0.017	-0.094
-745.171	-200.000	0.021	-0.094
-744.156	-103.625	-0.077	0.018
-743.142	-66.971	0.273	-0.109
-742.127	-200.000	0.023	0.250
-741.112	-63.803	-0.269	0.111
-740.098	-74.698	0.087	0.032
-739.083	145.331	-0.321	0.435
-738.069	-200.000	-0.036	0.180
-737.054	-200.000	0.015	0.259
-736.039	45.438	-0.103	-0.096
-735.025	142.040	0.153	-0.206
-734.010	-187.251	0.259	0.004
-732.996	-200.000	-0.074	-0.384
-731.981	-200.000	0.034	0.519
-730.966	-119.919	-0.097	0.017
-729.952	175.466	0.022	0.032
-728.937	184.367	0.097	-0.146
-727.923	-103.700	-0.103	0.024
-726.908	69.440	-0.197	0.205
-725.894	-200.000	-0.016	0.156
-724.879	25.285	0.165	0.139
-723.864	184.139	0.083	0.125
-722.850	-134.986	-0.181	0.022
-721.835	37.940	-0.233	-0.210
-720.821	-127.766	-0.383	0.056
-719.806	800.000	-0.045	0.180
-718.791	-164.663	-0.150	0.007
-717.777	0.227	-0.126	0.091
-716.762	47.789	-0.085	-0.081
-715.748	338.657	-0.089	0.175
-714.733	-93.260	0.021	0.006
-713.718	-78.583	0.051	-0.018
-712.704	24.436	0.097	-0.081
-711.689	44.628	-0.279	-0.260
-710.675	-85.080	-0.450	-0.142
-709.660	162.118	0.187	0.266
-708.645	800.000	0.056	0.215
-707.631	-13.398	-0.249	-0.164
-706.616	108.292	0.197	-0.238
-705.602	681.550	-0.110	0.291
-704.587	800.000	0.073	-0.225
-703.572	551.806	0.082	0.200
-702.558	-200.000	-0.001	0.441
-701.543	800.000	0.056	-0.207
-700.529	259.223	-0.238	-0.415
-699.514	81.916	0.222	0.243
-698.499	-141.311	0.245	-0.025
-697.485	-90.101	-0.316	-0.093
-696.470	-170.190	0.284	0.010
-695.456	-81.300	0.055	-0.018
-694.441	-200.000	-0.017	-0.104
-693.426	117.598	0.113	0.141
-692.412	57.186	-0.020	0.020
-691.397	68.868	-0.250	0.260
-690.383	-130.126	-0.134	-0.018
-689.368	405.202	0.102	-0.217
-688.354	424.387	-0.128	-0.278
-687.339	-27.998	-0.247	0.144
-686.324	-27.423	0.267	-0.157
-685.310	59.089	-0.176	-0.175
-684.295	14.675	0.118	0.093
-683.281	15.246	0.153	-0.121
-682.266	-189.681	-0.120	0.001
-681.251	-200.000	-0.027	0.193
-680.237	-130.802	-0.510	-0.069
-679.222	-74.776	-0.058	-0.021
-678.208	44.368	0.111	-0.103
-677.193	800.000	-0.092	0.398
-676.178	800.000	-0.057	0.174
-675.164	190.172	0.063	-0.096
-674.149	462.143	0.076	-0.171
-673.135	262.985	0.029	0.050
-672.120	193.039	0.063	-0.096
-671.105	293.956	-0.133	-0.245
-670.091	-41.376	0.202	-0.105
-669.076	303.204	-0.302	0.565
-668.062	-155.860	-0.358	0.023
-667.047	6.632	0.224	0.168
-666.032	-145.791	-0.052	-0.005
-665.018	-200.000	0.008	-0.219
-664.003	-105.350	-0.298	0.068
-662.989	105.646	0.145	-0.173
-661.974	-200.000	-0.029	-0.131
-660.959	-200.000	0.015	-0.101
-659.945	115.168	-0.213	-0.263
-658.930	519.164	0.106	-0.250
-657.916	-69.989	0.222	-0.086
-656.901	118.182	-0.085	0.105
-655.886	35.463	-0.092	-0.082
-654.872	-183.026	-0.082	0.001
-653.857	397.589	-0.140	0.295
-652.843	-113.537	0.203	0.040
-651.828	-200.000	0.001	-0.033
-650.814	800.000	-0.088	-0.266
-649.799	10.311	-0.140	0.108
-648.784	-60.990	0.243	-0.104
-647.770	-113.699	-0.210	0.041
-646.755	13.860	-0.042	0.033
-645.741	-173.783	-0.264	0.008
-644.726	26.582	0.371	0.313
-643.711	800.000	0.053	0.166
-642.697	143.525	0.064	-0.086
-641.682	800.000	0.017	-0.053
-640.668	-148.137	-0.279	-0.023
-639.653	-48.653	0.366	-0.177
-638.638	39.954	-0.140	0.127
-637.624	-51.382	-0.140	-0.066
-636.609	-200.000	0.004	0.021
-635.595	-27.530	0.306	0.179
-634.580	-94.377	-0.226	-0.062
-633.565	-121.107	-0.187	-0.032
-632.551	5.937	-0.141	-0.106
-631.536	425.975	-0.057	-0.125
-630.522	242.308	-0.062	-0.105
-629.507	69.546	0.239	0.248
-628.492	67.695	0.064	0.066
-627.478	-80.491	-0.393	0.132
-626.463	152.678	0.268	-0.370
-625.449	-114.827	0.042	-0.008
-624.434	-200.000	0.008	0.051
-623.419	-146.696	-0.269	-0.024
-622.405	45.850	0.259	-0.242
-621.390	800.000	0.107	-0.443
-620.376	800.000	0.082	-0.245
-619.361	-200.000	-0.002	-0.033
-618.346	195.065	-0.053	0.082
-617.332	272.214	0.085	0.151
-616.317	325.728	-0.060	-0.115
-615.303	-151.831	-0.167	0.012
-614.288	800.000	-0.042	-0.127
-613.273	159.578	0.209	-0.294
-612.259	-78.025	0.100	0.035
-611.244	20.267	-0.184	0.150
-610.230	-123.331	0.326	-0.052
-609.215	117.050	-0.124	0.154
-608.201	-16.915	-0.185	0.118
-607.186	-158.401	-0.182	-0.011
-606.171	800.000	0.030	-0.096
-605.157	-126.764	0.106	0.016
-604.142	136.154	0.098	0.129
-603.128	-1.346	0.143	-0.102
-602.113	-129.057	0.244	0.034
-601.098	61.041	-0.137	0.137
-600.084	-153.681	0.184	0.013
-599.069	10.088	0.194	-0.149
-598.055	5.674	0.212	0.158
-597.040	665.893	-0.034	-0.088
-596.025	109.529	0.061	0.074
-595.011	-200.000	-0.082	0.385
-593.996	-62.174	-0.256	-0.108
-592.982	-68.381	0.442	-0.173
-591.967	31.657	0.266	0.231
-590.952	-97.117	-0.107	0.028
-589.938	-92.092	0.120	-0.034
-588.923	-200.000	0.271	0.001
-587.909	-8.750	-0.059	-0.040
-586.894	140.036	-0.197	-0.262
-585.879	72.351	-0.158	0.166
-584.865	88.972	-0.056	-0.062
-583.850	31.463	-0.173	-0.150
-582.836	48.427	-0.252	0.237
-581.821	-187.906	0.272	0.004
-580.806	-29.604	0.255	0.147
-579.792	-126.655	0.198	-0.030
-578.777	72.554	-0.193	0.203
-577.763	800.000	-0.038	-0.111
-576.748	237.491	0.150	0.250
-575.733	123.035	-0.327	0.412
-574.719	-200.000	-0.007	-0.038
-573.704	98.874	-0.277	0.322
-572.690	-128.763	0.298	0.042
-571.675	800.000	-0.078	-0.223
-570.661	215.777	-0.187	-0.298
-569.646	545.975	0.088	-0.212
-568.631	213.196	0.085	0.135
-567.617	473.569	-0.083	0.188
-566.602	-71.486	-0.216	-0.081
-565.588	374.709	-0.109	-0.223
-564.573	-70.877	-0.272	-0.103
-563.558	-200.000	-0.019	-0.155
-562.544	34.538	0.101	-0.088
-561.529	127.773	-0.070	0.089
-560.515	102.338	0.298	0.350
-559.500	764.424	-0.016	-0.043
-558.485	-200.000	0.060	-0.377
-557.471	-200.000	-0.027	-0.192
-556.456	-200.000	-0.020	-0.100
-555.442	147.899	-0.095	-0.129
-554.427	45.196	0.178	-0.165
-553.412	-200.000	0.005	-0.171
-552.398	-137.055	0.247	0.028
-551.383	-200.000	-0.013	0.116
-550.369	35.972	-0.068	0.060
-549.354	233.185	0.101	-0.167
-548.339	-200.000	-0.089	0.414
-547.325	51.781	0.061	0.058
-546.310	-99.827	-0.177	0.044
-545.296	718.980	-0.090	0.241
-544.281	-40.624	0.104	0.054
-543.266	-200.000	0.032	-0.243
-542.252	-167.360	-0.108	0.004
-541.237	-34.817	0.272	-0.149
-540.223	412.200	-0.047	0.100
-539.208	-95.488	-0.096	-0.026
-538.193	19.809	-0.236	-0.191
-537.179	-24.887	0.203	-0.121
-536.164	-200.000	0.041	0.242
-535.150	-3.212	0.317	0.222
-534.135	-200.000	0.044	0.243
-533.121	19.678	0.129	-0.104
-532.106	800.000	0.090	-0.263
-531.091	58.239	0.176	0.173
-530.077	-9.815	-0.261	0.174
-529.062	-200.000	0.013	0.104
-528.048	-200.000	-0.016	0.231
-527.033	-89.544	0.196	-0.058
-526.018	-130.234	-0.231	-0.032
-525.004	-61.288	0.047	-0.020
-523.989	-95.083	-0.276	0.075
-522.975	-26.412	-0.185	0.109
-521.960	-5.922	-0.052	0.036
-520.945	105.289	0.039	-0.047
-519.931	14.978	-0.078	-0.061
-518.916	-26.191	-0.229	0.135
-517.902	397.991	-0.166	-0.349
-516.887	-200.000	0.002	0.107
-515.872	6.345	-0.413	-0.308
-514.858	-70.634	-0.243	-0.092
-513.843	150.097	0.039	-0.053
-512.829	48.170	0.116	-0.109
-511.814	163.195	0.115	-0.162
-510.799	800.000	0.064	0.216
-509.785	-83.815	-0.219	0.070
-508.770	-28.681	0.102	-0.059
-507.756	800.000	-0.073	0.260
-506.741	-54.601	-0.381	0.173
-505.726	800.000	0.021	0.064
-504.712	-58.879	0.122	0.053
-503.697	7.368	-0.093	0.070
-502.683	81.386	-0.069	-0.075
-501.668	14.269	-0.108	-0.085
-500.653	-135.918	0.167	-0.020
-499.639	-159.401	-0.121	-0.007
-498.624	-93.884	0.128	-0.035
-497.610	-68.307	0.321	-0.125
-496.595	223.324	0.210	-0.339
-495.581	-26.500	0.117	0.069
-494.566	800.000	-0.040	0.112
-493.551	-178.473	0.290	-0.007
-492.537	249.393	0.288	0.490
-491.522	-50.030	0.344	-0.164
-490.508	267.280	0.050	-0.088
-489.493	800.000	-0.057	-0.193
-488.478	800.000	-0.085	0.279
-487.464	-18.905	0.205	-0.128
-486.449	-65.448	-0.300	0.121
-485.435	-62.099	-0.265	0.111
-484.420	201.459	-0.138	0.213
-483.405	309.404	-0.138	-0.258
-482.391	800.000	-0.049	0.184
-481.376	366.486	-0.117	-0.237
-480.362	154.314	0.107	-0.147
-479.347	-55.908	0.228	-0.102
-478.332	800.000	-0.073	-0.261
-477.318	336.285	0.146	-0.285
-476.303	-88.869	-0.325	-0.097
-475.289	1.017	-0.204	-0.147
-474.274	59.988	-0.287	0.284
-473.259	171.730	0.103	0.148
-472.245	-156.845	-0.262	0.016
-471.230	-176.495	0.558	0.014
-470.216	-200.000	0.032	0.283
-469.201	128.068	-0.255	-0.325
-468.186	-39.878	-0.056	-0.030
-467.172	129.067	-0.114	0.146
-466.157	298.214	0.225	0.414
-465.143	-111.686	-0.063	0.013
-464.128	-69.721	0.242	-0.093
-463.113	-200.000	-0.061	0.400
-462.099	800.000	-0.033	0.136
-461.084	-200.000	0.035	-0.182
-460.070	46.394	-0.269	0.250
-459.055	800.000	-0.066	0.249
-458.040	800.000	-0.067	-0.226
-457.026	31.341	0.177	-0.152
-456.011	87.259	0.171	0.189
-454.997	-144.791	-0.264	-0.024
-453.982	714.661	-0.066	-0.175
-452.968	-0.557	0.196	0.139
-451.953	28.877	-0.019	-0.016
-450.938	-41.521	0.046	-0.024
-449.924	120.795	-0.148	0.185
-448.909	-90.559	0.284	-0.082
-447.895	-200.000	-0.034	-0.322
-446.880	112.762	0.237	-0.288
-445.865	-59.936	-0.039	0.017
-444.851	149.485	-0.237	0.321
-443.836	-104.896	-0.239	-0.055
-442.822	-150.215	-0.485	0.038
-441.807	118.691	0.074	-0.092
-440.792	116.072	-0.136	0.167
-439.778	-50.996	-0.035	0.017
-438.763	-34.445	0.394	0.216
-437.749	-200.000	0.040	0.241
-436.734	-119.241	0.356	0.062
-435.719	-151.367	-0.424	0.032
-434.705	175.641	0.191	-0.277
-433.690	-200.000	-0.006	-0.325
-432.676	53.985	0.182	0.175
-431.661	-61.358	0.200	0.084
-430.646	91.961	0.044	-0.050
-429.632	800.000	0.047	0.190
-428.617	587.600	-0.026	0.063
-427.603	-118.336	-0.332	0.059
-426.588	444.490	0.072	0.158
-425.573	253.968	-0.155	0.266
-424.559	-74.964	0.446	0.160
-423.544	62.632	0.148	-0.148
-422.530	36.708	-0.194	-0.171
-421.515	77.462	0.198	0.210
-420.500	19.912	-0.160	0.129
-419.486	-110.197	-0.289	-0.060
-418.471	16.419	-0.050	0.040
-417.457	800.000	0.068	0.206
-416.442	-52.014	0.018	-0.008
-415.428	51.293	-0.039	0.037
-414.413	251.701	-0.068	-0.115
-413.398	-75.287	0.122	-0.044
-412.384	-200.000	-0.013	-0.140
-411.369	-200.000	-0.015	0.100
-410.355	-200.000	-0.012	-0.156
-409.340	230.287	0.102	0.167
-408.325	-200.000	0.025	-0.289
-407.311	39.792	0.153	-0.137
-406.296	-200.000	0.038	-0.281
-405.282	-122.580	-0.354	0.057
-404.267	-200.000	-0.008	-0.248
-403.252	-102.165	-0.088	0.021
-402.238	212.832	-0.197	0.311
-401.223	-119.800	-0.356	0.061
-400.209	-200.000	-0.006	-0.154
-399.194	-24.243	-0.244	0.145
-398.179	136.600	-0.102	0.133
-397.165	-88.666	0.068	-0.020
-396.150	-200.000	0.010	0.052
-395.136	50.033	-0.126	-0.119
-394.121	190.529	-0.017	-0.025
-393.106	800.000	-0.042	0.127
-392.092	-168.463	-0.115	-0.004
-391.077	605.716	-0.103	0.257
-390.063	-184.151	-0.120	0.002
-389.048	-17.543	0.041	-0.026
-388.033	-200.000	-0.008	0.394
-387.019	-200.000	0.016	-0.342
-386.004	736.169	-0.116	-0.309
-384.990	198.625	-0.161	-0.246
-383.975	97.429	-0.210	0.241
-382.960	-103.780	0.068	-0.016
-381.946	-24.349	-0.226	0.135
-380.931	457.807	-0.150	-0.333
-379.917	347.315	-0.221	-0.435
-378.902	-65.424	0.168	-0.067
-377.888	366.868	-0.199	-0.402
-376.873	-65.953	0.106	-0.042
-375.858	-76.255	0.207	0.073
-374.844	-100.070	-0.202	-0.050
-373.829	703.682	0.126	0.332
-372.815	-200.000	-0.001	0.185
-371.800	52.563	0.158	0.151
-370.785	-200.000	0.013	-0.143
-369.771	146.732	-0.167	0.224
-368.756	455.693	-0.112	-0.249
-367.742	289.001	0.041	0.073
-366.727	362.683	-0.050	-0.100
-365.712	179.725	0.199	-0.292
-364.698	-118.533	0.249	-0.044
-363.683	357.611	-0.142	-0.284
-362.669	126.173	0.090	0.114
-361.654	-200.000	-0.030	0.151
-360.639	269.618	-0.150	-0.263
-359.625	77.587	0.097	-0.103
-358.610	-57.330	0.078	-0.034
-357.596	-200.000	-0.006	0.073
-356.581	250.386	0.093	0.158
-355.566	175.903	-0.216	-0.313
-354.552	542.703	-0.089	-0.212
-353.537	-49.451	-0.077	-0.036
-352.523	41.682	-0.163	0.147
-351.508	-200.000	0.076	0.431
-350.493	-8.384	0.176	0.118
-349.479	-43.523	-0.240	-0.121
-348.464	800.000	-0.021	0.074
-347.450	385.636	0.155	0.319
-346.435	-0.174	-0.077	0.055
-345.420	-200.000	0.049	0.309
-344.406	-90.453	-0.314	-0.091
-343.391	488.438	-0.112	0.256
-342.377	41.796	0.065	-0.058
-341.362	-122.681	0.503	0.081
-340.348	458.558	-0.076	0.168
-339.333	95.177	-0.227	0.258
-338.318	125.284	0.208	-0.261
-337.304	-59.763	0.145	-0.062
-336.289	214.896	-0.062	0.098
-335.275	-97.497	0.288	0.075
-334.260	-11.404	-0.158	-0.104
-333.245	16.166	0.099	-0.077
-332.231	89.713	0.033	-0.037
-331.216	800.000	0.057	-0.194
-330.202	-193.961	-0.125	0.001
-329.187	29.628	-0.184	0.156
-328.172	-14.164	0.259	-0.167
-327.158	22.374	0.140	-0.114
-326.143	-15.529	0.251	-0.160
-325.129	150.098	-0.171	-0.232
-324.114	-200.000	0.001	-0.066
-323.099	126.301	0.178	-0.224
-322.085	40.424	-0.181	-0.162
-321.070	7.477	0.228	-0.170
-320.056	800.000	0.162	0.512
-319.041	18.565	-0.104	0.083
-318.026	744.404	0.048	-0.128
-317.012	-170.384	-0.198	-0.007
-315.997	3.871	-0.175	0.128
-314.983	-99.760	0.117	-0.029
-313.968	54.202	0.219	0.210
-312.953	-60.935	0.298	-0.126
-311.939	735.122	-0.054	-0.145
-310.924	-163.034	0.247	0.012
-309.910	-30.721	0.222	-0.125
-308.895	62.611	-0.063	0.063
-307.880	64.706	0.099	0.100
-306.866	238.865	0.090	0.149
-305.851	-85.524	-0.369	0.114
-304.837	113.080	-0.139	0.167
-303.822	-116.873	0.329	-0.060
-302.807	51.737	-0.137	-0.130
-301.793	-200.000	0.045	0.258
-300.778	800.000	-0.009	0.035
-299.764	-115.222	0.231	-0.043
-298.749	-200.000	0.018	0.171
-297.735	-1.157	-0.140	0.099
-296.720	563.597	-0.027	0.065
-295.705	-65.067	-0.182	0.073
-294.691	165.867	-0.123	0.173
-293.676	120.277	-0.039	-0.049
-292.662	-76.161	0.099	-0.035
-291.647	-9.125	-0.107	0.071
-290.632	-151.217	0.144	0.011
-289.618	-11.447	-0.233	-0.152
-288.603	675.878	-0.060	-0.155
-287.589	-200.000	-0.006	0.278
-286.574	137.728	-0.020	-0.026
-285.559	-71.914	0.243	0.090
-284.545	754.520	-0.176	0.474
-283.530	-200.000	0.000	0.140
-282.516	-61.167	0.355	0.149
-281.501	90.989	-0.179	0.199
-280.486	53.149	0.067	0.064
-279.472	-200.000	-0.008	0.200
-278.457	227.151	0.040	0.065
-277.443	-103.630	-0.092	-0.022
-276.428	-156.562	-0.207	0.013
-275.413	-200.000	-0.057	-0.270
-274.399	-78.765	-0.130	0.044
-273.384	-57.554	-0.124	0.054
-272.370	-120.465	-0.045	-0.008
-271.355	-200.000	0.020	-0.166
-270.340	-136.607	0.464	0.053
-269.326	19.674	0.199	-0.159
-268.311	800.000	0.088	-0.271
-267.297	114.788	0.142	-0.172
-266.282	-200.000	-0.029	-0.142
-265.267	-200.000	0.004	0.138
-264.253	81.519	-0.136	-0.147
-263.238	58.587	0.323	-0.315
-262.224	111.759	-0.150	-0.180
-261.209	800.000	-0.075	0.206
-260.195	-89.149	0.166	-0.049
-259.180	800.000	0.005	0.023
-258.165	-98.696	0.371	0.094
-257.151	242.319	-0.141	-0.234
-256.136	24.704	0.254	-0.209
-255.122	-173.616	0.149	0.004
-254.107	203.911	0.232	0.357
-253.092	16.773	0.121	-0.095
-252.078	-200.000	-0.047	0.259
-251.063	104.642	0.211	-0.247
-250.049	-70.589	-0.166	-0.062
-249.034	704.224	0.112	-0.295
-248.019	36.480	0.121	0.106
-247.005	30.459	0.173	-0.147
-245.990	337.789	-0.187	0.362
-244.976	37.055	-0.026	0.023
-243.961	172.516	0.346	-0.495
-242.946	612.572	-0.125	0.311
-241.932	-137.406	-0.071	-0.008
-240.917	53.778	0.151	0.144
-239.903	-136.077	-0.191	0.022
-238.888	800.000	-0.067	-0.233
-237.873	217.382	0.009	0.014
-236.859	800.000	-0.004	0.013
-235.844	-200.000	0.065	-0.287
-234.830	-200.000	0.049	0.238
-233.815	-4.749	-0.254	0.174
-232.800	-160.254	0.215	0.012
-231.786	-200.000	0.019	0.146
-230.771	-43.738	0.510	-0.255
-229.757	-1.296	0.205	0.144
-228.742	-200.000	-0.025	-0.333
-227.727	379.934	-0.148	-0.301
-226.713	-63.999	-0.023	0.009
-225.698	-167.224	-0.176	-0.007
-224.684	59.156	0.122	-0.120
-223.669	-200.000	0.001	-0.135
-222.655	-34.110	-0.095	-0.052
-221.640	-200.000	-0.093	0.000
-220.625	800.000	-0.045	-0.131
-219.611	800.000	-0.070	-0.201
-218.596	561.479	-0.063	-0.152
-217.582	515.748	-0.113	0.262
-216.567	-62.474	0.171	0.071
-215.552	-62.738	0.528	0.217
-214.538	-89.054	-0.314	-0.092
-213.523	358.136	0.009	0.017
-212.509	-110.278	0.109	-0.023
-211.494	-122.290	-0.188	-0.030
-210.479	-66.376	0.381	-0.150
-209.465	170.809	-0.068	0.097
-208.450	29.338	-0.517	0.436
-207.436	-200.000	0.015	0.166
-206.421	-112.667	-0.176	0.035
-205.406	-85.204	-0.113	0.035
-204.392	449.446	-0.066	0.144
-203.377	-200.000	-0.027	-0.122
-202.363	-200.000	-0.041	-0.192
-201.348	700.433	0.025	-0.065
-200.333	11.515	-0.051	-0.039
-199.319	186.572	0.144	-0.213
-198.304	162.325	0.179	0.248
-197.290	-111.799	0.196	0.039
-196.275	88.123	0.268	0.295
-195.260	-155.191	0.299	0.019
-194.246	262.185	-0.102	-0.176
-193.231	107.526	-0.155	0.183
-192.217	-70.476	0.130	-0.049
-191.202	506.771	-0.092	0.210
-190.187	79.274	-0.077	0.082
-189.173	516.313	0.067	0.156
-188.158	-136.321	-0.245	0.028
-187.144	-6.441	-0.127	0.086
-186.129	-200.000	-0.023	0.195
-185.114	-200.000	0.007	-0.084
-184.100	183.583	0.110	-0.162
-183.085	-24.507	-0.251	0.148
-182.071	-127.929	-0.307	-0.044
-181.056	140.648	0.154	-0.201
-180.042	-192.783	-0.262	0.002
-179.027	233.834	0.105	-0.172
-178.012	310.005	-0.040	0.075
-176.998	800.000	-0.088	-0.276
-175.983	276.725	0.186	-0.327
-174.969	701.181	-0.112	-0.292
-173.954	13.958	0.247	-0.190
-172.939	43.371	0.168	-0.152
-171.925	-117.918	0.096	-0.017
-170.910	64.526	0.038	0.038
-169.896	-200.000	0.007	0.293
-168.881	-40.001	-0.277	0.143
-167.866	426.639	-0.107	-0.229
-166.852	-200.000	-0.297	-0.001
-165.837	-56.844	0.216	-0.095
-164.823	-61.348	0.227	-0.095
-163.808	679.835	0.044	-0.113
-162.793	342.151	-0.161	-0.312
-161.779	-97.536	-0.235	-0.061
-160.764	-80.541	-0.218	-0.072
-159.750	89.551	0.053	-0.058
-158.735	-200.000	-0.019	-0.125
-157.720	0.731	0.159	0.113
-156.706	-106.497	-0.124	0.027
-155.691	-95.092	0.168	-0.045
-154.677	-38.828	0.179	0.093
-153.662	-200.000	-0.073	0.323
-152.647	289.951	0.103	0.185
-151.633	-21.397	-0.303	0.183
-150.618	384.846	-0.179	-0.366
-149.604	-200.000	-0.018	-0.088
-148.589	-58.744	-0.333	-0.143
-147.574	29.300	0.279	-0.235
-146.560	193.345	-0.090	-0.135
-145.545	-99.981	-0.029	0.007
-144.531	70.976	-0.281	-0.288
-143.516	-62.790	-0.247	-0.101
-142.502	-168.661	-0.104	0.004
-141.487	-200.000	0.027	0.186
-140.472	800.000	0.074	-0.282
-139.458	-73.554	0.217	0.078
-138.443	800.000	0.008	0.028
-137.429	-142.332	-0.439	0.043
-136.414	-200.000	-0.220	0.000
-135.399	-200.000	0.015	0.224
-134.385	-103.957	-0.197	-0.045
-133.370	800.000	0.093	0.293
-132.356	800.000	0.050	0.178
-131.341	48.047	0.061	0.056
-130.326	-200.000	0.016	-0.133
-129.312	716.457	0.057	-0.150
-128.297	-158.602	-0.020	-0.001
-127.283	-27.289	-0.129	-0.074
-126.268	-200.000	0.000	0.363
-125.253	671.120	0.024	-0.062
-124.239	-174.000	0.233	-0.007
-123.224	-81.689	-0.159	0.051
-122.210	238.023	-0.151	-0.248
-121.195	1.186	-0.132	-0.094
-120.180	-200.000	0.001	0.032
-119.166	202.567	-0.087	-0.133
-118.151	20.302	0.109	-0.087
-117.137	5.589	0.121	-0.089
-116.122	-144.377	0.123	0.011
-115.107	173.242	0.133	0.190
-114.093	-6.292	0.187	-0.126
-113.078	-140.135	0.173	0.018
-112.064	167.598	-0.080	0.112
-111.049	-115.203	-0.169	-0.032
-110.034	91.766	0.149	0.166
-109.020	383.205	-0.069	0.140
-108.005	-35.318	-0.068	0.037
-106.991	-26.525	-0.072	0.042
-105.976	-200.000	-0.002	-0.133
-104.962	800.000	-0.118	-0.425
-103.947	-28.149	-0.153	-0.087
-102.932	82.856	0.164	0.176
-101.918	-65.135	0.130	-0.052
-100.903	-99.490	-0.061	0.015
-99.889	800.000	-0.085	-0.273
-98.874	710.214	0.055	-0.144
-97.859	-200.000	-0.058	-0.254
-96.845	-159.181	0.235	-0.013
-95.830	358.861	-0.039	-0.078
-94.816	440.972	0.083	-0.179
-93.801	151.064	-0.214	-0.287
-92.786	-89.954	-0.254	-0.073
-91.772	-200.000	0.020	0.128
-90.757	-10.093	-0.233	-0.153
-89.743	800.000	-0.046	0.148
-88.728	-115.897	-0.069	0.013
-87.713	389.772	0.220	0.451
-86.699	42.799	-0.170	0.153
-85.684	-32.463	-0.095	-0.052
-84.670	-79.518	0.267	-0.089
-83.655	-200.000	0.018	0.173
-82.640	-12.959	0.185	-0.119
-81.626	234.767	-0.083	0.135
-80.611	10.437	-0.144	-0.108
-79.597	-200.000	-0.009	-0.167
-78.582	800.000	0.017	-0.053
-77.567	-2.112	-0.281	-0.195
-76.553	-200.000	0.078	0.379
-75.538	34.967	-0.102	-0.088
-74.524	-78.066	0.213	0.073
-73.509	78.628	0.149	0.158
-72.494	-136.521	0.202	0.023
-71.480	183.430	0.309	0.450
-70.465	43.755	-0.042	0.038
-69.451	78.061	0.188	0.198
-68.436	800.000	0.075	0.238
-67.422	-94.310	0.052	-0.014
-66.407	78.788	-0.103	-0.109
-65.392	-180.131	0.125	-0.003
-64.378	-200.000	-0.076	0.402
-63.363	-84.058	0.099	-0.031
-62.349	-131.600	0.266	0.035
-61.334	8.857	-0.923	-0.687
-60.319	-60.458	0.679	0.285
-59.305	800.000	-0.293	-0.913
-58.290	288.435	0.566	1.011
-57.276	747.273	0.590	1.569
-56.261	-200.000	96.530	564.639
-55.246	631.746	1391.610	3475.497
-54.232	186.985	2611.252	3838.246
-53.217	114.378	2308.198	2771.977
-52.203	43.859	1919.691	1733.908
-51.188	37.615	1706.381	1493.458
-50.173	34.887	1661.535	1433.737
-49.159	51.426	1709.561	1601.311
-48.144	54.701	1727.389	1642.843
-47.130	37.338	1683.770	1471.340
-46.115	34.483	1668.059	1436.098
-45.100	34.381	1663.534	1431.379
-44.086	34.247	1660.820	1427.982
-43.071	34.193	1658.257	1425.318
-42.057	34.278	1655.927	1423.894
-41.042	34.202	1653.882	1421.506
-40.027	34.281	1651.540	1420.030
-39.013	34.310	1649.497	1418.434
-37.998	34.195	1648.424	1416.599
-36.984	34.200	1647.376	1415.676
-35.969	34.309	1645.594	1414.902
-34.954	34.445	1643.187	1413.782
-33.940	34.347	1641.903	1411.895
-32.925	34.376	1639.933	1410.356
-31.911	34.356	1638.484	1408.909
-30.896	34.366	1636.739	1407.430
-29.881	34.359	1634.924	1405.756
-28.867	34.376	1633.266	1404.405
-27.852	34.310	1631.815	1402.614
-26.838	34.371	1630.214	1401.629
-25.823	34.397	1628.955	1400.682
-24.809	34.427	1627.583	1399.667
-23.794	34.421	1625.886	1398.106
-22.779	34.367	1624.542	1396.505
-21.765	34.368	1623.053	1395.174
-20.750	34.322	1621.521	1393.465
-19.736	34.379	1619.557	1392.139
-18.721	34.503	1618.423	1392.014
-17.706	34.477	1616.526	1390.136
-16.692	34.351	1615.465	1388.250
-15.677	34.366	1614.085	1387.120
-14.663	34.423	1612.706	1386.297
-13.648	34.490	1610.766	1385.057
-12.633	34.422	1609.477	1383.398
-11.619	34.454	1608.196	1382.475
-10.604	34.377	1606.457	1380.370
-9.590	34.419	1605.471	1379.771
-8.575	34.466	1604.089	1378.866
-7.560	34.441	1602.663	1377.410
-6.546	34.402	1601.244	1375.853
-5.531	34.419	1601.054	1375.757
-4.517	34.479	1599.188	1374.529
-3.502	34.460	1597.842	1373.182
-2.487	34.444	1596.487	1371.849
-1.473	34.170	1585.421	1360.325
-0.458	31.556	1566.027	1325.151
0.556	26.837	1565.514	1291.065
1.571	24.247	1589.224	1291.757
2.586	23.866	1602.532	1299.679
3.600	21.274	1549.975	1238.589
4.615	13.291	1440.774	1098.399
5.629	6.300	1376.430	1004.749
6.644	5.168	1368.562	991.730
7.659	5.025	1366.876	989.513
8.673	5.039	1365.678	988.652
9.688	4.948	1363.982	986.757
10.702	4.942	1360.879	984.386
11.717	8.155	1368.051	1009.862
12.731	15.589	1381.356	1066.968
13.746	19.474	1386.871	1095.850
14.761	18.600	1383.948	1087.902
15.775	17.449	1381.159	1078.329
16.790	16.401	1378.377	1069.429
17.804	15.615	1376.022	1062.540
18.819	15.275	1374.416	1059.058
19.834	14.956	1373.007	1055.868
20.848	14.672	1372.062	1053.256
21.863	14.460	1370.513	1050.635
22.877	14.423	1369.263	1049.352
23.892	14.275	1368.571	1047.794
24.907	14.224	1368.198	1047.096
25.921	14.275	1366.908	1046.338
26.936	14.227	1366.226	1045.425
27.950	14.301	1365.139	1044.965
28.965	14.463	1363.935	1044.962
29.980	14.415	1363.159	1043.975
30.994	14.562	1361.842	1043.792
32.009	14.537	1360.516	1042.531
33.023	14.625	1359.152	1041.939
34.038	14.498	1357.895	1040.096
35.053	14.375	1357.042	1038.584
36.067	14.459	1355.165	1037.574
37.082	14.456	1354.559	1036.999
38.096	14.546	1353.852	1036.927
39.111	14.488	1352.602	1035.516
40.126	14.416	1351.975	1034.498
41.140	14.273	1351.174	1032.906
42.155	14.180	1350.634	1031.828
43.169	14.153	1350.307	1031.320
44.184	14.181	1350.280	1031.384
45.199	14.225	1349.063	1030.633
46.213	14.274	1349.015	1030.806
47.228	14.365	1347.785	1030.343
48.242	14.425	1346.560	1029.686
49.257	14.302	1345.658	1028.145
50.271	14.255	1344.401	1026.801
51.286	14.437	1342.359	1026.270
52.301	14.429	1340.995	1025.089
53.315	14.291	1340.217	1023.556
54.330	14.265	1339.181	1022.512
55.344	14.299	1337.701	1021.502
56.359	14.298	1337.051	1020.911
57.374	14.215	1336.654	1020.005
58.388	14.206	1335.580	1019.043
59.403	14.122	1335.159	1018.120
60.417	14.152	1334.164	1017.453
61.432	14.060	1333.510	1016.300
62.447	14.088	1332.489	1015.605
63.461	14.111	1331.215	1014.680
64.476	14.074	1329.644	1013.171
65.490	14.055	1328.754	1012.287
66.505	14.145	1326.797	1011.253
67.520	14.141	1326.295	1010.757
68.534	14.192	1325.131	1010.088
69.549	14.070	1324.544	1008.812
70.563	14.132	1323.184	1008.062
71.578	13.995	1322.337	1006.499
72.593	13.960	1321.618	1005.649
73.607	14.054	1320.221	1005.067
74.622	14.063	1319.344	1004.366
75.636	14.032	1318.662	1003.569
76.651	14.026	1317.823	1002.808
77.666	13.992	1317.684	1002.405
78.680	14.038	1316.879	1001.982
79.695	13.981	1316.353	1001.149
80.709	14.102	1315.414	1001.074
81.724	14.175	1314.864	1001.008
82.739	14.257	1314.174	1000.890
83.753	14.266	1313.228	1000.135
84.768	14.439	1311.806	1000.001
85.782	14.397	1311.047	999.083
86.797	14.391	1309.892	998.075
87.812	14.319	1308.553	996.535
88.826	14.359	1307.066	995.558
89.841	14.442	1306.161	995.275
90.855	14.383	1305.817	994.573
91.870	14.363	1304.820	993.603
92.884	14.505	1303.512	993.364
93.899	14.520	1302.278	992.428
94.914	14.488	1302.247	992.125
95.928	14.530	1301.565	991.766
96.943	14.427	1300.569	990.308
97.957	14.505	1299.383	989.785
98.972	14.468	1298.457	988.767
99.987	14.541	1296.799	987.854
101.001	14.454	1296.704	987.174
102.016	14.401	1295.666	985.984
103.030	14.423	1294.619	985.234
104.045	14.419	1293.761	984.468
105.060	14.432	1292.362	983.393
106.074	14.314	1291.180	981.713
107.089	14.150	1289.744	979.566
108.103	14.160	1288.468	978.569
109.118	14.100	1287.084	977.078
110.133	14.160	1285.521	976.156
111.147	14.157	1284.434	975.231
112.162	14.194	1283.352	974.537
113.176	14.287	1281.723	973.760
114.191	14.374	1280.732	973.430
115.206	14.207	1280.381	972.097
116.220	14.332	1278.638	971.419
117.235	14.175	1278.116	970.019
118.249	14.182	1276.740	968.932
119.264	14.239	1275.302	968.086
120.279	14.240	1274.405	967.327
121.293	14.218	1273.155	966.167
122.308	14.191	1272.517	965.440
123.322	14.182	1271.124	964.242
124.337	14.175	1270.272	963.471
125.352	14.222	1269.009	962.698
126.366	14.111	1268.238	961.389
127.381	14.137	1267.382	960.806
128.395	14.179	1266.026	959.933
129.410	14.265	1265.109	959.649
130.424	14.269	1264.603	959.201
131.439	14.226	1263.609	958.116
132.454	14.276	1262.574	957.532
133.468	14.345	1261.490	957.023
134.483	14.312	1261.064	956.426
135.497	14.351	1259.900	955.684
136.512	14.266	1259.006	954.433
137.527	14.249	1257.631	953.209
138.541	14.280	1256.426	952.388
139.556	14.418	1254.553	951.675
140.570	14.330	1254.102	950.744
141.585	14.451	1252.574	950.193
142.600	14.384	1251.852	949.179
143.614	14.598	1250.582	949.347
144.629	14.576	1249.500	948.319
145.643	14.425	1248.201	946.391
146.658	14.438	1247.227	945.643
147.673	14.401	1245.509	944.049
148.687	14.350	1244.567	942.963
149.702	14.260	1243.404	941.490
150.716	14.252	1241.849	940.184
151.731	14.366	1240.546	939.755
152.746	14.416	1239.007	938.786
153.760	14.358	1238.037	937.643
154.775	14.545	1236.875	937.731
155.789	14.500	1236.564	937.161
156.804	14.473	1235.278	935.953
157.819	14.586	1233.988	935.526
158.833	14.573	1233.301	934.847
159.848	14.668	1232.635	934.793
160.862	14.600	1231.450	933.431
161.877	14.490	1230.162	931.755
162.892	14.397	1229.373	930.555
163.906	14.405	1228.023	929.500
164.921	14.366	1227.773	929.009
165.935	14.503	1226.385	928.641
166.950	14.555	1225.673	928.306
167.964	14.485	1225.269	927.529
168.979	14.515	1224.849	927.298
169.994	14.507	1224.050	926.564
171.008	14.483	1223.424	925.877
172.023	14.598	1222.429	925.681
173.037	14.660	1221.416	925.174
174.052	14.666	1220.007	924.058
175.067	14.576	1219.159	922.837
176.081	14.466	1218.120	921.362
177.096	14.492	1217.127	920.671
178.110	14.572	1216.217	920.341
179.125	14.565	1215.053	919.344
180.140	14.619	1213.628	918.479
181.154	14.537	1213.022	917.491
182.169	14.681	1211.390	916.964
183.183	14.668	1210.337	916.014
184.198	14.679	1209.670	915.491
185.213	14.769	1208.250	914.825
186.227	14.788	1206.856	913.796
187.242	14.898	1206.362	913.942
188.256	14.868	1205.248	912.850
189.271	14.811	1204.579	911.952
190.286	14.789	1202.721	910.347
191.300	14.588	1202.435	908.953
192.315	14.500	1201.634	907.790
193.329	14.544	1201.073	907.527
194.344	14.604	1200.490	907.331
195.359	14.645	1200.222	907.273
196.373	14.828	1199.306	907.493
197.388	14.889	1198.739	907.313
198.402	14.957	1198.640	907.528
199.417	15.096	1197.782	907.550
200.432	15.091	1197.062	906.897
201.446	15.155	1195.886	906.271
202.461	15.138	1195.512	905.817
203.475	15.157	1194.240	904.876
204.490	15.083	1193.018	903.471
205.504	15.064	1191.789	902.359
206.519	15.137	1189.981	901.301
207.534	15.039	1189.227	900.127
208.548	15.035	1188.462	899.446
209.563	15.084	1187.801	899.126
210.577	15.047	1187.184	898.380
211.592	15.142	1185.943	897.874
212.607	15.171	1184.817	897.096
213.621	15.290	1183.980	897.017
214.636	15.157	1183.415	895.801
215.650	15.142	1182.655	895.068
216.665	15.268	1181.561	894.831
217.680	15.304	1180.418	894.078
218.694	15.256	1179.924	893.370
219.709	15.303	1179.096	892.915
220.723	15.255	1178.464	892.099
221.738	15.242	1178.082	891.666
222.753	15.330	1176.576	890.915
223.767	15.284	1176.551	890.569
224.782	15.379	1175.915	890.513
225.796	15.438	1174.847	889.938
226.811	15.498	1174.176	889.669
227.826	15.412	1173.459	888.593
228.840	15.367	1172.760	887.746
229.855	15.337	1172.062	886.980
230.869	15.350	1171.317	886.406
231.884	15.278	1170.882	885.618
232.899	15.302	1169.902	884.925
233.913	15.273	1168.908	883.942
234.928	15.297	1168.017	883.320
235.942	15.333	1167.146	882.773
236.957	15.384	1166.287	882.309
237.972	15.277	1165.714	881.237
238.986	15.362	1164.623	880.779
240.001	15.250	1164.454	879.988
241.015	15.431	1163.341	880.015
242.030	15.331	1162.479	878.764
243.045	15.459	1161.821	878.860
244.059	15.543	1160.836	878.473
245.074	15.542	1160.251	877.947
246.088	15.561	1159.829	877.649
247.103	15.596	1158.667	876.876
248.117	15.544	1158.080	876.085
249.132	15.663	1157.841	876.445
250.147	15.760	1157.285	876.455
251.161	15.883	1156.563	876.471
252.176	15.867	1155.347	875.388
253.190	15.875	1155.044	875.122
254.205	15.903	1154.636	874.882
255.220	15.955	1154.027	874.612
256.234	15.963	1153.200	873.950
257.249	15.849	1152.459	872.720
258.263	15.889	1152.110	872.587
259.278	16.044	1150.661	872.214
260.293	15.946	1150.706	871.663
261.307	16.021	1150.280	871.648
262.322	16.080	1149.375	871.191
263.336	16.134	1149.056	871.153
264.351	16.163	1148.134	870.526
265.366	16.156	1147.280	869.766
266.380	16.172	1146.413	869.115
267.395	16.135	1145.918	868.472
268.409	16.072	1144.982	867.362
269.424	15.913	1145.040	866.509
270.439	16.107	1143.457	866.230
271.453	16.123	1142.594	865.586
272.468	15.995	1142.169	864.530
273.482	15.955	1141.214	863.525
274.497	15.984	1140.470	863.034
275.512	16.071	1140.109	863.130
276.526	16.062	1139.253	862.356
277.541	16.229	1138.322	862.430
278.555	16.132	1138.205	861.770
279.570	16.137	1137.616	861.275
280.585	16.286	1136.320	860.974
281.599	16.345	1135.493	860.574
282.614	16.154	1134.803	859.004
283.628	16.137	1133.689	857.997
284.643	16.164	1132.795	857.382
285.657	16.060	1131.942	856.133
286.672	16.218	1130.995	856.144
287.687	16.232	1130.063	855.430
288.701	16.439	1129.035	855.628
289.716	16.253	1128.582	854.266
290.730	16.316	1127.830	853.941
291.745	16.377	1127.159	853.665
292.760	16.385	1126.386	853.044
293.774	16.311	1126.346	852.563
294.789	16.337	1125.823	852.223
295.803	16.453	1124.500	851.731
296.818	16.377	1124.067	850.946
297.833	16.459	1122.880	850.384
298.847	16.387	1122.340	849.536
299.862	16.517	1120.914	849.035
300.876	16.592	1120.759	849.222
301.891	16.470	1120.564	848.387
302.906	16.496	1119.500	847.632
303.920	16.687	1118.946	848.096
304.935	16.601	1118.718	847.419
305.949	16.674	1117.930	847.109
306.964	16.703	1117.241	846.657
307.979	16.644	1115.940	845.305
308.993	16.686	1115.326	844.975
310.008	16.652	1114.893	844.404
311.022	16.768	1113.723	844.019
312.037	16.720	1113.187	843.300
313.052	16.668	1112.489	842.438
314.066	16.524	1111.215	840.683
315.081	16.547	1110.510	840.190
316.095	16.549	1109.857	839.627
317.110	16.557	1109.382	839.236
318.125	16.657	1108.133	838.711
319.139	16.639	1107.739	838.251
320.154	16.595	1107.028	837.421
321.168	16.672	1106.463	837.299
322.183	16.678	1105.794	836.747
323.197	16.572	1105.254	835.743
324.212	16.664	1104.415	835.488
325.227	16.615	1104.303	835.086
326.241	16.733	1103.238	834.788
327.256	16.734	1102.406	834.091
328.270	16.643	1101.292	832.729
329.285	16.698	1100.754	832.517
330.300	16.690	1099.634	831.559
331.314	16.668	1099.076	830.956
332.329	16.687	1097.885	830.073
333.343	16.786	1097.067	829.866
334.358	16.813	1096.283	829.331
335.373	16.910	1095.644	829.249
336.387	16.912	1094.744	828.504
337.402	16.857	1094.220	827.765
338.416	16.889	1093.607	827.388
339.431	16.879	1093.110	826.887
340.446	17.015	1092.060	826.681
341.460	17.112	1091.543	826.691
342.475	17.153	1090.669	826.153
343.489	17.266	1089.476	825.725
344.504	17.175	1088.903	824.776
345.519	17.300	1087.714	824.409
346.533	17.368	1086.786	823.966
347.548	17.220	1086.914	823.270
348.562	17.185	1085.739	822.139
349.577	17.259	1084.732	821.664
350.592	17.083	1083.990	820.179
351.606	17.075	1083.257	819.509
352.621	17.112	1082.853	819.314
353.635	17.047	1082.033	818.306
354.650	17.099	1081.082	817.766
355.665	17.049	1080.770	817.213
356.679	17.137	1080.238	817.164
357.694	17.283	1079.194	817.002
358.708	17.371	1078.145	816.557
359.723	17.260	1078.502	816.222
360.738	17.260	1077.329	815.262
361.752	17.327	1076.966	815.239
362.767	17.340	1076.093	814.568
363.781	17.266	1076.285	814.288
364.796	17.329	1075.391	813.839
365.810	17.506	1074.733	814.114
366.825	17.509	1074.331	813.752
367.840	17.581	1073.759	813.590
368.854	17.763	1073.016	813.826
369.869	17.624	1072.203	812.474
370.883	17.529	1071.535	811.443
371.898	17.532	1070.647	810.713
372.913	17.543	1070.309	810.437
373.927	17.630	1069.527	810.189
374.942	17.567	1069.144	809.527
375.956	17.561	1068.596	809.012
376.971	17.698	1067.742	808.943
377.986	17.548	1067.470	807.956
379.000	17.717	1066.856	808.220
380.015	17.737	1066.644	808.084
381.029	17.736	1065.778	807.348
382.044	17.815	1064.648	806.798
383.059	17.868	1064.192	806.631
384.073	17.876	1062.999	805.693
385.088	17.843	1062.749	805.276
386.102	17.893	1061.758	804.688
387.117	17.850	1060.423	803.403
388.132	17.792	1059.558	802.403
389.146	17.763	1058.849	801.660
390.161	17.720	1058.165	800.871
391.175	17.733	1057.781	800.571
392.190	17.836	1056.910	800.320
393.205	17.812	1056.419	799.768
394.219	17.768	1055.450	798.758
395.234	17.765	1054.761	798.153
396.248	17.760	1053.660	797.223
397.263	17.746	1052.647	796.323
398.278	17.788	1051.698	795.728
399.292	17.740	1051.001	794.909
400.307	17.603	1050.609	793.902
401.321	17.801	1049.649	794.030
402.336	17.848	1048.747	793.492
403.350	17.775	1048.451	792.859
404.365	17.793	1047.970	792.508
405.380	17.811	1047.056	791.830
406.394	17.968	1046.388	791.987
407.409	17.989	1045.566	791.392
408.423	18.015	1045.087	791.076
409.438	17.999	1044.536	790.516
410.453	18.147	1043.484	790.333
411.467	18.096	1042.976	789.645
412.482	18.163	1042.086	789.212
413.496	18.340	1041.380	789.420
414.511	18.304	1041.081	788.961
415.526	18.304	1040.672	788.582
416.540	18.326	1040.333	788.352
417.555	18.318	1039.893	787.915
418.569	18.372	1039.165	787.541
419.584	18.237	1038.765	786.549
420.599	18.359	1038.122	786.554
421.613	147.900	1400.122	1790.826
422.628	135.144	1452.878	1790.964
