DTS Sentinel unit serial number:	SN413079Multiplexer serial number:	ORYXHardware model number:	OX4-SRSoftware version number:	ORYX F/W v4.00 Oryx Data Collector v3.7.2.0data status	okinstallation	princeton_trtdifferential loss correction	single-endedforward channel	channel 2reverse channel	N/Adate	2019/09/13time	19:15:34forward acquisition time	60.00reverse acquisition time	0.00gamma	496.2192k internal	0.2328k external	0.2328temperature offset calibration	1.0169default loss term (dB/km)	0.3790temperature slope calibration	1.0000multiplexer offset coefficient	1.0000multiplexer slope coefficient	1.0000fibre end	0.00T internal ref (°C)	31.31T ext. ref 1 (°C)	3.82T ext. ref 2 (°C)	24.71length (m)	temperature (°C)	Stokes	anti-Stokes-747.200	-137.275	0.321	-0.037
-746.185	88.447	-0.077	0.086
-745.171	-28.485	-0.072	-0.042
-744.156	-33.316	-0.478	0.266
-743.142	710.263	-0.057	-0.151
-742.127	752.635	0.050	0.136
-741.112	-61.920	-0.097	-0.041
-740.098	293.957	-0.204	0.376
-739.083	-5.465	0.084	0.058
-738.069	-200.000	-0.035	0.317
-737.054	301.499	-0.075	0.140
-736.039	208.197	0.050	-0.079
-735.025	-200.000	0.002	0.143
-734.010	553.406	0.036	-0.086
-732.996	9.991	-0.329	-0.252
-731.981	-140.662	-0.175	0.018
-730.966	68.239	-0.109	0.112
-729.952	172.672	-0.043	-0.063
-728.937	-17.811	-0.114	-0.072
-727.923	-82.136	-0.241	-0.079
-726.908	274.331	-0.097	-0.173
-725.894	347.105	-0.082	-0.163
-724.879	-81.510	-0.320	0.106
-723.864	-75.076	-0.279	-0.101
-722.850	-94.084	-0.224	-0.062
-721.835	-9.708	-0.319	-0.214
-720.821	203.214	0.139	-0.216
-719.806	-200.000	0.040	-0.203
-718.791	-27.110	0.188	-0.110
-717.777	-31.692	-0.175	0.099
-716.762	-55.929	-0.168	0.076
-715.748	46.596	-0.211	-0.197
-714.733	800.000	-0.072	0.274
-713.718	215.209	-0.155	-0.248
-712.704	800.000	-0.064	-0.197
-711.689	-200.000	0.009	0.171
-710.675	-1.985	0.245	-0.173
-709.660	152.495	0.132	0.182
-708.645	-78.677	0.195	0.067
-707.631	181.584	-0.160	0.237
-706.616	-142.787	0.207	0.020
-705.602	-197.189	0.341	-0.002
-704.587	94.950	0.220	0.252
-703.572	-140.623	0.320	0.033
-702.558	80.957	-0.089	0.096
-701.543	800.000	-0.044	-0.163
-700.529	188.760	0.087	0.130
-699.514	101.078	-0.093	0.109
-698.499	69.119	0.288	-0.298
-697.485	-200.000	0.024	0.110
-696.470	2.173	-0.285	-0.207
-695.456	-200.000	-0.004	0.042
-694.441	411.921	0.113	0.241
-693.426	-189.844	-0.224	0.003
-692.412	56.290	0.071	-0.069
-691.397	-70.277	-0.150	0.057
-690.383	139.951	-0.325	-0.431
-689.368	-9.098	-0.182	0.122
-688.354	81.292	0.268	0.291
-687.339	67.576	-0.444	0.456
-686.324	-200.000	0.052	0.272
-685.310	-200.000	0.009	-0.116
-684.295	-200.000	0.036	0.185
-683.281	-200.000	-0.015	0.111
-682.266	9.160	0.179	-0.136
-681.251	185.536	-0.128	-0.191
-680.237	200.742	-0.154	0.239
-679.222	-118.045	0.478	0.086
-678.208	169.814	0.073	-0.105
-677.193	26.127	0.148	-0.124
-676.178	136.577	-0.218	0.286
-675.164	-37.047	-0.320	-0.172
-674.149	-200.000	0.202	0.001
-673.135	-200.000	-0.023	-0.299
-672.120	800.000	-0.118	0.389
-671.105	319.377	0.094	0.179
-670.091	-108.250	0.098	0.021
-669.076	-24.363	0.354	-0.212
-668.062	-89.036	-0.138	0.041
-667.047	197.164	-0.189	-0.290
-666.032	248.962	0.129	-0.219
-665.018	-162.464	0.254	0.013
-664.003	-112.762	-0.205	-0.041
-662.989	-27.991	-0.269	0.156
-661.974	-82.854	0.150	0.049
-660.959	11.820	0.283	0.218
-659.945	352.285	0.085	-0.170
-658.930	-4.508	0.339	0.235
-657.916	-165.997	-0.302	0.013
-656.901	-155.454	-0.216	-0.014
-655.886	-200.000	0.019	0.308
-654.872	-200.000	0.048	-0.372
-653.857	11.972	-0.311	-0.240
-652.843	135.280	-0.173	-0.225
-651.828	-82.414	-0.074	-0.024
-650.814	-0.526	0.090	-0.064
-649.799	-3.197	0.389	0.272
-648.784	800.000	-0.061	-0.177
-647.770	-79.817	-0.157	0.053
-646.755	-25.878	-0.243	-0.143
-645.741	800.000	0.055	0.193
-644.726	446.695	0.056	0.125
-643.711	6.440	0.057	0.042
-642.697	-131.321	-0.174	0.023
-641.682	-200.000	-0.084	0.401
-640.668	82.822	-0.053	-0.058
-639.653	-33.700	-0.265	0.147
-638.638	-111.510	-0.133	-0.027
-637.624	-63.756	0.219	-0.090
-636.609	-81.034	-0.105	0.035
-635.595	14.229	-0.128	0.100
-634.580	596.772	0.137	0.341
-633.565	22.541	0.062	-0.051
-632.551	190.472	0.138	0.208
-631.536	-34.276	0.291	0.160
-630.522	-42.470	0.370	-0.189
-629.507	89.531	0.155	0.173
-628.492	44.597	-0.020	-0.018
-627.478	90.276	-0.083	0.093
-626.463	783.463	0.041	-0.112
-625.449	659.335	0.157	-0.405
-624.434	146.452	-0.265	0.357
-623.419	56.465	0.037	0.036
-622.405	534.863	0.064	-0.153
-621.390	-22.371	-0.054	-0.033
-620.376	461.212	0.011	-0.024
-619.361	-68.641	-0.144	0.056
-618.346	49.877	-0.474	-0.448
-617.332	-23.676	0.113	-0.068
-616.317	800.000	-0.052	-0.217
-615.303	-24.684	0.108	-0.065
-614.288	433.306	-0.119	0.260
-613.273	-200.000	0.040	0.376
-612.259	-200.000	0.054	-0.329
-611.244	45.200	0.102	0.094
-610.230	-47.723	-0.190	-0.092
-609.215	224.725	0.177	-0.288
-608.201	-140.487	0.284	-0.030
-607.186	-15.776	-0.161	0.103
-606.171	-18.511	-0.267	-0.167
-605.157	-200.000	-0.001	-0.118
-604.142	266.754	-0.080	-0.141
-603.128	267.278	-0.111	-0.194
-602.113	77.698	0.110	-0.118
-601.098	235.305	0.138	-0.228
-600.084	-200.000	-0.022	0.336
-599.069	-200.000	0.029	-0.126
-598.055	317.661	-0.072	-0.136
-597.040	6.949	-0.157	-0.117
-596.025	-168.186	0.373	-0.014
-595.011	365.841	-0.045	-0.091
-593.996	-17.306	-0.061	0.038
-592.982	-64.519	0.166	0.068
-591.967	-123.839	-0.216	-0.034
-590.952	-200.000	-0.004	0.254
-589.938	-111.275	-0.355	-0.073
-588.923	-80.266	-0.303	0.102
-587.909	-200.000	0.000	0.063
-586.894	800.000	-0.075	0.219
-585.879	471.639	-0.066	-0.149
-584.865	-38.863	-0.171	-0.090
-583.850	89.112	-0.360	-0.402
-582.836	-179.437	0.387	0.009
-581.821	-200.000	-0.027	-0.141
-580.806	-36.106	0.319	0.173
-579.792	-18.907	-0.141	0.088
-578.777	88.652	-0.093	0.104
-577.763	54.711	-0.073	0.071
-576.748	545.503	0.047	-0.113
-575.733	800.000	-0.026	-0.113
-574.719	96.163	-0.176	0.201
-573.704	10.896	-0.142	0.109
-572.690	85.830	-0.044	0.049
-571.675	-92.440	0.290	-0.082
-570.661	800.000	-0.117	-0.329
-569.646	-7.216	0.341	-0.232
-568.631	-42.343	-0.225	-0.115
-567.617	-200.000	0.004	0.036
-566.602	144.691	0.135	0.181
-565.588	-131.329	0.163	-0.022
-564.573	-183.472	0.073	-0.001
-563.558	32.107	-0.084	0.073
-562.544	-200.000	0.008	-0.059
-561.529	107.658	-0.210	0.251
-560.515	-200.000	0.015	0.154
-559.500	-177.046	0.359	-0.009
-558.485	-111.224	-0.537	0.110
-557.471	203.402	0.187	-0.289
-556.456	-104.573	-0.134	-0.031
-555.442	444.529	0.078	0.170
-554.427	-143.989	0.285	-0.027
-553.412	-200.000	0.011	0.098
-552.398	5.191	0.322	0.237
-551.383	294.357	-0.146	-0.267
-550.369	390.466	0.178	-0.370
-549.354	109.823	0.169	0.203
-548.339	32.599	-0.141	-0.122
-547.325	-200.000	-0.013	0.278
-546.310	800.000	0.036	0.145
-545.296	-71.970	-0.203	-0.075
-544.281	-133.254	-0.156	-0.020
-543.266	-23.471	0.168	-0.101
-542.252	-12.322	-0.102	-0.067
-541.237	611.843	0.201	-0.501
-540.223	92.670	-0.059	-0.067
-539.208	800.000	0.148	0.422
-538.193	0.538	0.244	0.174
-537.179	152.879	0.084	0.115
-536.164	107.032	0.127	-0.150
-535.150	-16.848	0.153	-0.097
-534.135	800.000	0.104	0.423
-533.121	136.746	-0.171	0.223
-532.106	46.937	0.048	-0.045
-531.091	15.262	0.182	-0.143
-530.077	-9.384	0.148	-0.099
-529.062	359.021	-0.110	0.220
-528.048	-45.875	-0.223	0.110
-527.033	49.362	0.106	-0.099
-526.018	-140.006	-0.164	-0.017
-525.004	545.210	0.093	0.222
-523.989	507.812	0.116	0.269
-522.975	13.611	0.056	0.044
-521.960	-200.000	0.061	-0.335
-520.945	599.126	0.130	-0.321
-519.931	-83.484	0.016	0.005
-518.916	124.986	0.274	-0.345
-517.902	421.892	0.145	-0.310
-516.887	83.679	-0.142	-0.155
-515.872	481.019	0.155	-0.350
-514.858	-200.000	0.069	0.365
-513.843	-200.000	-0.000	0.166
-512.829	-90.059	-0.268	0.078
-511.814	295.549	0.034	-0.063
-510.799	800.000	-0.093	0.287
-509.785	71.801	-0.161	-0.167
-508.770	-200.000	0.004	0.039
-507.756	-64.967	-0.232	0.094
-506.741	-37.338	-0.116	-0.062
-505.726	-200.000	-0.070	0.568
-504.712	384.094	-0.046	-0.094
-503.697	-136.385	0.174	0.020
-502.683	75.897	0.232	0.245
-501.668	-67.891	-0.384	-0.150
-500.653	800.000	0.064	0.252
-499.639	-145.698	0.182	-0.016
-498.624	-200.000	0.018	-0.117
-497.610	-200.000	0.026	-0.241
-496.595	-200.000	-0.233	-0.001
-495.581	-93.451	-0.187	-0.052
-494.566	47.646	-0.119	-0.111
-493.551	-200.000	0.023	0.194
-492.537	1.187	-0.057	0.041
-491.522	-200.000	0.086	0.376
-490.508	-106.983	-0.196	-0.043
-489.493	333.362	-0.119	-0.229
-488.478	248.864	0.030	-0.051
-487.464	-78.063	0.220	-0.076
-486.449	-154.063	-0.189	0.013
-485.435	-200.000	-0.009	0.194
-484.420	692.028	0.132	-0.345
-483.405	16.034	0.096	0.075
-482.391	-200.000	0.002	0.203
-481.376	284.381	0.128	-0.230
-480.362	13.566	0.232	-0.180
-479.347	205.595	0.165	-0.255
-478.332	216.195	-0.166	-0.263
-477.318	403.137	-0.042	0.088
-476.303	396.614	-0.050	0.104
-475.289	642.388	0.033	0.083
-474.274	-200.000	-0.029	0.199
-473.259	800.000	0.015	0.059
-472.245	153.078	0.047	-0.063
-471.230	-27.296	-0.110	0.064
-470.216	-200.000	0.028	-0.133
-469.201	-21.274	0.253	-0.154
-468.186	-109.094	-0.656	-0.139
-467.172	30.282	0.158	0.135
-466.157	214.890	-0.184	0.290
-465.143	-69.670	0.254	-0.097
-464.128	-47.338	-0.197	-0.096
-463.113	179.655	-0.134	-0.195
-462.099	277.355	-0.127	-0.225
-461.084	-92.842	-0.120	0.033
-460.070	-52.516	0.115	-0.053
-459.055	10.970	-0.094	0.071
-458.040	19.562	-0.102	-0.082
-457.026	-94.389	0.338	0.092
-456.011	-93.668	0.300	-0.083
-454.997	-99.568	0.198	-0.049
-453.982	-200.000	0.019	0.198
-452.968	800.000	-0.073	0.239
-451.953	-82.235	0.044	0.014
-450.938	-200.000	-0.002	-0.279
-449.924	243.500	-0.024	-0.040
-448.909	599.235	0.076	-0.188
-447.895	-40.390	-0.157	0.081
-446.880	229.501	-0.158	-0.257
-445.865	-148.686	0.134	0.011
-444.851	-132.473	-0.440	-0.056
-443.836	-146.556	-0.291	-0.025
-442.822	-71.673	0.090	0.033
-441.807	52.633	-0.085	0.081
-440.792	-200.000	-0.229	0.001
-439.778	273.256	-0.173	0.304
-438.763	279.653	0.177	0.315
-437.749	-200.000	-0.010	-0.394
-436.734	28.885	0.197	-0.166
-435.719	239.521	-0.245	-0.405
-434.705	-200.000	0.004	-0.275
-433.690	-161.702	0.294	-0.015
-432.676	306.560	-0.096	0.178
-431.661	-25.536	-0.101	0.060
-430.646	-200.000	-0.009	0.193
-429.632	52.198	0.123	0.117
-428.617	-126.565	-0.274	-0.040
-427.603	624.305	-0.045	0.112
-426.588	800.000	0.126	0.383
-425.573	-90.650	-0.098	0.028
-424.559	70.099	0.071	-0.073
-423.544	-86.033	0.092	-0.028
-422.530	-200.000	0.025	0.210
-421.515	-200.000	0.025	0.230
-420.500	288.621	-0.135	0.244
-419.486	800.000	-0.065	0.247
-418.471	-35.033	0.139	-0.075
-417.457	68.557	0.041	0.042
-416.442	-103.098	0.303	-0.071
-415.428	-156.459	-0.028	-0.002
-414.413	196.398	0.081	0.123
-413.398	-200.000	0.007	0.103
-412.384	74.684	-0.256	-0.268
-411.369	-149.321	0.262	-0.021
-410.355	-60.980	-0.191	0.080
-409.340	108.900	0.276	-0.328
-408.325	71.580	-0.154	0.159
-407.311	-57.695	-0.019	-0.008
-406.296	137.818	0.112	0.146
-405.282	4.229	0.183	-0.133
-404.267	-36.542	-0.217	0.116
-403.252	-69.468	0.169	-0.064
-402.238	-108.813	-0.224	0.048
-401.223	-21.720	-0.089	-0.054
-400.209	86.940	-0.208	-0.228
-399.194	-41.086	-0.107	0.055
-398.179	107.122	0.234	-0.277
-397.165	-82.839	0.284	-0.091
-396.150	-200.000	0.003	-0.092
-395.136	-59.530	-0.355	0.151
-394.121	-198.733	0.119	0.001
-393.106	259.979	-0.152	-0.261
-392.092	-127.509	-0.200	-0.029
-391.077	-11.297	0.116	0.076
-390.063	-160.342	-0.062	-0.003
-389.048	85.199	-0.147	-0.160
-388.033	-200.000	-0.030	-0.138
-387.019	219.160	0.190	0.302
-386.004	800.000	-0.094	0.350
-384.990	74.516	0.085	0.089
-383.975	-57.911	-0.161	-0.070
-382.960	-131.640	-0.372	0.049
-381.946	-125.006	0.244	-0.037
-380.931	-200.000	0.007	0.088
-379.917	-106.040	0.094	-0.021
-378.902	-55.654	0.357	0.159
-377.888	128.294	0.077	0.098
-376.873	297.900	0.039	0.071
-375.858	800.000	-0.035	-0.103
-374.844	420.651	0.018	-0.038
-373.829	23.810	0.254	-0.208
-372.815	-200.000	0.025	0.163
-371.800	-133.141	-0.080	-0.010
-370.785	-94.057	0.358	0.097
-369.771	-144.466	0.152	-0.014
-368.756	-87.748	0.082	-0.025
-367.742	-200.000	-0.020	-0.202
-366.727	362.871	-0.043	-0.087
-365.712	-112.761	0.103	-0.020
-364.698	-34.098	-0.231	0.126
-363.683	402.830	0.109	-0.228
-362.669	800.000	-0.069	-0.197
-361.654	74.988	-0.263	0.275
-360.639	26.775	-0.119	0.099
-359.625	800.000	-0.012	-0.037
-358.610	123.524	0.158	-0.196
-357.596	67.830	-0.112	0.114
-356.581	-200.000	0.052	-0.268
-355.566	-200.000	-0.037	0.238
-354.552	82.429	0.122	0.132
-353.537	178.971	0.063	0.092
-352.523	-42.775	0.064	0.032
-351.508	38.863	0.017	-0.015
-350.493	4.139	-0.233	0.169
-349.479	-165.860	0.141	-0.006
-348.464	800.000	0.139	-0.483
-347.450	-200.000	0.010	-0.316
-346.435	305.873	0.094	-0.174
-345.420	-31.031	-0.232	0.130
-344.406	-130.072	-0.470	0.064
-343.391	28.169	0.154	0.129
-342.377	-200.000	0.013	0.064
-341.362	-200.000	-0.056	0.414
-340.348	-62.879	0.370	0.152
-339.333	208.262	0.222	0.344
-338.318	-34.813	-0.025	0.014
-337.304	800.000	-0.023	0.095
-336.289	31.494	-0.029	-0.024
-335.275	281.302	-0.069	-0.123
-334.260	31.921	-0.196	0.168
-333.245	-200.000	0.074	0.341
-332.231	196.678	-0.203	-0.307
-331.216	151.243	-0.047	-0.063
-330.202	-200.000	0.132	-0.624
-329.187	800.000	0.033	-0.100
-328.172	-38.099	-0.123	0.065
-327.158	-145.244	0.179	0.016
-326.143	-57.640	-0.169	0.073
-325.129	41.267	-0.111	-0.100
-324.114	-200.000	0.004	0.142
-323.099	57.649	-0.071	-0.069
-322.085	800.000	-0.053	-0.177
-321.070	86.707	0.076	-0.083
-320.056	-78.888	-0.081	-0.027
-319.041	232.894	-0.084	-0.136
-318.026	279.284	0.057	0.101
-317.012	-65.752	0.151	-0.060
-315.997	-84.458	0.064	-0.020
-314.983	-69.105	0.154	-0.059
-313.968	227.202	-0.202	-0.325
-312.953	-25.149	-0.228	-0.134
-311.939	-94.715	0.219	-0.059
-310.924	16.241	0.110	0.086
-309.910	800.000	0.115	0.379
-308.895	36.663	0.222	0.194
-307.880	-97.529	0.420	0.108
-306.866	-43.917	-0.140	0.070
-305.851	800.000	0.013	-0.039
-304.837	-200.000	0.013	-0.140
-303.822	305.752	-0.117	0.216
-302.807	-63.467	0.213	-0.087
-301.793	177.995	-0.191	-0.276
-300.778	-63.484	-0.345	0.140
-299.764	-66.537	0.126	0.050
-298.749	42.037	0.053	-0.047
-297.735	-200.000	0.023	0.160
-296.720	-200.000	-0.007	-0.178
-295.705	-141.793	-0.115	-0.011
-294.691	160.797	-0.065	0.090
-293.676	542.433	0.130	-0.306
-292.662	-76.576	-0.234	0.081
-291.647	-46.254	0.125	-0.061
-290.632	289.513	-0.170	-0.305
-289.618	-38.296	0.103	0.054
-288.603	-18.100	-0.087	-0.054
-287.589	-200.000	0.039	-0.276
-286.574	-41.967	-0.145	0.073
-285.559	-161.865	-0.154	0.008
-284.545	-135.472	0.195	0.023
-283.530	100.749	-0.121	-0.139
-282.516	723.704	-0.078	0.205
-281.501	-38.519	-0.158	0.083
-280.486	-15.910	0.219	0.138
-279.472	476.992	-0.063	-0.141
-278.457	-140.755	0.275	0.028
-277.443	182.196	0.133	0.193
-276.428	377.077	-0.197	0.399
-275.413	-104.766	-0.147	0.034
-274.399	64.124	0.064	-0.064
-273.384	-161.252	-0.135	-0.007
-272.370	159.755	0.129	-0.178
-271.355	-200.000	0.037	-0.206
-270.340	-89.556	-0.433	0.126
-269.326	-117.589	-0.305	-0.054
-268.311	-29.807	0.434	0.245
-267.297	61.671	0.232	0.228
-266.282	-39.609	-0.041	-0.021
-265.267	-120.557	-0.349	0.058
-264.253	366.827	0.051	-0.102
-263.238	367.382	0.114	-0.227
-262.224	107.660	0.087	0.102
-261.209	260.730	0.136	0.232
-260.195	118.566	-0.088	-0.107
-259.180	-176.164	-0.118	-0.003
-258.165	-83.899	0.332	0.105
-257.151	-74.531	0.154	0.055
-256.136	133.015	-0.220	-0.281
-255.122	154.716	0.028	0.038
-254.107	-200.000	-0.002	0.057
-253.092	-113.414	0.204	0.039
-252.078	172.491	0.165	-0.235
-251.063	-85.985	-0.042	0.013
-250.049	-36.429	0.249	0.132
-249.034	377.452	-0.031	-0.064
-248.019	-200.000	0.056	0.259
-247.005	-37.677	-0.212	0.112
-245.990	-200.000	-0.022	0.110
-244.976	-55.054	-0.140	0.062
-243.961	-200.000	-0.002	-0.175
-242.946	-62.248	0.142	0.058
-241.932	-200.000	0.074	-0.348
-240.917	475.198	0.174	-0.388
-239.903	-200.000	-0.022	0.113
-238.888	-70.070	-0.079	-0.030
-237.873	-163.505	-0.138	-0.006
-236.859	323.685	-0.024	-0.046
-235.844	-200.000	-0.003	-0.377
-234.830	800.000	-0.039	-0.168
-233.815	-133.531	-0.120	0.015
-232.800	267.860	0.037	0.065
-231.786	-163.882	-0.098	-0.005
-230.771	800.000	0.020	-0.074
-229.757	800.000	0.024	-0.072
-228.742	800.000	-0.079	0.297
-227.727	-164.785	-0.299	0.013
-226.713	-200.000	0.031	-0.340
-225.698	23.531	-0.174	-0.142
-224.684	-200.000	-0.011	0.101
-223.669	-200.000	-0.032	0.295
-222.655	-200.000	0.064	0.316
-221.640	359.450	0.123	-0.244
-220.625	42.678	-0.100	-0.090
-219.611	413.931	0.114	-0.240
-218.596	57.836	-0.381	0.368
-217.582	-200.000	-0.023	-0.150
-216.567	-161.462	-0.125	-0.006
-215.552	-2.407	-0.128	-0.088
-214.538	-189.931	0.217	0.002
-213.523	-200.000	0.022	-0.129
-212.509	-34.213	-0.276	-0.150
-211.494	800.000	0.075	0.270
-210.479	47.341	-0.106	-0.097
-209.465	34.312	0.118	-0.102
-208.450	-127.323	-0.220	0.032
-207.436	-11.703	-0.169	-0.109
-206.421	405.859	-0.110	0.230
-205.406	20.814	0.237	-0.189
-204.392	161.173	0.082	0.114
-203.377	-60.296	-0.169	-0.071
-202.363	-200.000	-0.055	0.299
-201.348	150.386	0.219	0.293
-200.333	474.640	-0.117	-0.261
-199.319	-10.412	0.155	-0.101
-198.304	-200.000	-0.017	-0.107
-197.290	459.351	0.025	0.054
-196.275	-49.528	0.150	0.070
-195.260	-137.066	-0.368	0.041
-194.246	-83.958	0.354	0.111
-193.231	230.977	0.050	0.081
-192.217	-1.395	0.321	0.223
-191.202	-111.731	0.090	-0.018
-190.187	-70.152	0.155	-0.058
-189.173	-137.330	-0.119	-0.013
-188.158	-200.000	0.003	0.074
-187.144	-64.661	0.222	0.089
-186.129	-81.508	0.354	0.115
-185.114	-101.010	0.176	0.042
-184.100	-200.000	0.054	0.561
-183.085	90.487	-0.211	0.233
-182.071	-123.394	0.053	-0.008
-181.056	-55.724	-0.135	-0.060
-180.042	-9.868	0.349	0.229
-179.027	-200.000	0.068	-0.363
-178.012	-87.089	0.371	-0.111
-176.998	-200.000	-0.058	-0.306
-175.983	30.688	0.072	0.061
-174.969	-200.000	-0.011	-0.100
-173.954	89.784	0.195	0.214
-172.939	-200.000	0.004	-0.106
-171.925	-45.267	0.152	0.074
-170.910	-110.899	-0.470	-0.095
-169.896	48.486	-0.215	0.199
-168.881	-5.911	-0.239	-0.161
-167.866	-27.672	0.026	-0.015
-166.852	313.825	-0.068	-0.126
-165.837	91.758	0.094	-0.104
-164.823	-105.200	-0.070	0.016
-163.808	15.698	-0.292	-0.226
-162.793	-161.303	-0.135	-0.007
-161.779	-200.000	0.004	-0.189
-160.764	39.985	-0.009	-0.008
-159.750	119.622	0.125	0.152
-158.735	800.000	-0.038	0.123
-157.720	-67.708	0.208	0.080
-156.706	-84.501	-0.338	-0.105
-155.691	100.202	0.327	0.374
-154.677	-48.112	0.209	0.099
-153.662	241.071	0.157	0.259
-152.647	-120.132	-0.192	-0.032
-151.633	38.760	-0.087	0.076
-150.618	386.342	0.193	0.392
-149.604	-183.409	-0.288	0.005
-148.589	800.000	-0.091	0.277
-147.574	-97.585	0.324	0.083
-146.560	-122.052	0.293	0.047
-145.545	63.092	-0.178	0.176
-144.531	-160.704	0.234	-0.012
-143.516	99.009	0.070	-0.079
-142.502	-6.470	0.163	-0.109
-141.487	-137.218	0.621	-0.070
-140.472	-81.162	-0.183	0.059
-139.458	-16.428	-0.101	-0.063
-138.443	-65.264	0.394	0.156
-137.429	59.528	-0.253	0.245
-136.414	-11.425	0.237	-0.154
-135.399	-40.063	-0.174	-0.089
-134.385	800.000	-0.126	-0.348
-133.370	-37.543	0.096	-0.050
-132.356	36.578	-0.138	-0.120
-131.341	28.182	0.136	0.113
-130.326	-174.819	-0.260	-0.007
-129.312	-117.356	-0.259	-0.046
-128.297	94.252	-0.149	-0.166
-127.283	-200.000	0.023	0.213
-126.268	185.058	-0.115	0.167
-125.253	11.557	-0.226	0.171
-124.239	20.040	-0.193	-0.153
-123.224	-120.658	-0.076	-0.013
-122.210	-7.299	0.237	-0.158
-121.195	-84.316	0.106	-0.033
-120.180	-82.033	-0.396	-0.127
-119.166	800.000	-0.105	-0.397
-118.151	139.076	0.051	-0.065
-117.137	800.000	-0.154	-0.424
-116.122	175.035	-0.187	0.266
-115.107	800.000	-0.047	0.133
-114.093	83.004	0.041	-0.043
-113.078	189.550	0.081	0.119
-112.064	-200.000	-0.004	-0.296
-111.049	342.009	-0.068	-0.131
-110.034	-200.000	-0.018	0.200
-109.020	-176.996	-0.050	0.001
-108.005	800.000	0.089	-0.323
-106.991	-131.117	0.216	-0.028
-105.976	-80.216	0.382	0.126
-104.962	-200.000	0.016	0.095
-103.947	800.000	-0.037	0.139
-102.932	174.182	0.089	-0.127
-101.918	-136.933	-0.214	-0.024
-100.903	-200.000	-0.018	-0.219
-99.889	-82.116	0.220	-0.070
-98.874	-69.274	0.223	-0.084
-97.859	-5.517	0.289	0.195
-96.845	169.300	-0.154	-0.215
-95.830	26.612	-0.391	-0.321
-94.816	-200.000	0.006	-0.153
-93.801	52.038	-0.138	0.129
-92.786	46.544	-0.230	-0.210
-91.772	-114.978	0.369	0.069
-90.757	11.829	0.212	0.160
-89.743	32.837	-0.131	0.111
-88.728	-106.923	-0.103	-0.022
-87.713	-200.000	-0.019	-0.258
-86.699	10.726	-0.041	-0.031
-85.684	2.812	0.226	-0.161
-84.670	239.455	0.032	-0.053
-83.655	-124.222	-0.253	-0.039
-82.640	463.649	0.075	-0.164
-81.626	147.611	0.175	-0.232
-80.611	151.235	-0.313	-0.418
-79.597	51.047	0.120	0.112
-78.582	-200.000	0.068	0.374
-77.567	21.398	0.098	0.079
-76.553	-44.273	-0.156	-0.077
-75.538	-191.480	0.128	-0.001
-74.524	800.000	-0.055	0.172
-73.509	-73.187	0.209	-0.075
-72.494	-200.000	-0.021	0.182
-71.480	191.381	0.068	-0.101
-70.465	49.680	0.173	-0.160
-69.451	581.685	-0.064	0.154
-68.436	-200.000	0.015	0.106
-67.422	-5.740	-0.094	0.063
-66.407	-200.000	-0.034	-0.447
-65.392	255.260	-0.144	0.242
-64.378	182.194	0.072	0.104
-63.363	-78.451	-0.166	-0.056
-62.349	800.000	0.033	0.141
-61.334	95.076	-0.808	-0.902
-60.319	52.444	0.462	0.432
-59.305	547.821	-0.577	-1.354
-58.290	800.000	0.440	1.244
-57.276	626.204	0.528	1.307
-56.261	-200.000	101.606	597.765
-55.246	578.547	1419.131	3405.491
-54.232	189.393	2613.456	3841.244
-53.217	111.111	2270.147	2681.493
-52.203	40.559	1893.007	1672.354
-51.188	34.529	1683.993	1442.238
-50.173	31.882	1640.967	1385.801
-49.159	50.355	1691.486	1567.457
-48.144	51.644	1707.412	1591.808
-47.130	34.184	1666.245	1424.232
-46.115	31.474	1651.784	1391.681
-45.100	31.319	1647.404	1386.780
-44.086	31.179	1644.838	1383.530
-43.071	31.235	1642.284	1381.743
-42.057	31.157	1639.621	1378.872
-41.042	31.120	1637.876	1377.074
-40.027	31.113	1635.867	1375.280
-39.013	31.210	1633.682	1374.102
-37.998	31.192	1632.319	1372.768
-36.984	31.215	1631.121	1371.874
-35.969	31.214	1629.737	1370.653
-34.954	31.395	1628.281	1370.698
-33.940	31.294	1626.804	1368.662
-32.925	31.364	1624.526	1367.200
-31.911	31.278	1623.438	1365.605
-30.896	31.249	1621.695	1363.868
-29.881	31.269	1619.737	1362.314
-28.867	31.251	1618.261	1360.886
-27.852	31.319	1616.178	1359.580
-26.838	31.282	1614.807	1358.106
-25.823	31.241	1613.749	1356.857
-24.809	31.342	1612.383	1356.395
-23.794	31.298	1610.796	1354.682
-22.779	31.322	1609.393	1353.625
-21.765	31.277	1608.123	1352.176
-20.750	31.266	1607.067	1351.155
-19.736	31.355	1605.038	1350.038
-18.721	31.453	1603.701	1349.572
-17.706	31.290	1602.587	1347.400
-16.692	31.342	1600.932	1346.329
-15.677	31.371	1599.083	1344.928
-14.663	31.420	1598.044	1344.357
-13.648	31.346	1596.942	1342.846
-12.633	31.379	1595.305	1341.651
-11.619	31.417	1593.459	1340.315
-10.604	31.431	1591.940	1339.090
-9.590	31.298	1591.220	1337.475
-8.575	31.347	1589.681	1336.484
-7.560	31.426	1588.454	1335.958
-6.546	31.404	1587.294	1334.771
-5.531	31.307	1586.625	1333.468
-4.517	31.283	1585.880	1332.619
-3.502	31.322	1584.249	1331.472
-2.487	31.370	1582.510	1330.297
-1.473	30.831	1570.517	1316.355
-0.458	27.506	1549.652	1275.580
0.556	24.937	1549.240	1238.199
1.571	22.013	1572.473	1236.102
2.586	21.264	1584.593	1240.202
3.600	18.597	1530.441	1179.399
4.615	11.154	1423.416	1049.061
5.629	4.847	1362.426	965.039
6.644	3.829	1354.605	953.141
7.659	3.787	1353.393	951.948
8.673	3.828	1352.146	951.239
9.688	3.816	1351.214	950.421
10.702	3.889	1347.745	948.347
11.717	6.574	1353.004	968.469
12.731	14.230	1366.882	1025.661
13.746	20.414	1377.116	1071.527
14.761	21.465	1377.429	1078.157
15.775	20.780	1375.582	1072.399
16.790	19.750	1372.573	1063.623
17.804	18.851	1370.614	1056.485
18.819	18.601	1369.301	1053.845
19.834	18.469	1368.369	1052.225
20.848	18.297	1366.898	1049.945
21.863	18.043	1366.048	1047.645
22.877	17.992	1364.793	1046.274
23.892	17.969	1364.154	1045.553
24.907	17.814	1363.333	1043.880
25.921	17.769	1362.373	1042.778
26.936	17.923	1361.409	1042.893
27.950	18.005	1360.440	1042.556
28.965	18.001	1359.825	1041.967
29.980	18.258	1358.224	1042.213
30.994	18.192	1357.268	1040.986
32.009	18.285	1356.296	1040.712
33.023	18.257	1355.097	1039.535
34.038	18.223	1353.837	1038.267
35.053	18.090	1352.419	1036.283
36.067	18.082	1351.755	1035.635
37.082	18.129	1350.684	1035.003
38.096	18.185	1349.836	1034.602
39.111	18.177	1349.079	1033.884
40.126	18.018	1348.168	1032.131
41.140	17.813	1347.311	1030.147
42.155	17.750	1346.230	1028.853
43.169	17.699	1346.180	1028.411
44.184	17.666	1345.888	1027.899
45.199	17.739	1345.269	1027.779
46.213	17.794	1344.934	1027.759
47.228	18.007	1344.444	1028.576
48.242	18.045	1343.229	1027.787
49.257	17.955	1341.668	1025.959
50.271	18.002	1340.118	1024.967
51.286	18.065	1339.222	1024.570
52.301	17.954	1337.887	1022.793
53.315	17.895	1336.731	1021.462
54.330	17.700	1335.483	1019.255
55.344	17.764	1334.289	1018.632
56.359	17.756	1333.106	1017.593
57.374	17.771	1332.015	1016.761
58.388	17.662	1330.889	1015.160
59.403	17.649	1330.870	1014.981
60.417	17.641	1329.748	1013.986
61.432	17.597	1329.405	1013.372
62.447	17.500	1328.377	1011.925
63.461	17.423	1327.000	1010.326
64.476	17.341	1326.032	1009.015
65.490	17.430	1324.936	1008.619
66.505	17.558	1323.118	1007.904
67.520	17.570	1321.763	1006.852
68.534	17.568	1320.975	1006.154
69.549	17.389	1320.302	1004.494
70.563	17.416	1319.195	1003.724
71.578	17.395	1317.611	1002.304
72.593	17.305	1317.230	1001.398
73.607	17.357	1316.372	1000.961
74.622	17.330	1315.508	1000.058
75.636	17.333	1314.744	999.404
76.651	17.349	1314.681	999.364
77.666	17.281	1314.171	998.485
78.680	17.501	1313.164	998.922
79.695	17.617	1312.361	998.903
80.709	17.658	1311.847	998.667
81.724	17.607	1311.179	997.770
82.739	17.831	1310.396	998.395
83.753	17.915	1309.413	998.050
84.768	18.008	1308.787	998.027
85.782	18.203	1307.266	997.916
86.797	18.100	1306.125	996.357
87.812	17.947	1304.957	994.489
88.826	18.003	1303.976	993.980
89.841	18.027	1303.276	993.496
90.855	18.005	1302.834	992.943
91.870	18.200	1301.884	993.263
92.884	18.169	1300.941	992.280
93.899	18.190	1299.872	991.497
94.914	18.276	1298.964	991.213
95.928	18.292	1298.079	990.542
96.943	18.204	1297.680	989.641
97.957	18.205	1296.131	988.380
98.972	18.101	1295.739	987.392
99.987	18.188	1294.108	986.565
101.001	18.248	1293.157	986.096
102.016	18.145	1292.188	984.680
103.030	18.172	1291.751	984.413
104.045	18.025	1290.775	982.736
105.060	18.012	1289.474	981.585
106.074	17.841	1288.001	979.396
107.089	17.639	1286.161	976.751
108.103	17.507	1284.720	974.815
109.118	17.491	1284.035	974.118
110.133	17.454	1283.006	973.041
111.147	17.587	1281.291	972.411
112.162	17.690	1279.942	971.892
113.176	17.748	1278.951	971.383
114.191	17.772	1278.078	970.772
115.206	17.731	1277.058	969.677
116.220	17.631	1275.864	968.115
117.235	17.672	1274.830	967.476
118.249	17.681	1273.399	966.355
119.264	17.531	1272.780	964.954
120.279	17.609	1271.184	964.100
121.293	17.471	1270.442	962.668
122.308	17.454	1269.557	961.820
123.322	17.440	1268.088	960.543
124.337	17.363	1267.264	959.396
125.352	17.371	1266.232	958.577
126.366	17.411	1264.714	957.567
127.381	17.389	1263.937	956.768
128.395	17.350	1262.518	955.393
129.410	17.515	1261.857	955.733
130.424	17.573	1260.840	955.207
131.439	17.574	1260.581	954.928
132.454	17.722	1259.677	954.987
133.468	17.723	1258.912	954.330
134.483	17.775	1258.118	953.937
135.497	17.748	1257.025	952.872
136.512	17.850	1255.512	952.209
137.527	17.596	1255.223	950.487
138.541	17.834	1253.242	950.229
139.556	17.878	1252.335	949.701
140.570	17.860	1251.733	949.065
141.585	17.939	1250.346	948.363
142.600	17.991	1249.193	947.695
143.614	18.105	1248.788	947.938
144.629	18.229	1246.886	947.096
145.643	18.180	1245.729	945.859
146.658	17.967	1244.848	943.930
147.673	17.896	1243.357	942.325
148.687	17.852	1242.306	941.203
149.702	17.848	1240.274	939.558
150.716	17.732	1239.266	938.076
151.731	17.669	1238.230	936.861
152.746	17.753	1236.722	936.100
153.760	17.812	1235.813	935.650
154.775	17.890	1234.887	935.293
155.789	17.954	1234.270	935.093
156.804	18.011	1233.273	934.568
157.819	18.059	1231.851	933.672
158.833	18.256	1231.080	934.079
159.848	18.238	1230.434	933.409
160.862	18.185	1229.572	932.384
161.877	17.967	1227.944	929.877
162.892	17.812	1226.620	927.951
163.906	17.727	1226.096	927.012
164.921	17.693	1225.381	926.203
165.935	17.867	1224.211	926.183
166.950	17.968	1223.836	926.363
167.964	17.966	1222.768	925.460
168.979	17.894	1222.292	924.632
169.994	17.789	1221.900	923.681
171.008	17.980	1220.959	923.921
172.023	18.079	1220.225	923.823
173.037	18.210	1219.538	923.925
174.052	18.094	1218.829	922.680
175.067	18.015	1217.235	920.967
176.081	17.795	1216.470	919.122
177.096	17.831	1215.406	918.431
178.110	17.965	1214.280	918.217
179.125	17.899	1213.335	917.067
180.140	18.035	1211.680	916.465
181.154	18.082	1210.872	916.023
182.169	18.087	1209.950	915.272
183.183	18.386	1208.532	915.722
184.198	18.331	1207.982	914.929
185.213	18.291	1206.481	913.496
186.227	18.272	1205.788	912.789
187.242	18.305	1204.599	911.983
188.256	18.445	1203.694	911.962
189.271	18.492	1202.572	911.282
190.286	18.150	1201.532	908.597
191.300	17.942	1200.628	906.731
192.315	17.817	1199.545	905.167
193.329	17.876	1198.893	904.909
194.344	18.012	1198.619	905.339
195.359	18.075	1197.784	904.967
196.373	18.178	1197.251	905.025
197.388	18.270	1196.800	905.093
198.402	18.423	1196.649	905.707
199.417	18.544	1195.828	905.646
200.432	18.602	1195.091	905.312
201.446	18.717	1194.459	905.359
202.461	18.828	1193.344	905.021
203.475	18.679	1192.816	903.754
204.490	18.581	1191.338	902.043
205.504	18.455	1189.582	899.968
206.519	18.319	1188.990	898.727
207.534	18.294	1187.793	897.611
208.548	18.339	1186.904	897.096
209.563	18.396	1186.235	896.810
210.577	18.426	1184.992	895.950
211.592	18.509	1184.484	895.919
212.607	18.593	1183.714	895.697
213.621	18.685	1182.935	895.507
214.636	18.638	1182.052	894.516
215.650	18.634	1180.911	893.553
216.665	18.657	1180.341	893.158
217.680	18.765	1179.826	893.255
218.694	18.785	1178.632	892.371
219.709	18.702	1178.194	891.530
220.723	18.800	1176.939	891.010
221.738	18.636	1176.511	889.759
222.753	18.668	1175.888	889.374
223.767	18.734	1174.843	888.847
224.782	18.856	1174.564	889.191
225.796	18.918	1173.980	888.990
226.811	18.893	1172.960	888.010
227.826	18.780	1172.094	886.692
228.840	18.743	1171.421	885.913
229.855	18.778	1171.015	885.708
230.869	18.766	1169.715	884.581
231.884	18.743	1168.933	883.799
232.899	18.510	1168.296	882.038
233.913	18.612	1167.489	881.876
234.928	18.507	1166.933	880.835
235.942	18.502	1165.692	879.799
236.957	18.588	1165.079	879.697
237.972	18.535	1164.429	878.859
238.986	18.514	1164.148	878.462
240.001	18.536	1163.229	877.799
241.015	18.607	1162.502	877.539
242.030	18.595	1161.963	876.990
243.045	18.681	1160.944	876.584
244.059	18.797	1160.453	876.729
245.074	18.879	1159.360	876.241
246.088	18.806	1158.543	875.175
247.103	19.125	1157.598	876.011
248.117	18.970	1157.640	875.175
249.132	19.290	1156.713	876.023
250.147	19.387	1156.923	876.595
251.161	19.474	1155.789	876.104
252.176	19.460	1155.153	875.470
253.190	19.572	1154.322	875.333
254.205	19.624	1153.965	875.247
255.220	19.662	1153.112	874.716
256.234	19.625	1152.576	874.043
257.249	19.590	1151.903	873.277
258.263	19.511	1151.417	872.436
259.278	19.605	1150.595	872.207
260.293	19.592	1149.853	871.502
261.307	19.615	1149.750	871.464
262.322	19.665	1149.324	871.318
263.336	19.697	1148.355	870.665
264.351	19.691	1147.943	870.246
265.366	19.749	1146.824	869.615
266.380	19.662	1146.513	868.865
267.395	19.569	1145.246	867.357
268.409	19.595	1144.283	866.686
269.424	19.520	1143.748	865.828
270.439	19.539	1143.211	865.437
271.453	19.450	1142.604	864.456
272.468	19.529	1141.292	863.781
273.482	19.469	1140.216	862.590
274.497	19.439	1140.189	862.345
275.512	19.481	1139.348	861.841
276.526	19.433	1138.656	861.003
277.541	19.440	1137.856	860.353
278.555	19.515	1137.341	860.262
279.570	19.710	1136.527	860.543
280.585	19.781	1135.930	860.368
281.599	19.836	1135.231	860.036
282.614	19.673	1133.909	858.150
283.628	19.632	1132.652	856.919
284.643	19.634	1131.918	856.295
285.657	19.739	1130.564	855.718
286.672	19.634	1130.205	854.852
287.687	19.627	1129.289	854.047
288.701	19.760	1128.695	854.179
289.716	19.630	1127.911	852.871
290.730	19.630	1127.586	852.549
291.745	19.719	1126.404	852.019
292.760	19.802	1125.680	851.805
293.774	19.845	1125.785	852.021
294.789	19.956	1124.959	851.863
295.803	19.925	1124.481	851.276
296.818	19.811	1123.667	850.025
297.833	19.761	1122.789	849.039
298.847	19.790	1122.026	848.528
299.862	19.803	1120.971	847.720
300.876	19.847	1120.577	847.561
301.891	20.002	1119.960	847.780
302.906	20.090	1118.897	847.330
303.920	20.134	1118.922	847.489
304.935	20.180	1118.239	847.121
305.949	20.277	1117.461	846.929
306.964	20.236	1116.573	845.983
307.979	20.155	1115.876	844.982
308.993	20.069	1114.955	843.793
310.008	20.325	1114.192	844.387
311.022	20.240	1113.778	843.584
312.037	20.302	1112.742	843.027
313.052	20.206	1111.555	841.589
314.066	19.941	1111.100	839.883
315.081	19.799	1110.180	838.424
316.095	19.791	1109.522	837.813
317.110	19.809	1108.777	837.265
318.125	19.905	1108.043	837.101
319.139	19.806	1107.255	835.952
320.154	19.953	1106.527	836.040
321.168	19.981	1105.988	835.693
322.183	19.992	1105.238	835.104
323.197	19.946	1105.223	834.799
324.212	19.960	1104.252	834.060
325.227	20.014	1103.437	833.628
326.241	20.115	1102.981	833.699
327.256	19.959	1102.424	832.452
328.270	19.885	1101.460	831.295
329.285	20.014	1100.199	830.891
330.300	19.969	1099.717	830.236
331.314	20.034	1098.819	829.797
332.329	20.069	1097.627	828.990
333.343	20.093	1097.039	828.588
334.358	20.099	1096.420	828.073
335.373	20.261	1095.669	828.208
336.387	20.248	1094.995	827.563
337.402	20.314	1093.981	827.040
338.416	20.454	1093.382	827.181
339.431	20.498	1092.847	826.912
340.446	20.474	1092.673	826.590
341.460	20.579	1092.188	826.649
342.475	20.625	1091.091	825.965
343.489	20.561	1090.520	825.158
344.504	20.705	1089.350	824.883
345.519	20.790	1088.665	824.692
346.533	20.868	1087.918	824.424
347.548	20.739	1087.744	823.604
348.562	20.746	1086.476	822.606
349.577	20.686	1085.494	821.506
350.592	20.497	1084.346	819.673
351.606	20.437	1083.487	818.671
352.621	20.409	1083.029	818.121
353.635	20.364	1082.420	817.376
354.650	20.341	1081.760	816.695
355.665	20.463	1081.056	816.668
356.679	20.477	1080.470	816.215
357.694	20.463	1080.114	815.810
358.708	20.560	1079.511	815.735
359.723	20.651	1079.055	815.748
360.738	20.586	1078.164	814.695
361.752	20.697	1077.519	814.656
362.767	20.654	1077.051	814.031
363.781	20.701	1076.263	813.582
364.796	20.697	1076.282	813.508
365.810	20.862	1075.519	813.628
366.825	21.002	1074.619	813.530
367.840	21.022	1074.720	813.624
368.854	21.111	1074.128	813.519
369.869	21.247	1073.100	813.303
370.883	21.107	1071.871	811.647
371.898	20.887	1071.891	810.570
372.913	20.920	1071.165	810.104
373.927	20.990	1070.865	810.126
374.942	21.201	1070.075	810.439
375.956	21.184	1069.200	809.624
376.971	21.099	1068.615	808.714
377.986	21.127	1068.237	808.488
379.000	21.312	1067.587	808.782
380.015	21.381	1066.880	808.493
381.029	21.394	1066.439	808.147
382.044	21.339	1066.076	807.548
383.059	21.257	1065.449	806.621
384.073	21.326	1064.186	805.911
385.088	21.329	1063.316	805.194
386.102	21.289	1062.475	804.305
387.117	21.146	1061.644	802.948
388.132	21.084	1060.754	801.915
389.146	21.073	1059.786	801.062
390.161	21.077	1058.905	800.344
391.175	21.042	1058.539	799.836
392.190	21.342	1057.351	800.244
393.205	21.425	1057.207	800.442
394.219	21.392	1055.900	799.232
395.234	21.189	1055.304	797.783
396.248	21.203	1054.054	796.832
397.263	21.064	1053.502	795.710
398.278	20.862	1052.837	794.216
399.292	20.937	1052.076	793.911
400.307	20.856	1051.143	792.770
401.321	20.977	1050.415	792.703
402.336	21.074	1049.467	792.354
403.350	20.899	1049.296	791.363
404.365	20.931	1049.001	791.215
405.380	21.186	1047.720	791.334
406.394	21.244	1047.360	791.258
407.409	21.402	1046.407	791.180
408.423	21.363	1046.129	790.726
409.438	21.469	1045.217	790.444
410.453	21.669	1044.356	790.625
411.467	21.745	1043.605	790.327
412.482	21.566	1043.473	789.353
413.496	21.811	1042.298	789.497
414.511	21.793	1042.237	789.301
415.526	21.912	1041.704	789.362
416.540	21.950	1041.319	789.173
417.555	21.976	1040.530	788.619
418.569	21.845	1040.123	787.655
419.584	21.607	1039.400	785.967
420.599	21.746	1039.188	786.362
421.613	155.521	1402.483	1794.085
422.628	142.282	1455.377	1794.158
