DTS Sentinel unit serial number:	SN413079Multiplexer serial number:	ORYXHardware model number:	OX4-SRSoftware version number:	ORYX F/W v4.00 Oryx Data Collector v3.7.2.0data status	okinstallation	princeton_trtdifferential loss correction	single-endedforward channel	channel 2reverse channel	N/Adate	2019/09/11time	04:49:10forward acquisition time	60.00reverse acquisition time	0.00gamma	496.2192k internal	0.2330k external	0.2330temperature offset calibration	0.9942default loss term (dB/km)	0.3790temperature slope calibration	1.0000multiplexer offset coefficient	1.0000multiplexer slope coefficient	1.0000fibre end	0.00T internal ref (°C)	29.50T ext. ref 1 (°C)	-0.25T ext. ref 2 (°C)	23.38length (m)	temperature (°C)	Stokes	anti-Stokes-747.200	-200.000	-0.040	-0.315
-746.185	-47.097	-0.300	0.148
-745.171	-44.515	-0.132	-0.066
-744.156	800.000	-0.054	0.215
-743.142	126.398	-0.170	-0.217
-742.127	333.252	-0.163	0.317
-741.112	-32.451	-0.267	-0.150
-740.098	-200.000	0.011	0.156
-739.083	-39.732	-0.198	-0.104
-738.069	800.000	0.054	-0.214
-737.054	217.281	-0.097	-0.156
-736.039	-73.056	-0.210	0.077
-735.025	-200.000	0.010	0.393
-734.010	314.029	0.103	-0.195
-732.996	800.000	0.121	-0.348
-731.981	101.274	0.190	-0.223
-730.966	-200.000	0.045	0.316
-729.952	5.761	0.137	0.102
-728.937	-200.000	0.008	-0.085
-727.923	800.000	-0.046	-0.172
-726.908	-200.000	-0.015	0.071
-725.894	-200.000	-0.013	-0.234
-724.879	550.079	0.176	-0.425
-723.864	-56.713	-0.109	0.048
-722.850	-41.914	-0.372	-0.192
-721.835	78.308	-0.230	-0.247
-720.821	312.913	-0.120	0.227
-719.806	-106.638	0.162	0.036
-718.791	-200.000	-0.022	0.231
-717.777	309.479	0.147	-0.277
-716.762	40.253	-0.164	0.148
-715.748	191.759	-0.142	-0.215
-714.733	153.942	0.077	-0.107
-713.718	28.337	0.053	0.045
-712.704	-80.839	-0.058	-0.019
-711.689	-18.274	-0.151	0.095
-710.675	-118.469	0.270	0.048
-709.660	-147.642	-0.131	-0.011
-708.645	29.891	-0.063	0.054
-707.631	-177.708	-0.036	-0.001
-706.616	-200.000	-0.008	-0.131
-705.602	442.071	-0.107	-0.237
-704.587	-9.914	0.051	0.034
-703.572	-79.747	0.215	0.073
-702.558	800.000	-0.067	-0.212
-701.543	-121.710	0.317	0.053
-700.529	-30.020	-0.270	0.155
-699.514	531.105	0.048	0.113
-698.499	-72.486	0.335	0.124
-697.485	155.503	-0.130	-0.179
-696.470	800.000	0.032	-0.136
-695.456	125.334	0.071	-0.089
-694.441	21.491	-0.192	-0.157
-693.426	349.147	-0.007	0.014
-692.412	391.079	0.073	0.153
-691.397	156.862	0.210	0.292
-690.383	-41.153	-0.313	-0.162
-689.368	-89.744	-0.273	0.080
-688.354	800.000	0.020	-0.083
-687.339	341.041	0.130	0.256
-686.324	-65.509	-0.340	0.137
-685.310	-87.973	0.223	-0.067
-684.295	73.999	-0.154	-0.163
-683.281	-200.000	0.017	-0.094
-682.266	-200.000	-0.056	0.416
-681.251	563.156	-0.054	-0.131
-680.237	-149.395	0.059	0.005
-679.222	-200.000	-0.027	0.200
-678.208	-42.208	0.312	-0.160
-677.193	200.692	0.158	-0.243
-676.178	800.000	-0.050	0.211
-675.164	-3.100	-0.273	0.191
-674.149	-200.000	-0.005	-0.283
-673.135	-170.559	-0.464	0.016
-672.120	428.529	0.026	0.056
-671.105	-15.295	-0.193	0.124
-670.091	274.454	0.099	0.176
-669.076	34.520	-0.425	-0.372
-668.062	-32.037	-0.161	-0.091
-667.047	58.270	-0.257	0.253
-666.032	-77.095	0.039	-0.014
-665.018	-136.016	-0.223	0.026
-664.003	-52.050	0.241	-0.113
-662.989	303.471	0.036	0.067
-661.974	-48.592	0.093	-0.045
-660.959	293.167	0.064	-0.118
-659.945	-127.668	-0.083	-0.012
-658.930	198.090	-0.156	-0.240
-657.916	-47.331	-0.339	-0.166
-656.901	-67.192	0.346	-0.137
-655.886	21.706	-0.161	0.132
-654.872	-61.952	-0.120	-0.051
-653.857	106.721	0.024	-0.029
-652.843	170.955	-0.087	-0.126
-651.828	355.693	-0.076	-0.152
-650.814	67.474	-0.163	0.167
-649.799	-111.951	-0.110	-0.022
-648.784	-200.000	0.004	-0.065
-647.770	-200.000	-0.059	-0.521
-646.755	40.679	-0.094	-0.085
-645.741	-200.000	0.018	-0.116
-644.726	-98.604	0.276	0.071
-643.711	-122.677	0.191	-0.031
-642.697	-200.000	-0.044	-0.344
-641.682	-200.000	0.010	-0.132
-640.668	-120.054	-0.400	-0.069
-639.653	116.842	-0.107	0.132
-638.638	-157.254	0.105	0.006
-637.624	-200.000	0.014	0.156
-636.609	-187.046	0.203	-0.003
-635.595	-180.540	-0.243	0.005
-634.580	800.000	0.081	-0.290
-633.565	-94.698	-0.112	-0.031
-632.551	207.545	0.200	0.313
-631.536	-17.701	-0.182	-0.115
-630.522	131.173	0.147	-0.190
-629.507	314.954	-0.108	0.204
-628.492	-84.253	-0.414	-0.131
-627.478	191.832	-0.225	-0.340
-626.463	279.126	0.126	-0.226
-625.449	202.530	-0.101	-0.157
-624.434	359.311	0.115	0.230
-623.419	-133.739	0.122	0.015
-622.405	249.045	-0.038	0.065
-621.390	26.025	-0.087	-0.073
-620.376	-200.000	-0.008	0.249
-619.361	80.199	0.177	-0.190
-618.346	-200.000	-0.006	-0.084
-617.332	-143.661	-0.220	-0.021
-616.317	-200.000	0.014	-0.239
-615.303	75.773	-0.091	-0.097
-614.288	-81.535	0.103	0.034
-613.273	-81.576	0.155	-0.051
-612.259	15.747	-0.232	-0.183
-611.244	-29.578	-0.353	0.202
-610.230	-200.000	-0.006	-0.066
-609.215	-200.000	-0.008	-0.069
-608.201	-199.496	-0.147	0.001
-607.186	-200.000	-0.030	-0.259
-606.171	338.607	0.124	0.243
-605.157	-51.565	-0.190	-0.089
-604.142	72.033	0.012	-0.012
-603.128	456.268	0.090	0.201
-602.113	-57.391	-0.098	0.043
-601.098	592.850	-0.048	-0.118
-600.084	-68.374	0.057	0.022
-599.069	-200.000	-0.004	-0.378
-598.055	-200.000	0.042	-0.207
-597.040	-200.000	0.008	-0.378
-596.025	160.950	-0.122	0.170
-595.011	-200.000	0.035	0.298
-593.996	481.194	0.132	-0.299
-592.982	-74.783	-0.120	-0.043
-591.967	-200.000	-0.006	0.215
-590.952	800.000	-0.079	-0.330
-589.938	800.000	0.067	0.215
-588.923	46.080	-0.111	0.103
-587.909	-70.930	0.180	-0.068
-586.894	18.494	0.238	0.191
-585.879	-104.356	-0.121	-0.028
-584.865	-200.000	0.008	0.111
-583.850	800.000	-0.036	0.141
-582.836	800.000	-0.064	-0.204
-581.821	307.948	-0.119	0.222
-580.806	800.000	0.104	-0.287
-579.792	-0.895	-0.347	-0.246
-578.777	-25.464	-0.408	0.241
-577.763	800.000	-0.006	0.019
-576.748	250.170	-0.168	0.285
-575.733	251.122	0.182	-0.309
-574.719	92.769	-0.062	-0.070
-573.704	-91.863	-0.032	0.009
-572.690	-27.716	0.157	0.091
-571.675	-175.339	0.212	0.006
-570.661	310.993	-0.169	0.317
-569.646	19.002	0.261	0.209
-568.631	-200.000	-0.006	-0.058
-567.617	-74.949	-0.227	0.081
-566.602	800.000	-0.090	0.254
-565.588	148.273	0.170	-0.229
-564.573	-54.400	-0.417	0.189
-563.558	-200.000	0.017	0.228
-562.544	-38.833	-0.327	-0.172
-561.529	353.095	-0.028	-0.055
-560.515	800.000	0.042	-0.131
-559.500	-200.000	-0.001	-0.288
-558.485	-97.653	-0.055	0.014
-557.471	800.000	0.018	0.065
-556.456	-80.595	0.174	0.058
-555.442	337.241	0.174	-0.338
-554.427	36.307	0.065	0.058
-553.412	-72.886	-0.253	-0.093
-552.398	122.212	0.142	-0.177
-551.383	-90.326	-0.143	-0.042
-550.369	-77.965	0.129	0.045
-549.354	-200.000	-0.024	-0.263
-548.339	76.396	-0.107	-0.113
-547.325	-41.891	0.189	-0.097
-546.310	-78.869	0.190	0.065
-545.296	800.000	-0.019	-0.079
-544.281	-114.524	-0.332	0.064
-543.266	52.160	0.278	0.265
-542.252	-200.000	0.039	0.182
-541.237	-47.567	0.244	-0.118
-540.223	-200.000	0.064	0.280
-539.208	-200.000	0.023	-0.116
-538.193	165.943	-0.099	0.139
-537.179	24.828	-0.100	0.083
-536.164	-200.000	-0.018	0.094
-535.150	-35.155	0.099	0.054
-534.135	11.990	-0.240	0.184
-533.121	-90.110	-0.107	0.031
-532.106	83.335	0.042	0.045
-531.091	98.809	-0.188	-0.217
-530.077	471.990	0.043	-0.096
-529.062	127.331	-0.150	0.190
-528.048	-83.333	0.208	0.067
-527.033	-131.085	-0.308	0.041
-526.018	-173.712	0.263	0.008
-525.004	616.690	0.063	-0.159
-523.989	226.754	0.003	0.004
-522.975	93.418	-0.122	-0.137
-521.960	126.720	-0.049	0.062
-520.945	800.000	0.031	-0.103
-519.931	-200.000	-0.028	-0.254
-518.916	800.000	0.019	0.083
-517.902	-124.701	-0.239	-0.037
-516.887	800.000	0.074	0.281
-515.872	72.587	-0.141	0.147
-514.858	366.446	-0.045	-0.090
-513.843	28.793	0.047	-0.040
-512.829	-133.238	0.339	0.043
-511.814	-55.715	-0.262	-0.117
-510.799	-101.340	0.208	0.051
-509.785	-63.762	-0.152	-0.062
-508.770	98.618	0.093	0.107
-507.756	23.073	-0.200	-0.164
-506.741	-96.478	-0.263	0.069
-505.726	105.664	-0.137	0.162
-504.712	-142.541	-0.048	-0.005
-503.697	42.298	0.142	0.129
-502.683	-78.029	-0.154	-0.053
-501.668	107.566	-0.206	0.245
-500.653	187.175	0.141	0.209
-499.639	-200.000	0.010	0.047
-498.624	-124.600	0.359	-0.056
-497.610	446.780	0.085	0.187
-496.595	197.924	-0.083	0.127
-495.581	-29.460	0.110	-0.063
-494.566	38.088	0.057	0.051
-493.551	80.969	0.107	-0.115
-492.537	-81.619	-0.457	-0.150
-491.522	31.910	0.157	0.135
-490.508	-200.000	0.019	-0.128
-489.493	-71.446	-0.339	-0.127
-488.478	195.860	0.080	0.121
-487.464	-110.250	0.222	-0.046
-486.449	6.201	-0.115	-0.085
-485.435	-176.709	0.181	-0.005
-484.420	69.438	-0.180	0.185
-483.405	-141.958	-0.136	0.013
-482.391	94.579	-0.233	-0.264
-481.376	-108.185	-0.285	0.061
-480.362	800.000	-0.093	0.303
-479.347	-200.000	0.022	0.194
-478.332	-146.527	0.517	0.045
-477.318	-132.522	0.294	0.038
-476.303	-145.379	-0.325	0.029
-475.289	-131.600	0.166	-0.022
-474.274	800.000	0.047	0.186
-473.259	800.000	-0.059	-0.206
-472.245	101.023	0.106	-0.122
-471.230	150.891	0.202	0.273
-470.216	-46.925	-0.055	-0.027
-469.201	-200.000	0.010	-0.135
-468.186	-45.272	-0.278	0.137
-467.172	719.400	0.023	0.061
-466.157	19.443	-0.197	0.158
-465.143	800.000	-0.014	0.043
-464.128	800.000	-0.091	-0.328
-463.113	1.100	0.114	-0.082
-462.099	431.849	0.071	-0.153
-461.084	-194.738	0.421	-0.003
-460.070	-37.192	0.117	0.062
-459.055	107.259	-0.078	0.093
-458.040	-100.310	0.080	-0.020
-457.026	800.000	-0.018	-0.068
-456.011	-164.579	0.194	0.009
-454.997	-64.711	0.129	-0.052
-453.982	-13.155	-0.502	-0.325
-452.968	339.817	0.100	-0.193
-451.953	197.867	-0.236	-0.359
-450.938	283.693	-0.142	-0.255
-449.924	-50.182	0.182	-0.086
-448.909	77.508	0.062	0.065
-447.895	-109.964	-0.101	-0.021
-446.880	380.875	-0.174	-0.355
-445.865	-200.000	-0.057	-0.352
-444.851	-183.390	0.224	-0.004
-443.836	-76.186	0.353	0.124
-442.822	2.227	0.191	0.138
-441.807	-200.000	0.035	0.308
-440.792	-91.827	0.193	-0.055
-439.778	167.708	0.344	-0.487
-438.763	-45.860	-0.098	-0.048
-437.749	-67.670	-0.326	-0.127
-436.734	-200.000	-0.126	0.600
-435.719	-32.833	0.215	0.119
-434.705	-84.423	0.251	-0.079
-433.690	800.000	-0.050	-0.150
-432.676	-182.847	0.357	-0.006
-431.661	-200.000	0.048	-0.297
-430.646	-200.000	-0.000	0.301
-429.632	-200.000	0.014	0.203
-428.617	-97.713	0.075	0.019
-427.603	800.000	-0.084	-0.277
-426.588	297.260	0.264	0.481
-425.573	110.223	-0.278	0.331
-424.559	-32.372	-0.241	-0.134
-423.544	800.000	-0.043	0.177
-422.530	-115.724	-0.209	0.039
-421.515	-142.987	-0.155	-0.015
-420.500	-116.765	0.131	-0.024
-419.486	-118.530	-0.199	-0.035
-418.471	459.594	-0.019	0.042
-417.457	-10.330	-0.179	-0.118
-416.442	-200.000	-0.013	0.069
-415.428	311.960	-0.098	0.182
-414.413	-5.356	-0.183	-0.125
-413.398	39.750	0.121	0.108
-412.384	160.896	-0.065	0.090
-411.369	-10.705	-0.088	0.058
-410.355	-146.829	-0.280	0.024
-409.340	-136.149	0.249	0.029
-408.325	-200.000	0.051	-0.265
-407.311	-121.222	0.123	0.020
-406.296	-56.995	-0.187	-0.082
-405.282	-200.000	-0.035	0.179
-404.267	-200.000	0.061	-0.413
-403.252	-5.342	-0.389	-0.266
-402.238	-200.000	0.050	-0.409
-401.223	-75.797	0.238	0.084
-400.209	-34.998	-0.387	0.210
-399.194	-138.651	0.135	0.015
-398.179	214.737	-0.151	0.238
-397.165	124.149	0.047	0.059
-396.150	29.300	0.279	-0.236
-395.136	-2.270	-0.147	-0.102
-394.121	-57.778	0.219	-0.095
-393.106	19.993	-0.172	0.137
-392.092	373.173	-0.078	0.157
-391.077	-94.436	0.296	-0.080
-390.063	-200.000	-0.001	0.350
-389.048	-200.000	-0.002	0.068
-388.033	-123.089	-0.244	0.039
-387.019	-200.000	0.003	-0.148
-386.004	-72.717	0.046	0.017
-384.990	-120.995	-0.254	0.042
-383.975	49.732	0.316	0.296
-382.960	-175.034	0.247	0.007
-381.946	18.518	0.202	-0.160
-380.931	-11.303	-0.060	0.039
-379.917	-35.375	0.322	-0.174
-378.902	25.380	-0.241	-0.199
-377.888	257.040	-0.116	0.199
-376.873	-101.990	-0.148	0.035
-375.858	11.974	0.410	0.313
-374.844	-111.862	-0.201	-0.040
-373.829	92.952	0.124	0.139
-372.815	4.099	-0.202	0.147
-371.800	-36.748	0.200	-0.107
-370.785	-135.697	0.183	-0.021
-369.771	288.858	-0.061	-0.110
-368.756	-92.121	-0.281	-0.079
-367.742	-157.827	0.512	-0.030
-366.727	212.255	-0.082	0.128
-365.712	-105.331	0.336	-0.076
-364.698	337.199	0.081	-0.156
-363.683	74.884	0.176	-0.183
-362.669	658.985	0.084	0.214
-361.654	-200.000	-0.022	0.243
-360.639	-200.000	-0.021	0.165
-359.625	-32.676	0.195	-0.108
-358.610	-92.283	-0.314	-0.088
-357.596	-7.625	0.053	0.035
-356.581	-200.000	-0.034	-0.256
-355.566	-122.021	-0.274	-0.045
-354.552	-136.224	0.099	0.011
-353.537	-70.209	0.302	0.114
-352.523	-200.000	0.005	-0.299
-351.508	-200.000	0.040	-0.267
-350.493	33.934	-0.116	0.101
-349.479	-65.915	-0.115	0.046
-348.464	248.797	0.140	-0.234
-347.450	775.394	0.063	0.172
-346.435	55.518	0.242	0.232
-345.420	203.690	-0.066	-0.102
-344.406	207.163	-0.127	0.197
-343.391	-20.047	0.088	-0.054
-342.377	-80.370	-0.310	0.103
-341.362	-51.818	0.151	0.070
-340.348	461.923	0.098	0.216
-339.333	800.000	0.203	-0.557
-338.318	-168.200	0.138	-0.005
-337.304	-53.860	0.213	0.096
-336.289	-200.000	0.010	0.241
-335.275	-200.000	0.086	-0.390
-334.260	-200.000	0.020	-0.143
-333.245	-5.900	0.207	-0.141
-332.231	-115.881	-0.069	0.013
-331.216	81.602	0.154	0.165
-330.202	-104.125	-0.138	0.032
-329.187	-13.427	0.102	0.065
-328.172	183.478	0.242	0.354
-327.158	521.770	-0.051	-0.118
-326.143	-200.000	-0.038	0.294
-325.129	380.577	0.184	0.374
-324.114	231.390	-0.085	0.139
-323.099	114.567	-0.182	0.220
-322.085	242.462	0.056	-0.094
-321.070	-200.000	-0.019	0.500
-320.056	528.090	0.084	0.196
-319.041	-55.639	-0.312	0.138
-318.026	-12.538	0.058	0.037
-317.012	-67.909	-0.199	-0.077
-315.997	800.000	-0.028	-0.110
-314.983	-20.162	-0.092	0.056
-313.968	-21.550	-0.107	0.065
-312.953	-13.462	-0.072	-0.046
-311.939	39.123	0.098	0.086
-310.924	171.311	0.296	-0.420
-309.910	-81.090	0.263	-0.086
-308.895	-3.799	0.189	-0.130
-307.880	-110.349	0.263	-0.054
-306.866	129.684	-0.223	0.283
-305.851	-51.570	0.275	-0.127
-304.837	-113.902	0.268	0.052
-303.822	68.207	0.105	0.106
-302.807	-120.211	0.211	-0.036
-301.793	-121.031	-0.250	-0.042
-300.778	154.923	-0.197	-0.268
-299.764	-200.000	-0.026	0.150
-298.749	-38.992	-0.136	-0.071
-297.735	112.624	-0.089	0.106
-296.720	521.285	0.100	0.233
-295.705	-200.000	0.010	0.091
-294.691	357.377	0.031	0.061
-293.676	-139.040	0.289	0.031
-292.662	-200.000	-0.013	0.391
-291.647	269.776	-0.024	0.041
-290.632	-200.000	0.081	-0.358
-289.618	188.960	0.114	-0.168
-288.603	79.705	0.083	0.088
-287.589	-53.765	0.265	-0.120
-286.574	-144.508	-0.142	0.013
-285.559	800.000	0.208	-0.584
-284.545	800.000	-0.059	0.179
-283.530	20.312	-0.216	0.172
-282.516	10.113	0.087	0.065
-281.501	521.064	-0.014	0.032
-280.486	165.173	-0.123	0.171
-279.472	800.000	-0.030	-0.130
-278.457	-200.000	-0.031	-0.160
-277.443	191.662	-0.350	-0.522
-276.428	31.236	-0.126	0.107
-275.413	222.160	-0.133	-0.212
-274.399	-106.596	-0.455	-0.100
-273.384	800.000	0.091	0.251
-272.370	-29.379	-0.161	-0.091
-271.355	-200.000	0.004	0.097
-270.340	-127.789	0.314	0.045
-269.326	83.777	0.294	0.317
-268.311	-106.511	0.118	0.026
-267.297	52.119	0.152	0.143
-266.282	10.666	-0.031	-0.023
-265.267	6.749	0.056	0.041
-264.253	-129.125	0.219	0.030
-263.238	18.766	-0.084	0.066
-262.224	-26.328	-0.152	-0.088
-261.209	272.841	0.152	0.265
-260.195	-177.473	0.293	0.007
-259.180	-81.130	-0.192	-0.063
-258.165	-10.637	-0.436	0.285
-257.151	455.822	0.147	-0.322
-256.136	649.696	0.101	0.256
-255.122	-200.000	-0.042	0.601
-254.107	59.240	-0.053	-0.051
-253.092	60.634	0.121	0.119
-252.078	-200.000	0.066	0.465
-251.063	-45.596	-0.366	-0.179
-250.049	-164.841	0.492	-0.022
-249.034	-92.067	0.350	0.098
-248.019	-15.616	-0.249	0.157
-247.005	89.746	0.202	-0.222
-245.990	-67.153	-0.253	0.099
-244.976	183.215	-0.035	-0.052
-243.961	-200.000	-0.038	0.297
-242.946	-110.700	-0.189	0.039
-241.932	108.559	-0.229	-0.270
-240.917	6.411	0.062	0.045
-239.903	-200.000	-0.017	-0.190
-238.888	389.416	-0.105	0.214
-237.873	-127.299	-0.180	-0.026
-236.859	335.655	0.159	0.305
-235.844	30.614	-0.237	-0.200
-234.830	425.338	-0.090	-0.191
-233.815	216.406	0.150	0.236
-232.800	800.000	-0.088	0.275
-231.786	754.330	0.028	-0.074
-230.771	800.000	0.057	-0.223
-229.757	243.379	-0.040	-0.066
-228.742	800.000	-0.083	-0.245
-227.727	31.628	-0.289	-0.245
-226.713	-200.000	-0.010	0.335
-225.698	319.382	-0.026	0.049
-224.684	-37.429	-0.045	-0.024
-223.669	408.461	0.008	-0.017
-222.655	18.996	0.166	-0.132
-221.640	-34.986	0.146	-0.078
-220.625	325.368	-0.057	0.108
-219.611	-82.844	-0.173	0.055
-218.596	-11.568	-0.482	-0.312
-217.582	474.711	-0.057	0.127
-216.567	-132.033	-0.231	-0.030
-215.552	800.000	-0.025	-0.089
-214.538	800.000	0.045	-0.127
-213.523	59.253	-0.216	0.210
-212.509	12.795	0.265	0.202
-211.494	686.162	-0.078	-0.201
-210.479	800.000	0.056	0.195
-209.465	786.063	0.079	-0.214
-208.450	-160.435	0.199	0.011
-207.436	-74.889	-0.248	0.088
-206.421	32.387	-0.146	-0.125
-205.406	-200.000	-0.012	-0.363
-204.392	24.959	0.175	-0.143
-203.377	-55.762	-0.106	-0.047
-202.363	-39.147	-0.223	0.116
-201.348	-38.239	0.114	0.060
-200.333	111.152	-0.118	-0.140
-199.319	271.775	0.095	0.164
-198.304	59.722	0.025	-0.025
-197.290	-13.307	0.156	-0.100
-196.275	359.918	0.198	-0.391
-195.260	-188.877	-0.221	0.003
-194.246	-11.641	-0.145	-0.094
-193.231	-167.148	-0.138	-0.006
-192.217	-161.191	-0.430	-0.022
-191.202	-76.905	-0.052	0.018
-190.187	-200.000	-0.020	0.473
-189.173	800.000	0.063	0.209
-188.158	800.000	-0.059	-0.200
-187.144	-108.173	-0.328	-0.070
-186.129	608.410	0.092	-0.226
-185.114	37.347	0.186	0.163
-184.100	-139.970	0.368	-0.038
-183.085	-142.513	0.193	-0.019
-182.071	-200.000	0.019	-0.207
-181.056	-155.907	-0.123	0.008
-180.042	-59.279	0.374	0.159
-179.027	574.012	0.116	0.278
-178.012	84.171	-0.229	0.246
-176.998	150.365	0.177	-0.236
-175.983	688.047	0.071	0.182
-174.969	-200.000	0.029	0.210
-173.954	-70.587	-0.121	-0.045
-172.939	-200.000	-0.041	-0.415
-171.925	-200.000	0.026	0.124
-170.910	800.000	-0.066	-0.191
-169.896	395.015	0.081	0.167
-168.881	800.000	0.037	-0.127
-167.866	-83.254	0.046	0.015
-166.852	375.332	-0.075	-0.151
-165.837	549.426	-0.049	0.116
-164.823	585.011	0.070	-0.168
-163.808	100.900	0.189	0.217
-162.793	-80.449	0.230	-0.076
-161.779	-159.563	0.263	-0.014
-160.764	-119.151	-0.072	0.012
-159.750	800.000	0.111	0.370
-158.735	-82.842	0.265	-0.084
-157.720	438.299	-0.065	0.139
-156.706	345.896	-0.058	0.113
-155.691	-72.907	-0.077	-0.028
-154.677	-200.000	0.007	0.096
-153.662	26.232	0.307	0.253
-152.647	58.204	0.196	-0.189
-151.633	-200.000	0.002	-0.318
-150.618	-181.273	0.123	-0.002
-149.604	-200.000	0.017	-0.140
-148.589	-200.000	-0.036	-0.167
-147.574	-160.838	-0.062	-0.003
-146.560	-147.385	0.169	-0.014
-145.545	27.265	-0.271	-0.224
-144.531	559.744	0.065	0.154
-143.516	-160.707	0.205	0.011
-142.502	81.266	0.184	0.195
-141.487	56.634	0.044	-0.042
-140.472	-82.065	0.092	-0.030
-139.458	176.632	-0.061	0.088
-138.443	800.000	0.031	0.120
-137.429	-39.719	0.082	0.042
-136.414	143.116	-0.142	0.186
-135.399	131.367	0.101	-0.128
-134.385	-163.516	0.522	-0.024
-133.370	-200.000	-0.002	-0.046
-132.356	50.544	0.125	-0.116
-131.341	800.000	-0.017	0.063
-130.326	73.971	0.207	0.213
-129.312	238.784	-0.056	0.091
-128.297	-77.144	0.228	0.078
-127.283	253.517	0.142	-0.239
-126.268	728.012	0.042	-0.109
-125.253	-200.000	0.004	-0.195
-124.239	-200.000	0.070	0.343
-123.224	-48.539	-0.035	-0.016
-122.210	-62.954	0.294	-0.119
-121.195	-128.030	0.283	0.040
-120.180	-161.187	0.255	0.013
-119.166	-102.539	-0.101	-0.024
-118.151	6.460	-0.146	-0.106
-117.137	-200.000	-0.025	-0.136
-116.122	-168.538	0.233	0.009
-115.107	-148.445	0.240	0.019
-114.093	-200.000	0.065	0.423
-113.078	19.449	-0.110	-0.087
-112.064	-74.128	0.228	0.081
-111.049	-149.958	-0.109	0.008
-110.034	-122.589	0.092	0.015
-109.020	-74.139	0.333	-0.118
-108.005	-1.087	-0.154	0.107
-106.991	-40.203	-0.106	-0.054
-105.976	770.564	0.188	0.503
-104.962	-200.000	-0.006	-0.085
-103.947	-49.623	-0.350	0.164
-102.932	-200.000	0.002	0.057
-101.918	-92.514	-0.253	0.070
-100.903	-108.444	0.048	-0.010
-99.889	785.972	0.032	-0.085
-98.874	-131.193	0.210	-0.027
-97.859	800.000	0.047	0.188
-96.845	-35.547	0.352	-0.187
-95.830	-46.782	0.094	-0.045
-94.816	800.000	0.075	0.216
-93.801	-200.000	-0.005	-0.106
-92.786	-34.656	0.274	0.147
-91.772	-46.106	0.233	-0.113
-90.757	-59.926	0.148	-0.062
-89.743	-48.019	0.350	-0.166
-88.728	220.408	-0.067	-0.105
-87.713	88.151	-0.052	-0.057
-86.699	140.171	0.141	-0.182
-85.684	-200.000	0.026	-0.227
-84.670	-94.456	0.314	0.084
-83.655	-73.483	0.140	-0.050
-82.640	-108.880	-0.251	-0.053
-81.626	-200.000	0.033	-0.404
-80.611	-175.463	0.232	-0.006
-79.597	-172.600	-0.095	0.003
-78.582	111.816	0.155	-0.184
-77.567	-137.757	0.519	-0.057
-76.553	-200.000	0.016	-0.236
-75.538	-53.965	-0.209	0.093
-74.524	-84.344	0.140	0.043
-73.509	-200.000	0.003	-0.089
-72.494	-51.354	0.105	0.048
-71.480	-140.841	0.204	-0.021
-70.465	800.000	0.111	-0.343
-69.451	155.317	0.129	-0.174
-68.436	-60.684	0.125	0.052
-67.422	247.428	0.056	-0.093
-66.407	-129.667	0.426	0.058
-65.392	-98.914	0.373	-0.093
-64.378	48.362	0.213	-0.195
-63.363	-104.333	-0.224	-0.051
-62.349	-32.773	0.094	-0.051
-61.334	111.356	-0.898	-1.061
-60.319	-79.495	0.559	0.185
-59.305	800.000	-0.250	-0.926
-58.290	170.847	0.689	0.968
-57.276	703.778	0.598	1.546
-56.261	-200.000	106.137	615.237
-55.246	507.374	1509.749	3433.673
-54.232	174.562	2712.305	3845.307
-53.217	104.584	2301.724	2657.388
-52.203	38.805	1905.585	1667.678
-51.188	32.626	1691.732	1433.637
-50.173	30.037	1648.613	1377.815
-49.159	49.278	1701.945	1568.258
-48.144	49.558	1717.081	1584.252
-47.130	32.294	1674.757	1416.522
-46.115	29.623	1660.091	1384.084
-45.100	29.376	1655.747	1378.559
-44.086	29.471	1652.654	1376.640
-43.071	29.442	1649.466	1373.712
-42.057	29.386	1647.509	1371.612
-41.042	29.402	1645.005	1369.592
-40.027	29.490	1643.329	1368.798
-39.013	29.385	1641.880	1366.755
-37.998	29.359	1640.302	1365.198
-36.984	29.418	1638.784	1364.316
-35.969	29.512	1637.718	1364.067
-34.954	29.551	1635.487	1362.442
-33.940	29.492	1633.997	1360.716
-32.925	29.593	1631.889	1359.651
-31.911	29.475	1630.647	1357.690
-30.896	29.427	1628.483	1355.480
-29.881	29.360	1627.211	1353.880
-28.867	29.550	1625.041	1353.409
-27.852	29.468	1623.964	1351.862
-26.838	29.473	1622.427	1350.567
-25.823	29.471	1621.581	1349.792
-24.809	29.549	1620.116	1349.087
-23.794	29.503	1618.511	1347.362
-22.779	29.506	1617.081	1346.139
-21.765	29.529	1615.264	1344.741
-20.750	29.462	1614.198	1343.313
-19.736	29.641	1611.957	1342.699
-18.721	29.584	1610.888	1341.337
-17.706	29.519	1609.325	1339.511
-16.692	29.570	1607.939	1338.678
-15.677	29.483	1606.851	1337.090
-14.663	29.558	1605.492	1336.448
-13.648	29.613	1603.998	1335.550
-12.633	29.560	1602.693	1334.027
-11.619	29.540	1601.377	1332.734
-10.604	29.498	1599.599	1330.898
-9.590	29.457	1598.459	1329.597
-8.575	29.513	1597.222	1328.923
-7.560	29.516	1596.063	1327.924
-6.546	29.539	1595.186	1327.306
-5.531	29.575	1593.600	1326.197
-4.517	29.605	1592.444	1325.396
-3.502	29.554	1591.912	1324.532
-2.487	29.656	1589.743	1323.405
-1.473	29.329	1578.031	1311.281
-0.458	26.543	1558.839	1275.679
0.556	20.738	1560.247	1244.780
1.571	18.607	1584.839	1248.794
2.586	18.263	1598.711	1257.082
3.600	16.654	1546.087	1204.157
4.615	8.913	1436.082	1067.048
5.629	1.303	1372.706	971.307
6.644	-0.195	1364.733	956.051
7.659	-0.262	1363.119	954.409
8.673	-0.310	1362.331	953.469
9.688	-0.254	1360.384	952.377
10.702	-0.504	1357.180	948.463
11.717	3.108	1364.439	976.413
12.731	12.590	1381.690	1049.393
13.746	19.822	1394.619	1105.513
14.761	21.783	1397.151	1119.960
15.775	22.211	1396.186	1121.822
16.790	22.205	1396.493	1121.929
17.804	22.221	1395.586	1121.205
18.819	22.494	1394.918	1122.306
19.834	22.562	1394.898	1122.624
20.848	22.625	1393.921	1122.137
21.863	22.564	1393.748	1121.512
22.877	22.603	1391.974	1120.233
23.892	22.582	1391.211	1119.389
24.907	22.603	1390.730	1119.036
25.921	22.542	1389.813	1117.813
26.936	22.669	1388.296	1117.298
27.950	22.615	1387.519	1116.229
28.965	22.562	1386.517	1114.993
29.980	22.528	1385.691	1114.013
30.994	22.505	1384.480	1112.797
32.009	22.648	1383.058	1112.455
33.023	22.551	1382.279	1111.119
34.038	22.546	1381.167	1110.096
35.053	22.577	1380.257	1109.461
36.067	22.551	1378.927	1108.130
37.082	22.496	1378.173	1107.080
38.096	22.570	1377.103	1106.590
39.111	22.576	1376.609	1106.133
40.126	22.612	1375.783	1105.598
41.140	22.626	1375.276	1105.180
42.155	22.590	1375.069	1104.690
43.169	22.588	1374.792	1104.352
44.184	22.552	1374.852	1104.078
45.199	22.611	1373.948	1103.627
46.213	22.580	1373.415	1102.908
47.228	22.640	1372.391	1102.363
48.242	22.645	1371.184	1101.326
49.257	22.589	1369.789	1099.757
50.271	22.577	1368.377	1098.450
51.286	22.592	1367.046	1097.381
52.301	22.610	1366.152	1096.675
53.315	22.553	1365.249	1095.502
54.330	22.544	1364.347	1094.621
55.344	22.502	1362.839	1093.055
56.359	22.568	1361.722	1092.473
57.374	22.527	1361.521	1091.962
58.388	22.659	1360.166	1091.594
59.403	22.544	1359.940	1090.605
60.417	22.509	1359.773	1090.155
61.432	22.551	1358.352	1089.183
62.447	22.591	1357.529	1088.672
63.461	22.540	1356.652	1087.557
64.476	22.561	1355.441	1086.622
65.490	22.563	1354.464	1085.752
66.505	22.649	1352.757	1084.818
67.520	22.604	1351.719	1083.614
68.534	22.549	1351.151	1082.726
69.549	22.625	1349.782	1082.000
70.563	22.612	1349.366	1081.486
71.578	22.574	1348.303	1080.309
72.593	22.672	1347.176	1079.912
73.607	22.554	1346.920	1078.888
74.622	22.742	1345.357	1078.691
75.636	22.621	1344.702	1077.330
76.651	22.623	1344.144	1076.802
77.666	22.631	1343.662	1076.366
78.680	22.619	1343.170	1075.804
79.695	22.646	1342.466	1075.312
80.709	22.599	1341.527	1074.179
81.724	22.543	1340.821	1073.175
82.739	22.500	1339.944	1072.115
83.753	22.590	1338.885	1071.723
84.768	22.635	1337.728	1070.976
85.782	22.545	1336.589	1069.418
86.797	22.588	1335.313	1068.568
87.812	22.584	1334.838	1068.070
88.826	22.700	1333.083	1067.268
89.841	22.683	1332.494	1066.598
90.855	22.610	1331.875	1065.572
91.870	22.687	1330.410	1064.770
92.884	22.754	1329.700	1064.511
93.899	22.662	1328.991	1063.292
94.914	22.729	1327.920	1062.747
95.928	22.751	1327.321	1062.306
96.943	22.686	1326.501	1061.166
97.957	22.622	1326.121	1060.380
98.972	22.658	1325.225	1059.786
99.987	22.666	1324.017	1058.775
101.001	22.625	1323.130	1057.725
102.016	22.615	1322.233	1056.854
103.030	22.629	1321.038	1055.891
104.045	22.668	1320.634	1055.707
105.060	22.816	1319.055	1055.239
106.074	22.686	1318.195	1053.679
107.089	22.646	1317.173	1052.531
108.103	22.680	1316.323	1051.962
109.118	22.634	1315.261	1050.743
110.133	22.704	1314.431	1050.408
111.147	22.732	1312.845	1049.211
112.162	22.812	1311.418	1048.455
113.176	22.723	1310.438	1047.050
114.191	22.677	1309.716	1046.109
115.206	22.862	1308.351	1046.023
116.220	22.739	1307.561	1044.570
117.235	22.741	1306.430	1043.584
118.249	22.656	1306.026	1042.666
119.264	22.644	1304.631	1041.389
120.279	22.793	1303.889	1041.583
121.293	22.757	1303.139	1040.681
122.308	22.726	1302.402	1039.820
123.322	22.832	1301.096	1039.308
124.337	22.800	1300.487	1038.537
125.352	22.870	1299.747	1038.267
126.366	22.895	1298.511	1037.340
127.381	22.834	1297.968	1036.454
128.395	22.829	1296.965	1035.533
129.410	22.849	1295.872	1034.683
130.424	22.779	1295.695	1034.041
131.439	22.877	1294.322	1033.426
132.454	22.848	1293.319	1032.364
133.468	22.733	1292.985	1031.338
134.483	22.910	1291.835	1031.359
135.497	22.763	1291.301	1029.985
136.512	22.796	1290.354	1029.332
137.527	22.855	1289.283	1028.731
138.541	22.768	1287.790	1026.942
139.556	22.809	1286.327	1025.921
140.570	22.872	1285.527	1025.557
141.585	22.816	1284.307	1024.169
142.600	22.765	1283.381	1023.044
143.614	22.762	1282.388	1022.147
144.629	22.722	1281.781	1021.339
145.643	22.714	1280.713	1020.354
146.658	22.837	1278.952	1019.571
147.673	22.750	1278.200	1018.379
148.687	22.715	1277.343	1017.401
149.702	22.673	1276.566	1016.451
150.716	22.684	1275.135	1015.288
151.731	22.637	1274.796	1014.658
152.746	22.746	1273.555	1014.202
153.760	22.780	1272.288	1013.299
154.775	22.744	1271.363	1012.271
155.789	22.756	1270.766	1011.769
156.804	22.731	1269.873	1010.829
157.819	22.827	1268.872	1010.490
158.833	22.827	1267.942	1009.660
159.848	22.856	1267.473	1009.367
160.862	22.818	1266.493	1008.277
161.877	22.823	1265.519	1007.441
162.892	22.885	1265.074	1007.350
163.906	22.849	1264.650	1006.720
164.921	22.934	1263.594	1006.275
165.935	22.954	1262.721	1005.603
166.950	22.906	1262.162	1004.798
167.964	22.884	1261.491	1004.050
168.979	22.873	1260.886	1003.415
169.994	22.889	1260.336	1002.978
171.008	22.961	1259.527	1002.658
172.023	22.901	1258.786	1001.639
173.037	22.857	1258.375	1000.972
174.052	22.984	1257.308	1000.751
175.067	22.908	1256.556	999.635
176.081	22.992	1255.576	999.246
177.096	22.900	1255.007	998.181
178.110	22.902	1254.231	997.486
179.125	23.051	1252.705	997.024
180.140	23.037	1251.789	996.128
181.154	22.975	1250.621	994.762
182.169	22.890	1249.825	993.566
183.183	22.831	1249.205	992.649
184.198	22.907	1248.075	992.090
185.213	23.060	1246.715	991.784
186.227	23.111	1245.577	991.077
187.242	22.975	1245.131	989.872
188.256	23.124	1243.864	989.610
189.271	23.079	1243.089	988.653
190.286	23.123	1242.252	988.146
191.300	22.995	1242.302	987.383
192.315	22.939	1241.422	986.286
193.329	23.041	1241.240	986.621
194.344	22.861	1241.106	985.424
195.359	23.061	1240.381	985.877
196.373	23.010	1239.540	984.836
197.388	23.012	1239.536	984.759
198.402	22.956	1239.017	983.949
199.417	22.972	1238.486	983.523
200.432	22.938	1237.971	982.839
201.446	22.926	1237.183	982.064
202.461	23.048	1236.471	982.086
203.475	23.080	1235.601	981.484
204.490	22.969	1234.877	980.211
205.504	23.072	1233.359	979.488
206.519	23.123	1232.291	978.838
207.534	23.038	1231.898	977.966
208.548	23.035	1230.855	977.036
209.563	23.138	1229.892	976.754
210.577	23.025	1229.434	975.678
211.592	23.090	1228.396	975.131
212.607	23.161	1227.488	974.711
213.621	23.159	1227.014	974.236
214.636	23.147	1226.096	973.358
215.650	23.099	1225.594	972.608
216.665	23.076	1224.313	971.378
217.680	23.171	1223.515	971.180
218.694	23.104	1222.930	970.265
219.709	23.297	1221.647	970.217
220.723	23.041	1221.910	968.939
221.738	23.130	1220.511	968.233
222.753	23.152	1219.706	967.628
223.767	23.185	1219.423	967.496
224.782	23.213	1218.472	966.811
225.796	23.225	1218.172	966.551
226.811	23.249	1217.412	965.995
227.826	23.330	1216.786	965.856
228.840	23.277	1216.410	965.179
229.855	23.239	1215.787	964.393
230.869	23.211	1215.335	963.798
231.884	23.220	1214.459	963.064
232.899	23.218	1213.559	962.257
233.913	23.164	1213.304	961.673
234.928	23.347	1212.458	961.913
235.942	23.382	1211.621	961.354
236.957	23.341	1211.070	960.608
237.972	23.281	1210.559	959.795
238.986	23.301	1210.192	959.526
240.001	23.401	1208.895	958.955
241.015	23.498	1207.925	958.623
242.030	23.386	1207.753	957.795
243.045	23.381	1207.087	957.159
244.059	23.434	1206.157	956.624
245.074	23.386	1205.572	955.812
246.088	23.459	1204.475	955.253
247.103	23.434	1203.437	954.212
248.117	23.376	1202.967	953.442
249.132	23.336	1202.543	952.805
250.147	23.519	1201.611	952.968
251.161	23.604	1200.677	952.598
252.176	23.470	1199.991	951.251
253.190	23.554	1199.334	951.099
254.205	23.369	1199.182	949.900
255.220	23.451	1198.508	949.722
256.234	23.420	1198.200	949.224
257.249	23.515	1196.925	948.644
258.263	23.510	1196.476	948.174
259.278	23.572	1195.883	947.951
260.293	23.587	1195.373	947.542
261.307	23.521	1195.134	946.918
262.322	23.570	1194.481	946.579
263.336	23.505	1193.607	945.457
264.351	23.573	1192.951	945.217
265.366	23.531	1192.435	944.501
266.380	23.534	1191.744	943.882
267.395	23.511	1191.058	943.136
268.409	23.498	1190.744	942.732
269.424	23.622	1189.746	942.521
270.439	23.585	1189.461	942.010
271.453	23.658	1188.514	941.566
272.468	23.579	1187.789	940.489
273.482	23.578	1187.154	939.896
274.497	23.646	1186.653	939.781
275.512	23.641	1186.512	939.557
276.526	23.562	1185.935	938.600
277.541	23.700	1184.823	938.365
278.555	23.617	1184.085	937.260
279.570	23.658	1183.325	936.790
280.585	23.676	1182.545	936.187
281.599	23.775	1181.663	935.929
282.614	23.709	1180.516	934.589
283.628	23.774	1179.629	934.147
284.643	23.746	1179.161	933.545
285.657	23.671	1178.613	932.632
286.672	23.725	1177.645	932.068
287.687	23.794	1176.389	931.355
288.701	23.875	1176.196	931.543
289.716	23.813	1175.460	930.554
290.730	23.722	1174.911	929.559
291.745	23.747	1174.254	929.091
292.760	23.811	1173.603	928.828
293.774	23.777	1173.358	928.374
294.789	23.806	1172.588	927.834
295.803	23.858	1171.592	927.232
296.818	23.786	1171.546	926.739
297.833	23.790	1171.209	926.411
298.847	23.817	1169.796	925.350
299.862	23.948	1168.937	925.274
300.876	23.927	1168.384	924.642
301.891	23.913	1167.929	924.130
302.906	23.907	1167.421	923.615
303.920	23.913	1166.642	922.950
304.935	23.941	1166.004	922.508
305.949	23.839	1165.475	921.476
306.964	23.952	1164.446	921.166
307.979	23.972	1164.080	920.901
308.993	24.111	1163.214	920.851
310.008	23.955	1162.829	919.659
311.022	24.076	1161.777	919.371
312.037	24.056	1161.200	918.732
313.052	23.887	1160.795	917.454
314.066	23.919	1159.401	916.438
315.081	23.937	1158.947	916.090
316.095	23.975	1158.464	915.823
317.110	24.025	1157.702	915.395
318.125	24.076	1156.762	914.837
319.139	24.074	1156.146	914.258
320.154	23.930	1155.999	913.321
321.168	24.092	1155.212	913.448
322.183	24.019	1154.873	912.728
323.197	24.043	1154.373	912.374
324.212	23.964	1153.871	911.488
325.227	24.119	1153.030	911.539
326.241	24.161	1152.212	911.029
327.256	24.037	1151.861	910.034
328.270	24.063	1150.322	908.870
329.285	24.231	1149.650	909.116
330.300	24.317	1148.998	908.957
331.314	24.138	1148.319	907.428
332.329	24.163	1147.466	906.800
333.343	24.293	1146.758	906.824
334.358	24.190	1146.172	905.758
335.373	24.122	1145.438	904.754
336.387	24.415	1144.367	905.311
337.402	24.374	1143.853	904.617
338.416	24.354	1143.478	904.137
339.431	24.380	1142.657	903.541
340.446	24.324	1142.063	902.711
341.460	24.277	1141.646	902.063
342.475	24.311	1140.863	901.534
343.489	24.334	1140.066	900.942
344.504	24.243	1138.770	899.379
345.519	24.302	1138.298	899.222
346.533	24.473	1137.200	899.139
347.548	24.300	1136.862	897.920
348.562	24.358	1136.297	897.684
349.577	24.384	1135.382	897.014
350.592	24.415	1134.252	896.197
351.606	24.266	1134.154	895.292
352.621	24.373	1133.784	895.460
353.635	24.330	1133.037	894.573
354.650	24.553	1131.660	894.523
355.665	24.403	1131.312	893.421
356.679	24.412	1130.643	892.856
357.694	24.467	1130.142	892.655
358.708	24.475	1129.295	891.951
359.723	24.513	1128.718	891.606
360.738	24.595	1127.835	891.236
361.752	24.404	1127.914	890.268
362.767	24.543	1126.986	890.150
363.781	24.506	1126.809	889.749
364.796	24.610	1126.175	889.684
365.810	24.542	1125.227	888.521
366.825	24.617	1124.900	888.556
367.840	24.661	1124.280	888.206
368.854	24.687	1123.642	887.754
369.869	24.626	1123.118	886.955
370.883	24.699	1122.130	886.461
371.898	24.766	1121.255	886.020
372.913	24.608	1120.906	884.885
373.927	24.688	1120.473	884.864
374.942	24.711	1120.082	884.588
375.956	24.667	1119.589	883.904
376.971	24.788	1118.719	883.736
377.986	24.771	1118.471	883.377
379.000	24.935	1117.537	883.372
380.015	24.915	1117.310	883.015
381.029	24.751	1116.664	881.620
382.044	24.749	1116.253	881.207
383.059	24.815	1115.183	880.609
384.073	24.766	1114.573	879.807
385.088	24.821	1113.547	879.189
386.102	24.796	1112.720	878.336
387.117	24.748	1112.249	877.649
388.132	24.808	1111.259	877.088
389.146	24.911	1110.357	876.802
390.161	24.849	1110.103	876.218
391.175	24.800	1109.277	875.251
392.190	24.799	1108.910	874.876
393.205	24.817	1107.783	874.000
394.219	24.782	1107.315	873.380
395.234	24.944	1106.585	873.517
396.248	24.927	1105.273	872.323
397.263	25.076	1104.399	872.284
398.278	24.976	1103.863	871.296
399.292	25.047	1103.576	871.338
400.307	25.047	1102.933	870.752
401.321	25.169	1101.685	870.280
402.336	24.893	1101.734	868.905
403.350	25.043	1101.251	869.174
404.365	25.108	1100.411	868.750
405.380	25.146	1099.208	867.905
406.394	24.950	1099.065	866.768
407.409	25.118	1097.871	866.560
408.423	25.194	1097.287	866.393
409.438	25.128	1096.798	865.608
410.453	25.127	1096.005	864.901
411.467	25.193	1095.129	864.454
412.482	25.269	1094.283	864.074
413.496	25.222	1093.960	863.519
414.511	25.208	1093.449	862.971
415.526	25.228	1092.946	862.594
416.540	25.252	1092.413	862.210
417.555	25.215	1092.075	861.690
418.569	25.098	1091.755	860.798
419.584	25.225	1091.353	861.014
420.599	25.257	1090.213	860.192
421.613	148.263	1403.278	1798.823
422.628	137.166	1448.867	1798.888
