DTS Sentinel unit serial number:	SN413079Multiplexer serial number:	ORYXHardware model number:	OX4-SRSoftware version number:	ORYX F/W v4.00 Oryx Data Collector v3.7.2.0data status	okinstallation	princeton_trtdifferential loss correction	single-endedforward channel	channel 2reverse channel	N/Adate	2019/09/16time	23:07:34forward acquisition time	60.00reverse acquisition time	0.00gamma	496.2192k internal	0.2330k external	0.2330temperature offset calibration	0.9971default loss term (dB/km)	0.3790temperature slope calibration	1.0000multiplexer offset coefficient	1.0000multiplexer slope coefficient	1.0000fibre end	0.00T internal ref (°C)	30.23T ext. ref 1 (°C)	0.08T ext. ref 2 (°C)	23.86length (m)	temperature (°C)	Stokes	anti-Stokes-747.200	-142.645	0.179	-0.018
-746.185	-200.000	-0.039	0.188
-745.171	-48.760	-0.171	-0.083
-744.156	508.322	0.036	0.084
-743.142	103.554	-0.022	0.026
-742.127	-200.000	-0.030	0.247
-741.112	-9.893	0.290	0.194
-740.098	40.018	-0.056	-0.051
-739.083	-98.877	-0.244	0.062
-738.069	796.752	0.108	0.300
-737.054	-121.556	0.121	0.020
-736.039	-200.000	-0.369	0.001
-735.025	306.533	0.020	-0.037
-734.010	12.548	-0.177	-0.137
-732.996	-200.000	0.026	-0.306
-731.981	-56.652	-0.195	-0.087
-730.966	800.000	-0.067	-0.188
-729.952	-163.157	0.118	0.006
-728.937	-15.678	-0.147	-0.094
-727.923	425.013	0.093	-0.203
-726.908	586.201	0.037	-0.091
-725.894	-69.785	0.356	-0.137
-724.879	800.000	0.061	-0.175
-723.864	72.455	0.237	-0.248
-722.850	2.623	0.240	-0.175
-721.835	-200.000	0.070	-0.377
-720.821	-68.024	0.172	-0.067
-719.806	166.904	-0.052	-0.074
-718.791	-37.264	0.445	-0.239
-717.777	-136.438	-0.041	-0.005
-716.762	588.276	-0.073	-0.182
-715.748	138.250	0.179	-0.236
-714.733	-200.000	0.039	0.183
-713.718	-11.595	-0.257	-0.170
-712.704	-23.679	0.154	0.093
-711.689	743.367	-0.056	-0.151
-710.675	-192.232	0.168	-0.002
-709.660	411.335	-0.037	-0.079
-708.645	-200.000	-0.058	-0.356
-707.631	800.000	-0.017	0.053
-706.616	625.649	-0.179	0.454
-705.602	115.528	0.106	0.131
-704.587	-145.401	-0.396	0.036
-703.572	371.701	0.104	0.213
-702.558	-200.000	-0.010	-0.446
-701.543	20.320	0.173	-0.140
-700.529	-115.967	0.110	-0.021
-699.514	94.043	0.163	-0.186
-698.499	800.000	-0.044	-0.135
-697.485	800.000	-0.040	-0.128
-696.470	-200.000	-0.006	0.167
-695.456	-68.879	-0.265	0.103
-694.441	-9.743	-0.113	-0.076
-693.426	344.127	0.119	0.235
-692.412	-200.000	-0.056	0.326
-691.397	27.126	0.118	-0.100
-690.383	426.791	0.057	-0.124
-689.368	246.633	0.159	-0.270
-688.354	266.886	0.131	0.229
-687.339	33.014	-0.032	-0.028
-686.324	-111.075	0.263	0.054
-685.310	143.659	0.246	0.329
-684.295	800.000	0.017	0.058
-683.281	-101.295	-0.433	-0.106
-682.266	-65.161	-0.053	-0.021
-681.251	240.783	0.140	0.235
-680.237	-53.124	0.236	0.109
-679.222	455.585	0.031	0.069
-678.208	-200.000	0.014	-0.255
-677.193	-170.008	-0.073	-0.003
-676.178	192.144	-0.106	-0.161
-675.164	379.166	0.084	-0.172
-674.149	-120.869	-0.235	0.040
-673.135	164.790	-0.154	0.218
-672.120	-10.309	0.254	-0.169
-671.105	-68.552	-0.168	-0.065
-670.091	-101.967	-0.324	0.078
-669.076	-110.894	0.033	-0.007
-668.062	-18.288	0.297	0.187
-667.047	16.717	0.068	0.054
-666.032	32.672	0.103	0.090
-665.018	-62.446	0.138	-0.058
-664.003	29.996	-0.118	-0.101
-662.989	644.508	0.076	0.195
-661.974	187.522	0.125	-0.187
-660.959	294.558	-0.085	-0.156
-659.945	95.640	0.033	-0.037
-658.930	678.489	0.067	0.175
-657.916	-60.952	-0.022	0.010
-656.901	-138.698	0.114	0.013
-655.886	160.902	0.174	0.244
-654.872	-46.990	-0.095	0.047
-653.857	-125.056	-0.324	0.050
-652.843	-29.308	0.235	0.135
-651.828	-36.551	-0.210	-0.113
-650.814	-200.000	0.031	-0.179
-649.799	-107.546	0.284	0.062
-648.784	56.706	-0.280	0.273
-647.770	-55.061	-0.179	-0.081
-646.755	229.405	-0.265	-0.434
-645.741	35.232	-0.294	0.258
-644.726	60.653	-0.344	-0.341
-643.711	135.279	0.059	-0.076
-642.697	800.000	-0.057	-0.201
-641.682	-83.375	0.284	-0.091
-640.668	-138.583	0.277	0.030
-639.653	800.000	-0.094	0.308
-638.638	800.000	-0.013	-0.054
-637.624	800.000	-0.046	-0.137
-636.609	44.804	-0.238	0.220
-635.595	163.799	-0.193	0.273
-634.580	-116.325	-0.133	0.025
-633.565	-40.801	0.087	0.045
-632.551	77.582	0.146	-0.155
-631.536	30.070	-0.241	-0.206
-630.522	8.406	-0.090	-0.068
-629.507	-88.463	0.067	0.020
-628.492	-200.000	-0.010	-0.252
-627.478	-47.106	-0.178	-0.087
-626.463	800.000	0.016	-0.059
-625.449	94.542	0.235	0.268
-624.434	-0.323	-0.068	0.049
-623.419	-200.000	0.010	0.106
-622.405	-200.000	0.016	0.175
-621.390	146.026	0.133	0.179
-620.376	-200.000	-0.023	-0.147
-619.361	-200.000	-0.038	-0.176
-618.346	-200.000	0.045	-0.253
-617.332	75.086	0.162	-0.171
-616.317	36.495	0.183	-0.162
-615.303	800.000	-0.012	0.042
-614.288	404.593	-0.129	-0.272
-613.273	-200.000	-0.003	0.082
-612.259	49.177	0.147	-0.138
-611.244	-200.000	-0.030	-0.540
-610.230	800.000	-0.108	0.317
-609.215	-133.886	0.118	0.015
-608.201	-41.885	0.230	-0.118
-607.186	800.000	-0.050	-0.194
-606.171	800.000	0.044	0.126
-605.157	-200.000	0.033	-0.282
-604.142	-200.000	-0.030	-0.212
-603.128	800.000	0.017	0.048
-602.113	-200.000	-0.023	-0.145
-601.098	-127.903	0.093	-0.013
-600.084	-200.000	-0.027	-0.136
-599.069	-141.007	-0.221	-0.023
-598.055	-200.000	0.036	0.446
-597.040	11.483	-0.275	0.211
-596.025	-200.000	0.041	-0.270
-595.011	27.111	-0.172	0.144
-593.996	-48.494	-0.418	0.201
-592.982	132.519	0.350	-0.452
-591.967	39.509	-0.126	0.113
-590.952	20.643	-0.253	0.205
-589.938	-200.000	0.013	0.085
-588.923	800.000	0.049	-0.184
-587.909	-141.425	0.245	0.025
-586.894	-51.279	-0.312	0.146
-585.879	-200.000	-0.014	-0.357
-584.865	48.090	0.163	-0.153
-583.850	7.394	0.031	-0.023
-582.836	-200.000	0.032	-0.344
-581.821	228.198	-0.077	0.125
-580.806	-81.731	0.249	-0.082
-579.792	387.633	0.071	-0.146
-578.777	-200.000	-0.011	0.105
-577.763	-32.514	-0.275	0.153
-576.748	-116.600	-0.379	0.070
-575.733	800.000	-0.122	-0.379
-574.719	204.717	0.164	-0.254
-573.704	800.000	-0.059	-0.213
-572.690	-187.902	0.287	0.004
-571.675	94.551	-0.291	-0.330
-570.661	800.000	0.074	-0.249
-569.646	293.322	0.192	-0.350
-568.631	-2.507	0.327	0.229
-567.617	800.000	-0.016	-0.063
-566.602	-133.034	0.415	0.053
-565.588	-84.803	0.161	-0.051
-564.573	665.884	-0.021	-0.055
-563.558	226.724	0.058	-0.094
-562.544	65.896	-0.147	-0.149
-561.529	-59.021	-0.111	0.048
-560.515	98.376	0.070	-0.081
-559.500	-28.581	0.045	-0.026
-558.485	454.687	0.036	-0.080
-557.471	-87.972	-0.235	0.071
-556.456	-24.836	0.207	0.123
-555.442	-200.000	-0.006	-0.135
-554.427	800.000	-0.031	-0.129
-553.412	-156.817	0.170	-0.010
-552.398	104.931	0.245	0.289
-551.383	33.708	0.118	0.102
-550.369	-41.270	0.090	0.046
-549.354	-22.422	-0.234	0.142
-548.339	43.985	-0.173	0.158
-547.325	6.823	0.170	0.126
-546.310	-100.384	-0.141	-0.035
-545.296	800.000	-0.129	-0.398
-544.281	173.574	-0.150	-0.216
-543.266	-29.309	-0.085	0.048
-542.252	170.392	0.086	-0.122
-541.237	-200.000	0.012	0.056
-540.223	254.137	-0.028	0.048
-539.208	63.732	-0.036	0.036
-538.193	-36.221	-0.191	-0.103
-537.179	800.000	-0.077	0.310
-536.164	-200.000	-0.077	0.429
-535.150	-104.876	-0.104	-0.024
-534.135	-200.000	-0.013	-0.402
-533.121	-118.262	-0.080	0.014
-532.106	246.308	0.173	0.291
-531.091	172.047	-0.158	0.227
-530.077	-103.006	0.122	0.029
-529.062	-200.000	-0.016	0.088
-528.048	76.142	0.105	-0.110
-527.033	-200.000	0.000	0.007
-526.018	-125.801	-0.290	0.044
-525.004	-200.000	-0.018	0.146
-523.989	-66.545	-0.185	-0.073
-522.975	800.000	-0.089	0.267
-521.960	-147.794	0.176	-0.015
-520.945	-23.205	0.212	0.128
-519.931	50.413	0.002	-0.002
-518.916	800.000	-0.021	-0.089
-517.902	-192.761	0.160	-0.001
-516.887	177.490	0.144	0.209
-515.872	-66.901	-0.358	-0.141
-514.858	-48.568	-0.164	-0.079
-513.843	800.000	-0.045	0.129
-512.829	-139.475	-0.259	0.028
-511.814	-44.930	-0.048	0.024
-510.799	50.844	-0.087	0.082
-509.785	-94.724	-0.369	-0.100
-508.770	-200.000	-0.023	0.118
-507.756	-200.000	0.001	-0.028
-506.741	295.424	0.052	0.096
-505.726	800.000	0.076	0.259
-504.712	-11.384	-0.248	-0.163
-503.697	161.284	0.144	-0.201
-502.683	-125.490	0.245	-0.037
-501.668	-200.000	0.015	-0.303
-500.653	800.000	0.076	0.218
-499.639	165.385	0.148	-0.209
-498.624	-0.042	0.036	-0.026
-497.610	50.751	0.220	0.208
-496.595	1.812	0.228	0.164
-495.581	-9.250	0.062	0.041
-494.566	-200.000	0.047	-0.244
-493.551	-152.717	0.062	-0.004
-492.537	-200.000	-0.009	0.144
-491.522	-55.755	-0.155	-0.069
-490.508	-169.509	0.161	0.006
-489.493	-200.000	-0.071	-0.638
-488.478	-200.000	0.009	0.262
-487.464	90.126	-0.179	0.199
-486.449	69.702	-0.173	-0.178
-485.435	48.338	0.292	-0.273
-484.420	-177.451	0.349	-0.009
-483.405	-118.465	-0.236	-0.042
-482.391	-67.132	-0.362	0.142
-481.376	236.248	0.098	0.161
-480.362	-35.585	-0.065	-0.035
-479.347	468.771	-0.015	-0.034
-478.332	88.679	-0.063	-0.070
-477.318	363.492	0.029	0.058
-476.303	-200.000	0.007	-0.063
-475.289	-80.983	-0.361	-0.119
-474.274	658.404	-0.077	-0.197
-473.259	-143.670	0.140	0.013
-472.245	-200.000	0.029	-0.230
-471.230	-143.132	-0.187	0.018
-470.216	-136.494	0.122	0.014
-469.201	-51.272	0.107	0.050
-468.186	384.407	0.167	-0.342
-467.172	-64.800	0.187	-0.075
-466.157	120.512	0.106	0.131
-465.143	-200.000	0.036	0.168
-464.128	-102.569	-0.420	-0.100
-463.113	-78.650	-0.081	-0.027
-462.099	800.000	0.107	-0.446
-461.084	12.353	0.247	-0.190
-460.070	-33.252	0.441	-0.243
-459.055	-200.000	-0.012	-0.227
-458.040	119.155	0.174	0.214
-457.026	-200.000	0.006	0.211
-456.011	219.081	0.171	0.272
-454.997	-200.000	0.001	0.219
-453.982	-113.793	-0.137	0.026
-452.968	-96.864	0.172	-0.045
-451.953	-107.180	0.190	-0.042
-450.938	800.000	0.079	-0.336
-449.924	-200.000	0.036	-0.378
-448.909	-181.263	-0.378	0.007
-447.895	65.688	0.143	0.144
-446.880	-7.326	-0.053	-0.035
-445.865	-70.680	-0.251	-0.095
-444.851	-45.037	-0.274	-0.136
-443.836	800.000	0.131	-0.514
-442.822	-60.472	-0.159	-0.067
-441.807	25.313	0.137	-0.113
-440.792	130.076	-0.175	0.223
-439.778	310.703	0.184	0.343
-438.763	-51.574	0.167	-0.077
-437.749	-42.857	-0.171	-0.087
-436.734	-108.237	-0.239	0.051
-435.719	-97.982	0.087	0.022
-434.705	76.094	0.239	-0.252
-433.690	36.588	-0.087	0.076
-432.676	-200.000	-0.015	0.341
-431.661	33.344	-0.028	-0.024
-430.646	-141.533	-0.139	0.014
-429.632	-200.000	-0.034	0.228
-428.617	-200.000	-0.023	0.169
-427.603	-200.000	0.000	-0.129
-426.588	800.000	-0.040	0.148
-425.573	45.598	0.280	-0.258
-424.559	-200.000	-0.010	0.114
-423.544	-200.000	-0.034	0.165
-422.530	-3.346	0.132	0.091
-421.515	127.488	-0.192	-0.242
-420.500	-77.376	0.362	0.125
-419.486	76.938	0.038	-0.040
-418.471	800.000	0.141	0.511
-417.457	171.597	0.125	0.178
-416.442	-124.224	-0.083	-0.013
-415.428	-200.000	-0.112	0.587
-414.413	126.062	0.086	0.108
-413.398	126.993	0.023	-0.029
-412.384	2.038	0.070	0.050
-411.369	44.581	0.096	0.088
-410.355	264.167	-0.148	-0.255
-409.340	12.982	-0.165	-0.127
-408.325	149.906	-0.089	0.120
-407.311	68.230	-0.399	0.406
-406.296	-118.555	-0.320	0.056
-405.282	239.128	-0.092	0.152
-404.267	-200.000	-0.060	-0.354
-403.252	-32.380	-0.068	-0.037
-402.238	349.790	0.035	-0.069
-401.223	367.412	0.062	0.125
-400.209	-128.554	0.118	0.017
-399.194	-36.386	-0.257	0.138
-398.179	427.982	-0.084	0.179
-397.165	-200.000	-0.017	-0.087
-396.150	102.070	-0.294	-0.341
-395.136	-40.799	0.341	-0.175
-394.121	-114.998	-0.243	0.046
-393.106	229.224	0.099	0.160
-392.092	59.327	0.135	0.132
-391.077	-200.000	0.006	-0.223
-390.063	800.000	0.061	-0.256
-389.048	18.798	0.138	0.109
-388.033	-98.696	-0.160	0.041
-387.019	-77.164	0.368	0.127
-386.004	566.444	0.115	0.277
-384.990	-67.027	-0.101	0.040
-383.975	537.333	-0.043	0.102
-382.960	-200.000	-0.017	0.199
-381.946	-34.961	-0.220	-0.119
-380.931	-64.503	-0.207	0.083
-379.917	20.298	0.067	-0.053
-378.902	21.705	0.094	-0.076
-377.888	800.000	0.015	-0.044
-376.873	-146.541	-0.300	-0.026
-375.858	800.000	0.088	0.291
-374.844	387.378	-0.058	-0.120
-373.829	800.000	0.019	-0.066
-372.815	-169.613	-0.084	0.003
-371.800	-200.000	0.054	0.374
-370.785	42.127	0.160	0.145
-369.771	454.279	0.069	-0.152
-368.756	-45.653	0.183	0.090
-367.742	692.805	-0.032	0.083
-366.727	-200.000	0.042	-0.257
-365.712	-200.000	0.062	0.358
-364.698	-126.651	0.179	-0.026
-363.683	-200.000	0.032	0.172
-362.669	13.520	-0.202	-0.156
-361.654	-57.728	0.036	0.015
-360.639	346.255	0.058	0.114
-359.625	-70.027	-0.250	0.094
-358.610	800.000	-0.147	-0.482
-357.596	460.303	-0.137	-0.303
-356.581	-200.000	-0.002	0.285
-355.566	10.839	-0.221	-0.168
-354.552	431.856	-0.138	-0.297
-353.537	-11.855	0.067	-0.044
-352.523	-70.301	0.099	0.037
-351.508	-30.036	0.171	0.097
-350.493	-9.204	-0.340	-0.225
-349.479	-200.000	0.093	-0.509
-348.464	-157.216	0.334	0.020
-347.450	106.318	0.086	-0.101
-346.435	-200.000	0.018	0.124
-345.420	-96.201	-0.038	-0.010
-344.406	35.059	0.058	0.051
-343.391	-200.000	0.011	0.049
-342.377	645.849	-0.064	0.161
-341.362	165.318	-0.217	0.303
-340.348	135.852	-0.076	0.098
-339.333	166.781	0.227	0.319
-338.318	89.739	0.048	-0.053
-337.304	20.239	-0.277	0.222
-336.289	-36.742	0.166	0.089
-335.275	-200.000	-0.012	-0.092
-334.260	800.000	-0.088	-0.261
-333.245	22.082	0.057	0.046
-332.231	614.044	0.036	-0.088
-331.216	450.375	0.143	0.312
-330.202	362.996	-0.010	-0.019
-329.187	40.283	0.316	0.282
-328.172	26.403	0.177	0.147
-327.158	91.455	-0.089	0.099
-326.143	-20.738	0.067	-0.041
-325.129	1.503	0.197	-0.140
-324.114	355.721	-0.151	0.297
-323.099	-197.477	0.292	0.002
-322.085	-200.000	0.016	-0.149
-321.070	-114.307	0.138	-0.026
-320.056	-200.000	-0.012	-0.144
-319.041	-145.541	0.198	-0.018
-318.026	-18.950	-0.043	-0.026
-317.012	800.000	-0.111	0.323
-315.997	112.768	0.199	0.239
-314.983	278.950	0.234	0.414
-313.968	800.000	-0.111	0.447
-312.953	3.406	0.235	-0.169
-311.939	493.830	-0.066	0.149
-310.924	-79.072	-0.118	-0.040
-309.910	-200.000	-0.008	-0.103
-308.895	144.991	-0.076	0.100
-307.880	-200.000	0.054	0.342
-306.866	-200.000	-0.001	-0.468
-305.851	60.245	-0.150	0.147
-304.837	-35.027	0.095	-0.051
-303.822	122.886	0.065	-0.081
-302.807	-24.177	-0.116	-0.069
-301.793	-106.746	0.306	-0.067
-300.778	461.542	-0.066	0.147
-299.764	-149.009	0.353	-0.028
-298.749	-98.664	0.218	0.055
-297.735	6.601	0.157	0.116
-296.720	76.917	-0.025	-0.027
-295.705	15.123	0.105	0.081
-294.691	302.791	0.087	0.159
-293.676	-153.545	0.114	-0.008
-292.662	-1.570	0.264	-0.184
-291.647	-142.971	-0.117	-0.011
-290.632	169.124	-0.107	0.151
-289.618	331.159	-0.223	0.424
-288.603	800.000	-0.053	0.196
-287.589	87.658	-0.054	0.059
-286.574	303.575	-0.168	-0.307
-285.559	-200.000	-0.006	-0.337
-284.545	-30.101	-0.083	0.047
-283.530	-139.446	0.180	0.019
-282.516	-200.000	-0.005	-0.261
-281.501	29.592	0.021	0.017
-280.486	-149.057	-0.458	0.036
-279.472	-200.000	-0.001	0.152
-278.457	-40.980	0.293	-0.150
-277.443	-183.867	0.297	0.005
-276.428	-18.765	-0.133	-0.082
-275.413	8.437	-0.146	0.109
-274.399	428.909	-0.070	-0.150
-273.384	423.582	0.013	-0.027
-272.370	-40.144	0.208	-0.107
-271.355	-129.886	-0.207	0.028
-270.340	-41.529	-0.151	0.077
-269.326	-107.134	-0.466	-0.102
-268.311	800.000	-0.059	0.255
-267.297	407.519	0.055	-0.114
-266.282	-200.000	0.006	-0.202
-265.267	-126.129	-0.174	-0.026
-264.253	212.103	-0.027	-0.043
-263.238	76.230	0.170	0.178
-262.224	-200.000	-0.034	0.150
-261.209	20.011	0.319	-0.255
-260.195	1.859	-0.132	-0.094
-259.180	15.523	-0.254	-0.197
-258.165	-96.337	-0.133	0.035
-257.151	-154.215	-0.101	0.007
-256.136	129.266	-0.221	-0.278
-255.122	-59.108	0.387	-0.165
-254.107	-200.000	0.045	0.322
-253.092	-65.395	0.136	-0.054
-252.078	-19.529	-0.042	-0.026
-251.063	292.600	-0.121	-0.217
-250.049	88.101	0.164	-0.180
-249.034	-62.980	0.385	-0.157
-248.019	-200.000	-0.010	-0.330
-247.005	-9.778	0.259	0.170
-245.990	119.896	-0.182	0.223
-244.976	3.276	0.306	0.220
-243.961	37.299	-0.076	0.066
-242.946	38.057	-0.179	0.158
-241.932	232.144	-0.059	-0.096
-240.917	-48.472	0.226	0.108
-239.903	-135.809	-0.098	0.011
-238.888	49.927	-0.045	-0.042
-237.873	447.011	0.085	0.185
-236.859	800.000	-0.030	0.091
-235.844	800.000	-0.087	-0.269
-234.830	125.175	-0.224	-0.279
-233.815	-200.000	0.018	-0.115
-232.800	181.302	0.041	-0.060
-231.786	163.720	-0.217	0.301
-230.771	-200.000	0.008	0.294
-229.757	-200.000	0.048	0.284
-228.742	-33.499	0.297	-0.162
-227.727	624.036	0.095	0.237
-226.713	-35.835	-0.301	0.161
-225.698	-200.000	0.002	0.014
-224.684	718.415	0.080	0.210
-223.669	151.704	-0.087	0.117
-222.655	-28.068	-0.245	0.140
-221.640	-34.425	-0.051	0.028
-220.625	800.000	-0.037	-0.136
-219.611	-24.345	-0.116	0.068
-218.596	-68.183	-0.117	0.045
-217.582	618.831	-0.035	-0.086
-216.567	-27.831	0.155	-0.088
-215.552	-59.011	0.122	0.052
-214.538	-200.000	0.009	-0.123
-213.523	-167.017	0.100	0.004
-212.509	-200.000	-0.003	-0.099
-211.494	-134.286	0.176	0.021
-210.479	67.141	0.198	0.199
-209.465	428.292	-0.023	0.048
-208.450	25.866	0.159	0.131
-207.436	-200.000	0.000	-0.114
-206.421	-200.000	0.062	-0.343
-205.406	-74.810	0.323	0.114
-204.392	800.000	-0.056	-0.212
-203.377	800.000	0.054	-0.147
-202.363	-22.143	0.276	-0.165
-201.348	197.921	-0.048	-0.072
-200.333	-2.936	-0.228	-0.157
-199.319	122.871	-0.026	0.032
-198.304	-57.343	-0.216	0.094
-197.290	-200.000	0.077	-0.340
-196.275	800.000	-0.047	0.151
-195.260	800.000	-0.110	-0.336
-194.246	49.211	-0.164	0.151
-193.231	800.000	-0.068	-0.244
-192.217	4.354	0.064	-0.046
-191.202	-200.000	0.004	0.352
-190.187	108.173	0.241	-0.284
-189.173	190.971	0.107	-0.158
-188.158	-83.504	0.279	0.088
-187.144	800.000	-0.125	0.410
-186.129	-140.286	0.163	0.017
-185.114	-36.614	0.031	0.016
-184.100	4.775	-0.177	0.128
-183.085	26.600	0.097	-0.080
-182.071	66.200	0.050	0.050
-181.056	159.095	0.147	-0.202
-180.042	-98.803	-0.556	0.139
-179.027	-200.000	-0.065	0.309
-178.012	635.514	-0.033	0.083
-176.998	-200.000	0.180	-0.001
-175.983	122.924	-0.184	0.227
-174.969	108.460	0.231	-0.272
-173.954	-101.871	0.058	0.014
-172.939	-159.515	-0.319	-0.017
-171.925	81.646	0.102	0.109
-170.910	223.648	-0.130	-0.207
-169.896	84.552	0.157	0.169
-168.881	-200.000	-0.009	0.133
-167.866	74.506	-0.211	0.218
-166.852	800.000	-0.165	0.677
-165.837	-200.000	0.024	0.414
-164.823	-92.712	0.186	0.051
-163.808	42.198	-0.045	-0.040
-162.793	-107.290	-0.045	-0.010
-161.779	212.648	0.159	0.247
-160.764	-10.773	-0.154	-0.100
-159.750	-200.000	-0.030	0.367
-158.735	-200.000	0.010	-0.307
-157.720	-123.628	-0.204	-0.032
-156.706	-92.853	0.293	0.081
-155.691	109.479	0.110	-0.129
-154.677	-200.000	0.012	0.141
-153.662	-200.000	-0.027	-0.273
-152.647	-62.045	0.124	-0.051
-151.633	219.965	-0.136	-0.214
-150.618	-200.000	-0.006	0.277
-149.604	-146.034	0.304	0.026
-148.589	111.434	0.158	-0.188
-147.574	-140.529	-0.131	0.013
-146.560	-123.392	-0.136	-0.021
-145.545	-200.000	-0.033	0.246
-144.531	-115.442	-0.318	-0.059
-143.516	52.728	-0.223	0.210
-142.502	-200.000	-0.017	0.360
-141.487	800.000	0.056	-0.194
-140.472	-30.970	0.225	-0.125
-139.458	-183.118	-0.310	0.005
-138.443	531.629	-0.005	-0.012
-137.429	54.453	-0.203	-0.192
-136.414	364.519	0.095	-0.189
-135.399	149.712	0.112	-0.149
-134.385	-200.000	-0.002	0.095
-133.370	513.356	-0.146	0.334
-132.356	-42.760	0.053	-0.027
-131.341	-200.000	0.032	-0.144
-130.326	170.509	0.282	0.397
-129.312	-133.763	0.244	0.030
-128.297	225.031	-0.115	0.183
-127.283	-92.555	0.060	0.017
-126.268	-151.144	-0.281	-0.021
-125.253	-77.559	0.175	0.060
-124.239	8.748	-0.247	0.183
-123.224	800.000	-0.108	0.313
-122.210	4.048	-0.042	-0.030
-121.195	-77.223	0.231	0.079
-120.180	196.456	0.071	0.106
-119.166	-94.789	0.433	0.115
-118.151	-200.000	0.030	-0.154
-117.137	31.200	-0.054	0.046
-116.122	125.946	-0.157	0.195
-115.107	-72.010	-0.431	0.157
-114.093	-200.000	-0.030	-0.138
-113.078	491.069	0.150	-0.338
-112.064	561.749	-0.039	0.092
-111.049	73.570	-0.139	-0.143
-110.034	800.000	-0.087	0.284
-109.020	-186.035	0.056	0.001
-108.005	279.546	-0.085	0.149
-106.991	116.844	0.201	-0.242
-105.976	-200.000	0.017	0.171
-104.962	-53.331	-0.213	0.096
-103.947	413.992	-0.148	0.309
-102.932	800.000	-0.105	-0.379
-101.918	58.285	-0.311	0.299
-100.903	-20.002	0.234	-0.142
-99.889	795.550	0.058	0.156
-98.874	800.000	0.078	-0.321
-97.859	-25.255	0.147	-0.085
-96.845	261.537	0.188	0.320
-95.830	-200.000	0.051	0.295
-94.816	-109.692	-0.314	-0.065
-93.801	-97.270	0.047	-0.012
-92.786	111.205	0.067	0.080
-91.772	-147.501	0.219	0.018
-90.757	130.943	0.182	-0.230
-89.743	-188.214	0.346	0.004
-88.728	136.239	0.139	-0.178
-87.713	301.955	-0.061	0.111
-86.699	569.699	0.052	0.125
-85.684	-144.882	0.175	0.016
-84.670	-119.039	-0.057	0.010
-83.655	445.949	-0.069	-0.148
-82.640	202.516	-0.151	0.228
-81.626	587.975	-0.143	-0.345
-80.611	-200.000	0.062	0.377
-79.597	482.830	-0.133	0.297
-78.582	-200.000	0.029	0.153
-77.567	800.000	-0.017	0.063
-76.553	-200.000	0.001	0.096
-75.538	-95.783	0.300	0.078
-74.524	-200.000	0.114	0.612
-73.509	-74.424	0.428	0.151
-72.494	-200.000	0.009	-0.099
-71.480	800.000	-0.034	0.142
-70.465	-200.000	-0.048	-0.235
-69.451	748.142	0.038	0.101
-68.436	-70.374	0.372	0.138
-67.422	-200.000	0.049	-0.340
-66.407	-161.508	0.252	-0.013
-65.392	-45.594	-0.152	0.074
-64.378	800.000	-0.064	0.252
-63.363	-144.702	-0.113	-0.010
-62.349	-15.119	-0.222	0.139
-61.334	-24.512	-1.066	-0.622
-60.319	153.679	0.581	0.781
-59.305	-200.000	-0.187	-0.897
-58.290	800.000	0.514	1.411
-57.276	742.036	0.598	1.575
-56.261	-200.000	106.893	582.689
-55.246	463.017	1456.717	3188.454
-54.232	150.177	2642.674	3514.760
-53.217	101.099	2280.169	2600.420
-52.203	39.293	1895.964	1663.336
-51.188	33.490	1685.785	1435.099
-50.173	30.800	1642.625	1378.416
-49.159	49.271	1694.700	1561.486
-48.144	49.962	1709.879	1580.602
-47.130	33.024	1668.661	1416.807
-46.115	30.356	1654.284	1384.674
-45.100	30.124	1649.775	1379.116
-44.086	30.126	1647.349	1377.053
-43.071	30.087	1644.521	1374.339
-42.057	30.058	1641.743	1371.751
-41.042	30.096	1639.810	1370.359
-40.027	30.135	1637.857	1368.963
-39.013	30.154	1636.021	1367.514
-37.998	30.058	1635.212	1366.074
-36.984	30.147	1633.141	1364.944
-35.969	30.251	1631.698	1364.450
-34.954	30.268	1630.316	1363.367
-33.940	30.252	1628.402	1361.598
-32.925	30.273	1626.837	1360.386
-31.911	30.294	1624.751	1358.739
-30.896	30.257	1623.021	1356.971
-29.881	30.173	1621.525	1355.051
-28.867	30.198	1620.073	1353.966
-27.852	30.217	1618.428	1352.678
-26.838	30.297	1616.741	1351.798
-25.823	30.253	1615.817	1350.650
-24.809	30.333	1614.251	1349.872
-23.794	30.170	1612.785	1347.403
-22.779	30.175	1611.721	1346.498
-21.765	30.188	1609.949	1345.060
-20.750	30.210	1607.940	1343.487
-19.736	30.248	1606.860	1342.803
-18.721	30.303	1605.260	1341.817
-17.706	30.283	1604.038	1340.594
-16.692	30.278	1602.396	1339.136
-15.677	30.248	1601.202	1337.869
-14.663	30.336	1600.011	1337.449
-13.648	30.173	1598.570	1335.019
-12.633	30.235	1597.014	1334.112
-11.619	30.297	1595.235	1333.022
-10.604	30.236	1594.277	1331.732
-9.590	30.354	1592.504	1331.039
-8.575	30.297	1591.361	1329.622
-7.560	30.259	1590.372	1328.473
-6.546	30.304	1589.607	1328.103
-5.531	30.199	1588.424	1326.311
-4.517	30.269	1587.418	1325.920
-3.502	30.256	1586.080	1324.657
-2.487	30.446	1583.963	1324.191
-1.473	29.932	1572.164	1310.640
-0.458	26.822	1553.500	1273.230
0.556	21.516	1553.069	1240.985
1.571	19.022	1577.052	1242.055
2.586	18.640	1589.071	1248.631
3.600	16.979	1537.037	1195.937
4.615	9.418	1428.824	1061.911
5.629	1.802	1363.998	965.514
6.644	0.233	1355.992	949.871
7.659	0.104	1354.621	948.018
8.673	0.001	1353.631	946.589
9.688	-0.027	1351.799	945.048
10.702	-0.116	1348.376	942.014
11.717	3.504	1354.790	969.192
12.731	12.010	1367.954	1032.296
13.746	17.318	1374.593	1070.732
14.761	17.291	1373.407	1069.542
15.775	16.219	1370.738	1060.632
16.790	15.135	1368.129	1051.718
17.804	14.517	1365.275	1045.560
18.819	14.048	1364.652	1042.050
19.834	13.799	1362.996	1039.132
20.848	13.591	1361.710	1036.756
21.863	13.303	1360.958	1034.296
22.877	13.138	1359.361	1031.955
23.892	13.245	1358.016	1031.516
24.907	13.112	1357.793	1030.424
25.921	13.096	1356.592	1029.321
26.936	13.157	1356.161	1029.284
27.950	13.237	1355.186	1028.950
28.965	13.221	1354.140	1027.964
29.980	13.314	1353.009	1027.592
30.994	13.431	1352.046	1027.498
32.009	13.381	1351.316	1026.543
33.023	13.311	1350.780	1025.608
34.038	13.418	1348.813	1024.686
35.053	13.318	1347.974	1023.343
36.067	13.256	1347.217	1022.291
37.082	13.303	1345.814	1021.430
38.096	13.309	1345.329	1021.004
39.111	13.365	1344.326	1020.500
40.126	13.227	1343.868	1019.213
41.140	13.241	1342.517	1018.183
42.155	13.056	1342.637	1017.041
43.169	13.053	1342.911	1017.140
44.184	13.172	1341.626	1016.813
45.199	13.205	1341.188	1016.590
46.213	13.105	1341.120	1015.838
47.228	13.190	1339.689	1015.187
48.242	13.217	1338.915	1014.675
49.257	13.251	1337.476	1013.699
50.271	13.231	1335.870	1012.271
51.286	13.253	1334.234	1011.076
52.301	13.257	1333.513	1010.468
53.315	13.275	1332.216	1009.504
54.330	13.204	1331.304	1008.290
55.344	13.188	1330.232	1007.293
56.359	13.231	1328.868	1006.432
57.374	13.134	1328.240	1005.276
58.388	13.077	1327.576	1004.336
59.403	12.973	1327.266	1003.384
60.417	13.163	1325.805	1003.346
61.432	13.060	1325.635	1002.498
62.447	13.006	1324.351	1001.114
63.461	12.989	1323.013	999.912
64.476	12.961	1322.630	999.359
65.490	13.037	1321.015	998.516
66.505	13.070	1319.182	997.241
67.520	13.123	1317.822	996.442
68.534	13.080	1317.297	995.696
69.549	13.046	1316.178	994.557
70.563	13.078	1315.181	993.909
71.578	13.069	1314.167	993.001
72.593	12.883	1313.201	991.070
73.607	12.939	1312.567	990.840
74.622	12.875	1311.566	989.609
75.636	12.869	1310.863	988.955
76.651	13.039	1309.912	989.169
77.666	12.939	1309.495	988.168
78.680	13.033	1308.569	987.944
79.695	12.972	1307.840	986.940
80.709	13.023	1307.069	986.578
81.724	13.034	1306.354	986.017
82.739	13.094	1305.169	985.390
83.753	13.170	1304.508	985.257
84.768	13.175	1303.577	984.498
85.782	13.276	1301.837	983.696
86.797	13.214	1300.877	982.520
87.812	13.204	1299.700	981.480
88.826	13.220	1298.293	980.426
89.841	13.185	1297.880	979.824
90.855	13.259	1296.747	979.319
91.870	13.245	1295.908	978.513
92.884	13.307	1294.825	977.976
93.899	13.284	1294.153	977.245
94.914	13.325	1293.277	976.741
95.928	13.335	1292.588	976.196
96.943	13.378	1291.532	975.561
97.957	13.191	1290.953	973.938
98.972	13.256	1289.765	973.336
99.987	13.306	1288.658	972.712
101.001	13.309	1287.327	971.640
102.016	13.200	1286.908	970.595
103.030	13.209	1285.802	969.725
104.045	13.384	1284.576	969.743
105.060	13.223	1283.511	967.909
106.074	13.275	1282.125	967.084
107.089	13.140	1281.073	965.414
108.103	13.094	1279.667	964.000
109.118	13.095	1278.653	963.161
110.133	13.053	1277.348	961.844
111.147	13.051	1276.028	960.756
112.162	13.123	1274.859	960.208
113.176	13.208	1273.567	959.644
114.191	13.163	1272.730	958.667
115.206	13.159	1272.077	958.070
116.220	13.208	1270.542	957.111
117.235	13.247	1269.176	956.225
118.249	13.131	1268.601	955.037
119.264	13.174	1267.263	954.192
120.279	13.156	1266.235	953.229
121.293	13.120	1264.844	951.889
122.308	13.026	1264.357	950.898
123.322	13.058	1263.413	950.289
124.337	13.161	1261.806	949.589
125.352	13.225	1260.422	948.830
126.366	13.090	1259.863	947.548
127.381	13.199	1258.333	946.938
128.395	13.027	1257.804	945.473
129.410	13.074	1256.703	944.831
130.424	13.181	1255.889	944.744
131.439	13.170	1255.111	944.013
132.454	13.122	1254.019	942.836
133.468	13.245	1253.064	942.734
134.483	13.337	1252.300	942.603
135.497	13.176	1251.708	941.155
136.512	13.237	1250.095	940.207
137.527	13.205	1248.580	938.805
138.541	13.231	1246.936	937.632
139.556	13.174	1246.371	936.802
140.570	13.271	1245.315	936.473
141.585	13.390	1243.668	935.822
142.600	13.301	1242.547	934.395
143.614	13.286	1241.570	933.496
144.629	13.406	1240.689	933.425
145.643	13.472	1239.371	932.723
146.658	13.372	1238.470	931.397
147.673	13.342	1236.935	929.992
148.687	13.359	1235.737	929.105
149.702	13.289	1234.510	927.712
150.716	13.270	1233.397	926.682
151.731	13.207	1232.522	925.592
152.746	13.213	1231.412	924.711
153.760	13.323	1229.982	924.171
154.775	13.486	1228.756	924.076
155.789	13.383	1227.810	922.710
156.804	13.340	1227.064	921.826
157.819	13.397	1225.861	921.160
158.833	13.429	1225.033	920.631
159.848	13.649	1224.071	921.054
160.862	13.483	1223.105	919.320
161.877	13.577	1221.509	918.563
162.892	13.456	1220.753	917.239
163.906	13.407	1220.085	916.386
164.921	13.423	1218.984	915.569
165.935	13.439	1218.023	914.853
166.950	13.555	1217.168	914.771
167.964	13.523	1216.709	914.168
168.979	13.483	1215.920	913.272
169.994	13.448	1215.729	912.857
171.008	13.567	1214.218	912.295
172.023	13.552	1213.713	911.752
173.037	13.621	1213.037	911.543
174.052	13.672	1211.839	910.845
175.067	13.593	1210.837	909.578
176.081	13.467	1210.244	908.361
177.096	13.521	1209.213	907.802
178.110	13.483	1207.914	906.538
179.125	13.590	1206.717	906.146
180.140	13.685	1205.457	905.638
181.154	13.479	1204.872	903.993
182.169	13.631	1203.510	903.721
183.183	13.600	1202.368	902.611
184.198	13.741	1200.770	902.099
185.213	13.753	1199.644	901.242
186.227	13.708	1199.102	900.511
187.242	13.763	1198.041	899.932
188.256	13.842	1196.841	899.379
189.271	13.814	1196.103	898.592
190.286	13.661	1194.860	896.749
191.300	13.624	1193.467	895.427
192.315	13.652	1193.727	895.693
193.329	13.599	1192.910	894.714
194.344	13.646	1192.051	894.246
195.359	13.730	1191.432	894.153
196.373	13.772	1191.169	894.102
197.388	13.763	1190.439	893.431
198.402	13.838	1189.815	893.284
199.417	13.831	1189.612	893.017
200.432	14.018	1188.690	893.247
201.446	14.130	1187.120	892.591
202.461	14.054	1186.797	891.862
203.475	13.991	1185.909	890.781
204.490	13.993	1184.616	889.738
205.504	14.037	1183.294	888.904
206.519	13.981	1182.158	887.672
207.534	13.996	1180.575	886.485
208.548	13.855	1180.204	885.378
209.563	13.976	1179.329	885.288
210.577	13.897	1178.607	884.244
211.592	13.967	1177.781	883.917
212.607	14.099	1176.420	883.521
213.621	14.053	1175.928	882.827
214.636	14.056	1174.889	881.985
215.650	13.950	1174.277	880.888
216.665	14.091	1173.244	880.784
217.680	14.254	1171.886	880.547
218.694	14.152	1171.406	879.567
219.709	14.159	1170.764	879.047
220.723	14.218	1169.734	878.504
221.738	14.217	1169.451	878.211
222.753	14.249	1168.497	877.584
223.767	14.275	1167.649	877.009
224.782	14.337	1167.025	876.790
225.796	14.325	1166.628	876.348
226.811	14.316	1166.013	875.764
227.826	14.314	1165.181	875.051
228.840	14.299	1164.357	874.275
229.855	14.354	1163.767	874.040
230.869	14.341	1162.531	872.968
231.884	14.279	1161.604	871.871
232.899	14.171	1161.553	871.189
233.913	14.225	1160.613	870.691
234.928	14.232	1159.801	870.038
235.942	14.275	1159.047	869.623
236.957	14.308	1158.180	869.068
237.972	14.261	1157.432	868.185
238.986	14.298	1157.156	868.091
240.001	14.364	1156.134	867.591
241.015	14.330	1155.658	866.982
242.030	14.371	1154.420	866.190
243.045	14.302	1154.092	865.507
244.059	14.545	1152.786	865.715
245.074	14.386	1152.623	864.687
246.088	14.535	1151.431	864.493
247.103	14.526	1150.777	863.879
248.117	14.478	1150.019	862.982
249.132	14.628	1149.331	863.164
250.147	14.696	1148.570	862.867
251.161	14.758	1147.746	862.492
252.176	14.749	1147.258	862.004
253.190	14.749	1146.705	861.514
254.205	14.819	1145.860	861.165
255.220	14.799	1145.453	860.677
256.234	14.770	1144.969	860.090
257.249	14.796	1144.103	859.495
258.263	14.731	1143.645	858.739
259.278	14.983	1142.848	859.361
260.293	14.953	1142.346	858.753
261.307	14.860	1141.750	857.755
262.322	14.820	1141.092	856.977
263.336	15.029	1140.224	857.322
264.351	14.935	1140.008	856.599
265.366	15.006	1139.449	856.468
266.380	14.957	1138.347	855.314
267.395	14.997	1137.416	854.743
268.409	14.908	1136.998	853.899
269.424	15.026	1136.425	853.994
270.439	14.982	1136.058	853.419
271.453	14.999	1135.112	852.720
272.468	14.949	1133.997	851.554
273.482	14.943	1133.751	851.263
274.497	15.005	1132.691	850.704
275.512	15.009	1131.811	849.989
276.526	15.044	1130.983	849.468
277.541	15.099	1129.995	848.934
278.555	15.093	1129.542	848.487
279.570	15.130	1129.378	848.473
280.585	15.207	1128.263	847.953
281.599	15.183	1127.801	847.406
282.614	15.174	1126.262	846.133
283.628	15.156	1125.356	845.286
284.643	15.164	1124.459	844.576
285.657	15.125	1123.704	843.741
286.672	15.222	1122.847	843.508
287.687	15.247	1121.740	842.730
288.701	15.281	1121.028	842.288
289.716	15.315	1119.954	841.577
290.730	15.232	1119.663	840.871
291.745	15.208	1119.382	840.464
292.760	15.299	1118.198	839.954
293.774	15.351	1117.958	839.963
294.789	15.465	1117.131	839.835
295.803	15.262	1117.023	838.668
296.818	15.351	1115.925	838.213
297.833	15.357	1115.022	837.489
298.847	15.376	1114.406	837.049
299.862	15.436	1113.408	836.522
300.876	15.390	1112.754	835.727
301.891	15.604	1111.934	836.106
302.906	15.481	1111.531	835.115
303.920	15.608	1110.641	835.002
304.935	15.586	1110.074	834.394
305.949	15.614	1109.417	833.967
306.964	15.582	1108.704	833.195
307.979	15.754	1107.972	833.423
308.993	15.675	1107.116	832.315
310.008	15.576	1106.838	831.545
311.022	15.682	1105.997	831.365
312.037	15.696	1104.687	830.372
313.052	15.720	1103.691	829.672
314.066	15.647	1102.916	828.653
315.081	15.495	1102.256	827.337
316.095	15.539	1101.460	826.881
317.110	15.608	1101.127	826.897
318.125	15.570	1100.659	826.285
319.139	15.724	1099.645	826.209
320.154	15.624	1098.933	825.108
321.168	15.539	1098.362	824.189
322.183	15.660	1097.635	824.165
323.197	15.556	1097.638	823.584
324.212	15.673	1096.776	823.439
325.227	15.681	1096.294	823.041
326.241	15.734	1095.241	822.440
327.256	15.726	1094.644	821.877
328.270	15.702	1093.520	820.846
329.285	15.756	1092.702	820.421
330.300	15.739	1091.962	819.710
331.314	15.819	1090.713	819.088
332.329	15.720	1089.821	817.869
333.343	15.818	1088.793	817.497
334.358	15.890	1088.023	817.196
335.373	15.841	1087.601	816.571
336.387	15.774	1087.100	815.799
337.402	15.903	1086.307	815.755
338.416	16.048	1085.525	815.796
339.431	15.885	1085.199	814.691
340.446	16.017	1084.043	814.390
341.460	16.035	1083.644	814.106
342.475	16.077	1082.643	813.484
343.489	16.103	1081.947	813.012
344.504	16.252	1080.783	812.787
345.519	16.222	1080.388	812.271
346.533	16.235	1079.647	811.707
347.548	16.120	1078.985	810.581
348.562	16.234	1078.084	810.379
349.577	16.062	1077.674	809.177
350.592	16.125	1076.481	808.512
351.606	16.088	1075.547	807.559
352.621	16.076	1075.312	807.253
353.635	16.113	1074.641	806.859
354.650	16.127	1073.763	806.195
355.665	16.211	1072.838	805.830
356.679	16.222	1072.313	805.415
357.694	16.331	1071.310	805.109
358.708	16.258	1071.196	804.607
359.723	16.233	1070.664	804.015
360.738	16.204	1069.748	803.119
361.752	16.396	1069.114	803.483
362.767	16.335	1068.786	802.875
363.781	16.332	1068.435	802.526
364.796	16.318	1067.771	801.892
365.810	16.413	1067.122	801.783
366.825	16.498	1066.409	801.580
367.840	16.443	1065.836	800.819
368.854	16.667	1065.164	801.303
369.869	16.545	1064.582	800.217
370.883	16.614	1063.594	799.729
371.898	16.516	1062.960	798.721
372.913	16.583	1062.051	798.284
373.927	16.556	1061.972	798.026
374.942	16.679	1061.353	798.070
375.956	16.577	1061.337	797.508
376.971	16.662	1060.498	797.207
377.986	16.623	1059.761	796.397
379.000	16.623	1059.491	796.122
380.015	16.747	1058.721	796.055
381.029	16.719	1057.732	795.111
382.044	16.753	1057.255	794.843
383.059	16.810	1056.546	794.507
384.073	16.770	1055.397	793.384
385.088	16.819	1054.495	792.866
386.102	16.805	1053.898	792.281
387.117	16.660	1053.389	791.150
388.132	16.620	1052.385	790.140
389.146	16.695	1051.632	789.854
390.161	16.791	1050.689	789.526
391.175	16.796	1049.975	788.939
392.190	16.804	1049.485	788.538
393.205	16.802	1048.872	788.001
394.219	16.740	1048.266	787.188
395.234	16.716	1047.476	786.413
396.248	16.875	1046.106	786.051
397.263	16.900	1044.941	785.225
398.278	16.840	1044.555	784.587
399.292	16.837	1043.730	783.884
400.307	16.856	1042.937	783.303
401.321	16.721	1042.758	782.476
402.336	16.901	1041.801	782.523
403.350	16.881	1040.843	781.642
404.365	16.861	1040.526	781.239
405.380	16.853	1039.920	780.680
406.394	16.972	1039.051	780.506
407.409	17.035	1038.398	780.238
408.423	17.066	1037.319	779.500
409.438	17.130	1036.953	779.450
410.453	17.083	1036.279	778.658
411.467	17.199	1035.503	778.537
412.482	17.118	1035.099	777.793
413.496	17.252	1034.178	777.645
414.511	17.211	1033.648	776.991
415.526	17.159	1033.122	776.289
416.540	17.229	1032.987	776.437
417.555	17.309	1032.246	776.180
418.569	17.202	1031.725	775.230
419.584	17.220	1031.626	775.171
420.599	17.337	1030.472	774.767
421.613	103.062	1322.062	1466.877
422.628	94.296	1364.527	1466.965
