DTS Sentinel unit serial number:	SN413079Multiplexer serial number:	ORYXHardware model number:	OX4-SRSoftware version number:	ORYX F/W v4.00 Oryx Data Collector v3.7.2.0data status	okinstallation	princeton_trtdifferential loss correction	single-endedforward channel	channel 2reverse channel	N/Adate	2019/09/18time	05:55:35forward acquisition time	60.00reverse acquisition time	0.00gamma	496.2192k internal	0.2349k external	0.2349temperature offset calibration	0.9983default loss term (dB/km)	0.3790temperature slope calibration	1.0000multiplexer offset coefficient	1.0000multiplexer slope coefficient	1.0000fibre end	0.00T internal ref (°C)	23.22T ext. ref 1 (°C)	0.19T ext. ref 2 (°C)	17.45length (m)	temperature (°C)	Stokes	anti-Stokes-747.200	159.203	-0.150	-0.208
-746.185	387.836	-0.195	0.403
-745.171	-200.000	0.025	0.154
-744.156	-200.000	-0.064	0.581
-743.142	254.829	0.031	-0.052
-742.127	-11.668	-0.282	0.185
-741.112	800.000	-0.098	0.412
-740.098	-31.839	-0.340	0.190
-739.083	119.323	-0.030	0.037
-738.069	-190.763	-0.235	-0.002
-737.054	38.120	-0.261	0.232
-736.039	71.683	-0.128	0.133
-735.025	-163.921	-0.197	-0.009
-734.010	800.000	-0.035	-0.106
-732.996	-109.067	-0.299	0.063
-731.981	-153.016	-0.365	0.026
-730.966	39.998	0.155	-0.139
-729.952	-105.235	-0.228	-0.052
-728.937	173.996	-0.271	-0.390
-727.923	-200.000	0.028	-0.242
-726.908	636.492	0.070	-0.179
-725.894	-67.743	-0.217	0.085
-724.879	-200.000	0.050	-0.374
-723.864	-200.000	0.005	-0.131
-722.850	520.011	0.143	0.335
-721.835	68.745	0.229	-0.234
-720.821	80.603	-0.169	-0.182
-719.806	259.431	0.113	-0.195
-718.791	110.528	-0.094	0.113
-717.777	318.990	0.081	0.153
-716.762	34.019	0.110	-0.096
-715.748	-76.334	-0.178	-0.062
-714.733	-121.640	0.107	-0.018
-713.718	-122.624	0.116	0.019
-712.704	-200.000	-0.024	0.232
-711.689	-200.000	-0.001	-0.227
-710.675	800.000	0.069	0.193
-709.660	61.981	0.194	-0.193
-708.645	-200.000	0.001	-0.041
-707.631	-70.377	0.267	0.101
-706.616	262.544	-0.260	-0.450
-705.602	-200.000	0.009	0.169
-704.587	-10.292	0.277	0.183
-703.572	-112.665	-0.224	-0.044
-702.558	800.000	0.075	-0.268
-701.543	160.187	0.213	-0.296
-700.529	102.362	-0.148	0.172
-699.514	695.560	-0.123	0.322
-698.499	73.570	-0.214	-0.223
-697.485	717.888	-0.121	-0.321
-696.470	132.275	-0.049	-0.063
-695.456	-200.000	-0.002	-0.143
-694.441	-119.359	-0.294	0.051
-693.426	-89.301	-0.133	-0.039
-692.412	-108.433	0.230	-0.049
-691.397	-30.566	0.170	0.096
-690.383	189.254	0.225	-0.335
-689.368	8.660	-0.305	-0.229
-688.354	-148.830	0.301	-0.024
-687.339	-19.807	0.408	-0.251
-686.324	-77.779	-0.180	-0.062
-685.310	-126.517	-0.093	0.014
-684.295	800.000	-0.048	-0.180
-683.281	-58.432	-0.166	-0.072
-682.266	367.370	0.140	0.281
-681.251	-96.782	-0.144	-0.038
-680.237	-101.542	-0.166	-0.040
-679.222	175.107	-0.039	-0.056
-678.208	800.000	-0.044	-0.178
-677.193	-200.000	0.030	-0.177
-676.178	-101.804	0.302	0.073
-675.164	-109.280	0.430	-0.091
-674.149	-121.958	-0.286	-0.047
-673.135	-200.000	0.026	0.179
-672.120	18.241	-0.199	-0.158
-671.105	1.672	-0.026	-0.019
-670.091	-40.013	-0.181	0.094
-669.076	674.103	-0.059	0.152
-668.062	-71.002	-0.065	0.024
-667.047	76.858	0.169	0.178
-666.032	-4.171	-0.391	-0.270
-665.018	-148.136	-0.038	0.003
-664.003	-200.000	-0.034	0.193
-662.989	85.896	0.065	-0.071
-661.974	799.536	-0.069	0.188
-660.959	800.000	-0.077	0.231
-659.945	606.040	0.150	-0.373
-658.930	30.875	0.088	0.075
-657.916	274.685	-0.159	0.280
-656.901	-200.000	0.053	-0.295
-655.886	-16.976	-0.180	0.113
-654.872	455.955	-0.088	0.195
-653.857	-74.025	-0.107	-0.039
-652.843	800.000	0.021	-0.077
-651.828	-117.142	0.238	-0.043
-650.814	-109.221	-0.187	-0.039
-649.799	193.136	0.048	-0.072
-648.784	-200.000	-0.048	0.224
-647.770	-80.663	0.031	0.010
-646.755	-12.903	-0.237	0.153
-645.741	-200.000	-0.000	-0.226
-644.726	-116.445	-0.233	0.043
-643.711	800.000	-0.032	-0.091
-642.697	8.267	0.175	-0.131
-641.682	43.580	0.099	-0.090
-640.668	27.311	-0.415	-0.347
-639.653	164.743	-0.200	0.280
-638.638	91.356	0.058	0.065
-637.624	303.141	0.101	-0.185
-636.609	800.000	0.063	0.184
-635.595	23.866	-0.342	0.281
-634.580	45.009	-0.296	0.271
-633.565	-200.000	0.021	-0.389
-632.551	-46.242	-0.194	0.095
-631.536	44.421	-0.295	-0.269
-630.522	-4.956	0.287	0.197
-629.507	-76.591	-0.087	0.030
-628.492	-135.066	-0.216	-0.026
-627.478	-54.734	0.240	-0.108
-626.463	266.563	-0.026	-0.045
-625.449	112.553	-0.085	0.103
-624.434	250.274	0.154	0.259
-623.419	132.180	-0.056	-0.072
-622.405	39.311	-0.209	-0.186
-621.390	0.025	-0.167	0.118
-620.376	-32.736	0.094	0.052
-619.361	303.703	-0.143	-0.264
-618.346	462.413	-0.138	-0.306
-617.332	327.786	-0.073	0.140
-616.317	-200.000	-0.040	0.210
-615.303	800.000	0.046	-0.161
-614.288	-200.000	-0.018	0.154
-613.273	186.010	0.071	0.105
-612.259	-150.577	0.233	0.018
-611.244	-30.380	-0.171	0.096
-610.230	522.525	0.102	-0.238
-609.215	-99.720	-0.203	0.050
-608.201	-200.000	-0.023	0.118
-607.186	-14.251	0.436	-0.279
-606.171	-176.153	-0.458	-0.012
-605.157	-200.000	-0.041	0.359
-604.142	134.746	-0.090	-0.116
-603.128	29.093	-0.259	-0.218
-602.113	-112.934	-0.075	0.015
-601.098	800.000	-0.019	-0.069
-600.084	107.489	-0.228	-0.269
-599.069	0.739	0.302	-0.215
-598.055	24.838	-0.039	0.032
-597.040	-127.500	-0.417	-0.060
-596.025	476.954	-0.094	0.211
-595.011	43.788	0.098	0.089
-593.996	11.563	0.123	0.094
-592.982	-135.465	0.080	0.010
-591.967	-102.131	-0.134	0.032
-590.952	100.651	0.201	0.232
-589.938	24.810	0.177	0.145
-588.923	-200.000	0.012	-0.075
-587.909	-146.356	0.146	0.013
-586.894	-71.203	-0.448	-0.167
-585.879	154.685	0.053	0.072
-584.865	140.498	0.269	-0.352
-583.850	-200.000	0.012	-0.128
-582.836	-200.000	-0.003	0.034
-581.821	7.308	-0.196	0.145
-580.806	-41.299	0.256	-0.131
-579.792	-200.000	0.043	-0.279
-578.777	800.000	0.132	0.393
-577.763	800.000	-0.039	-0.133
-576.748	629.568	0.055	-0.139
-575.733	219.734	0.152	0.241
-574.719	91.836	-0.195	0.218
-573.704	-67.044	-0.318	0.125
-572.690	-39.914	-0.226	-0.117
-571.675	-200.000	0.070	-0.402
-570.661	462.317	0.084	0.186
-569.646	160.238	0.153	-0.211
-568.631	-128.682	0.062	-0.009
-567.617	726.333	0.061	-0.161
-566.602	71.471	0.160	0.165
-565.588	-75.622	0.081	0.029
-564.573	45.964	0.104	0.096
-563.558	-66.558	0.134	0.053
-562.544	-29.446	0.161	-0.091
-561.529	-146.024	-0.329	0.029
-560.515	800.000	0.114	-0.336
-559.500	-95.149	0.235	-0.063
-558.485	335.368	-0.037	-0.071
-557.471	50.247	0.178	0.167
-556.456	100.823	-0.227	-0.262
-555.442	46.362	-0.076	0.070
-554.427	-200.000	0.004	-0.129
-553.412	800.000	0.038	-0.159
-552.398	42.373	-0.359	-0.324
-551.383	-200.000	-0.002	-0.121
-550.369	-4.666	0.231	-0.158
-549.354	-200.000	-0.004	-0.116
-548.339	-31.231	-0.201	0.112
-547.325	-44.898	-0.208	-0.103
-546.310	40.302	-0.179	0.160
-545.296	-127.888	0.264	-0.038
-544.281	-66.604	-0.153	0.060
-543.266	-93.127	0.208	-0.057
-542.252	322.489	0.150	-0.284
-541.237	436.341	-0.045	0.097
-540.223	74.849	0.102	-0.107
-539.208	-17.614	0.279	-0.174
-538.193	800.000	0.051	-0.151
-537.179	-97.153	0.161	0.042
-536.164	46.754	-0.245	0.226
-535.150	-46.802	-0.239	0.116
-534.135	-200.000	0.002	0.278
-533.121	-12.957	0.096	0.062
-532.106	-24.518	-0.098	0.058
-531.091	-125.198	0.292	0.044
-530.077	800.000	-0.095	-0.355
-529.062	800.000	-0.025	-0.108
-528.048	354.120	-0.033	-0.065
-527.033	-92.614	-0.200	0.056
-526.018	-113.155	-0.316	0.062
-525.004	800.000	-0.055	-0.187
-523.989	71.797	-0.140	-0.144
-522.975	-200.000	0.005	-0.119
-521.960	49.711	0.100	-0.093
-520.945	57.312	0.120	0.116
-519.931	13.416	-0.011	0.009
-518.916	111.785	0.208	0.249
-517.902	-73.409	-0.126	-0.046
-516.887	-90.588	0.149	0.043
-515.872	-38.081	-0.288	-0.151
-514.858	-65.435	0.171	0.068
-513.843	-36.598	0.159	0.085
-512.829	210.928	-0.071	-0.110
-511.814	102.181	-0.057	0.066
-510.799	-34.847	-0.219	-0.118
-509.785	75.966	-0.332	-0.348
-508.770	-111.542	0.187	-0.038
-507.756	404.069	0.087	0.181
-506.741	259.596	0.053	0.090
-505.726	-200.000	0.004	0.030
-504.712	-11.097	-0.321	-0.210
-503.697	-87.834	-0.374	-0.111
-502.683	800.000	-0.039	0.160
-501.668	-135.262	0.294	-0.035
-500.653	483.642	0.083	-0.187
-499.639	-44.773	0.329	0.162
-498.624	800.000	0.048	-0.137
-497.610	237.043	0.148	-0.242
-496.595	-200.000	-0.006	-0.095
-495.581	94.820	0.174	-0.196
-494.566	-32.179	0.170	-0.094
-493.551	800.000	0.082	0.304
-492.537	27.530	-0.133	0.111
-491.522	800.000	-0.039	0.115
-490.508	800.000	-0.040	0.175
-489.493	260.334	-0.064	-0.109
-488.478	-115.545	-0.170	0.032
-487.464	314.330	-0.051	-0.094
-486.449	2.352	-0.161	0.115
-485.435	115.267	-0.043	-0.052
-484.420	800.000	0.041	-0.119
-483.405	16.184	0.044	-0.035
-482.391	-126.914	-0.157	0.023
-481.376	-152.621	0.140	-0.010
-480.362	161.385	0.097	-0.135
-479.347	388.325	0.062	-0.126
-478.332	41.814	0.217	0.195
-477.318	-117.980	0.099	0.018
-476.303	-200.000	-0.027	-0.145
-475.289	-30.998	0.122	0.068
-474.274	241.038	0.113	0.187
-473.259	-166.912	-0.216	0.009
-472.245	28.989	-0.360	0.302
-471.230	-12.337	0.116	0.075
-470.216	-200.000	0.036	0.320
-469.201	-189.618	0.171	0.002
-468.186	-108.292	0.261	0.056
-467.172	-200.000	-0.001	0.105
-466.157	-91.830	0.310	0.087
-465.143	49.762	-0.242	-0.225
-464.128	-200.000	0.017	0.166
-463.113	-138.797	-0.095	0.010
-462.099	-137.880	0.380	0.042
-461.084	-200.000	0.001	-0.120
-460.070	75.844	0.059	-0.061
-459.055	-85.106	0.386	-0.119
-458.040	-131.556	-0.260	-0.034
-457.026	-5.745	-0.116	0.079
-456.011	800.000	0.027	-0.076
-454.997	-200.000	-0.004	-0.176
-453.982	-61.685	0.384	-0.159
-452.968	-80.265	0.137	0.045
-451.953	214.955	0.158	0.248
-450.938	-62.121	-0.179	0.074
-449.924	-34.493	0.298	0.161
-448.909	-90.654	0.140	-0.040
-447.895	-63.151	0.279	-0.114
-446.880	800.000	-0.043	0.124
-445.865	423.610	0.049	-0.104
-444.851	74.377	-0.155	0.161
-443.836	194.086	0.171	0.256
-442.822	-17.509	-0.135	0.084
-441.807	800.000	0.059	0.207
-440.792	-154.874	-0.134	-0.009
-439.778	-167.771	-0.132	-0.005
-438.763	-24.643	0.203	0.119
-437.749	-22.860	-0.141	-0.084
-436.734	-200.000	-0.007	0.171
-435.719	-115.104	-0.218	-0.041
-434.705	-48.521	-0.228	0.108
-433.690	-37.437	0.148	0.078
-432.676	91.657	-0.223	-0.248
-431.661	-68.570	-0.121	0.046
-430.646	-49.675	-0.079	0.037
-429.632	18.209	-0.391	0.308
-428.617	40.069	0.209	-0.186
-427.603	800.000	-0.064	-0.241
-426.588	-132.306	0.449	0.057
-425.573	800.000	-0.083	0.306
-424.559	-37.973	-0.421	0.221
-423.544	-82.148	-0.188	-0.060
-422.530	130.780	0.152	0.192
-421.515	-50.402	0.103	-0.048
-420.500	800.000	0.034	-0.141
-419.486	800.000	0.055	0.193
-418.471	-123.800	0.365	0.057
-417.457	-200.000	0.010	0.166
-416.442	-137.308	0.202	0.023
-415.428	-24.671	-0.321	-0.188
-414.413	216.490	-0.055	0.086
-413.398	-200.000	0.010	-0.114
-412.384	800.000	-0.044	-0.148
-411.369	-48.543	0.169	0.080
-410.355	-200.000	0.017	0.228
-409.340	272.864	0.113	0.197
-408.325	-170.009	-0.130	-0.005
-407.311	-159.127	-0.448	0.025
-406.296	-174.151	-0.200	-0.006
-405.282	-70.710	0.128	0.047
-404.267	800.000	-0.099	-0.313
-403.252	-54.441	0.109	-0.049
-402.238	-129.807	-0.374	-0.051
-401.223	673.762	0.145	0.370
-400.209	17.222	0.183	0.143
-399.194	-139.348	-0.274	0.029
-398.179	-200.000	-0.018	0.307
-397.165	-200.000	0.037	-0.410
-396.150	190.441	0.062	0.092
-395.136	342.265	-0.129	0.249
-394.121	9.398	-0.045	0.034
-393.106	231.705	0.198	0.319
-392.092	89.802	-0.194	-0.213
-391.077	144.276	-0.119	-0.156
-390.063	-200.000	0.018	0.192
-389.048	265.437	0.079	-0.136
-388.033	166.757	0.073	-0.102
-387.019	-200.000	0.061	0.294
-386.004	-119.830	-0.201	0.034
-384.990	-8.427	0.025	-0.016
-383.975	800.000	-0.037	-0.147
-382.960	258.441	0.186	-0.316
-381.946	-200.000	-0.016	0.204
-380.931	-93.252	-0.207	0.057
-379.917	-200.000	-0.034	0.171
-378.902	142.362	0.076	0.099
-377.888	-23.117	-0.130	-0.077
-376.873	129.728	-0.061	-0.076
-375.858	-117.394	0.383	-0.068
-374.844	245.602	0.043	-0.072
-373.829	115.708	0.119	0.144
-372.815	11.581	0.186	0.141
-371.800	-200.000	0.028	0.198
-370.785	183.576	-0.177	-0.257
-369.771	-200.000	-0.015	0.102
-368.756	89.791	-0.294	-0.323
-367.742	276.069	0.083	-0.146
-366.727	330.913	-0.043	0.082
-365.712	104.781	-0.128	0.148
-364.698	-113.013	-0.264	-0.051
-363.683	800.000	-0.034	0.114
-362.669	-83.097	-0.213	-0.067
-361.654	143.955	0.196	0.257
-360.639	-61.594	0.328	0.135
-359.625	12.033	0.213	-0.161
-358.610	-44.762	0.193	-0.095
-357.596	-200.000	-0.051	0.301
-356.581	-200.000	0.003	0.222
-355.566	-85.535	-0.079	0.024
-354.552	-57.754	-0.067	-0.029
-353.537	155.928	-0.228	-0.309
-352.523	-150.635	0.297	0.022
-351.508	39.863	0.039	-0.035
-350.493	82.593	-0.157	-0.167
-349.479	-22.692	-0.098	-0.058
-348.464	790.135	0.127	-0.342
-347.450	540.600	-0.059	0.138
-346.435	259.455	0.206	0.349
-345.420	2.255	0.125	0.089
-344.406	-47.275	-0.127	0.061
-343.391	-200.000	0.061	0.297
-342.377	-200.000	-0.044	0.453
-341.362	-200.000	-0.045	-0.361
-340.348	297.814	0.047	-0.086
-339.333	-13.158	0.304	-0.194
-338.318	172.885	0.070	-0.099
-337.304	145.839	0.042	-0.056
-336.289	-136.776	-0.352	-0.040
-335.275	-93.247	0.274	0.075
-334.260	800.000	0.048	-0.166
-333.245	-140.886	0.259	-0.026
-332.231	83.570	0.059	-0.063
-331.216	34.377	0.194	-0.166
-330.202	300.232	-0.057	0.103
-329.187	94.046	0.154	0.172
-328.172	463.320	0.029	0.065
-327.158	153.829	0.021	-0.028
-326.143	-200.000	0.051	-0.346
-325.129	-37.994	0.365	-0.191
-324.114	-113.935	-0.221	-0.042
-323.099	79.473	0.236	-0.249
-322.085	-200.000	0.004	-0.385
-321.070	272.797	-0.079	-0.138
-320.056	-35.050	0.205	0.110
-319.041	-200.000	-0.005	-0.094
-318.026	-98.250	0.064	-0.016
-317.012	59.617	0.238	-0.231
-315.997	52.621	-0.208	0.195
-314.983	-3.780	-0.198	0.135
-313.968	473.545	-0.094	-0.209
-312.953	29.407	-0.069	0.058
-311.939	156.639	-0.188	-0.255
-310.924	-200.000	-0.023	-0.265
-309.910	-105.449	-0.177	-0.039
-308.895	-94.023	0.143	-0.039
-307.880	-48.349	-0.419	0.198
-306.866	7.731	-0.097	0.071
-305.851	-121.372	-0.220	0.036
-304.837	-125.234	0.260	0.039
-303.822	-51.061	-0.108	0.050
-302.807	-73.701	0.028	0.010
-301.793	344.043	0.076	0.146
-300.778	289.225	-0.101	-0.179
-299.764	-148.749	0.358	0.029
-298.749	17.132	-0.343	-0.267
-297.735	237.746	-0.090	-0.147
-296.720	154.117	0.090	0.122
-295.705	-182.536	-0.039	-0.001
-294.691	660.066	-0.050	0.127
-293.676	-136.834	0.140	0.016
-292.662	800.000	0.101	-0.301
-291.647	-120.565	0.142	-0.024
-290.632	-200.000	0.057	0.476
-289.618	-95.798	0.305	0.080
-288.603	-55.514	-0.163	-0.072
-287.589	240.822	0.046	0.076
-286.574	800.000	-0.045	0.134
-285.559	112.627	0.163	0.193
-284.545	472.161	-0.099	-0.219
-283.530	448.283	0.152	-0.328
-282.516	-10.150	0.176	0.115
-281.501	-200.000	-0.041	-0.360
-280.486	-113.331	0.041	0.008
-279.472	-200.000	0.052	-0.257
-278.457	-66.108	0.067	0.026
-277.443	-200.000	0.000	-0.118
-276.428	254.828	-0.103	-0.172
-275.413	-200.000	-0.035	-0.314
-274.399	-93.825	-0.228	-0.062
-273.384	686.263	-0.131	0.336
-272.370	280.375	0.213	0.373
-271.355	-200.000	-0.000	-0.194
-270.340	221.684	-0.186	-0.293
-269.326	-43.439	0.061	0.030
-268.311	-119.505	0.052	0.009
-267.297	69.111	0.238	-0.240
-266.282	75.809	-0.058	0.060
-265.267	-200.000	-0.061	-0.321
-264.253	-200.000	0.007	-0.158
-263.238	328.421	0.144	0.271
-262.224	-147.591	0.151	0.012
-261.209	-200.000	0.060	-0.438
-260.195	-200.000	-0.100	-0.567
-259.180	-35.871	0.037	-0.020
-258.165	19.730	-0.059	-0.047
-257.151	-136.527	-0.270	-0.031
-256.136	-168.014	-0.209	-0.008
-255.122	-74.650	-0.333	0.117
-254.107	-134.772	0.211	0.025
-253.092	135.770	-0.207	-0.263
-252.078	800.000	0.014	-0.043
-251.063	-200.000	0.028	0.282
-250.049	371.616	0.149	0.296
-249.034	800.000	0.080	0.281
-248.019	222.064	-0.127	0.201
-247.005	207.124	-0.201	-0.307
-245.990	-200.000	-0.010	0.125
-244.976	156.037	-0.123	0.166
-243.961	800.000	0.063	0.197
-242.946	-121.569	0.337	-0.055
-241.932	-57.052	-0.069	-0.030
-240.917	200.586	0.050	-0.075
-239.903	-200.000	0.013	0.098
-238.888	-71.013	-0.250	-0.092
-237.873	800.000	0.065	0.277
-236.859	-43.114	0.231	0.115
-235.844	-200.000	0.000	-0.093
-234.830	-73.096	0.211	-0.076
-233.815	546.829	0.138	0.323
-232.800	8.896	-0.213	-0.157
-231.786	-200.000	0.199	-0.001
-230.771	141.517	0.198	-0.257
-229.757	374.260	0.100	0.200
-228.742	161.066	0.089	-0.122
-227.727	-15.162	0.210	0.132
-226.713	327.816	0.181	-0.340
-225.698	-147.441	0.204	0.017
-224.684	130.432	-0.078	-0.097
-223.669	800.000	0.073	-0.222
-222.655	199.793	-0.059	-0.089
-221.640	32.943	-0.112	-0.095
-220.625	-77.160	-0.163	0.055
-219.611	-200.000	0.021	0.283
-218.596	630.905	-0.072	-0.179
-217.582	115.294	-0.067	-0.080
-216.567	-200.000	-0.024	0.192
-215.552	9.962	-0.112	0.084
-214.538	421.567	-0.055	-0.115
-213.523	-200.000	-0.051	0.287
-212.509	-96.904	-0.409	-0.105
-211.494	41.807	0.247	0.219
-210.479	-50.595	0.220	-0.102
-209.465	126.558	0.213	-0.264
-208.450	-200.000	-0.044	0.202
-207.436	-134.001	-0.157	0.019
-206.421	-182.912	0.366	0.006
-205.406	-109.524	-0.256	-0.053
-204.392	-72.989	0.146	0.053
-203.377	800.000	0.130	0.368
-202.363	571.581	-0.138	0.329
-201.348	-80.112	0.330	-0.108
-200.333	208.382	0.100	0.152
-199.319	52.848	-0.221	0.207
-198.304	304.255	-0.138	0.250
-197.290	138.038	-0.145	-0.185
-196.275	-200.000	0.005	0.182
-195.260	168.074	0.082	-0.114
-194.246	-200.000	0.018	0.117
-193.231	103.772	-0.142	0.163
-192.217	-94.187	0.317	-0.085
-191.202	326.339	-0.023	-0.044
-190.187	-39.922	-0.254	-0.130
-189.173	102.221	0.229	-0.261
-188.158	24.101	-0.071	-0.058
-187.144	5.071	-0.164	0.118
-186.129	137.578	-0.039	0.049
-185.114	-200.000	0.024	0.479
-184.100	-70.320	0.061	0.023
-183.085	390.111	-0.078	-0.158
-182.071	-200.000	0.026	-0.131
-181.056	800.000	-0.083	0.225
-180.042	-200.000	0.068	-0.340
-179.027	374.954	-0.110	0.220
-178.012	384.303	-0.189	0.380
-176.998	800.000	0.089	0.378
-175.983	273.371	-0.050	-0.087
-174.969	-62.011	-0.306	0.125
-173.954	-200.000	0.015	-0.075
-172.939	-167.570	-0.057	-0.002
-171.925	34.181	0.158	0.134
-170.910	126.822	0.174	0.215
-169.896	-104.072	-0.091	0.021
-168.881	-20.780	-0.215	0.129
-167.866	-110.862	0.213	0.043
-166.852	182.913	0.149	-0.215
-165.837	280.739	0.147	0.256
-164.823	176.800	-0.144	0.204
-163.808	800.000	-0.004	-0.012
-162.793	-200.000	-0.054	0.242
-161.779	420.333	-0.150	0.314
-160.764	159.134	0.162	-0.220
-159.750	-30.957	0.330	0.182
-158.735	247.439	-0.150	-0.247
-157.720	328.885	0.146	0.274
-156.706	800.000	-0.036	-0.129
-155.691	-155.669	-0.230	0.014
-154.677	-200.000	-0.001	0.033
-153.662	-14.140	-0.309	-0.195
-152.647	-127.022	0.132	-0.019
-151.633	60.017	0.202	-0.194
-150.618	-200.000	-0.064	-0.278
-149.604	483.839	-0.072	0.160
-148.589	-153.115	0.441	-0.030
-147.574	68.127	-0.064	0.064
-146.560	-97.541	-0.452	-0.115
-145.545	-163.361	-0.359	-0.017
-144.531	-30.672	-0.075	-0.041
-143.516	53.230	0.198	-0.185
-142.502	93.728	0.131	0.145
-141.487	800.000	0.122	-0.356
-140.472	94.555	-0.165	0.183
-139.458	800.000	0.071	0.264
-138.443	800.000	-0.116	0.397
-137.429	800.000	0.080	0.334
-136.414	-53.624	-0.203	-0.090
-135.399	283.098	-0.145	0.254
-134.385	245.739	0.148	0.244
-133.370	134.465	-0.088	0.112
-132.356	478.537	0.114	0.252
-131.341	-187.721	-0.298	-0.004
-130.326	-54.448	0.118	-0.052
-129.312	394.394	-0.102	0.208
-128.297	-200.000	0.005	-0.158
-127.283	-30.703	0.224	0.123
-126.268	-22.356	0.146	0.086
-125.253	146.779	-0.133	-0.174
-124.239	800.000	-0.157	0.537
-123.224	47.351	0.121	0.110
-122.210	481.110	0.110	0.243
-121.195	-154.749	0.178	-0.012
-120.180	800.000	0.096	-0.332
-119.166	64.988	0.252	-0.248
-118.151	-200.000	0.001	-0.137
-117.137	371.645	-0.184	0.364
-116.122	800.000	0.089	0.322
-115.107	-56.725	-0.165	0.071
-114.093	-128.833	-0.186	-0.025
-113.078	586.940	0.109	-0.261
-112.064	409.625	-0.120	0.248
-111.049	-86.968	-0.119	-0.035
-110.034	-200.000	0.020	-0.332
-109.020	171.732	-0.229	-0.320
-108.005	40.057	0.191	-0.167
-106.991	-117.899	0.091	-0.016
-105.976	-37.916	0.073	0.038
-104.962	52.772	-0.169	0.158
-103.947	-200.000	0.017	0.101
-102.932	-125.695	-0.305	-0.045
-101.918	-157.501	-0.322	-0.019
-100.903	222.695	-0.045	-0.070
-99.889	12.467	0.420	-0.315
-98.874	52.655	0.243	0.226
-97.859	-140.546	-0.171	-0.017
-96.845	0.852	-0.290	0.202
-95.830	75.438	0.108	0.111
-94.816	-67.085	0.454	-0.174
-93.801	382.413	0.133	0.267
-92.786	88.352	-0.202	0.218
-91.772	-77.787	0.009	-0.003
-90.757	199.491	-0.208	0.311
-89.743	-30.828	0.351	-0.193
-88.728	-155.340	-0.046	-0.003
-87.713	800.000	-0.061	-0.210
-86.699	687.741	-0.061	0.155
-85.684	-91.039	0.069	0.019
-84.670	47.574	0.221	-0.201
-83.655	-86.780	0.130	-0.039
-82.640	87.646	0.235	-0.253
-81.626	-157.237	-0.104	0.006
-80.611	165.191	-0.061	0.084
-79.597	57.486	0.014	0.014
-78.582	-88.864	0.273	0.079
-77.567	34.361	0.153	-0.130
-76.553	103.419	0.304	-0.347
-75.538	-148.499	0.304	0.024
-74.524	508.999	0.044	-0.099
-73.509	247.127	-0.157	0.258
-72.494	284.191	-0.130	-0.228
-71.480	-200.000	0.036	-0.259
-70.465	-61.530	0.133	0.054
-69.451	-54.871	0.111	-0.049
-68.436	-123.643	0.360	0.055
-67.422	4.661	0.246	0.176
-66.407	52.954	-0.074	0.069
-65.392	800.000	0.039	0.160
-64.378	41.451	-0.130	-0.114
-63.363	800.000	-0.166	0.510
-62.349	123.936	0.141	0.173
-61.334	75.864	-1.043	-1.072
-60.319	23.513	0.741	0.592
-59.305	350.687	-0.675	-1.298
-58.290	296.669	0.771	1.375
-57.276	267.104	0.926	1.574
-56.261	-200.000	125.883	656.960
-55.246	408.366	1584.175	3258.395
-54.232	140.232	2754.742	3533.102
-53.217	89.178	2310.114	2501.699
-52.203	32.345	1915.651	1607.864
-51.188	26.207	1710.841	1388.872
-50.173	24.115	1672.086	1341.611
-49.159	46.685	1741.318	1571.770
-48.144	43.704	1752.945	1559.274
-47.130	25.881	1704.200	1380.762
-46.115	23.329	1688.722	1348.761
-45.100	23.173	1683.617	1343.446
-44.086	23.153	1681.532	1341.578
-43.071	23.156	1679.421	1339.864
-42.057	23.143	1676.470	1337.362
-41.042	23.077	1675.274	1335.854
-40.027	23.120	1673.073	1334.369
-39.013	23.043	1670.754	1331.889
-37.998	23.129	1669.435	1331.430
-36.984	23.162	1668.468	1330.858
-35.969	23.206	1666.760	1329.771
-34.954	23.115	1665.472	1328.005
-33.940	23.188	1663.692	1327.079
-32.925	23.225	1661.875	1325.854
-31.911	23.143	1660.534	1324.118
-30.896	23.154	1658.833	1322.798
-29.881	23.232	1656.931	1321.805
-28.867	23.199	1655.504	1320.373
-27.852	23.161	1654.562	1319.283
-26.838	23.190	1652.446	1317.757
-25.823	23.175	1650.954	1316.405
-24.809	23.211	1650.194	1316.013
-23.794	23.195	1648.788	1314.725
-22.779	23.277	1647.382	1314.155
-21.765	23.224	1645.090	1311.889
-20.750	23.249	1643.630	1310.854
-19.736	23.408	1641.855	1310.561
-18.721	23.267	1641.083	1308.854
-17.706	23.355	1639.259	1307.994
-16.692	23.243	1637.425	1305.653
-15.677	23.203	1636.766	1304.784
-14.663	23.242	1635.285	1303.838
-13.648	23.286	1634.150	1303.206
-12.633	23.289	1632.468	1301.833
-11.619	23.323	1630.946	1300.816
-10.604	23.276	1629.363	1299.155
-9.590	23.200	1628.574	1297.920
-8.575	23.261	1626.609	1296.749
-7.560	23.339	1625.147	1296.105
-6.546	23.261	1624.482	1294.949
-5.531	23.242	1623.602	1294.059
-4.517	23.234	1622.233	1292.861
-3.502	23.186	1621.207	1291.640
-2.487	23.319	1619.204	1290.963
-1.473	22.896	1606.923	1278.059
-0.458	19.985	1586.967	1241.305
0.556	14.787	1588.879	1209.268
1.571	12.794	1612.657	1212.602
2.586	12.876	1624.710	1222.164
3.600	11.871	1570.685	1174.216
4.615	6.526	1462.499	1057.464
5.629	1.292	1403.631	981.047
6.644	0.285	1396.651	969.601
7.659	0.145	1396.082	968.219
8.673	0.159	1394.824	967.354
9.688	0.161	1392.201	965.461
10.702	0.012	1389.378	962.465
11.717	2.582	1393.166	981.482
12.731	9.387	1403.315	1032.335
13.746	15.040	1411.500	1074.657
14.761	16.697	1413.263	1086.548
15.775	16.166	1411.285	1081.525
16.790	15.234	1408.545	1073.367
17.804	14.460	1406.201	1066.532
18.819	14.040	1405.451	1063.181
19.834	13.790	1403.467	1059.990
20.848	13.666	1402.407	1058.306
21.863	13.499	1400.555	1055.747
22.877	13.225	1400.074	1053.549
23.892	13.160	1398.878	1052.139
24.907	13.085	1398.025	1050.928
25.921	13.086	1397.283	1050.281
26.936	13.213	1395.910	1049.963
27.950	13.224	1395.340	1049.515
28.965	13.230	1394.473	1048.805
29.980	13.302	1393.644	1048.546
30.994	13.403	1392.817	1048.474
32.009	13.414	1392.005	1047.834
33.023	13.436	1390.196	1046.519
34.038	13.355	1388.840	1044.899
35.053	13.380	1387.756	1044.143
36.067	13.326	1386.701	1042.922
37.082	13.317	1385.785	1042.085
38.096	13.333	1384.931	1041.448
39.111	13.306	1384.339	1040.739
40.126	13.237	1383.559	1039.630
41.140	13.188	1382.642	1038.539
42.155	13.153	1381.967	1037.723
43.169	13.096	1382.053	1037.335
44.184	13.167	1381.409	1037.207
45.199	13.151	1380.987	1036.698
46.213	13.087	1380.573	1035.892
47.228	13.259	1379.449	1036.038
48.242	13.246	1377.921	1034.717
49.257	13.201	1376.830	1033.524
50.271	13.350	1374.760	1032.810
51.286	13.171	1373.961	1031.001
52.301	13.260	1372.306	1030.221
53.315	13.147	1371.654	1028.935
54.330	13.205	1370.476	1028.323
55.344	13.168	1369.133	1026.997
56.359	13.174	1368.153	1026.203
57.374	13.160	1367.027	1025.185
58.388	13.132	1366.124	1024.241
59.403	13.133	1365.655	1023.804
60.417	13.075	1365.148	1022.976
61.432	13.144	1363.827	1022.321
62.447	13.080	1362.750	1021.032
63.461	13.077	1361.405	1019.913
64.476	12.971	1360.586	1018.552
65.490	13.046	1359.434	1018.066
66.505	13.110	1357.217	1016.708
67.520	13.086	1356.345	1015.817
68.534	13.100	1355.190	1014.948
69.549	13.149	1354.477	1014.627
70.563	13.135	1353.289	1013.562
71.578	13.095	1352.353	1012.523
72.593	12.974	1351.081	1010.739
73.607	12.978	1350.796	1010.463
74.622	12.933	1349.714	1009.288
75.636	12.977	1349.167	1009.061
76.651	12.900	1348.085	1007.689
77.666	12.957	1347.626	1007.607
78.680	13.008	1346.723	1007.153
79.695	13.016	1345.705	1006.354
80.709	13.073	1345.285	1006.295
81.724	13.111	1344.324	1005.721
82.739	13.255	1342.998	1005.516
83.753	13.266	1341.958	1004.711
84.768	13.250	1340.730	1003.610
85.782	13.286	1339.857	1003.084
86.797	13.250	1338.538	1001.791
87.812	13.176	1337.121	1000.194
88.826	13.281	1336.312	1000.133
89.841	13.192	1335.620	998.991
90.855	13.242	1334.230	998.162
91.870	13.312	1333.305	997.809
92.884	13.246	1332.684	996.856
93.899	13.300	1332.032	996.606
94.914	13.380	1330.704	996.006
95.928	13.256	1330.308	994.874
96.943	13.292	1328.966	993.997
97.957	13.235	1328.009	992.853
98.972	13.278	1326.906	992.196
99.987	13.263	1326.363	991.612
101.001	13.335	1325.094	991.009
102.016	13.301	1323.903	989.828
103.030	13.374	1322.730	989.302
104.045	13.346	1322.129	988.597
105.060	13.238	1321.373	987.295
106.074	13.340	1319.262	986.242
107.089	13.229	1318.088	984.616
108.103	13.124	1317.209	983.245
109.118	13.127	1315.410	981.831
110.133	13.210	1314.161	981.305
111.147	13.156	1312.863	979.929
112.162	13.164	1311.938	979.199
113.176	13.229	1310.630	978.526
114.191	13.276	1309.394	977.793
115.206	13.310	1308.319	977.103
116.220	13.288	1307.056	975.942
117.235	13.149	1306.186	974.390
118.249	13.253	1304.851	973.916
119.264	13.207	1304.303	973.151
120.279	13.203	1302.511	971.706
121.293	13.211	1301.674	971.045
122.308	13.281	1300.256	970.309
123.322	13.126	1299.877	969.032
124.337	13.161	1298.440	968.077
125.352	13.107	1297.681	967.113
126.366	13.316	1295.703	966.773
127.381	13.218	1294.987	965.582
128.395	13.131	1294.410	964.559
129.410	13.144	1293.119	963.587
130.424	13.125	1292.608	963.009
131.439	13.219	1291.140	962.379
132.454	13.319	1289.800	961.879
133.468	13.239	1289.821	961.340
134.483	13.211	1288.234	959.908
135.497	13.278	1287.379	959.577
136.512	13.238	1285.921	958.174
137.527	13.279	1284.673	957.399
138.541	13.338	1283.060	956.449
139.556	13.358	1281.372	955.223
140.570	13.370	1280.851	954.819
141.585	13.331	1279.670	953.629
142.600	13.360	1278.655	952.955
143.614	13.431	1277.433	952.371
144.629	13.390	1276.438	951.309
145.643	13.456	1275.030	950.555
146.658	13.364	1274.234	949.351
147.673	13.304	1272.911	947.936
148.687	13.357	1271.483	947.092
149.702	13.272	1270.401	945.716
150.716	13.265	1268.760	944.370
151.731	13.444	1267.732	944.540
152.746	13.364	1266.695	943.230
153.760	13.294	1265.720	942.023
154.775	13.425	1264.329	941.648
155.789	13.491	1263.147	941.063
156.804	13.496	1261.818	940.017
157.819	13.496	1261.143	939.431
158.833	13.524	1260.131	938.750
159.848	13.637	1259.166	938.590
160.862	13.539	1258.128	937.178
161.877	13.527	1257.485	936.550
162.892	13.524	1255.916	935.280
163.906	13.474	1255.297	934.454
164.921	13.429	1254.056	933.194
165.935	13.565	1253.168	933.216
166.950	13.568	1252.489	932.644
167.964	13.539	1251.896	931.958
168.979	13.576	1251.055	931.455
169.994	13.563	1250.539	930.919
171.008	13.753	1249.055	930.797
172.023	13.662	1248.274	929.622
173.037	13.664	1247.651	929.086
174.052	13.628	1246.548	927.983
175.067	13.580	1245.743	927.032
176.081	13.525	1245.043	926.120
177.096	13.562	1244.058	925.513
178.110	13.540	1243.189	924.663
179.125	13.644	1241.273	923.738
180.140	13.629	1240.624	923.086
181.154	13.623	1239.453	922.103
182.169	13.674	1238.378	921.501
183.183	13.784	1236.874	920.912
184.198	13.804	1235.944	920.250
185.213	13.824	1234.438	919.156
186.227	13.744	1233.722	918.099
187.242	13.850	1232.384	917.612
188.256	13.864	1231.359	916.840
189.271	13.898	1230.444	916.270
190.286	13.714	1229.742	914.648
191.300	13.697	1229.163	914.045
192.315	13.671	1228.270	913.155
193.329	13.708	1227.515	912.716
194.344	13.692	1226.890	912.085
195.359	13.682	1226.574	911.716
196.373	13.847	1225.474	911.723
197.388	13.940	1225.127	911.893
198.402	13.940	1224.537	911.371
199.417	13.874	1224.297	910.750
200.432	14.075	1223.058	910.852
201.446	14.026	1222.060	909.757
202.461	14.041	1221.251	909.159
203.475	14.003	1220.489	908.304
204.490	13.997	1218.864	906.981
205.504	13.946	1218.129	906.076
206.519	14.032	1216.592	905.318
207.534	14.041	1215.219	904.269
208.548	13.987	1214.517	903.373
209.563	14.035	1213.717	902.959
210.577	14.030	1212.956	902.284
211.592	14.157	1211.575	901.868
212.607	14.166	1210.847	901.293
213.621	14.177	1209.697	900.418
214.636	14.116	1209.276	899.692
215.650	14.170	1208.293	899.176
216.665	14.171	1207.704	898.661
217.680	14.270	1206.451	898.185
218.694	14.265	1205.528	897.390
219.709	14.321	1204.580	896.909
220.723	14.365	1203.606	896.340
221.738	14.230	1203.526	895.476
222.753	14.283	1202.806	895.144
223.767	14.182	1202.387	894.213
224.782	14.338	1201.113	894.021
225.796	14.438	1200.239	893.830
226.811	14.346	1199.992	893.074
227.826	14.344	1199.279	892.452
228.840	14.475	1198.279	892.330
229.855	14.397	1197.636	891.353
230.869	14.368	1196.789	890.490
231.884	14.428	1195.723	889.938
232.899	14.352	1195.139	889.020
233.913	14.356	1194.804	888.711
234.928	14.306	1194.039	887.798
235.942	14.338	1192.929	887.066
236.957	14.350	1192.108	886.441
237.972	14.304	1191.644	885.773
238.986	14.396	1190.814	885.566
240.001	14.413	1190.092	885.041
241.015	14.385	1189.049	884.040
242.030	14.447	1188.509	883.886
243.045	14.510	1187.263	883.215
244.059	14.554	1186.378	882.711
245.074	14.554	1185.597	882.052
246.088	14.574	1185.155	881.754
247.103	14.670	1183.889	881.237
248.117	14.591	1183.644	880.560
249.132	14.628	1183.026	880.222
250.147	14.645	1182.205	879.621
251.161	14.845	1181.295	879.918
252.176	14.831	1180.698	879.323
253.190	14.886	1180.051	879.052
254.205	14.936	1179.158	878.570
255.220	14.814	1179.102	877.809
256.234	14.890	1178.398	877.609
257.249	14.830	1177.602	876.624
258.263	14.860	1177.007	876.260
259.278	14.842	1176.325	875.578
260.293	14.902	1176.021	875.589
261.307	15.023	1175.045	875.420
262.322	14.980	1174.296	874.556
263.336	14.927	1173.885	873.898
264.351	15.051	1172.968	873.787
265.366	14.991	1172.396	872.970
266.380	14.932	1172.205	872.444
267.395	15.044	1170.506	871.681
268.409	15.016	1169.957	871.052
269.424	15.084	1169.176	870.749
270.439	15.084	1168.708	870.321
271.453	15.115	1167.860	869.771
272.468	14.952	1167.148	868.322
273.482	15.016	1166.656	868.211
274.497	15.086	1165.881	867.922
275.512	15.128	1165.350	867.664
276.526	15.050	1164.655	866.668
277.541	15.146	1163.532	866.253
278.555	15.167	1163.117	865.975
279.570	15.169	1162.196	865.224
280.585	15.183	1161.278	864.536
281.599	15.234	1160.434	864.095
282.614	15.169	1159.560	863.032
283.628	15.185	1158.020	861.891
284.643	15.252	1157.134	861.499
285.657	15.235	1156.889	861.155
286.672	15.180	1156.038	860.158
287.687	15.250	1154.789	859.515
288.701	15.314	1153.802	859.031
289.716	15.375	1152.767	858.499
290.730	15.412	1152.349	858.301
291.745	15.368	1151.587	857.433
292.760	15.372	1151.071	856.991
293.774	15.406	1150.618	856.752
294.789	15.524	1149.935	856.767
295.803	15.383	1149.396	855.572
296.818	15.344	1148.945	854.961
297.833	15.456	1147.700	854.531
298.847	15.463	1146.950	853.931
299.862	15.503	1146.508	853.729
300.876	15.514	1145.375	852.867
301.891	15.595	1144.600	852.629
302.906	15.517	1144.330	851.953
303.920	15.661	1143.198	851.766
304.935	15.717	1142.532	851.478
305.949	15.567	1142.507	850.623
306.964	15.585	1141.694	850.036
307.979	15.569	1140.785	849.201
308.993	15.631	1139.857	848.751
310.008	15.760	1139.287	848.901
311.022	15.771	1138.614	848.381
312.037	15.735	1137.765	847.492
313.052	15.771	1136.525	846.674
314.066	15.628	1135.878	845.397
315.081	15.670	1135.031	844.901
316.095	15.633	1134.227	844.043
317.110	15.657	1133.620	843.637
318.125	15.616	1132.856	842.790
319.139	15.623	1132.116	842.197
320.154	15.669	1131.290	841.741
321.168	15.778	1130.722	841.787
322.183	15.661	1130.323	840.833
323.197	15.722	1129.396	840.374
324.212	15.748	1129.419	840.443
325.227	15.753	1128.414	839.647
326.241	15.761	1127.684	839.072
327.256	15.754	1126.635	838.180
328.270	15.828	1125.941	837.956
329.285	15.823	1124.841	837.043
330.300	15.790	1124.146	836.287
331.314	15.828	1122.686	835.317
332.329	15.784	1122.070	834.562
333.343	15.909	1121.035	834.338
334.358	15.893	1120.250	833.605
335.373	15.950	1119.500	833.255
336.387	15.939	1118.906	832.682
337.402	15.945	1118.053	832.002
338.416	15.996	1117.552	831.806
339.431	16.042	1116.733	831.351
340.446	16.125	1116.246	831.327
341.460	16.094	1115.509	830.550
342.475	16.148	1114.445	829.951
343.489	16.207	1113.659	829.582
344.504	16.199	1112.463	828.579
345.519	16.230	1111.469	827.917
346.533	16.173	1110.928	827.161
347.548	16.337	1110.014	827.212
348.562	16.202	1109.417	826.033
349.577	16.225	1108.862	825.655
350.592	16.245	1107.927	824.986
351.606	16.078	1107.002	823.408
352.621	16.209	1106.513	823.612
353.635	16.233	1105.640	823.008
354.650	16.288	1104.897	822.649
355.665	16.104	1104.384	821.299
356.679	16.164	1104.022	821.248
357.694	16.407	1103.407	821.898
358.708	16.151	1102.988	820.272
359.723	16.382	1101.836	820.464
360.738	16.299	1101.283	819.578
361.752	16.365	1100.873	819.520
362.767	16.376	1100.371	819.125
363.781	16.298	1099.739	818.203
364.796	16.488	1098.765	818.325
365.810	16.526	1098.515	818.252
366.825	16.335	1098.228	817.039
367.840	16.503	1097.455	817.208
368.854	16.660	1096.445	817.141
369.869	16.535	1096.146	816.241
370.883	16.585	1095.199	815.706
371.898	16.494	1094.320	814.541
372.913	16.644	1093.866	814.852
373.927	16.607	1093.165	814.082
374.942	16.553	1092.924	813.567
375.956	16.734	1092.363	813.949
376.971	16.703	1091.541	813.115
377.986	16.702	1091.015	812.648
379.000	16.752	1090.419	812.371
380.015	16.803	1089.638	811.961
381.029	16.803	1089.336	811.666
382.044	16.798	1088.860	811.217
383.059	16.756	1087.640	810.032
384.073	16.912	1086.590	809.924
385.088	16.821	1086.170	809.107
386.102	16.840	1085.110	808.332
387.117	16.917	1083.896	807.724
388.132	16.772	1083.406	806.600
389.146	16.818	1082.558	806.117
390.161	16.867	1081.967	805.835
391.175	16.842	1080.997	804.923
392.190	16.948	1080.370	804.888
393.205	16.838	1079.652	803.761
394.219	16.927	1078.753	803.444
395.234	16.989	1077.809	802.960
396.248	17.015	1076.821	802.279
397.263	16.917	1076.275	801.336
398.278	16.917	1075.350	800.575
399.292	17.040	1074.252	800.268
400.307	16.912	1074.061	799.453
401.321	16.907	1073.192	798.711
402.336	16.922	1073.001	798.571
403.350	17.081	1071.764	798.326
404.365	16.993	1071.056	797.316
405.380	17.203	1070.372	797.718
406.394	16.956	1069.690	795.983
407.409	17.037	1068.760	795.597
408.423	17.022	1068.494	795.260
409.438	17.084	1067.532	794.765
410.453	17.161	1066.571	794.341
411.467	17.194	1066.339	794.249
412.482	17.160	1065.212	793.184
413.496	17.345	1064.573	793.500
414.511	17.267	1064.025	792.659
415.526	17.320	1063.400	792.369
416.540	17.326	1063.216	792.188
417.555	17.350	1062.933	792.020
418.569	17.351	1062.375	791.540
419.584	17.297	1061.932	790.888
420.599	17.432	1061.299	790.975
421.613	107.335	1331.893	1485.907
422.628	99.061	1371.254	1485.977
