DTS Sentinel unit serial number:	SN413079Multiplexer serial number:	ORYXHardware model number:	OX4-SRSoftware version number:	ORYX F/W v4.00 Oryx Data Collector v3.7.2.0data status	okinstallation	princeton_trtdifferential loss correction	single-endedforward channel	channel 2reverse channel	N/Adate	2019/09/13time	13:55:35forward acquisition time	60.00reverse acquisition time	0.00gamma	496.2192k internal	0.2315k external	0.2315temperature offset calibration	1.0204default loss term (dB/km)	0.3790temperature slope calibration	1.0000multiplexer offset coefficient	1.0000multiplexer slope coefficient	1.0000fibre end	0.00T internal ref (°C)	35.19T ext. ref 1 (°C)	4.59T ext. ref 2 (°C)	31.45length (m)	temperature (°C)	Stokes	anti-Stokes-747.200	115.057	0.059	0.073
-746.185	800.000	-0.159	0.453
-745.171	12.166	0.141	0.110
-744.156	583.434	-0.184	0.459
-743.142	134.898	0.125	0.164
-742.127	-200.000	0.048	0.417
-741.112	800.000	-0.092	0.274
-740.098	435.596	0.138	0.304
-739.083	-32.340	0.144	-0.081
-738.069	-56.246	-0.176	-0.079
-737.054	282.376	-0.102	-0.186
-736.039	-57.910	-0.561	-0.248
-735.025	417.930	0.224	0.485
-734.010	-50.432	-0.700	-0.335
-732.996	-59.953	0.227	-0.098
-731.981	-99.242	-0.130	0.033
-730.966	-98.905	-0.140	-0.036
-729.952	155.980	-0.073	-0.102
-728.937	379.525	0.049	-0.102
-727.923	130.666	0.186	-0.242
-726.908	285.639	-0.100	-0.182
-725.894	-137.107	-0.282	0.033
-724.879	800.000	-0.102	-0.373
-723.864	213.492	0.233	-0.372
-722.850	118.225	0.209	0.261
-721.835	208.787	-0.128	0.203
-720.821	231.673	0.150	-0.249
-719.806	784.783	-0.039	0.109
-718.791	-200.000	-0.005	0.048
-717.777	422.884	0.080	0.174
-716.762	-164.883	0.257	-0.012
-715.748	-101.629	0.198	-0.049
-714.733	100.395	-0.058	0.068
-713.718	-78.278	0.070	-0.024
-712.704	322.504	-0.152	-0.293
-711.689	-200.000	0.018	-0.121
-710.675	-200.000	0.067	-0.397
-709.660	-165.568	-0.395	-0.017
-708.645	210.755	0.032	-0.051
-707.631	2.271	0.265	-0.194
-706.616	160.100	0.040	-0.057
-705.602	35.692	-0.195	-0.174
-704.587	497.909	0.059	-0.137
-703.572	8.716	-0.249	-0.190
-702.558	-50.222	0.212	-0.101
-701.543	206.009	-0.148	-0.233
-700.529	552.246	-0.037	-0.090
-699.514	800.000	0.065	0.237
-698.499	37.850	-0.181	0.163
-697.485	-18.816	-0.095	-0.060
-696.470	-120.863	0.249	-0.043
-695.456	34.672	0.104	-0.092
-694.441	195.755	0.104	0.161
-693.426	712.149	-0.057	0.154
-692.412	132.109	-0.064	0.083
-691.397	270.639	0.053	0.093
-690.383	279.967	-0.055	0.100
-689.368	800.000	-0.077	-0.255
-688.354	61.523	0.166	-0.167
-687.339	-31.139	-0.239	0.136
-686.324	-200.000	-0.067	-0.340
-685.310	-85.368	0.374	-0.118
-684.295	-124.028	0.183	-0.029
-683.281	-200.000	0.013	0.114
-682.266	800.000	-0.044	-0.158
-681.251	-166.187	-0.616	0.026
-680.237	511.408	-0.016	0.039
-679.222	-200.000	0.054	0.268
-678.208	134.584	-0.117	0.154
-677.193	-200.000	0.080	0.368
-676.178	518.846	-0.189	0.446
-675.164	800.000	-0.093	-0.329
-674.149	137.570	-0.172	-0.228
-673.135	800.000	0.031	0.107
-672.120	646.507	0.059	-0.152
-671.105	-100.932	0.129	0.032
-670.091	7.397	0.081	-0.062
-669.076	-40.733	0.150	0.078
-668.062	100.070	0.233	-0.273
-667.047	800.000	0.037	-0.130
-666.032	-89.375	-0.203	0.060
-665.018	549.254	0.102	-0.246
-664.003	-44.076	-0.101	0.051
-662.989	-2.121	0.376	-0.267
-661.974	800.000	-0.125	-0.391
-660.959	-120.643	0.248	0.042
-659.945	-28.019	0.119	0.069
-658.930	58.034	0.154	0.152
-657.916	-67.036	-0.183	0.073
-656.901	-76.227	0.265	-0.094
-655.886	-200.000	0.022	-0.127
-654.872	-72.292	-0.201	0.075
-653.857	358.341	-0.118	0.239
-652.843	108.672	0.320	0.386
-651.828	131.020	0.031	0.041
-650.814	290.692	0.120	-0.220
-649.799	89.413	-0.110	0.124
-648.784	-71.682	-0.136	-0.051
-647.770	-77.187	-0.201	-0.071
-646.755	-145.247	0.189	-0.017
-645.741	-130.764	-0.216	0.029
-644.726	-200.000	-0.023	0.241
-643.711	-200.000	0.049	0.264
-642.697	-160.357	-0.096	-0.005
-641.682	330.782	-0.166	-0.323
-640.668	359.897	0.057	-0.115
-639.653	-169.228	-0.105	-0.004
-638.638	-142.754	0.117	-0.011
-637.624	-34.009	-0.317	-0.176
-636.609	800.000	0.118	-0.412
-635.595	-200.000	0.019	0.210
-634.580	-109.381	-0.251	0.054
-633.565	-200.000	-0.001	-0.028
-632.551	220.052	-0.104	0.168
-631.536	-7.354	0.250	0.171
-630.522	-105.748	-0.045	0.010
-629.507	209.858	0.122	-0.193
-628.492	-125.408	-0.038	0.006
-627.478	-122.024	-0.525	-0.087
-626.463	-200.000	0.025	0.274
-625.449	-200.000	0.017	-0.100
-624.434	-29.242	0.234	0.135
-623.419	167.840	0.226	-0.324
-622.405	120.352	-0.113	-0.142
-621.390	14.232	0.024	-0.019
-620.376	533.638	0.130	-0.309
-619.361	-200.000	-0.049	-0.369
-618.346	94.990	-0.375	-0.430
-617.332	-200.000	-0.015	-0.098
-616.317	77.223	0.220	0.236
-615.303	-66.474	-0.111	0.044
-614.288	44.662	0.275	0.255
-613.273	800.000	0.091	-0.336
-612.259	-102.409	-0.205	-0.050
-611.244	405.446	-0.065	0.138
-610.230	181.223	-0.044	-0.065
-609.215	-28.065	0.279	0.162
-608.201	-109.583	-0.490	0.104
-607.186	-147.256	0.124	-0.011
-606.171	-200.000	0.017	-0.198
-605.157	-158.549	-0.259	-0.015
-604.142	-19.231	0.112	0.070
-603.128	37.050	0.058	0.052
-602.113	800.000	0.089	-0.263
-601.098	70.520	-0.322	0.336
-600.084	10.915	0.113	0.087
-599.069	121.160	-0.059	-0.074
-598.055	17.861	-0.050	0.040
-597.040	-200.000	-0.015	-0.296
-596.025	-200.000	0.031	-0.359
-595.011	-21.808	-0.056	-0.034
-593.996	-125.525	0.287	0.044
-592.982	687.299	0.100	0.264
-591.967	28.859	-0.089	0.076
-590.952	120.179	0.209	0.261
-589.938	-88.170	-0.201	-0.061
-588.923	165.652	-0.102	-0.145
-587.909	-200.000	0.036	0.162
-586.894	-56.737	0.064	-0.029
-585.879	355.534	-0.159	0.319
-584.865	800.000	0.011	0.044
-583.850	-46.396	-0.284	-0.140
-582.836	-109.630	0.253	0.054
-581.821	-60.403	-0.328	-0.141
-580.806	-200.000	0.046	-0.241
-579.792	18.237	-0.182	0.146
-578.777	772.031	0.183	-0.503
-577.763	-29.228	-0.159	-0.092
-576.748	166.913	0.219	-0.313
-575.733	-17.427	-0.035	-0.022
-574.719	21.859	-0.029	0.024
-573.704	45.764	-0.033	0.031
-572.690	-3.665	0.215	-0.150
-571.675	-45.373	0.166	0.083
-570.661	382.099	0.030	0.063
-569.646	800.000	0.044	-0.171
-568.631	450.652	-0.047	-0.104
-567.617	-6.621	-0.191	0.131
-566.602	-121.520	-0.318	-0.053
-565.588	-150.322	-0.052	-0.004
-564.573	56.940	-0.128	-0.126
-563.558	-80.424	0.177	-0.060
-562.544	127.438	0.267	0.341
-561.529	-64.600	0.211	-0.086
-560.515	38.209	-0.216	0.193
-559.500	27.146	0.144	-0.121
-558.485	67.506	0.086	0.088
-557.471	508.716	-0.206	-0.482
-556.456	-154.547	-0.302	0.020
-555.442	41.117	-0.161	-0.146
-554.427	-200.000	0.002	-0.373
-553.412	-136.553	0.209	-0.024
-552.398	128.334	-0.063	-0.081
-551.383	-200.000	0.017	0.245
-550.369	-102.488	0.508	-0.122
-549.354	303.435	-0.050	-0.093
-548.339	530.521	-0.105	0.249
-547.325	113.472	0.182	0.222
-546.310	-116.543	0.192	-0.036
-545.296	547.286	-0.021	-0.051
-544.281	146.957	0.140	0.189
-543.266	405.217	0.143	0.304
-542.252	210.061	-0.176	0.277
-541.237	800.000	0.077	-0.215
-540.223	216.131	0.112	-0.179
-539.208	275.800	0.099	0.177
-538.193	312.582	0.008	-0.016
-537.179	-78.357	0.333	0.115
-536.164	-200.000	0.008	-0.221
-535.150	293.442	0.086	0.158
-534.135	-74.855	-0.141	0.051
-533.121	-200.000	0.002	0.182
-532.106	51.452	0.074	-0.070
-531.091	-125.395	-0.290	0.044
-530.077	-40.900	-0.269	0.140
-529.062	-200.000	0.012	0.075
-528.048	-5.671	0.164	0.113
-527.033	-66.913	-0.196	0.078
-526.018	-41.213	0.119	0.062
-525.004	-200.000	-0.089	0.509
-523.989	-200.000	-0.038	-0.231
-522.975	494.460	0.026	-0.061
-521.960	725.169	-0.153	0.411
-520.945	-15.868	0.104	-0.067
-519.931	-200.000	-0.048	0.275
-518.916	-141.106	-0.280	0.029
-517.902	-92.478	0.212	0.060
-516.887	578.698	-0.053	-0.129
-515.872	189.876	-0.163	-0.246
-514.858	237.119	-0.144	0.239
-513.843	279.332	0.104	0.187
-512.829	-152.824	-0.445	0.032
-511.814	-200.000	-0.004	-0.285
-510.799	-83.983	0.236	-0.075
-509.785	261.572	0.043	-0.075
-508.770	-53.036	-0.260	-0.120
-507.756	68.708	0.110	-0.114
-506.741	-200.000	0.057	0.417
-505.726	-103.783	-0.302	-0.071
-504.712	-34.791	0.169	-0.093
-503.697	36.613	0.164	-0.145
-502.683	-82.308	-0.319	-0.104
-501.668	212.202	0.176	0.278
-500.653	-200.000	-0.027	-0.163
-499.639	-129.229	-0.138	-0.019
-498.624	130.293	0.110	-0.142
-497.610	800.000	-0.039	0.168
-496.595	-111.443	-0.071	-0.014
-495.581	-200.000	-0.015	0.132
-494.566	-91.558	0.126	0.036
-493.551	-41.740	-0.069	0.035
-492.537	800.000	0.052	0.157
-491.522	-156.986	-0.139	0.009
-490.508	-200.000	0.034	0.213
-489.493	309.053	-0.184	0.346
-488.478	-200.000	-0.017	-0.224
-487.464	276.455	-0.149	0.266
-486.449	139.523	-0.056	0.074
-485.435	-32.211	-0.025	0.014
-484.420	649.683	0.032	-0.082
-483.405	242.465	0.097	-0.163
-482.391	-200.000	0.010	0.374
-481.376	-160.967	0.193	0.010
-480.362	83.450	0.095	0.104
-479.347	-85.125	-0.134	-0.042
-478.332	33.887	-0.141	0.123
-477.318	-200.000	-0.000	0.312
-476.303	-27.054	0.165	-0.096
-475.289	-107.586	-0.113	-0.025
-474.274	127.471	0.208	0.265
-473.259	-200.000	-0.009	0.302
-472.245	-147.811	-0.199	0.017
-471.230	74.869	0.119	0.126
-470.216	-200.000	-0.017	-0.141
-469.201	381.393	-0.059	0.122
-468.186	-67.598	-0.397	-0.156
-467.172	-14.371	0.186	-0.120
-466.157	36.277	0.291	-0.257
-465.143	-52.816	-0.268	-0.124
-464.128	489.085	-0.077	0.176
-463.113	-157.760	0.198	0.012
-462.099	-61.265	-0.164	-0.069
-461.084	-96.589	-0.346	0.091
-460.070	-113.830	0.219	-0.043
-459.055	191.273	-0.067	0.101
-458.040	10.578	-0.129	-0.098
-457.026	-82.071	-0.433	0.142
-456.011	256.611	-0.048	0.083
-454.997	428.447	-0.106	0.229
-453.982	-95.943	-0.317	0.085
-452.968	560.685	0.126	-0.306
-451.953	-200.000	0.049	0.380
-450.938	-139.032	0.096	-0.010
-449.924	-200.000	0.013	-0.426
-448.909	-30.344	0.155	0.088
-447.895	-117.921	-0.424	-0.076
-446.880	-50.594	0.406	0.192
-445.865	71.932	-0.048	0.050
-444.851	-200.000	0.052	-0.263
-443.836	163.089	-0.160	-0.225
-442.822	800.000	0.127	0.451
-441.807	98.101	-0.185	-0.213
-440.792	-92.089	-0.160	0.045
-439.778	-122.144	0.193	-0.032
-438.763	46.302	-0.130	-0.120
-437.749	-79.879	-0.372	-0.125
-436.734	-52.672	-0.171	-0.079
-435.719	-8.598	-0.121	-0.081
-434.705	-145.075	-0.182	-0.017
-433.690	-200.000	0.002	0.113
-432.676	800.000	0.100	0.351
-431.661	45.247	0.246	-0.227
-430.646	25.825	0.007	0.005
-429.632	259.661	-0.012	0.020
-428.617	8.983	-0.042	-0.032
-427.603	-119.871	-0.481	0.083
-426.588	271.269	-0.224	-0.395
-425.573	123.630	-0.264	0.332
-424.559	59.325	0.088	-0.087
-423.544	-79.190	0.152	-0.052
-422.530	33.348	-0.194	-0.168
-421.515	13.297	0.097	0.075
-420.500	170.185	0.194	-0.277
-419.486	-16.961	0.428	-0.270
-418.471	-200.000	-0.004	-0.150
-417.457	-83.379	0.063	-0.020
-416.442	-34.161	-0.098	-0.054
-415.428	-28.004	-0.238	-0.138
-414.413	-29.683	0.128	-0.073
-413.398	436.172	-0.188	0.408
-412.384	-79.820	-0.292	-0.098
-411.369	64.006	-0.330	-0.332
-410.355	-48.251	0.221	-0.106
-409.340	-176.032	0.007	-0.000
-408.325	-8.868	0.096	0.064
-407.311	439.814	0.077	-0.169
-406.296	-65.792	0.143	-0.057
-405.282	109.681	-0.118	-0.142
-404.267	-46.852	-0.102	0.050
-403.252	-146.482	-0.138	-0.012
-402.238	231.260	0.178	0.292
-401.223	-200.000	-0.018	0.288
-400.209	-26.011	0.090	0.053
-399.194	-14.270	0.190	-0.122
-398.179	-186.757	-0.133	0.002
-397.165	-73.263	-0.214	-0.078
-396.150	-39.824	0.097	-0.051
-395.136	800.000	-0.106	0.336
-394.121	739.955	0.134	-0.360
-393.106	-139.653	0.265	-0.028
-392.092	-72.856	0.084	-0.031
-391.077	-33.159	-0.456	0.253
-390.063	187.724	-0.166	-0.247
-389.048	78.569	0.067	0.071
-388.033	178.850	-0.052	-0.076
-387.019	-4.002	-0.362	0.251
-386.004	-132.448	-0.365	0.047
-384.990	-42.074	0.068	0.035
-383.975	181.185	-0.213	0.312
-382.960	-200.000	-0.051	-0.298
-381.946	-45.874	0.183	0.090
-380.931	475.182	-0.105	0.238
-379.917	800.000	0.028	-0.093
-378.902	150.298	0.107	-0.145
-377.888	-128.286	-0.248	-0.035
-376.873	25.329	0.028	-0.024
-375.858	-155.533	0.329	0.021
-374.844	800.000	-0.078	0.334
-373.829	-200.000	0.019	0.180
-372.815	-200.000	-0.008	-0.173
-371.800	50.814	-0.222	-0.210
-370.785	-200.000	0.007	0.115
-369.771	241.434	-0.029	0.048
-368.756	-200.000	0.054	0.265
-367.742	334.313	-0.055	-0.107
-366.727	-92.152	0.096	-0.027
-365.712	-4.972	-0.099	-0.068
-364.698	-200.000	0.004	-0.179
-363.683	31.919	0.209	0.180
-362.669	800.000	-0.109	-0.306
-361.654	-200.000	0.007	0.194
-360.639	-149.481	0.032	-0.003
-359.625	-117.456	0.433	-0.078
-358.610	800.000	0.071	-0.246
-357.596	-159.766	-0.420	-0.023
-356.581	234.723	0.079	0.130
-355.566	37.477	-0.228	0.202
-354.552	-82.596	0.221	-0.071
-353.537	-114.432	0.197	0.038
-352.523	-48.223	0.126	-0.061
-351.508	-200.000	0.269	-0.001
-350.493	34.913	-0.100	-0.088
-349.479	-4.804	0.231	0.159
-348.464	55.438	-0.149	0.144
-347.450	-129.811	0.263	-0.036
-346.435	-117.836	0.390	-0.070
-345.420	-200.000	0.042	0.394
-344.406	-135.699	0.083	-0.010
-343.391	-104.521	0.081	0.019
-342.377	22.304	0.374	0.305
-341.362	236.938	-0.227	0.376
-340.348	-16.595	0.279	0.176
-339.333	112.458	-0.126	-0.152
-338.318	800.000	0.056	-0.166
-337.304	471.832	0.007	-0.015
-336.289	-200.000	0.060	0.271
-335.275	-200.000	-0.025	0.294
-334.260	-68.694	0.095	0.037
-333.245	-12.828	0.225	0.146
-332.231	395.869	0.162	-0.337
-331.216	-143.551	0.168	0.016
-330.202	-18.805	0.264	-0.164
-329.187	522.464	0.096	0.224
-328.172	800.000	-0.014	0.051
-327.158	481.373	0.108	-0.243
-326.143	-200.000	0.039	0.225
-325.129	-31.320	-0.105	0.059
-324.114	-200.000	-0.013	0.070
-323.099	322.989	-0.116	-0.220
-322.085	43.864	-0.083	0.075
-321.070	114.860	0.212	0.257
-320.056	-45.058	-0.303	0.150
-319.041	-67.583	0.008	-0.003
-318.026	-45.188	-0.272	-0.135
-317.012	466.928	-0.043	0.096
-315.997	14.089	0.389	0.302
-314.983	203.498	-0.083	-0.127
-313.968	7.564	-0.110	0.082
-312.953	49.339	-0.131	0.123
-311.939	-200.000	0.078	0.435
-310.924	800.000	0.044	-0.137
-309.910	-122.092	-0.225	-0.037
-308.895	-128.152	-0.233	0.033
-307.880	800.000	0.065	-0.278
-306.866	-119.757	-0.165	0.028
-305.851	-25.966	0.107	0.063
-304.837	474.537	0.169	-0.381
-303.822	447.302	-0.056	-0.122
-302.807	-200.000	-0.021	0.355
-301.793	800.000	0.062	-0.240
-300.778	-200.000	0.035	0.233
-299.764	81.567	0.078	-0.084
-298.749	153.317	-0.187	-0.255
-297.735	800.000	-0.080	-0.303
-296.720	30.619	-0.181	0.154
-295.705	-200.000	-0.101	0.509
-294.691	-121.472	0.302	0.050
-293.676	78.568	0.301	-0.321
-292.662	65.145	0.017	0.017
-291.647	-2.550	0.202	0.140
-290.632	-118.896	0.090	0.016
-289.618	227.634	0.061	0.099
-288.603	-65.586	0.191	0.076
-287.589	-101.153	-0.200	0.049
-286.574	204.982	0.100	-0.154
-285.559	800.000	0.170	0.598
-284.545	257.035	0.097	-0.166
-283.530	371.566	0.036	0.073
-282.516	-97.550	-0.258	-0.067
-281.501	-200.000	0.001	-0.385
-280.486	148.252	-0.211	0.284
-279.472	-124.702	0.016	-0.002
-278.457	-158.141	0.085	0.005
-277.443	19.238	0.321	-0.257
-276.428	348.017	0.116	-0.227
-275.413	-25.378	-0.132	-0.078
-274.399	800.000	0.089	-0.317
-273.384	-136.472	0.240	0.028
-272.370	97.617	-0.180	-0.206
-271.355	-99.034	0.230	-0.058
-270.340	76.468	0.188	0.198
-269.326	95.691	0.224	-0.255
-268.311	800.000	0.042	-0.167
-267.297	611.241	0.078	-0.194
-266.282	494.706	0.110	0.251
-265.267	92.439	-0.081	-0.091
-264.253	-74.194	-0.477	-0.171
-263.238	1.444	-0.341	-0.244
-262.224	208.859	0.190	-0.295
-261.209	57.590	0.257	-0.250
-260.195	-177.758	-0.015	-0.000
-259.180	-77.123	-0.100	-0.035
-258.165	-200.000	-0.034	-0.387
-257.151	-95.280	0.550	-0.147
-256.136	1.296	-0.196	0.140
-255.122	620.780	0.152	-0.380
-254.107	-31.297	0.236	-0.132
-253.092	126.696	0.113	0.143
-252.078	-125.208	0.139	0.021
-251.063	-0.168	0.409	-0.290
-250.049	800.000	0.058	-0.163
-249.034	114.089	0.162	0.195
-248.019	320.816	0.124	-0.235
-247.005	-200.000	0.033	-0.166
-245.990	800.000	-0.072	-0.223
-244.976	81.869	-0.168	-0.181
-243.961	-169.830	0.281	0.010
-242.946	-69.233	0.261	0.100
-241.932	6.544	-0.164	-0.121
-240.917	-51.093	-0.050	0.023
-239.903	-17.054	-0.339	-0.213
-238.888	-42.088	0.244	0.124
-237.873	-121.462	-0.064	0.011
-236.859	87.300	-0.237	0.260
-235.844	-57.344	0.168	0.074
-234.830	800.000	0.092	-0.329
-233.815	-138.493	0.219	-0.024
-232.800	-101.026	0.172	-0.042
-231.786	-200.000	-0.016	0.308
-230.771	266.831	0.133	0.232
-229.757	-38.838	0.282	0.147
-228.742	-200.000	0.019	-0.272
-227.727	-108.686	0.108	0.023
-226.713	-200.000	0.066	0.000
-225.698	237.762	-0.082	0.136
-224.684	-200.000	-0.047	0.454
-223.669	-69.135	0.264	0.101
-222.655	-4.309	0.220	0.151
-221.640	800.000	0.074	0.290
-220.625	123.703	-0.128	-0.160
-219.611	-124.820	0.160	0.025
-218.596	-121.343	-0.197	0.033
-217.582	-9.555	0.155	-0.103
-216.567	406.161	0.193	0.405
-215.552	-120.461	-0.227	-0.038
-214.538	-175.573	-0.206	-0.006
-213.523	-70.897	0.095	-0.036
-212.509	427.275	-0.008	0.017
-211.494	48.298	0.195	0.181
-210.479	26.078	0.176	0.146
-209.465	800.000	-0.045	0.147
-208.450	-200.000	-0.056	-0.397
-207.436	-9.949	0.066	0.044
-206.421	60.751	-0.195	0.192
-205.406	-37.335	-0.305	0.162
-204.392	44.384	0.151	-0.138
-203.377	-200.000	-0.046	0.207
-202.363	15.375	-0.202	0.157
-201.348	800.000	0.076	0.270
-200.333	254.575	-0.144	-0.244
-199.319	15.274	-0.133	-0.103
-198.304	-151.153	0.126	-0.009
-197.290	-200.000	0.071	-0.350
-196.275	117.136	0.091	0.111
-195.260	154.055	0.034	0.046
-194.246	-200.000	-0.017	-0.077
-193.231	-115.163	0.334	-0.063
-192.217	-200.000	0.016	-0.253
-191.202	77.285	-0.194	-0.205
-190.187	22.102	-0.035	0.029
-189.173	-200.000	-0.008	0.060
-188.158	213.887	-0.273	-0.429
-187.144	502.939	0.108	-0.248
-186.129	-148.238	0.406	0.033
-185.114	27.156	0.143	0.119
-184.100	-181.462	0.217	-0.004
-183.085	-35.444	-0.107	-0.058
-182.071	429.970	0.144	-0.309
-181.056	-160.400	-0.085	-0.005
-180.042	-200.000	-0.004	0.081
-179.027	9.998	0.302	-0.227
-178.012	-81.891	-0.359	0.116
-176.998	-64.073	0.100	-0.040
-175.983	129.089	-0.074	0.093
-174.969	-185.267	-0.209	0.003
-173.954	-21.910	0.197	0.119
-172.939	6.076	-0.102	-0.075
-171.925	182.989	0.083	0.121
-170.910	800.000	-0.059	0.231
-169.896	-20.117	-0.224	0.137
-168.881	125.098	-0.080	0.100
-167.866	-164.362	-0.359	0.016
-166.852	800.000	0.084	0.362
-165.837	-96.106	0.224	0.059
-164.823	180.269	-0.002	0.003
-163.808	-200.000	-0.024	0.177
-162.793	580.254	-0.019	-0.047
-161.779	800.000	0.007	-0.024
-160.764	-200.000	0.011	0.089
-159.750	-200.000	-0.016	0.266
-158.735	-200.000	0.013	0.078
-157.720	-131.543	0.302	0.039
-156.706	-73.537	-0.232	-0.084
-155.691	-55.797	-0.199	-0.088
-154.677	283.267	0.083	-0.147
-153.662	800.000	-0.087	0.275
-152.647	63.717	-0.429	-0.427
-151.633	117.462	-0.202	-0.246
-150.618	-42.049	0.222	0.113
-149.604	782.829	0.037	0.101
-148.589	-95.189	-0.222	0.059
-147.574	-105.543	0.320	-0.072
-146.560	-31.035	0.205	0.115
-145.545	-9.584	0.036	-0.024
-144.531	800.000	0.106	0.398
-143.516	-200.000	-0.026	-0.204
-142.502	-45.273	-0.174	0.085
-141.487	-200.000	0.004	0.129
-140.472	-182.894	0.130	0.002
-139.458	-54.442	0.256	-0.115
-138.443	41.891	-0.288	-0.258
-137.429	-200.000	0.002	-0.026
-136.414	210.913	0.102	-0.159
-135.399	35.530	-0.240	-0.208
-134.385	800.000	0.040	0.114
-133.370	-70.123	0.176	0.066
-132.356	-76.723	-0.292	0.101
-131.341	-46.048	0.091	-0.045
-130.326	-77.914	0.238	-0.081
-129.312	19.503	-0.275	-0.219
-128.297	-200.000	-0.007	-0.462
-127.283	800.000	-0.108	-0.343
-126.268	171.597	0.113	0.160
-125.253	-200.000	-0.021	-0.210
-124.239	-200.000	-0.016	0.188
-123.224	-141.415	-0.141	-0.014
-122.210	66.710	-0.287	-0.289
-121.195	-166.205	0.311	0.013
-120.180	116.636	-0.095	-0.115
-119.166	12.438	-0.178	0.135
-118.151	0.656	-0.118	-0.083
-117.137	-4.201	0.105	0.072
-116.122	-64.967	0.318	0.127
-115.107	-75.237	0.153	-0.054
-114.093	-82.630	0.225	0.072
-113.078	-58.285	0.127	0.055
-112.064	800.000	-0.091	0.263
-111.049	-81.835	0.036	-0.012
-110.034	800.000	-0.106	-0.311
-109.020	26.136	-0.038	-0.031
-108.005	360.572	-0.071	-0.141
-106.991	-132.609	-0.289	0.037
-105.976	-148.105	-0.178	-0.015
-104.962	341.746	-0.046	-0.088
-103.947	275.068	-0.120	0.210
-102.932	186.230	-0.154	0.227
-101.918	485.797	-0.114	0.258
-100.903	800.000	-0.121	0.388
-99.889	776.914	-0.038	-0.103
-98.874	-72.368	0.104	-0.038
-97.859	-35.043	0.167	-0.090
-96.845	-26.136	-0.132	-0.077
-95.830	447.064	0.120	-0.262
-94.816	800.000	0.112	-0.318
-93.801	-54.886	-0.400	0.178
-92.786	-15.296	-0.107	-0.067
-91.772	-200.000	-0.045	0.243
-90.757	630.814	0.101	0.254
-89.743	31.383	0.232	0.197
-88.728	-200.000	0.002	-0.117
-87.713	-125.785	0.369	0.055
-86.699	800.000	-0.067	0.277
-85.684	141.878	-0.047	0.061
-84.670	-200.000	0.001	0.027
-83.655	800.000	0.023	-0.099
-82.640	-80.674	-0.359	-0.118
-81.626	800.000	0.110	-0.359
-80.611	-140.964	0.405	0.041
-79.597	-143.374	-0.122	-0.011
-78.582	-150.252	0.095	0.007
-77.567	-101.360	0.223	0.054
-76.553	-145.940	0.246	-0.022
-75.538	572.707	0.215	0.518
-74.524	-51.846	0.173	0.079
-73.509	-124.595	-0.255	-0.039
-72.494	143.674	0.051	0.067
-71.480	-89.627	-0.137	-0.040
-70.465	-200.000	0.002	-0.098
-69.451	-44.254	0.229	-0.113
-68.436	134.809	0.059	-0.075
-67.422	800.000	0.033	0.132
-66.407	610.294	0.089	0.221
-65.392	138.171	-0.083	0.107
-64.378	-87.001	0.299	-0.090
-63.363	-95.849	0.315	0.083
-62.349	67.025	0.077	0.077
-61.334	-26.894	-1.036	-0.597
-60.319	11.191	0.515	0.389
-59.305	800.000	-0.176	-0.601
-58.290	279.992	0.556	0.981
-57.276	800.000	0.623	1.719
-56.261	-200.000	94.511	564.963
-55.246	646.253	1384.892	3489.219
-54.232	186.472	2612.843	3836.454
-53.217	117.501	2321.442	2816.926
-52.203	45.105	1932.438	1756.375
-51.188	38.676	1717.753	1511.796
-50.173	35.713	1672.706	1449.791
-49.159	52.311	1720.396	1618.376
-48.144	55.681	1738.694	1661.284
-47.130	38.305	1694.529	1488.294
-46.115	35.240	1679.668	1452.013
-45.100	35.028	1675.348	1446.616
-44.086	35.034	1672.453	1444.106
-43.071	35.045	1669.775	1441.818
-42.057	35.077	1667.463	1440.006
-41.042	34.973	1665.742	1437.680
-40.027	35.044	1663.285	1436.035
-39.013	35.066	1661.427	1434.542
-37.998	35.076	1659.965	1433.292
-36.984	35.113	1658.666	1432.393
-35.969	35.226	1656.899	1431.656
-34.954	35.250	1655.432	1430.510
-33.940	35.240	1653.363	1428.592
-32.925	35.122	1652.113	1426.574
-31.911	35.178	1650.046	1425.151
-30.896	35.206	1648.335	1423.825
-29.881	35.108	1646.963	1421.856
-28.867	35.062	1645.311	1420.026
-27.852	35.125	1643.782	1419.121
-26.838	35.147	1642.213	1417.870
-25.823	35.223	1640.661	1417.042
-24.809	35.155	1639.682	1415.636
-23.794	35.305	1637.860	1415.111
-22.779	35.232	1636.823	1413.623
-21.765	35.303	1634.787	1412.332
-20.750	35.223	1632.747	1409.925
-19.736	35.202	1631.539	1408.668
-18.721	35.295	1630.106	1408.056
-17.706	35.279	1628.128	1406.175
-16.692	35.199	1626.561	1404.180
-15.677	35.141	1625.797	1403.040
-14.663	35.204	1624.140	1402.020
-13.648	35.190	1622.978	1400.855
-12.633	35.189	1621.213	1399.271
-11.619	35.188	1619.651	1397.862
-10.604	35.357	1617.780	1397.421
-9.590	35.274	1616.689	1395.818
-8.575	35.227	1615.609	1394.487
-7.560	35.104	1614.461	1392.548
-6.546	35.200	1612.875	1391.818
-5.531	35.207	1611.844	1390.928
-4.517	35.195	1610.873	1389.950
-3.502	35.289	1609.341	1389.249
-2.487	35.218	1608.263	1387.753
-1.473	35.209	1596.969	1377.890
-0.458	32.342	1578.070	1341.121
0.556	30.753	1577.073	1304.305
1.571	27.891	1600.491	1303.163
2.586	26.565	1613.255	1303.898
3.600	23.120	1558.655	1235.638
4.615	14.121	1445.642	1087.371
5.629	6.138	1379.356	987.441
6.644	4.560	1370.826	971.395
7.659	4.575	1369.652	970.566
8.673	4.622	1368.806	970.178
9.688	4.613	1367.216	968.905
10.702	4.626	1364.391	966.903
11.717	8.419	1371.588	995.590
12.731	17.235	1388.019	1062.796
13.746	22.607	1396.454	1102.861
14.761	22.632	1394.926	1101.718
15.775	21.858	1392.870	1095.163
16.790	20.873	1390.021	1086.684
17.804	19.979	1388.148	1079.551
18.819	19.619	1386.758	1076.138
19.834	19.526	1385.781	1074.705
20.848	19.382	1384.798	1072.947
21.863	19.263	1383.015	1070.737
22.877	19.072	1382.296	1068.897
23.892	19.064	1381.527	1068.159
24.907	19.051	1380.373	1067.093
25.921	19.067	1379.354	1066.307
26.936	19.111	1378.645	1065.938
27.950	19.109	1377.504	1064.951
28.965	19.191	1376.572	1064.639
29.980	19.228	1375.606	1064.028
30.994	19.338	1374.309	1063.608
32.009	19.462	1373.230	1063.446
33.023	19.461	1371.936	1062.340
34.038	19.272	1370.943	1060.313
35.053	19.254	1369.695	1059.145
36.067	19.250	1368.556	1058.145
37.082	19.294	1367.714	1057.671
38.096	19.328	1366.739	1057.035
39.111	19.355	1365.920	1056.472
40.126	19.257	1364.981	1055.054
41.140	18.931	1364.028	1052.229
42.155	18.892	1363.031	1051.126
43.169	18.725	1363.134	1050.090
44.184	18.717	1362.717	1049.629
45.199	18.867	1362.361	1050.177
46.213	18.823	1362.236	1049.722
47.228	19.130	1361.117	1050.637
48.242	19.077	1360.256	1049.558
49.257	19.187	1358.753	1048.974
50.271	19.049	1357.607	1047.159
51.286	19.184	1355.836	1046.519
52.301	19.182	1354.781	1045.599
53.315	19.015	1353.413	1043.437
54.330	18.942	1352.315	1042.059
55.344	18.917	1350.785	1040.637
56.359	18.936	1349.980	1040.037
57.374	18.838	1349.093	1038.669
58.388	18.765	1348.631	1037.782
59.403	18.663	1348.216	1036.757
60.417	18.704	1347.400	1036.282
61.432	18.646	1346.161	1034.891
62.447	18.644	1345.029	1033.913
63.461	18.529	1344.502	1032.728
64.476	18.432	1343.316	1031.138
65.490	18.698	1341.515	1031.267
66.505	18.517	1340.564	1029.354
67.520	18.608	1339.241	1028.795
68.534	18.621	1338.012	1027.836
69.549	18.628	1337.164	1027.138
70.563	18.550	1336.337	1025.940
71.578	18.438	1334.822	1024.023
72.593	18.455	1333.542	1023.051
73.607	18.238	1333.604	1021.709
74.622	18.454	1332.270	1021.888
75.636	18.411	1331.854	1021.221
76.651	18.404	1331.589	1020.883
77.666	18.525	1330.973	1021.046
78.680	18.533	1330.413	1020.569
79.695	18.617	1329.485	1020.268
80.709	18.667	1329.470	1020.463
81.724	18.818	1328.342	1020.407
82.739	18.842	1327.590	1019.878
83.753	19.039	1326.696	1020.271
84.768	19.139	1326.295	1020.465
85.782	19.289	1325.378	1020.555
86.797	19.367	1323.380	1019.389
87.812	19.255	1322.367	1017.856
88.826	19.039	1321.833	1016.081
89.841	19.167	1320.456	1015.687
90.855	19.191	1319.720	1015.171
91.870	19.388	1318.418	1015.243
92.884	19.306	1318.032	1014.370
93.899	19.438	1316.890	1014.182
94.914	19.402	1316.676	1013.716
95.928	19.361	1315.965	1012.833
96.943	19.393	1314.422	1011.746
97.957	19.282	1314.081	1010.740
98.972	19.239	1312.543	1009.219
99.987	19.347	1311.298	1008.802
101.001	19.282	1310.714	1007.885
102.016	19.294	1309.910	1007.245
103.030	19.341	1308.872	1006.637
104.045	19.286	1307.895	1005.472
105.060	19.029	1307.532	1003.605
106.074	18.899	1305.440	1001.156
107.089	18.601	1304.017	998.244
108.103	18.557	1302.526	996.755
109.118	18.654	1300.661	995.802
110.133	18.667	1299.910	995.216
111.147	18.709	1298.285	994.125
112.162	18.642	1297.453	993.016
113.176	18.745	1296.635	992.899
114.191	18.713	1295.694	991.903
115.206	18.842	1294.403	991.573
116.220	18.746	1293.330	990.108
117.235	18.796	1292.295	989.515
118.249	18.728	1291.382	988.337
119.264	18.710	1289.909	987.019
120.279	18.605	1289.034	985.661
121.293	18.566	1287.661	984.298
122.308	18.512	1286.868	983.295
123.322	18.386	1285.672	981.571
124.337	18.395	1284.806	980.876
125.352	18.449	1283.471	980.077
126.366	18.362	1282.255	978.565
127.381	18.420	1281.547	978.272
128.395	18.465	1280.268	977.468
129.410	18.457	1279.553	976.784
130.424	18.606	1278.891	977.045
131.439	18.760	1277.643	976.877
132.454	18.841	1276.969	976.737
133.468	18.807	1276.124	975.815
134.483	18.784	1275.552	975.159
135.497	18.815	1274.750	974.634
136.512	18.842	1273.154	973.482
137.527	18.864	1271.829	972.506
138.541	18.922	1270.647	971.845
139.556	18.992	1269.386	971.191
140.570	19.073	1268.231	970.679
141.585	19.158	1267.282	970.344
142.600	19.229	1266.681	970.199
143.614	19.275	1266.087	969.919
144.629	19.465	1264.481	969.665
145.643	19.301	1263.663	968.031
146.658	19.135	1262.298	965.972
147.673	19.002	1260.622	963.856
148.687	18.857	1259.852	962.371
149.702	18.832	1257.742	960.534
150.716	18.702	1256.501	958.775
151.731	18.869	1255.188	958.622
152.746	18.907	1254.277	958.053
153.760	18.935	1252.846	957.031
154.775	19.036	1252.212	957.025
155.789	19.070	1251.210	956.361
156.804	19.053	1250.070	955.310
157.819	19.079	1249.740	955.120
158.833	19.225	1248.686	955.036
159.848	19.369	1247.708	955.004
160.862	19.277	1246.610	953.570
161.877	19.126	1245.188	951.565
162.892	18.853	1243.811	948.920
163.906	18.827	1243.171	948.206
164.921	18.830	1242.356	947.516
165.935	18.939	1242.020	947.774
166.950	19.032	1240.797	947.270
167.964	19.086	1240.056	946.917
168.979	19.002	1239.396	945.870
169.994	18.926	1238.079	944.364
171.008	19.073	1237.363	944.538
172.023	19.223	1236.737	944.802
173.037	19.284	1236.614	944.955
174.052	19.292	1235.496	944.061
175.067	19.028	1234.255	941.589
176.081	18.938	1232.481	939.659
177.096	18.851	1231.971	938.709
178.110	19.004	1230.900	938.646
179.125	18.969	1229.515	937.319
180.140	19.098	1228.331	937.034
181.154	19.269	1227.077	936.924
182.169	19.291	1226.457	936.486
183.183	19.382	1225.198	935.936
184.198	19.446	1223.864	935.183
185.213	19.397	1222.765	933.992
186.227	19.369	1222.110	933.258
187.242	19.508	1221.064	933.128
188.256	19.499	1220.488	932.557
189.271	19.482	1219.737	931.812
190.286	19.382	1218.338	930.117
191.300	18.965	1216.967	926.745
192.315	18.827	1216.009	925.190
193.329	18.906	1215.538	925.176
194.344	18.983	1215.383	925.388
195.359	18.970	1214.859	924.841
196.373	19.105	1214.620	925.301
197.388	19.234	1214.152	925.555
198.402	19.466	1214.027	926.622
199.417	19.551	1213.938	926.928
200.432	19.689	1212.704	926.647
201.446	19.824	1211.935	926.699
202.461	19.862	1211.143	926.216
203.475	19.843	1210.321	925.403
204.490	19.625	1208.938	923.100
205.504	19.403	1207.451	920.697
206.519	19.431	1206.218	919.827
207.534	19.445	1204.717	918.671
208.548	19.497	1204.100	918.399
209.563	19.537	1203.526	918.092
210.577	19.466	1202.454	916.819
211.592	19.585	1201.764	916.842
212.607	19.735	1201.241	917.159
213.621	19.692	1200.392	916.198
214.636	19.610	1199.566	915.055
215.650	19.653	1198.531	914.413
216.665	19.720	1197.647	914.008
217.680	19.773	1197.160	913.836
218.694	19.929	1196.300	913.922
219.709	19.853	1195.326	912.698
220.723	19.872	1194.246	911.891
221.738	19.883	1193.690	911.443
222.753	19.770	1193.011	910.249
223.767	19.788	1192.688	910.017
224.782	19.912	1192.059	910.111
225.796	19.968	1191.676	910.030
226.811	19.952	1191.211	909.511
227.826	19.840	1189.968	907.897
228.840	19.871	1188.980	907.224
229.855	19.698	1187.927	905.430
230.869	19.890	1187.245	905.838
231.884	19.729	1186.426	904.291
232.899	19.668	1185.682	903.322
233.913	19.574	1184.553	901.892
234.928	19.503	1183.952	900.986
235.942	19.376	1183.468	899.877
236.957	19.579	1181.949	899.700
237.972	19.461	1181.942	898.998
238.986	19.593	1181.080	898.951
240.001	19.557	1180.507	898.249
241.015	19.689	1179.528	898.108
242.030	19.778	1178.805	897.942
243.045	19.760	1178.220	897.322
244.059	19.840	1177.227	896.901
245.074	19.939	1176.677	896.916
246.088	19.882	1176.016	896.038
247.103	19.976	1175.229	895.846
248.117	20.118	1175.035	896.352
249.132	20.368	1173.864	896.672
250.147	20.617	1173.075	897.273
251.161	20.605	1172.798	896.923
252.176	20.559	1172.220	896.163
253.190	20.740	1171.411	896.398
254.205	20.723	1171.385	896.210
255.220	20.752	1170.807	895.838
256.234	20.771	1170.402	895.545
257.249	20.647	1169.409	894.072
258.263	20.688	1168.358	893.397
259.278	20.748	1167.709	893.133
260.293	20.693	1167.667	892.736
261.307	20.816	1166.656	892.515
262.322	20.837	1165.674	891.793
263.336	20.834	1165.659	891.686
264.351	20.797	1164.963	890.885
265.366	20.929	1164.081	890.809
266.380	20.857	1163.227	889.706
267.395	20.840	1162.351	888.874
268.409	20.750	1161.373	887.585
269.424	20.705	1160.777	886.824
270.439	20.639	1160.837	886.456
271.453	20.584	1159.932	885.404
272.468	20.492	1158.572	883.822
273.482	20.611	1157.804	883.760
274.497	20.450	1157.304	882.486
275.512	20.478	1156.734	882.113
276.526	20.523	1155.842	881.584
277.541	20.565	1155.120	881.167
278.555	20.509	1154.807	880.565
279.570	20.869	1153.696	881.463
280.585	20.834	1153.313	880.915
281.599	20.913	1152.156	880.355
282.614	20.798	1150.992	878.807
283.628	20.732	1149.732	877.431
284.643	20.590	1149.308	876.316
285.657	20.675	1147.838	875.547
286.672	20.710	1147.035	875.033
287.687	20.766	1146.390	874.741
288.701	20.805	1145.942	874.519
289.716	20.755	1145.275	873.682
290.730	20.810	1144.130	873.011
291.745	20.823	1143.614	872.602
292.760	20.722	1143.715	872.096
293.774	20.797	1142.881	871.758
294.789	20.934	1142.139	871.801
295.803	20.996	1141.240	871.347
296.818	20.976	1140.234	870.402
297.833	20.716	1139.812	868.705
298.847	20.840	1138.982	868.615
299.862	20.754	1138.317	867.603
300.876	20.849	1137.307	867.228
301.891	21.034	1136.378	867.364
302.906	21.107	1135.894	867.282
303.920	21.266	1135.567	867.744
304.935	21.259	1135.236	867.380
305.949	21.418	1134.476	867.511
306.964	21.316	1133.799	866.408
307.979	21.269	1132.993	865.486
308.993	21.228	1132.221	864.614
310.008	21.132	1131.478	863.496
311.022	21.348	1130.571	863.797
312.037	21.336	1129.723	863.012
313.052	21.200	1128.571	861.385
314.066	21.068	1127.549	859.879
315.081	20.956	1126.819	858.695
316.095	20.864	1125.742	857.344
317.110	20.916	1125.566	857.390
318.125	20.907	1124.629	856.555
319.139	20.855	1124.211	855.905
320.154	20.818	1123.385	855.020
321.168	20.842	1122.975	854.748
322.183	20.875	1122.043	854.128
323.197	21.040	1121.428	854.390
324.212	21.068	1121.019	854.141
325.227	21.034	1120.390	853.421
326.241	21.141	1119.400	853.112
327.256	21.046	1119.101	852.344
328.270	21.029	1117.893	851.270
329.285	20.940	1116.956	850.045
330.300	20.977	1116.021	849.441
331.314	20.930	1114.953	848.324
332.329	20.963	1114.406	847.991
333.343	21.143	1113.149	847.836
334.358	21.166	1112.754	847.570
335.373	21.262	1111.955	847.353
336.387	21.250	1111.155	846.610
337.402	21.376	1110.509	846.653
338.416	21.445	1110.080	846.584
339.431	21.408	1109.670	846.020
340.446	21.474	1109.112	845.836
341.460	21.603	1108.716	846.086
342.475	21.754	1107.352	845.696
343.489	21.761	1106.591	845.074
344.504	21.758	1106.165	844.657
345.519	21.997	1104.598	844.540
346.533	21.976	1103.891	843.824
347.548	21.981	1103.524	843.490
348.562	21.945	1102.429	842.407
349.577	21.806	1101.177	840.707
350.592	21.502	1100.758	838.855
351.606	21.512	1099.920	838.191
352.621	21.426	1099.129	837.104
353.635	21.396	1098.323	836.273
354.650	21.438	1097.725	835.945
355.665	21.504	1096.811	835.491
356.679	21.454	1096.866	835.219
357.694	21.467	1096.437	834.879
358.708	21.717	1095.341	835.164
359.723	21.720	1094.827	834.711
360.738	21.673	1093.993	833.776
361.752	21.676	1093.289	833.181
362.767	21.633	1093.288	832.904
363.781	21.804	1092.316	832.902
364.796	21.915	1091.848	832.997
365.810	21.988	1091.359	832.897
366.825	22.117	1090.766	832.980
367.840	22.250	1090.335	833.208
368.854	22.339	1089.773	833.127
369.869	22.294	1089.528	832.654
370.883	22.121	1088.282	830.812
371.898	21.991	1087.526	829.544
372.913	22.025	1086.919	829.170
373.927	22.069	1086.572	829.041
374.942	22.131	1085.860	828.715
375.956	22.221	1085.033	828.435
376.971	22.209	1084.571	827.952
377.986	22.122	1084.315	827.274
379.000	22.329	1083.917	827.869
380.015	22.350	1083.551	827.618
381.029	22.416	1082.599	827.125
382.044	22.359	1081.775	826.158
383.059	22.381	1080.923	825.535
384.073	22.289	1080.183	824.464
385.088	22.323	1079.597	824.107
386.102	22.339	1078.526	823.289
387.117	22.332	1077.159	822.142
388.132	22.042	1076.370	820.110
389.146	21.977	1075.765	819.275
390.161	21.988	1074.892	818.587
391.175	21.961	1074.192	817.857
392.190	22.273	1073.363	818.607
393.205	22.366	1073.051	818.728
394.219	22.266	1071.972	817.369
395.234	22.349	1070.817	816.800
396.248	22.147	1070.125	815.264
397.263	22.104	1069.057	814.177
398.278	22.021	1068.135	813.019
399.292	22.013	1067.254	812.238
400.307	21.978	1066.229	811.226
401.321	21.952	1065.956	810.826
402.336	21.878	1065.303	809.918
403.350	21.979	1064.717	809.865
404.365	21.996	1063.775	809.155
405.380	22.161	1063.041	809.285
406.394	22.204	1062.597	809.073
407.409	22.351	1062.291	809.445
408.423	22.384	1061.337	808.796
409.438	22.582	1060.339	808.876
410.453	22.500	1060.003	808.171
411.467	22.718	1058.952	808.298
412.482	22.619	1059.069	807.863
413.496	22.672	1058.375	807.501
414.511	22.771	1057.785	807.434
415.526	22.860	1057.366	807.448
416.540	22.907	1057.289	807.534
417.555	22.910	1056.431	806.821
418.569	22.872	1055.514	805.875
419.584	22.852	1055.010	805.329
420.599	22.765	1054.519	804.488
421.613	154.096	1400.418	1788.734
422.628	141.525	1450.819	1788.841
