DTS Sentinel unit serial number:	SN413079Multiplexer serial number:	ORYXHardware model number:	OX4-SRSoftware version number:	ORYX F/W v4.00 Oryx Data Collector v3.7.2.0data status	okinstallation	princeton_trtdifferential loss correction	single-endedforward channel	channel 2reverse channel	N/Adate	2019/09/19time	04:35:35forward acquisition time	60.00reverse acquisition time	0.00gamma	496.2192k internal	0.2351k external	0.2351temperature offset calibration	1.0012default loss term (dB/km)	0.3790temperature slope calibration	1.0000multiplexer offset coefficient	1.0000multiplexer slope coefficient	1.0000fibre end	0.00T internal ref (°C)	20.06T ext. ref 1 (°C)	0.63T ext. ref 2 (°C)	13.07length (m)	temperature (°C)	Stokes	anti-Stokes-747.200	-28.732	0.212	-0.122
-746.185	-94.646	0.059	0.016
-745.171	-200.000	0.002	0.067
-744.156	-200.000	-0.021	0.382
-743.142	-88.957	0.168	0.050
-742.127	272.889	-0.211	0.373
-741.112	-25.507	0.206	0.121
-740.098	-43.528	0.037	0.019
-739.083	146.527	0.070	-0.094
-738.069	95.368	-0.099	0.113
-737.054	80.031	0.005	0.005
-736.039	-200.000	0.013	0.110
-735.025	-200.000	-0.023	0.173
-734.010	-142.564	-0.141	-0.014
-732.996	-149.132	-0.236	0.019
-731.981	-200.000	-0.002	-0.216
-730.966	800.000	-0.092	0.335
-729.952	186.892	0.032	-0.047
-728.937	193.950	0.160	-0.241
-727.923	-138.239	-0.311	0.034
-726.908	-158.862	0.219	0.012
-725.894	-90.207	-0.344	-0.100
-724.879	65.426	0.139	-0.140
-723.864	-53.409	0.381	-0.174
-722.850	-46.677	-0.080	-0.039
-721.835	247.652	0.086	-0.146
-720.821	800.000	-0.149	-0.414
-719.806	-196.238	-0.195	0.001
-718.791	-200.000	0.074	-0.393
-717.777	-66.057	0.385	0.153
-716.762	224.127	0.196	0.316
-715.748	-122.468	-0.228	0.037
-714.733	37.630	-0.261	0.231
-713.718	28.739	0.131	0.110
-712.704	-200.000	-0.035	-0.293
-711.689	148.354	-0.170	0.229
-710.675	-200.000	0.038	-0.315
-709.660	-21.008	-0.148	0.090
-708.645	141.590	0.203	0.268
-707.631	152.634	0.158	0.215
-706.616	-200.000	0.014	-0.320
-705.602	0.764	0.454	-0.324
-704.587	-91.414	-0.172	0.049
-703.572	-99.585	0.146	0.037
-702.558	252.529	0.017	0.029
-701.543	75.764	0.129	-0.135
-700.529	134.578	0.140	0.181
-699.514	467.346	-0.113	0.253
-698.499	173.903	0.058	-0.083
-697.485	800.000	-0.098	-0.321
-696.470	-141.745	0.104	-0.010
-695.456	800.000	-0.105	0.302
-694.441	674.917	0.106	-0.274
-693.426	-153.994	0.241	0.016
-692.412	800.000	-0.048	0.153
-691.397	684.733	-0.046	0.120
-690.383	-110.429	-0.028	-0.006
-689.368	-200.000	0.000	0.061
-688.354	800.000	-0.065	-0.199
-687.339	437.471	0.117	0.255
-686.324	-168.852	0.107	0.004
-685.310	121.142	0.169	-0.210
-684.295	293.144	0.078	-0.142
-683.281	-50.932	0.339	0.159
-682.266	-200.000	0.100	0.509
-681.251	-162.905	-0.438	-0.021
-680.237	198.319	-0.067	0.102
-679.222	32.074	0.113	-0.097
-678.208	-73.786	0.153	0.056
-677.193	-3.552	-0.160	-0.111
-676.178	-200.000	0.078	-0.384
-675.164	-200.000	0.001	0.097
-674.149	-58.297	0.264	0.114
-673.135	-177.125	0.359	0.009
-672.120	599.389	0.095	0.234
-671.105	-35.648	-0.143	0.077
-670.091	266.387	0.040	0.069
-669.076	-28.858	0.250	0.143
-668.062	-113.814	-0.142	-0.027
-667.047	800.000	0.108	-0.363
-666.032	261.073	-0.162	-0.279
-665.018	-106.038	0.141	-0.031
-664.003	34.256	-0.025	0.022
-662.989	-22.521	0.081	-0.049
-661.974	-107.549	0.197	0.043
-660.959	-200.000	0.060	-0.381
-659.945	486.301	-0.119	0.270
-658.930	-33.288	0.317	0.175
-657.916	148.390	0.230	-0.308
-656.901	-127.032	-0.094	-0.014
-655.886	259.258	0.053	-0.092
-654.872	-156.706	0.222	0.014
-653.857	368.335	0.102	0.204
-652.843	155.239	-0.149	0.204
-651.828	-82.362	0.297	0.096
-650.814	4.311	0.357	0.260
-649.799	-17.112	-0.066	0.041
-648.784	-86.652	0.206	0.063
-647.770	-200.000	0.002	0.016
-646.755	-170.033	0.239	0.008
-645.741	-200.000	-0.049	0.246
-644.726	-68.114	0.161	0.062
-643.711	145.308	0.226	-0.300
-642.697	307.952	0.081	-0.150
-641.682	-32.231	-0.464	-0.257
-640.668	-167.873	-0.034	0.001
-639.653	20.946	-0.243	0.196
-638.638	364.050	0.139	0.277
-637.624	65.779	-0.225	-0.227
-636.609	-38.899	-0.122	0.064
-635.595	178.056	-0.134	-0.194
-634.580	800.000	-0.068	0.258
-633.565	93.506	0.065	-0.073
-632.551	-200.000	-0.015	-0.163
-631.536	40.391	0.179	-0.160
-630.522	81.729	0.181	-0.195
-629.507	-137.161	-0.047	-0.005
-628.492	49.590	0.102	0.095
-627.478	-131.887	-0.480	-0.062
-626.463	-17.795	-0.101	0.063
-625.449	-200.000	-0.007	-0.172
-624.434	-125.364	-0.054	-0.008
-623.419	800.000	0.039	-0.137
-622.405	76.481	0.064	-0.067
-621.390	29.388	-0.226	-0.190
-620.376	15.675	-0.080	0.063
-619.361	-200.000	0.003	0.082
-618.346	-200.000	-0.031	0.267
-617.332	150.160	-0.323	-0.436
-616.317	204.006	0.106	-0.164
-615.303	-43.740	0.272	0.136
-614.288	-49.816	-0.190	-0.089
-613.273	109.521	0.131	0.156
-612.259	-113.511	0.120	0.023
-611.244	-99.250	-0.258	0.065
-610.230	57.550	-0.161	-0.157
-609.215	262.138	-0.136	0.234
-608.201	-126.451	-0.086	0.013
-607.186	-92.608	0.432	0.120
-606.171	-200.000	-0.017	0.470
-605.157	-37.742	-0.018	0.009
-604.142	-200.000	0.032	-0.233
-603.128	-19.766	0.121	-0.074
-602.113	118.977	-0.184	-0.226
-601.098	378.351	0.079	0.160
-600.084	204.350	0.179	0.275
-599.069	135.504	-0.144	-0.186
-598.055	-151.056	-0.131	0.010
-597.040	-107.976	-0.114	-0.024
-596.025	-146.309	-0.109	-0.009
-595.011	-3.834	-0.238	-0.164
-593.996	-200.000	0.061	-0.282
-592.982	190.832	-0.133	-0.199
-591.967	422.179	-0.062	-0.131
-590.952	85.168	0.112	-0.122
-589.938	232.452	-0.152	0.248
-588.923	-96.312	0.427	0.112
-587.909	-25.048	0.206	-0.121
-586.894	800.000	-0.086	-0.274
-585.879	800.000	-0.063	0.197
-584.865	-130.707	-0.400	0.053
-583.850	97.401	-0.110	0.125
-582.836	693.185	-0.093	-0.242
-581.821	352.104	-0.190	-0.373
-580.806	233.671	-0.162	0.264
-579.792	-79.187	0.254	-0.085
-578.777	-200.000	0.026	0.292
-577.763	800.000	0.038	-0.139
-576.748	-128.832	0.096	0.013
-575.733	-200.000	-0.014	-0.314
-574.719	245.621	0.165	-0.275
-573.704	-103.247	0.087	-0.020
-572.690	648.622	-0.094	0.239
-571.675	-109.253	-0.493	-0.104
-570.661	21.079	0.138	0.111
-569.646	-25.064	-0.232	-0.136
-568.631	312.832	0.089	0.166
-567.617	-95.145	-0.195	-0.052
-566.602	324.126	0.180	-0.340
-565.588	-107.663	0.510	0.110
-564.573	-155.482	0.120	-0.008
-563.558	17.973	0.320	-0.253
-562.544	4.882	0.159	-0.116
-561.529	-51.854	-0.131	-0.060
-560.515	-200.000	0.012	-0.199
-559.500	-100.599	-0.341	-0.083
-558.485	-148.611	0.042	0.003
-557.471	800.000	-0.133	0.378
-556.456	-200.000	0.007	-0.207
-555.442	112.310	0.088	0.105
-554.427	-200.000	-0.001	0.035
-553.412	190.846	0.180	-0.268
-552.398	-46.262	0.245	-0.119
-551.383	412.458	0.095	0.199
-550.369	93.166	-0.337	-0.377
-549.354	-70.527	-0.055	0.021
-548.339	169.274	0.210	0.296
-547.325	-4.552	0.025	0.017
-546.310	105.983	0.314	-0.368
-545.296	240.828	-0.203	0.335
-544.281	-200.000	-0.038	0.304
-543.266	-200.000	-0.006	0.078
-542.252	721.891	0.075	-0.198
-541.237	800.000	-0.097	0.301
-540.223	-140.584	0.263	-0.027
-539.208	-89.905	-0.205	-0.059
-538.193	-36.541	-0.202	0.108
-537.179	109.189	-0.164	-0.195
-536.164	332.801	0.169	-0.323
-535.150	341.754	0.068	-0.131
-534.135	-116.605	-0.101	-0.018
-533.121	56.324	0.295	0.283
-532.106	-58.082	0.069	-0.030
-531.091	800.000	-0.074	-0.211
-530.077	52.174	0.305	-0.287
-529.062	121.592	-0.199	-0.246
-528.048	320.211	-0.199	0.373
-527.033	37.886	0.075	0.066
-526.018	620.319	-0.136	-0.339
-525.004	192.789	-0.077	0.115
-523.989	-172.812	-0.423	-0.013
-522.975	-119.747	0.274	0.047
-521.960	800.000	0.053	0.180
-520.945	291.600	-0.062	0.111
-519.931	197.486	-0.165	0.249
-518.916	-111.986	-0.233	-0.046
-517.902	37.905	-0.308	0.271
-516.887	-9.779	0.107	-0.071
-515.872	-129.417	0.053	-0.007
-514.858	-139.091	0.333	-0.036
-513.843	-126.611	-0.478	-0.070
-512.829	-200.000	-0.058	-0.444
-511.814	-200.000	0.011	0.356
-510.799	36.171	0.242	0.211
-509.785	-140.474	0.024	-0.003
-508.770	191.086	0.077	-0.115
-507.756	166.236	-0.124	0.174
-506.741	-200.000	-0.004	-0.175
-505.726	26.359	-0.075	0.062
-504.712	-200.000	-0.075	-0.371
-503.697	68.886	0.357	-0.362
-502.683	34.883	-0.061	0.053
-501.668	-200.000	0.009	0.286
-500.653	116.075	-0.065	0.078
-499.639	122.189	-0.072	0.089
-498.624	10.073	0.093	0.070
-497.610	268.953	0.121	-0.210
-496.595	206.965	0.098	0.151
-495.581	-139.513	-0.169	-0.018
-494.566	-200.000	-0.040	-0.260
-493.551	-115.874	0.031	0.006
-492.537	123.001	-0.240	-0.297
-491.522	800.000	0.055	0.165
-490.508	-160.612	-0.133	0.007
-489.493	655.197	-0.090	-0.228
-488.478	121.240	-0.096	-0.118
-487.464	-122.467	0.379	-0.061
-486.449	-180.316	-0.488	-0.010
-485.435	-86.307	-0.113	0.034
-484.420	482.624	0.126	-0.284
-483.405	31.030	-0.136	-0.115
-482.391	-87.414	-0.084	-0.025
-481.376	800.000	-0.037	0.118
-480.362	180.234	-0.174	0.251
-479.347	-200.000	0.059	0.274
-478.332	-200.000	0.064	0.300
-477.318	135.876	0.060	-0.078
-476.303	-200.000	-0.032	0.224
-475.289	-200.000	0.010	0.180
-474.274	48.060	-0.277	-0.255
-473.259	-200.000	-0.078	-0.424
-472.245	46.062	0.178	-0.163
-471.230	237.881	-0.054	-0.088
-470.216	-51.053	-0.243	0.112
-469.201	59.722	-0.133	0.130
-468.186	-85.490	0.121	-0.037
-467.172	-58.863	-0.181	0.077
-466.157	-64.583	0.373	-0.150
-465.143	25.257	-0.008	-0.006
-464.128	101.806	-0.092	-0.105
-463.113	-115.510	0.144	0.027
-462.099	-175.939	-0.142	0.004
-461.084	800.000	-0.017	-0.051
-460.070	377.152	0.125	-0.253
-459.055	-15.122	-0.094	-0.059
-458.040	-0.483	0.116	-0.081
-457.026	-99.919	0.245	0.060
-456.011	-200.000	-0.008	0.301
-454.997	757.358	0.071	-0.190
-453.982	-200.000	0.000	-0.210
-452.968	-49.889	-0.059	0.028
-451.953	92.449	0.179	-0.199
-450.938	-200.000	-0.021	-0.194
-449.924	800.000	0.025	0.073
-448.909	-8.921	-0.189	0.125
-447.895	-126.556	-0.124	0.018
-446.880	800.000	-0.020	0.063
-445.865	102.613	-0.174	0.201
-444.851	-81.003	0.175	-0.057
-443.836	-96.665	-0.461	0.120
-442.822	800.000	-0.063	0.215
-441.807	10.287	-0.334	0.251
-440.792	-146.148	0.179	-0.016
-439.778	-10.837	0.175	0.114
-438.763	-5.845	-0.092	0.062
-437.749	526.006	0.148	0.343
-436.734	-59.002	-0.160	0.068
-435.719	147.225	-0.134	-0.177
-434.705	389.519	0.048	0.098
-433.690	-2.278	-0.261	0.180
-432.676	-72.545	-0.183	-0.067
-431.661	-123.454	0.335	-0.053
-430.646	114.453	-0.071	0.085
-429.632	-200.000	-0.021	0.209
-428.617	370.758	-0.054	0.108
-427.603	-49.622	-0.035	-0.017
-426.588	205.033	0.025	-0.038
-425.573	19.890	0.211	-0.168
-424.559	-200.000	0.009	-0.211
-423.544	53.948	-0.111	0.105
-422.530	-200.000	0.016	-0.184
-421.515	186.086	0.070	0.103
-420.500	294.879	0.110	0.198
-419.486	-18.579	-0.286	-0.176
-418.471	555.795	-0.144	-0.342
-417.457	-83.200	0.330	0.104
-416.442	-150.242	0.304	-0.023
-415.428	-36.342	0.110	0.058
-414.413	-149.389	-0.120	0.009
-413.398	19.019	-0.195	-0.154
-412.384	659.241	0.043	0.109
-411.369	-200.000	-0.016	-0.234
-410.355	364.802	-0.023	0.045
-409.340	1.679	-0.290	0.206
-408.325	-200.000	0.027	0.319
-407.311	-200.000	-0.219	-0.001
-406.296	-38.214	-0.249	-0.130
-405.282	-200.000	0.003	0.151
-404.267	-98.572	-0.444	-0.112
-403.252	680.798	-0.213	0.547
-402.238	-87.624	0.113	0.034
-401.223	-123.045	-0.109	0.017
-400.209	800.000	-0.156	-0.434
-399.194	736.383	0.011	0.029
-398.179	-29.471	0.086	-0.049
-397.165	-190.922	-0.130	0.001
-396.150	800.000	0.130	0.431
-395.136	-47.222	-0.181	-0.087
-394.121	-200.000	0.002	0.114
-393.106	-145.623	-0.191	0.017
-392.092	53.168	0.074	-0.070
-391.077	766.000	-0.170	0.454
-390.063	-200.000	0.033	0.298
-389.048	129.263	0.160	-0.201
-388.033	-25.898	-0.106	-0.061
-387.019	-21.516	-0.192	0.115
-386.004	217.763	0.070	0.110
-384.990	248.228	0.179	-0.298
-383.975	-69.744	-0.217	-0.081
-382.960	-9.553	-0.101	-0.066
-381.946	-97.285	0.166	-0.043
-380.931	139.951	-0.121	0.157
-379.917	47.542	0.241	0.221
-378.902	-200.000	0.003	0.059
-377.888	-17.339	-0.151	0.094
-376.873	-97.906	0.090	-0.023
-375.858	75.061	-0.113	0.117
-374.844	-98.544	0.172	0.043
-373.829	19.423	-0.245	0.194
-372.815	800.000	-0.037	0.119
-371.800	-90.577	0.093	-0.026
-370.785	179.709	-0.077	0.111
-369.771	-33.990	-0.146	-0.079
-368.756	-200.000	-0.015	-0.407
-367.742	91.645	0.137	0.152
-366.727	-200.000	0.026	0.162
-365.712	-81.960	0.234	0.075
-364.698	-93.003	0.161	0.044
-363.683	-17.409	0.264	-0.163
-362.669	-97.095	-0.309	-0.079
-361.654	800.000	0.097	0.290
-360.639	-120.683	-0.056	-0.009
-359.625	-32.200	0.196	-0.108
-358.610	447.682	0.067	0.144
-357.596	126.696	0.245	0.305
-356.581	800.000	0.022	-0.068
-355.566	-53.881	0.231	-0.103
-354.552	-64.025	0.298	0.120
-353.537	458.449	-0.015	0.034
-352.523	137.706	0.119	0.153
-351.508	78.997	-0.190	0.200
-350.493	30.818	-0.056	-0.047
-349.479	-200.000	0.056	-0.281
-348.464	358.360	-0.204	-0.401
-347.450	119.607	0.078	-0.094
-346.435	219.070	-0.200	0.313
-345.420	51.485	0.126	-0.118
-344.406	-157.364	-0.025	0.001
-343.391	507.966	0.127	-0.290
-342.377	-200.000	-0.302	0.000
-341.362	800.000	0.045	0.149
-340.348	-37.984	0.290	0.151
-339.333	-112.234	0.230	-0.045
-338.318	22.245	-0.342	-0.274
-337.304	57.315	0.160	0.153
-336.289	800.000	0.043	0.175
-335.275	-94.583	0.319	-0.085
-334.260	-200.000	-0.025	-0.187
-333.245	-14.253	-0.129	0.082
-332.231	-136.510	0.215	-0.024
-331.216	205.170	0.098	0.149
-330.202	-22.994	-0.189	-0.112
-329.187	-200.000	0.013	0.113
-328.172	93.295	-0.133	-0.148
-327.158	-200.000	0.014	-0.096
-326.143	-75.552	0.165	-0.058
-325.129	800.000	-0.028	-0.081
-324.114	800.000	0.137	-0.381
-323.099	-200.000	0.001	-0.064
-322.085	756.976	-0.099	-0.264
-321.070	-200.000	-0.011	0.082
-320.056	800.000	0.044	0.147
-319.041	784.206	0.098	-0.264
-318.026	-200.000	-0.054	0.232
-317.012	-200.000	-0.000	0.014
-315.997	133.631	0.073	-0.093
-314.983	-125.313	0.446	-0.067
-313.968	-66.091	0.217	0.085
-312.953	800.000	0.098	0.330
-311.939	-43.091	0.195	0.097
-310.924	-150.166	-0.418	0.032
-309.910	698.264	0.037	-0.095
-308.895	-200.000	0.074	0.329
-307.880	-85.282	-0.336	0.103
-306.866	-52.964	0.048	0.022
-305.851	-99.036	0.409	-0.102
-304.837	448.579	-0.123	0.266
-303.822	169.608	0.132	-0.185
-302.807	120.284	0.227	0.276
-301.793	-46.121	0.189	-0.091
-300.778	-200.000	0.065	-0.279
-299.764	-200.000	-0.057	-0.440
-298.749	-200.000	0.037	0.184
-297.735	-122.686	-0.351	-0.056
-296.720	-33.873	0.190	-0.102
-295.705	72.000	0.263	-0.268
-294.691	-200.000	0.011	0.117
-293.676	-93.286	0.208	-0.057
-292.662	2.795	0.227	-0.161
-291.647	-77.447	-0.268	0.091
-290.632	240.915	-0.052	0.086
-289.618	20.752	0.114	0.090
-288.603	-143.091	0.254	-0.024
-287.589	-82.168	0.109	-0.035
-286.574	-44.741	0.051	0.025
-285.559	295.785	0.063	0.114
-284.545	17.301	-0.299	0.232
-283.530	22.435	-0.036	0.029
-282.516	-200.000	-0.010	-0.529
-281.501	-70.612	-0.212	-0.079
-280.486	-101.690	-0.342	0.081
-279.472	-200.000	0.007	-0.090
-278.457	800.000	-0.075	-0.310
-277.443	100.878	-0.118	-0.134
-276.428	47.566	-0.062	0.057
-275.413	48.348	-0.241	0.221
-274.399	800.000	0.059	0.195
-273.384	-88.397	-0.149	0.043
-272.370	-44.784	-0.243	0.119
-271.355	5.849	-0.032	0.023
-270.340	-77.849	0.108	0.036
-269.326	-200.000	-0.012	0.332
-268.311	44.264	0.225	0.202
-267.297	-19.089	-0.051	-0.031
-266.282	502.272	0.164	-0.372
-265.267	-181.584	0.117	-0.002
-264.253	-191.351	0.148	-0.001
-263.238	-85.847	-0.220	0.067
-262.224	-143.138	-0.351	0.033
-261.209	178.162	0.216	-0.308
-260.195	-164.645	-0.479	-0.021
-259.180	-146.667	0.257	0.022
-258.165	-200.000	0.010	-0.102
-257.151	186.062	0.161	0.234
-256.136	-64.726	0.123	0.049
-255.122	-104.806	0.041	-0.009
-254.107	-200.000	-0.055	0.259
-253.092	48.214	-0.156	0.143
-252.078	-200.000	-0.032	-0.159
-251.063	-200.000	-0.072	-0.334
-250.049	-200.000	0.018	0.350
-249.034	-200.000	-0.081	0.377
-248.019	-71.539	0.462	0.169
-247.005	312.585	0.066	0.122
-245.990	7.858	-0.043	-0.032
-244.976	54.116	0.077	-0.072
-243.961	-152.658	0.151	0.011
-242.946	-70.321	0.258	-0.096
-241.932	120.819	-0.207	0.252
-240.917	76.181	-0.093	-0.096
-239.903	10.945	0.030	-0.022
-238.888	-103.554	0.473	-0.109
-237.873	167.465	-0.015	0.022
-236.859	521.622	-0.048	0.110
-235.844	-185.694	0.091	0.001
-234.830	800.000	0.049	0.149
-233.815	-101.817	0.203	-0.048
-232.800	64.098	0.123	-0.121
-231.786	-111.495	-0.344	-0.068
-230.771	-200.000	0.054	-0.287
-229.757	-89.474	-0.200	-0.058
-228.742	800.000	0.083	-0.275
-227.727	-200.000	-0.033	-0.252
-226.713	-123.547	0.136	0.021
-225.698	5.466	-0.176	0.127
-224.684	-165.913	0.184	0.008
-223.669	-87.418	-0.292	-0.087
-222.655	164.651	0.029	-0.040
-221.640	281.328	0.042	-0.073
-220.625	237.613	-0.159	0.258
-219.611	-194.026	0.201	-0.002
-218.596	-124.331	0.124	-0.019
-217.582	-200.000	0.003	-0.337
-216.567	800.000	0.059	0.212
-215.552	383.133	-0.131	0.264
-214.538	800.000	0.076	0.228
-213.523	376.438	0.119	0.236
-212.509	800.000	-0.088	0.287
-211.494	800.000	-0.089	0.358
-210.479	-114.395	0.418	0.079
-209.465	119.613	-0.056	-0.068
-208.450	800.000	-0.030	0.092
-207.436	256.031	-0.110	-0.184
-206.421	-200.000	0.007	-0.129
-205.406	-76.804	-0.033	0.011
-204.392	-200.000	0.002	-0.382
-203.377	92.295	-0.164	0.181
-202.363	375.812	-0.067	-0.134
-201.348	-107.684	0.194	-0.041
-200.333	341.442	0.053	0.101
-199.319	-91.385	-0.094	0.026
-198.304	83.841	-0.037	-0.039
-197.290	549.585	-0.041	0.097
-196.275	-200.000	0.015	0.113
-195.260	800.000	-0.020	0.077
-194.246	-200.000	0.017	-0.139
-193.231	-67.574	-0.074	-0.028
-192.217	89.601	0.212	-0.231
-191.202	-70.716	-0.093	0.034
-190.187	800.000	0.028	0.107
-189.173	-53.973	0.577	0.256
-188.158	-200.000	0.108	0.515
-187.144	159.464	-0.024	-0.033
-186.129	-116.825	0.453	0.081
-185.114	-48.865	-0.017	-0.008
-184.100	-200.000	-0.024	-0.169
-183.085	29.866	0.123	-0.102
-182.071	-107.924	0.297	-0.063
-181.056	141.261	-0.075	-0.097
-180.042	-120.591	-0.211	-0.035
-179.027	203.406	0.157	0.238
-178.012	-151.395	0.280	0.020
-176.998	-57.824	-0.300	-0.128
-175.983	241.964	0.084	0.137
-174.969	206.193	-0.189	0.287
-173.954	-200.000	-0.011	-0.343
-172.939	-200.000	-0.060	-0.519
-171.925	375.359	0.156	0.310
-170.910	131.020	0.042	-0.053
-169.896	-124.208	-0.164	0.025
-168.881	-98.673	0.363	0.090
-167.866	800.000	0.066	0.232
-166.852	-30.097	0.304	0.168
-165.837	-200.000	0.086	0.543
-164.823	-138.440	0.076	0.008
-163.808	-24.399	0.179	0.104
-162.793	-200.000	-0.008	-0.111
-161.779	180.599	-0.066	0.095
-160.764	193.258	0.131	0.193
-159.750	6.441	-0.175	-0.127
-158.735	-69.216	-0.224	-0.084
-157.720	68.812	-0.033	-0.033
-156.706	-200.000	-0.022	-0.275
-155.691	78.395	0.231	-0.241
-154.677	18.272	0.190	-0.148
-153.662	-34.225	-0.255	0.136
-152.647	32.315	-0.223	-0.188
-151.633	45.168	-0.095	-0.085
-150.618	-72.956	0.244	0.087
-149.604	347.453	-0.105	-0.201
-148.589	48.086	-0.270	0.246
-147.574	-97.051	-0.127	0.032
-146.560	-103.591	-0.124	-0.028
-145.545	-156.249	-0.342	-0.021
-144.531	-200.000	-0.047	0.305
-143.516	-200.000	-0.010	0.136
-142.502	-200.000	-0.026	0.205
-141.487	137.856	-0.105	-0.134
-140.472	-200.000	-0.005	0.181
-139.458	8.415	-0.145	-0.107
-138.443	-72.839	0.177	-0.064
-137.429	-94.998	0.152	0.040
-136.414	-24.326	0.556	-0.323
-135.399	33.068	0.105	-0.089
-134.385	-101.693	0.013	-0.003
-133.370	-116.212	-0.163	0.029
-132.356	800.000	-0.058	-0.183
-131.341	-93.648	-0.045	-0.012
-130.326	26.123	0.078	-0.063
-129.312	-96.562	0.288	0.074
-128.297	52.042	0.078	-0.072
-127.283	-88.178	0.253	0.074
-126.268	-31.011	-0.123	-0.068
-125.253	310.458	0.032	-0.058
-124.239	5.269	0.199	-0.143
-123.224	90.775	-0.181	-0.197
-122.210	73.156	0.233	0.237
-121.195	164.363	0.146	-0.201
-120.180	800.000	-0.023	0.082
-119.166	-200.000	0.030	0.377
-118.151	8.794	0.035	-0.026
-117.137	-200.000	0.006	0.056
-116.122	-122.890	0.131	0.020
-115.107	374.271	0.046	0.091
-114.093	11.569	0.221	0.165
-113.078	800.000	-0.026	0.088
-112.064	-67.817	-0.260	0.099
-111.049	-142.078	0.215	0.021
-110.034	134.071	0.082	0.104
-109.020	64.830	-0.139	0.137
-108.005	800.000	0.068	0.284
-106.991	800.000	-0.112	-0.443
-105.976	72.892	-0.151	0.154
-104.962	-70.778	-0.165	-0.061
-103.947	-200.000	-0.026	0.322
-102.932	-14.180	-0.134	0.084
-101.918	-200.000	-0.006	0.151
-100.903	55.187	-0.249	0.234
-99.889	-68.964	-0.118	0.044
-98.874	-53.877	0.305	-0.135
-97.859	800.000	0.070	0.224
-96.845	-124.400	0.125	0.019
-95.830	-200.000	0.005	-0.263
-94.816	-200.000	-0.024	0.267
-93.801	-192.481	-0.146	-0.001
-92.786	-119.038	0.245	0.042
-91.772	-54.373	0.187	-0.083
-90.757	204.190	-0.129	0.195
-89.743	-200.000	-0.004	-0.035
-88.728	-5.509	0.121	0.080
-87.713	-113.351	0.275	-0.053
-86.699	5.862	0.076	-0.055
-85.684	-143.324	-0.037	0.003
-84.670	-99.076	-0.109	-0.027
-83.655	122.994	0.162	-0.197
-82.640	543.319	-0.103	-0.240
-81.626	18.952	-0.141	-0.110
-80.611	-111.525	0.240	-0.047
-79.597	-86.731	0.242	0.072
-78.582	417.466	0.226	-0.469
-77.567	-67.656	0.041	-0.016
-76.553	40.527	0.210	-0.184
-75.538	2.637	0.079	-0.056
-74.524	-32.556	-0.093	-0.051
-73.509	-116.586	0.582	0.104
-72.494	-42.897	-0.190	0.094
-71.480	129.113	0.030	0.037
-70.465	79.125	0.183	-0.191
-69.451	192.935	0.138	0.202
-68.436	429.368	-0.047	0.098
-67.422	-128.157	-0.216	-0.030
-66.407	-200.000	0.003	0.239
-65.392	-85.095	0.395	0.120
-64.378	157.813	0.210	0.283
-63.363	-48.128	-0.283	0.133
-62.349	204.270	0.205	0.308
-61.334	44.053	-1.520	-1.353
-60.319	91.357	0.722	0.788
-59.305	800.000	-0.562	-1.527
-58.290	251.092	0.959	1.584
-57.276	800.000	0.561	1.884
-56.261	-200.000	137.342	640.001
-55.246	336.880	1661.290	3134.228
-54.232	134.942	2803.832	3536.794
-53.217	78.782	2308.124	2397.895
-52.203	28.472	1907.966	1566.705
-51.188	22.762	1704.351	1355.720
-50.173	21.143	1666.415	1313.321
-49.159	42.189	1741.481	1535.899
-48.144	38.686	1749.484	1515.862
-47.130	22.400	1700.801	1349.909
-46.115	20.122	1685.442	1320.328
-45.100	19.936	1679.731	1314.397
-44.086	19.868	1677.604	1312.158
-43.071	19.921	1674.979	1310.459
-42.057	19.914	1672.778	1308.632
-41.042	19.885	1671.005	1306.975
-40.027	19.905	1669.377	1305.796
-39.013	20.003	1666.984	1304.613
-37.998	19.790	1665.535	1301.825
-36.984	19.949	1664.283	1301.989
-35.969	20.086	1662.193	1301.330
-34.954	20.080	1661.145	1300.412
-33.940	20.028	1659.713	1298.849
-32.925	20.016	1657.703	1297.141
-31.911	20.005	1655.866	1295.569
-30.896	19.979	1654.363	1294.143
-29.881	20.103	1652.997	1293.948
-28.867	20.046	1651.147	1292.024
-27.852	20.108	1650.136	1291.644
-26.838	20.024	1648.877	1289.987
-25.823	20.088	1647.404	1289.259
-24.809	20.099	1646.458	1288.549
-23.794	20.079	1644.858	1287.097
-22.779	20.125	1643.220	1286.101
-21.765	20.132	1641.221	1284.543
-20.750	19.991	1640.415	1282.812
-19.736	20.072	1639.023	1282.272
-18.721	20.180	1637.184	1281.581
-17.706	20.100	1636.154	1280.133
-16.692	20.136	1634.579	1279.119
-15.677	20.019	1633.277	1277.181
-14.663	20.114	1631.756	1276.645
-13.648	20.188	1630.352	1276.036
-12.633	20.149	1628.577	1274.311
-11.619	20.113	1627.527	1273.177
-10.604	20.068	1626.143	1271.715
-9.590	20.122	1624.583	1270.837
-8.575	20.065	1623.541	1269.558
-7.560	20.131	1622.393	1269.087
-6.546	20.013	1621.732	1267.655
-5.531	20.143	1620.047	1267.241
-4.517	20.105	1618.857	1265.981
-3.502	20.140	1617.565	1265.178
-2.487	20.104	1615.895	1263.561
-1.473	19.618	1603.427	1250.247
-0.458	16.457	1583.177	1211.780
0.556	11.642	1585.340	1179.091
1.571	9.450	1609.861	1181.151
2.586	9.190	1621.622	1187.748
3.600	8.668	1566.976	1143.891
4.615	5.028	1463.248	1043.748
5.629	1.275	1408.576	980.452
6.644	0.693	1402.231	972.203
7.659	0.700	1401.280	971.506
8.673	0.541	1400.720	970.008
9.688	0.587	1398.075	968.385
10.702	0.414	1394.412	964.661
11.717	2.327	1396.241	978.081
12.731	8.069	1403.933	1020.226
13.746	14.249	1414.654	1067.673
14.761	17.041	1418.222	1088.199
15.775	16.626	1416.937	1084.463
16.790	15.600	1414.371	1075.831
17.804	14.883	1411.656	1069.090
18.819	14.459	1410.356	1065.300
19.834	14.359	1409.076	1063.602
20.848	14.053	1408.100	1060.817
21.863	13.824	1406.627	1058.158
22.877	13.629	1405.291	1055.815
23.892	13.625	1404.209	1054.884
24.907	13.567	1403.521	1053.907
25.921	13.622	1402.596	1053.463
26.936	13.673	1401.761	1053.067
27.950	13.573	1401.086	1051.836
28.965	13.655	1399.996	1051.443
29.980	13.752	1398.700	1050.994
30.994	13.809	1397.642	1050.464
32.009	13.773	1397.143	1049.771
33.023	13.783	1395.894	1048.799
34.038	13.796	1394.418	1047.682
35.053	13.711	1393.567	1046.414
36.067	13.786	1392.308	1045.848
37.082	13.749	1391.617	1045.003
38.096	13.813	1390.600	1044.549
39.111	13.650	1390.140	1043.087
40.126	13.692	1388.820	1042.265
41.140	13.682	1387.974	1041.477
42.155	13.689	1387.754	1041.263
43.169	13.530	1388.452	1040.694
44.184	13.641	1387.091	1040.278
45.199	13.643	1386.708	1039.911
46.213	13.596	1386.269	1039.197
47.228	13.639	1385.742	1038.981
48.242	13.792	1383.442	1038.122
49.257	13.771	1382.167	1036.939
50.271	13.638	1380.851	1035.034
51.286	13.663	1379.300	1033.937
52.301	13.704	1377.708	1032.905
53.315	13.688	1377.297	1032.405
54.330	13.615	1376.402	1031.191
55.344	13.570	1374.791	1029.609
56.359	13.711	1373.756	1029.623
57.374	13.618	1372.985	1028.374
58.388	13.510	1372.479	1027.237
59.403	13.553	1371.712	1026.838
60.417	13.586	1370.575	1026.097
61.432	13.515	1370.061	1025.183
62.447	13.532	1368.717	1024.195
63.461	13.443	1367.947	1022.977
64.476	13.496	1366.662	1022.251
65.490	13.566	1365.262	1021.546
66.505	13.436	1363.716	1019.497
67.520	13.512	1362.264	1018.788
68.534	13.592	1361.327	1018.491
69.549	13.628	1360.110	1017.709
70.563	13.588	1359.242	1016.724
71.578	13.481	1358.180	1015.184
72.593	13.483	1357.041	1014.257
73.607	13.375	1356.547	1013.138
74.622	13.460	1355.792	1013.002
75.636	13.386	1355.039	1011.900
76.651	13.477	1353.957	1011.555
77.666	13.503	1353.394	1011.205
78.680	13.485	1353.164	1010.836
79.695	13.462	1351.906	1009.662
80.709	13.482	1351.169	1009.147
81.724	13.623	1349.995	1009.039
82.739	13.675	1349.017	1008.533
83.753	13.624	1348.329	1007.621
84.768	13.640	1347.433	1006.958
85.782	13.765	1345.894	1006.476
86.797	13.698	1344.727	1005.109
87.812	13.616	1343.622	1003.700
88.826	13.662	1342.384	1002.965
89.841	13.662	1341.234	1002.016
90.855	13.639	1340.620	1001.330
91.870	13.740	1339.377	1000.925
92.884	13.786	1338.670	1000.582
93.899	13.791	1337.805	999.880
94.914	13.725	1336.867	998.692
95.928	13.725	1336.194	998.103
96.943	13.745	1335.045	997.276
97.957	13.765	1334.015	996.538
98.972	13.782	1333.030	995.815
99.987	13.791	1331.662	994.757
101.001	13.782	1330.981	994.108
102.016	13.716	1329.846	992.775
103.030	13.828	1329.188	992.870
104.045	13.763	1328.226	991.674
105.060	13.747	1326.805	990.429
106.074	13.680	1325.169	988.723
107.089	13.625	1324.185	987.571
108.103	13.582	1322.645	986.082
109.118	13.574	1321.250	984.902
110.133	13.628	1319.728	984.006
111.147	13.518	1318.897	982.644
112.162	13.667	1317.372	982.304
113.176	13.653	1315.898	981.036
114.191	13.745	1315.226	980.994
115.206	13.674	1313.963	979.544
116.220	13.691	1312.650	978.576
117.235	13.666	1311.734	977.661
118.249	13.692	1310.940	977.133
119.264	13.639	1309.983	976.023
120.279	13.613	1308.900	974.977
121.293	13.601	1308.036	974.177
122.308	13.699	1306.411	973.456
123.322	13.580	1305.533	972.017
124.337	13.688	1304.549	971.832
125.352	13.545	1303.376	970.034
126.366	13.660	1301.725	969.391
127.381	13.649	1300.975	968.686
128.395	13.561	1300.070	967.413
129.410	13.664	1299.076	967.189
130.424	13.732	1297.454	966.287
131.439	13.701	1296.693	965.459
132.454	13.635	1296.151	964.585
133.468	13.617	1295.090	963.603
134.483	13.740	1293.896	963.344
135.497	13.670	1293.087	962.252
136.512	13.663	1291.525	960.964
137.527	13.597	1290.867	960.005
138.541	13.734	1288.702	959.102
139.556	13.670	1288.068	958.177
140.570	13.795	1286.692	957.788
141.585	13.732	1285.598	956.528
142.600	13.782	1284.636	956.014
143.614	13.748	1283.628	954.986
144.629	13.908	1282.068	954.659
145.643	13.756	1281.410	953.212
146.658	13.898	1279.695	952.669
147.673	13.897	1278.536	951.711
148.687	13.841	1277.615	950.626
149.702	13.751	1276.228	948.992
150.716	13.864	1274.856	948.534
151.731	13.770	1273.705	947.060
152.746	13.778	1272.284	945.961
153.760	13.795	1270.937	944.976
154.775	13.842	1270.476	944.816
155.789	13.897	1268.907	943.876
156.804	13.964	1267.795	943.349
157.819	13.851	1266.840	941.913
158.833	13.975	1266.046	941.943
159.848	14.024	1265.015	941.369
160.862	13.919	1263.679	939.699
161.877	13.942	1262.549	938.903
162.892	13.939	1261.813	938.257
163.906	13.941	1260.878	937.486
164.921	13.865	1260.252	936.512
165.935	13.946	1259.533	936.352
166.950	14.050	1258.117	935.801
167.964	13.969	1257.608	934.882
168.979	14.027	1256.863	934.575
169.994	14.019	1256.294	934.023
171.008	14.110	1255.133	933.588
172.023	14.057	1254.425	932.682
173.037	14.083	1253.734	932.233
174.052	14.130	1252.783	931.706
175.067	14.093	1251.720	930.625
176.081	13.975	1250.819	929.216
177.096	14.039	1249.880	928.791
178.110	13.971	1248.767	927.500
179.125	14.023	1247.232	926.571
180.140	14.136	1245.946	926.162
181.154	14.169	1244.839	925.439
182.169	14.185	1243.734	924.627
183.183	14.249	1242.241	923.792
184.198	14.153	1241.354	922.516
185.213	14.213	1240.337	922.010
186.227	14.207	1239.556	921.314
187.242	14.323	1237.816	920.584
188.256	14.358	1236.879	919.997
189.271	14.375	1235.764	919.178
190.286	14.107	1235.241	917.230
191.300	14.096	1234.399	916.464
192.315	14.137	1233.456	915.910
193.329	14.260	1232.767	915.992
194.344	14.186	1232.200	915.082
195.359	14.307	1231.627	915.240
196.373	14.310	1231.217	914.876
197.388	14.363	1230.353	914.443
198.402	14.397	1229.490	913.905
199.417	14.433	1229.205	913.811
200.432	14.462	1228.382	913.274
201.446	14.589	1227.360	913.129
202.461	14.587	1226.331	912.276
203.475	14.566	1225.739	911.639
204.490	14.541	1224.299	910.347
205.504	14.495	1223.022	909.067
206.519	14.505	1222.317	908.522
207.534	14.541	1220.812	907.514
208.548	14.546	1220.330	907.104
209.563	14.464	1219.644	906.066
210.577	14.549	1218.124	905.322
211.592	14.730	1216.953	905.349
212.607	14.650	1216.781	904.711
213.621	14.792	1215.025	904.091
214.636	14.636	1214.853	903.039
215.650	14.587	1214.354	902.323
216.665	14.700	1213.166	901.973
217.680	14.669	1212.171	900.985
218.694	14.719	1210.865	900.206
219.709	14.664	1210.168	899.309
220.723	14.767	1209.380	899.198
221.738	14.706	1208.961	898.479
222.753	14.823	1207.934	898.267
223.767	14.777	1207.408	897.550
224.782	14.655	1206.759	896.335
225.796	14.956	1205.559	896.975
226.811	14.855	1205.097	896.012
227.826	14.827	1204.659	895.454
228.840	14.882	1203.501	894.813
229.855	14.879	1203.225	894.511
230.869	14.874	1202.090	893.563
231.884	14.861	1201.082	892.665
232.899	14.890	1200.558	892.348
233.913	14.808	1199.981	891.406
234.928	14.865	1199.451	891.235
235.942	14.814	1198.534	890.205
236.957	14.821	1197.935	889.718
237.972	14.803	1197.083	888.908
238.986	14.953	1196.088	888.888
240.001	14.908	1195.469	888.113
241.015	14.937	1194.430	887.415
242.030	14.987	1193.562	886.956
243.045	14.970	1193.064	886.415
244.059	15.022	1192.206	885.979
245.074	15.056	1191.710	885.712
246.088	15.115	1190.451	885.009
247.103	15.051	1189.960	884.227
248.117	15.078	1188.916	883.514
249.132	15.107	1188.436	883.235
250.147	15.109	1187.680	882.605
251.161	15.241	1186.551	882.383
252.176	15.273	1186.196	882.208
253.190	15.299	1185.536	881.778
254.205	15.379	1184.931	881.668
255.220	15.393	1184.003	880.972
256.234	15.363	1183.548	880.397
257.249	15.432	1182.916	880.214
258.263	15.422	1182.221	879.566
259.278	15.359	1181.527	878.640
260.293	15.458	1180.635	878.420
261.307	15.458	1180.099	877.940
262.322	15.425	1179.811	877.478
263.336	15.474	1178.979	877.037
264.351	15.445	1178.632	876.548
265.366	15.559	1177.343	876.109
266.380	15.479	1176.736	875.161
267.395	15.526	1176.472	875.134
268.409	15.558	1175.467	874.477
269.424	15.503	1175.040	873.796
270.439	15.553	1174.159	873.323
271.453	15.468	1173.432	872.262
272.468	15.538	1172.401	871.784
273.482	15.617	1171.629	871.539
274.497	15.594	1171.147	870.984
275.512	15.573	1170.533	870.342
276.526	15.642	1169.425	869.799
277.541	15.574	1169.045	869.085
278.555	15.637	1168.398	868.857
279.570	15.774	1167.059	868.490
280.585	15.691	1166.886	867.856
281.599	15.726	1165.519	866.942
282.614	15.783	1164.647	866.511
283.628	15.777	1163.271	865.380
284.643	15.746	1162.668	864.696
285.657	15.803	1161.770	864.245
286.672	15.835	1160.853	863.651
287.687	15.857	1159.932	863.001
288.701	15.808	1159.174	862.108
289.716	15.813	1158.229	861.355
290.730	15.782	1157.673	860.707
291.745	15.792	1156.930	860.132
292.760	15.837	1156.366	859.864
293.774	16.011	1155.477	860.017
294.789	15.895	1155.119	859.080
295.803	15.973	1154.066	858.621
296.818	15.983	1153.593	858.244
297.833	16.011	1152.532	857.520
298.847	15.982	1152.105	856.978
299.862	15.968	1150.917	855.947
300.876	15.982	1150.660	855.753
301.891	16.034	1149.741	855.258
302.906	16.006	1149.285	854.702
303.920	16.073	1148.710	854.534
304.935	16.215	1147.762	854.474
305.949	16.229	1147.035	853.927
306.964	16.200	1146.477	853.293
307.979	16.095	1145.757	852.150
308.993	16.065	1145.116	851.444
310.008	16.215	1143.934	851.249
311.022	16.188	1143.307	850.569
312.037	16.078	1143.010	849.717
313.052	16.125	1141.650	848.870
314.066	16.099	1140.944	848.141
315.081	16.185	1139.626	847.518
316.095	16.137	1139.225	846.902
317.110	16.192	1138.403	846.493
318.125	16.278	1137.521	846.190
319.139	16.150	1136.888	845.007
320.154	16.252	1136.157	844.898
321.168	16.192	1135.861	844.302
322.183	16.229	1135.287	843.988
323.197	16.341	1134.285	843.725
324.212	16.407	1133.701	843.544
325.227	16.245	1133.692	842.656
326.241	16.351	1132.512	842.231
327.256	16.320	1131.717	841.411
328.270	16.430	1130.562	841.027
329.285	16.252	1129.486	839.269
330.300	16.375	1128.858	839.339
331.314	16.356	1127.854	838.425
332.329	16.384	1126.710	837.638
333.343	16.317	1126.065	836.751
334.358	16.444	1125.312	836.749
335.373	16.408	1125.052	836.301
336.387	16.420	1124.083	835.566
337.402	16.386	1122.958	834.488
338.416	16.612	1122.026	834.839
339.431	16.505	1121.908	834.148
340.446	16.512	1121.436	833.755
341.460	16.637	1120.231	833.404
342.475	16.541	1119.524	832.332
343.489	16.651	1118.556	832.079
344.504	16.822	1117.188	831.829
345.519	16.712	1116.523	830.720
346.533	16.646	1116.256	830.121
347.548	16.836	1115.333	830.293
348.562	16.846	1113.970	829.253
349.577	16.570	1113.721	827.643
350.592	16.762	1112.502	827.603
351.606	16.671	1112.480	827.070
352.621	16.686	1111.957	826.684
353.635	16.685	1110.967	825.870
354.650	16.718	1110.175	825.366
355.665	16.717	1109.271	824.615
356.679	16.742	1108.864	824.365
357.694	16.796	1108.142	824.015
358.708	16.875	1107.182	823.611
359.723	17.015	1106.326	823.583
360.738	16.878	1106.525	822.994
361.752	16.790	1105.893	822.024
362.767	16.940	1104.925	821.957
363.781	16.955	1104.770	821.845
364.796	16.993	1104.188	821.523
365.810	17.012	1103.136	820.760
366.825	16.968	1102.484	819.986
367.840	17.125	1101.958	820.284
368.854	17.040	1101.756	819.649
369.869	17.045	1100.855	818.928
370.883	16.982	1099.668	817.671
371.898	17.003	1099.253	817.391
372.913	17.110	1098.262	817.095
373.927	16.962	1098.060	816.161
374.942	17.190	1097.282	816.606
375.956	17.145	1096.950	816.074
376.971	17.135	1096.139	815.347
377.986	17.253	1095.630	815.464
379.000	17.370	1094.536	815.136
380.015	17.308	1094.405	814.670
381.029	17.375	1093.994	814.612
382.044	17.334	1092.765	813.432
383.059	17.343	1092.129	812.931
384.073	17.239	1091.794	812.111
385.088	17.418	1090.314	811.793
386.102	17.370	1089.624	810.978
387.117	17.336	1088.675	810.039
388.132	17.321	1087.655	809.137
389.146	17.291	1087.094	808.502
390.161	17.283	1086.227	807.752
391.175	17.503	1084.973	807.790
392.190	17.449	1084.460	807.078
393.205	17.410	1084.264	806.680
394.219	17.374	1083.288	805.711
395.234	17.425	1082.165	805.045
396.248	17.473	1081.255	804.522
397.263	17.401	1080.053	803.216
398.278	17.470	1079.844	803.316
399.292	17.330	1079.389	802.247
400.307	17.447	1078.347	801.951
401.321	17.438	1077.737	801.387
402.336	17.511	1076.817	800.976
403.350	17.373	1076.640	800.123
404.365	17.518	1075.564	799.932
405.380	17.526	1074.815	799.343
406.394	17.534	1073.994	798.702
407.409	17.675	1072.898	798.474
408.423	17.706	1072.507	798.259
409.438	17.666	1071.605	797.329
410.453	17.731	1070.587	796.806
411.467	17.651	1070.339	796.174
412.482	17.654	1069.855	795.758
413.496	17.788	1069.105	795.754
414.511	17.818	1068.267	795.202
415.526	17.817	1068.133	795.029
416.540	17.861	1067.554	794.730
417.555	17.781	1067.421	794.190
418.569	17.832	1066.419	793.608
419.584	17.887	1065.908	793.417
420.599	17.852	1065.370	792.782
421.613	109.387	1333.321	1491.952
422.628	101.111	1372.283	1491.993
