DTS Sentinel unit serial number:	SN413079Multiplexer serial number:	ORYXHardware model number:	OX4-SRSoftware version number:	ORYX F/W v4.00 Oryx Data Collector v3.7.2.0data status	okinstallation	princeton_trtdifferential loss correction	single-endedforward channel	channel 2reverse channel	N/Adate	2019/09/11time	06:41:11forward acquisition time	60.00reverse acquisition time	0.00gamma	496.2192k internal	0.2328k external	0.2328temperature offset calibration	0.9935default loss term (dB/km)	0.3790temperature slope calibration	1.0000multiplexer offset coefficient	1.0000multiplexer slope coefficient	1.0000fibre end	0.00T internal ref (°C)	29.75T ext. ref 1 (°C)	-0.17T ext. ref 2 (°C)	24.68length (m)	temperature (°C)	Stokes	anti-Stokes-747.200	-134.586	0.137	-0.017
-746.185	92.172	-0.071	-0.080
-745.171	-65.538	-0.309	0.125
-744.156	136.529	0.018	-0.024
-743.142	43.875	-0.033	-0.030
-742.127	-71.988	-0.228	0.085
-741.112	-74.906	0.178	-0.064
-740.098	800.000	-0.063	0.237
-739.083	-158.168	-0.160	-0.009
-738.069	122.356	-0.054	0.067
-737.054	800.000	-0.128	0.372
-736.039	-60.964	-0.250	-0.107
-735.025	46.397	0.057	0.053
-734.010	30.796	-0.145	-0.125
-732.996	276.360	-0.246	-0.440
-731.981	-200.000	0.001	0.009
-730.966	420.917	-0.121	0.261
-729.952	-200.000	0.015	0.072
-728.937	679.786	-0.057	0.149
-727.923	81.323	-0.088	-0.096
-726.908	19.474	-0.113	-0.091
-725.894	-200.000	-0.046	-0.294
-724.879	-179.572	-0.416	-0.009
-723.864	800.000	0.077	0.265
-722.850	-45.187	-0.172	0.086
-721.835	-65.600	-0.511	-0.206
-720.821	142.372	-0.080	0.107
-719.806	-98.345	-0.144	0.037
-718.791	-28.853	-0.462	0.268
-717.777	-153.349	0.152	0.011
-716.762	111.508	0.042	0.051
-715.748	263.640	-0.196	0.344
-714.733	-8.133	0.180	0.122
-713.718	99.982	0.111	-0.130
-712.704	-77.729	0.423	-0.147
-711.689	426.163	-0.141	-0.306
-710.675	-57.420	-0.123	-0.055
-709.660	-77.525	0.320	-0.112
-708.645	-107.547	-0.293	-0.064
-707.631	-200.000	-0.008	-0.295
-706.616	-16.739	0.181	0.115
-705.602	279.681	0.220	0.396
-704.587	242.927	-0.111	-0.187
-703.572	437.413	0.059	0.129
-702.558	-200.000	0.046	-0.245
-701.543	0.317	0.238	-0.171
-700.529	800.000	-0.055	-0.164
-699.514	-114.266	0.157	-0.031
-698.499	-200.000	0.017	-0.312
-697.485	800.000	-0.063	-0.248
-696.470	20.448	-0.273	0.222
-695.456	48.382	0.277	0.261
-694.441	81.410	0.190	-0.207
-693.426	-188.480	0.166	-0.002
-692.412	-100.872	0.342	-0.084
-691.397	23.302	-0.038	-0.031
-690.383	174.332	-0.037	0.054
-689.368	-200.000	-0.026	-0.295
-688.354	-39.096	-0.087	0.046
-687.339	202.902	-0.110	-0.171
-686.324	-96.595	-0.196	-0.052
-685.310	268.209	0.057	0.100
-684.295	250.239	-0.064	0.110
-683.281	313.287	-0.183	-0.347
-682.266	39.194	-0.146	-0.131
-681.251	-67.175	0.130	0.052
-680.237	-200.000	0.023	-0.366
-679.222	800.000	-0.013	-0.051
-678.208	-200.000	-0.014	-0.083
-677.193	3.130	-0.339	0.248
-676.178	-200.000	-0.085	-0.396
-675.164	-89.686	0.197	-0.058
-674.149	-86.899	-0.438	-0.134
-673.135	-166.739	0.286	-0.012
-672.120	-153.565	-0.098	-0.007
-671.105	-59.175	-0.217	-0.094
-670.091	-107.386	-0.255	-0.056
-669.076	-30.067	0.206	-0.118
-668.062	-200.000	0.007	-0.043
-667.047	548.658	0.057	0.137
-666.032	84.832	0.252	-0.277
-665.018	420.488	-0.122	0.262
-664.003	305.374	0.157	0.293
-662.989	78.103	-0.212	-0.227
-661.974	582.846	-0.131	-0.322
-660.959	800.000	-0.068	0.238
-659.945	-113.000	0.101	0.020
-658.930	-200.000	-0.001	-0.095
-657.916	-104.376	0.261	0.061
-656.901	-52.584	-0.089	-0.041
-655.886	-40.260	0.151	-0.079
-654.872	-44.950	0.401	0.200
-653.857	-157.973	0.334	0.020
-652.843	618.642	-0.106	-0.267
-651.828	-59.916	0.436	-0.187
-650.814	-200.000	-0.008	0.042
-649.799	-14.319	-0.216	-0.140
-648.784	-163.006	-0.156	-0.008
-647.770	-15.862	-0.373	-0.239
-646.755	800.000	0.044	-0.172
-645.741	-113.095	-0.064	0.013
-644.726	29.842	0.185	0.158
-643.711	800.000	0.032	-0.112
-642.697	8.051	-0.145	0.109
-641.682	297.814	0.062	-0.114
-640.668	-26.167	-0.167	0.099
-639.653	-200.000	0.009	-0.089
-638.638	-131.693	-0.303	0.040
-637.624	35.319	-0.021	-0.018
-636.609	-169.765	-0.275	-0.010
-635.595	234.249	0.049	-0.082
-634.580	487.733	-0.053	0.121
-633.565	-116.102	-0.197	0.037
-632.551	388.139	-0.047	-0.098
-631.536	-167.938	-0.393	0.015
-630.522	-200.000	-0.017	0.311
-629.507	247.338	0.055	0.093
-628.492	53.493	-0.222	-0.214
-627.478	-200.000	0.001	-0.212
-626.463	-3.591	0.198	-0.138
-625.449	-200.000	-0.021	-0.110
-624.434	25.549	-0.290	-0.242
-623.419	800.000	0.066	0.216
-622.405	241.295	0.171	-0.286
-621.390	-200.000	0.053	-0.354
-620.376	-25.656	-0.324	0.192
-619.361	73.975	-0.110	0.116
-618.346	101.678	0.129	-0.151
-617.332	535.442	-0.171	0.406
-616.317	-200.000	-0.028	0.296
-615.303	-200.000	0.047	0.435
-614.288	-60.834	-0.114	0.048
-613.273	-140.858	0.130	-0.013
-612.259	800.000	-0.033	0.122
-611.244	-179.750	0.114	-0.002
-610.230	-21.933	-0.270	-0.165
-609.215	-28.708	-0.275	0.158
-608.201	193.331	0.374	-0.568
-607.186	9.061	-0.068	-0.051
-606.171	-25.575	-0.217	0.128
-605.157	-53.011	0.118	0.054
-604.142	-200.000	0.033	-0.270
-603.128	-54.743	0.177	0.080
-602.113	-9.926	-0.300	0.200
-601.098	566.822	0.074	0.180
-600.084	-33.013	-0.211	-0.117
-599.069	698.683	0.030	-0.079
-598.055	-132.333	-0.246	0.032
-597.040	800.000	-0.055	0.238
-596.025	163.556	-0.180	-0.254
-595.011	45.372	0.094	-0.087
-593.996	800.000	-0.066	0.201
-592.982	199.289	0.014	0.021
-591.967	-0.950	-0.070	0.050
-590.952	-112.706	0.323	0.064
-589.938	156.329	-0.045	0.062
-588.923	-200.000	0.005	-0.327
-587.909	75.395	-0.087	0.092
-586.894	800.000	0.063	-0.215
-585.879	-68.052	-0.312	0.122
-584.865	-102.846	-0.144	-0.034
-583.850	-44.642	0.308	0.154
-582.836	-200.000	0.023	-0.232
-581.821	47.525	-0.138	0.128
-580.806	39.073	-0.139	0.125
-579.792	-1.885	-0.062	0.044
-578.777	-179.801	-0.170	-0.004
-577.763	-153.834	0.234	-0.016
-576.748	-97.728	-0.088	-0.023
-575.733	261.279	0.147	0.254
-574.719	12.777	0.100	0.077
-573.704	274.162	-0.049	0.086
-572.690	-200.000	-0.030	-0.247
-571.675	-8.877	-0.133	-0.089
-570.661	177.615	-0.066	-0.096
-569.646	225.463	0.172	-0.278
-568.631	133.738	0.022	0.028
-567.617	-35.676	-0.430	0.233
-566.602	84.963	-0.006	-0.007
-565.588	560.800	-0.025	-0.061
-564.573	-113.886	0.117	0.023
-563.558	785.857	0.045	0.123
-562.544	775.567	0.058	-0.159
-561.529	-124.696	0.090	-0.014
-560.515	800.000	0.008	-0.024
-559.500	-98.523	-0.243	-0.062
-558.485	-17.681	-0.221	-0.139
-557.471	553.932	0.057	0.138
-556.456	-14.639	-0.168	0.108
-555.442	-200.000	0.048	-0.369
-554.427	37.831	0.257	-0.229
-553.412	262.970	0.037	0.064
-552.398	10.876	-0.053	-0.040
-551.383	-161.237	0.128	0.007
-550.369	-150.213	-0.177	0.014
-549.354	119.245	-0.206	-0.256
-548.339	-152.597	-0.259	-0.018
-547.325	-88.609	-0.298	0.089
-546.310	176.207	0.101	-0.147
-545.296	-66.361	0.437	-0.174
-544.281	-200.000	0.014	-0.110
-543.266	426.682	-0.080	0.172
-542.252	-15.022	-0.175	0.112
-541.237	175.435	-0.044	0.064
-540.223	46.207	0.136	-0.126
-539.208	-59.061	-0.226	-0.098
-538.193	88.691	-0.051	-0.056
-537.179	-15.448	-0.275	0.176
-536.164	-200.000	-0.036	0.528
-535.150	369.597	-0.119	-0.241
-534.135	22.867	0.219	-0.179
-533.121	-200.000	0.002	0.134
-532.106	-87.608	-0.352	-0.106
-531.091	-200.000	-0.017	0.289
-530.077	115.781	-0.202	-0.247
-529.062	-79.274	0.316	-0.107
-528.048	-102.418	0.203	0.049
-527.033	-200.000	0.035	0.538
-526.018	-200.000	-0.034	-0.187
-525.004	-108.911	0.426	-0.091
-523.989	-200.000	-0.028	-0.169
-522.975	-200.000	0.010	0.051
-521.960	800.000	-0.126	0.447
-520.945	-73.564	-0.179	0.065
-519.931	-52.594	-0.187	-0.086
-518.916	-101.603	-0.184	0.045
-517.902	-149.667	-0.097	-0.008
-516.887	3.710	-0.286	-0.209
-515.872	-200.000	0.013	-0.212
-514.858	419.835	0.031	-0.066
-513.843	-77.826	0.104	0.036
-512.829	318.795	-0.248	-0.470
-511.814	-34.864	0.165	0.090
-510.799	179.991	-0.179	0.262
-509.785	-115.916	-0.186	0.035
-508.770	-58.058	0.191	0.083
-507.756	-47.376	-0.194	0.094
-506.741	-72.952	-0.228	0.083
-505.726	648.342	-0.096	0.246
-504.712	316.575	0.118	-0.222
-503.697	139.139	0.235	-0.308
-502.683	-15.625	0.145	-0.093
-501.668	-82.444	0.089	-0.029
-500.653	-145.676	0.078	0.007
-499.639	326.565	-0.038	-0.073
-498.624	156.591	-0.169	0.233
-497.610	-154.928	-0.333	-0.022
-496.595	800.000	-0.054	0.202
-495.581	-2.681	0.100	0.070
-494.566	-200.000	0.004	0.109
-493.551	272.997	-0.105	-0.185
-492.537	-73.887	0.011	0.004
-491.522	733.621	0.055	-0.148
-490.508	-48.582	0.054	-0.026
-489.493	309.329	-0.088	0.164
-488.478	14.839	-0.112	-0.087
-487.464	-50.303	-0.107	0.051
-486.449	336.638	-0.078	0.151
-485.435	-31.864	0.329	-0.184
-484.420	251.709	-0.100	-0.170
-483.405	800.000	-0.066	-0.232
-482.391	-55.961	-0.189	0.084
-481.376	303.685	-0.140	0.258
-480.362	-200.000	0.081	-0.554
-479.347	125.878	-0.167	-0.210
-478.332	-54.312	-0.282	-0.128
-477.318	279.367	0.219	0.390
-476.303	355.848	0.127	-0.252
-475.289	120.026	0.170	0.210
-474.274	7.413	-0.191	-0.142
-473.259	-86.450	0.160	0.049
-472.245	169.290	0.200	0.284
-471.230	-34.201	-0.046	-0.025
-470.216	-200.000	-0.002	-0.131
-469.201	-104.791	0.267	0.061
-468.186	800.000	0.015	-0.065
-467.172	0.197	-0.107	0.076
-466.157	-92.038	0.150	0.042
-465.143	29.197	-0.175	-0.148
-464.128	-200.000	-0.092	-0.582
-463.113	-200.000	0.038	-0.318
-462.099	-39.467	-0.164	-0.086
-461.084	-3.111	0.130	-0.090
-460.070	-32.775	-0.274	0.152
-459.055	358.115	-0.087	0.174
-458.040	-200.000	0.008	0.190
-457.026	-200.000	0.047	-0.281
-456.011	-73.865	-0.082	0.030
-454.997	-94.706	-0.378	-0.102
-453.982	64.399	0.394	-0.396
-452.968	-200.000	0.060	-0.287
-451.953	47.196	0.059	-0.054
-450.938	252.119	-0.179	0.304
-449.924	13.006	0.155	-0.120
-448.909	-161.868	-0.099	-0.005
-447.895	800.000	-0.046	0.135
-446.880	-86.360	-0.126	0.039
-445.865	33.154	-0.215	0.186
-444.851	-44.445	-0.302	0.150
-443.836	75.015	-0.083	0.087
-442.822	37.094	-0.220	0.194
-441.807	189.336	0.121	0.181
-440.792	12.218	-0.073	0.056
-439.778	139.461	0.075	0.098
-438.763	540.821	0.040	-0.095
-437.749	16.512	-0.396	-0.312
-436.734	457.333	0.070	0.154
-435.719	211.903	0.164	0.257
-434.705	641.569	0.069	0.175
-433.690	-27.847	0.105	0.061
-432.676	-2.973	0.245	-0.170
-431.661	-57.789	0.079	-0.034
-430.646	-91.369	-0.160	-0.045
-429.632	-200.000	-0.023	0.217
-428.617	410.941	-0.121	0.255
-427.603	106.359	0.150	0.177
-426.588	144.986	0.203	-0.270
-425.573	-58.027	0.194	-0.084
-424.559	-200.000	0.040	-0.210
-423.544	-20.385	0.410	-0.251
-422.530	726.465	0.123	-0.326
-421.515	481.285	-0.135	-0.306
-420.500	-200.000	0.032	-0.158
-419.486	-200.000	0.072	-0.340
-418.471	-165.859	0.245	-0.010
-417.457	-65.656	-0.266	-0.106
-416.442	800.000	0.086	-0.292
-415.428	204.473	-0.075	-0.115
-414.413	-14.262	0.388	-0.249
-413.398	481.807	-0.138	0.312
-412.384	160.197	-0.080	0.111
-411.369	-200.000	0.025	0.332
-410.355	332.958	-0.090	0.172
-409.340	800.000	-0.089	-0.316
-408.325	112.710	-0.062	-0.074
-407.311	-187.693	0.498	-0.007
-406.296	-200.000	0.038	-0.170
-405.282	-73.223	0.248	0.090
-404.267	16.829	-0.163	0.128
-403.252	-66.543	-0.125	-0.049
-402.238	157.885	-0.105	0.145
-401.223	-91.003	0.691	0.197
-400.209	178.516	0.090	-0.131
-399.194	-108.706	-0.143	0.031
-398.179	-27.761	-0.391	0.226
-397.165	190.040	-0.196	-0.293
-396.150	-200.000	-0.013	0.109
-395.136	18.290	-0.163	0.130
-394.121	131.521	0.181	0.232
-393.106	-62.313	0.337	-0.140
-392.092	261.058	-0.061	-0.106
-391.077	0.666	0.275	0.195
-390.063	-28.859	-0.152	-0.087
-389.048	-119.783	-0.057	-0.010
-388.033	-98.125	0.422	0.108
-387.019	-90.392	0.164	-0.047
-386.004	70.397	-0.104	-0.106
-384.990	-200.000	-0.008	-0.127
-383.975	23.235	0.132	0.107
-382.960	-104.649	0.271	0.062
-381.946	-43.799	-0.363	-0.182
-380.931	363.058	0.085	-0.169
-379.917	-134.535	0.102	-0.012
-378.902	16.206	-0.204	-0.160
-377.888	-83.688	0.182	-0.058
-376.873	-7.301	0.298	-0.200
-375.858	-53.517	-0.243	0.111
-374.844	195.130	0.044	-0.066
-373.829	-75.001	-0.322	0.115
-372.815	-70.762	-0.186	-0.070
-371.800	-58.417	-0.521	-0.225
-370.785	75.408	0.284	0.298
-369.771	800.000	0.093	-0.316
-368.756	334.304	0.039	-0.075
-367.742	-157.692	-0.194	0.011
-366.727	800.000	-0.077	-0.274
-365.712	800.000	0.066	0.255
-364.698	134.798	-0.072	-0.093
-363.683	118.131	0.208	-0.255
-362.669	-74.603	-0.237	0.085
-361.654	59.782	-0.032	0.031
-360.639	-113.943	0.157	-0.030
-359.625	-56.658	-0.272	-0.119
-358.610	70.459	0.215	-0.221
-357.596	-84.898	0.316	0.099
-356.581	-191.961	-0.400	-0.004
-355.566	-200.000	-0.024	0.145
-354.552	-142.368	-0.355	-0.035
-353.537	412.284	-0.083	0.176
-352.523	176.306	-0.052	-0.075
-351.508	-200.000	-0.002	-0.052
-350.493	-14.143	-0.302	0.194
-349.479	46.940	0.057	-0.053
-348.464	110.929	-0.073	0.087
-347.450	-16.293	-0.099	0.062
-346.435	-80.633	0.353	0.117
-345.420	-200.000	0.017	0.099
-344.406	-118.043	0.082	-0.015
-343.391	690.666	-0.072	0.187
-342.377	-100.588	-0.290	-0.071
-341.362	-79.854	0.233	0.078
-340.348	-31.287	0.230	-0.129
-339.333	-77.526	0.290	0.100
-338.318	-200.000	-0.028	0.349
-337.304	-47.460	-0.217	0.105
-336.289	800.000	0.030	-0.104
-335.275	-200.000	0.020	-0.152
-334.260	-15.050	0.150	-0.095
-333.245	63.687	0.190	0.189
-332.231	82.488	0.180	0.194
-331.216	525.459	0.102	0.239
-330.202	-200.000	-0.012	-0.054
-329.187	-116.925	-0.081	0.015
-328.172	-200.000	-0.005	-0.132
-327.158	-200.000	0.013	0.081
-326.143	800.000	-0.137	0.388
-325.129	106.028	0.081	0.095
-324.114	800.000	-0.091	0.366
-323.099	-90.454	-0.047	-0.013
-322.085	-31.620	-0.149	-0.083
-321.070	10.149	0.250	-0.188
-320.056	-159.461	0.242	0.013
-319.041	65.110	0.027	-0.027
-318.026	430.442	-0.062	0.134
-317.012	558.537	0.006	0.015
-315.997	117.605	0.258	0.315
-314.983	44.854	0.312	-0.285
-313.968	54.760	0.060	0.057
-312.953	107.572	0.145	0.171
-311.939	-151.249	-0.120	0.009
-310.924	210.227	0.056	0.086
-309.910	29.314	0.286	0.241
-308.895	-113.003	0.266	-0.052
-307.880	83.756	0.215	-0.232
-306.866	-78.749	0.275	0.093
-305.851	-85.839	0.509	-0.156
-304.837	-139.004	-0.473	0.051
-303.822	-187.177	0.066	-0.001
-302.807	-140.016	-0.266	0.028
-301.793	3.986	-0.064	0.046
-300.778	152.624	0.058	0.079
-299.764	-200.000	0.042	-0.187
-298.749	-118.565	0.241	-0.042
-297.735	800.000	-0.047	-0.144
-296.720	44.891	0.174	-0.159
-295.705	512.648	-0.035	-0.082
-294.691	147.226	0.147	0.196
-293.676	-14.894	-0.146	-0.093
-292.662	-9.183	0.185	0.122
-291.647	-4.026	-0.213	-0.147
-290.632	-200.000	-0.005	-0.089
-289.618	-126.148	0.279	-0.041
-288.603	69.276	0.184	0.187
-287.589	-107.811	0.091	-0.020
-286.574	-93.081	-0.097	-0.027
-285.559	137.679	0.180	0.233
-284.545	561.828	-0.030	0.073
-283.530	-185.342	-0.438	0.007
-282.516	-145.395	0.512	-0.046
-281.501	800.000	0.049	-0.210
-280.486	25.354	0.201	-0.166
-279.472	214.461	-0.160	0.251
-278.457	240.942	0.232	-0.383
-277.443	324.174	0.069	0.130
-276.428	419.933	0.124	0.263
-275.413	-78.784	0.250	0.084
-274.399	-200.000	-0.022	0.151
-273.384	3.530	0.196	0.141
-272.370	-121.524	-0.199	0.033
-271.355	-200.000	0.064	0.464
-270.340	-80.538	0.211	0.070
-269.326	800.000	-0.066	-0.232
-268.311	117.372	0.155	0.188
-267.297	-185.110	0.154	-0.002
-266.282	796.191	-0.098	-0.267
-265.267	-32.941	0.312	0.171
-264.253	85.367	-0.022	0.024
-263.238	-1.642	0.116	-0.081
-262.224	-67.066	0.437	0.170
-261.209	-114.789	0.359	-0.068
-260.195	-136.344	-0.158	-0.018
-259.180	114.318	-0.132	0.159
-258.165	-105.483	0.035	0.008
-257.151	-31.148	0.074	-0.041
-256.136	487.112	-0.093	0.209
-255.122	-89.762	-0.115	-0.033
-254.107	-113.594	-0.088	0.017
-253.092	-120.194	0.393	-0.066
-252.078	-106.743	-0.310	-0.068
-251.063	140.080	-0.082	0.107
-250.049	323.518	-0.204	0.384
-249.034	800.000	0.072	-0.231
-248.019	165.918	0.119	-0.166
-247.005	57.360	0.428	-0.413
-245.990	-200.000	0.025	-0.109
-244.976	-76.579	-0.147	0.051
-243.961	692.327	-0.100	0.258
-242.946	510.765	-0.090	0.206
-241.932	-200.000	0.032	-0.323
-240.917	-200.000	-0.011	-0.310
-239.903	-153.134	0.371	0.026
-238.888	76.918	0.079	0.083
-237.873	-200.000	-0.011	0.068
-236.859	201.510	0.148	-0.226
-235.844	800.000	0.038	-0.135
-234.830	245.528	-0.149	0.247
-233.815	-111.309	0.123	0.025
-232.800	800.000	-0.029	0.127
-231.786	-99.059	-0.324	0.081
-230.771	-175.402	0.291	-0.008
-229.757	-200.000	-0.002	-0.211
-228.742	380.200	0.140	-0.283
-227.727	66.607	0.063	0.063
-226.713	-28.949	-0.168	-0.096
-225.698	-200.000	-0.017	-0.107
-224.684	766.594	0.117	0.314
-223.669	-200.000	0.124	-0.544
-222.655	800.000	-0.033	0.144
-221.640	-134.844	-0.126	-0.015
-220.625	-7.432	0.256	-0.171
-219.611	-55.398	-0.196	-0.087
-218.596	-170.098	0.237	-0.008
-217.582	128.200	0.254	0.319
-216.567	287.204	0.109	0.194
-215.552	710.527	-0.140	-0.365
-214.538	362.202	-0.114	-0.226
-213.523	-121.832	-0.304	0.050
-212.509	180.800	-0.155	-0.225
-211.494	-92.347	-0.205	-0.057
-210.479	-138.716	-0.074	0.008
-209.465	2.050	0.027	-0.019
-208.450	159.645	-0.052	-0.071
-207.436	450.846	0.066	0.144
-206.421	800.000	0.049	0.144
-205.406	-47.207	0.260	0.125
-204.392	295.149	0.087	-0.158
-203.377	-120.946	-0.266	0.044
-202.363	298.467	0.260	-0.471
-201.348	30.971	0.284	-0.240
-200.333	403.925	-0.186	0.387
-199.319	30.814	-0.091	0.077
-198.304	-88.015	-0.346	0.103
-197.290	-190.380	0.390	0.004
-196.275	-43.675	0.185	0.092
-195.260	800.000	0.006	-0.022
-194.246	-42.546	-0.107	-0.054
-193.231	800.000	-0.117	-0.346
-192.217	229.006	0.113	-0.182
-191.202	-200.000	0.026	-0.380
-190.187	212.844	-0.210	0.327
-189.173	-200.000	0.011	0.081
-188.158	-200.000	-0.005	-0.323
-187.144	-88.920	-0.061	0.018
-186.129	-42.267	-0.272	0.137
-185.114	800.000	0.143	0.537
-184.100	237.386	0.096	0.157
-183.085	-111.061	-0.152	-0.031
-182.071	200.672	0.051	0.077
-181.056	64.004	-0.034	-0.034
-180.042	128.371	0.088	0.110
-179.027	-77.547	-0.531	-0.181
-178.012	-200.000	0.015	-0.145
-176.998	-119.376	-0.107	-0.018
-175.983	44.483	0.212	0.192
-174.969	-142.278	-0.204	0.020
-173.954	-200.000	0.025	0.155
-172.939	21.504	0.241	0.193
-171.925	37.855	0.329	0.288
-170.910	50.470	0.190	0.177
-169.896	-34.438	0.115	0.062
-168.881	10.773	0.344	0.259
-167.866	-76.081	-0.227	-0.079
-166.852	170.722	0.249	0.351
-165.837	-118.539	-0.263	0.046
-164.823	36.633	0.158	0.137
-163.808	389.262	0.086	-0.175
-162.793	47.342	-0.403	0.370
-161.779	-200.000	0.032	0.223
-160.764	-150.445	0.263	0.020
-159.750	800.000	-0.054	0.148
-158.735	-80.294	-0.344	0.113
-157.720	786.829	0.050	0.136
-156.706	-7.163	0.277	0.185
-155.691	74.718	-0.312	0.323
-154.677	79.981	0.078	0.083
-153.662	113.018	-0.101	-0.121
-152.647	-140.621	0.232	-0.024
-151.633	6.144	-0.169	-0.124
-150.618	56.562	-0.051	0.048
-149.604	-147.931	-0.213	0.017
-148.589	-200.000	0.046	-0.223
-147.574	284.156	0.022	0.038
-146.560	222.947	0.106	-0.169
-145.545	194.201	-0.075	0.111
-144.531	-146.535	-0.155	0.013
-143.516	35.663	0.070	0.061
-142.502	571.431	0.128	0.306
-141.487	-200.000	-0.025	-0.461
-140.472	-102.430	-0.169	-0.040
-139.458	-200.000	-0.028	-0.372
-138.443	-96.798	0.442	-0.114
-137.429	440.340	-0.157	0.338
-136.414	-70.696	0.095	0.035
-135.399	10.560	-0.332	0.249
-134.385	800.000	-0.077	0.296
-133.370	406.006	0.160	-0.332
-132.356	-85.019	0.114	-0.035
-131.341	-139.035	-0.191	-0.020
-130.326	85.287	0.065	0.070
-129.312	-15.886	0.300	0.188
-128.297	800.000	-0.097	0.360
-127.283	-9.896	-0.187	0.122
-126.268	13.724	0.071	-0.054
-125.253	373.198	-0.104	0.209
-124.239	97.541	-0.088	-0.099
-123.224	-120.905	0.335	0.055
-122.210	-200.000	-0.006	-0.119
-121.195	-58.943	0.118	-0.050
-120.180	276.063	0.079	0.137
-119.166	-0.890	0.142	0.099
-118.151	-200.000	0.034	0.563
-117.137	-164.557	0.043	-0.002
-116.122	-7.773	0.338	-0.224
-115.107	367.890	0.084	0.166
-114.093	89.044	-0.078	-0.086
-113.078	613.005	0.081	0.199
-112.064	525.727	-0.104	-0.240
-111.049	-30.591	0.308	0.171
-110.034	63.848	0.283	-0.279
-109.020	-190.645	-0.029	-0.000
-108.005	-200.000	-0.111	-0.505
-106.991	9.268	0.194	0.144
-105.976	800.000	-0.112	-0.353
-104.962	-156.067	-0.384	0.024
-103.947	-187.894	0.368	-0.005
-102.932	86.801	-0.149	-0.162
-101.918	-200.000	-0.011	-0.341
-100.903	87.192	0.256	-0.278
-99.889	-62.262	-0.273	-0.112
-98.874	200.307	-0.181	0.273
-97.859	-53.037	0.334	0.151
-96.845	-84.577	0.379	-0.117
-95.830	-189.519	0.555	-0.006
-94.816	-95.110	0.252	0.067
-93.801	-200.000	-0.009	0.190
-92.786	800.000	0.048	-0.134
-91.772	32.160	0.156	-0.132
-90.757	52.756	0.226	0.212
-89.743	294.840	-0.079	-0.142
-88.728	-65.725	-0.077	0.030
-87.713	-130.607	-0.057	-0.008
-86.699	-128.110	-0.457	-0.064
-85.684	-128.696	-0.131	-0.018
-84.670	-200.000	0.021	0.245
-83.655	-146.299	0.285	0.025
-82.640	448.066	-0.046	-0.099
-81.626	131.812	-0.176	0.223
-80.611	-89.018	0.212	0.062
-79.597	481.046	0.116	0.258
-78.582	-100.529	0.298	-0.072
-77.567	459.303	0.061	0.134
-76.553	-69.041	0.134	-0.051
-75.538	-141.182	-0.204	-0.020
-74.524	112.040	0.104	-0.123
-73.509	-57.231	0.236	0.102
-72.494	-161.203	0.337	-0.017
-71.480	-57.113	-0.094	-0.041
-70.465	800.000	-0.025	0.073
-69.451	430.021	-0.050	0.107
-68.436	63.025	0.327	-0.322
-67.422	-99.597	-0.307	-0.076
-66.407	800.000	-0.042	-0.149
-65.392	-114.848	0.564	0.106
-64.378	714.511	0.096	-0.249
-63.363	800.000	0.094	-0.386
-62.349	25.844	-0.087	-0.071
-61.334	66.373	-1.011	-1.008
-60.319	280.846	0.343	0.602
-59.305	-200.000	-0.131	-0.947
-58.290	203.272	0.781	1.185
-57.276	800.000	0.549	1.555
-56.261	-200.000	104.275	603.913
-55.246	501.773	1493.713	3384.701
-54.232	175.888	2700.455	3844.551
-53.217	105.565	2302.473	2669.743
-52.203	38.857	1906.175	1670.152
-51.188	32.976	1691.586	1437.479
-50.173	30.428	1648.119	1381.559
-49.159	48.766	1701.523	1565.459
-48.144	49.368	1717.405	1584.555
-47.130	32.605	1674.349	1419.807
-46.115	29.921	1659.786	1387.320
-45.100	29.714	1655.122	1381.824
-44.086	29.742	1652.012	1379.378
-43.071	29.663	1649.901	1376.972
-42.057	29.583	1647.875	1374.629
-41.042	29.693	1645.515	1373.427
-40.027	29.749	1643.655	1372.235
-39.013	29.626	1641.983	1369.875
-37.998	29.602	1640.533	1368.432
-36.984	29.686	1639.019	1367.735
-35.969	29.840	1637.133	1367.245
-34.954	29.777	1635.854	1365.659
-33.940	29.786	1633.837	1363.986
-32.925	29.765	1632.365	1362.547
-31.911	29.668	1630.558	1360.271
-30.896	29.807	1628.513	1359.531
-29.881	29.723	1627.644	1358.137
-28.867	29.786	1625.499	1356.756
-27.852	29.649	1624.395	1354.773
-26.838	29.720	1622.779	1353.894
-25.823	29.767	1621.922	1353.473
-24.809	29.841	1620.325	1352.623
-23.794	29.709	1619.068	1350.561
-22.779	29.771	1617.055	1349.278
-21.765	29.788	1615.288	1347.875
-20.750	29.768	1613.348	1346.054
-19.736	29.775	1612.822	1345.612
-18.721	29.814	1611.008	1344.332
-17.706	29.766	1609.697	1342.837
-16.692	29.693	1608.050	1340.880
-15.677	29.820	1606.539	1340.484
-14.663	29.826	1605.104	1339.277
-13.648	29.762	1603.876	1337.740
-12.633	29.792	1602.339	1336.616
-11.619	29.788	1601.188	1335.576
-10.604	29.794	1599.567	1334.215
-9.590	29.712	1598.463	1332.647
-8.575	29.790	1597.112	1332.035
-7.560	29.810	1595.812	1331.036
-6.546	29.796	1594.979	1330.187
-5.531	29.731	1593.975	1328.835
-4.517	29.830	1592.479	1328.242
-3.502	29.785	1591.559	1327.104
-2.487	29.917	1589.871	1326.584
-1.473	29.545	1578.875	1314.709
-0.458	26.991	1559.833	1280.815
0.556	21.453	1561.641	1253.090
1.571	19.373	1586.700	1257.930
2.586	19.065	1600.623	1266.594
3.600	17.190	1547.759	1211.291
4.615	9.130	1437.148	1071.063
5.629	1.420	1373.201	974.027
6.644	-0.008	1364.797	958.879
7.659	-0.176	1364.332	957.395
8.673	-0.270	1363.268	955.969
9.688	-0.216	1360.965	954.613
10.702	-0.432	1358.188	951.207
11.717	3.321	1364.829	979.673
12.731	12.644	1383.289	1052.703
13.746	20.030	1395.515	1109.397
14.761	21.944	1398.207	1123.708
15.775	22.252	1398.232	1125.599
16.790	22.340	1397.414	1125.402
17.804	22.442	1396.693	1125.377
18.819	22.739	1396.238	1126.802
19.834	22.741	1396.055	1126.568
20.848	22.668	1395.361	1125.448
21.863	22.757	1394.350	1125.099
22.877	22.732	1393.481	1124.138
23.892	22.908	1392.113	1124.054
24.907	22.848	1391.751	1123.284
25.921	22.758	1390.983	1121.987
26.936	22.877	1389.516	1121.463
27.950	22.881	1388.433	1120.512
28.965	22.721	1387.874	1118.951
29.980	22.758	1386.660	1118.109
30.994	22.809	1385.406	1117.317
32.009	22.908	1383.866	1116.605
33.023	22.818	1382.952	1115.197
34.038	22.853	1381.651	1114.274
35.053	22.823	1381.317	1113.718
36.067	22.835	1380.052	1112.670
37.082	22.769	1379.612	1111.807
38.096	22.792	1378.196	1110.710
39.111	22.802	1377.786	1110.344
40.126	22.714	1377.174	1109.200
41.140	22.768	1376.144	1108.610
42.155	22.773	1375.802	1108.270
43.169	22.762	1376.025	1108.282
44.184	22.766	1375.521	1107.802
45.199	22.682	1375.277	1106.981
46.213	22.694	1374.879	1106.639
47.228	22.847	1373.229	1106.172
48.242	22.767	1372.414	1104.915
49.257	22.734	1371.201	1103.630
50.271	22.779	1369.786	1102.675
51.286	22.763	1368.488	1101.438
52.301	22.834	1367.050	1100.622
53.315	22.831	1366.440	1100.014
54.330	22.767	1365.611	1098.856
55.344	22.794	1364.001	1097.625
56.359	22.841	1362.986	1097.009
57.374	22.739	1362.403	1095.803
58.388	22.759	1361.511	1095.115
59.403	22.874	1361.051	1095.361
60.417	22.954	1359.749	1094.712
61.432	22.783	1360.249	1093.958
62.447	22.755	1359.307	1092.932
63.461	22.761	1358.052	1091.861
64.476	22.761	1357.014	1090.933
65.490	22.790	1355.889	1090.109
66.505	22.757	1354.510	1088.702
67.520	22.706	1353.405	1087.405
68.534	22.815	1351.866	1086.740
69.549	22.887	1350.825	1086.249
70.563	22.756	1350.219	1084.859
71.578	22.807	1348.936	1084.051
72.593	22.847	1348.406	1083.771
73.607	22.807	1347.420	1082.639
74.622	22.863	1346.772	1082.363
75.636	22.806	1346.225	1081.483
76.651	22.790	1345.307	1080.550
77.666	22.774	1344.942	1080.063
78.680	22.781	1344.917	1079.992
79.695	22.759	1343.754	1078.828
80.709	22.771	1342.966	1078.174
81.724	22.746	1342.035	1077.176
82.739	22.778	1341.041	1076.481
83.753	22.889	1339.728	1076.006
84.768	22.821	1338.855	1074.792
85.782	22.844	1337.607	1073.836
86.797	22.775	1336.364	1072.326
87.812	22.770	1335.593	1071.583
88.826	22.827	1334.443	1070.908
89.841	22.848	1333.660	1070.313
90.855	22.988	1332.385	1070.041
91.870	22.894	1331.487	1068.662
92.884	22.892	1331.098	1068.241
93.899	22.916	1330.108	1067.496
94.914	22.840	1329.009	1066.063
95.928	22.926	1328.334	1065.944
96.943	22.815	1328.156	1065.036
97.957	22.853	1327.145	1064.361
98.972	22.904	1326.247	1063.856
99.987	22.860	1325.064	1062.548
101.001	22.923	1324.028	1061.997
102.016	22.796	1323.231	1060.503
103.030	22.847	1322.086	1059.798
104.045	22.864	1321.646	1059.455
105.060	22.912	1320.672	1058.867
106.074	22.944	1319.349	1057.906
107.089	22.874	1318.409	1056.636
108.103	22.900	1317.444	1055.924
109.118	22.966	1315.807	1054.918
110.133	22.975	1315.044	1054.263
111.147	22.901	1313.975	1052.869
112.162	22.902	1312.785	1051.829
113.176	22.985	1311.889	1051.517
114.191	22.922	1310.787	1050.163
115.206	22.913	1310.051	1049.430
116.220	22.852	1309.056	1048.178
117.235	22.960	1307.730	1047.661
118.249	22.914	1307.019	1046.727
119.264	22.980	1305.761	1046.020
120.279	22.921	1305.298	1045.205
121.293	23.009	1303.914	1044.525
122.308	22.984	1303.443	1043.909
123.322	23.004	1302.410	1043.105
124.337	23.072	1301.426	1042.627
125.352	23.040	1300.890	1041.915
126.366	23.113	1299.861	1041.426
127.381	22.995	1299.407	1040.279
128.395	22.953	1298.150	1038.936
129.410	23.049	1297.198	1038.644
130.424	22.974	1296.547	1037.588
131.439	22.952	1296.037	1036.961
132.454	22.895	1295.187	1035.853
133.468	23.028	1294.167	1035.725
134.483	23.003	1293.678	1035.095
135.497	22.929	1292.648	1033.750
136.512	22.991	1291.365	1032.995
137.527	23.049	1290.546	1032.585
138.541	23.024	1289.100	1031.190
139.556	23.039	1287.929	1030.249
140.570	22.957	1287.436	1029.285
141.585	22.871	1285.971	1027.524
142.600	22.987	1284.978	1027.318
143.614	23.098	1283.861	1026.975
144.629	23.074	1282.923	1025.997
145.643	22.920	1281.997	1024.268
146.658	22.929	1281.193	1023.589
147.673	23.045	1279.623	1022.919
148.687	22.865	1279.571	1021.743
149.702	22.939	1277.650	1020.545
150.716	22.964	1276.357	1019.566
151.731	22.941	1275.666	1018.796
152.746	22.966	1274.616	1018.006
153.760	23.093	1273.735	1017.947
154.775	23.040	1272.956	1016.928
155.789	23.123	1271.635	1016.261
156.804	22.979	1271.334	1015.105
157.819	23.016	1269.958	1014.126
158.833	23.096	1269.199	1013.890
159.848	23.093	1268.404	1013.144
160.862	22.929	1268.037	1011.827
161.877	23.087	1267.099	1011.889
162.892	23.105	1265.913	1010.958
163.906	23.113	1265.300	1010.425
164.921	23.124	1264.587	1009.830
165.935	23.053	1264.286	1009.094
166.950	23.126	1263.236	1008.580
167.964	23.103	1262.665	1007.905
168.979	23.178	1261.919	1007.646
169.994	23.062	1261.635	1006.674
171.008	23.141	1260.513	1006.134
172.023	23.144	1259.986	1005.646
173.037	23.160	1259.312	1005.110
174.052	23.282	1258.329	1004.928
175.067	23.039	1257.733	1002.986
176.081	23.140	1256.885	1002.788
177.096	23.076	1256.463	1002.002
178.110	23.139	1255.139	1001.217
179.125	23.217	1254.147	1000.779
180.140	23.241	1253.100	999.986
181.154	23.200	1251.968	998.766
182.169	22.962	1251.336	996.830
183.183	23.173	1249.754	996.669
184.198	23.201	1248.617	995.834
185.213	23.213	1247.950	995.277
186.227	23.156	1247.337	994.383
187.242	23.304	1246.342	994.332
188.256	23.271	1245.613	993.479
189.271	23.268	1244.452	992.445
190.286	23.261	1243.873	991.860
191.300	23.283	1243.147	991.316
192.315	23.260	1242.982	990.964
193.329	23.135	1242.459	989.763
194.344	23.327	1241.463	989.955
195.359	23.330	1240.974	989.495
196.373	23.174	1240.974	988.536
197.388	23.107	1240.605	987.778
198.402	23.185	1240.287	987.874
199.417	23.139	1239.621	986.999
200.432	23.197	1238.982	986.728
201.446	23.206	1238.276	986.129
202.461	23.224	1237.718	985.697
203.475	23.263	1236.404	984.780
204.490	23.243	1235.611	983.949
205.504	23.111	1234.944	982.598
206.519	23.268	1234.144	982.748
207.534	23.298	1233.169	982.050
208.548	23.273	1232.120	980.989
209.563	23.244	1231.624	980.348
210.577	23.190	1231.069	979.520
211.592	23.289	1229.475	978.709
212.607	23.275	1228.886	978.077
213.621	23.352	1228.005	977.714
214.636	23.340	1227.669	977.296
215.650	23.261	1226.524	975.862
216.665	23.316	1225.326	975.126
217.680	23.156	1225.196	974.053
218.694	23.355	1223.775	973.935
219.709	23.400	1223.193	973.630
220.723	23.462	1222.283	973.162
221.738	23.222	1221.854	971.416
222.753	23.324	1221.201	971.370
223.767	23.240	1220.781	970.488
224.782	23.324	1220.113	970.332
225.796	23.400	1219.414	970.108
226.811	23.396	1218.747	969.470
227.826	23.280	1218.294	968.390
228.840	23.534	1217.199	968.817
229.855	23.408	1216.836	967.755
230.869	23.467	1215.852	967.212
231.884	23.408	1215.721	966.698
232.899	23.319	1214.870	965.450
233.913	23.428	1214.195	965.425
234.928	23.554	1213.491	965.462
235.942	23.435	1213.039	964.373
236.957	23.397	1212.277	963.473
237.972	23.451	1211.706	963.226
238.986	23.436	1211.200	962.660
240.001	23.598	1210.264	962.711
241.015	23.527	1209.387	961.542
242.030	23.689	1208.185	961.377
243.045	23.627	1207.995	960.805
244.059	23.595	1207.333	960.020
245.074	23.637	1206.253	959.304
246.088	23.656	1205.618	958.819
247.103	23.704	1204.852	958.381
248.117	23.660	1204.006	957.389
249.132	23.658	1203.274	956.710
250.147	23.653	1202.674	956.122
251.161	23.690	1201.947	955.655
252.176	23.641	1201.076	954.616
253.190	23.621	1200.545	954.005
254.205	23.670	1200.047	953.787
255.220	23.688	1199.322	953.223
256.234	23.600	1199.478	952.791
257.249	23.676	1198.313	952.184
258.263	23.710	1197.848	951.917
259.278	23.723	1197.139	951.336
260.293	23.738	1196.622	950.924
261.307	23.756	1196.101	950.523
262.322	23.727	1195.260	949.616
263.336	23.819	1194.427	949.357
264.351	23.799	1193.858	948.718
265.366	23.723	1193.518	947.957
266.380	23.741	1192.966	947.531
267.395	23.742	1192.145	946.798
268.409	23.678	1191.693	946.016
269.424	23.819	1190.814	945.984
270.439	23.734	1190.312	945.050
271.453	23.640	1189.845	944.098
272.468	23.668	1189.197	943.645
273.482	23.714	1188.569	943.312
274.497	23.757	1188.151	943.124
275.512	23.854	1187.332	942.904
276.526	23.805	1186.582	941.963
277.541	23.822	1185.987	941.499
278.555	23.817	1185.258	940.813
279.570	23.901	1184.254	940.373
280.585	23.881	1183.445	939.544
281.599	23.970	1182.512	939.189
282.614	23.817	1182.081	937.959
283.628	23.767	1181.363	937.041
284.643	23.856	1180.413	936.672
285.657	23.795	1179.566	935.596
286.672	23.865	1178.560	935.081
287.687	23.905	1177.790	934.602
288.701	23.937	1177.593	934.531
289.716	24.121	1176.216	934.321
290.730	23.984	1175.886	933.258
291.745	23.932	1175.267	932.412
292.760	23.960	1174.738	932.056
293.774	24.068	1173.937	931.905
294.789	24.169	1173.474	931.980
295.803	23.966	1173.131	930.563
296.818	24.036	1172.398	930.267
297.833	24.013	1171.607	929.434
298.847	24.103	1170.567	928.997
299.862	24.148	1170.136	928.808
300.876	23.915	1169.754	927.209
301.891	24.032	1168.774	926.960
302.906	24.157	1168.326	927.174
303.920	24.253	1167.456	926.900
304.935	24.130	1166.778	925.640
305.949	24.087	1166.277	924.938
306.964	24.091	1165.745	924.456
307.979	24.068	1165.192	923.816
308.993	24.208	1164.405	923.834
310.008	24.145	1163.584	922.772
311.022	24.117	1163.236	922.274
312.037	24.175	1162.317	921.764
313.052	24.157	1161.401	920.862
314.066	24.329	1160.262	920.762
315.081	24.162	1159.566	919.269
316.095	24.246	1159.260	919.378
317.110	24.105	1159.241	918.554
318.125	24.257	1157.928	918.218
319.139	24.252	1157.296	917.610
320.154	24.244	1156.535	916.884
321.168	24.265	1156.062	916.532
322.183	24.296	1155.413	916.098
323.197	24.215	1154.967	915.248
324.212	24.220	1154.345	914.700
325.227	24.284	1154.097	914.748
326.241	24.330	1153.667	914.561
327.256	24.311	1152.542	913.495
328.270	24.434	1151.427	913.157
329.285	24.446	1151.002	912.800
330.300	24.331	1149.982	911.323
331.314	24.307	1149.102	910.424
332.329	24.415	1148.689	910.566
333.343	24.442	1147.666	909.815
334.358	24.575	1146.600	909.567
335.373	24.329	1146.714	908.324
336.387	24.261	1146.118	907.422
337.402	24.471	1144.945	907.481
338.416	24.404	1144.662	906.839
339.431	24.426	1144.126	906.442
340.446	24.401	1143.447	905.699
341.460	24.575	1142.197	905.510
342.475	24.551	1141.693	904.908
343.489	24.544	1140.993	904.239
344.504	24.444	1139.974	902.844
345.519	24.586	1138.927	902.654
346.533	24.586	1138.326	902.096
347.548	24.546	1137.627	901.261
348.562	24.562	1137.211	900.936
349.577	24.542	1136.480	900.176
350.592	24.576	1135.080	899.156
351.606	24.630	1134.791	899.118
352.621	24.515	1134.545	898.270
353.635	24.709	1133.656	898.459
354.650	24.638	1132.612	897.197
355.665	24.626	1132.511	896.978
356.679	24.683	1131.772	896.597
357.694	24.629	1131.456	895.996
358.708	24.560	1130.912	895.139
359.723	24.665	1130.223	895.042
360.738	24.673	1128.952	893.994
361.752	24.709	1128.597	893.819
362.767	24.670	1127.896	892.987
363.781	24.711	1127.905	893.118
364.796	24.769	1127.125	892.711
365.810	24.694	1126.682	891.908
366.825	24.636	1126.165	891.132
367.840	24.717	1125.550	890.971
368.854	24.766	1124.874	890.601
369.869	24.866	1123.739	890.121
370.883	24.774	1123.444	889.350
371.898	24.760	1122.356	888.340
372.913	24.870	1121.593	888.201
373.927	24.814	1121.421	887.711
374.942	24.969	1121.059	888.113
375.956	24.819	1120.741	887.041
376.971	24.783	1120.110	886.286
377.986	24.869	1119.349	886.029
379.000	25.039	1118.574	886.179
380.015	24.989	1118.388	885.703
381.029	24.938	1117.647	884.786
382.044	24.993	1116.700	884.230
383.059	25.086	1115.513	883.674
384.073	25.037	1115.673	883.479
385.088	24.977	1114.550	882.216
386.102	25.008	1113.847	881.735
387.117	25.005	1112.797	880.808
388.132	25.070	1111.846	880.300
389.146	25.004	1111.574	879.680
390.161	25.010	1111.226	879.358
391.175	25.050	1110.233	878.691
392.190	25.117	1109.505	878.365
393.205	25.115	1108.586	877.550
394.219	25.127	1108.067	877.118
395.234	25.068	1107.484	876.292
396.248	24.982	1106.710	875.183
397.263	25.034	1105.885	874.704
398.278	25.200	1105.197	874.893
399.292	25.314	1104.479	874.805
400.307	25.237	1103.840	873.848
401.321	25.200	1103.230	873.105
402.336	25.205	1102.436	872.424
403.350	25.172	1101.708	871.611
404.365	25.277	1100.850	871.362
405.380	25.284	1100.271	870.862
406.394	25.205	1099.901	870.107
407.409	25.248	1098.860	869.415
408.423	25.296	1098.292	869.121
409.438	25.213	1097.837	868.285
410.453	25.342	1097.134	868.275
411.467	25.379	1096.228	867.661
412.482	25.292	1095.840	866.856
413.496	25.264	1095.065	866.031
414.511	25.308	1094.560	865.770
415.526	25.377	1093.876	865.484
416.540	25.314	1093.592	864.875
417.555	25.507	1092.899	865.180
418.569	25.367	1092.642	864.231
419.584	25.512	1091.908	864.268
420.599	25.490	1091.569	863.819
421.613	147.154	1404.454	1797.737
422.628	136.132	1450.018	1797.818
