DTS Sentinel unit serial number:	SN413079Multiplexer serial number:	ORYXHardware model number:	OX4-SRSoftware version number:	ORYX F/W v4.00 Oryx Data Collector v3.7.2.0data status	okinstallation	princeton_trtdifferential loss correction	single-endedforward channel	channel 2reverse channel	N/Adate	2019/09/17time	01:35:34forward acquisition time	60.00reverse acquisition time	0.00gamma	496.2192k internal	0.2329k external	0.2329temperature offset calibration	0.9973default loss term (dB/km)	0.3790temperature slope calibration	1.0000multiplexer offset coefficient	1.0000multiplexer slope coefficient	1.0000fibre end	0.00T internal ref (°C)	29.55T ext. ref 1 (°C)	0.11T ext. ref 2 (°C)	24.47length (m)	temperature (°C)	Stokes	anti-Stokes-747.200	-141.406	-0.335	-0.034
-746.185	-200.000	-0.013	0.449
-745.171	37.373	0.165	0.147
-744.156	-71.487	0.258	-0.097
-743.142	-200.000	0.032	0.150
-742.127	534.243	-0.114	0.273
-741.112	-40.732	0.369	0.192
-740.098	-93.573	-0.236	-0.066
-739.083	-8.736	0.126	0.085
-738.069	-92.963	-0.100	-0.028
-737.054	-200.000	0.001	-0.297
-736.039	-39.930	0.146	-0.077
-735.025	72.302	-0.060	-0.063
-734.010	-123.140	-0.053	-0.009
-732.996	-47.477	-0.146	-0.071
-731.981	467.343	0.090	-0.204
-730.966	-100.569	-0.171	0.043
-729.952	635.829	0.033	-0.084
-728.937	-34.611	-0.066	-0.036
-727.923	-6.043	0.221	-0.152
-726.908	-71.861	0.111	-0.041
-725.894	-72.277	-0.335	-0.125
-724.879	197.653	-0.218	-0.336
-723.864	-200.000	0.017	0.168
-722.850	29.375	-0.138	0.118
-721.835	-95.296	-0.191	0.052
-720.821	421.953	0.133	-0.288
-719.806	91.625	0.125	-0.142
-718.791	-200.000	-0.043	0.210
-717.777	-200.000	0.015	-0.084
-716.762	-67.847	-0.099	0.039
-715.748	800.000	0.045	-0.190
-714.733	-57.848	0.104	-0.046
-713.718	186.170	-0.104	0.156
-712.704	-158.590	-0.275	0.016
-711.689	-23.599	-0.119	-0.072
-710.675	-88.274	-0.398	-0.120
-709.660	-100.496	0.198	-0.049
-708.645	-9.557	-0.109	0.073
-707.631	-37.358	0.221	-0.119
-706.616	94.028	-0.125	-0.143
-705.602	-2.549	-0.235	-0.165
-704.587	610.115	-0.021	-0.053
-703.572	71.240	0.189	0.197
-702.558	49.688	-0.125	-0.118
-701.543	212.525	0.124	0.197
-700.529	-29.705	0.088	0.051
-699.514	-57.663	0.385	-0.170
-698.499	418.479	-0.094	-0.202
-697.485	170.844	-0.145	-0.208
-696.470	800.000	-0.033	-0.145
-695.456	-144.479	0.073	0.007
-694.441	3.433	-0.079	-0.058
-693.426	-200.000	-0.035	-0.291
-692.412	-3.637	0.150	-0.105
-691.397	199.626	0.204	-0.314
-690.383	-57.398	-0.162	-0.072
-689.368	65.585	-0.166	0.169
-688.354	54.221	-0.123	0.119
-687.339	-53.909	0.213	-0.098
-686.324	-39.260	0.236	-0.125
-685.310	-149.613	0.476	-0.038
-684.295	800.000	0.044	-0.173
-683.281	-41.465	-0.247	-0.128
-682.266	800.000	0.068	-0.199
-681.251	-50.600	-0.147	0.070
-680.237	-156.216	-0.147	0.009
-679.222	-55.551	0.146	0.066
-678.208	-100.318	-0.081	0.020
-677.193	-133.181	0.107	-0.014
-676.178	-126.459	-0.196	0.029
-675.164	800.000	-0.048	0.141
-674.149	-149.672	-0.145	-0.011
-673.135	-51.626	-0.403	-0.189
-672.120	-200.000	-0.018	-0.328
-671.105	127.732	0.142	-0.181
-670.091	-200.000	0.004	0.128
-669.076	-200.000	0.030	-0.204
-668.062	116.969	-0.048	-0.059
-667.047	656.567	0.059	0.152
-666.032	-200.000	0.029	0.206
-665.018	343.084	-0.231	0.455
-664.003	24.155	0.347	-0.288
-662.989	800.000	0.097	-0.359
-661.974	-124.577	0.142	-0.022
-660.959	-65.685	-0.219	-0.088
-659.945	-130.855	-0.180	-0.024
-658.930	98.079	-0.156	-0.180
-657.916	-72.172	-0.143	0.053
-656.901	-27.389	-0.130	-0.076
-655.886	16.988	-0.310	-0.247
-654.872	380.731	-0.075	-0.155
-653.857	-100.666	0.050	0.012
-652.843	800.000	0.052	-0.194
-651.828	-121.881	-0.226	0.037
-650.814	-85.736	-0.116	-0.036
-649.799	800.000	-0.128	0.420
-648.784	-88.297	-0.234	0.070
-647.770	444.997	0.132	0.292
-646.755	-47.327	-0.358	0.175
-645.741	800.000	-0.061	0.180
-644.726	247.857	-0.128	0.217
-643.711	298.259	-0.150	-0.277
-642.697	-63.945	-0.052	0.021
-641.682	-49.979	0.143	-0.068
-640.668	-166.941	0.106	-0.004
-639.653	-86.254	-0.443	0.137
-638.638	326.205	0.094	0.181
-637.624	2.878	-0.198	-0.144
-636.609	7.827	-0.079	0.059
-635.595	-24.723	0.114	-0.068
-634.580	-153.270	-0.105	-0.007
-633.565	296.471	0.057	-0.106
-632.551	-154.148	0.298	-0.020
-631.536	-163.962	0.392	0.018
-630.522	-79.544	-0.343	0.116
-629.507	-200.000	0.082	-0.395
-628.492	-200.000	0.048	-0.292
-627.478	-140.073	-0.227	0.024
-626.463	-92.543	0.178	0.050
-625.449	19.519	0.262	0.211
-624.434	250.525	0.019	-0.033
-623.419	800.000	0.039	-0.119
-622.405	-88.439	0.346	-0.103
-621.390	504.299	0.047	-0.108
-620.376	-109.168	-0.237	-0.050
-619.361	318.255	-0.084	0.160
-618.346	-51.948	0.078	-0.036
-617.332	271.242	-0.175	-0.309
-616.317	27.330	0.291	-0.245
-615.303	305.914	0.190	-0.355
-614.288	-161.978	0.221	-0.011
-613.273	30.764	0.252	-0.216
-612.259	52.620	0.104	0.099
-611.244	-200.000	-0.029	-0.319
-610.230	-200.000	0.005	-0.184
-609.215	117.275	0.126	0.155
-608.201	-79.837	0.341	-0.115
-607.186	156.737	0.112	-0.154
-606.171	800.000	0.123	-0.342
-605.157	-136.600	-0.148	-0.017
-604.142	-57.511	0.369	-0.162
-603.128	-15.498	-0.266	-0.170
-602.113	566.751	-0.146	0.354
-601.098	49.184	-0.130	0.122
-600.084	79.360	-0.138	-0.148
-599.069	-110.135	-0.431	-0.090
-598.055	-200.000	-0.031	0.218
-597.040	-72.077	-0.208	0.077
-596.025	-111.153	0.339	-0.070
-595.011	-200.000	-0.035	0.251
-593.996	-129.381	0.216	0.030
-592.982	-169.359	-0.231	-0.009
-591.967	-200.000	0.014	-0.175
-590.952	-40.333	-0.231	0.120
-589.938	51.791	0.123	-0.117
-588.923	46.363	0.327	0.303
-587.909	-137.021	0.144	-0.017
-586.894	325.372	0.145	0.277
-585.879	157.149	-0.089	0.123
-584.865	-26.787	-0.101	0.059
-583.850	16.022	-0.074	-0.058
-582.836	18.568	-0.196	0.157
-581.821	79.594	0.120	0.129
-580.806	293.191	-0.065	0.118
-579.792	34.242	0.179	0.157
-578.777	129.406	-0.087	0.112
-577.763	255.660	-0.066	0.113
-576.748	334.924	0.188	0.364
-575.733	-39.902	-0.174	0.091
-574.719	800.000	-0.030	-0.109
-573.704	800.000	-0.102	-0.416
-572.690	240.896	-0.205	0.342
-571.675	586.712	-0.068	0.167
-570.661	-37.697	0.369	0.197
-569.646	-26.175	-0.227	0.134
-568.631	470.528	0.070	0.158
-567.617	-8.897	-0.154	0.103
-566.602	-29.275	-0.140	0.080
-565.588	327.476	0.028	-0.054
-564.573	-200.000	0.002	0.121
-563.558	19.615	0.214	-0.172
-562.544	387.909	0.146	0.302
-561.529	-94.313	-0.081	0.022
-560.515	114.697	-0.317	-0.387
-559.500	-166.933	-0.247	-0.010
-558.485	5.709	-0.105	-0.078
-557.471	124.128	-0.110	-0.138
-556.456	-169.336	-0.195	-0.007
-555.442	342.522	-0.082	0.160
-554.427	-150.970	-0.176	0.013
-553.412	-8.641	-0.202	0.135
-552.398	-200.000	0.068	-0.373
-551.383	-91.729	-0.290	0.082
-550.369	-200.000	-0.021	-0.212
-549.354	-61.362	-0.177	-0.075
-548.339	-200.000	0.004	-0.084
-547.325	454.904	0.052	0.115
-546.310	210.382	-0.162	-0.254
-545.296	33.719	-0.275	-0.239
-544.281	167.134	0.145	-0.205
-543.266	7.204	0.070	-0.052
-542.252	-91.895	0.082	0.023
-541.237	132.178	-0.183	-0.236
-540.223	67.418	0.067	-0.069
-539.208	14.446	-0.107	-0.083
-538.193	115.338	0.087	-0.107
-537.179	-138.366	-0.084	0.009
-536.164	-200.000	-0.039	-0.206
-535.150	800.000	-0.079	-0.311
-534.135	95.222	-0.125	-0.143
-533.121	-14.883	0.125	0.080
-532.106	800.000	-0.066	-0.246
-531.091	-64.605	-0.055	-0.022
-530.077	214.146	0.144	0.228
-529.062	57.058	0.228	-0.222
-528.048	111.384	0.138	-0.166
-527.033	105.162	0.188	-0.222
-526.018	-168.756	-0.214	-0.008
-525.004	-200.000	-0.039	-0.186
-523.989	-82.694	-0.511	0.165
-522.975	-200.000	0.030	0.307
-521.960	93.990	-0.187	0.211
-520.945	698.588	0.128	0.336
-519.931	647.880	0.073	-0.186
-518.916	-22.970	0.216	0.130
-517.902	-174.129	-0.145	0.004
-516.887	33.277	-0.284	0.246
-515.872	-200.000	-0.029	0.234
-514.858	800.000	-0.078	-0.225
-513.843	40.145	-0.342	-0.307
-512.829	-150.474	0.272	0.021
-511.814	-200.000	0.351	-0.002
-510.799	-3.218	-0.311	0.216
-509.785	-61.684	-0.199	0.083
-508.770	-200.000	-0.017	-0.168
-507.756	44.369	0.268	-0.245
-506.741	-200.000	0.004	-0.209
-505.726	-200.000	0.052	0.594
-504.712	800.000	-0.113	0.397
-503.697	5.861	-0.374	0.276
-502.683	77.729	-0.077	-0.082
-501.668	762.187	0.106	-0.286
-500.653	800.000	-0.114	-0.363
-499.639	48.672	0.057	-0.054
-498.624	-72.162	0.162	-0.060
-497.610	419.501	-0.110	-0.234
-496.595	-87.619	0.405	-0.122
-495.581	-84.894	-0.225	-0.070
-494.566	-19.786	-0.006	-0.004
-493.551	800.000	-0.065	0.208
-492.537	-200.000	-0.001	0.080
-491.522	220.281	-0.275	-0.439
-490.508	-23.343	-0.189	-0.114
-489.493	-200.000	-0.038	-0.413
-488.478	174.020	0.059	-0.085
-487.464	58.759	-0.126	0.124
-486.449	-93.806	0.071	0.019
-485.435	-175.871	-0.477	0.013
-484.420	195.172	-0.130	0.197
-483.405	25.749	0.158	-0.131
-482.391	204.489	0.067	-0.104
-481.376	603.771	-0.086	0.214
-480.362	-200.000	-0.040	0.318
-479.347	-12.975	-0.228	-0.148
-478.332	-181.405	-0.224	0.004
-477.318	156.918	0.144	0.199
-476.303	-200.000	-0.014	0.103
-475.289	72.722	-0.161	-0.167
-474.274	-0.664	0.271	-0.191
-473.259	-52.688	-0.149	0.069
-472.245	33.611	0.102	-0.088
-471.230	94.426	0.099	-0.112
-470.216	622.446	0.062	-0.155
-469.201	270.223	-0.128	-0.224
-468.186	141.346	-0.138	-0.182
-467.172	-123.644	0.156	-0.025
-466.157	208.295	-0.078	-0.122
-465.143	-132.296	-0.172	0.022
-464.128	-77.974	-0.108	0.037
-463.113	-75.022	-0.171	0.061
-462.099	-127.149	0.607	0.089
-461.084	-200.000	0.017	0.302
-460.070	-60.564	0.155	-0.066
-459.055	-110.649	-0.256	-0.053
-458.040	-131.593	-0.338	0.044
-457.026	-84.039	-0.286	-0.091
-456.011	-185.238	-0.359	-0.006
-454.997	-168.749	0.132	0.005
-453.982	800.000	-0.053	-0.210
-452.968	-92.290	0.285	-0.080
-451.953	-80.241	-0.168	-0.056
-450.938	800.000	-0.062	-0.254
-449.924	-200.000	0.039	0.197
-448.909	-60.131	-0.201	0.085
-447.895	-31.555	0.486	0.272
-446.880	-200.000	-0.013	-0.066
-445.865	339.690	0.021	-0.041
-444.851	-93.009	0.093	-0.026
-443.836	-200.000	-0.075	0.366
-442.822	-70.218	-0.123	0.047
-441.807	-124.587	-0.211	-0.033
-440.792	-200.000	-0.023	0.302
-439.778	-26.626	-0.242	0.141
-438.763	-135.033	-0.263	0.032
-437.749	-200.000	-0.007	0.130
-436.734	486.544	-0.080	0.183
-435.719	-114.362	0.129	0.025
-434.705	-200.000	0.007	-0.164
-433.690	800.000	0.062	-0.172
-432.676	-89.660	-0.096	0.028
-431.661	-15.679	-0.301	-0.191
-430.646	16.150	-0.090	0.070
-429.632	-57.082	0.178	-0.078
-428.617	115.868	0.211	-0.256
-427.603	-164.038	-0.390	-0.018
-426.588	-136.138	0.259	-0.030
-425.573	-84.261	-0.225	0.071
-424.559	30.417	0.170	-0.145
-423.544	-122.806	-0.451	0.072
-422.530	204.019	-0.113	-0.174
-421.515	800.000	0.050	-0.184
-420.500	-175.065	0.281	-0.008
-419.486	-65.076	0.275	-0.110
-418.471	-26.460	0.196	-0.114
-417.457	19.463	-0.186	-0.149
-416.442	-200.000	0.006	0.087
-415.428	7.830	-0.148	-0.110
-414.413	107.863	-0.068	0.081
-413.398	800.000	0.020	0.083
-412.384	-142.695	0.117	0.011
-411.369	-81.012	-0.248	-0.082
-410.355	51.001	0.281	0.265
-409.340	-16.345	0.627	-0.396
-408.325	-107.160	-0.132	-0.029
-407.311	-200.000	0.000	0.132
-406.296	800.000	0.085	0.319
-405.282	450.871	-0.121	-0.266
-404.267	800.000	-0.143	-0.592
-403.252	-62.120	0.299	-0.124
-402.238	80.880	0.140	0.150
-401.223	-200.000	-0.011	0.116
-400.209	-66.495	-0.107	0.042
-399.194	5.430	-0.043	-0.032
-398.179	-22.379	-0.168	-0.101
-397.165	-194.184	-0.172	-0.001
-396.150	-185.160	0.205	-0.003
-395.136	-177.674	-0.126	-0.003
-394.121	-76.403	0.238	0.083
-393.106	-52.755	-0.271	-0.124
-392.092	-88.269	-0.333	0.099
-391.077	-197.090	0.219	-0.001
-390.063	-20.330	0.098	-0.060
-389.048	201.426	-0.238	0.364
-388.033	800.000	0.029	-0.114
-387.019	-73.438	0.168	0.061
-386.004	-22.079	0.035	0.021
-384.990	102.386	-0.128	-0.148
-383.975	-200.000	0.015	-0.239
-382.960	146.399	-0.058	0.078
-381.946	252.821	-0.044	0.075
-380.931	-28.630	0.065	0.037
-379.917	-98.494	-0.114	-0.029
-378.902	-36.138	0.044	-0.023
-377.888	-200.000	0.003	0.218
-376.873	-0.256	0.136	-0.096
-375.858	382.858	-0.121	0.247
-374.844	-128.781	0.312	-0.044
-373.829	66.450	0.019	0.020
-372.815	-114.173	0.245	0.047
-371.800	-91.063	0.192	-0.055
-370.785	-61.969	0.321	0.133
-369.771	-200.000	0.070	0.305
-368.756	668.525	-0.080	0.205
-367.742	254.994	0.223	-0.379
-366.727	283.504	-0.125	0.223
-365.712	800.000	-0.097	-0.316
-364.698	-6.464	-0.415	-0.281
-363.683	-200.000	-0.007	-0.144
-362.669	148.696	0.246	0.329
-361.654	-200.000	-0.005	-0.333
-360.639	-157.806	-0.218	0.013
-359.625	345.368	0.188	0.366
-358.610	-141.014	0.197	-0.020
-357.596	-6.813	-0.264	-0.178
-356.581	192.097	0.070	-0.105
-355.566	41.832	0.185	-0.166
-354.552	58.278	-0.217	0.212
-353.537	614.846	0.057	0.142
-352.523	-128.791	-0.140	0.020
-351.508	-200.000	0.015	-0.155
-350.493	357.839	-0.166	0.328
-349.479	-121.759	-0.273	0.045
-348.464	124.068	0.169	-0.210
-347.450	-128.935	0.365	-0.051
-346.435	140.285	0.032	0.042
-345.420	-82.339	0.065	-0.021
-344.406	-119.239	-0.071	-0.012
-343.391	-96.324	0.228	-0.060
-342.377	800.000	-0.043	-0.137
-341.362	-187.743	0.358	-0.005
-340.348	-17.783	-0.198	-0.123
-339.333	44.125	0.235	-0.214
-338.318	-200.000	0.013	-0.202
-337.304	-48.816	0.129	0.061
-336.289	800.000	-0.052	0.166
-335.275	-200.000	-0.001	-0.106
-334.260	78.647	-0.101	0.107
-333.245	454.831	0.041	0.091
-332.231	-87.303	-0.271	-0.081
-331.216	-200.000	-0.013	-0.064
-330.202	339.854	-0.079	-0.153
-329.187	132.838	-0.072	0.092
-328.172	800.000	-0.016	-0.056
-327.158	-56.980	-0.150	-0.066
-326.143	529.721	-0.076	-0.178
-325.129	249.963	-0.060	-0.100
-324.114	-200.000	0.009	0.403
-323.099	-200.000	-0.005	0.129
-322.085	57.639	0.122	0.118
-321.070	-52.805	0.298	0.136
-320.056	800.000	0.109	0.395
-319.041	177.324	-0.106	0.153
-318.026	-95.833	-0.057	-0.015
-317.012	102.306	0.151	-0.175
-315.997	-200.000	-0.090	-0.392
-314.983	-12.162	0.131	-0.085
-313.968	17.224	0.041	0.033
-312.953	220.225	-0.165	0.261
-311.939	-200.000	-0.005	0.130
-310.924	800.000	0.127	0.501
-309.910	93.595	-0.157	0.176
-308.895	-87.702	0.190	0.057
-307.880	-200.000	0.025	0.128
-306.866	194.820	0.048	-0.072
-305.851	-93.996	0.115	-0.031
-304.837	-200.000	0.012	0.067
-303.822	79.349	0.063	0.067
-302.807	13.291	-0.200	0.153
-301.793	69.704	-0.253	-0.259
-300.778	-153.465	0.144	0.010
-299.764	739.737	-0.120	-0.319
-298.749	65.689	0.157	-0.158
-297.735	228.820	0.336	-0.542
-296.720	-137.596	0.256	-0.029
-295.705	-200.000	0.004	-0.071
-294.691	800.000	0.080	-0.251
-293.676	-138.531	-0.106	0.012
-292.662	-10.662	0.207	-0.136
-291.647	136.437	-0.225	-0.291
-290.632	-137.721	-0.227	-0.025
-289.618	800.000	0.029	-0.119
-288.603	-200.000	0.004	-0.067
-287.589	126.331	-0.170	0.213
-286.574	-187.152	0.149	0.002
-285.559	-116.925	0.320	-0.058
-284.545	142.876	-0.068	0.090
-283.530	-133.039	0.286	-0.036
-282.516	-81.861	-0.263	-0.085
-281.501	80.635	0.224	0.239
-280.486	-41.382	0.280	0.142
-279.472	202.219	0.098	-0.150
-278.457	-200.000	0.074	0.326
-277.443	-200.000	-0.039	0.479
-276.428	5.983	-0.110	0.080
-275.413	800.000	-0.042	0.118
-274.399	-164.349	-0.398	-0.018
-273.384	800.000	-0.109	-0.306
-272.370	-200.000	0.018	-0.170
-271.355	-56.988	-0.411	-0.179
-270.340	-122.900	-0.144	0.023
-269.326	68.292	-0.101	-0.102
-268.311	15.990	-0.122	-0.095
-267.297	-109.742	0.047	-0.010
-266.282	16.510	0.091	0.071
-265.267	-27.859	-0.090	-0.051
-264.253	-200.000	0.003	-0.027
-263.238	-200.000	-0.019	0.209
-262.224	-200.000	0.021	-0.202
-261.209	-6.482	0.199	-0.134
-260.195	25.104	0.187	-0.153
-259.180	-41.481	0.309	0.157
-258.165	-193.550	0.080	0.001
-257.151	527.538	0.051	0.118
-256.136	175.958	0.155	0.222
-255.122	13.200	0.300	-0.230
-254.107	800.000	0.061	-0.218
-253.092	800.000	0.137	0.399
-252.078	-25.144	0.147	-0.086
-251.063	125.674	-0.230	-0.287
-250.049	185.268	0.178	0.261
-249.034	64.516	0.210	0.209
-248.019	-53.993	0.072	-0.032
-247.005	-5.272	-0.178	0.121
-245.990	-58.177	-0.128	-0.055
-244.976	61.980	-0.262	0.258
-243.961	-37.473	0.261	-0.138
-242.946	-200.000	-0.053	-0.248
-241.932	-200.000	0.042	0.235
-240.917	-145.486	0.256	-0.023
-239.903	-200.000	0.013	-0.068
-238.888	26.433	0.200	-0.165
-237.873	-32.602	0.035	-0.019
-236.859	-132.669	0.405	0.051
-235.844	-200.000	0.000	0.218
-234.830	-200.000	-0.013	-0.216
-233.815	672.486	-0.037	-0.094
-232.800	-200.000	-0.033	-0.238
-231.786	800.000	0.046	0.172
-230.771	800.000	-0.119	0.395
-229.757	333.596	0.085	0.163
-228.742	66.714	0.065	-0.065
-227.727	726.707	0.096	-0.253
-226.713	44.694	0.150	-0.136
-225.698	-98.853	-0.100	0.025
-224.684	38.260	0.260	0.228
-223.669	800.000	-0.075	0.279
-222.655	-145.958	0.174	-0.015
-221.640	-15.225	-0.223	0.141
-220.625	21.608	0.310	0.249
-219.611	-200.000	0.017	0.166
-218.596	-85.033	0.233	0.072
-217.582	-71.850	0.235	-0.087
-216.567	-50.360	0.311	-0.145
-215.552	-3.097	-0.162	0.112
-214.538	-200.000	-0.010	0.298
-213.523	97.466	0.242	0.274
-212.509	37.728	-0.318	-0.278
-211.494	-63.923	0.138	0.056
-210.479	216.689	-0.092	0.144
-209.465	-120.115	-0.101	-0.017
-208.450	246.778	-0.154	0.257
-207.436	513.998	0.175	0.402
-206.421	800.000	-0.059	0.219
-205.406	800.000	0.034	0.116
-204.392	-124.119	-0.243	-0.038
-203.377	89.283	0.309	0.339
-202.363	85.719	-0.114	-0.124
-201.348	-200.000	0.056	-0.325
-200.333	-52.752	-0.320	0.146
-199.319	42.158	0.298	0.267
-198.304	283.015	0.114	-0.202
-197.290	-129.186	-0.256	-0.035
-196.275	-200.000	0.015	-0.385
-195.260	-189.919	-0.419	-0.005
-194.246	-50.541	-0.261	0.121
-193.231	-200.000	0.016	-0.166
-192.217	72.363	0.097	-0.100
-191.202	189.378	0.092	0.136
-190.187	-200.000	0.069	-0.388
-189.173	-21.845	0.140	-0.084
-188.158	62.844	-0.229	-0.226
-187.144	-133.477	0.347	0.043
-186.129	84.206	0.152	0.164
-185.114	-67.068	-0.321	0.125
-184.100	40.621	0.232	0.206
-183.085	-85.607	0.466	0.143
-182.071	764.662	-0.145	0.387
-181.056	98.774	0.078	-0.089
-180.042	-135.500	-0.251	0.029
-179.027	417.700	0.122	0.258
-178.012	55.782	0.043	-0.041
-176.998	29.303	0.218	0.182
-175.983	635.816	-0.017	0.042
-174.969	-129.380	-0.125	-0.017
-173.954	800.000	0.099	0.378
-172.939	394.084	0.079	-0.163
-171.925	42.881	0.199	0.178
-170.910	-138.431	-0.080	-0.009
-169.896	-15.287	-0.290	-0.183
-168.881	-55.514	0.117	-0.052
-167.866	-19.650	0.216	-0.132
-166.852	22.854	-0.242	-0.195
-165.837	148.112	0.182	0.242
-164.823	123.292	-0.147	-0.181
-163.808	-88.013	0.270	-0.080
-162.793	-94.923	-0.088	-0.023
-161.779	-39.110	-0.290	0.150
-160.764	-1.077	-0.257	0.179
-159.750	74.415	0.282	0.292
-158.735	140.626	-0.126	-0.164
-157.720	-98.671	0.390	0.098
-156.706	-31.800	0.203	-0.112
-155.691	-200.000	0.001	-0.231
-154.677	-200.000	-0.027	0.157
-153.662	27.519	-0.086	0.071
-152.647	42.244	0.170	-0.152
-151.633	800.000	-0.122	0.342
-150.618	183.661	0.201	0.293
-149.604	800.000	0.145	0.433
-148.589	90.672	-0.051	0.056
-147.574	-51.876	-0.095	-0.043
-146.560	145.316	-0.245	-0.322
-145.545	-43.366	-0.102	0.051
-144.531	-200.000	0.039	-0.215
-143.516	-59.296	0.199	0.084
-142.502	-125.868	0.331	0.049
-141.487	-129.150	0.461	-0.063
-140.472	116.324	0.194	0.234
-139.458	128.580	-0.089	0.111
-138.443	-200.000	0.008	0.045
-137.429	-200.000	0.023	0.135
-136.414	-144.517	-0.172	0.016
-135.399	-125.936	-0.203	-0.030
-134.385	-200.000	-0.009	0.208
-133.370	4.967	0.179	0.130
-132.356	-200.000	-0.038	0.573
-131.341	-118.334	-0.480	-0.084
-130.326	428.281	0.014	0.030
-129.312	564.715	0.179	-0.427
-128.297	231.110	-0.083	0.133
-127.283	-137.734	-0.190	0.021
-126.268	-132.554	0.238	-0.030
-125.253	-29.286	-0.103	0.058
-124.239	-200.000	-0.014	-0.202
-123.224	45.421	0.216	0.196
-122.210	-61.551	0.244	0.101
-121.195	-3.731	0.332	0.226
-120.180	-200.000	0.050	0.217
-119.166	-29.413	0.199	-0.112
-118.151	204.260	0.155	-0.236
-117.137	-68.253	-0.264	0.101
-116.122	-89.765	0.098	-0.028
-115.107	342.125	-0.159	-0.305
-114.093	89.075	0.222	0.243
-113.078	182.042	-0.221	0.319
-112.064	136.512	-0.069	-0.089
-111.049	39.784	0.080	0.071
-110.034	152.593	0.176	0.236
-109.020	-106.977	-0.283	-0.061
-108.005	56.001	0.073	-0.070
-106.991	710.814	-0.082	-0.213
-105.976	183.782	-0.278	-0.404
-104.962	-69.762	-0.440	-0.165
-103.947	800.000	-0.054	-0.176
-102.932	189.709	0.050	0.074
-101.918	800.000	-0.059	0.185
-100.903	-47.237	-0.036	0.017
-99.889	544.587	-0.144	0.337
-98.874	362.750	-0.079	-0.156
-97.859	70.714	0.100	0.102
-96.845	104.376	0.048	0.055
-95.830	-143.298	-0.252	-0.024
-94.816	74.353	0.209	-0.216
-93.801	37.427	-0.425	0.370
-92.786	-124.284	0.208	0.032
-91.772	71.521	-0.127	0.129
-90.757	-101.259	-0.254	0.061
-89.743	71.037	0.052	0.053
-88.728	-26.238	-0.092	0.053
-87.713	-140.289	0.289	-0.030
-86.699	285.853	0.178	0.315
-85.684	609.281	-0.077	-0.189
-84.670	416.191	-0.087	-0.182
-83.655	1.315	-0.074	-0.052
-82.640	24.257	0.140	-0.113
-81.626	-197.764	0.064	0.000
-80.611	-189.704	0.469	0.005
-79.597	800.000	-0.047	-0.197
-78.582	-11.369	-0.187	-0.121
-77.567	-68.516	0.126	-0.048
-76.553	59.532	-0.276	-0.267
-75.538	257.875	0.131	-0.222
-74.524	-200.000	0.011	-0.183
-73.509	-56.724	-0.226	-0.098
-72.494	-82.329	-0.157	0.050
-71.480	-86.163	-0.269	-0.081
-70.465	-150.585	0.232	-0.017
-69.451	-40.098	0.201	-0.103
-68.436	472.646	0.046	0.101
-67.422	800.000	0.027	0.112
-66.407	125.258	0.166	0.205
-65.392	-63.269	0.454	0.184
-64.378	800.000	0.051	-0.160
-63.363	-200.000	-0.061	0.330
-62.349	-150.580	-0.284	0.021
-61.334	1.771	-1.419	-1.003
-60.319	249.866	0.331	0.550
-59.305	-200.000	-0.152	-0.977
-58.290	273.442	0.795	1.377
-57.276	800.000	0.487	1.850
-56.261	-200.000	108.627	588.196
-55.246	445.362	1480.152	3187.911
-54.232	146.486	2670.305	3516.599
-53.217	99.496	2289.054	2596.827
-52.203	38.521	1900.564	1661.547
-51.188	32.794	1689.474	1433.577
-50.173	30.093	1646.410	1376.945
-49.159	48.959	1699.593	1564.333
-48.144	49.394	1714.490	1581.261
-47.130	32.375	1672.368	1415.680
-46.115	29.596	1658.458	1383.079
-45.100	29.463	1653.128	1377.587
-44.086	29.433	1650.583	1375.183
-43.071	29.398	1648.063	1372.768
-42.057	29.357	1645.593	1370.358
-41.042	29.466	1643.137	1369.065
-40.027	29.444	1641.820	1367.750
-39.013	29.419	1639.627	1365.685
-37.998	29.440	1638.112	1364.525
-36.984	29.420	1636.687	1363.132
-35.969	29.453	1635.964	1362.721
-34.954	29.639	1633.811	1362.243
-33.940	29.610	1631.935	1360.413
-32.925	29.546	1630.435	1358.642
-31.911	29.561	1628.759	1357.301
-30.896	29.546	1627.158	1355.801
-29.881	29.599	1625.088	1354.410
-28.867	29.578	1623.458	1352.841
-27.852	29.591	1622.003	1351.672
-26.838	29.518	1620.843	1350.121
-25.823	29.492	1619.947	1349.133
-24.809	29.597	1617.998	1348.218
-23.794	29.572	1617.027	1347.177
-22.779	29.552	1614.990	1345.281
-21.765	29.542	1613.456	1343.875
-20.750	29.556	1611.525	1342.314
-19.736	29.541	1610.725	1341.485
-18.721	29.608	1608.916	1340.413
-17.706	29.561	1607.665	1338.975
-16.692	29.646	1605.809	1337.991
-15.677	29.508	1604.863	1336.152
-14.663	29.561	1603.506	1335.350
-13.648	29.619	1602.348	1334.752
-12.633	29.666	1600.211	1333.260
-11.619	29.526	1599.010	1331.199
-10.604	29.502	1597.899	1330.044
-9.590	29.542	1596.685	1329.268
-8.575	29.586	1595.107	1328.220
-7.560	29.639	1593.526	1327.235
-6.546	29.591	1592.636	1326.093
-5.531	29.501	1591.764	1324.669
-4.517	29.534	1590.392	1323.713
-3.502	29.541	1589.079	1322.619
-2.487	29.631	1587.321	1321.748
-1.473	29.324	1575.707	1309.844
-0.458	26.740	1556.440	1275.614
0.556	21.655	1557.934	1246.123
1.571	19.492	1581.492	1249.213
2.586	19.225	1594.414	1257.364
3.600	17.703	1541.531	1204.801
4.615	9.905	1431.462	1067.316
5.629	1.835	1366.464	967.675
6.644	0.230	1358.288	951.661
7.659	0.095	1356.965	949.800
8.673	0.125	1355.946	949.194
9.688	0.000	1353.839	946.847
10.702	-0.103	1350.883	944.048
11.717	3.678	1356.984	972.062
12.731	12.375	1370.192	1036.507
13.746	17.377	1377.160	1073.331
14.761	17.316	1375.781	1071.772
15.775	16.236	1372.857	1062.603
16.790	15.244	1369.701	1053.834
17.804	14.474	1367.666	1047.340
18.819	14.133	1366.557	1044.258
19.834	13.884	1365.017	1041.428
20.848	13.605	1363.909	1038.739
21.863	13.236	1362.576	1035.324
22.877	13.177	1361.470	1034.019
23.892	13.060	1361.051	1032.877
24.907	13.098	1359.880	1032.136
25.921	13.110	1358.929	1031.400
26.936	13.149	1357.843	1030.724
27.950	13.260	1356.997	1030.685
28.965	13.318	1356.163	1030.321
29.980	13.290	1355.182	1029.314
30.994	13.345	1354.602	1029.124
32.009	13.442	1353.629	1028.892
33.023	13.382	1352.695	1027.720
34.038	13.360	1351.353	1026.475
35.053	13.315	1350.322	1025.320
36.067	13.325	1349.082	1024.347
37.082	13.392	1347.750	1023.662
38.096	13.325	1347.661	1023.087
39.111	13.280	1347.186	1022.362
40.126	13.263	1345.831	1021.137
41.140	13.068	1345.502	1019.595
42.155	13.174	1344.450	1019.362
43.169	13.140	1344.785	1019.315
44.184	13.122	1344.309	1018.751
45.199	13.142	1343.886	1018.465
46.213	13.115	1343.453	1017.877
47.228	13.204	1342.213	1017.396
48.242	13.203	1340.934	1016.333
49.257	13.360	1339.645	1016.231
50.271	13.172	1338.208	1013.897
51.286	13.308	1337.111	1013.809
52.301	13.335	1335.308	1012.518
53.315	13.187	1334.309	1010.768
54.330	13.203	1333.484	1010.150
55.344	13.210	1332.099	1009.052
56.359	13.163	1331.551	1008.260
57.374	13.137	1330.153	1006.955
58.388	13.081	1329.750	1006.218
59.403	13.106	1329.105	1005.796
60.417	13.137	1328.305	1005.286
61.432	13.055	1327.538	1004.119
62.447	12.979	1326.645	1002.894
63.461	13.017	1325.490	1002.161
64.476	13.066	1324.137	1001.352
65.490	12.985	1323.502	1000.290
66.505	12.967	1321.534	998.605
67.520	13.013	1320.764	998.214
68.534	13.192	1319.185	998.011
69.549	13.095	1318.361	996.717
70.563	13.069	1317.305	995.674
71.578	12.968	1316.434	994.318
72.593	12.934	1315.178	993.073
73.607	12.989	1314.298	992.652
74.622	13.015	1313.411	992.050
75.636	12.915	1313.125	991.151
76.651	12.971	1312.177	990.681
77.666	13.140	1311.219	990.884
78.680	13.102	1310.654	990.140
79.695	13.121	1310.108	989.756
80.709	12.986	1309.386	988.315
81.724	13.105	1308.487	988.256
82.739	13.137	1307.533	987.642
83.753	13.178	1306.843	987.281
84.768	13.167	1305.914	986.425
85.782	13.257	1304.620	985.895
86.797	13.225	1302.970	984.375
87.812	13.264	1301.690	983.547
88.826	13.241	1300.973	982.783
89.841	13.263	1299.748	981.902
90.855	13.261	1299.106	981.322
91.870	13.304	1298.256	980.845
92.884	13.239	1297.589	979.870
93.899	13.427	1296.218	979.861
94.914	13.360	1295.934	979.162
95.928	13.405	1294.809	978.494
96.943	13.353	1293.962	977.459
97.957	13.365	1293.315	976.953
98.972	13.277	1292.189	975.499
99.987	13.267	1291.028	974.474
101.001	13.371	1289.552	973.886
102.016	13.327	1288.769	972.951
103.030	13.289	1288.112	972.143
104.045	13.312	1286.988	971.347
105.060	13.265	1286.101	970.313
106.074	13.236	1284.453	968.813
107.089	13.153	1283.181	967.283
108.103	13.032	1282.348	965.861
109.118	13.191	1280.285	965.156
110.133	13.106	1279.595	964.050
111.147	13.164	1277.796	962.948
112.162	13.174	1276.530	961.966
113.176	13.203	1275.709	961.431
114.191	13.199	1274.950	960.754
115.206	13.292	1273.455	960.081
116.220	13.215	1272.376	958.735
117.235	13.217	1271.758	958.195
118.249	13.315	1270.241	957.537
119.264	13.238	1269.151	956.183
120.279	13.124	1268.522	954.968
121.293	13.241	1267.030	954.433
122.308	13.107	1266.362	953.075
123.322	13.168	1264.823	952.184
124.337	13.072	1264.224	951.097
125.352	13.059	1263.234	950.194
126.366	13.214	1261.606	949.775
127.381	13.034	1260.922	948.141
128.395	13.010	1259.689	946.992
129.410	13.091	1258.735	946.657
130.424	13.145	1258.211	946.487
131.439	13.240	1257.167	946.158
132.454	13.244	1256.288	945.441
133.468	13.328	1254.816	944.727
134.483	13.137	1254.691	943.460
135.497	13.281	1253.054	942.968
136.512	13.134	1252.190	941.391
137.527	13.152	1250.712	940.301
138.541	13.233	1249.386	939.686
139.556	13.157	1248.063	938.176
140.570	13.374	1246.992	938.514
141.585	13.283	1246.186	937.311
142.600	13.246	1244.842	936.008
143.614	13.388	1244.168	936.222
144.629	13.399	1242.538	934.973
145.643	13.364	1241.572	933.965
146.658	13.354	1240.650	933.133
147.673	13.280	1239.225	931.565
148.687	13.284	1237.951	930.546
149.702	13.234	1236.751	929.281
150.716	13.231	1235.164	927.989
151.731	13.290	1234.171	927.491
152.746	13.246	1233.189	926.427
153.760	13.383	1231.393	925.763
154.775	13.368	1231.200	925.452
155.789	13.499	1229.829	925.070
156.804	13.418	1228.788	923.754
157.819	13.424	1227.687	922.874
158.833	13.516	1226.657	922.534
159.848	13.500	1225.793	921.714
160.862	13.626	1224.612	921.446
161.877	13.556	1223.536	920.164
162.892	13.430	1222.645	918.713
163.906	13.434	1221.727	917.965
164.921	13.485	1221.256	917.811
165.935	13.434	1220.438	916.830
166.950	13.516	1219.559	916.542
167.964	13.431	1218.583	915.262
168.979	13.527	1217.926	915.217
169.994	13.538	1217.285	914.716
171.008	13.475	1216.470	913.672
172.023	13.616	1215.214	913.428
173.037	13.571	1214.909	912.866
174.052	13.583	1213.918	912.110
175.067	13.628	1212.492	911.205
176.081	13.626	1211.635	910.471
177.096	13.529	1210.738	909.179
178.110	13.489	1209.603	908.030
179.125	13.660	1208.197	907.832
180.140	13.609	1207.220	906.735
181.154	13.620	1205.937	905.752
182.169	13.669	1204.906	905.168
183.183	13.716	1203.870	904.566
184.198	13.777	1202.616	903.876
185.213	13.771	1201.335	902.800
186.227	13.688	1200.632	901.740
187.242	13.776	1199.507	901.294
188.256	13.864	1198.486	900.926
189.271	13.821	1197.477	899.852
190.286	13.755	1196.092	898.376
191.300	13.578	1195.805	897.123
192.315	13.561	1195.278	896.556
193.329	13.537	1194.522	895.779
194.344	13.551	1193.550	895.047
195.359	13.664	1192.891	895.083
196.373	13.726	1192.646	895.154
197.388	13.806	1192.022	895.036
198.402	13.942	1191.628	895.397
199.417	13.898	1190.657	894.352
200.432	13.999	1189.846	894.205
201.446	14.033	1188.699	893.446
202.461	13.955	1188.135	892.522
203.475	14.146	1186.898	892.543
204.490	13.997	1185.778	890.824
205.504	13.989	1184.304	889.592
206.519	14.049	1183.089	888.923
207.534	13.883	1182.264	887.334
208.548	14.042	1180.881	887.069
209.563	14.033	1180.446	886.618
210.577	14.037	1179.493	885.840
211.592	14.110	1178.751	885.594
212.607	14.117	1177.825	884.858
213.621	14.220	1177.007	884.716
214.636	14.065	1176.154	883.170
215.650	14.117	1175.427	882.824
216.665	14.192	1174.322	882.310
217.680	14.214	1173.659	881.853
218.694	14.195	1172.595	880.875
219.709	14.211	1171.939	880.387
220.723	14.208	1171.180	879.723
221.738	14.323	1170.235	879.545
222.753	14.278	1169.627	878.773
223.767	14.275	1168.895	878.128
224.782	14.375	1168.130	878.004
225.796	14.446	1167.541	877.857
226.811	14.379	1166.886	876.932
227.826	14.280	1166.689	876.185
228.840	14.428	1165.347	875.880
229.855	14.352	1164.885	875.057
230.869	14.403	1163.898	874.506
231.884	14.336	1163.209	873.560
232.899	14.342	1162.226	872.774
233.913	14.278	1162.018	872.207
234.928	14.359	1160.951	871.750
235.942	14.311	1160.181	870.848
236.957	14.323	1159.598	870.394
237.972	14.339	1158.842	869.834
238.986	14.332	1158.385	869.374
240.001	14.382	1157.835	869.146
241.015	14.411	1156.572	868.275
242.030	14.405	1155.749	867.545
243.045	14.562	1154.400	867.275
244.059	14.380	1154.430	866.274
245.074	14.442	1153.578	865.880
246.088	14.485	1152.390	865.132
247.103	14.538	1152.008	865.046
248.117	14.528	1151.413	864.470
249.132	14.517	1150.989	864.019
250.147	14.706	1150.096	864.249
251.161	14.850	1148.819	863.959
252.176	14.754	1148.325	863.016
253.190	14.703	1148.028	862.450
254.205	14.849	1147.143	862.466
255.220	14.941	1146.361	862.273
256.234	14.851	1146.222	861.627
257.249	14.857	1145.027	860.687
258.263	14.925	1144.652	860.675
259.278	14.973	1143.908	860.287
260.293	14.979	1143.295	859.785
261.307	14.916	1143.033	859.188
262.322	14.961	1142.393	858.859
263.336	14.994	1141.541	858.312
264.351	15.039	1140.674	857.813
265.366	15.020	1140.253	857.326
266.380	15.045	1139.588	856.876
267.395	15.038	1138.531	855.969
268.409	15.067	1137.639	855.372
269.424	14.927	1137.354	854.366
270.439	14.931	1136.971	854.026
271.453	15.087	1135.909	853.949
272.468	14.963	1134.979	852.542
273.482	14.915	1134.434	851.809
274.497	14.982	1134.064	851.799
275.512	15.024	1133.706	851.668
276.526	15.120	1132.440	851.132
277.541	15.031	1131.728	850.066
278.555	15.173	1130.906	850.095
279.570	15.120	1130.519	849.460
280.585	15.192	1129.272	848.812
281.599	15.227	1128.369	848.235
282.614	15.193	1127.476	847.320
283.628	15.194	1126.425	846.458
284.643	15.221	1125.400	845.748
285.657	15.152	1125.156	845.143
286.672	15.145	1124.011	844.173
287.687	15.262	1122.623	843.647
288.701	15.262	1122.121	843.195
289.716	15.330	1121.541	843.023
290.730	15.372	1120.645	842.488
291.745	15.437	1120.069	842.308
292.760	15.381	1119.556	841.565
293.774	15.356	1119.365	841.222
294.789	15.398	1118.433	840.657
295.803	15.414	1117.734	840.136
296.818	15.502	1116.729	839.746
297.833	15.498	1116.334	839.358
298.847	15.475	1115.403	838.468
299.862	15.617	1114.292	838.265
300.876	15.498	1114.080	837.440
301.891	15.349	1113.673	836.316
302.906	15.450	1113.085	836.303
303.920	15.567	1112.296	836.218
304.935	15.595	1111.544	835.722
305.949	15.680	1110.978	835.640
306.964	15.646	1110.091	834.734
307.979	15.595	1109.490	833.954
308.993	15.712	1108.543	833.747
310.008	15.589	1108.021	832.671
311.022	15.709	1106.807	832.282
312.037	15.699	1106.321	831.791
313.052	15.666	1105.435	830.891
314.066	15.671	1104.274	829.970
315.081	15.449	1104.015	828.602
316.095	15.591	1102.971	828.447
317.110	15.632	1102.279	828.054
318.125	15.661	1101.698	827.691
319.139	15.714	1101.066	827.403
320.154	15.653	1100.647	826.714
321.168	15.477	1100.022	825.305
322.183	15.630	1099.318	825.455
323.197	15.704	1098.559	825.177
324.212	15.725	1097.796	824.635
325.227	15.776	1097.282	824.423
326.241	15.802	1096.789	824.110
327.256	15.735	1095.990	823.108
328.270	15.697	1094.782	821.940
329.285	15.732	1093.994	821.448
330.300	15.766	1093.067	820.843
331.314	15.765	1091.950	819.928
332.329	15.724	1091.232	819.115
333.343	15.736	1090.522	818.571
334.358	15.885	1089.477	818.437
335.373	15.929	1088.903	818.149
336.387	15.936	1088.064	817.479
337.402	15.905	1087.517	816.844
338.416	16.060	1086.613	816.846
339.431	15.931	1086.250	815.874
340.446	16.061	1085.687	816.008
341.460	16.060	1085.027	815.436
342.475	16.047	1084.133	814.628
343.489	16.148	1082.971	814.171
344.504	16.166	1082.035	813.485
345.519	16.158	1081.607	813.050
346.533	16.186	1080.441	812.236
347.548	16.245	1079.781	811.956
348.562	16.216	1079.028	811.175
349.577	16.116	1078.432	810.174
350.592	16.149	1077.327	809.432
351.606	16.113	1076.572	808.621
352.621	15.980	1076.861	808.128
353.635	16.071	1075.846	807.731
354.650	16.120	1075.126	807.355
355.665	16.181	1073.993	806.724
356.679	16.200	1073.559	806.417
357.694	16.326	1072.943	806.486
358.708	16.257	1072.309	805.605
359.723	16.313	1071.331	805.067
360.738	16.328	1070.945	804.776
361.752	16.270	1070.579	804.157
362.767	16.360	1069.771	803.907
363.781	16.343	1069.222	803.340
364.796	16.302	1069.099	802.982
365.810	16.419	1068.229	802.813
366.825	16.400	1068.115	802.568
367.840	16.496	1066.956	802.079
368.854	16.520	1066.524	801.799
369.869	16.450	1065.770	800.831
370.883	16.633	1064.798	800.896
371.898	16.478	1064.292	799.709
372.913	16.568	1063.426	799.415
373.927	16.561	1063.111	799.074
374.942	16.532	1062.603	798.486
375.956	16.632	1062.303	798.662
376.971	16.638	1061.390	797.929
377.986	16.624	1061.190	797.642
379.000	16.615	1060.803	797.240
380.015	16.817	1059.954	797.483
381.029	16.825	1058.993	796.724
382.044	16.670	1058.763	795.754
383.059	16.721	1057.765	795.174
384.073	16.746	1056.858	794.537
385.088	16.772	1055.819	793.809
386.102	16.968	1054.771	793.867
387.117	16.752	1054.085	792.269
388.132	16.755	1053.471	791.751
389.146	16.715	1052.189	790.532
390.161	16.841	1051.810	790.766
391.175	16.731	1051.238	789.753
392.190	16.753	1050.874	789.515
393.205	16.853	1049.895	789.173
394.219	16.918	1048.989	788.722
395.234	16.851	1048.016	787.612
396.248	16.884	1046.740	786.735
397.263	16.900	1046.293	786.404
398.278	16.868	1045.625	785.685
399.292	16.925	1044.353	784.921
400.307	16.829	1043.873	784.048
401.321	16.803	1043.337	783.457
402.336	16.844	1043.038	783.355
403.350	16.793	1042.359	782.539
404.365	16.868	1041.583	782.233
405.380	16.922	1040.771	781.804
406.394	17.034	1040.284	781.882
407.409	16.992	1038.920	780.595
408.423	16.983	1038.440	780.122
409.438	17.045	1037.905	779.939
410.453	17.180	1036.930	779.755
411.467	17.186	1036.498	779.391
412.482	17.179	1036.096	778.987
413.496	17.308	1035.185	778.823
414.511	17.174	1034.789	777.843
415.526	17.338	1034.353	778.197
416.540	17.240	1033.796	777.260
417.555	17.358	1033.073	777.190
418.569	17.333	1032.748	776.759
419.584	17.290	1032.294	776.152
420.599	17.422	1031.672	776.219
421.613	103.175	1322.949	1468.752
422.628	94.419	1365.374	1468.853
