DTS Sentinel unit serial number:	SN413079Multiplexer serial number:	ORYXHardware model number:	OX4-SRSoftware version number:	ORYX F/W v4.00 Oryx Data Collector v3.7.2.0data status	okinstallation	princeton_trtdifferential loss correction	single-endedforward channel	channel 2reverse channel	N/Adate	2019/09/14time	17:23:35forward acquisition time	60.00reverse acquisition time	0.00gamma	496.2192k internal	0.2309k external	0.2309temperature offset calibration	1.0119default loss term (dB/km)	0.3790temperature slope calibration	1.0000multiplexer offset coefficient	1.0000multiplexer slope coefficient	1.0000fibre end	0.00T internal ref (°C)	37.81T ext. ref 1 (°C)	5.05T ext. ref 2 (°C)	32.52length (m)	temperature (°C)	Stokes	anti-Stokes-747.200	-200.000	-0.038	0.235
-746.185	12.813	-0.245	0.193
-745.171	-62.476	0.020	-0.009
-744.156	14.592	0.411	0.326
-743.142	-23.996	-0.333	0.202
-742.127	-200.000	-0.024	0.295
-741.112	-34.343	-0.106	-0.059
-740.098	14.142	0.139	-0.110
-739.083	-200.000	0.051	0.262
-738.069	-133.024	-0.053	-0.007
-737.054	-200.000	0.015	0.207
-736.039	-40.677	-0.102	-0.054
-735.025	-200.000	0.033	0.172
-734.010	-147.628	-0.195	0.017
-732.996	59.983	-0.105	-0.105
-731.981	10.064	-0.180	0.139
-730.966	139.883	-0.031	-0.042
-729.952	-120.546	-0.247	-0.043
-728.937	-79.033	-0.367	0.127
-727.923	51.747	-0.194	-0.188
-726.908	73.337	-0.253	-0.269
-725.894	-44.513	-0.213	-0.108
-724.879	800.000	0.067	0.230
-723.864	-25.948	0.226	0.135
-722.850	708.334	-0.019	-0.052
-721.835	40.944	-0.061	0.056
-720.821	370.847	-0.065	-0.133
-719.806	19.728	-0.186	-0.152
-718.791	-92.806	0.061	0.017
-717.777	-200.000	0.012	0.148
-716.762	-200.000	0.016	0.155
-715.748	-148.791	0.054	-0.004
-714.733	-46.481	-0.253	0.126
-713.718	-200.000	0.018	-0.115
-712.704	117.885	0.099	-0.123
-711.689	-38.259	-0.164	0.088
-710.675	-40.815	-0.025	0.013
-709.660	-129.044	0.363	0.052
-708.645	191.018	-0.202	-0.308
-707.631	-126.300	-0.389	-0.059
-706.616	800.000	0.134	0.557
-705.602	-129.290	0.316	0.045
-704.587	-200.000	-0.031	-0.460
-703.572	-200.000	0.015	-0.135
-702.558	140.257	-0.012	-0.015
-701.543	87.863	-0.193	-0.217
-700.529	-127.108	-0.263	0.039
-699.514	800.000	-0.100	0.405
-698.499	-31.257	-0.299	0.171
-697.485	-71.681	0.060	0.023
-696.470	-200.000	-0.006	0.062
-695.456	-200.000	0.012	0.205
-694.441	-200.000	-0.024	-0.126
-693.426	800.000	0.067	-0.292
-692.412	800.000	0.121	0.345
-691.397	-168.162	-0.551	0.022
-690.383	581.197	0.071	0.175
-689.368	-200.000	-0.018	-0.254
-688.354	-53.697	-0.244	0.113
-687.339	462.193	-0.013	-0.030
-686.324	799.061	0.121	-0.338
-685.310	-111.161	-0.121	-0.025
-684.295	285.248	0.195	0.355
-683.281	-200.000	0.012	-0.231
-682.266	261.242	-0.075	-0.131
-681.251	-18.666	0.020	-0.012
-680.237	215.053	-0.134	-0.216
-679.222	-69.073	-0.209	0.081
-678.208	-152.088	0.204	-0.015
-677.193	166.949	-0.187	-0.269
-676.178	-181.415	-0.129	-0.003
-675.164	-79.695	-0.122	-0.042
-674.149	-70.974	-0.261	0.100
-673.135	800.000	-0.107	-0.331
-672.120	-144.626	-0.199	-0.019
-671.105	180.549	-0.124	0.184
-670.091	-130.799	0.311	0.042
-669.076	605.067	0.096	-0.241
-668.062	-11.706	0.281	-0.187
-667.047	12.981	0.137	0.107
-666.032	127.306	-0.031	-0.040
-665.018	-200.000	-0.031	-0.270
-664.003	-70.060	-0.091	-0.035
-662.989	-200.000	-0.076	0.364
-661.974	-12.410	0.010	0.007
-660.959	-86.470	-0.194	0.060
-659.945	-200.000	-0.019	0.341
-658.930	17.484	0.117	0.094
-657.916	78.863	-0.317	0.344
-656.901	-66.248	0.474	0.191
-655.886	-134.316	0.107	0.013
-654.872	9.223	-0.166	0.127
-653.857	800.000	-0.057	-0.215
-652.843	182.723	0.075	-0.111
-651.828	800.000	-0.034	-0.132
-650.814	-4.040	0.163	-0.114
-649.799	-200.000	-0.017	-0.132
-648.784	-53.974	-0.368	-0.170
-647.770	-118.948	-0.075	-0.013
-646.755	-100.181	-0.253	-0.064
-645.741	207.694	0.200	0.316
-644.726	-53.685	0.097	0.045
-643.711	-108.504	0.272	0.059
-642.697	-152.699	-0.140	-0.010
-641.682	23.601	-0.162	-0.135
-640.668	-200.000	-0.028	-0.210
-639.653	800.000	-0.039	0.130
-638.638	208.958	0.086	0.136
-637.624	15.247	0.151	-0.120
-636.609	-89.971	-0.240	0.071
-635.595	-200.000	0.022	-0.148
-634.580	-200.000	-0.076	-0.352
-633.565	-38.649	0.216	-0.116
-632.551	89.942	0.064	-0.072
-631.536	800.000	-0.053	0.189
-630.522	-29.583	-0.141	0.082
-629.507	-51.375	0.247	0.117
-628.492	256.777	-0.021	-0.036
-627.478	800.000	0.096	0.268
-626.463	-200.000	0.015	-0.193
-625.449	40.340	-0.256	0.233
-624.434	75.320	0.152	0.162
-623.419	-65.174	0.091	0.037
-622.405	-35.613	-0.270	-0.148
-621.390	800.000	-0.043	-0.171
-620.376	104.046	-0.223	0.265
-619.361	-79.143	-0.249	-0.086
-618.346	-200.000	0.012	-0.245
-617.332	-200.000	0.007	0.161
-616.317	-90.817	-0.336	0.098
-615.303	119.589	0.098	0.122
-614.288	678.604	-0.081	-0.212
-613.273	17.112	0.046	0.037
-612.259	-200.000	-0.010	-0.052
-611.244	800.000	-0.110	-0.325
-610.230	23.162	-0.244	-0.202
-609.215	-200.000	-0.003	0.291
-608.201	-200.000	0.078	0.363
-607.186	-200.000	-0.078	-0.357
-606.171	-200.000	0.002	-0.130
-605.157	-200.000	-0.008	-0.417
-604.142	164.226	0.193	0.274
-603.128	-101.391	-0.127	-0.031
-602.113	-35.677	0.085	0.046
-601.098	-89.920	0.040	0.012
-600.084	-200.000	-0.008	0.243
-599.069	-3.658	0.116	0.081
-598.055	571.386	-0.101	-0.250
-597.040	-136.144	0.194	-0.023
-596.025	157.629	0.095	0.133
-595.011	752.548	0.094	0.257
-593.996	-200.000	-0.006	0.099
-592.982	278.059	0.084	0.151
-591.967	-111.588	-0.108	-0.022
-590.952	35.338	0.281	-0.249
-589.938	384.488	-0.139	0.289
-588.923	326.084	0.153	-0.296
-587.909	-36.602	-0.157	-0.085
-586.894	-200.000	-0.044	-0.391
-585.879	339.746	-0.089	0.174
-584.865	800.000	0.106	-0.341
-583.850	171.288	0.064	-0.093
-582.836	-13.673	-0.293	0.192
-581.821	800.000	-0.047	-0.183
-580.806	-32.650	0.227	0.127
-579.792	38.261	-0.102	0.091
-578.777	-79.360	-0.265	-0.091
-577.763	248.624	0.163	-0.279
-576.748	-200.000	0.032	-0.265
-575.733	-161.915	-0.117	0.006
-574.719	-22.662	0.060	-0.037
-573.704	80.707	0.284	0.309
-572.690	-140.647	0.098	-0.010
-571.675	374.216	-0.063	-0.129
-570.661	49.832	-0.181	0.172
-569.646	43.390	0.104	-0.096
-568.631	27.794	0.152	0.129
-567.617	309.140	-0.181	0.341
-566.602	798.759	0.071	0.199
-565.588	15.702	-0.267	-0.212
-564.573	-56.567	-0.363	-0.162
-563.558	-200.000	0.043	0.352
-562.544	141.340	-0.145	0.193
-561.529	-154.484	-0.118	-0.008
-560.515	-200.000	-0.047	-0.305
-559.500	158.412	-0.139	-0.195
-558.485	-165.462	-0.260	-0.011
-557.471	800.000	-0.081	0.319
-556.456	-200.000	-0.005	-0.312
-555.442	-200.000	0.016	-0.161
-554.427	-9.949	0.134	0.090
-553.412	314.941	0.136	0.258
-552.398	-96.076	-0.309	-0.083
-551.383	-37.442	-0.169	0.091
-550.369	-200.000	-0.250	-0.001
-549.354	-49.959	-0.154	0.074
-548.339	800.000	0.116	0.358
-547.325	111.231	-0.116	-0.141
-546.310	-200.000	0.014	0.090
-545.296	481.412	0.027	0.061
-544.281	-173.524	-0.266	-0.008
-543.266	22.971	-0.202	-0.167
-542.252	54.479	0.237	-0.230
-541.237	-89.434	-0.164	0.049
-540.223	-200.000	0.009	0.122
-539.208	800.000	-0.067	-0.256
-538.193	95.789	-0.028	0.033
-537.179	-103.949	-0.029	0.007
-536.164	94.306	-0.124	0.142
-535.150	-121.843	0.206	0.034
-534.135	-119.687	-0.231	-0.040
-533.121	566.971	-0.078	-0.191
-532.106	647.521	0.108	-0.279
-531.091	-22.165	-0.083	0.051
-530.077	386.620	0.068	-0.142
-529.062	-20.645	0.200	-0.124
-528.048	-15.298	-0.093	-0.060
-527.033	249.703	0.066	-0.113
-526.018	-140.725	-0.065	0.007
-525.004	54.464	-0.041	0.040
-523.989	-200.000	-0.024	-0.109
-522.975	-70.334	-0.094	0.036
-521.960	-140.412	0.183	0.019
-520.945	-141.876	-0.049	0.005
-519.931	-200.000	0.018	-0.168
-518.916	-200.000	-0.040	0.329
-517.902	800.000	-0.003	-0.013
-516.887	-200.000	0.008	-0.049
-515.872	-200.000	0.005	-0.045
-514.858	-37.619	-0.215	-0.116
-513.843	-28.923	0.166	0.096
-512.829	3.745	0.070	0.052
-511.814	-200.000	-0.056	-0.341
-510.799	-67.844	0.216	0.085
-509.785	8.117	-0.136	0.103
-508.770	72.084	-0.051	-0.054
-507.756	800.000	0.029	-0.113
-506.741	-101.524	-0.165	-0.040
-505.726	-163.041	0.158	0.008
-504.712	110.537	-0.322	-0.390
-503.697	419.754	-0.088	-0.189
-502.683	-200.000	0.011	0.373
-501.668	-200.000	-0.057	0.313
-500.653	-157.328	-0.227	-0.014
-499.639	-82.120	-0.077	0.025
-498.624	-53.754	0.106	0.049
-497.610	-134.464	0.338	-0.042
-496.595	73.146	0.109	-0.115
-495.581	-116.171	0.076	-0.014
-494.566	-200.000	0.013	-0.104
-493.551	-54.911	0.163	0.074
-492.537	800.000	-0.041	0.138
-491.522	-8.638	0.034	0.023
-490.508	-200.000	-0.003	0.118
-489.493	-200.000	0.002	0.262
-488.478	-161.734	-0.116	0.006
-487.464	-12.549	-0.242	0.159
-486.449	800.000	-0.108	0.319
-485.435	74.358	-0.140	0.148
-484.420	107.561	-0.077	-0.092
-483.405	29.935	-0.239	-0.205
-482.391	-200.000	0.004	-0.208
-481.376	107.178	0.086	0.103
-480.362	459.951	0.182	-0.406
-479.347	-200.000	0.015	-0.142
-478.332	-200.000	-0.002	0.144
-477.318	-118.743	0.299	-0.053
-476.303	-100.303	0.171	0.043
-475.289	-12.073	-0.186	0.122
-474.274	-200.000	0.200	-0.000
-473.259	-200.000	0.050	0.242
-472.245	90.029	0.147	0.166
-471.230	39.717	0.279	0.251
-470.216	187.691	0.088	-0.131
-469.201	71.690	-0.164	-0.172
-468.186	-200.000	0.023	-0.108
-467.172	50.536	0.153	-0.145
-466.157	10.331	-0.245	-0.187
-465.143	38.374	-0.151	0.135
-464.128	57.035	-0.223	-0.219
-463.113	211.755	0.071	0.113
-462.099	-200.000	-0.018	-0.248
-461.084	-86.361	0.228	-0.071
-460.070	95.190	0.122	0.139
-459.055	425.755	0.113	-0.245
-458.040	-96.641	-0.155	0.041
-457.026	-200.000	0.021	0.263
-456.011	-83.365	-0.159	-0.051
-454.997	800.000	-0.128	0.403
-453.982	-26.811	0.299	-0.175
-452.968	146.891	-0.055	-0.074
-451.953	-114.548	-0.142	-0.027
-450.938	-200.000	0.038	-0.322
-449.924	-83.617	-0.413	-0.133
-448.909	135.216	0.363	-0.473
-447.895	764.151	-0.059	0.162
-446.880	-31.750	-0.175	0.099
-445.865	800.000	0.042	0.176
-444.851	664.110	-0.085	0.220
-443.836	17.234	0.140	-0.112
-442.822	-136.303	0.298	-0.035
-441.807	240.301	-0.187	-0.314
-440.792	30.208	-0.089	-0.076
-439.778	659.206	-0.063	0.162
-438.763	207.594	0.133	-0.209
-437.749	-82.165	0.206	0.068
-436.734	-200.000	-0.048	0.314
-435.719	-200.000	-0.088	-0.437
-434.705	-200.000	-0.001	-0.108
-433.690	76.668	0.155	0.165
-432.676	-104.475	-0.186	-0.043
-431.661	-72.735	0.197	-0.073
-430.646	-32.680	-0.262	-0.146
-429.632	-65.867	0.033	0.013
-428.617	-11.643	0.101	0.067
-427.603	-81.820	-0.352	-0.116
-426.588	111.471	0.164	-0.199
-425.573	307.192	-0.108	-0.202
-424.559	-163.328	-0.137	-0.007
-423.544	-200.000	0.011	0.064
-422.530	-38.584	0.061	-0.032
-421.515	-200.000	0.019	-0.145
-420.500	19.677	-0.203	-0.164
-419.486	111.559	0.183	0.222
-418.471	-200.000	0.018	-0.095
-417.457	-57.374	0.345	0.152
-416.442	540.724	0.019	0.046
-415.428	36.335	0.039	0.035
-414.413	331.340	-0.075	-0.146
-413.398	127.054	0.145	0.184
-412.384	-72.035	0.142	0.053
-411.369	-78.340	0.312	-0.107
-410.355	-50.309	0.039	0.019
-409.340	-200.000	-0.046	0.393
-408.325	-37.961	-0.190	-0.101
-407.311	-22.660	0.326	-0.198
-406.296	-58.170	0.109	0.048
-405.282	800.000	-0.020	0.063
-404.267	215.406	-0.043	0.068
-403.252	-200.000	-0.015	0.355
-402.238	-200.000	0.004	-0.069
-401.223	690.836	0.068	-0.178
-400.209	375.587	0.130	0.265
-399.194	-28.348	0.085	0.049
-398.179	-200.000	-0.031	0.189
-397.165	364.818	0.147	-0.297
-396.150	705.489	0.095	-0.251
-395.136	-29.229	0.184	0.105
-394.121	-100.061	0.368	0.092
-393.106	586.741	0.069	0.171
-392.092	-200.000	-0.032	0.189
-391.077	800.000	0.114	0.370
-390.063	61.053	-0.035	0.035
-389.048	-200.000	-0.063	0.657
-388.033	-35.943	0.216	0.117
-387.019	115.086	0.053	-0.065
-386.004	95.145	-0.112	-0.128
-384.990	-200.000	0.020	0.178
-383.975	215.555	0.042	-0.067
-382.960	278.697	0.131	-0.235
-381.946	-179.711	-0.208	-0.004
-380.931	-200.000	-0.044	0.300
-379.917	282.669	0.157	0.282
-378.902	-138.523	-0.292	0.032
-377.888	264.877	0.224	0.390
-376.873	-155.088	-0.222	0.015
-375.858	-171.136	0.091	0.003
-374.844	-97.649	0.046	0.012
-373.829	-112.863	0.149	-0.030
-372.815	-121.835	-0.157	0.026
-371.800	-16.844	0.105	-0.066
-370.785	44.464	0.138	0.127
-369.771	-81.759	-0.340	-0.112
-368.756	197.398	0.044	-0.067
-367.742	-123.978	0.144	0.023
-366.727	-28.536	-0.194	-0.112
-365.712	314.929	0.012	0.023
-364.698	-200.000	0.017	0.124
-363.683	-112.757	-0.162	-0.032
-362.669	-133.493	-0.283	0.036
-361.654	132.749	-0.078	0.100
-360.639	343.133	-0.223	0.437
-359.625	53.067	0.091	-0.087
-358.610	105.643	-0.062	0.074
-357.596	-97.978	-0.314	-0.081
-356.581	254.109	0.140	-0.239
-355.566	800.000	0.137	-0.387
-354.552	90.338	0.240	0.269
-353.537	-200.000	-0.005	-0.139
-352.523	-200.000	0.067	-0.502
-351.508	170.703	-0.048	-0.069
-350.493	180.516	0.141	-0.208
-349.479	133.524	-0.337	-0.436
-348.464	166.070	0.163	-0.230
-347.450	-157.607	-0.137	-0.008
-346.435	107.440	0.285	-0.339
-345.420	-59.850	-0.071	0.030
-344.406	800.000	-0.139	-0.543
-343.391	635.054	0.047	0.120
-342.377	-200.000	-0.011	-0.277
-341.362	-155.194	0.245	0.016
-340.348	19.708	0.145	-0.116
-339.333	32.382	-0.044	-0.038
-338.318	-147.179	0.419	-0.036
-337.304	169.944	-0.097	0.138
-336.289	-109.500	-0.099	0.021
-335.275	315.061	-0.138	0.260
-334.260	-9.192	-0.048	0.032
-333.245	-200.000	0.044	-0.226
-332.231	-126.050	-0.129	-0.019
-331.216	-107.642	-0.253	-0.055
-330.202	-156.751	0.111	0.007
-329.187	-71.532	0.072	-0.027
-328.172	-89.529	-0.090	0.026
-327.158	20.163	0.252	0.204
-326.143	-26.683	0.243	-0.142
-325.129	-142.923	0.245	0.024
-324.114	-117.910	-0.196	0.035
-323.099	-106.488	-0.113	0.025
-322.085	45.654	0.113	0.105
-321.070	-34.818	0.094	0.051
-320.056	259.331	0.077	0.132
-319.041	-96.516	0.105	-0.028
-318.026	665.614	0.107	-0.276
-317.012	13.894	0.139	0.108
-315.997	800.000	-0.062	-0.181
-314.983	800.000	0.109	0.383
-313.968	-145.715	0.175	0.016
-312.953	-38.571	-0.092	-0.049
-311.939	-25.946	-0.015	-0.009
-310.924	-41.624	0.076	-0.039
-309.910	-8.433	0.154	0.104
-308.895	-200.000	-0.032	-0.317
-307.880	609.338	0.098	-0.244
-306.866	189.162	-0.257	0.384
-305.851	-124.222	0.119	0.019
-304.837	281.900	0.044	0.079
-303.822	-94.100	-0.172	0.047
-302.807	673.975	-0.135	0.349
-301.793	-200.000	-0.031	-0.363
-300.778	-200.000	-0.024	0.333
-299.764	800.000	0.026	0.108
-298.749	-103.670	0.157	0.037
-297.735	-15.654	0.126	-0.080
-296.720	-43.482	-0.224	-0.113
-295.705	75.882	0.261	0.275
-294.691	220.237	0.240	0.384
-293.676	-118.507	-0.161	0.029
-292.662	119.337	-0.174	-0.215
-291.647	-90.488	0.156	0.045
-290.632	698.457	-0.075	-0.196
-289.618	-51.160	-0.253	0.119
-288.603	612.125	0.084	-0.209
-287.589	-66.037	-0.334	-0.133
-286.574	-130.328	0.224	-0.030
-285.559	-96.737	0.208	0.055
-284.545	-8.624	0.297	-0.199
-283.530	-79.939	-0.083	0.028
-282.516	-102.579	-0.397	0.095
-281.501	-27.763	0.162	0.094
-280.486	-2.283	0.299	0.209
-279.472	-103.310	0.312	0.074
-278.457	49.949	-0.100	-0.094
-277.443	47.302	0.114	0.106
-276.428	264.863	0.057	0.100
-275.413	-200.000	-0.003	-0.096
-274.399	-57.557	-0.435	0.190
-273.384	-120.716	0.043	-0.007
-272.370	-175.054	0.130	-0.004
-271.355	-200.000	-0.004	0.255
-270.340	46.053	0.327	-0.302
-269.326	41.952	0.146	-0.132
-268.311	-200.000	-0.023	-0.144
-267.297	708.692	0.085	-0.225
-266.282	275.314	-0.252	-0.445
-265.267	-139.988	0.347	-0.036
-264.253	-61.378	-0.536	-0.225
-263.238	-200.000	0.021	0.269
-262.224	765.717	0.088	0.239
-261.209	324.945	0.091	0.174
-260.195	11.451	-0.056	0.042
-259.180	143.562	0.317	-0.421
-258.165	31.195	0.106	0.091
-257.151	-124.310	-0.207	-0.032
-256.136	-11.968	0.312	0.204
-255.122	23.775	0.046	-0.037
-254.107	74.071	0.036	-0.038
-253.092	-134.465	-0.319	0.039
-252.078	800.000	0.067	0.279
-251.063	-92.646	-0.052	0.015
-250.049	73.120	0.306	-0.319
-249.034	-188.195	0.295	0.004
-248.019	20.793	0.142	0.115
-247.005	154.611	0.032	0.044
-245.990	-70.943	-0.209	0.078
-244.976	217.559	-0.102	-0.161
-243.961	-16.785	-0.355	0.223
-242.946	-103.552	0.204	-0.048
-241.932	-200.000	0.028	-0.182
-240.917	93.870	-0.074	0.084
-239.903	-29.235	-0.312	0.178
-238.888	-47.838	0.099	0.048
-237.873	353.247	0.129	0.255
-236.859	58.369	0.113	0.110
-235.844	16.973	0.165	-0.130
-234.830	-67.795	-0.126	0.049
-233.815	3.447	-0.185	0.134
-232.800	-200.000	-0.012	-0.281
-231.786	800.000	0.084	-0.309
-230.771	-79.436	0.113	-0.038
-229.757	17.780	-0.069	-0.055
-228.742	372.060	0.125	-0.253
-227.727	800.000	-0.055	0.168
-226.713	-145.959	-0.259	-0.023
-225.698	732.422	0.112	-0.298
-224.684	199.299	0.045	-0.068
-223.669	-87.074	-0.185	-0.056
-222.655	-31.135	0.161	0.090
-221.640	-40.131	0.174	-0.090
-220.625	-24.124	-0.105	-0.062
-219.611	-200.000	0.016	0.278
-218.596	44.135	0.059	-0.054
-217.582	-71.548	0.233	0.087
-216.567	-200.000	-0.013	0.206
-215.552	-159.658	-0.152	-0.008
-214.538	44.750	-0.367	0.336
-213.523	-52.619	0.196	0.090
-212.509	-99.550	0.232	-0.058
-211.494	-67.269	-0.173	-0.068
-210.479	-200.000	-0.021	0.112
-209.465	-19.838	0.101	-0.062
-208.450	-57.770	0.289	-0.126
-207.436	391.355	0.033	0.068
-206.421	-91.137	0.274	-0.078
-205.406	800.000	0.010	0.040
-204.392	-4.820	0.060	0.041
-203.377	8.443	-0.128	0.096
-202.363	-81.920	0.150	-0.049
-201.348	229.036	0.084	-0.137
-200.333	91.525	-0.194	-0.216
-199.319	282.820	0.208	0.371
-198.304	-171.708	-0.123	0.004
-197.290	441.650	-0.092	-0.200
-196.275	271.679	0.072	0.125
-195.260	-200.000	0.017	0.115
-194.246	-198.038	-0.206	0.001
-193.231	800.000	-0.069	0.295
-192.217	337.665	0.228	0.441
-191.202	258.194	-0.097	0.166
-190.187	-106.475	0.299	0.066
-189.173	17.776	-0.264	-0.209
-188.158	800.000	0.072	0.215
-187.144	536.287	-0.059	0.140
-186.129	414.778	-0.159	0.336
-185.114	800.000	0.089	-0.252
-184.100	800.000	-0.059	0.190
-183.085	265.423	0.215	0.372
-182.071	-200.000	0.021	0.288
-181.056	-179.458	-0.165	-0.004
-180.042	-95.275	-0.126	0.034
-179.027	489.551	-0.145	-0.331
-178.012	800.000	0.012	0.048
-176.998	-200.000	0.001	-0.051
-175.983	-200.000	-0.007	-0.121
-174.969	2.312	-0.078	0.056
-173.954	-105.412	0.150	0.034
-172.939	800.000	-0.031	0.105
-171.925	266.948	-0.125	0.217
-170.910	-137.544	-0.323	0.036
-169.896	166.530	-0.097	0.136
-168.881	800.000	0.018	0.063
-167.866	-130.177	0.154	0.021
-166.852	-200.000	-0.008	-0.168
-165.837	220.667	-0.213	0.340
-164.823	-200.000	0.051	0.288
-163.808	-200.000	0.011	0.059
-162.793	489.107	0.236	-0.536
-161.779	-200.000	0.003	-0.270
-160.764	-200.000	0.030	0.262
-159.750	189.627	-0.148	0.221
-158.735	-4.401	0.124	-0.085
-157.720	133.062	-0.160	-0.205
-156.706	-100.043	-0.093	0.023
-155.691	-200.000	0.012	-0.281
-154.677	-39.607	-0.058	0.030
-153.662	312.452	-0.082	-0.153
-152.647	-70.829	-0.378	-0.142
-151.633	-200.000	0.020	-0.132
-150.618	-141.705	0.124	-0.012
-149.604	-27.236	0.033	0.019
-148.589	-15.448	-0.203	0.129
-147.574	800.000	0.148	0.417
-146.560	-18.930	-0.202	0.125
-145.545	592.037	0.034	-0.084
-144.531	-112.163	-0.266	0.053
-143.516	200.688	-0.107	0.163
-142.502	-149.126	0.160	0.013
-141.487	800.000	0.054	-0.194
-140.472	-88.228	-0.142	-0.042
-139.458	-106.975	0.138	-0.030
-138.443	-70.645	0.395	0.148
-137.429	800.000	0.103	-0.416
-136.414	-200.000	-0.006	-0.103
-135.399	800.000	0.044	0.171
-134.385	527.206	0.045	0.106
-133.370	46.619	0.238	0.219
-132.356	800.000	-0.090	-0.304
-131.341	24.046	-0.051	-0.042
-130.326	-141.914	-0.242	0.024
-129.312	150.172	-0.009	0.011
-128.297	-72.516	-0.102	0.037
-127.283	-200.000	-0.007	-0.041
-126.268	223.345	-0.248	-0.397
-125.253	-200.000	0.010	-0.126
-124.239	-118.495	0.132	-0.023
-123.224	243.848	0.052	-0.087
-122.210	291.272	0.072	-0.131
-121.195	-44.984	-0.200	0.099
-120.180	-25.692	0.103	0.061
-119.166	20.545	-0.311	0.250
-118.151	-118.895	-0.007	0.001
-117.137	430.746	-0.083	0.177
-116.122	-30.925	0.162	-0.090
-115.107	-200.000	-0.045	-0.445
-114.093	-200.000	-0.003	0.083
-113.078	800.000	0.155	0.464
-112.064	-123.138	-0.090	-0.014
-111.049	-193.373	-0.135	-0.001
-110.034	-123.081	0.128	0.020
-109.020	168.197	0.114	-0.161
-108.005	97.685	0.182	-0.207
-106.991	-55.885	0.332	0.147
-105.976	587.745	0.126	-0.306
-104.962	89.094	0.117	0.129
-103.947	176.918	-0.040	0.058
-102.932	-135.018	0.248	-0.030
-101.918	-58.293	0.306	-0.132
-100.903	14.947	-0.202	0.157
-99.889	288.988	0.042	0.075
-98.874	-200.000	-0.055	0.514
-97.859	-72.410	-0.076	0.028
-96.845	114.364	0.068	-0.082
-95.830	-73.672	0.139	-0.050
-94.816	-95.521	-0.112	0.030
-93.801	800.000	-0.046	0.190
-92.786	7.263	0.098	-0.072
-91.772	-89.660	0.213	-0.062
-90.757	216.118	0.194	-0.305
-89.743	800.000	0.085	0.313
-88.728	70.355	-0.043	0.044
-87.713	-52.872	0.070	-0.032
-86.699	800.000	-0.048	-0.133
-85.684	-200.000	-0.012	-0.298
-84.670	-24.156	0.215	-0.127
-83.655	-200.000	-0.070	-0.373
-82.640	110.089	-0.038	-0.045
-81.626	-27.465	0.125	0.072
-80.611	-133.765	-0.233	-0.029
-79.597	-7.339	0.086	0.058
-78.582	350.404	-0.142	-0.277
-77.567	-21.304	-0.151	0.091
-76.553	-73.417	0.072	0.026
-75.538	11.180	-0.133	0.101
-74.524	544.228	-0.093	-0.219
-73.509	-164.256	-0.092	-0.004
-72.494	-112.561	0.305	-0.060
-71.480	17.142	-0.219	0.172
-70.465	-200.000	-0.041	0.313
-69.451	340.372	0.097	-0.187
-68.436	88.051	-0.081	-0.089
-67.422	189.031	-0.124	0.183
-66.407	-111.062	-0.174	0.035
-65.392	115.374	-0.190	0.229
-64.378	223.121	-0.028	0.045
-63.363	-32.272	0.460	0.254
-62.349	-200.000	-0.090	0.394
-61.334	127.233	-0.582	-0.730
-60.319	17.169	0.153	0.120
-59.305	704.961	-0.269	-0.703
-58.290	191.103	0.474	0.705
-57.276	581.719	0.626	1.517
-56.261	-200.000	86.634	496.248
-55.246	539.346	1383.198	3254.485
-54.232	185.194	2607.193	3826.574
-53.217	114.713	2334.723	2814.591
-52.203	46.724	1947.804	1789.000
-51.188	40.955	1736.902	1550.424
-50.173	38.205	1692.534	1489.826
-49.159	53.244	1735.254	1643.747
-48.144	57.251	1753.619	1691.992
-47.130	40.839	1713.377	1528.287
-46.115	37.865	1698.508	1492.244
-45.100	37.608	1693.771	1486.056
-44.086	37.757	1690.710	1484.450
-43.071	37.641	1688.207	1481.313
-42.057	37.609	1685.734	1478.842
-41.042	37.642	1683.756	1477.295
-40.027	37.639	1682.204	1475.850
-39.013	37.744	1679.739	1474.429
-37.998	37.588	1677.928	1471.602
-36.984	37.805	1676.170	1471.638
-35.969	37.767	1675.350	1470.574
-34.954	37.820	1673.373	1469.179
-33.940	37.809	1671.828	1467.681
-32.925	37.874	1669.722	1466.261
-31.911	37.781	1668.327	1464.279
-30.896	37.841	1666.218	1462.820
-29.881	37.817	1665.084	1461.590
-28.867	37.781	1663.784	1460.122
-27.852	37.775	1661.940	1458.402
-26.838	37.779	1660.132	1456.781
-25.823	37.740	1659.280	1455.690
-24.809	37.907	1657.510	1455.320
-23.794	37.814	1656.312	1453.522
-22.779	37.811	1654.364	1451.730
-21.765	37.856	1652.923	1450.742
-20.750	37.751	1651.508	1448.663
-19.736	37.885	1650.228	1448.479
-18.721	37.848	1648.695	1446.798
-17.706	37.826	1646.994	1445.084
-16.692	37.814	1645.548	1443.673
-15.677	37.808	1644.771	1442.886
-14.663	37.867	1643.146	1441.840
-13.648	37.853	1641.529	1440.260
-12.633	37.858	1639.914	1438.829
-11.619	37.853	1638.588	1437.566
-10.604	37.861	1637.051	1436.225
-9.590	37.971	1635.348	1435.481
-8.575	37.882	1634.371	1433.912
-7.560	37.832	1633.312	1432.558
-6.546	37.833	1631.854	1431.232
-5.531	37.819	1630.779	1430.124
-4.517	37.834	1629.730	1429.258
-3.502	37.807	1628.634	1428.042
-2.487	37.889	1626.788	1426.969
-1.473	37.654	1614.686	1414.587
-0.458	34.716	1594.508	1375.735
0.556	31.480	1593.545	1337.628
1.571	28.589	1617.130	1336.284
2.586	27.597	1629.824	1339.374
3.600	24.116	1574.915	1269.371
4.615	14.482	1461.078	1113.484
5.629	6.360	1393.296	1009.818
6.644	5.096	1384.171	995.058
7.659	5.075	1382.618	993.725
8.673	4.960	1381.882	992.371
9.688	5.079	1379.735	991.501
10.702	5.054	1377.359	989.543
11.717	8.329	1384.106	1015.155
12.731	16.817	1400.206	1081.257
13.746	21.478	1406.671	1115.960
14.761	20.606	1403.220	1107.570
15.775	19.457	1400.495	1098.012
16.790	18.344	1398.154	1089.005
17.804	17.583	1395.177	1081.763
18.819	17.176	1394.228	1078.348
19.834	16.890	1393.062	1075.537
20.848	16.760	1391.381	1073.316
21.863	16.433	1390.494	1070.465
22.877	16.286	1389.189	1068.439
23.892	16.136	1388.894	1067.170
24.907	16.296	1387.400	1066.939
25.921	16.226	1386.736	1065.888
26.936	16.262	1385.468	1065.044
27.950	16.341	1384.655	1064.828
28.965	16.429	1383.808	1064.633
29.980	16.619	1382.300	1064.580
30.994	16.694	1381.185	1064.093
32.009	16.657	1380.573	1063.297
33.023	16.587	1379.206	1061.709
34.038	16.495	1377.978	1060.095
35.053	16.457	1376.602	1058.704
36.067	16.453	1375.603	1057.820
37.082	16.434	1374.676	1056.895
38.096	16.492	1373.670	1056.387
39.111	16.541	1372.527	1055.721
40.126	16.380	1371.900	1054.141
41.140	16.330	1370.823	1052.909
42.155	16.140	1370.693	1051.528
43.169	16.216	1369.488	1050.989
44.184	16.137	1369.741	1050.598
45.199	16.186	1369.085	1050.307
46.213	16.227	1368.552	1050.056
47.228	16.400	1367.966	1050.588
48.242	16.369	1366.939	1049.516
49.257	16.391	1364.968	1048.047
50.271	16.332	1363.721	1046.631
51.286	16.388	1362.241	1045.749
52.301	16.349	1361.067	1044.516
53.315	16.322	1359.888	1043.353
54.330	16.299	1358.524	1042.067
55.344	16.256	1357.383	1040.834
56.359	16.112	1356.679	1039.318
57.374	16.093	1355.839	1038.464
58.388	16.109	1354.795	1037.670
59.403	16.194	1353.924	1037.434
60.417	16.059	1353.396	1036.112
61.432	16.092	1352.558	1035.581
62.447	16.113	1351.257	1034.622
63.461	15.984	1350.192	1032.920
64.476	15.974	1349.053	1031.898
65.490	15.967	1348.145	1031.070
66.505	15.995	1346.551	1029.933
67.520	15.970	1345.289	1028.720
68.534	16.051	1344.190	1028.283
69.549	16.045	1343.109	1027.330
70.563	16.041	1342.099	1026.444
71.578	15.915	1340.845	1024.628
72.593	15.993	1339.953	1024.330
73.607	15.956	1339.120	1023.378
74.622	15.858	1338.583	1022.281
75.636	15.899	1337.968	1021.966
76.651	15.893	1337.166	1021.225
77.666	15.906	1336.748	1020.900
78.680	16.010	1336.211	1021.030
79.695	16.044	1335.281	1020.433
80.709	16.126	1334.916	1020.557
81.724	16.213	1334.011	1020.301
82.739	16.233	1333.182	1019.702
83.753	16.230	1332.095	1018.758
84.768	16.359	1331.494	1018.990
85.782	16.469	1329.905	1018.348
86.797	16.469	1328.891	1017.480
87.812	16.442	1327.564	1016.211
88.826	16.356	1326.776	1015.000
89.841	16.448	1325.040	1014.137
90.855	16.451	1324.710	1013.812
91.870	16.401	1323.912	1012.810
92.884	16.560	1322.473	1012.569
93.899	16.494	1322.169	1011.855
94.914	16.624	1320.898	1011.572
95.928	16.628	1320.391	1011.113
96.943	16.574	1318.940	1009.593
97.957	16.445	1318.308	1008.251
98.972	16.406	1317.380	1007.216
99.987	16.550	1316.011	1006.942
101.001	16.547	1315.065	1006.110
102.016	16.379	1314.410	1004.520
103.030	16.376	1313.979	1004.084
104.045	16.495	1312.931	1003.904
105.060	16.466	1310.926	1002.107
106.074	16.228	1309.912	999.836
107.089	16.057	1308.897	997.955
108.103	16.006	1307.541	996.532
109.118	16.102	1305.841	995.718
110.133	16.193	1304.509	995.148
111.147	16.141	1303.214	993.767
112.162	16.134	1302.095	992.784
113.176	16.272	1300.412	992.226
114.191	16.177	1300.223	991.435
115.206	16.326	1299.049	991.330
116.220	16.188	1297.324	989.116
117.235	16.162	1296.587	988.312
118.249	16.123	1295.588	987.237
119.264	16.161	1294.764	986.746
120.279	16.183	1293.184	985.581
121.293	16.065	1292.310	984.139
122.308	16.140	1291.141	983.599
123.322	15.992	1290.408	982.087
124.337	16.013	1289.207	981.209
125.352	15.996	1288.425	980.427
126.366	16.012	1287.191	979.496
127.381	16.007	1286.302	978.706
128.395	16.146	1284.954	978.400
129.410	16.127	1284.096	977.548
130.424	16.180	1283.186	977.075
131.439	16.151	1282.822	976.546
132.454	16.217	1281.777	976.046
133.468	16.342	1280.472	975.685
134.483	16.286	1280.337	975.173
135.497	16.305	1279.061	974.229
136.512	16.246	1277.684	972.752
137.527	16.269	1276.934	972.227
138.541	16.262	1275.330	970.880
139.556	16.284	1273.816	969.770
140.570	16.407	1273.057	969.811
141.585	16.473	1271.751	969.106
142.600	16.543	1270.273	968.296
143.614	16.533	1269.613	967.650
144.629	16.514	1268.689	966.752
145.643	16.590	1267.264	966.016
146.658	16.541	1265.924	964.631
147.673	16.404	1264.594	962.749
148.687	16.278	1263.325	960.979
149.702	16.167	1261.960	959.227
150.716	16.179	1261.285	958.697
151.731	16.207	1259.496	957.408
152.746	16.368	1258.293	957.326
153.760	16.301	1257.594	956.327
154.775	16.392	1256.311	955.781
155.789	16.497	1255.038	955.325
156.804	16.479	1254.307	954.579
157.819	16.490	1253.463	953.915
158.833	16.535	1252.230	953.144
159.848	16.672	1251.694	953.428
160.862	16.580	1250.374	951.818
161.877	16.489	1249.177	950.313
162.892	16.311	1248.581	948.775
163.906	16.356	1247.165	947.865
164.921	16.408	1246.390	947.487
165.935	16.493	1245.532	947.227
166.950	16.415	1244.784	946.134
167.964	16.487	1244.232	946.036
168.979	16.498	1243.526	945.477
169.994	16.431	1242.487	944.229
171.008	16.528	1241.971	944.293
172.023	16.724	1240.807	944.416
173.037	16.686	1239.915	943.446
174.052	16.624	1239.387	942.615
175.067	16.473	1238.609	941.096
176.081	16.477	1237.002	939.816
177.096	16.567	1236.071	939.524
178.110	16.514	1235.047	938.370
179.125	16.559	1233.810	937.596
180.140	16.611	1232.402	936.730
181.154	16.545	1231.489	935.589
182.169	16.659	1230.132	935.104
183.183	16.720	1229.206	934.656
184.198	16.665	1228.103	933.434
185.213	16.713	1227.075	932.833
186.227	16.830	1225.600	932.272
187.242	16.776	1225.180	931.573
188.256	16.844	1223.985	930.955
189.271	16.889	1222.407	929.919
190.286	16.771	1221.398	928.421
191.300	16.511	1220.528	926.253
192.315	16.404	1220.184	925.329
193.329	16.393	1219.173	924.416
194.344	16.530	1218.372	924.477
195.359	16.520	1218.044	924.090
196.373	16.723	1217.503	924.707
197.388	16.798	1216.800	924.504
198.402	16.750	1217.070	924.366
199.417	16.964	1216.350	924.904
200.432	16.979	1215.242	924.061
201.446	17.089	1214.287	923.849
202.461	17.072	1213.904	923.383
203.475	17.197	1212.555	922.955
204.490	17.145	1210.875	921.312
205.504	16.916	1209.720	919.113
206.519	17.017	1208.321	918.512
207.534	16.876	1207.306	916.901
208.548	16.891	1206.685	916.427
209.563	16.982	1205.151	915.671
210.577	16.998	1204.535	915.213
211.592	17.000	1203.883	914.642
212.607	17.097	1202.971	914.392
213.621	17.127	1202.345	913.995
214.636	17.134	1201.265	913.133
215.650	17.077	1200.530	912.190
216.665	17.127	1199.420	911.530
217.680	17.214	1198.512	911.226
218.694	17.355	1198.274	911.723
219.709	17.290	1197.115	910.411
220.723	17.255	1196.223	909.464
221.738	17.233	1195.734	908.894
222.753	17.166	1195.115	907.985
223.767	17.238	1194.425	907.766
224.782	17.277	1193.799	907.419
225.796	17.365	1192.928	907.147
226.811	17.483	1191.824	906.852
227.826	17.405	1191.052	905.773
228.840	17.303	1190.716	904.893
229.855	17.332	1189.822	904.290
230.869	17.463	1188.337	903.774
231.884	17.251	1187.817	902.176
232.899	17.221	1187.463	901.666
233.913	17.122	1186.769	900.533
234.928	17.092	1185.775	899.541
235.942	17.217	1184.782	899.371
236.957	17.179	1183.951	898.459
237.972	17.199	1183.393	898.062
238.986	17.176	1183.033	897.586
240.001	17.264	1182.175	897.322
241.015	17.310	1181.123	896.685
242.030	17.330	1180.180	895.999
243.045	17.321	1179.974	895.716
244.059	17.320	1178.984	894.875
245.074	17.373	1178.404	894.635
246.088	17.430	1177.110	893.875
247.103	17.297	1176.856	892.904
248.117	17.578	1175.972	893.630
249.132	17.631	1175.714	893.629
250.147	17.717	1174.871	893.360
251.161	17.823	1174.117	893.267
252.176	17.846	1173.447	892.796
253.190	17.896	1172.781	892.471
254.205	17.969	1172.515	892.570
255.220	18.020	1171.524	892.008
256.234	17.984	1171.041	891.371
257.249	17.951	1170.072	890.383
258.263	18.002	1169.615	890.221
259.278	17.948	1168.708	889.173
260.293	18.007	1168.408	889.172
261.307	18.115	1167.776	889.173
262.322	18.062	1167.328	888.479
263.336	18.149	1166.425	888.166
264.351	18.046	1166.036	887.255
265.366	18.043	1165.465	886.724
266.380	18.118	1164.250	886.114
267.395	18.059	1163.721	885.325
268.409	18.032	1162.771	884.384
269.424	18.008	1162.486	883.965
270.439	18.041	1161.660	883.428
271.453	18.070	1160.705	882.774
272.468	18.008	1159.753	881.654
273.482	17.975	1158.897	880.755
274.497	18.046	1158.294	880.582
275.512	17.921	1158.028	879.660
276.526	18.072	1157.001	879.581
277.541	18.000	1156.256	878.563
278.555	18.096	1156.007	878.792
279.570	18.152	1155.180	878.373
280.585	18.143	1154.595	877.802
281.599	18.269	1153.387	877.452
282.614	18.203	1152.562	876.409
283.628	18.164	1151.161	875.070
284.643	18.193	1150.191	874.402
285.657	18.115	1149.479	873.382
286.672	18.182	1148.431	872.855
287.687	18.296	1147.670	872.780
288.701	18.232	1147.057	871.907
289.716	18.294	1146.464	871.696
290.730	18.249	1145.590	870.725
291.745	18.303	1144.655	870.211
292.760	18.229	1144.272	869.470
293.774	18.359	1143.818	869.709
294.789	18.321	1143.142	868.925
295.803	18.343	1142.533	868.495
296.818	18.434	1141.453	868.056
297.833	18.265	1140.791	866.621
298.847	18.270	1140.140	866.074
299.862	18.291	1139.396	865.541
300.876	18.376	1138.775	865.423
301.891	18.499	1138.307	865.608
302.906	18.618	1137.196	865.288
303.920	18.516	1136.638	864.273
304.935	18.640	1136.100	864.411
305.949	18.603	1135.581	863.756
306.964	18.744	1134.620	863.658
307.979	18.626	1133.982	862.501
308.993	18.689	1133.235	862.176
310.008	18.718	1132.548	861.722
311.022	18.682	1131.958	861.016
312.037	18.644	1130.855	859.909
313.052	18.653	1129.906	859.157
314.066	18.506	1128.875	857.560
315.081	18.469	1127.985	856.626
316.095	18.518	1127.392	856.344
317.110	18.570	1126.562	855.896
318.125	18.522	1125.755	854.966
319.139	18.526	1125.116	854.429
320.154	18.486	1124.289	853.522
321.168	18.491	1124.087	853.321
322.183	18.559	1123.442	853.093
323.197	18.591	1122.788	852.679
324.212	18.608	1121.971	852.071
325.227	18.662	1121.375	851.808
326.241	18.570	1121.144	851.101
327.256	18.645	1119.907	850.461
328.270	18.662	1119.265	849.981
329.285	18.557	1118.337	848.682
330.300	18.635	1117.046	848.013
331.314	18.672	1116.079	847.383
332.329	18.662	1115.089	846.511
333.343	18.664	1114.701	846.151
334.358	18.812	1113.578	845.952
335.373	18.831	1112.813	845.390
336.387	18.875	1111.975	844.893
337.402	18.946	1111.279	844.638
338.416	18.872	1111.213	844.151
339.431	18.913	1110.354	843.625
340.446	18.936	1109.755	843.206
341.460	19.021	1109.311	843.212
342.475	19.234	1108.063	843.230
343.489	19.072	1107.469	841.914
344.504	19.203	1106.514	841.753
345.519	19.182	1105.847	841.069
346.533	19.305	1104.955	840.916
347.548	19.359	1104.147	840.490
348.562	19.413	1102.932	839.751
349.577	19.079	1102.520	837.739
350.592	19.130	1101.275	836.966
351.606	18.926	1100.977	835.675
352.621	19.037	1100.345	835.660
353.635	18.999	1099.214	834.545
354.650	18.910	1098.783	833.711
355.665	19.121	1097.986	834.055
356.679	19.127	1097.583	833.704
357.694	19.285	1096.817	833.813
358.708	19.225	1095.892	832.747
359.723	19.211	1095.522	832.323
360.738	19.354	1094.642	832.273
361.752	19.350	1093.736	831.492
362.767	19.250	1093.768	830.958
363.781	19.278	1093.357	830.707
364.796	19.290	1092.908	830.348
365.810	19.423	1092.070	830.282
366.825	19.555	1091.797	830.635
367.840	19.616	1090.954	830.212
368.854	19.546	1090.528	829.478
369.869	19.531	1090.169	829.058
370.883	19.596	1088.689	828.171
371.898	19.525	1087.949	827.195
372.913	19.545	1087.369	826.777
373.927	19.552	1086.908	826.389
374.942	19.559	1086.548	826.076
375.956	19.586	1085.921	825.654
376.971	19.612	1084.893	824.921
377.986	19.559	1084.675	824.430
379.000	19.738	1084.163	824.824
380.015	19.724	1083.665	824.303
381.029	19.791	1082.885	823.958
382.044	19.825	1081.941	823.327
383.059	19.681	1081.462	822.206
384.073	19.762	1080.736	821.967
385.088	19.867	1079.873	821.736
386.102	19.809	1078.961	820.696
387.117	19.734	1077.409	819.087
388.132	19.694	1076.929	818.458
389.146	19.659	1075.883	817.425
390.161	19.620	1075.258	816.693
391.175	19.675	1074.518	816.318
392.190	19.727	1074.058	816.146
393.205	19.709	1073.452	815.527
394.219	19.879	1072.497	815.530
395.234	19.760	1071.312	813.995
396.248	19.764	1070.358	813.220
397.263	19.672	1069.398	811.984
398.278	19.782	1068.253	811.561
399.292	19.676	1067.951	810.761
400.307	19.643	1067.462	810.165
401.321	19.500	1066.989	809.062
402.336	19.609	1066.444	809.086
403.350	19.789	1064.873	808.665
404.365	19.754	1064.708	808.304
405.380	19.803	1064.035	807.952
406.394	19.819	1063.172	807.302
407.409	19.903	1062.472	807.090
408.423	20.038	1061.646	807.021
409.438	20.110	1061.310	807.025
410.453	20.091	1060.578	806.311
411.467	20.116	1059.988	805.906
412.482	20.106	1059.183	805.179
413.496	20.236	1058.719	805.356
414.511	20.188	1058.532	804.919
415.526	20.310	1057.688	804.775
416.540	20.326	1057.218	804.421
417.555	20.257	1056.620	803.575
418.569	20.272	1056.152	803.214
419.584	20.239	1055.545	802.529
420.599	20.409	1054.650	802.566
421.613	148.475	1399.342	1779.260
422.628	136.264	1449.557	1779.377
