DTS Sentinel unit serial number:	SN413079Multiplexer serial number:	ORYXHardware model number:	OX4-SRSoftware version number:	ORYX F/W v4.00 Oryx Data Collector v3.7.2.0data status	okinstallation	princeton_trtdifferential loss correction	single-endedforward channel	channel 2reverse channel	N/Adate	2019/09/13time	01:35:35forward acquisition time	60.00reverse acquisition time	0.00gamma	496.2192k internal	0.2334k external	0.2334temperature offset calibration	1.0174default loss term (dB/km)	0.3790temperature slope calibration	1.0000multiplexer offset coefficient	1.0000multiplexer slope coefficient	1.0000fibre end	0.00T internal ref (°C)	27.77T ext. ref 1 (°C)	3.77T ext. ref 2 (°C)	22.41length (m)	temperature (°C)	Stokes	anti-Stokes-747.200	800.000	0.087	0.311
-746.185	-0.294	-0.128	0.092
-745.171	-66.314	-0.200	-0.080
-744.156	143.572	-0.178	-0.238
-743.142	72.566	0.216	0.227
-742.127	800.000	0.092	0.396
-741.112	-200.000	0.003	-0.404
-740.098	50.582	-0.210	-0.200
-739.083	53.868	0.287	0.277
-738.069	-148.761	0.194	-0.016
-737.054	-97.921	0.194	0.050
-736.039	-114.903	-0.506	-0.097
-735.025	-200.000	-0.080	0.360
-734.010	117.562	-0.200	-0.247
-732.996	-48.620	-0.109	-0.052
-731.981	-141.403	0.118	-0.012
-730.966	34.870	-0.296	0.260
-729.952	241.159	-0.048	-0.081
-728.937	-13.440	0.086	0.056
-727.923	-124.502	-0.323	0.050
-726.908	480.006	-0.051	0.115
-725.894	-128.538	-0.250	-0.036
-724.879	-115.069	-0.036	0.007
-723.864	800.000	-0.020	-0.081
-722.850	800.000	0.096	0.289
-721.835	-135.565	-0.406	0.049
-720.821	169.375	0.081	-0.116
-719.806	377.931	0.186	-0.381
-718.791	800.000	-0.071	0.234
-717.777	-129.205	0.309	0.043
-716.762	800.000	-0.034	-0.146
-715.748	152.441	-0.132	-0.182
-714.733	-200.000	-0.030	-0.165
-713.718	49.026	0.098	-0.092
-712.704	800.000	-0.067	-0.199
-711.689	-9.502	0.202	-0.135
-710.675	26.002	0.140	0.117
-709.660	147.118	0.188	-0.254
-708.645	-200.000	0.003	-0.075
-707.631	76.497	-0.221	-0.236
-706.616	-64.634	0.026	-0.011
-705.602	-120.875	0.135	-0.023
-704.587	245.416	-0.030	-0.051
-703.572	-138.638	-0.155	-0.017
-702.558	800.000	-0.039	-0.120
-701.543	480.962	-0.116	-0.263
-700.529	226.668	0.130	-0.212
-699.514	-131.771	-0.173	0.023
-698.499	-200.000	-0.069	-0.570
-697.485	224.938	-0.009	-0.014
-696.470	-139.373	0.141	0.015
-695.456	-195.646	0.100	-0.001
-694.441	-200.000	0.026	-0.118
-693.426	800.000	0.024	-0.085
-692.412	313.390	0.164	0.309
-691.397	141.573	-0.092	-0.123
-690.383	-97.587	0.148	0.038
-689.368	515.028	-0.104	-0.243
-688.354	800.000	0.063	-0.273
-687.339	-31.929	-0.199	0.112
-686.324	313.290	0.121	-0.228
-685.310	-116.316	0.216	0.040
-684.295	87.692	0.205	-0.228
-683.281	181.495	-0.076	-0.113
-682.266	121.946	0.052	0.065
-681.251	-110.129	-0.206	0.043
-680.237	-200.000	-0.015	0.122
-679.222	405.124	0.190	-0.402
-678.208	101.088	0.085	-0.099
-677.193	800.000	0.062	-0.202
-676.178	-37.947	-0.075	0.040
-675.164	-200.000	-0.030	0.249
-674.149	-200.000	0.019	-0.130
-673.135	-200.000	0.043	0.273
-672.120	-113.458	0.145	-0.029
-671.105	-8.274	-0.086	-0.058
-670.091	245.187	0.131	-0.221
-669.076	385.487	0.035	-0.072
-668.062	-104.715	-0.258	-0.060
-667.047	-129.126	-0.113	-0.016
-666.032	-79.940	-0.322	-0.108
-665.018	800.000	0.093	-0.332
-664.003	-200.000	0.007	-0.153
-662.989	-97.576	0.207	-0.054
-661.974	709.622	-0.088	0.233
-660.959	236.027	0.039	-0.064
-659.945	185.169	-0.078	-0.116
-658.930	138.156	-0.225	0.295
-657.916	4.403	0.246	-0.181
-656.901	-84.865	-0.268	0.084
-655.886	-111.702	0.357	-0.072
-654.872	-200.000	0.003	-0.251
-653.857	105.662	-0.116	-0.137
-652.843	-100.620	-0.396	-0.098
-651.828	92.679	-0.105	0.119
-650.814	12.998	-0.137	-0.106
-649.799	23.977	-0.161	0.133
-648.784	-84.340	-0.334	0.106
-647.770	-200.000	0.009	-0.202
-646.755	800.000	0.014	0.051
-645.741	189.225	-0.110	0.166
-644.726	186.172	-0.050	0.075
-643.711	121.957	0.157	0.196
-642.697	234.324	0.043	0.071
-641.682	-12.881	-0.281	0.183
-640.668	-57.242	0.232	-0.102
-639.653	800.000	-0.041	-0.127
-638.638	-98.593	-0.352	0.090
-637.624	-91.062	-0.328	0.094
-636.609	800.000	0.116	-0.343
-635.595	0.828	-0.273	-0.196
-634.580	-200.000	-0.004	-0.125
-633.565	-103.156	-0.165	-0.039
-632.551	-21.756	0.171	-0.104
-631.536	-151.453	0.129	0.010
-630.522	-162.432	-0.433	-0.021
-629.507	297.562	-0.279	0.513
-628.492	-200.000	0.009	0.118
-627.478	39.605	-0.076	-0.068
-626.463	87.425	-0.127	-0.140
-625.449	-108.850	-0.208	0.045
-624.434	479.039	-0.100	0.226
-623.419	123.359	-0.120	-0.150
-622.405	21.053	-0.130	0.106
-621.390	118.927	-0.130	0.160
-620.376	-200.000	0.004	-0.061
-619.361	205.495	-0.187	-0.291
-618.346	-200.000	-0.047	-0.231
-617.332	800.000	-0.057	-0.196
-616.317	26.055	-0.147	0.123
-615.303	100.824	0.086	0.100
-614.288	-49.912	0.121	0.057
-613.273	-200.000	0.049	-0.226
-612.259	-77.976	-0.240	-0.083
-611.244	37.765	0.104	0.092
-610.230	-68.716	0.129	-0.050
-609.215	-200.000	0.003	-0.058
-608.201	-119.130	-0.080	0.014
-607.186	-79.067	0.203	-0.069
-606.171	31.267	0.238	-0.204
-605.157	255.655	-0.113	-0.193
-604.142	339.390	-0.147	-0.286
-603.128	104.230	0.123	0.145
-602.113	119.771	-0.177	-0.220
-601.098	800.000	0.076	-0.233
-600.084	800.000	-0.019	0.070
-599.069	-78.668	0.204	0.070
-598.055	-43.492	0.042	0.021
-597.040	42.276	-0.070	0.064
-596.025	232.084	0.101	-0.166
-595.011	264.037	-0.025	0.043
-593.996	112.663	0.195	0.236
-592.982	-200.000	-0.059	0.333
-591.967	-131.286	-0.490	0.065
-590.952	123.306	0.012	-0.015
-589.938	-136.402	0.096	-0.011
-588.923	-200.000	-0.007	-0.073
-587.909	36.367	-0.041	-0.036
-586.894	-14.647	0.113	0.073
-585.879	9.932	-0.291	0.220
-584.865	-117.285	-0.123	0.022
-583.850	-100.650	0.151	0.037
-582.836	216.412	-0.039	-0.061
-581.821	204.982	0.158	-0.245
-580.806	144.896	0.108	0.144
-579.792	-2.791	0.098	0.068
-578.777	311.798	-0.125	0.234
-577.763	160.773	-0.090	0.126
-576.748	208.627	0.120	0.188
-575.733	330.965	-0.084	0.162
-574.719	800.000	0.030	-0.091
-573.704	800.000	-0.086	-0.244
-572.690	800.000	0.080	-0.231
-571.675	800.000	0.049	-0.168
-570.661	73.844	0.188	-0.197
-569.646	-78.986	-0.096	-0.033
-568.631	433.255	0.277	0.600
-567.617	800.000	-0.105	-0.363
-566.602	-42.004	0.093	0.048
-565.588	-38.841	-0.172	0.091
-564.573	-100.715	-0.197	0.048
-563.558	3.712	-0.269	0.196
-562.544	59.107	0.137	0.135
-561.529	-124.736	0.592	0.091
-560.515	213.748	-0.132	-0.208
-559.500	-3.062	-0.124	0.086
-558.485	-162.109	0.238	-0.012
-557.471	-200.000	0.000	0.105
-556.456	203.189	-0.139	-0.215
-555.442	-65.210	0.193	0.077
-554.427	-200.000	-0.023	0.166
-553.412	22.593	0.038	0.031
-552.398	800.000	0.054	0.150
-551.383	44.289	-0.096	-0.088
-550.369	51.891	-0.217	-0.206
-549.354	-67.825	0.205	0.080
-548.339	2.473	-0.144	0.104
-547.325	118.079	-0.129	-0.159
-546.310	142.511	-0.119	0.158
-545.296	-94.091	0.218	-0.060
-544.281	-47.852	0.074	-0.036
-543.266	122.382	-0.129	0.161
-542.252	301.964	0.133	-0.244
-541.237	-186.040	0.151	-0.002
-540.223	57.394	-0.183	0.178
-539.208	-200.000	-0.021	-0.112
-538.193	-32.135	-0.076	0.042
-537.179	-200.000	-0.018	-0.150
-536.164	-188.336	-0.147	-0.002
-535.150	-94.602	0.330	0.089
-534.135	7.649	-0.096	-0.072
-533.121	-200.000	-0.020	-0.164
-532.106	52.188	0.139	-0.132
-531.091	-66.602	-0.216	0.085
-530.077	-200.000	0.023	0.254
-529.062	106.160	-0.227	-0.268
-528.048	-200.000	0.002	0.158
-527.033	-200.000	-0.042	-0.205
-526.018	-158.195	-0.139	-0.008
-525.004	-200.000	-0.033	-0.183
-523.989	800.000	-0.011	0.041
-522.975	-198.597	-0.187	0.001
-521.960	-200.000	0.033	-0.192
-520.945	148.378	0.095	0.128
-519.931	-71.360	0.259	-0.097
-518.916	296.576	-0.071	0.130
-517.902	75.477	-0.349	0.367
-516.887	131.288	-0.090	-0.115
-515.872	51.060	-0.251	-0.237
-514.858	707.820	0.029	-0.077
-513.843	-113.615	-0.019	-0.004
-512.829	800.000	0.058	-0.244
-511.814	-106.814	-0.161	0.036
-510.799	172.904	0.238	0.341
-509.785	77.797	0.086	0.091
-508.770	727.910	0.115	-0.305
-507.756	-200.000	0.016	0.208
-506.741	87.784	-0.080	0.088
-505.726	-80.709	0.369	-0.122
-504.712	-97.165	0.339	0.088
-503.697	-138.777	-0.338	-0.037
-502.683	-46.278	0.203	0.099
-501.668	634.274	-0.125	-0.316
-500.653	-200.000	0.002	0.291
-499.639	-200.000	0.064	-0.433
-498.624	212.987	-0.069	-0.108
-497.610	-200.000	-0.029	0.432
-496.595	214.851	0.144	-0.227
-495.581	800.000	0.071	-0.197
-494.566	-72.959	0.161	0.059
-493.551	-45.184	0.179	0.089
-492.537	-146.595	0.153	0.013
-491.522	800.000	0.098	0.289
-490.508	521.660	0.031	0.073
-489.493	8.221	-0.178	0.133
-488.478	10.441	-0.070	0.053
-487.464	-54.050	0.054	-0.024
-486.449	0.912	-0.089	-0.064
-485.435	10.981	0.268	-0.204
-484.420	38.157	-0.056	-0.050
-483.405	-176.424	0.181	0.005
-482.391	575.323	0.060	-0.147
-481.376	-200.000	0.014	0.127
-480.362	62.143	-0.088	-0.087
-479.347	-83.259	-0.263	-0.084
-478.332	44.206	-0.199	0.182
-477.318	149.800	0.162	-0.218
-476.303	12.975	0.221	0.170
-475.289	-42.517	-0.270	-0.137
-474.274	389.151	0.091	-0.187
-473.259	117.821	0.031	-0.038
-472.245	-33.770	0.105	-0.058
-471.230	-105.666	0.297	-0.067
-470.216	80.905	-0.198	-0.213
-469.201	-109.394	-0.143	0.030
-468.186	800.000	-0.117	0.347
-467.172	-82.407	0.051	0.016
-466.157	-53.561	0.318	0.145
-465.143	320.015	0.092	-0.173
-464.128	800.000	-0.067	0.196
-463.113	-140.404	0.112	-0.012
-462.099	137.936	-0.126	-0.164
-461.084	-46.824	0.248	0.121
-460.070	-115.842	0.205	0.038
-459.055	800.000	0.053	-0.227
-458.040	21.224	-0.099	-0.080
-457.026	147.020	-0.036	-0.049
-456.011	334.299	0.059	0.113
-454.997	-200.000	0.089	0.414
-453.982	-80.836	-0.268	-0.088
-452.968	-200.000	0.005	0.038
-451.953	-64.137	-0.451	-0.183
-450.938	-43.548	0.338	-0.169
-449.924	-115.325	-0.118	-0.022
-448.909	-70.817	0.176	-0.066
-447.895	-108.188	-0.379	0.082
-446.880	707.187	-0.029	-0.077
-445.865	-105.010	0.102	-0.023
-444.851	529.297	0.090	-0.212
-443.836	-43.714	-0.087	0.044
-442.822	800.000	0.017	-0.057
-441.807	-123.314	-0.043	0.007
-440.792	-96.364	0.335	0.088
-439.778	-26.017	-0.129	-0.075
-438.763	59.122	-0.201	-0.196
-437.749	480.134	-0.074	0.167
-436.734	16.861	0.295	0.232
-435.719	449.323	-0.089	-0.195
-434.705	-71.260	0.302	0.112
-433.690	30.998	-0.044	-0.038
-432.676	-99.030	-0.347	-0.087
-431.661	-200.000	0.006	-0.071
-430.646	-8.398	-0.076	-0.051
-429.632	-149.059	0.234	0.019
-428.617	-116.139	0.158	-0.029
-427.603	84.576	-0.098	-0.107
-426.588	-29.808	-0.223	-0.126
-425.573	-82.126	0.137	0.044
-424.559	-200.000	-0.001	0.071
-423.544	-114.583	0.128	-0.024
-422.530	-200.000	-0.068	0.364
-421.515	18.950	-0.126	-0.100
-420.500	-106.607	0.180	0.040
-419.486	800.000	-0.040	0.121
-418.471	123.907	-0.241	0.300
-417.457	-200.000	0.019	0.204
-416.442	605.224	-0.057	-0.140
-415.428	800.000	0.070	-0.294
-414.413	-200.000	-0.008	0.048
-413.398	-200.000	-0.037	-0.248
-412.384	330.729	-0.043	0.081
-411.369	102.467	0.061	0.070
-410.355	98.875	-0.060	0.068
-409.340	800.000	0.034	0.145
-408.325	-75.024	-0.090	0.032
-407.311	681.578	0.063	0.164
-406.296	-12.292	0.158	0.102
-405.282	-63.066	0.253	-0.104
-404.267	60.727	0.225	-0.222
-403.252	-84.866	-0.345	0.108
-402.238	-200.000	-0.025	0.197
-401.223	-200.000	0.040	0.691
-400.209	-200.000	-0.023	-0.238
-399.194	82.550	0.047	0.051
-398.179	100.930	0.138	0.159
-397.165	800.000	-0.029	-0.098
-396.150	-35.228	0.144	-0.077
-395.136	63.551	-0.165	0.164
-394.121	800.000	0.071	0.294
-393.106	4.002	0.174	0.126
-392.092	115.635	0.165	-0.200
-391.077	-53.359	-0.345	0.157
-390.063	-94.629	-0.207	0.056
-389.048	342.563	0.092	-0.179
-388.033	-62.804	0.239	-0.098
-387.019	800.000	0.041	0.132
-386.004	-131.616	0.089	-0.012
-384.990	800.000	-0.068	0.249
-383.975	619.744	0.160	0.400
-382.960	104.535	0.132	0.154
-381.946	-200.000	-0.020	-0.144
-380.931	0.304	0.049	0.035
-379.917	60.560	-0.076	0.074
-378.902	-59.156	0.306	-0.131
-377.888	-96.003	-0.049	-0.013
-376.873	-87.877	0.222	-0.066
-375.858	-34.822	-0.169	0.092
-374.844	170.916	0.161	-0.229
-373.829	-9.780	0.286	0.189
-372.815	-182.056	-0.231	0.004
-371.800	159.768	0.116	0.160
-370.785	-54.685	-0.080	-0.036
-369.771	-70.647	0.156	-0.058
-368.756	120.548	0.201	0.247
-367.742	69.768	0.166	0.169
-366.727	-200.000	0.023	-0.180
-365.712	-59.008	-0.216	-0.092
-364.698	65.862	0.162	-0.163
-363.683	28.948	-0.211	-0.177
-362.669	-142.632	-0.177	-0.017
-361.654	-200.000	0.033	0.180
-360.639	800.000	-0.077	-0.224
-359.625	-200.000	0.048	0.211
-358.610	-9.219	-0.184	0.122
-357.596	-200.000	-0.001	-0.038
-356.581	13.956	-0.160	0.124
-355.566	170.724	-0.214	0.303
-354.552	35.465	0.239	0.208
-353.537	3.583	0.131	-0.095
-352.523	-15.853	0.207	-0.130
-351.508	-81.152	0.084	0.028
-350.493	197.507	-0.138	0.209
-349.479	5.595	0.087	0.064
-348.464	408.343	0.112	0.235
-347.450	-150.188	-0.280	-0.021
-346.435	131.106	-0.237	0.301
-345.420	-56.805	-0.094	-0.041
-344.406	800.000	0.072	-0.228
-343.391	6.054	0.267	-0.196
-342.377	79.476	0.175	0.186
-341.362	275.219	-0.076	-0.133
-340.348	-15.802	0.150	-0.095
-339.333	800.000	0.088	-0.330
-338.318	-12.271	0.333	-0.215
-337.304	-163.074	0.327	-0.016
-336.289	-100.961	-0.244	-0.059
-335.275	380.264	0.139	-0.282
-334.260	-200.000	0.046	-0.249
-333.245	-7.523	-0.202	-0.135
-332.231	-94.975	0.180	-0.048
-331.216	253.077	0.118	0.198
-330.202	137.379	0.010	0.013
-329.187	250.193	0.134	0.225
-328.172	-200.000	-0.019	0.292
-327.158	-200.000	0.015	0.246
-326.143	603.805	-0.069	-0.169
-325.129	112.661	-0.280	0.335
-324.114	-13.521	0.324	0.207
-323.099	-132.184	-0.393	0.050
-322.085	275.064	0.092	0.162
-321.070	-72.218	0.451	-0.165
-320.056	105.585	0.114	-0.133
-319.041	-22.055	0.117	-0.071
-318.026	-109.137	0.296	0.062
-317.012	34.255	0.277	-0.239
-315.997	-164.662	-0.329	0.015
-314.983	-200.000	-0.049	-0.285
-313.968	-146.495	0.176	-0.015
-312.953	-161.436	-0.336	-0.017
-311.939	236.786	-0.158	-0.259
-310.924	45.548	-0.199	-0.182
-309.910	-200.000	0.003	0.138
-308.895	-200.000	0.018	0.311
-307.880	10.769	-0.072	0.054
-306.866	-186.688	0.155	0.002
-305.851	-200.000	-0.028	0.234
-304.837	-65.520	0.095	0.038
-303.822	-200.000	-0.052	-0.276
-302.807	-128.677	0.234	-0.033
-301.793	24.915	0.120	-0.098
-300.778	-87.166	-0.130	-0.039
-299.764	-67.542	-0.201	-0.078
-298.749	57.303	-0.159	0.153
-297.735	126.396	-0.024	0.030
-296.720	-200.000	0.001	-0.110
-295.705	706.170	-0.067	-0.174
-294.691	78.627	-0.086	-0.091
-293.676	-181.792	0.320	-0.006
-292.662	512.188	-0.078	-0.180
-291.647	-77.608	-0.024	-0.008
-290.632	-200.000	0.431	-0.001
-289.618	-200.000	0.044	0.234
-288.603	-154.472	-0.445	0.029
-287.589	750.803	-0.102	-0.270
-286.574	800.000	0.057	-0.186
-285.559	-143.830	-0.089	0.008
-284.545	-200.000	-0.213	-0.001
-283.530	-200.000	0.011	0.128
-282.516	800.000	0.080	-0.273
-281.501	363.158	-0.147	0.292
-280.486	0.911	0.150	-0.106
-279.472	-200.000	0.008	0.228
-278.457	-20.879	0.098	-0.059
-277.443	-200.000	0.053	-0.238
-276.428	238.189	0.126	0.207
-275.413	27.181	-0.161	-0.134
-274.399	-150.961	-0.077	0.006
-273.384	-200.000	-0.001	-0.050
-272.370	-45.010	-0.269	-0.132
-271.355	800.000	0.205	-0.583
-270.340	-62.905	0.148	0.060
-269.326	-88.543	0.158	-0.047
-268.311	-31.045	0.057	-0.032
-267.297	143.740	0.044	-0.057
-266.282	527.183	-0.070	-0.162
-265.267	473.129	0.175	-0.390
-264.253	474.615	0.034	0.077
-263.238	-73.660	0.062	0.022
-262.224	-200.000	0.007	-0.067
-261.209	470.737	0.111	-0.247
-260.195	-66.077	-0.194	-0.076
-259.180	100.235	-0.096	-0.110
-258.165	-152.436	-0.206	-0.015
-257.151	-200.000	0.000	-0.043
-256.136	800.000	0.077	-0.246
-255.122	-114.401	-0.377	0.071
-254.107	-101.317	0.199	-0.048
-253.092	79.914	-0.247	-0.262
-252.078	-200.000	0.007	0.145
-251.063	109.249	0.145	0.171
-250.049	25.202	0.216	0.177
-249.034	35.950	-0.100	0.087
-248.019	540.611	-0.041	-0.096
-247.005	86.089	0.104	0.112
-245.990	-200.000	-0.023	-0.156
-244.976	-74.509	0.239	0.085
-243.961	-200.000	0.001	-0.251
-242.946	-108.169	0.147	-0.031
-241.932	127.851	0.187	-0.235
-240.917	286.571	0.131	-0.232
-239.903	-110.671	-0.375	-0.076
-238.888	51.659	-0.145	0.136
-237.873	62.832	-0.100	-0.099
-236.859	484.542	0.034	0.077
-235.844	800.000	-0.065	0.188
-234.830	800.000	0.055	0.201
-233.815	16.020	-0.318	-0.247
-232.800	10.291	-0.116	0.087
-231.786	151.732	0.034	0.046
-230.771	-20.129	0.242	0.147
-229.757	-134.013	-0.060	0.007
-228.742	-74.107	-0.183	0.065
-227.727	342.650	0.057	-0.110
-226.713	69.435	0.131	-0.133
-225.698	17.920	-0.117	-0.092
-224.684	800.000	-0.027	0.077
-223.669	-200.000	0.015	0.290
-222.655	800.000	0.030	-0.106
-221.640	433.731	-0.129	-0.276
-220.625	33.188	0.197	0.168
-219.611	-135.027	-0.440	0.052
-218.596	-200.000	0.022	0.334
-217.582	-200.000	0.047	0.320
-216.567	-126.730	-0.485	0.071
-215.552	-88.768	0.449	0.131
-214.538	-200.000	0.017	0.152
-213.523	722.372	0.003	0.008
-212.509	-200.000	0.016	-0.149
-211.494	163.795	0.151	0.209
-210.479	-200.000	0.022	-0.318
-209.465	117.741	-0.238	-0.289
-208.450	800.000	0.055	0.155
-207.436	-200.000	0.006	-0.167
-206.421	29.092	-0.319	0.266
-205.406	800.000	0.022	-0.069
-204.392	-151.259	0.199	-0.015
-203.377	-200.000	-0.020	0.225
-202.363	-95.444	0.175	-0.046
-201.348	-70.700	0.420	-0.156
-200.333	-112.409	-0.229	0.045
-199.319	71.138	0.180	-0.183
-198.304	13.972	0.144	0.110
-197.290	409.799	-0.192	0.400
-196.275	701.314	0.122	0.317
-195.260	-200.000	0.040	-0.295
-194.246	-119.335	0.159	0.027
-193.231	-99.507	0.215	0.053
-192.217	-157.462	-0.213	-0.013
-191.202	424.761	-0.041	0.088
-190.187	-200.000	-0.010	0.066
-189.173	173.230	0.121	0.172
-188.158	221.040	-0.044	0.069
-187.144	771.731	0.085	0.228
-186.129	263.011	-0.142	0.242
-185.114	44.347	-0.097	0.087
-184.100	103.734	-0.149	-0.172
-183.085	-98.401	-0.367	0.092
-182.071	-200.000	0.018	0.165
-181.056	92.551	0.121	-0.135
-180.042	800.000	0.065	-0.224
-179.027	-200.000	0.013	-0.073
-178.012	33.519	0.076	-0.065
-176.998	432.121	0.078	-0.167
-175.983	84.246	-0.047	-0.050
-174.969	-24.494	-0.252	-0.148
-173.954	-159.328	0.250	-0.014
-172.939	178.134	-0.081	-0.116
-171.925	-44.047	0.494	-0.244
-170.910	-101.186	-0.316	0.076
-169.896	-200.000	0.024	-0.179
-168.881	-200.000	-0.013	-0.231
-167.866	270.185	0.231	0.399
-166.852	-30.166	-0.047	0.026
-165.837	197.265	-0.076	-0.113
-164.823	-174.925	-0.024	0.001
-163.808	-74.222	0.059	-0.021
-162.793	800.000	-0.052	0.155
-161.779	-200.000	-0.011	-0.064
-160.764	280.866	0.089	0.157
-159.750	-116.130	-0.160	-0.029
-158.735	-200.000	0.009	-0.162
-157.720	-1.286	-0.084	-0.058
-156.706	-200.000	0.023	-0.100
-155.691	211.051	-0.148	0.228
-154.677	728.640	-0.156	0.410
-153.662	-200.000	-0.009	0.081
-152.647	-157.941	0.137	0.008
-151.633	-187.074	-0.320	0.004
-150.618	220.922	-0.129	-0.203
-149.604	339.692	0.028	0.053
-148.589	-200.000	-0.022	-0.151
-147.574	246.961	-0.032	0.053
-146.560	-65.385	-0.286	0.113
-145.545	12.624	-0.160	0.121
-144.531	-15.291	0.187	0.118
-143.516	-44.129	-0.120	-0.059
-142.502	567.161	-0.068	-0.162
-141.487	-66.536	0.176	0.068
-140.472	-56.442	0.183	0.080
-139.458	-55.350	-0.343	0.151
-138.443	-92.223	0.058	-0.016
-137.429	-121.315	0.264	0.043
-136.414	59.913	0.066	0.064
-135.399	264.940	-0.123	-0.211
-134.385	800.000	0.092	-0.273
-133.370	-200.000	-0.053	-0.253
-132.356	-160.655	0.266	0.014
-131.341	640.898	0.025	0.063
-130.326	-25.151	-0.308	0.179
-129.312	70.168	0.085	0.086
-128.297	590.296	-0.079	0.190
-127.283	-73.204	0.245	-0.088
-126.268	-200.000	0.017	-0.107
-125.253	-147.912	0.147	-0.012
-124.239	-149.076	0.249	0.020
-123.224	-167.893	0.274	0.011
-122.210	800.000	-0.037	-0.122
-121.195	177.258	0.152	-0.217
-120.180	800.000	-0.122	-0.341
-119.166	-200.000	-0.077	0.431
-118.151	800.000	0.084	-0.232
-117.137	439.559	-0.103	-0.221
-116.122	153.148	-0.162	-0.217
-115.107	5.016	0.075	0.054
-114.093	-163.747	-0.208	-0.010
-113.078	178.389	0.198	-0.283
-112.064	-200.000	-0.025	0.139
-111.049	-72.011	0.233	0.085
-110.034	502.178	0.180	-0.407
-109.020	-37.508	0.221	0.116
-108.005	-111.932	0.365	0.072
-106.991	59.240	0.225	0.217
-105.976	32.115	-0.264	-0.223
-104.962	800.000	-0.088	-0.266
-103.947	-79.474	0.314	-0.104
-102.932	406.062	0.125	-0.258
-101.918	-165.193	-0.467	0.020
-100.903	-42.832	-0.438	-0.218
-99.889	301.419	-0.063	-0.114
-98.874	-22.285	0.412	-0.245
-97.859	377.006	0.036	0.071
-96.845	800.000	-0.080	0.241
-95.830	-115.784	-0.199	-0.037
-94.816	-200.000	0.023	-0.147
-93.801	166.529	0.155	-0.215
-92.786	-200.000	0.155	0.000
-91.772	84.527	0.155	-0.166
-90.757	-118.349	-0.168	0.029
-89.743	231.313	-0.105	-0.169
-88.728	-138.600	-0.357	-0.038
-87.713	800.000	-0.070	-0.252
-86.699	800.000	0.063	-0.199
-85.684	-106.503	0.408	0.089
-84.670	5.156	0.274	0.197
-83.655	-26.689	0.377	-0.216
-82.640	-200.000	0.013	0.066
-81.626	278.903	0.153	0.268
-80.611	800.000	0.090	0.318
-79.597	390.568	-0.114	-0.233
-78.582	-200.000	0.017	0.155
-77.567	-66.099	0.345	0.135
-76.553	800.000	0.076	0.245
-75.538	-200.000	-0.033	0.458
-74.524	151.117	0.098	-0.130
-73.509	-185.534	0.085	0.001
-72.494	-124.032	0.196	0.030
-71.480	36.573	0.061	0.052
-70.465	-189.961	-0.230	0.003
-69.451	51.923	0.268	-0.250
-68.436	637.685	-0.117	-0.291
-67.422	-138.120	-0.102	-0.011
-66.407	800.000	-0.056	-0.231
-65.392	255.783	0.056	0.094
-64.378	-99.615	-0.114	0.028
-63.363	-175.863	0.156	0.004
-62.349	185.664	-0.100	0.146
-61.334	26.898	-1.295	-1.063
-60.319	66.642	0.766	0.763
-59.305	279.947	-0.565	-0.987
-58.290	360.147	0.615	1.204
-57.276	643.390	0.656	1.636
-56.261	-200.000	113.634	649.096
-55.246	539.839	1519.711	3538.744
-54.232	178.457	2691.054	3844.811
-53.217	103.746	2282.996	2623.289
-52.203	37.068	1891.492	1637.679
-51.188	30.973	1680.549	1409.083
-50.173	28.459	1638.951	1355.588
-49.159	50.117	1694.115	1564.433
-48.144	49.267	1708.543	1571.324
-47.130	30.594	1666.192	1393.981
-46.115	27.826	1651.848	1361.314
-45.100	27.639	1646.879	1355.780
-44.086	27.626	1644.292	1353.500
-43.071	27.628	1641.782	1351.394
-42.057	27.602	1639.172	1348.997
-41.042	27.676	1636.943	1347.661
-40.027	27.700	1634.685	1345.924
-39.013	27.671	1632.984	1344.252
-37.998	27.655	1631.407	1342.787
-36.984	27.682	1630.208	1341.944
-35.969	27.659	1629.436	1341.088
-34.954	27.795	1626.941	1339.975
-33.940	27.744	1625.218	1338.132
-32.925	27.797	1623.600	1337.137
-31.911	27.782	1621.902	1335.571
-30.896	27.709	1620.228	1333.607
-29.881	27.735	1618.560	1332.372
-28.867	27.765	1616.779	1331.071
-27.852	27.689	1615.497	1329.406
-26.838	27.779	1613.960	1328.751
-25.823	27.793	1612.747	1327.799
-24.809	27.856	1611.058	1326.816
-23.794	27.782	1609.975	1325.333
-22.779	27.725	1608.699	1323.811
-21.765	27.804	1606.726	1322.714
-20.750	27.705	1605.593	1321.005
-19.736	27.698	1604.064	1319.648
-18.721	27.819	1602.816	1319.441
-17.706	27.740	1601.499	1317.738
-16.692	27.791	1599.481	1316.389
-15.677	27.805	1598.259	1315.431
-14.663	27.924	1596.244	1314.583
-13.648	27.819	1595.239	1312.945
-12.633	27.805	1594.263	1311.990
-11.619	27.874	1592.407	1310.903
-10.604	27.734	1591.080	1308.757
-9.590	27.770	1589.662	1307.795
-8.575	27.860	1588.407	1307.357
-7.560	27.914	1586.905	1306.454
-6.546	27.793	1586.487	1305.195
-5.531	27.801	1585.711	1304.562
-4.517	27.801	1584.423	1303.448
-3.502	27.740	1583.194	1301.954
-2.487	27.886	1581.323	1301.398
-1.473	27.549	1569.144	1288.944
-0.458	24.699	1549.871	1253.117
0.556	22.819	1551.173	1221.529
1.571	20.322	1574.915	1222.549
2.586	19.895	1587.238	1228.980
3.600	17.911	1533.775	1173.846
4.615	11.050	1427.580	1048.423
5.629	4.837	1367.445	965.739
6.644	3.709	1359.949	953.403
7.659	3.701	1358.948	952.566
8.673	3.834	1357.747	952.462
9.688	3.816	1356.236	951.206
10.702	3.756	1353.163	948.598
11.717	6.616	1358.709	970.008
12.731	14.594	1372.635	1029.258
13.746	21.375	1383.941	1079.673
14.761	23.143	1385.531	1091.734
15.775	22.637	1383.856	1087.199
16.790	21.708	1381.732	1079.711
17.804	21.091	1379.789	1074.302
18.819	20.733	1378.771	1071.210
19.834	20.758	1378.312	1070.915
20.848	20.663	1377.174	1069.352
21.863	20.701	1375.842	1068.456
22.877	20.607	1374.447	1066.704
23.892	20.412	1374.130	1065.166
24.907	20.401	1372.968	1064.101
25.921	20.438	1371.966	1063.459
26.936	20.335	1371.493	1062.366
27.950	20.515	1370.582	1062.672
28.965	20.526	1369.563	1061.854
29.980	20.794	1368.109	1062.263
30.994	20.746	1367.893	1061.710
32.009	20.868	1366.636	1061.385
33.023	20.914	1364.799	1060.143
34.038	20.683	1363.834	1057.899
35.053	20.573	1362.914	1056.424
36.067	20.548	1361.505	1055.081
37.082	20.580	1361.003	1054.796
38.096	20.748	1359.944	1054.902
39.111	20.707	1359.195	1053.977
40.126	20.616	1357.762	1052.220
41.140	20.158	1356.960	1048.736
42.155	20.042	1356.062	1047.250
43.169	19.976	1356.179	1046.847
44.184	20.000	1355.647	1046.492
45.199	20.111	1355.694	1047.106
46.213	20.333	1355.725	1048.374
47.228	20.414	1354.769	1048.032
48.242	20.486	1353.494	1047.388
49.257	20.563	1351.851	1046.488
50.271	20.534	1350.482	1045.160
51.286	20.473	1349.614	1044.029
52.301	20.457	1348.035	1042.621
53.315	20.413	1346.379	1040.984
54.330	20.200	1345.352	1038.822
55.344	20.161	1343.912	1037.385
56.359	20.168	1342.992	1036.626
57.374	20.140	1342.263	1035.802
58.388	20.001	1341.969	1034.654
59.403	19.880	1341.566	1033.525
60.417	19.911	1340.516	1032.811
61.432	19.859	1339.265	1031.449
62.447	19.742	1338.648	1030.185
63.461	19.696	1337.011	1028.559
64.476	19.709	1335.647	1027.498
65.490	19.774	1334.901	1027.220
66.505	19.674	1333.360	1025.345
67.520	19.829	1332.234	1025.312
68.534	19.782	1331.374	1024.277
69.549	19.709	1330.552	1023.126
70.563	19.558	1329.336	1021.208
71.578	19.411	1328.255	1019.416
72.593	19.468	1327.107	1018.784
73.607	19.417	1326.616	1018.014
74.622	19.529	1325.686	1017.873
75.636	19.621	1325.664	1018.308
76.651	19.626	1324.630	1017.453
77.666	19.572	1324.507	1016.946
78.680	19.707	1323.913	1017.196
79.695	19.664	1323.443	1016.493
80.709	19.962	1322.364	1017.326
81.724	20.051	1321.708	1017.253
82.739	20.130	1321.367	1017.365
83.753	20.383	1320.301	1017.936
84.768	20.610	1319.849	1018.825
85.782	20.604	1319.554	1018.478
86.797	20.766	1317.688	1017.889
87.812	20.592	1316.273	1015.690
88.826	20.655	1315.122	1015.080
89.841	20.525	1315.066	1014.192
90.855	20.679	1313.509	1013.801
91.870	20.815	1312.731	1013.900
92.884	20.821	1312.214	1013.444
93.899	20.811	1311.584	1012.808
94.914	20.831	1310.839	1012.265
95.928	20.814	1310.359	1011.704
96.943	20.741	1309.122	1010.236
97.957	20.696	1308.205	1009.179
98.972	20.753	1307.183	1008.631
99.987	20.608	1306.059	1006.836
101.001	20.761	1305.504	1007.203
102.016	20.595	1304.450	1005.337
103.030	20.811	1303.254	1005.575
104.045	20.741	1302.218	1004.282
105.060	20.467	1300.770	1001.497
106.074	20.142	1299.610	998.647
107.089	19.918	1297.452	995.612
108.103	19.742	1296.266	993.604
109.118	19.722	1294.989	992.418
110.133	19.643	1294.192	991.269
111.147	19.843	1292.782	991.245
112.162	19.909	1291.465	990.528
113.176	19.903	1290.476	989.646
114.191	19.995	1289.577	989.397
115.206	20.029	1288.848	988.942
116.220	19.833	1287.930	987.033
117.235	19.905	1286.140	985.981
118.249	19.742	1285.388	984.391
119.264	19.649	1284.305	982.944
120.279	19.656	1282.979	981.882
121.293	19.550	1282.149	980.561
122.308	19.492	1280.782	979.100
123.322	19.503	1279.435	978.045
124.337	19.424	1278.401	976.718
125.352	19.424	1277.300	975.791
126.366	19.321	1276.621	974.605
127.381	19.333	1275.427	973.674
128.395	19.241	1274.382	972.273
129.410	19.333	1273.705	972.188
130.424	19.531	1272.913	972.616
131.439	19.575	1272.846	972.724
132.454	19.739	1271.464	972.505
133.468	19.846	1271.137	972.770
134.483	19.795	1270.855	972.179
135.497	19.769	1269.508	970.921
136.512	19.869	1268.471	970.605
137.527	19.953	1266.786	969.697
138.541	19.943	1265.812	968.807
139.556	20.152	1264.412	968.823
140.570	20.178	1263.644	968.291
141.585	20.299	1262.892	968.306
142.600	20.401	1262.235	968.284
143.614	20.587	1261.270	968.497
144.629	20.611	1260.318	967.811
145.643	20.618	1259.025	966.771
146.658	20.483	1257.813	965.008
147.673	20.275	1256.173	962.507
148.687	20.042	1255.160	960.354
149.702	19.975	1253.535	958.659
150.716	19.857	1251.809	956.599
151.731	19.862	1251.085	955.989
152.746	19.852	1250.280	955.233
153.760	19.973	1249.011	954.847
154.775	20.162	1247.811	954.887
155.789	20.425	1246.599	955.323
156.804	20.320	1246.611	954.669
157.819	20.381	1245.315	953.925
158.833	20.523	1244.821	954.243
159.848	20.614	1244.781	954.627
160.862	20.567	1243.421	953.243
161.877	20.184	1241.757	949.784
162.892	19.854	1239.977	946.535
163.906	19.827	1239.374	945.844
164.921	19.845	1238.660	945.314
165.935	19.917	1237.555	944.779
166.950	20.146	1237.437	945.853
167.964	20.222	1236.628	945.568
168.979	20.029	1235.893	943.872
169.994	20.001	1235.249	943.141
171.008	19.940	1234.436	942.108
172.023	20.184	1233.926	942.960
173.037	20.392	1233.538	943.713
174.052	20.334	1232.286	942.355
175.067	20.007	1231.115	939.604
176.081	19.891	1229.461	937.626
177.096	19.789	1228.825	936.507
178.110	19.960	1227.682	936.479
179.125	19.915	1226.827	935.502
180.140	20.067	1225.921	935.547
181.154	20.293	1224.863	935.878
182.169	20.524	1223.610	936.079
183.183	20.409	1222.862	934.809
184.198	20.497	1221.865	934.434
185.213	20.450	1220.881	933.346
186.227	20.500	1219.913	932.793
187.242	20.680	1218.907	932.905
188.256	20.766	1218.063	932.637
189.271	20.730	1217.209	931.712
190.286	20.550	1215.794	929.580
191.300	20.054	1214.755	926.052
192.315	19.840	1213.835	924.128
193.329	20.092	1212.888	924.671
194.344	19.969	1213.035	924.043
195.359	19.981	1212.175	923.373
196.373	20.203	1211.195	923.726
197.388	20.231	1211.713	924.190
198.402	20.494	1211.517	925.355
199.417	20.824	1211.067	926.690
200.432	21.045	1210.292	927.189
201.446	21.147	1209.977	927.408
202.461	21.092	1208.984	926.273
203.475	21.015	1208.150	925.145
204.490	20.782	1206.132	922.281
205.504	20.505	1205.187	920.012
206.519	20.440	1203.834	918.551
207.534	20.405	1202.119	916.980
208.548	20.435	1201.650	916.698
209.563	20.480	1200.654	916.096
210.577	20.596	1199.566	915.794
211.592	20.593	1199.516	915.659
212.607	20.681	1198.679	915.403
213.621	20.805	1197.643	915.182
214.636	20.673	1197.064	913.963
215.650	20.656	1196.409	913.295
216.665	20.904	1195.526	913.839
217.680	21.029	1195.025	914.031
218.694	21.063	1194.308	913.580
219.709	21.040	1193.164	912.506
220.723	21.047	1192.372	911.855
221.738	20.919	1191.625	910.535
222.753	20.917	1190.463	909.556
223.767	20.919	1189.991	909.122
224.782	21.079	1189.850	909.769
225.796	21.241	1189.031	909.910
226.811	21.124	1188.410	908.744
227.826	20.840	1187.827	906.740
228.840	20.729	1186.794	905.294
229.855	20.755	1185.590	904.427
230.869	20.755	1185.060	903.945
231.884	20.642	1184.096	902.543
232.899	20.512	1183.163	901.077
233.913	20.401	1182.347	899.802
234.928	20.420	1181.781	899.391
235.942	20.290	1181.129	898.140
236.957	20.385	1180.171	897.826
237.972	20.247	1179.249	896.330
238.986	20.328	1178.887	896.393
240.001	20.382	1178.401	896.222
241.015	20.478	1177.312	895.814
242.030	20.500	1177.044	895.640
243.045	20.703	1176.152	895.929
244.059	20.758	1175.582	895.697
245.074	20.902	1174.391	895.453
246.088	20.985	1173.365	895.015
247.103	21.100	1173.025	895.270
248.117	21.295	1172.809	896.026
249.132	21.334	1172.330	895.780
250.147	21.740	1171.757	897.341
251.161	21.806	1171.430	897.350
252.176	21.889	1170.637	897.089
253.190	21.934	1170.459	897.102
254.205	22.032	1169.915	897.105
255.220	22.055	1169.406	896.754
256.234	21.977	1168.751	895.774
257.249	22.028	1167.467	894.971
258.263	22.008	1166.931	894.376
259.278	21.865	1166.285	893.074
260.293	21.965	1165.639	893.010
261.307	22.035	1165.429	893.128
262.322	22.095	1164.872	892.924
263.336	22.079	1164.319	892.343
264.351	22.081	1163.775	891.858
265.366	22.051	1162.732	890.825
266.380	22.161	1162.089	890.813
267.395	21.976	1161.216	889.129
268.409	21.773	1160.287	887.310
269.424	21.744	1159.485	886.469
270.439	21.837	1158.582	886.172
271.453	21.731	1158.364	885.390
272.468	21.433	1157.311	883.001
273.482	21.520	1156.137	882.470
274.497	21.442	1155.939	881.845
275.512	21.569	1154.723	881.479
276.526	21.584	1153.859	880.816
277.541	21.638	1153.129	880.456
278.555	21.641	1153.232	880.468
279.570	21.714	1153.241	880.768
280.585	21.981	1152.160	881.201
281.599	22.012	1151.095	880.469
282.614	21.741	1149.504	877.816
283.628	21.611	1148.413	876.251
284.643	21.664	1147.556	875.788
285.657	21.640	1146.770	874.990
286.672	21.639	1146.018	874.331
287.687	21.624	1145.210	873.564
288.701	21.650	1144.143	872.805
289.716	21.648	1143.894	872.525
290.730	21.659	1143.015	871.832
291.745	21.722	1142.656	871.796
292.760	21.754	1141.534	871.020
293.774	21.818	1141.406	871.164
294.789	21.902	1141.166	871.322
295.803	22.080	1139.864	871.132
296.818	21.712	1139.137	868.677
297.833	21.694	1137.740	867.445
298.847	21.720	1137.441	867.270
299.862	21.758	1136.676	866.797
300.876	21.797	1135.999	866.398
301.891	21.936	1135.249	866.435
302.906	21.997	1135.114	866.557
303.920	22.261	1134.145	867.040
304.935	22.376	1134.080	867.482
305.949	22.457	1133.361	867.254
306.964	22.389	1132.940	866.521
307.979	22.268	1132.035	865.154
308.993	22.144	1131.233	863.856
310.008	22.217	1130.310	863.432
311.022	22.337	1129.971	863.689
312.037	22.267	1129.240	862.709
313.052	22.069	1127.946	860.674
314.066	21.858	1126.655	858.581
315.081	21.594	1125.441	856.288
316.095	21.647	1124.723	855.926
317.110	21.606	1124.438	855.433
318.125	21.610	1123.235	854.462
319.139	21.629	1122.639	854.025
320.154	21.689	1121.965	853.729
321.168	21.692	1121.370	853.214
322.183	21.659	1120.696	852.465
323.197	21.624	1120.536	852.098
324.212	21.811	1119.869	852.427
325.227	21.881	1119.276	852.237
326.241	21.906	1118.322	851.559
327.256	21.772	1117.656	850.326
328.270	21.803	1116.577	849.580
329.285	21.727	1115.750	848.509
330.300	21.766	1114.926	847.995
331.314	21.676	1113.892	846.695
332.329	21.721	1113.210	846.321
333.343	21.758	1112.560	845.933
334.358	22.024	1111.574	846.390
335.373	22.080	1110.950	846.110
336.387	22.027	1110.838	845.693
337.402	22.283	1109.729	846.004
338.416	22.203	1109.334	845.244
339.431	22.391	1108.966	845.794
340.446	22.541	1108.097	845.774
341.460	22.746	1107.550	846.267
342.475	22.737	1107.263	845.930
343.489	22.926	1106.202	845.948
344.504	22.856	1105.424	844.943
345.519	22.914	1104.347	844.323
346.533	23.051	1103.894	844.556
347.548	23.020	1103.443	843.991
348.562	22.960	1102.406	842.834
349.577	22.593	1101.390	840.236
350.592	22.380	1099.975	838.066
351.606	22.208	1099.112	836.516
352.621	22.095	1098.818	835.682
353.635	22.033	1097.643	834.419
354.650	22.076	1097.126	834.156
355.665	22.213	1096.503	834.261
356.679	22.295	1095.899	834.115
357.694	22.423	1095.454	834.309
358.708	22.444	1095.058	834.032
359.723	22.527	1094.008	833.551
360.738	22.535	1093.364	833.026
361.752	22.632	1092.827	833.002
362.767	22.503	1092.522	832.087
363.781	22.534	1091.996	831.756
364.796	22.800	1091.780	832.776
365.810	22.983	1090.941	832.923
366.825	23.006	1091.284	833.219
367.840	23.202	1090.480	833.456
368.854	23.354	1089.736	833.529
369.869	23.259	1089.398	832.747
370.883	23.098	1088.153	830.969
371.898	22.932	1087.031	829.257
372.913	22.909	1086.338	828.549
373.927	23.101	1086.078	829.175
374.942	23.174	1085.752	829.196
375.956	23.125	1085.176	828.453
376.971	23.009	1084.560	827.368
377.986	23.377	1083.821	828.451
379.000	23.333	1083.555	827.969
380.015	23.343	1083.337	827.778
381.029	23.427	1082.663	827.578
382.044	23.342	1082.018	826.616
383.059	23.276	1081.442	825.798
384.073	23.318	1080.218	824.986
385.088	23.317	1079.593	824.429
386.102	23.288	1078.314	823.243
387.117	23.038	1077.302	821.238
388.132	22.781	1076.443	819.316
389.146	22.878	1075.131	818.697
390.161	22.780	1074.536	817.714
391.175	22.760	1074.260	817.343
392.190	22.929	1073.628	817.569
393.205	23.172	1072.804	817.992
394.219	23.148	1072.259	817.395
395.234	23.005	1070.871	815.605
396.248	22.768	1070.192	813.924
397.263	22.862	1068.691	813.140
398.278	22.742	1068.057	812.035
399.292	22.700	1067.362	811.241
400.307	22.580	1066.492	809.957
401.321	22.533	1066.187	809.441
402.336	22.635	1065.047	808.968
403.350	22.683	1064.379	808.609
404.365	22.679	1064.109	808.316
405.380	22.866	1063.277	808.469
406.394	22.935	1062.413	808.057
407.409	23.248	1062.093	809.172
408.423	23.364	1061.661	809.300
409.438	23.537	1060.677	809.268
410.453	23.647	1060.255	809.377
411.467	23.464	1060.003	808.278
412.482	23.633	1059.405	808.522
413.496	23.627	1058.848	807.995
414.511	23.727	1058.417	808.050
415.526	23.816	1058.483	808.434
416.540	23.888	1057.770	808.145
417.555	23.743	1056.843	806.709
418.569	23.734	1056.100	806.027
419.584	23.689	1055.561	805.342
420.599	23.693	1055.068	804.911
421.613	157.276	1403.164	1798.247
422.628	144.466	1453.851	1798.311
