DTS Sentinel unit serial number:	SN413079Multiplexer serial number:	ORYXHardware model number:	OX4-SRSoftware version number:	ORYX F/W v4.00 Oryx Data Collector v3.7.2.0data status	okinstallation	princeton_trtdifferential loss correction	single-endedforward channel	channel 2reverse channel	N/Adate	2019/09/12time	11:05:11forward acquisition time	60.00reverse acquisition time	0.00gamma	496.2192k internal	0.2305k external	0.2305temperature offset calibration	1.0070default loss term (dB/km)	0.3790temperature slope calibration	1.0000multiplexer offset coefficient	1.0000multiplexer slope coefficient	1.0000fibre end	0.00T internal ref (°C)	38.58T ext. ref 1 (°C)	1.93T ext. ref 2 (°C)	35.81length (m)	temperature (°C)	Stokes	anti-Stokes-747.200	-35.979	0.234	-0.129
-746.185	265.758	-0.178	0.317
-745.171	13.176	-0.236	0.186
-744.156	-46.102	-0.181	0.091
-743.142	-140.866	0.312	0.033
-742.127	557.146	-0.150	0.369
-741.112	216.492	-0.165	0.267
-740.098	-28.652	-0.281	0.165
-739.083	-200.000	-0.049	-0.232
-738.069	667.749	0.169	0.444
-737.054	-3.230	-0.223	0.158
-736.039	51.648	-0.344	0.333
-735.025	-200.000	-0.003	0.221
-734.010	513.756	0.034	0.081
-732.996	-156.979	0.173	0.011
-731.981	800.000	0.037	0.149
-730.966	81.261	0.103	0.113
-729.952	-51.423	-0.273	-0.130
-728.937	-62.426	-0.316	-0.134
-727.923	51.847	0.239	-0.232
-726.908	800.000	0.026	-0.076
-725.894	-85.498	0.369	0.117
-724.879	-34.183	-0.194	0.108
-723.864	77.440	0.039	-0.042
-722.850	-200.000	-0.007	-0.065
-721.835	-200.000	0.022	-0.145
-720.821	394.602	0.094	-0.199
-719.806	-97.367	-0.473	0.125
-718.791	1.636	-0.140	-0.103
-717.777	-48.353	-0.109	0.054
-716.762	-200.000	0.030	-0.229
-715.748	12.735	-0.050	-0.040
-714.733	800.000	0.006	-0.027
-713.718	321.702	0.167	-0.324
-712.704	-34.054	-0.063	0.035
-711.689	67.609	-0.087	0.091
-710.675	85.783	-0.143	0.160
-709.660	243.883	0.058	-0.099
-708.645	-200.000	-0.079	-0.516
-707.631	-102.319	-0.175	-0.043
-706.616	43.685	0.067	0.062
-705.602	276.395	0.125	0.226
-704.587	307.738	0.158	-0.299
-703.572	372.727	-0.146	-0.301
-702.558	500.169	0.075	-0.176
-701.543	-164.353	-0.505	-0.023
-700.529	-158.208	-0.216	0.013
-699.514	133.763	-0.177	-0.232
-698.499	800.000	-0.067	0.259
-697.485	3.664	0.204	-0.152
-696.470	-77.004	0.507	-0.180
-695.456	800.000	-0.081	-0.230
-694.441	800.000	0.085	0.247
-693.426	-73.180	-0.234	0.087
-692.412	101.802	-0.064	0.076
-691.397	-91.261	-0.276	-0.080
-690.383	800.000	-0.042	0.151
-689.368	134.894	0.124	-0.164
-688.354	86.248	-0.102	0.114
-687.339	-99.880	-0.039	-0.010
-686.324	-200.000	0.035	-0.441
-685.310	-157.140	-0.100	0.006
-684.295	109.437	-0.076	0.092
-683.281	102.062	0.180	-0.214
-682.266	-163.167	-0.248	0.012
-681.251	106.178	-0.102	-0.123
-680.237	42.091	-0.050	-0.046
-679.222	-200.000	0.029	-0.245
-678.208	5.685	-0.132	-0.099
-677.193	121.967	-0.292	-0.370
-676.178	-167.616	-0.358	-0.014
-675.164	495.234	0.024	-0.057
-674.149	-84.332	0.185	0.060
-673.135	800.000	-0.124	-0.420
-672.120	-38.991	-0.130	0.070
-671.105	226.407	-0.096	0.159
-670.091	800.000	0.028	0.111
-669.076	224.425	-0.091	0.149
-668.062	36.989	0.153	-0.137
-667.047	-147.706	-0.225	-0.019
-666.032	-79.538	0.013	0.004
-665.018	800.000	0.052	-0.205
-664.003	225.018	-0.153	-0.251
-662.989	-20.804	0.050	0.031
-661.974	-68.724	-0.090	0.035
-660.959	-77.155	-0.118	0.042
-659.945	85.537	0.134	0.149
-658.930	136.231	0.066	-0.087
-657.916	-200.000	-0.008	-0.143
-656.901	47.875	-0.126	-0.120
-655.886	-54.338	0.082	0.038
-654.872	800.000	-0.112	-0.351
-653.857	143.205	-0.095	0.129
-652.843	-24.823	0.074	-0.045
-651.828	36.507	-0.396	-0.354
-650.814	-65.769	-0.234	-0.095
-649.799	305.650	0.059	-0.111
-648.784	204.703	-0.178	-0.281
-647.770	401.419	0.122	-0.260
-646.755	198.540	-0.199	-0.309
-645.741	30.025	-0.064	0.055
-644.726	-121.195	-0.153	0.026
-643.711	-12.159	0.153	-0.101
-642.697	279.002	0.108	0.196
-641.682	-98.817	0.169	-0.044
-640.668	35.226	0.068	0.060
-639.653	27.377	0.139	0.118
-638.638	-200.000	-0.016	-0.300
-637.624	103.512	0.093	-0.110
-636.609	56.063	0.010	0.010
-635.595	26.457	-0.263	0.223
-634.580	-158.962	-0.100	0.006
-633.565	320.087	0.011	-0.021
-632.551	2.819	0.152	-0.112
-631.536	-200.000	0.023	0.263
-630.522	-65.141	0.120	-0.049
-629.507	-91.028	-0.164	-0.048
-628.492	-81.882	-0.228	0.076
-627.478	-11.289	0.178	-0.119
-626.463	-49.284	-0.122	0.059
-625.449	-41.957	-0.051	-0.027
-624.434	-31.696	0.044	-0.025
-623.419	-25.612	-0.199	0.119
-622.405	-128.486	0.099	0.014
-621.390	128.468	-0.057	0.074
-620.376	225.312	-0.118	-0.194
-619.361	-200.000	0.016	0.269
-618.346	800.000	0.038	0.150
-617.332	-64.354	0.290	-0.120
-616.317	-4.928	0.138	-0.096
-615.303	-156.993	-0.143	-0.009
-614.288	-121.051	0.194	0.033
-613.273	220.391	0.126	-0.204
-612.259	108.224	-0.052	-0.063
-611.244	-83.198	-0.015	0.005
-610.230	92.925	0.218	-0.250
-609.215	61.017	-0.174	0.175
-608.201	34.799	-0.134	0.119
-607.186	-28.851	0.122	0.071
-606.171	-70.331	0.263	0.101
-605.157	609.216	0.123	0.311
-604.142	-200.000	-0.029	-0.179
-603.128	-103.294	0.270	-0.064
-602.113	-75.846	0.251	0.090
-601.098	800.000	-0.064	-0.232
-600.084	59.193	-0.099	0.098
-599.069	503.149	0.111	0.259
-598.055	800.000	-0.127	0.409
-597.040	370.747	-0.123	0.252
-596.025	800.000	-0.079	0.294
-595.011	69.451	-0.198	-0.206
-593.996	-17.431	0.026	0.016
-592.982	800.000	0.058	-0.219
-591.967	-200.000	0.059	0.353
-590.952	-62.845	0.187	-0.078
-589.938	-141.529	0.022	-0.002
-588.923	-200.000	0.009	-0.229
-587.909	592.740	0.097	-0.243
-586.894	102.842	-0.178	-0.211
-585.879	-181.171	-0.231	-0.005
-584.865	-200.000	0.050	-0.247
-583.850	-68.482	-0.280	0.110
-582.836	800.000	-0.074	0.214
-581.821	-39.656	-0.098	-0.052
-580.806	-28.047	-0.156	-0.091
-579.792	2.753	0.097	-0.071
-578.777	-200.000	0.032	-0.198
-577.763	64.107	-0.176	0.179
-576.748	-1.500	-0.234	0.167
-575.733	-160.432	0.244	-0.013
-574.719	-82.521	-0.487	0.160
-573.704	480.034	0.137	-0.314
-572.690	800.000	-0.055	-0.174
-571.675	-20.094	0.086	-0.054
-570.661	-7.773	-0.261	-0.178
-569.646	-200.000	0.019	-0.098
-568.631	800.000	0.083	0.267
-567.617	-0.135	0.202	-0.145
-566.602	-57.834	-0.218	0.097
-565.588	-115.969	0.329	-0.062
-564.573	800.000	-0.043	0.146
-563.558	-83.424	-0.537	0.174
-562.544	-117.992	0.251	0.045
-561.529	1.332	0.198	-0.144
-560.515	37.258	0.289	0.259
-559.500	-139.556	0.093	-0.010
-558.485	-49.603	0.191	0.092
-557.471	800.000	0.064	-0.280
-556.456	-53.908	0.122	-0.056
-555.442	37.385	-0.042	0.037
-554.427	-200.000	0.029	0.143
-553.412	13.012	0.090	0.070
-552.398	428.719	0.190	-0.415
-551.383	292.589	-0.045	-0.083
-550.369	202.060	-0.200	-0.311
-549.354	-10.099	-0.077	0.052
-548.339	-107.452	-0.233	-0.052
-547.325	-130.195	0.056	0.008
-546.310	324.261	-0.210	-0.404
-545.296	168.691	-0.212	-0.306
-544.281	800.000	-0.051	-0.153
-543.266	-176.140	0.283	0.008
-542.252	-125.693	0.081	-0.012
-541.237	14.815	0.129	-0.102
-540.223	376.833	-0.098	0.202
-539.208	136.725	0.116	-0.153
-538.193	750.351	-0.164	-0.447
-537.179	112.698	0.188	-0.230
-536.164	-200.000	-0.006	-0.162
-535.150	-200.000	-0.018	-0.382
-534.135	132.866	0.337	0.439
-533.121	-96.364	-0.177	0.047
-532.106	482.665	-0.091	-0.208
-531.091	-147.632	-0.223	-0.019
-530.077	399.294	0.234	0.495
-529.062	-84.940	0.109	0.035
-528.048	-200.000	-0.003	-0.360
-527.033	55.585	0.141	-0.137
-526.018	267.045	-0.089	0.157
-525.004	-4.008	0.272	-0.191
-523.989	-31.875	-0.088	0.049
-522.975	800.000	0.179	0.540
-521.960	-173.244	0.200	0.006
-520.945	800.000	0.042	-0.170
-519.931	800.000	-0.071	-0.237
-518.916	499.511	-0.141	0.328
-517.902	-200.000	-0.039	0.256
-516.887	289.700	-0.112	0.206
-515.872	-13.452	0.081	-0.053
-514.858	-78.285	0.096	0.033
-513.843	442.875	0.033	-0.074
-512.829	-67.666	-0.206	0.081
-511.814	-200.000	-0.015	-0.140
-510.799	-138.744	0.153	-0.017
-509.785	-112.212	0.104	0.021
-508.770	-118.303	-0.116	0.021
-507.756	563.590	0.067	0.163
-506.741	-134.628	-0.357	-0.044
-505.726	-143.737	-0.164	0.016
-504.712	147.824	0.082	0.111
-503.697	-200.000	-0.012	-0.072
-502.683	136.461	-0.186	0.245
-501.668	-190.097	-0.271	-0.003
-500.653	43.744	-0.340	-0.313
-499.639	-200.000	0.023	0.266
-498.624	-56.864	0.178	0.079
-497.610	800.000	-0.050	-0.142
-496.595	328.858	-0.070	-0.137
-495.581	258.238	-0.027	0.046
-494.566	800.000	-0.019	0.060
-493.551	-62.148	-0.408	-0.172
-492.537	113.224	-0.137	-0.167
-491.522	23.700	0.154	-0.128
-490.508	-113.702	-0.269	-0.053
-489.493	-200.000	-0.003	-0.063
-488.478	3.496	-0.072	-0.053
-487.464	19.428	0.168	0.136
-486.449	51.584	-0.263	-0.252
-485.435	34.232	-0.175	-0.154
-484.420	246.633	0.136	-0.232
-483.405	-200.000	0.015	0.093
-482.391	251.392	0.095	-0.163
-481.376	-200.000	-0.248	-0.000
-480.362	-52.426	0.407	0.190
-479.347	13.144	0.201	-0.156
-478.332	488.858	0.075	0.172
-477.318	27.847	-0.168	0.143
-476.303	39.840	-0.113	-0.102
-475.289	-151.534	-0.085	0.006
-474.274	-11.872	-0.308	-0.203
-473.259	-200.000	-0.014	0.163
-472.245	-3.556	0.204	0.143
-471.230	34.611	0.132	0.116
-470.216	-200.000	-0.038	0.291
-469.201	691.995	-0.043	0.113
-468.186	-200.000	-0.043	0.300
-467.172	-149.689	0.270	-0.021
-466.157	-132.270	-0.054	-0.007
-465.143	692.686	0.040	-0.105
-464.128	-33.891	-0.133	0.074
-463.113	158.398	0.158	-0.221
-462.099	-15.984	0.297	0.190
-461.084	-28.801	-0.104	-0.060
-460.070	681.480	0.035	0.093
-459.055	140.681	0.101	-0.135
-458.040	-130.504	-0.137	-0.019
-457.026	2.722	-0.240	-0.175
-456.011	273.787	0.050	0.089
-454.997	-112.409	-0.211	0.043
-453.982	-200.000	0.121	0.000
-452.968	43.849	0.099	0.092
-451.953	800.000	-0.024	0.094
-450.938	-200.000	-0.014	-0.106
-449.924	100.712	0.134	-0.156
-448.909	35.640	-0.158	-0.139
-447.895	-28.543	-0.208	0.120
-446.880	-200.000	0.033	-0.185
-445.865	8.030	-0.298	-0.225
-444.851	246.154	-0.228	-0.386
-443.836	137.051	0.276	-0.363
-442.822	800.000	0.026	-0.116
-441.807	-86.771	-0.165	-0.051
-440.792	760.907	-0.110	0.300
-439.778	-186.578	0.225	0.003
-438.763	180.740	0.055	-0.082
-437.749	-108.002	0.350	0.077
-436.734	-200.000	-0.026	0.244
-435.719	800.000	0.031	-0.088
-434.705	-30.577	0.261	-0.149
-433.690	282.351	-0.222	-0.400
-432.676	-18.579	-0.244	-0.153
-431.661	-55.698	-0.184	0.083
-430.646	41.177	0.136	-0.123
-429.632	-129.466	0.163	0.023
-428.617	-60.884	0.050	0.021
-427.603	88.649	-0.079	0.088
-426.588	4.132	0.130	0.096
-425.573	-200.000	0.036	-0.214
-424.559	-143.887	0.448	-0.043
-423.544	-200.000	0.021	-0.234
-422.530	538.196	-0.091	-0.218
-421.515	-200.000	0.039	-0.211
-420.500	-73.349	-0.327	0.120
-419.486	-37.281	0.119	-0.064
-418.471	265.718	-0.128	0.225
-417.457	218.054	-0.039	-0.062
-416.442	-50.991	-0.249	-0.117
-415.428	-200.000	-0.030	-0.311
-414.413	247.071	0.116	0.198
-413.398	481.729	0.120	0.274
-412.384	-114.854	-0.337	0.065
-411.369	29.073	0.250	0.213
-410.355	188.876	-0.147	0.221
-409.340	-200.000	0.005	-0.054
-408.325	-90.787	0.083	0.024
-407.311	-39.195	-0.185	0.098
-406.296	41.602	0.114	-0.104
-405.282	51.127	0.094	0.090
-404.267	800.000	0.043	0.134
-403.252	128.864	0.138	-0.177
-402.238	-41.844	-0.030	0.016
-401.223	-6.365	-0.029	-0.020
-400.209	86.762	0.155	0.172
-399.194	800.000	-0.071	0.232
-398.179	424.642	-0.070	0.151
-397.165	301.339	-0.050	-0.093
-396.150	-169.314	0.343	-0.013
-395.136	-200.000	-0.013	0.330
-394.121	-59.002	-0.128	-0.056
-393.106	799.301	-0.074	-0.205
-392.092	747.346	0.118	0.319
-391.077	231.068	-0.173	-0.285
-390.063	-200.000	0.047	-0.234
-389.048	130.011	-0.139	0.179
-388.033	-52.318	-0.198	-0.092
-387.019	800.000	-0.066	0.185
-386.004	-102.557	-0.131	0.031
-384.990	27.627	-0.211	0.178
-383.975	-67.776	-0.254	-0.100
-382.960	553.728	0.146	-0.352
-381.946	800.000	0.067	0.194
-380.931	-96.511	0.399	-0.106
-379.917	12.644	0.239	-0.185
-378.902	-141.372	-0.140	-0.014
-377.888	800.000	0.022	-0.064
-376.873	680.369	-0.047	0.122
-375.858	313.417	-0.067	0.126
-374.844	-32.306	0.436	0.244
-373.829	144.146	0.170	-0.228
-372.815	800.000	-0.020	-0.085
-371.800	-200.000	-0.002	0.204
-370.785	-107.782	-0.268	0.059
-369.771	307.836	-0.161	0.301
-368.756	-91.919	0.162	0.046
-367.742	269.286	0.130	-0.230
-366.727	-200.000	0.011	0.407
-365.712	623.536	-0.086	0.217
-364.698	-146.787	-0.142	0.012
-363.683	-70.381	-0.283	-0.108
-362.669	97.796	0.087	-0.100
-361.654	800.000	0.105	0.443
-360.639	-24.927	0.294	-0.175
-359.625	30.981	0.137	0.117
-358.610	-100.604	0.140	0.035
-357.596	-102.606	0.032	-0.008
-356.581	161.869	-0.105	0.147
-355.566	149.611	0.056	-0.076
-354.552	-200.000	-0.055	0.377
-353.537	162.721	-0.164	-0.231
-352.523	-56.515	-0.122	-0.054
-351.508	-17.415	-0.238	0.150
-350.493	-113.152	0.101	0.020
-349.479	693.252	0.040	0.105
-348.464	-157.228	-0.344	0.021
-347.450	341.475	-0.151	0.295
-346.435	-200.000	0.028	0.290
-345.420	-92.967	0.198	0.055
-344.406	-152.782	-0.537	-0.038
-343.391	-65.378	-0.047	-0.019
-342.377	66.597	-0.033	-0.033
-341.362	625.836	-0.179	0.453
-340.348	-174.038	0.312	0.009
-339.333	-109.089	-0.293	0.063
-338.318	-200.000	0.044	0.205
-337.304	324.511	-0.048	0.092
-336.289	-121.638	-0.381	0.063
-335.275	-111.920	-0.380	0.077
-334.260	800.000	0.017	-0.060
-333.245	31.440	-0.240	0.206
-332.231	710.532	-0.044	0.118
-331.216	63.184	0.144	-0.145
-330.202	-160.675	-0.219	0.012
-329.187	-14.438	-0.077	-0.049
-328.172	8.345	-0.147	-0.111
-327.158	-39.759	-0.089	-0.047
-326.143	-71.257	-0.270	-0.101
-325.129	-142.026	0.236	0.024
-324.114	1.515	0.109	-0.079
-323.099	-47.251	0.253	0.124
-322.085	-200.000	0.011	0.158
-321.070	-32.714	0.405	-0.226
-320.056	-200.000	-0.020	-0.219
-319.041	372.032	0.047	-0.095
-318.026	627.117	-0.042	0.107
-317.012	44.719	0.117	-0.108
-315.997	-118.823	0.289	0.051
-314.983	2.105	-0.057	-0.041
-313.968	-149.573	-0.274	-0.022
-312.953	800.000	0.026	-0.105
-311.939	-200.000	-0.009	0.044
-310.924	102.347	-0.121	-0.142
-309.910	-157.270	0.133	-0.008
-308.895	800.000	-0.082	-0.325
-307.880	-69.168	-0.236	-0.091
-306.866	-200.000	-0.012	-0.373
-305.851	-79.655	-0.097	0.033
-304.837	-111.028	-0.286	0.059
-303.822	471.432	-0.011	0.024
-302.807	-200.000	0.018	-0.363
-301.793	397.590	0.101	0.210
-300.778	351.211	-0.067	0.133
-299.764	-200.000	-0.019	0.128
-298.749	283.927	-0.127	0.228
-297.735	251.453	0.032	0.055
-296.720	-21.306	0.219	0.134
-295.705	218.530	-0.112	-0.179
-294.691	800.000	0.018	0.050
-293.676	-138.742	-0.354	0.039
-292.662	-200.000	0.035	0.474
-291.647	-92.356	-0.197	0.055
-290.632	-200.000	-0.016	0.232
-289.618	-200.000	0.004	0.041
-288.603	-56.696	-0.077	-0.034
-287.589	-200.000	0.050	0.271
-286.574	800.000	0.016	-0.064
-285.559	-200.000	0.033	0.322
-284.545	-88.667	0.137	0.041
-283.530	-46.884	0.258	0.126
-282.516	-97.754	0.145	-0.037
-281.501	-38.887	0.077	0.040
-280.486	-200.000	-0.022	0.177
-279.472	-86.157	0.323	-0.100
-278.457	144.144	-0.067	-0.089
-277.443	-200.000	-0.039	-0.284
-276.428	434.761	-0.105	-0.228
-275.413	-6.040	0.214	0.147
-274.399	665.956	0.031	-0.081
-273.384	-24.807	-0.223	0.132
-272.370	161.509	-0.024	-0.033
-271.355	-124.856	0.290	0.045
-270.340	197.422	0.255	0.388
-269.326	-19.786	-0.297	0.183
-268.311	452.016	-0.095	0.211
-267.297	132.456	-0.149	-0.191
-266.282	-55.403	-0.013	-0.006
-265.267	69.732	0.078	-0.080
-264.253	-200.000	-0.004	-0.282
-263.238	-34.415	0.335	-0.184
-262.224	-77.137	0.257	0.089
-261.209	81.361	-0.283	0.306
-260.195	-200.000	-0.016	-0.292
-259.180	3.018	0.122	-0.088
-258.165	625.376	0.022	-0.054
-257.151	118.758	-0.036	0.044
-256.136	800.000	-0.090	-0.275
-255.122	278.281	0.087	0.155
-254.107	-77.167	-0.187	-0.065
-253.092	179.515	-0.182	0.266
-252.078	-79.935	0.298	-0.100
-251.063	241.694	-0.087	-0.145
-250.049	-159.169	-0.215	0.012
-249.034	-67.901	-0.236	0.092
-248.019	-188.453	-0.576	-0.007
-247.005	-85.366	0.314	-0.098
-245.990	-126.396	0.408	0.061
-244.976	148.443	0.238	-0.321
-243.961	98.726	-0.097	-0.111
-242.946	-200.000	-0.013	0.092
-241.932	237.952	-0.136	-0.225
-240.917	-200.000	-0.021	0.183
-239.903	-65.616	0.320	0.128
-238.888	59.438	0.198	0.194
-237.873	-67.860	0.131	0.051
-236.859	-16.784	0.189	0.120
-235.844	-157.173	-0.273	-0.017
-234.830	-119.998	-0.381	-0.065
-233.815	0.815	0.116	0.083
-232.800	800.000	0.054	-0.219
-231.786	-200.000	0.035	-0.427
-230.771	110.426	-0.217	-0.261
-229.757	800.000	-0.044	0.159
-228.742	-83.212	0.135	0.043
-227.727	190.115	0.065	-0.097
-226.713	-30.072	-0.195	0.111
-225.698	-2.180	-0.131	-0.092
-224.684	-132.846	-0.231	-0.029
-223.669	-161.358	0.211	-0.011
-222.655	-16.940	0.145	0.091
-221.640	88.229	0.112	0.124
-220.625	-200.000	0.049	-0.278
-219.611	4.418	-0.166	0.121
-218.596	-160.778	0.162	0.009
-217.582	67.988	0.099	-0.101
-216.567	-87.473	-0.115	-0.035
-215.552	-66.390	-0.081	0.032
-214.538	84.453	-0.152	0.165
-213.523	-19.047	-0.068	-0.042
-212.509	-200.000	0.032	0.227
-211.494	-115.791	0.274	0.051
-210.479	39.595	0.201	-0.180
-209.465	98.335	-0.130	0.149
-208.450	-119.293	-0.204	0.035
-207.436	-51.712	0.278	0.129
-206.421	25.946	0.185	-0.154
-205.406	-158.126	0.032	0.002
-204.392	-106.279	-0.205	0.046
-203.377	-141.243	-0.113	0.011
-202.363	-200.000	-0.025	0.144
-201.348	90.325	0.127	0.142
-200.333	109.993	0.236	-0.282
-199.319	443.911	-0.104	0.227
-198.304	111.892	-0.005	-0.006
-197.290	76.701	0.087	0.092
-196.275	-181.567	-0.133	-0.003
-195.260	-200.000	-0.002	-0.190
-194.246	800.000	0.047	-0.134
-193.231	589.661	-0.036	-0.088
-192.217	-39.775	-0.077	0.040
-191.202	-118.661	0.315	0.055
-190.187	236.828	0.089	-0.146
-189.173	189.791	-0.105	0.157
-188.158	-48.765	0.220	-0.105
-187.144	-24.186	0.163	-0.097
-186.129	272.761	0.270	-0.475
-185.114	110.722	0.069	-0.083
-184.100	-200.000	-0.035	0.162
-183.085	-3.088	-0.081	-0.056
-182.071	307.767	-0.098	-0.183
-181.056	-26.041	0.385	0.225
-180.042	800.000	0.059	-0.193
-179.027	39.109	-0.114	0.102
-178.012	408.407	-0.125	0.263
-176.998	531.532	0.102	0.240
-175.983	-82.884	-0.248	0.080
-174.969	800.000	0.028	0.107
-173.954	-200.000	-0.065	0.457
-172.939	-200.000	0.015	-0.194
-171.925	323.808	0.155	-0.294
-170.910	-200.000	-0.016	-0.192
-169.896	-127.110	0.565	-0.082
-168.881	69.538	0.146	-0.150
-167.866	-26.140	-0.309	0.181
-166.852	-44.315	-0.352	0.175
-165.837	-101.819	0.354	0.085
-164.823	-133.129	0.243	0.031
-163.808	800.000	0.059	0.251
-162.793	58.252	0.339	0.331
-161.779	198.516	0.097	-0.148
-160.764	-57.739	0.201	-0.088
-159.750	-76.641	0.020	0.007
-158.735	-106.423	-0.241	0.054
-157.720	-200.000	-0.017	0.140
-156.706	-53.693	0.370	-0.168
-155.691	574.935	0.120	-0.292
-154.677	116.523	-0.076	0.093
-153.662	296.946	-0.092	0.168
-152.647	54.249	0.099	-0.095
-151.633	620.423	0.031	0.079
-150.618	-148.436	0.197	-0.016
-149.604	426.515	0.098	-0.210
-148.589	42.974	0.169	-0.154
-147.574	-40.533	-0.067	-0.034
-146.560	-200.000	0.039	-0.218
-145.545	-32.771	-0.196	0.108
-144.531	-74.549	-0.421	0.151
-143.516	-116.555	0.166	-0.030
-142.502	800.000	-0.019	-0.060
-141.487	457.905	-0.108	0.239
-140.472	-65.638	-0.417	0.166
-139.458	-57.137	0.204	-0.090
-138.443	-200.000	-0.005	-0.171
-137.429	-183.193	0.096	-0.002
-136.414	-100.272	-0.290	-0.072
-135.399	-79.212	-0.078	0.026
-134.385	234.446	0.049	-0.080
-133.370	-200.000	-0.012	0.321
-132.356	439.748	0.104	-0.225
-131.341	-200.000	0.017	-0.204
-130.326	60.248	0.091	-0.090
-129.312	-200.000	0.033	0.271
-128.297	67.628	-0.096	-0.097
-127.283	424.354	0.010	0.021
-126.268	-186.822	-0.080	0.001
-125.253	-126.428	0.080	0.012
-124.239	688.632	-0.098	-0.254
-123.224	-75.342	0.230	-0.081
-122.210	-167.582	-0.377	-0.015
-121.195	39.368	0.079	0.071
-120.180	69.444	-0.143	-0.146
-119.166	-92.578	-0.178	0.050
-118.151	-200.000	-0.038	0.292
-117.137	198.174	0.100	0.152
-116.122	272.410	-0.149	-0.260
-115.107	-200.000	0.096	0.446
-114.093	800.000	0.086	0.263
-113.078	-107.626	-0.133	-0.029
-112.064	800.000	0.053	0.219
-111.049	460.158	0.033	-0.072
-110.034	331.327	0.048	-0.092
-109.020	151.249	0.194	-0.262
-108.005	66.362	-0.080	0.081
-106.991	-200.000	-0.056	0.308
-105.976	-197.773	-0.283	-0.002
-104.962	-132.494	-0.227	0.029
-103.947	-200.000	-0.005	0.044
-102.932	800.000	-0.007	-0.024
-101.918	800.000	0.042	0.172
-100.903	275.274	0.039	0.068
-99.889	241.914	0.174	0.289
-98.874	-200.000	0.027	0.224
-97.859	-145.922	0.512	-0.045
-96.845	-91.113	0.117	-0.033
-95.830	493.463	0.103	0.235
-94.816	90.221	-0.053	-0.059
-93.801	-200.000	0.033	-0.359
-92.786	-34.029	-0.192	0.105
-91.772	36.316	0.305	0.267
-90.757	-170.634	0.154	0.005
-89.743	-83.307	0.134	0.043
-88.728	800.000	-0.096	-0.308
-87.713	800.000	0.028	-0.116
-86.699	-159.125	0.147	-0.008
-85.684	800.000	-0.035	-0.117
-84.670	272.423	-0.037	-0.064
-83.655	800.000	0.119	-0.346
-82.640	56.887	0.154	0.149
-81.626	236.529	-0.179	-0.294
-80.611	261.437	0.060	0.104
-79.597	-48.040	-0.107	0.051
-78.582	43.026	0.144	-0.130
-77.567	-113.416	0.174	-0.034
-76.553	72.033	-0.248	-0.256
-75.538	327.220	-0.069	-0.132
-74.524	60.255	0.085	0.084
-73.509	-200.000	-0.076	0.344
-72.494	-25.359	0.187	0.110
-71.480	-77.346	-0.409	0.141
-70.465	-0.843	-0.026	0.018
-69.451	-53.977	0.311	-0.141
-68.436	-93.864	0.062	0.017
-67.422	93.849	-0.049	-0.055
-66.407	-70.573	0.211	0.079
-65.392	-171.510	0.088	-0.003
-64.378	-27.924	-0.273	0.157
-63.363	204.537	-0.104	0.160
-62.349	39.235	-0.157	0.139
-61.334	12.445	-0.858	-0.655
-60.319	33.812	0.430	0.370
-59.305	-200.000	-0.139	-0.777
-58.290	133.887	0.715	0.917
-57.276	800.000	0.514	1.524
-56.261	-200.000	81.304	496.799
-55.246	474.394	1376.804	3077.160
-54.232	144.189	2610.692	3450.810
-53.217	105.825	2362.543	2768.567
-52.203	47.314	1967.839	1815.608
-51.188	41.771	1752.339	1573.244
-50.173	39.080	1706.222	1511.117
-49.159	53.345	1744.498	1656.048
-48.144	57.487	1762.703	1705.427
-47.130	41.517	1725.236	1546.695
-46.115	38.521	1711.249	1511.014
-45.100	38.430	1706.526	1506.086
-44.086	38.427	1703.937	1503.717
-43.071	38.478	1700.563	1501.072
-42.057	38.440	1698.216	1498.652
-41.042	38.387	1696.141	1496.356
-40.027	38.434	1694.468	1495.177
-39.013	38.510	1691.776	1493.319
-37.998	38.357	1690.487	1490.957
-36.984	38.480	1689.120	1490.633
-35.969	38.575	1687.663	1490.011
-34.954	38.622	1686.192	1489.009
-33.940	38.564	1684.538	1487.050
-32.925	38.533	1682.588	1485.036
-31.911	38.614	1680.524	1483.769
-30.896	38.664	1678.162	1481.998
-29.881	38.605	1676.823	1480.310
-28.867	38.602	1674.938	1478.566
-27.852	38.602	1673.783	1477.488
-26.838	38.640	1672.259	1476.376
-25.823	38.516	1671.364	1474.591
-24.809	38.622	1669.855	1473.994
-23.794	38.555	1668.686	1472.405
-22.779	38.702	1666.374	1471.410
-21.765	38.568	1665.043	1469.171
-20.750	38.600	1663.186	1467.710
-19.736	38.583	1662.063	1466.537
-18.721	38.603	1660.452	1465.203
-17.706	38.508	1659.251	1463.380
-16.692	38.628	1657.198	1462.404
-15.677	38.605	1655.838	1460.977
-14.663	38.637	1654.241	1459.743
-13.648	38.661	1652.935	1458.716
-12.633	38.579	1651.937	1457.167
-11.619	38.578	1649.769	1455.185
-10.604	38.546	1648.213	1453.523
-9.590	38.558	1647.044	1452.519
-8.575	38.618	1645.506	1451.551
-7.560	38.646	1644.481	1450.799
-6.546	38.608	1643.349	1449.460
-5.531	38.615	1641.853	1448.135
-4.517	38.599	1640.744	1446.983
-3.502	38.545	1640.023	1445.888
-2.487	38.582	1638.419	1444.691
-1.473	38.710	1626.867	1435.380
-0.458	36.445	1606.864	1401.271
0.556	32.731	1607.020	1366.839
1.571	30.183	1631.646	1368.883
2.586	29.289	1645.292	1373.550
3.600	25.211	1589.699	1297.591
4.615	13.715	1469.530	1122.067
5.629	3.712	1397.296	1002.187
6.644	2.021	1388.001	984.528
7.659	1.972	1386.375	982.969
8.673	1.951	1385.201	981.912
9.688	1.796	1383.702	979.770
10.702	1.617	1380.469	976.247
11.717	5.243	1388.189	1004.982
12.731	16.292	1409.519	1092.173
13.746	24.840	1424.259	1159.120
14.761	26.457	1426.390	1171.232
15.775	26.768	1425.637	1172.521
16.790	26.800	1425.296	1172.342
17.804	26.799	1424.889	1171.902
18.819	27.062	1424.639	1173.292
19.834	27.103	1423.745	1172.711
20.848	27.067	1423.034	1171.795
21.863	27.161	1422.321	1171.707
22.877	27.187	1421.178	1170.832
23.892	27.133	1420.391	1169.732
24.907	27.094	1419.468	1168.619
25.921	27.161	1418.210	1167.910
26.936	27.224	1417.376	1167.523
27.950	27.083	1416.452	1165.752
28.965	27.174	1415.186	1165.192
29.980	27.162	1413.975	1164.015
30.994	27.058	1412.658	1162.159
32.009	27.150	1411.608	1161.786
33.023	27.128	1410.216	1160.394
34.038	27.180	1409.299	1159.870
35.053	27.179	1408.164	1158.825
36.067	27.144	1407.146	1157.663
37.082	27.111	1406.526	1156.842
38.096	27.096	1405.658	1155.928
39.111	27.102	1404.842	1155.191
40.126	27.102	1403.835	1154.262
41.140	27.072	1403.574	1153.756
42.155	27.167	1402.673	1153.518
43.169	27.092	1403.091	1153.280
44.184	27.063	1402.870	1152.811
45.199	27.051	1402.228	1152.105
46.213	27.148	1401.813	1152.278
47.228	27.237	1400.499	1151.661
48.242	27.216	1398.898	1150.112
49.257	27.069	1398.161	1148.476
50.271	27.117	1396.377	1147.209
51.286	27.023	1395.291	1145.623
52.301	27.093	1394.005	1144.904
53.315	27.079	1393.244	1144.094
54.330	27.084	1392.265	1143.221
55.344	27.052	1391.348	1142.163
56.359	27.079	1390.358	1141.418
57.374	27.082	1389.790	1140.870
58.388	27.166	1388.895	1140.564
59.403	27.131	1388.412	1139.843
60.417	27.187	1387.096	1139.013
61.432	27.186	1386.916	1138.761
62.447	27.122	1386.184	1137.655
63.461	27.219	1384.373	1136.674
64.476	27.114	1383.982	1135.598
65.490	27.121	1382.812	1134.580
66.505	27.086	1381.144	1132.897
67.520	27.141	1379.975	1132.177
68.534	27.143	1378.718	1131.057
69.549	27.124	1377.961	1130.221
70.563	27.117	1377.188	1129.445
71.578	27.100	1375.809	1128.107
72.593	27.103	1375.478	1127.756
73.607	27.076	1374.635	1126.793
74.622	27.026	1374.015	1125.874
75.636	27.096	1373.327	1125.648
76.651	27.011	1372.634	1124.453
77.666	27.014	1372.122	1123.956
78.680	27.002	1371.913	1123.605
79.695	27.081	1370.751	1123.044
80.709	27.093	1369.882	1122.307
81.724	27.137	1368.914	1121.688
82.739	27.087	1367.828	1120.393
83.753	27.179	1366.705	1119.936
84.768	27.214	1365.529	1119.087
85.782	27.132	1364.819	1117.906
86.797	27.107	1363.419	1116.505
87.812	27.066	1362.666	1115.540
88.826	27.125	1361.449	1114.806
89.841	27.224	1360.203	1114.294
90.855	27.182	1359.557	1113.406
91.870	27.130	1358.458	1112.094
92.884	27.171	1357.665	1111.594
93.899	27.141	1357.017	1110.780
94.914	27.175	1356.239	1110.255
95.928	27.164	1355.459	1109.454
96.943	27.175	1355.165	1109.178
97.957	27.158	1353.997	1108.019
98.972	27.178	1353.296	1107.470
99.987	27.237	1351.983	1106.659
101.001	27.212	1350.716	1105.375
102.016	27.119	1350.055	1104.170
103.030	27.127	1348.994	1103.251
104.045	27.174	1348.243	1102.826
105.060	27.197	1347.082	1101.918
106.074	27.240	1346.326	1101.460
107.089	27.204	1344.951	1100.020
108.103	27.233	1344.205	1099.490
109.118	27.212	1343.476	1098.667
110.133	27.221	1342.129	1097.526
111.147	27.251	1341.093	1096.759
112.162	27.373	1339.236	1095.881
113.176	27.384	1338.629	1095.354
114.191	27.232	1338.206	1093.991
115.206	27.216	1337.165	1092.948
116.220	27.209	1335.775	1091.675
117.235	27.298	1334.591	1091.142
118.249	27.262	1334.005	1090.353
119.264	27.243	1333.700	1089.894
120.279	27.332	1332.643	1089.466
121.293	27.270	1332.204	1088.643
122.308	27.313	1331.184	1087.969
123.322	27.385	1330.237	1087.525
124.337	27.242	1329.670	1086.116
125.352	27.380	1328.389	1085.798
126.366	27.355	1327.271	1084.635
127.381	27.301	1327.202	1084.164
128.395	27.287	1325.946	1082.957
129.410	27.313	1325.337	1082.519
130.424	27.326	1324.611	1081.905
131.439	27.343	1324.069	1081.469
132.454	27.280	1323.104	1080.211
133.468	27.279	1322.504	1079.618
134.483	27.340	1321.791	1079.301
135.497	27.249	1320.968	1077.998
136.512	27.191	1320.078	1076.832
137.527	27.391	1318.406	1076.558
138.541	27.354	1317.059	1075.141
139.556	27.313	1316.181	1074.089
140.570	27.364	1314.922	1073.266
141.585	27.202	1314.687	1072.022
142.600	27.287	1313.083	1071.120
143.614	27.270	1312.458	1070.421
144.629	27.313	1311.452	1069.754
145.643	27.225	1310.406	1068.289
146.658	27.149	1309.548	1067.049
147.673	27.130	1308.728	1066.175
148.687	27.159	1307.649	1065.373
149.702	27.130	1306.179	1063.911
150.716	27.289	1304.777	1063.605
151.731	27.235	1303.829	1062.422
152.746	27.228	1303.485	1062.007
153.760	27.280	1302.108	1061.094
154.775	27.223	1301.036	1059.794
155.789	27.169	1300.564	1059.002
156.804	27.212	1299.500	1058.291
157.819	27.201	1298.472	1057.298
158.833	27.287	1297.590	1056.987
159.848	27.307	1296.924	1056.468
160.862	27.361	1296.223	1056.118
161.877	27.287	1295.356	1054.883
162.892	27.292	1294.413	1054.051
163.906	27.302	1294.091	1053.758
164.921	27.347	1293.428	1053.383
165.935	27.397	1291.990	1052.406
166.950	27.477	1291.438	1052.327
167.964	27.386	1290.923	1051.291
168.979	27.453	1290.009	1050.838
169.994	27.348	1289.758	1049.937
171.008	27.468	1288.866	1049.806
172.023	27.439	1288.312	1049.095
173.037	27.442	1287.415	1048.291
174.052	27.339	1286.849	1047.147
175.067	27.342	1285.991	1046.368
176.081	27.432	1284.952	1045.950
177.096	27.331	1284.654	1045.037
178.110	27.416	1283.697	1044.650
179.125	27.460	1282.604	1043.921
180.140	27.570	1281.065	1043.205
181.154	27.427	1280.299	1041.674
182.169	27.459	1279.157	1040.834
183.183	27.343	1278.274	1039.359
184.198	27.470	1277.370	1039.261
185.213	27.423	1276.716	1038.364
186.227	27.407	1275.384	1037.101
187.242	27.490	1274.504	1036.764
188.256	27.530	1273.139	1035.793
189.271	27.486	1272.670	1035.067
190.286	27.546	1271.545	1034.402
191.300	27.457	1271.518	1033.784
192.315	27.486	1270.833	1033.297
193.329	27.543	1270.479	1033.243
194.344	27.513	1270.046	1032.629
195.359	27.566	1269.348	1032.268
196.373	27.520	1268.933	1031.580
197.388	27.467	1268.948	1031.203
198.402	27.457	1268.632	1030.800
199.417	27.498	1267.599	1030.100
200.432	27.516	1267.305	1029.868
201.446	27.511	1266.456	1029.063
202.461	27.439	1265.742	1027.982
203.475	27.513	1265.105	1027.792
204.490	27.483	1264.199	1026.795
205.504	27.485	1263.134	1025.851
206.519	27.606	1262.200	1025.682
207.534	27.525	1261.133	1024.271
208.548	27.504	1260.400	1023.466
209.563	27.481	1259.926	1022.864
210.577	27.523	1259.091	1022.326
211.592	27.415	1258.224	1020.930
212.607	27.572	1257.190	1020.877
213.621	27.557	1256.595	1020.224
214.636	27.571	1255.594	1019.398
215.650	27.693	1254.806	1019.347
216.665	27.555	1253.631	1017.533
217.680	27.674	1252.795	1017.427
218.694	27.601	1252.239	1016.479
219.709	27.520	1251.885	1015.651
220.723	27.614	1251.309	1015.619
221.738	27.455	1250.066	1013.635
222.753	27.541	1249.236	1013.352
223.767	27.643	1248.828	1013.497
224.782	27.604	1248.174	1012.661
225.796	27.776	1247.316	1012.827
226.811	27.727	1247.039	1012.240
227.826	27.694	1246.589	1011.606
228.840	27.685	1245.982	1010.969
229.855	27.623	1245.489	1010.138
230.869	27.603	1244.606	1009.224
231.884	27.772	1243.670	1009.310
232.899	27.689	1242.808	1008.060
233.913	27.891	1242.069	1008.491
234.928	27.782	1241.916	1007.673
235.942	27.742	1241.122	1006.719
236.957	27.783	1240.566	1006.408
237.972	27.645	1239.855	1004.981
238.986	27.761	1239.103	1004.917
240.001	27.850	1238.325	1004.689
241.015	27.907	1237.708	1004.414
242.030	27.850	1236.958	1003.401
243.045	27.946	1235.748	1002.861
244.059	27.930	1235.344	1002.354
245.074	27.953	1234.661	1001.838
246.088	27.973	1233.587	1000.985
247.103	27.843	1232.963	999.680
248.117	27.872	1232.232	999.156
249.132	27.913	1231.418	998.635
250.147	27.914	1230.761	998.017
251.161	27.969	1229.741	997.401
252.176	27.991	1229.461	997.208
253.190	28.019	1228.313	996.340
254.205	28.001	1227.713	995.669
255.220	27.874	1227.519	994.734
256.234	27.975	1227.025	994.791
257.249	28.055	1226.009	994.313
258.263	27.991	1225.477	993.449
259.278	28.094	1224.614	993.221
260.293	28.004	1224.563	992.602
261.307	28.094	1223.912	992.477
262.322	27.956	1223.510	991.313
263.336	28.107	1222.368	991.120
264.351	28.027	1222.011	990.310
265.366	28.115	1221.000	989.879
266.380	27.997	1221.064	989.205
267.395	28.101	1219.868	988.708
268.409	27.990	1219.484	987.708
269.424	27.925	1219.390	987.193
270.439	28.161	1218.209	987.424
271.453	28.066	1218.068	986.713
272.468	28.021	1216.633	985.220
273.482	27.969	1216.339	984.612
274.497	28.096	1215.684	984.678
275.512	28.067	1215.489	984.276
276.526	28.155	1213.845	983.333
277.541	28.073	1213.779	982.751
278.555	28.161	1213.039	982.536
279.570	28.112	1212.294	981.585
280.585	28.202	1211.369	981.232
281.599	28.208	1210.536	980.504
282.614	28.186	1209.530	979.485
283.628	28.262	1208.713	979.142
284.643	28.317	1207.820	978.625
285.657	28.201	1207.050	977.297
286.672	28.222	1206.224	976.650
287.687	28.199	1205.622	975.958
288.701	28.366	1204.528	975.874
289.716	28.265	1204.142	974.935
290.730	28.264	1203.269	974.136
291.745	28.371	1202.655	974.124
292.760	28.375	1201.884	973.435
293.774	28.285	1201.772	972.778
294.789	28.353	1201.267	972.647
295.803	28.262	1200.795	971.695
296.818	28.257	1200.150	971.062
297.833	28.290	1199.312	970.471
298.847	28.193	1198.812	969.464
299.862	28.305	1197.755	969.119
300.876	28.292	1196.826	968.214
301.891	28.348	1196.265	967.968
302.906	28.366	1196.134	967.872
303.920	28.401	1195.071	967.113
304.935	28.437	1194.734	966.941
305.949	28.362	1193.673	965.603
306.964	28.516	1193.138	965.898
307.979	28.477	1192.863	965.380
308.993	28.464	1192.054	964.576
310.008	28.360	1191.304	963.334
311.022	28.445	1190.337	962.915
312.037	28.399	1189.715	962.083
313.052	28.425	1189.018	961.574
314.066	28.466	1188.000	960.880
315.081	28.434	1187.371	960.119
316.095	28.394	1186.608	959.205
317.110	28.464	1186.084	959.064
318.125	28.538	1185.291	958.725
319.139	28.519	1184.697	958.062
320.154	28.497	1184.359	957.588
321.168	28.609	1183.476	957.371
322.183	28.519	1182.654	956.154
323.197	28.509	1182.477	955.873
324.212	28.492	1182.022	955.330
325.227	28.602	1181.049	955.036
326.241	28.711	1180.544	955.111
327.256	28.635	1179.964	954.160
328.270	28.556	1179.416	953.220
329.285	28.638	1178.259	952.626
330.300	28.535	1177.914	951.732
331.314	28.671	1176.596	951.284
332.329	28.732	1175.928	950.979
333.343	28.796	1174.724	950.249
334.358	28.712	1174.322	949.407
335.373	28.733	1173.970	949.149
336.387	28.667	1173.272	948.160
337.402	28.754	1172.599	947.982
338.416	28.757	1172.071	947.486
339.431	28.823	1170.864	946.764
340.446	28.775	1170.882	946.449
341.460	28.755	1170.199	945.708
342.475	28.831	1169.249	945.249
343.489	28.805	1167.943	943.974
344.504	28.807	1167.143	943.256
345.519	28.875	1166.509	943.010
346.533	28.913	1165.700	942.466
347.548	28.863	1164.948	941.517
348.562	28.941	1164.319	941.327
349.577	28.806	1163.594	939.965
350.592	28.836	1162.811	939.407
351.606	28.827	1162.101	938.703
352.621	28.897	1161.638	938.601
353.635	28.879	1161.474	938.297
354.650	29.005	1160.230	937.847
355.665	28.894	1159.813	936.863
356.679	29.019	1159.069	936.816
357.694	29.029	1158.464	936.295
358.708	28.927	1158.090	935.392
359.723	28.935	1157.186	934.618
360.738	28.876	1156.562	933.730
361.752	28.912	1155.954	933.340
362.767	28.990	1155.730	933.474
363.781	28.955	1154.994	932.618
364.796	29.068	1154.261	932.517
365.810	29.006	1153.457	931.473
366.825	29.012	1153.059	931.096
367.840	29.004	1152.477	930.502
368.854	29.098	1151.867	930.406
369.869	29.072	1151.370	929.789
370.883	29.136	1150.175	929.066
371.898	29.081	1149.565	928.211
372.913	29.149	1149.217	928.195
373.927	29.168	1148.596	927.705
374.942	29.302	1148.387	928.128
375.956	29.156	1147.673	926.736
376.971	29.229	1147.159	926.605
377.986	29.227	1146.818	926.238
379.000	29.196	1146.310	925.591
380.015	29.189	1145.542	924.851
381.029	29.204	1144.906	924.332
382.044	29.256	1143.917	923.713
383.059	29.223	1143.834	923.400
384.073	29.262	1142.938	922.790
385.088	29.318	1142.111	922.321
386.102	29.375	1140.863	921.513
387.117	29.309	1140.098	920.487
388.132	29.196	1139.567	919.412
389.146	29.297	1138.663	919.103
390.161	29.284	1138.277	918.649
391.175	29.228	1137.830	917.927
392.190	29.324	1137.078	917.717
393.205	29.366	1136.282	917.202
394.219	29.393	1135.130	916.324
395.234	29.476	1134.433	916.095
396.248	29.442	1133.429	915.030
397.263	29.575	1132.677	915.004
398.278	29.430	1131.894	913.573
399.292	29.594	1131.647	914.103
400.307	29.507	1131.255	913.274
401.321	29.545	1130.355	912.656
402.336	29.474	1129.910	911.867
403.350	29.495	1129.077	911.215
404.365	29.600	1128.324	911.047
405.380	29.508	1128.093	910.323
406.394	29.604	1127.299	910.078
407.409	29.595	1126.451	909.269
408.423	29.706	1125.367	908.859
409.438	29.581	1124.971	907.845
410.453	29.728	1124.208	907.870
411.467	29.573	1123.675	906.599
412.482	29.715	1122.851	906.550
413.496	29.795	1122.285	906.403
414.511	29.742	1121.323	905.285
415.526	29.668	1121.060	904.634
416.540	29.681	1120.890	904.478
417.555	29.702	1120.327	904.046
418.569	29.696	1119.679	903.416
419.584	29.762	1119.261	903.321
420.599	29.797	1118.472	902.773
421.613	92.930	1310.372	1402.778
422.628	87.359	1338.343	1402.898
