DTS Sentinel unit serial number:	SN413079Multiplexer serial number:	ORYXHardware model number:	OX4-SRSoftware version number:	ORYX F/W v4.00 Oryx Data Collector v3.7.2.0data status	okinstallation	princeton_trtdifferential loss correction	single-endedforward channel	channel 2reverse channel	N/Adate	2019/09/19time	09:31:35forward acquisition time	60.00reverse acquisition time	0.00gamma	496.2192k internal	0.2350k external	0.2350temperature offset calibration	1.0005default loss term (dB/km)	0.3790temperature slope calibration	1.0000multiplexer offset coefficient	1.0000multiplexer slope coefficient	1.0000fibre end	0.00T internal ref (°C)	22.81T ext. ref 1 (°C)	0.63T ext. ref 2 (°C)	19.32length (m)	temperature (°C)	Stokes	anti-Stokes-747.200	25.760	-0.102	-0.085
-746.185	-3.257	-0.257	0.179
-745.171	-11.938	0.186	0.122
-744.156	508.637	-0.061	0.141
-743.142	-39.557	-0.066	0.034
-742.127	-200.000	0.014	0.479
-741.112	201.327	-0.102	0.157
-740.098	-28.343	0.151	0.087
-739.083	3.457	0.151	0.110
-738.069	299.927	0.104	0.191
-737.054	239.629	-0.095	-0.159
-736.039	-2.385	-0.287	0.201
-735.025	-200.000	0.010	0.276
-734.010	9.684	-0.179	0.135
-732.996	-78.195	-0.125	0.043
-731.981	-126.877	-0.353	-0.052
-730.966	-200.000	0.020	-0.412
-729.952	153.231	-0.006	-0.008
-728.937	46.794	0.197	-0.183
-727.923	-200.000	-0.024	0.138
-726.908	69.927	0.143	-0.147
-725.894	269.573	-0.241	-0.421
-724.879	800.000	0.099	-0.322
-723.864	82.791	-0.064	0.069
-722.850	-200.000	-0.027	0.188
-721.835	-49.318	-0.228	-0.108
-720.821	800.000	-0.082	-0.229
-719.806	-200.000	-0.038	0.274
-718.791	-130.032	0.196	0.027
-717.777	-200.000	0.011	-0.072
-716.762	800.000	0.050	-0.141
-715.748	-117.988	-0.140	-0.025
-714.733	166.434	0.165	0.234
-713.718	83.215	0.123	0.134
-712.704	240.819	-0.048	-0.079
-711.689	-121.436	-0.114	-0.019
-710.675	-93.241	0.187	0.052
-709.660	108.301	-0.216	-0.257
-708.645	-15.470	0.211	0.135
-707.631	800.000	-0.122	0.348
-706.616	4.051	0.298	-0.217
-705.602	-200.000	-0.008	-0.153
-704.587	800.000	0.044	-0.136
-703.572	-200.000	0.088	-0.393
-702.558	219.461	0.054	-0.086
-701.543	72.738	-0.033	-0.034
-700.529	-200.000	0.032	0.402
-699.514	-129.001	-0.184	-0.026
-698.499	28.417	0.059	-0.050
-697.485	-200.000	-0.083	-0.423
-696.470	800.000	-0.153	-0.476
-695.456	-83.644	0.334	-0.106
-694.441	42.213	0.205	-0.185
-693.426	377.992	-0.162	-0.330
-692.412	-9.782	-0.207	0.137
-691.397	271.507	-0.078	0.137
-690.383	-82.171	-0.118	0.038
-689.368	-174.721	0.247	-0.007
-688.354	-94.289	0.030	-0.008
-687.339	-200.000	-0.058	-0.311
-686.324	-50.420	0.323	-0.152
-685.310	76.181	-0.098	-0.103
-684.295	-7.310	-0.390	-0.263
-683.281	-200.000	0.002	-0.250
-682.266	-181.322	0.353	-0.007
-681.251	-200.000	0.002	-0.059
-680.237	-106.961	0.317	0.070
-679.222	-50.913	0.162	-0.076
-678.208	271.535	-0.112	0.196
-677.193	-120.698	-0.213	0.036
-676.178	789.056	0.070	-0.192
-675.164	217.708	0.081	-0.128
-674.149	88.428	0.081	-0.090
-673.135	800.000	0.056	-0.192
-672.120	-146.512	0.142	-0.012
-671.105	-175.038	0.156	0.004
-670.091	13.937	0.268	0.208
-669.076	-200.000	-0.005	0.037
-668.062	-200.000	-0.031	-0.357
-667.047	208.828	-0.094	-0.146
-666.032	765.152	0.071	-0.193
-665.018	66.085	-0.090	0.091
-664.003	166.066	0.121	-0.171
-662.989	165.765	0.064	-0.091
-661.974	136.847	-0.110	-0.143
-660.959	-200.000	0.003	-0.069
-659.945	-51.800	-0.293	0.136
-658.930	-131.850	0.209	-0.027
-657.916	800.000	-0.016	0.064
-656.901	90.351	0.085	-0.095
-655.886	-18.714	0.107	-0.067
-654.872	-79.052	0.327	-0.111
-653.857	70.530	-0.261	-0.268
-652.843	-200.000	0.025	-0.143
-651.828	-95.458	0.210	-0.056
-650.814	554.494	0.055	-0.131
-649.799	427.114	-0.094	0.201
-648.784	34.769	0.150	-0.131
-647.770	336.195	-0.101	-0.196
-646.755	92.524	0.035	0.040
-645.741	375.044	-0.021	0.043
-644.726	385.899	0.040	-0.082
-643.711	722.441	0.170	-0.450
-642.697	183.376	0.024	-0.036
-641.682	-143.823	0.262	-0.025
-640.668	-66.192	0.202	-0.080
-639.653	-23.939	-0.031	0.019
-638.638	-200.000	-0.019	0.306
-637.624	84.490	0.143	0.155
-636.609	20.941	0.018	0.014
-635.595	604.846	-0.035	0.086
-634.580	175.664	0.090	0.130
-633.565	13.812	-0.281	-0.217
-632.551	43.200	-0.311	0.282
-631.536	-92.976	-0.264	-0.073
-630.522	452.731	0.035	-0.077
-629.507	-151.343	-0.110	-0.008
-628.492	92.280	0.256	-0.287
-627.478	59.389	-0.196	-0.192
-626.463	-200.000	-0.049	0.309
-625.449	-200.000	0.077	0.372
-624.434	-41.411	-0.184	-0.094
-623.419	-13.442	0.310	-0.199
-622.405	800.000	0.102	-0.313
-621.390	36.301	-0.490	0.429
-620.376	-109.405	-0.126	0.026
-619.361	-119.897	-0.108	0.018
-618.346	70.892	0.185	-0.190
-617.332	-126.735	-0.209	0.031
-616.317	-159.307	-0.424	-0.024
-615.303	-97.226	0.057	0.015
-614.288	-200.000	-0.001	0.020
-613.273	112.989	0.242	0.291
-612.259	142.008	0.168	0.221
-611.244	800.000	-0.009	-0.033
-610.230	41.067	-0.160	0.143
-609.215	-200.000	-0.001	-0.442
-608.201	188.661	-0.135	0.201
-607.186	184.795	-0.038	0.056
-606.171	-148.298	0.227	0.019
-605.157	-125.360	-0.176	0.027
-604.142	-18.989	0.122	-0.075
-603.128	312.065	0.169	-0.315
-602.113	56.852	0.130	0.126
-601.098	-155.248	-0.161	0.010
-600.084	433.052	-0.171	-0.369
-599.069	-153.136	0.183	-0.013
-598.055	-134.725	-0.170	-0.020
-597.040	396.630	-0.062	0.129
-596.025	-200.000	0.025	0.336
-595.011	145.107	-0.029	0.038
-593.996	20.193	0.231	-0.185
-592.982	21.140	-0.191	0.154
-591.967	250.857	0.194	-0.328
-590.952	152.791	-0.174	0.236
-589.938	-200.000	0.023	-0.151
-588.923	-200.000	0.011	0.302
-587.909	-200.000	-0.045	-0.270
-586.894	4.781	0.150	0.110
-585.879	-100.124	-0.084	0.021
-584.865	35.665	-0.337	-0.294
-583.850	-107.970	0.179	-0.039
-582.836	42.453	0.174	0.157
-581.821	800.000	0.007	-0.028
-580.806	357.816	-0.045	0.090
-579.792	-72.619	0.112	-0.041
-578.777	107.144	0.199	0.234
-577.763	161.838	0.134	0.186
-576.748	600.458	-0.090	-0.222
-575.733	-200.000	0.007	-0.134
-574.719	-121.645	-0.183	-0.030
-573.704	154.644	0.218	0.297
-572.690	13.099	0.187	-0.144
-571.675	18.519	0.017	-0.014
-570.661	800.000	-0.007	-0.027
-569.646	-200.000	0.014	-0.122
-568.631	-71.600	-0.436	0.161
-567.617	41.784	-0.110	0.099
-566.602	800.000	-0.132	0.476
-565.588	-200.000	0.091	-0.487
-564.573	46.538	0.228	-0.210
-563.558	243.601	0.069	0.115
-562.544	226.961	-0.069	-0.111
-561.529	-17.033	-0.165	-0.103
-560.515	23.596	-0.292	-0.238
-559.500	448.979	-0.109	0.237
-558.485	-26.130	0.145	-0.085
-557.471	-24.036	-0.237	-0.141
-556.456	800.000	0.048	0.146
-555.442	800.000	-0.067	0.235
-554.427	-37.955	-0.390	0.205
-553.412	-126.589	0.126	-0.019
-552.398	130.962	0.065	0.083
-551.383	404.342	0.068	0.143
-550.369	12.258	0.321	0.245
-549.354	4.290	0.117	-0.085
-548.339	-200.000	0.001	-0.029
-547.325	269.060	0.038	-0.066
-546.310	45.826	0.255	-0.233
-545.296	-200.000	0.029	0.171
-544.281	-60.285	0.328	0.138
-543.266	-162.776	-0.190	-0.009
-542.252	80.241	-0.163	0.173
-541.237	800.000	-0.054	-0.176
-540.223	-200.000	-0.034	0.281
-539.208	42.335	0.205	-0.185
-538.193	-200.000	0.045	-0.296
-537.179	-200.000	-0.037	-0.222
-536.164	16.318	-0.215	0.168
-535.150	93.501	-0.219	-0.246
-534.135	-8.654	0.221	-0.147
-533.121	-37.120	0.097	0.051
-532.106	159.714	-0.120	0.165
-531.091	266.222	-0.056	0.096
-530.077	-103.058	-0.193	-0.045
-529.062	-108.381	-0.182	-0.039
-528.048	46.866	0.265	-0.244
-527.033	800.000	-0.038	-0.109
-526.018	800.000	0.053	0.164
-525.004	72.420	-0.112	0.116
-523.989	198.450	0.084	0.127
-522.975	800.000	-0.027	-0.106
-521.960	-149.474	0.337	0.026
-520.945	-34.086	0.230	-0.125
-519.931	64.513	0.343	-0.342
-518.916	-85.916	-0.319	0.098
-517.902	-200.000	-0.055	-0.331
-516.887	72.440	0.203	-0.209
-515.872	65.537	0.217	0.217
-514.858	800.000	-0.034	-0.131
-513.843	-200.000	-0.020	-0.209
-512.829	-57.603	0.152	0.066
-511.814	79.399	0.113	0.120
-510.799	-23.068	-0.237	-0.141
-509.785	-35.785	-0.102	-0.055
-508.770	251.614	-0.021	0.035
-507.756	129.668	-0.154	0.194
-506.741	-122.392	-0.170	0.027
-505.726	-87.134	-0.160	-0.048
-504.712	-120.882	0.290	-0.048
-503.697	62.558	0.101	-0.100
-502.683	183.833	0.154	0.225
-501.668	504.722	-0.174	0.398
-500.653	-30.806	-0.251	0.140
-499.639	-36.813	0.241	-0.128
-498.624	-47.335	0.092	-0.044
-497.610	-33.094	-0.274	-0.150
-496.595	-200.000	-0.015	-0.232
-495.581	-76.834	0.152	-0.052
-494.566	800.000	0.178	0.547
-493.551	-118.160	0.105	-0.019
-492.537	-143.600	0.466	0.044
-491.522	57.123	-0.206	0.199
-490.508	-18.321	0.184	-0.114
-489.493	800.000	-0.116	-0.400
-488.478	-77.568	-0.114	0.039
-487.464	20.247	-0.057	0.045
-486.449	-200.000	0.021	0.427
-485.435	-117.270	0.185	-0.033
-484.420	800.000	0.037	0.119
-483.405	0.013	0.256	-0.180
-482.391	-61.254	0.104	0.043
-481.376	-131.420	-0.162	-0.021
-480.362	800.000	-0.042	-0.168
-479.347	136.774	0.025	-0.032
-478.332	-200.000	-0.007	-0.250
-477.318	60.831	0.114	0.111
-476.303	104.872	-0.051	0.060
-475.289	-150.427	0.302	0.023
-474.274	557.768	-0.109	-0.260
-473.259	-164.306	0.295	0.013
-472.245	-81.503	0.381	0.124
-471.230	800.000	0.041	0.134
-470.216	800.000	-0.051	0.170
-469.201	-79.581	-0.138	-0.046
-468.186	800.000	-0.133	0.378
-467.172	-71.395	0.168	0.062
-466.157	50.023	-0.168	0.156
-465.143	773.928	-0.124	0.335
-464.128	-89.244	0.253	-0.074
-463.113	296.400	-0.158	-0.286
-462.099	-136.918	0.352	0.040
-461.084	-103.428	-0.151	-0.035
-460.070	370.268	0.041	0.081
-459.055	60.303	0.150	0.147
-458.040	71.006	0.207	-0.211
-457.026	-9.192	-0.249	-0.164
-456.011	119.468	-0.118	0.145
-454.997	-164.221	0.251	-0.011
-453.982	800.000	-0.078	0.256
-452.968	149.618	0.231	-0.308
-451.953	800.000	-0.086	-0.300
-450.938	-11.071	-0.247	0.161
-449.924	-200.000	0.017	-0.278
-448.909	169.937	0.093	-0.131
-447.895	800.000	0.113	-0.409
-446.880	-53.380	-0.076	0.034
-445.865	404.006	0.243	0.504
-444.851	-130.441	-0.458	0.061
-443.836	-43.580	0.242	-0.120
-442.822	-200.000	0.012	-0.238
-441.807	232.398	-0.262	-0.424
-440.792	-88.138	0.150	0.044
-439.778	-200.000	0.019	0.153
-438.763	61.817	-0.251	-0.246
-437.749	291.280	0.183	0.329
-436.734	15.670	0.267	-0.207
-435.719	-157.767	0.069	0.004
-434.705	800.000	0.048	0.208
-433.690	425.052	0.018	0.039
-432.676	-13.739	-0.189	-0.120
-431.661	51.262	0.111	0.104
-430.646	-150.956	0.185	-0.014
-429.632	299.123	0.136	0.247
-428.617	6.195	-0.086	-0.063
-427.603	146.018	-0.146	0.193
-426.588	633.332	-0.051	0.127
-425.573	61.163	0.206	0.202
-424.559	800.000	0.061	-0.177
-423.544	-60.771	0.194	-0.081
-422.530	69.003	0.292	0.295
-421.515	-92.173	-0.377	-0.105
-420.500	21.921	-0.141	0.114
-419.486	-200.000	0.004	0.086
-418.471	-11.907	-0.230	0.149
-417.457	-181.821	0.213	0.004
-416.442	325.913	0.014	-0.027
-415.428	12.712	0.235	0.179
-414.413	202.353	0.061	-0.093
-413.398	21.561	-0.195	-0.156
-412.384	648.300	-0.157	0.397
-411.369	-200.000	-0.002	-0.093
-410.355	-200.000	-0.003	-0.229
-409.340	-200.000	0.003	-0.351
-408.325	800.000	-0.024	-0.071
-407.311	-76.115	-0.045	0.016
-406.296	142.633	-0.154	-0.202
-405.282	800.000	-0.068	0.211
-404.267	-200.000	-0.068	0.303
-403.252	-112.805	-0.239	-0.047
-402.238	18.302	0.112	0.088
-401.223	197.580	0.036	-0.054
-400.209	-166.560	-0.095	0.004
-399.194	-112.112	0.128	-0.025
-398.179	-69.869	0.244	-0.092
-397.165	143.956	-0.108	0.142
-396.150	800.000	-0.004	-0.015
-395.136	119.917	-0.080	-0.097
-394.121	-200.000	0.031	-0.169
-393.106	-108.147	-0.194	0.041
-392.092	186.571	0.087	0.128
-391.077	-46.295	-0.108	-0.052
-390.063	269.259	0.187	0.324
-389.048	-200.000	0.037	-0.234
-388.033	-74.237	0.199	0.071
-387.019	-200.000	-0.004	-0.136
-386.004	-33.632	0.249	0.136
-384.990	-155.499	-0.238	-0.015
-383.975	-10.350	-0.056	0.037
-382.960	-200.000	0.031	-0.306
-381.946	-108.027	-0.163	0.035
-380.931	-36.389	-0.289	0.153
-379.917	263.039	-0.151	0.258
-378.902	34.957	-0.114	-0.098
-377.888	-161.124	-0.214	0.011
-376.873	800.000	-0.049	-0.209
-375.858	89.382	0.203	0.222
-374.844	800.000	-0.115	0.331
-373.829	800.000	0.039	-0.127
-372.815	-200.000	0.028	-0.285
-371.800	337.965	0.087	0.166
-370.785	-127.233	-0.290	-0.042
-369.771	423.495	0.125	-0.264
-368.756	-200.000	0.002	0.018
-367.742	-100.650	0.240	0.058
-366.727	-118.567	0.131	-0.023
-365.712	4.127	0.227	0.163
-364.698	800.000	0.071	-0.256
-363.683	800.000	-0.096	-0.308
-362.669	443.250	-0.118	0.255
-361.654	456.578	-0.022	0.047
-360.639	103.003	-0.148	-0.171
-359.625	-200.000	-0.039	0.251
-358.610	311.806	-0.048	0.088
-357.596	43.848	0.120	0.108
-356.581	800.000	-0.053	0.212
-355.566	-138.233	-0.112	0.012
-354.552	-151.233	0.224	0.016
-353.537	800.000	0.050	-0.160
-352.523	-82.435	-0.493	-0.157
-351.508	-151.305	-0.213	0.016
-350.493	26.939	0.072	-0.059
-349.479	-116.195	-0.193	0.035
-348.464	-200.000	-0.033	-0.190
-347.450	-75.875	-0.299	0.104
-346.435	-200.000	0.007	-0.076
-345.420	-47.496	-0.334	0.160
-344.406	171.577	0.099	-0.140
-343.391	166.527	0.056	0.078
-342.377	29.394	-0.155	-0.129
-341.362	609.145	-0.025	-0.061
-340.348	83.131	-0.154	0.165
-339.333	178.188	0.210	-0.301
-338.318	-200.000	-0.023	0.254
-337.304	-175.856	-0.120	0.003
-336.289	800.000	0.158	-0.534
-335.275	-107.077	0.086	-0.019
-334.260	-185.085	-0.068	0.001
-333.245	160.427	0.121	-0.166
-332.231	-162.485	-0.303	0.015
-331.216	267.288	0.094	0.162
-330.202	119.233	0.146	0.177
-329.187	466.508	-0.055	0.120
-328.172	239.466	-0.107	-0.175
-327.158	186.618	-0.079	-0.116
-326.143	-91.810	-0.175	0.049
-325.129	-151.916	-0.347	-0.025
-324.114	322.187	-0.172	0.322
-323.099	58.018	0.356	-0.342
-322.085	0.901	-0.199	-0.140
-321.070	202.301	0.080	-0.120
-320.056	800.000	0.012	-0.047
-319.041	50.017	-0.069	0.064
-318.026	800.000	-0.146	-0.493
-317.012	16.603	-0.291	0.226
-315.997	-98.438	0.373	-0.094
-314.983	58.147	-0.302	-0.290
-313.968	-49.532	-0.294	-0.137
-312.953	454.712	0.086	-0.187
-311.939	678.833	0.071	0.181
-310.924	800.000	0.060	-0.206
-309.910	-29.417	0.118	-0.066
-308.895	-200.000	-0.094	-0.468
-307.880	84.802	-0.176	-0.189
-306.866	462.200	0.211	0.462
-305.851	-178.437	0.215	0.005
-304.837	-59.441	0.062	-0.026
-303.822	-7.725	0.243	-0.161
-302.807	-200.000	-0.042	-0.192
-301.793	148.277	-0.237	0.314
-300.778	107.112	-0.091	-0.106
-299.764	-146.250	0.234	0.020
-298.749	49.521	-0.275	-0.254
-297.735	-136.617	-0.135	-0.015
-296.720	86.897	0.115	0.124
-295.705	729.802	0.127	0.334
-294.691	56.786	-0.262	0.250
-293.676	91.052	-0.210	-0.231
-292.662	-54.453	-0.331	0.147
-291.647	197.850	0.104	-0.155
-290.632	-22.770	0.204	-0.121
-289.618	-200.000	-0.023	0.312
-288.603	372.131	0.031	-0.062
-287.589	-72.862	-0.186	0.067
-286.574	-0.709	0.288	0.200
-285.559	-93.444	-0.157	0.043
-284.545	-102.587	-0.160	-0.038
-283.530	217.979	-0.078	-0.123
-282.516	800.000	0.101	0.290
-281.501	-200.000	0.022	0.120
-280.486	-112.624	-0.137	0.027
-279.472	-149.906	0.308	-0.024
-278.457	665.790	-0.070	-0.178
-277.443	515.280	0.183	-0.418
-276.428	65.427	-0.227	-0.226
-275.413	-200.000	-0.013	0.115
-274.399	-118.002	0.088	-0.015
-273.384	181.421	-0.141	-0.203
-272.370	-90.214	0.206	0.059
-271.355	-153.564	-0.166	-0.011
-270.340	117.993	0.065	0.079
-269.326	166.025	-0.145	-0.201
-268.311	-200.000	0.006	0.190
-267.297	240.269	0.110	-0.179
-266.282	-118.203	0.253	-0.044
-265.267	-200.000	-0.027	0.137
-264.253	-66.651	0.262	-0.102
-263.238	-200.000	0.031	-0.164
-262.224	800.000	-0.059	-0.163
-261.209	11.789	0.095	-0.071
-260.195	39.345	0.270	-0.237
-259.180	-123.241	0.120	-0.019
-258.165	800.000	-0.118	0.349
-257.151	800.000	-0.148	-0.424
-256.136	-200.000	0.010	-0.186
-255.122	-150.907	0.196	0.015
-254.107	-125.676	-0.105	-0.016
-253.092	-200.000	-0.004	-0.021
-252.078	800.000	0.134	-0.530
-251.063	-107.220	0.109	-0.024
-250.049	-90.114	0.193	0.055
-249.034	94.702	0.225	0.251
-248.019	95.870	0.064	-0.072
-247.005	-69.075	0.068	0.026
-245.990	-52.342	0.279	0.126
-244.976	-36.824	-0.347	0.183
-243.961	-75.387	-0.294	0.103
-242.946	-200.000	-0.026	-0.181
-241.932	34.495	0.282	0.241
-240.917	800.000	0.069	0.274
-239.903	-200.000	-0.035	0.260
-238.888	715.720	-0.066	-0.171
-237.873	323.988	0.074	-0.138
-236.859	686.169	0.044	0.112
-235.844	-160.083	0.214	-0.011
-234.830	15.260	0.274	-0.211
-233.815	-200.000	0.002	-0.092
-232.800	131.586	0.126	-0.158
-231.786	-13.846	-0.188	0.119
-230.771	-9.068	0.331	-0.217
-229.757	800.000	-0.068	0.189
-228.742	-164.865	0.162	-0.007
-227.727	800.000	0.043	-0.126
-226.713	-43.490	-0.321	0.159
-225.698	800.000	0.055	-0.182
-224.684	-64.259	0.457	-0.182
-223.669	-121.630	-0.241	-0.039
-222.655	800.000	-0.042	0.120
-221.640	-7.542	0.367	0.243
-220.625	187.893	-0.127	0.185
-219.611	-11.474	0.120	0.077
-218.596	88.630	-0.209	-0.227
-217.582	205.451	0.085	0.129
-216.567	23.416	-0.039	0.031
-215.552	-121.928	0.307	0.049
-214.538	117.030	0.069	0.083
-213.523	-86.791	-0.172	-0.051
-212.509	800.000	-0.052	0.145
-211.494	-200.000	-0.031	0.379
-210.479	-37.867	-0.206	0.107
-209.465	757.104	0.114	-0.302
-208.450	61.818	-0.164	-0.160
-207.436	-133.918	0.236	-0.029
-206.421	152.105	-0.294	0.392
-205.406	167.130	-0.052	-0.073
-204.392	-200.000	0.025	0.367
-203.377	193.275	-0.082	-0.120
-202.363	-200.000	0.016	-0.182
-201.348	-200.000	0.040	0.228
-200.333	-7.583	-0.262	-0.173
-199.319	140.603	0.084	-0.109
-198.304	-200.000	0.036	0.439
-197.290	136.303	0.090	0.115
-196.275	188.791	-0.160	0.234
-195.260	145.498	0.060	-0.078
-194.246	-47.202	0.161	0.077
-193.231	365.161	0.081	-0.160
-192.217	-120.015	-0.173	0.029
-191.202	-14.551	-0.249	-0.156
-190.187	340.940	0.085	0.163
-189.173	-60.034	-0.138	-0.057
-188.158	-68.339	-0.346	-0.131
-187.144	65.698	0.150	0.148
-186.129	439.024	-0.085	-0.182
-185.114	512.594	0.071	-0.161
-184.100	-97.621	0.060	0.015
-183.085	-44.707	-0.349	-0.170
-182.071	-200.000	-0.022	0.406
-181.056	-114.121	-0.351	-0.066
-180.042	-88.347	-0.294	0.086
-179.027	-75.898	0.257	-0.089
-178.012	-1.137	0.122	0.084
-176.998	-150.489	0.144	-0.011
-175.983	-177.437	0.241	-0.006
-174.969	800.000	0.041	0.139
-173.954	-200.000	0.008	-0.108
-172.939	-123.268	-0.579	0.090
-171.925	-200.000	0.192	-0.000
-170.910	-134.685	-0.180	0.021
-169.896	-0.120	0.280	0.195
-168.881	-200.000	-0.007	0.121
-167.866	169.498	-0.221	0.308
-166.852	800.000	0.018	0.059
-165.837	-76.404	0.288	0.099
-164.823	-200.000	-0.040	0.233
-163.808	-81.471	-0.357	0.115
-162.793	118.599	0.143	-0.173
-161.779	150.543	0.099	0.131
-160.764	-41.123	-0.285	-0.143
-159.750	-124.742	-0.111	0.017
-158.735	-32.228	0.214	0.116
-157.720	-200.000	0.033	0.202
-156.706	-74.627	0.119	-0.042
-155.691	-22.646	0.269	0.159
-154.677	-75.480	-0.164	-0.057
-153.662	-147.635	0.186	-0.015
-152.647	300.127	-0.132	-0.237
-151.633	-200.000	-0.039	0.319
-150.618	800.000	-0.071	0.198
-149.604	-17.589	0.079	-0.048
-148.589	-200.000	0.014	-0.106
-147.574	-81.400	-0.218	-0.070
-146.560	8.791	-0.492	0.362
-145.545	-95.410	0.067	-0.018
-144.531	229.335	0.076	-0.120
-143.516	112.914	-0.123	0.145
-142.502	267.982	-0.085	0.145
-141.487	226.854	0.102	0.162
-140.472	800.000	0.104	-0.425
-139.458	226.124	-0.133	0.210
-138.443	-200.000	0.035	-0.267
-137.429	84.086	0.206	0.219
-136.414	73.942	0.306	0.313
-135.399	-135.746	0.203	0.023
-134.385	-38.055	-0.035	0.018
-133.370	-200.000	0.005	-0.190
-132.356	178.672	0.267	-0.380
-131.341	-179.859	-0.206	0.004
-130.326	-111.660	0.257	-0.051
-129.312	133.843	-0.122	-0.154
-128.297	800.000	0.099	-0.319
-127.283	21.777	0.078	-0.062
-126.268	-51.191	-0.069	-0.032
-125.253	160.877	-0.157	0.214
-124.239	-60.193	0.109	-0.045
-123.224	-139.613	0.391	-0.041
-122.210	266.712	0.109	0.186
-121.195	800.000	0.042	0.177
-120.180	151.097	-0.060	-0.079
-119.166	-135.046	-0.249	0.029
-118.151	19.278	-0.023	-0.018
-117.137	-155.204	0.206	0.013
-116.122	-121.053	0.078	-0.013
-115.107	-30.801	0.170	0.094
-114.093	52.244	0.144	-0.134
-113.078	291.974	0.233	-0.414
-112.064	800.000	0.033	-0.109
-111.049	-194.161	0.110	-0.001
-110.034	-70.832	0.178	0.065
-109.020	800.000	-0.080	0.266
-108.005	-200.000	0.026	0.260
-106.991	65.191	0.114	-0.112
-105.976	432.756	0.163	0.345
-104.962	20.076	-0.046	0.036
-103.947	-200.000	0.002	0.132
-102.932	230.347	-0.227	0.362
-101.918	-200.000	-0.027	0.140
-100.903	-200.000	-0.022	0.239
-99.889	117.164	0.186	0.222
-98.874	97.719	0.095	-0.106
-97.859	57.522	-0.173	0.164
-96.845	800.000	0.045	0.124
-95.830	-200.000	0.035	-0.158
-94.816	-156.838	0.305	-0.018
-93.801	425.858	-0.056	-0.117
-92.786	-200.000	0.005	-0.256
-91.772	235.787	0.123	-0.199
-90.757	696.905	-0.028	-0.073
-89.743	154.475	0.193	0.258
-88.728	-120.873	-0.200	-0.033
-87.713	58.862	-0.117	-0.112
-86.699	16.791	0.133	0.102
-85.684	-2.463	-0.228	0.156
-84.670	92.689	-0.348	0.382
-83.655	-127.188	0.248	-0.035
-82.640	-120.887	0.202	-0.033
-81.626	-50.104	0.278	0.128
-80.611	86.332	0.306	0.328
-79.597	800.000	0.057	0.160
-78.582	415.755	-0.165	-0.341
-77.567	443.865	-0.135	-0.288
-76.553	464.592	-0.090	0.196
-75.538	-200.000	0.012	-0.311
-74.524	-5.312	0.220	-0.147
-73.509	-113.797	-0.125	0.024
-72.494	143.091	-0.168	-0.217
-71.480	-57.146	0.238	0.102
-70.465	-102.726	-0.171	-0.040
-69.451	355.633	0.096	-0.185
-68.436	-89.899	0.095	0.027
-67.422	237.002	0.109	-0.175
-66.407	180.614	-0.143	-0.204
-65.392	-53.857	0.058	-0.026
-64.378	-32.949	0.056	0.030
-63.363	-200.000	0.004	-0.122
-62.349	800.000	0.032	-0.130
-61.334	360.210	-0.781	-1.520
-60.319	68.253	0.824	0.820
-59.305	800.000	-0.379	-1.265
-58.290	216.650	0.929	1.436
-57.276	186.901	0.876	1.268
-56.261	-200.000	123.753	631.955
-55.246	392.942	1576.756	3187.305
-54.232	139.536	2763.113	3534.888
-53.217	88.314	2329.136	2512.788
-52.203	32.123	1932.547	1619.317
-51.188	25.749	1726.435	1397.272
-50.173	23.666	1687.258	1349.694
-49.159	44.292	1756.527	1566.272
-48.144	42.179	1767.255	1559.356
-47.130	25.318	1718.784	1387.524
-46.115	22.860	1703.885	1356.584
-45.100	22.673	1698.643	1350.923
-44.086	22.680	1695.761	1348.635
-43.071	22.614	1693.864	1346.565
-42.057	22.690	1691.371	1345.110
-41.042	22.725	1689.442	1343.789
-40.027	22.753	1687.462	1342.372
-39.013	22.748	1685.458	1340.693
-37.998	22.633	1684.129	1338.704
-36.984	22.715	1682.830	1338.246
-35.969	22.793	1681.217	1337.501
-34.954	22.816	1679.123	1335.953
-33.940	22.753	1677.746	1334.330
-32.925	22.709	1676.439	1332.904
-31.911	22.831	1674.356	1332.113
-30.896	22.799	1673.036	1330.775
-29.881	22.847	1671.010	1329.468
-28.867	22.709	1669.617	1327.268
-27.852	22.780	1668.071	1326.520
-26.838	22.750	1666.424	1324.936
-25.823	22.817	1666.064	1325.094
-24.809	22.805	1664.369	1323.606
-23.794	22.796	1662.743	1322.196
-22.779	22.920	1660.798	1321.524
-21.765	22.870	1659.348	1319.942
-20.750	22.856	1657.813	1318.568
-19.736	22.878	1656.447	1317.592
-18.721	22.865	1654.977	1316.273
-17.706	22.929	1653.116	1315.215
-16.692	22.763	1652.289	1313.271
-15.677	22.835	1650.629	1312.435
-14.663	22.872	1648.933	1311.312
-13.648	22.852	1648.048	1310.408
-12.633	22.902	1645.859	1308.980
-11.619	22.819	1644.878	1307.534
-10.604	22.903	1643.157	1306.740
-9.590	22.875	1641.795	1305.396
-8.575	22.825	1640.804	1304.189
-7.560	22.842	1639.755	1303.423
-6.546	22.898	1638.236	1302.581
-5.531	22.842	1637.168	1301.267
-4.517	22.867	1636.126	1300.573
-3.502	22.897	1635.204	1300.010
-2.487	22.886	1633.335	1298.387
-1.473	22.723	1621.615	1287.830
-0.458	20.297	1603.019	1255.481
0.556	16.006	1605.938	1227.826
1.571	14.035	1631.563	1232.701
2.586	13.901	1643.651	1240.721
3.600	12.793	1588.225	1190.778
4.615	7.192	1478.877	1070.911
5.629	1.609	1419.607	991.590
6.644	0.630	1412.535	980.208
7.659	0.624	1411.651	979.471
8.673	0.653	1410.398	978.701
9.688	0.603	1408.415	976.919
10.702	0.512	1404.637	973.624
11.717	3.074	1408.202	992.561
12.731	9.571	1417.887	1041.415
13.746	15.055	1426.422	1083.172
14.761	17.090	1428.620	1097.919
15.775	16.630	1426.597	1093.295
16.790	15.559	1424.534	1084.700
17.804	14.811	1422.268	1078.059
18.819	14.422	1420.856	1074.383
19.834	14.225	1418.980	1071.606
20.848	13.928	1418.069	1068.911
21.863	13.746	1416.580	1066.520
22.877	13.493	1415.392	1063.907
23.892	13.484	1414.465	1063.056
24.907	13.459	1413.420	1062.022
25.921	13.522	1412.132	1061.359
26.936	13.530	1411.888	1061.134
27.950	13.581	1410.853	1060.588
28.965	13.562	1409.709	1059.518
29.980	13.604	1409.036	1059.184
30.994	13.750	1407.853	1059.133
32.009	13.729	1406.898	1058.190
33.023	13.799	1405.550	1057.528
34.038	13.735	1404.870	1056.511
35.053	13.711	1403.442	1055.191
36.067	13.659	1402.278	1053.895
37.082	13.704	1401.322	1053.369
38.096	13.637	1400.541	1052.263
39.111	13.560	1400.025	1051.294
40.126	13.585	1398.948	1050.548
41.140	13.560	1397.582	1049.274
42.155	13.414	1397.690	1048.338
43.169	13.442	1397.406	1048.206
44.184	13.444	1397.255	1048.016
45.199	13.414	1396.924	1047.482
46.213	13.518	1396.146	1047.466
47.228	13.583	1394.725	1046.720
48.242	13.518	1393.383	1045.209
49.257	13.494	1392.339	1044.178
50.271	13.579	1390.451	1043.208
51.286	13.595	1389.025	1042.146
52.301	13.536	1387.915	1040.849
53.315	13.541	1387.180	1040.241
54.330	13.570	1386.107	1039.525
55.344	13.521	1384.613	1038.005
56.359	13.469	1383.506	1036.756
57.374	13.633	1382.769	1037.141
58.388	13.455	1381.849	1035.245
59.403	13.373	1381.677	1034.513
60.417	13.509	1380.517	1034.401
61.432	13.439	1379.947	1033.446
62.447	13.452	1378.427	1032.296
63.461	13.436	1377.321	1031.277
64.476	13.493	1376.068	1030.599
65.490	13.383	1375.156	1029.144
66.505	13.400	1373.603	1027.993
67.520	13.385	1372.393	1026.904
68.534	13.509	1371.091	1026.612
69.549	13.382	1370.194	1025.061
70.563	13.359	1369.037	1023.961
71.578	13.400	1368.261	1023.545
72.593	13.433	1366.597	1022.412
73.607	13.372	1366.104	1021.579
74.622	13.284	1365.763	1020.689
75.636	13.400	1364.625	1020.462
76.651	13.423	1363.799	1019.899
77.666	13.365	1363.571	1019.280
78.680	13.394	1362.801	1018.788
79.695	13.321	1361.695	1017.425
80.709	13.412	1361.129	1017.473
81.724	13.452	1359.893	1016.702
82.739	13.507	1359.310	1016.518
83.753	13.522	1358.275	1015.745
84.768	13.531	1357.261	1014.950
85.782	13.581	1355.870	1014.127
86.797	13.667	1354.429	1013.487
87.812	13.440	1353.244	1011.122
88.826	13.408	1352.819	1010.517
89.841	13.454	1351.330	1009.596
90.855	13.655	1349.815	1009.603
91.870	13.594	1348.838	1008.411
92.884	13.632	1347.680	1007.687
93.899	13.636	1347.342	1007.368
94.914	13.709	1346.086	1006.785
95.928	13.655	1345.834	1006.176
96.943	13.638	1344.401	1004.914
97.957	13.650	1343.515	1004.235
98.972	13.636	1342.582	1003.368
99.987	13.611	1341.657	1002.435
101.001	13.663	1340.175	1001.553
102.016	13.605	1338.957	1000.202
103.030	13.673	1338.554	1000.225
104.045	13.685	1337.035	999.073
105.060	13.569	1336.214	997.675
106.074	13.540	1335.181	996.637
107.089	13.514	1334.183	995.650
108.103	13.404	1332.766	993.845
109.118	13.520	1330.977	993.118
110.133	13.526	1329.198	991.736
111.147	13.451	1328.363	990.575
112.162	13.525	1326.848	989.802
113.176	13.574	1325.722	989.168
114.191	13.696	1324.634	988.993
115.206	13.748	1323.589	988.436
116.220	13.622	1321.902	986.341
117.235	13.529	1320.959	984.999
118.249	13.467	1320.028	983.851
119.264	13.500	1319.057	983.234
120.279	13.523	1318.110	982.578
121.293	13.581	1316.734	981.807
122.308	13.588	1315.934	981.163
123.322	13.530	1314.980	980.024
124.337	13.488	1313.974	978.940
125.352	13.549	1312.500	978.112
126.366	13.506	1311.336	976.905
127.381	13.490	1310.700	976.254
128.395	13.536	1309.114	975.258
129.410	13.494	1308.209	974.251
130.424	13.451	1307.790	973.596
131.439	13.622	1306.343	973.440
132.454	13.503	1305.008	971.657
133.468	13.575	1304.492	971.612
134.483	13.566	1303.889	971.024
135.497	13.560	1302.320	969.734
136.512	13.474	1301.481	968.519
137.527	13.502	1300.056	967.535
138.541	13.479	1298.278	965.994
139.556	13.537	1297.760	965.863
140.570	13.504	1296.454	964.611
141.585	13.686	1294.620	964.222
142.600	13.743	1293.377	963.540
143.614	13.710	1292.877	962.889
144.629	13.727	1291.985	962.240
145.643	13.731	1290.423	961.019
146.658	13.762	1288.831	959.924
147.673	13.672	1287.794	958.545
148.687	13.705	1286.841	957.945
149.702	13.573	1285.857	956.362
150.716	13.687	1284.228	955.728
151.731	13.645	1282.981	954.472
152.746	13.681	1281.593	953.558
153.760	13.618	1280.849	952.559
154.775	13.648	1279.727	951.815
155.789	13.674	1278.425	950.913
156.804	13.785	1276.792	950.246
157.819	13.853	1275.921	949.904
158.833	13.910	1274.766	949.289
159.848	13.855	1273.941	948.272
160.862	13.944	1272.644	947.732
161.877	13.831	1272.051	946.563
162.892	13.787	1270.982	945.430
163.906	13.834	1269.792	944.731
164.921	13.928	1268.706	944.373
165.935	13.800	1268.625	943.505
166.950	13.838	1267.505	942.802
167.964	13.864	1266.670	942.245
168.979	13.785	1266.108	941.295
169.994	13.935	1265.116	941.327
171.008	13.872	1264.309	940.284
172.023	13.916	1263.757	940.038
173.037	14.008	1262.704	939.691
174.052	13.976	1261.529	938.558
175.067	13.978	1260.851	937.978
176.081	13.897	1259.721	936.596
177.096	13.986	1258.676	936.238
178.110	13.938	1257.706	935.168
179.125	13.987	1256.344	934.347
180.140	13.998	1255.372	933.600
181.154	14.063	1253.754	932.682
182.169	14.023	1253.014	931.826
183.183	14.142	1251.321	931.149
184.198	14.100	1250.158	929.964
185.213	14.105	1249.344	929.304
186.227	14.049	1248.232	928.084
187.242	14.171	1247.139	927.871
188.256	14.199	1246.140	927.201
189.271	14.177	1245.179	926.281
190.286	14.076	1244.173	924.890
191.300	14.053	1243.607	924.261
192.315	14.035	1242.737	923.428
193.329	14.072	1241.782	922.844
194.344	14.048	1241.539	922.448
195.359	14.185	1240.437	922.306
196.373	14.164	1240.149	921.895
197.388	14.262	1239.564	921.921
198.402	14.203	1239.091	921.161
199.417	14.242	1238.204	920.634
200.432	14.322	1237.273	920.306
201.446	14.319	1236.918	919.941
202.461	14.322	1235.505	918.825
203.475	14.441	1234.423	918.600
204.490	14.407	1233.242	917.449
205.504	14.277	1232.237	915.905
206.519	14.371	1230.797	915.270
207.534	14.311	1229.806	914.122
208.548	14.351	1228.813	913.523
209.563	14.342	1228.134	912.889
210.577	14.250	1227.477	911.815
211.592	14.431	1226.511	912.007
212.607	14.502	1225.454	911.528
213.621	14.444	1224.648	910.533
214.636	14.539	1223.172	909.871
215.650	14.558	1222.609	909.478
216.665	14.531	1221.793	908.642
217.680	14.641	1220.531	908.221
218.694	14.584	1219.950	907.400
219.709	14.572	1219.066	906.597
220.723	14.535	1218.300	905.747
221.738	14.580	1217.885	905.604
222.753	14.635	1216.919	905.102
223.767	14.616	1216.627	904.704
224.782	14.725	1215.635	904.471
225.796	14.687	1214.870	903.620
226.811	14.833	1213.831	903.558
227.826	14.694	1213.458	902.447
228.840	14.826	1212.195	902.140
229.855	14.774	1211.506	901.267
230.869	14.744	1211.050	900.685
231.884	14.732	1210.334	900.010
232.899	14.684	1209.647	899.162
233.913	14.606	1208.951	898.142
234.928	14.698	1208.181	897.989
235.942	14.721	1207.442	897.484
236.957	14.727	1206.806	896.960
237.972	14.666	1206.149	896.065
238.986	14.693	1205.016	895.292
240.001	14.699	1204.742	895.038
241.015	14.719	1203.302	893.999
242.030	14.778	1202.313	893.499
243.045	14.872	1201.658	893.437
244.059	14.880	1200.977	892.892
245.074	14.886	1199.772	891.953
246.088	14.877	1199.199	891.398
247.103	14.994	1198.375	891.328
248.117	14.992	1197.874	890.869
249.132	14.986	1197.074	890.164
250.147	14.982	1196.321	889.502
251.161	15.101	1195.452	889.408
252.176	15.034	1194.964	888.613
253.190	15.172	1194.094	888.617
254.205	15.115	1193.471	887.777
255.220	15.186	1193.095	887.792
256.234	15.164	1192.252	886.968
257.249	15.146	1191.592	886.303
258.263	15.114	1191.178	885.747
259.278	15.209	1189.986	885.288
260.293	15.161	1189.539	884.620
261.307	15.290	1189.152	884.939
262.322	15.295	1188.025	884.045
263.336	15.254	1187.957	883.704
264.351	15.302	1187.043	883.198
265.366	15.432	1186.379	883.306
266.380	15.399	1185.335	882.279
267.395	15.312	1184.831	881.366
268.409	15.398	1183.974	881.107
269.424	15.338	1183.272	880.188
270.439	15.463	1182.634	880.293
271.453	15.414	1181.875	879.391
272.468	15.369	1181.048	878.465
273.482	15.399	1180.123	877.854
274.497	15.386	1179.884	877.534
275.512	15.504	1179.122	877.506
276.526	15.389	1178.402	876.289
277.541	15.451	1177.196	875.639
278.555	15.606	1176.411	875.786
279.570	15.531	1175.772	874.843
280.585	15.541	1175.173	874.368
281.599	15.512	1173.906	873.198
282.614	15.545	1173.028	872.642
283.628	15.660	1171.710	872.177
284.643	15.580	1171.351	871.423
285.657	15.659	1170.447	871.079
286.672	15.634	1169.257	869.988
287.687	15.582	1167.954	868.674
288.701	15.729	1167.417	868.956
289.716	15.716	1166.885	868.416
290.730	15.690	1166.205	867.700
291.745	15.726	1165.107	866.989
292.760	15.778	1164.380	866.643
293.774	15.738	1164.126	866.171
294.789	15.690	1163.597	865.450
295.803	15.764	1162.880	865.224
296.818	15.795	1162.030	864.675
297.833	15.786	1161.504	864.157
298.847	15.771	1160.436	863.209
299.862	15.878	1159.359	862.882
300.876	15.774	1158.933	861.959
301.891	15.924	1158.070	862.008
302.906	15.848	1157.473	861.099
303.920	15.962	1156.579	860.939
304.935	15.917	1156.115	860.285
305.949	16.037	1155.066	860.043
306.964	16.021	1154.465	859.434
307.979	15.951	1154.132	858.757
308.993	15.980	1153.040	858.014
310.008	16.095	1151.956	857.717
311.022	16.088	1151.590	857.332
312.037	16.019	1150.893	856.388
313.052	15.915	1150.179	855.253
314.066	16.048	1148.962	854.947
315.081	15.954	1148.161	853.797
316.095	15.942	1147.295	853.018
317.110	16.082	1146.333	852.938
318.125	16.120	1145.682	852.570
319.139	15.969	1145.104	851.300
320.154	16.034	1144.258	850.925
321.168	16.062	1144.148	850.909
322.183	16.109	1143.166	850.341
323.197	16.125	1142.404	849.777
324.212	16.157	1141.784	849.401
325.227	16.135	1141.366	848.905
326.241	16.198	1140.345	848.387
327.256	16.148	1139.544	847.468
328.270	16.154	1138.771	846.847
329.285	16.056	1138.215	845.864
330.300	16.201	1136.865	845.514
331.314	16.207	1135.901	844.754
332.329	16.294	1134.790	844.285
333.343	16.259	1133.984	843.437
334.358	16.237	1133.156	842.637
335.373	16.238	1132.427	842.028
336.387	16.278	1131.611	841.545
337.402	16.387	1130.727	841.354
338.416	16.342	1130.243	840.694
339.431	16.336	1129.650	840.149
340.446	16.473	1128.808	840.130
341.460	16.386	1128.312	839.258
342.475	16.472	1126.990	838.627
343.489	16.582	1126.078	838.417
344.504	16.484	1125.491	837.423
345.519	16.578	1124.489	837.065
346.533	16.481	1123.908	836.078
347.548	16.509	1123.185	835.607
348.562	16.613	1121.955	835.131
349.577	16.606	1121.355	834.574
350.592	16.545	1120.647	833.674
351.606	16.533	1119.766	832.889
352.621	16.554	1119.221	832.508
353.635	16.595	1118.754	832.293
354.650	16.584	1117.989	831.596
355.665	16.532	1117.304	830.758
356.679	16.607	1116.698	830.599
357.694	16.627	1115.662	829.853
358.708	16.604	1114.999	829.174
359.723	16.820	1114.344	829.671
360.738	16.725	1113.885	828.790
361.752	16.790	1112.906	828.308
362.767	16.705	1112.602	827.593
363.781	16.638	1112.360	827.012
364.796	16.794	1111.462	827.032
365.810	16.775	1110.588	826.217
366.825	16.895	1109.891	826.211
367.840	16.834	1109.746	825.732
368.854	16.899	1108.947	825.379
369.869	16.847	1107.857	824.245
370.883	16.915	1106.935	823.814
371.898	16.872	1106.789	823.426
372.913	16.897	1106.180	823.020
373.927	16.906	1105.761	822.678
374.942	16.980	1104.748	822.209
375.956	17.032	1104.178	821.966
376.971	17.061	1103.707	821.682
377.986	17.058	1103.348	821.331
379.000	17.033	1102.905	820.806
380.015	17.063	1101.992	820.201
381.029	17.103	1101.410	819.886
382.044	16.996	1100.826	818.860
383.059	17.284	1099.706	819.344
384.073	17.087	1099.139	817.902
385.088	17.216	1097.834	817.478
386.102	17.223	1097.087	816.885
387.117	17.138	1096.597	816.039
388.132	17.167	1094.991	814.908
389.146	17.180	1094.579	814.592
390.161	17.178	1093.893	814.001
391.175	17.161	1093.092	813.252
392.190	17.204	1092.397	812.867
393.205	17.168	1092.021	812.346
394.219	17.382	1090.687	812.301
395.234	17.295	1089.808	811.161
396.248	17.331	1088.705	810.438
397.263	17.256	1087.871	809.391
398.278	17.187	1087.120	808.433
399.292	17.413	1086.361	808.869
400.307	17.244	1086.206	807.877
401.321	17.175	1085.299	806.808
402.336	17.267	1084.326	806.447
403.350	17.366	1083.333	806.106
404.365	17.361	1083.006	805.767
405.380	17.396	1081.923	805.057
406.394	17.410	1081.521	804.752
407.409	17.434	1080.658	804.153
408.423	17.523	1079.829	803.885
409.438	17.500	1079.302	803.313
410.453	17.414	1078.767	802.441
411.467	17.563	1077.945	802.459
412.482	17.576	1077.038	801.771
413.496	17.645	1076.428	801.570
414.511	17.595	1076.018	800.961
415.526	17.695	1075.205	800.753
416.540	17.690	1074.972	800.486
417.555	17.706	1074.338	800.017
418.569	17.768	1073.468	799.590
419.584	17.660	1073.299	798.889
420.599	17.705	1072.913	798.741
421.613	108.428	1332.014	1487.560
422.628	100.459	1369.693	1487.663
