DTS Sentinel unit serial number:	SN413079Multiplexer serial number:	ORYXHardware model number:	OX4-SRSoftware version number:	ORYX F/W v4.00 Oryx Data Collector v3.7.2.0data status	okinstallation	princeton_trtdifferential loss correction	single-endedforward channel	channel 2reverse channel	N/Adate	2019/09/13time	05:55:35forward acquisition time	60.00reverse acquisition time	0.00gamma	496.2192k internal	0.2338k external	0.2338temperature offset calibration	1.0195default loss term (dB/km)	0.3790temperature slope calibration	1.0000multiplexer offset coefficient	1.0000multiplexer slope coefficient	1.0000fibre end	0.00T internal ref (°C)	26.17T ext. ref 1 (°C)	4.06T ext. ref 2 (°C)	20.95length (m)	temperature (°C)	Stokes	anti-Stokes-747.200	-200.000	-0.053	-0.262
-746.185	-45.507	0.118	0.059
-745.171	-133.694	-0.260	-0.033
-744.156	68.176	-0.221	0.227
-743.142	-119.897	0.332	0.057
-742.127	423.703	-0.202	0.435
-741.112	507.111	0.069	0.161
-740.098	-165.766	0.235	0.010
-739.083	-49.352	-0.343	-0.164
-738.069	135.539	0.189	0.247
-737.054	-200.000	0.046	0.275
-736.039	-113.839	-0.201	-0.039
-735.025	-140.195	0.319	0.034
-734.010	800.000	-0.010	0.032
-732.996	54.842	0.219	0.212
-731.981	-110.818	-0.185	-0.038
-730.966	-56.462	-0.173	0.077
-729.952	147.400	0.211	-0.285
-728.937	199.047	0.118	0.181
-727.923	114.053	-0.094	0.114
-726.908	37.235	0.134	0.119
-725.894	-92.236	-0.206	0.058
-724.879	537.743	-0.074	-0.176
-723.864	-69.084	-0.132	-0.051
-722.850	-200.000	0.044	0.385
-721.835	375.818	-0.091	0.186
-720.821	35.280	-0.201	-0.177
-719.806	-148.727	0.214	0.017
-718.791	96.379	0.330	-0.378
-717.777	800.000	-0.080	-0.224
-716.762	132.621	-0.293	-0.379
-715.748	-97.663	0.146	0.038
-714.733	-19.264	0.179	-0.111
-713.718	-16.926	0.026	0.016
-712.704	-200.000	0.038	-0.202
-711.689	225.647	-0.157	-0.255
-710.675	164.849	0.133	-0.189
-709.660	433.753	-0.159	-0.345
-708.645	-132.910	0.546	-0.070
-707.631	-65.832	0.115	0.046
-706.616	75.379	-0.191	-0.202
-705.602	97.481	-0.118	0.136
-704.587	-200.000	0.002	-0.035
-703.572	142.125	0.077	-0.103
-702.558	800.000	-0.078	-0.278
-701.543	19.955	-0.076	-0.062
-700.529	-98.701	0.195	-0.050
-699.514	-13.635	0.100	-0.065
-698.499	104.840	0.089	-0.105
-697.485	-21.597	-0.427	-0.261
-696.470	234.176	0.215	0.354
-695.456	83.658	-0.276	0.302
-694.441	-200.000	0.051	-0.391
-693.426	217.292	-0.151	0.241
-692.412	800.000	-0.064	-0.217
-691.397	80.965	0.171	0.185
-690.383	-200.000	0.012	0.156
-689.368	639.270	0.054	0.138
-688.354	-200.000	-0.001	0.510
-687.339	76.812	-0.187	0.199
-686.324	800.000	-0.159	-0.486
-685.310	170.504	-0.101	-0.145
-684.295	-152.850	0.159	0.011
-683.281	-200.000	-0.041	-0.320
-682.266	241.983	-0.107	-0.179
-681.251	-82.507	0.281	-0.091
-680.237	-116.576	-0.505	-0.093
-679.222	-125.781	0.158	-0.024
-678.208	-125.670	-0.256	0.039
-677.193	-62.695	0.125	-0.052
-676.178	-54.129	0.059	0.027
-675.164	175.223	0.066	-0.096
-674.149	-200.000	-0.020	0.230
-673.135	-91.166	-0.165	-0.047
-672.120	127.689	0.213	0.270
-671.105	704.633	-0.111	-0.294
-670.091	7.599	-0.228	-0.171
-669.076	65.786	0.126	-0.128
-668.062	-74.287	0.256	-0.092
-667.047	-136.989	0.160	-0.018
-666.032	120.494	0.305	0.380
-665.018	-200.000	-0.026	0.420
-664.003	-102.127	-0.053	-0.013
-662.989	-134.004	-0.220	0.027
-661.974	721.838	0.062	-0.166
-660.959	185.581	0.087	-0.130
-659.945	-21.107	-0.248	-0.152
-658.930	-115.168	0.268	0.051
-657.916	-101.079	-0.324	-0.079
-656.901	800.000	-0.034	0.148
-655.886	800.000	0.062	-0.198
-654.872	-88.145	-0.298	-0.089
-653.857	-200.000	-0.008	0.075
-652.843	-35.280	0.186	0.101
-651.828	-200.000	-0.004	-0.036
-650.814	23.559	-0.169	-0.139
-649.799	-39.136	0.104	0.055
-648.784	-172.116	0.122	0.004
-647.770	52.839	-0.135	-0.129
-646.755	-200.000	0.042	-0.282
-645.741	341.893	-0.069	-0.135
-644.726	-64.804	-0.402	-0.163
-643.711	800.000	-0.035	0.141
-642.697	-192.332	0.165	0.002
-641.682	-200.000	-0.027	-0.177
-640.668	309.364	0.058	0.108
-639.653	-151.264	0.073	-0.005
-638.638	88.917	0.186	-0.207
-637.624	350.929	-0.097	-0.193
-636.609	-5.011	0.089	0.061
-635.595	98.396	-0.138	-0.159
-634.580	-162.797	-0.074	-0.004
-633.565	-46.539	-0.240	-0.118
-632.551	-200.000	-0.024	-0.379
-631.536	-44.168	-0.116	0.058
-630.522	173.582	-0.101	-0.145
-629.507	191.683	0.043	0.065
-628.492	677.843	-0.081	0.211
-627.478	298.193	0.055	0.102
-626.463	643.787	0.080	-0.203
-625.449	-95.186	-0.283	-0.076
-624.434	-114.784	-0.108	0.021
-623.419	83.662	-0.060	-0.065
-622.405	149.769	0.061	-0.083
-621.390	-187.006	-0.193	-0.003
-620.376	54.332	-0.208	0.200
-619.361	-200.000	0.051	-0.505
-618.346	-111.546	0.107	-0.022
-617.332	162.940	0.118	0.166
-616.317	-7.652	-0.282	-0.191
-615.303	-41.482	0.033	0.017
-614.288	15.745	-0.139	-0.110
-613.273	212.392	-0.060	0.094
-612.259	-92.396	-0.037	0.010
-611.244	-119.387	-0.091	0.016
-610.230	-200.000	-0.040	-0.297
-609.215	-89.754	-0.311	0.091
-608.201	309.270	0.054	0.100
-607.186	-160.575	-0.128	-0.007
-606.171	138.845	0.112	0.147
-605.157	124.793	0.198	0.248
-604.142	313.609	-0.106	0.198
-603.128	227.165	0.092	-0.149
-602.113	127.061	0.220	-0.278
-601.098	167.938	0.056	0.080
-600.084	-43.074	-0.435	-0.220
-599.069	457.507	0.138	-0.306
-598.055	326.831	0.058	-0.112
-597.040	800.000	0.074	-0.213
-596.025	337.010	-0.268	-0.520
-595.011	-108.327	0.317	-0.068
-593.996	-23.873	-0.018	0.011
-592.982	244.611	-0.230	0.385
-591.967	57.450	0.098	0.096
-590.952	95.094	0.052	-0.059
-589.938	-39.282	0.202	0.106
-588.923	-200.000	0.012	-0.089
-587.909	-76.160	0.066	-0.023
-586.894	-38.910	0.096	-0.051
-585.879	800.000	0.079	-0.232
-584.865	22.667	0.106	-0.086
-583.850	93.410	0.048	0.055
-582.836	-143.678	0.409	0.039
-581.821	-94.729	-0.126	0.034
-580.806	-184.218	-0.171	-0.003
-579.792	800.000	-0.040	-0.169
-578.777	33.393	0.284	-0.246
-577.763	-82.697	-0.084	-0.027
-576.748	-96.054	-0.253	0.067
-575.733	-45.639	0.093	0.046
-574.719	101.342	0.130	0.151
-573.704	-137.629	-0.331	0.037
-572.690	106.024	-0.104	0.122
-571.675	14.366	0.201	-0.157
-570.661	276.712	0.196	-0.348
-569.646	-33.683	0.091	-0.050
-568.631	-69.186	-0.084	-0.032
-567.617	62.605	-0.114	-0.114
-566.602	800.000	-0.092	0.374
-565.588	-43.423	-0.389	0.196
-564.573	121.179	0.290	-0.359
-563.558	-126.053	0.209	-0.031
-562.544	-200.000	-0.041	-0.398
-561.529	-200.000	-0.053	-0.389
-560.515	133.681	0.126	-0.162
-559.500	-109.269	-0.087	0.018
-558.485	230.983	-0.177	0.289
-557.471	-98.059	0.053	-0.014
-556.456	17.557	-0.099	-0.078
-555.442	-24.227	-0.120	-0.072
-554.427	262.735	0.115	-0.199
-553.412	-44.985	-0.118	-0.059
-552.398	-200.000	0.057	-0.328
-551.383	24.548	0.308	-0.254
-550.369	170.093	-0.210	-0.300
-549.354	800.000	-0.065	-0.254
-548.339	-200.000	-0.011	-0.126
-547.325	-5.212	-0.264	-0.181
-546.310	-30.857	0.221	0.124
-545.296	7.231	-0.090	0.067
-544.281	-200.000	-0.035	0.198
-543.266	198.021	0.069	0.106
-542.252	681.798	0.043	0.112
-541.237	800.000	-0.029	-0.089
-540.223	22.408	-0.235	-0.191
-539.208	-81.076	0.437	0.144
-538.193	-62.749	0.114	0.047
-537.179	-38.186	-0.388	0.205
-536.164	800.000	-0.165	0.473
-535.150	-7.065	0.218	0.147
-534.135	115.151	-0.262	0.318
-533.121	-146.071	0.359	-0.032
-532.106	7.075	-0.043	-0.032
-531.091	-50.858	-0.049	0.023
-530.077	-154.405	0.222	-0.015
-529.062	480.528	-0.097	-0.218
-528.048	-2.026	0.065	-0.046
-527.033	344.741	0.125	0.244
-526.018	-70.268	0.181	0.069
-525.004	3.013	0.041	-0.029
-523.989	-200.000	-0.030	-0.284
-522.975	123.558	0.120	-0.149
-521.960	-161.308	0.213	0.011
-520.945	-128.603	0.261	0.037
-519.931	552.905	-0.081	-0.192
-518.916	-67.752	-0.340	0.132
-517.902	163.302	-0.078	0.109
-516.887	28.412	0.271	0.228
-515.872	87.020	-0.159	-0.175
-514.858	-2.917	0.159	-0.111
-513.843	-136.278	0.241	-0.028
-512.829	-163.541	-0.351	0.017
-511.814	-123.296	-0.105	-0.017
-510.799	191.721	0.117	0.176
-509.785	-94.677	0.231	-0.062
-508.770	72.621	-0.227	-0.235
-507.756	68.995	0.219	-0.224
-506.741	-10.351	0.179	-0.118
-505.726	-71.332	-0.226	0.084
-504.712	22.206	0.154	-0.125
-503.697	77.799	0.305	0.323
-502.683	110.570	0.259	-0.310
-501.668	59.967	-0.222	0.218
-500.653	-126.314	0.037	-0.006
-499.639	77.625	0.208	0.221
-498.624	-124.748	-0.244	0.037
-497.610	72.573	-0.328	-0.340
-496.595	-51.941	-0.228	-0.105
-495.581	98.137	-0.183	-0.209
-494.566	-16.008	-0.213	-0.135
-493.551	-88.152	-0.340	-0.101
-492.537	138.149	0.107	0.139
-491.522	-200.000	0.020	-0.128
-490.508	785.526	-0.136	-0.369
-489.493	-93.722	-0.071	-0.019
-488.478	-52.413	0.333	-0.153
-487.464	-136.039	-0.250	-0.029
-486.449	294.368	0.191	-0.347
-485.435	480.007	0.112	0.253
-484.420	163.326	0.119	-0.167
-483.405	178.091	0.139	-0.201
-482.391	800.000	0.049	-0.161
-481.376	200.954	0.090	0.137
-480.362	-131.290	-0.311	-0.041
-479.347	117.726	-0.143	0.174
-478.332	-200.000	0.038	-0.182
-477.318	-95.698	-0.166	-0.044
-476.303	315.721	0.060	0.113
-475.289	231.945	-0.161	0.263
-474.274	-72.548	0.402	0.147
-473.259	-15.007	-0.098	0.062
-472.245	62.976	0.249	0.247
-471.230	-200.000	-0.027	0.176
-470.216	278.063	-0.016	-0.028
-469.201	24.593	0.167	0.137
-468.186	-147.296	0.082	0.007
-467.172	53.102	-0.302	0.287
-466.157	-200.000	0.007	-0.182
-465.143	-174.333	0.150	0.004
-464.128	-200.000	-0.021	-0.108
-463.113	-200.000	-0.324	-0.001
-462.099	30.846	0.026	0.022
-461.084	-32.293	0.252	0.140
-460.070	-147.603	0.116	0.010
-459.055	-200.000	0.034	-0.221
-458.040	158.462	-0.061	0.083
-457.026	22.451	0.151	0.122
-456.011	-100.025	-0.193	0.048
-454.997	-170.710	0.364	0.012
-453.982	-200.000	-0.043	0.189
-452.968	800.000	0.014	0.050
-451.953	1.861	-0.202	-0.145
-450.938	418.789	-0.101	0.214
-449.924	363.602	-0.132	0.264
-448.909	-155.335	-0.147	0.009
-447.895	-1.589	0.069	-0.048
-446.880	-85.442	-0.036	0.011
-445.865	-200.000	0.014	-0.219
-444.851	-29.020	0.226	0.129
-443.836	-200.000	0.019	-0.147
-442.822	-89.313	-0.130	0.038
-441.807	-46.018	0.111	-0.054
-440.792	-200.000	-0.019	-0.136
-439.778	27.364	-0.228	0.190
-438.763	706.819	-0.064	-0.167
-437.749	-152.862	-0.085	-0.006
-436.734	-34.975	0.296	0.160
-435.719	800.000	0.098	0.306
-434.705	-61.860	0.273	0.113
-433.690	-152.936	0.264	0.018
-432.676	-57.136	0.054	-0.024
-431.661	-90.047	0.156	-0.045
-430.646	360.098	-0.166	-0.329
-429.632	753.136	0.095	-0.254
-428.617	155.549	-0.250	-0.342
-427.603	212.453	-0.118	0.185
-426.588	-87.987	0.042	-0.012
-425.573	-113.980	0.325	-0.063
-424.559	-39.823	0.175	-0.091
-423.544	-77.517	0.220	0.076
-422.530	-141.936	-0.300	0.030
-421.515	-167.633	-0.314	-0.012
-420.500	49.810	-0.099	0.092
-419.486	24.448	0.253	0.207
-418.471	-121.676	-0.207	-0.034
-417.457	-200.000	-0.047	-0.318
-416.442	359.967	0.127	0.251
-415.428	-19.663	0.142	0.087
-414.413	-166.020	0.225	0.009
-413.398	371.219	0.069	0.138
-412.384	71.202	0.087	-0.089
-411.369	-173.186	-0.354	-0.011
-410.355	23.976	0.199	-0.163
-409.340	-180.654	0.274	-0.006
-408.325	-200.000	-0.014	-0.078
-407.311	-200.000	-0.030	-0.430
-406.296	-110.721	0.277	-0.057
-405.282	800.000	-0.086	-0.266
-404.267	800.000	0.084	-0.267
-403.252	211.227	-0.047	-0.073
-402.238	-151.775	0.043	0.003
-401.223	-108.135	0.160	0.034
-400.209	2.722	-0.248	-0.178
-399.194	800.000	0.011	0.048
-398.179	-98.469	0.112	-0.028
-397.165	56.931	-0.197	0.190
-396.150	-49.151	-0.456	-0.216
-395.136	118.840	-0.211	-0.259
-394.121	-123.932	0.199	-0.031
-393.106	-107.900	-0.144	0.031
-392.092	-17.027	0.213	0.133
-391.077	372.632	-0.048	0.096
-390.063	-89.076	0.039	-0.011
-389.048	402.071	-0.243	-0.506
-388.033	-98.422	0.363	-0.092
-387.019	713.047	-0.049	-0.127
-386.004	552.476	0.066	-0.158
-384.990	649.802	-0.045	0.114
-383.975	-200.000	-0.039	-0.216
-382.960	-98.913	-0.299	-0.075
-381.946	-130.232	-0.494	0.066
-380.931	-129.364	0.208	0.029
-379.917	53.771	0.027	-0.026
-378.902	22.695	0.143	0.116
-377.888	138.609	-0.100	0.130
-376.873	265.386	-0.061	0.104
-375.858	-147.933	0.427	0.035
-374.844	-41.391	0.336	-0.171
-373.829	-200.000	-0.037	-0.376
-372.815	-200.000	0.030	0.165
-371.800	-200.000	-0.010	-0.136
-370.785	800.000	-0.087	-0.244
-369.771	64.001	0.109	-0.108
-368.756	-91.644	0.079	-0.022
-367.742	246.968	0.065	-0.108
-366.727	800.000	0.030	0.090
-365.712	62.755	0.094	-0.093
-364.698	174.857	0.076	0.109
-363.683	358.343	0.145	0.286
-362.669	-200.000	0.013	-0.085
-361.654	94.883	0.183	-0.206
-360.639	463.244	0.184	0.407
-359.625	-57.134	-0.174	-0.076
-358.610	-107.918	0.315	-0.068
-357.596	-4.669	-0.382	-0.260
-356.581	-19.306	0.143	-0.088
-355.566	-115.449	0.142	0.026
-354.552	-172.352	0.252	-0.008
-353.537	54.238	0.182	-0.174
-352.523	-200.000	0.029	0.148
-351.508	-85.595	0.341	0.105
-350.493	-200.000	-0.071	0.310
-349.479	-169.225	-0.625	0.023
-348.464	-13.029	-0.169	0.109
-347.450	800.000	0.140	0.513
-346.435	319.970	-0.166	0.311
-345.420	26.655	-0.035	0.029
-344.406	-200.000	0.006	0.049
-343.391	453.415	0.061	0.134
-342.377	-86.855	0.351	0.106
-341.362	-103.140	0.494	0.116
-340.348	-118.233	-0.313	0.055
-339.333	800.000	-0.046	0.159
-338.318	-54.568	0.486	0.217
-337.304	11.342	0.366	0.277
-336.289	-200.000	-0.013	-0.219
-335.275	-32.363	0.141	-0.078
-334.260	97.967	-0.149	0.169
-333.245	253.013	-0.113	0.191
-332.231	140.849	-0.119	0.155
-331.216	-22.099	-0.212	-0.127
-330.202	171.570	0.221	0.313
-329.187	-200.000	0.039	0.200
-328.172	800.000	0.112	0.389
-327.158	-11.845	0.135	0.087
-326.143	312.582	-0.009	0.016
-325.129	800.000	-0.017	-0.069
-324.114	-200.000	-0.029	0.177
-323.099	-38.707	-0.262	-0.136
-322.085	-200.000	0.021	-0.183
-321.070	254.834	0.141	-0.239
-320.056	-24.340	0.161	0.095
-319.041	-67.975	0.289	-0.111
-318.026	-200.000	-0.004	-0.031
-317.012	800.000	-0.058	0.227
-315.997	-66.588	-0.250	-0.098
-314.983	-32.056	0.094	0.052
-313.968	227.260	-0.120	0.192
-312.953	-45.164	0.100	0.049
-311.939	292.584	0.253	-0.455
-310.924	65.054	-0.183	0.182
-309.910	-200.000	-0.030	0.149
-308.895	-200.000	-0.087	0.601
-307.880	-200.000	-0.028	-0.142
-306.866	-47.970	-0.088	-0.042
-305.851	-19.387	0.188	-0.115
-304.837	62.664	-0.139	0.137
-303.822	68.160	0.030	0.030
-302.807	67.741	0.110	-0.111
-301.793	-114.902	0.073	0.014
-300.778	-35.678	-0.323	0.172
-299.764	385.720	-0.143	-0.291
-298.749	767.667	0.081	0.218
-297.735	-200.000	-0.009	0.123
-296.720	113.483	-0.118	-0.141
-295.705	326.567	0.229	0.432
-294.691	76.628	0.153	0.160
-293.676	-200.000	0.016	0.199
-292.662	-200.000	0.084	0.374
-291.647	27.397	-0.363	0.301
-290.632	-200.000	0.034	0.416
-289.618	461.668	0.059	-0.130
-288.603	-121.367	0.455	0.075
-287.589	115.498	0.182	0.220
-286.574	-200.000	-0.007	0.267
-285.559	118.212	0.262	-0.319
-284.545	192.316	-0.209	-0.310
-283.530	317.965	-0.065	-0.122
-282.516	-4.275	0.132	-0.090
-281.501	-76.243	-0.186	-0.065
-280.486	-55.619	-0.222	-0.098
-279.472	800.000	0.109	0.321
-278.457	-46.782	-0.192	-0.093
-277.443	47.528	-0.128	-0.117
-276.428	3.397	-0.136	-0.097
-275.413	-151.096	-0.291	-0.022
-274.399	692.688	0.039	-0.102
-273.384	684.422	0.116	0.299
-272.370	-88.095	0.220	-0.065
-271.355	-60.781	-0.099	-0.041
-270.340	-110.095	-0.267	0.055
-269.326	-139.159	0.280	0.030
-268.311	-2.906	0.397	0.273
-267.297	573.602	-0.046	-0.110
-266.282	-77.011	0.108	-0.037
-265.267	-91.599	0.282	-0.079
-264.253	-62.963	-0.168	0.068
-263.238	135.992	-0.117	0.151
-262.224	32.386	0.076	-0.065
-261.209	-200.000	0.056	-0.271
-260.195	-200.000	-0.030	-0.193
-259.180	536.799	-0.087	-0.203
-258.165	47.503	0.117	0.108
-257.151	181.114	0.109	-0.157
-256.136	-33.044	-0.307	0.168
-255.122	-200.000	0.036	-0.275
-254.107	172.369	0.299	0.423
-253.092	363.869	-0.103	0.204
-252.078	-113.307	-0.348	0.067
-251.063	-200.000	-0.007	0.406
-250.049	-8.018	0.196	0.130
-249.034	161.917	-0.128	0.176
-248.019	-0.742	-0.132	-0.092
-247.005	-200.000	0.001	0.303
-245.990	124.698	-0.043	0.053
-244.976	-133.129	0.233	-0.029
-243.961	199.844	0.152	-0.229
-242.946	183.388	0.127	0.185
-241.932	-131.249	0.183	0.024
-240.917	-134.516	-0.214	-0.026
-239.903	80.885	0.082	0.087
-238.888	-45.928	-0.196	0.095
-237.873	-29.521	0.196	-0.110
-236.859	517.159	0.069	-0.158
-235.844	260.671	0.230	-0.391
-234.830	-99.050	-0.234	-0.058
-233.815	800.000	-0.020	-0.055
-232.800	-68.320	-0.180	-0.069
-231.786	37.646	-0.186	-0.162
-230.771	200.273	-0.107	0.161
-229.757	85.434	0.130	0.140
-228.742	-200.000	0.015	0.092
-227.727	-25.184	-0.069	0.040
-226.713	180.408	-0.002	0.002
-225.698	108.793	-0.037	-0.044
-224.684	90.989	-0.025	-0.027
-223.669	-86.884	-0.216	0.065
-222.655	-14.857	-0.233	0.147
-221.640	3.060	0.215	0.153
-220.625	-128.566	0.063	0.009
-219.611	-168.063	-0.367	-0.014
-218.596	91.774	0.247	-0.273
-217.582	-45.396	0.131	0.064
-216.567	35.417	-0.176	0.152
-215.552	-200.000	-0.040	0.175
-214.538	5.401	0.380	0.276
-213.523	229.480	-0.128	0.205
-212.509	-33.736	0.220	0.119
-211.494	-200.000	-0.048	0.309
-210.479	-104.167	-0.243	0.056
-209.465	200.784	-0.079	0.119
-208.450	-67.946	-0.422	-0.162
-207.436	-116.633	0.140	0.025
-206.421	-200.000	0.032	0.143
-205.406	-67.711	-0.241	-0.093
-204.392	-100.579	-0.311	-0.075
-203.377	353.408	-0.047	0.092
-202.363	235.298	-0.118	0.191
-201.348	-155.461	0.318	0.020
-200.333	88.556	0.069	0.076
-199.319	-112.182	-0.119	0.023
-198.304	800.000	0.056	-0.237
-197.290	-106.116	0.179	-0.040
-196.275	-200.000	-0.011	0.218
-195.260	-97.594	-0.238	0.061
-194.246	-200.000	-0.057	0.355
-193.231	-200.000	-0.052	-0.280
-192.217	37.187	-0.115	0.100
-191.202	698.126	-0.061	0.157
-190.187	11.833	-0.291	0.219
-189.173	28.431	0.318	-0.264
-188.158	-10.031	-0.241	0.157
-187.144	88.260	-0.122	0.133
-186.129	59.567	-0.186	-0.181
-185.114	28.995	-0.258	-0.215
-184.100	32.104	-0.108	0.092
-183.085	-200.000	-0.036	0.251
-182.071	-109.873	0.325	0.067
-181.056	210.158	0.170	0.262
-180.042	43.025	0.119	0.107
-179.027	42.486	-0.086	-0.077
-178.012	-200.000	0.030	0.145
-176.998	-6.025	0.123	-0.082
-175.983	320.730	-0.105	0.195
-174.969	-95.756	-0.359	0.094
-173.954	524.084	0.022	-0.050
-172.939	12.913	0.165	0.125
-171.925	469.782	-0.147	0.324
-170.910	800.000	-0.122	-0.332
-169.896	-200.000	-0.000	0.019
-168.881	-160.257	-0.171	-0.009
-167.866	83.771	-0.170	-0.182
-166.852	-66.128	-0.078	-0.030
-165.837	-135.911	0.194	0.022
-164.823	-185.220	-0.020	0.000
-163.808	599.392	-0.106	0.258
-162.793	48.186	-0.263	-0.241
-161.779	315.963	0.181	-0.335
-160.764	299.168	-0.101	0.182
-159.750	-94.292	-0.036	-0.010
-158.735	116.349	0.041	-0.049
-157.720	-55.798	-0.107	-0.047
-156.706	573.932	-0.135	-0.322
-155.691	-61.894	0.160	-0.066
-154.677	-200.000	-0.011	-0.178
-153.662	-200.000	-0.026	0.117
-152.647	-200.000	-0.036	0.188
-151.633	800.000	-0.101	0.319
-150.618	271.079	0.030	-0.051
-149.604	52.647	0.253	-0.237
-148.589	-88.565	0.205	-0.060
-147.574	800.000	-0.072	-0.242
-146.560	-59.238	-0.181	-0.077
-145.545	-200.000	0.019	0.160
-144.531	800.000	-0.075	-0.243
-143.516	800.000	-0.076	-0.249
-142.502	-200.000	-0.029	0.176
-141.487	20.086	0.161	0.127
-140.472	-7.662	0.023	0.015
-139.458	-140.537	0.116	-0.012
-138.443	-200.000	-0.005	-0.222
-137.429	82.435	0.133	-0.141
-136.414	-200.000	-0.014	0.112
-135.399	-13.209	-0.256	0.163
-134.385	-128.481	-0.388	0.054
-133.370	-72.903	-0.193	-0.069
-132.356	-200.000	0.029	-0.154
-131.341	800.000	-0.045	0.129
-130.326	671.793	0.122	0.309
-129.312	-124.848	0.060	-0.009
-128.297	800.000	0.083	-0.312
-127.283	800.000	-0.076	-0.250
-126.268	19.267	0.233	-0.183
-125.253	68.458	0.215	0.216
-124.239	-200.000	0.008	0.203
-123.224	44.398	0.190	0.171
-122.210	116.721	0.084	0.101
-121.195	107.238	0.212	-0.247
-120.180	-197.148	-0.118	-0.001
-119.166	559.112	0.116	-0.275
-118.151	-200.000	-0.007	0.151
-117.137	93.002	-0.042	0.046
-116.122	-200.000	0.015	-0.196
-115.107	-105.146	0.208	-0.047
-114.093	-12.469	-0.214	-0.137
-113.078	99.322	0.161	-0.182
-112.064	-43.779	-0.340	0.168
-111.049	-90.400	0.285	0.081
-110.034	17.093	-0.064	0.050
-109.020	-2.119	-0.097	0.067
-108.005	-12.998	0.287	0.183
-106.991	489.549	-0.018	0.040
-105.976	291.787	-0.140	-0.249
-104.962	21.452	0.307	-0.244
-103.947	-105.904	0.220	0.048
-102.932	-122.730	0.183	-0.029
-101.918	-161.198	0.419	0.021
-100.903	347.937	0.111	0.215
-99.889	-200.000	-0.004	0.179
-98.874	108.418	-0.033	-0.038
-97.859	-7.894	0.457	0.302
-96.845	-37.099	0.238	0.125
-95.830	-90.038	0.148	-0.042
-94.816	137.570	-0.095	-0.122
-93.801	-200.000	0.002	0.285
-92.786	-59.132	0.095	-0.040
-91.772	184.871	0.279	0.405
-90.757	201.092	0.144	0.217
-89.743	342.495	0.083	-0.159
-88.728	-98.277	0.198	-0.050
-87.713	410.836	0.179	-0.371
-86.699	-64.943	-0.041	-0.016
-85.684	800.000	-0.075	0.240
-84.670	138.874	0.143	-0.184
-83.655	-114.409	0.105	-0.020
-82.640	114.112	0.123	0.146
-81.626	230.510	-0.092	-0.148
-80.611	-147.309	-0.228	0.019
-79.597	91.681	-0.151	0.166
-78.582	156.397	-0.319	0.430
-77.567	58.617	-0.170	0.164
-76.553	-48.260	-0.314	0.148
-75.538	-83.279	0.229	-0.072
-74.524	-95.143	-0.251	0.066
-73.509	-13.428	0.140	0.089
-72.494	428.221	-0.054	-0.114
-71.480	677.294	0.038	0.097
-70.465	-200.000	0.049	-0.247
-69.451	-26.578	-0.173	-0.099
-68.436	303.872	-0.135	-0.244
-67.422	-200.000	-0.007	0.192
-66.407	-200.000	0.037	0.176
-65.392	137.001	0.192	0.245
-64.378	284.695	0.135	-0.237
-63.363	-200.000	-0.011	-0.277
-62.349	-93.462	0.376	0.102
-61.334	107.627	-1.025	-1.192
-60.319	171.832	0.494	0.694
-59.305	800.000	-0.516	-1.519
-58.290	142.549	1.121	1.454
-57.276	800.000	0.448	1.338
-56.261	-200.000	117.586	642.423
-55.246	484.084	1552.081	3449.643
-54.232	172.896	2730.041	3841.151
-53.217	96.832	2295.370	2569.204
-52.203	35.146	1901.044	1626.956
-51.188	29.383	1694.738	1406.538
-50.173	26.999	1654.002	1354.907
-49.159	46.685	1712.415	1552.957
-48.144	45.577	1725.310	1556.174
-47.130	28.665	1683.274	1391.368
-46.115	26.204	1668.666	1360.718
-45.100	26.052	1663.617	1355.406
-44.086	26.091	1660.901	1353.434
-43.071	26.052	1658.460	1351.098
-42.057	25.979	1656.150	1348.616
-41.042	26.017	1654.226	1347.279
-40.027	25.971	1652.252	1345.272
-39.013	26.010	1650.096	1343.758
-37.998	25.871	1649.588	1342.255
-36.984	26.072	1647.037	1341.619
-35.969	26.131	1645.869	1341.056
-34.954	26.092	1645.136	1340.115
-33.940	26.209	1642.656	1338.904
-32.925	26.068	1641.071	1336.520
-31.911	26.220	1639.003	1335.908
-30.896	26.171	1637.416	1334.198
-29.881	26.165	1635.518	1332.555
-28.867	26.143	1634.464	1331.475
-27.852	26.232	1632.585	1330.548
-26.838	26.144	1631.697	1329.130
-25.823	26.238	1630.380	1328.692
-24.809	26.189	1628.681	1326.894
-23.794	26.177	1627.065	1325.434
-22.779	26.333	1625.485	1325.241
-21.765	26.157	1624.129	1322.791
-20.750	26.148	1622.984	1321.743
-19.736	26.217	1621.245	1320.780
-18.721	26.240	1619.838	1319.747
-17.706	26.164	1618.139	1317.755
-16.692	26.268	1616.428	1317.072
-15.677	26.239	1615.283	1315.876
-14.663	26.219	1613.865	1314.520
-13.648	26.247	1612.658	1313.690
-12.633	26.126	1611.092	1311.482
-11.619	26.212	1609.281	1310.578
-10.604	26.218	1607.501	1309.119
-9.590	26.303	1605.905	1308.389
-8.575	26.244	1605.080	1307.236
-7.560	26.220	1604.134	1306.237
-6.546	26.211	1603.106	1305.284
-5.531	26.183	1602.072	1304.185
-4.517	26.182	1601.198	1303.419
-3.502	26.203	1599.874	1302.441
-2.487	26.325	1597.859	1301.627
-1.473	25.880	1586.232	1288.925
-0.458	22.982	1567.205	1252.901
0.556	21.666	1568.637	1222.746
1.571	19.410	1592.663	1225.359
2.586	19.173	1604.843	1232.927
3.600	17.256	1550.953	1178.142
4.615	10.812	1444.081	1055.144
5.629	5.029	1384.578	975.485
6.644	3.989	1377.234	963.755
7.659	4.116	1375.902	963.526
8.673	4.056	1375.337	962.675
9.688	4.089	1373.575	961.560
10.702	4.094	1370.100	959.074
11.717	6.869	1374.948	979.603
12.731	14.311	1389.039	1036.010
13.746	20.864	1399.707	1084.818
14.761	22.761	1401.835	1098.191
15.775	22.196	1400.277	1093.363
16.790	21.359	1397.078	1085.568
17.804	20.547	1395.530	1079.234
18.819	20.206	1394.317	1076.086
19.834	20.165	1393.243	1074.902
20.848	20.117	1392.583	1074.003
21.863	19.909	1391.213	1071.564
22.877	19.867	1390.376	1070.565
23.892	19.789	1389.190	1069.078
24.907	19.714	1388.496	1067.984
25.921	19.740	1387.617	1067.370
26.936	19.762	1386.275	1066.385
27.950	19.885	1385.457	1066.416
28.965	19.893	1384.575	1065.693
29.980	20.035	1383.794	1065.867
30.994	20.255	1382.598	1066.208
32.009	20.218	1381.464	1065.011
33.023	20.252	1380.636	1064.486
34.038	20.138	1378.781	1062.265
35.053	20.006	1377.690	1060.521
36.067	19.909	1376.835	1059.174
37.082	20.015	1375.627	1058.800
38.096	20.107	1374.629	1058.504
39.111	20.008	1374.086	1057.386
40.126	20.042	1373.066	1056.710
41.140	19.582	1371.879	1052.904
42.155	19.468	1371.292	1051.662
43.169	19.390	1370.995	1050.870
44.184	19.407	1370.941	1050.835
45.199	19.416	1370.734	1050.637
46.213	19.645	1370.319	1051.624
47.228	19.833	1369.513	1052.056
48.242	19.942	1368.399	1051.770
49.257	19.845	1367.093	1050.083
50.271	19.876	1365.508	1048.962
51.286	19.882	1364.367	1048.029
52.301	19.903	1362.436	1046.577
53.315	19.774	1361.689	1045.135
54.330	19.664	1360.429	1043.412
55.344	19.619	1359.522	1042.353
56.359	19.608	1358.146	1041.137
57.374	19.560	1357.356	1040.148
58.388	19.343	1357.032	1038.505
59.403	19.337	1356.111	1037.670
60.417	19.244	1355.329	1036.418
61.432	19.320	1354.376	1036.058
62.447	19.122	1353.707	1034.265
63.461	19.125	1351.953	1032.847
64.476	19.031	1351.643	1031.958
65.490	19.106	1350.112	1031.148
66.505	19.138	1348.805	1030.249
67.520	19.160	1347.679	1029.427
68.534	19.159	1346.423	1028.375
69.549	19.186	1345.308	1027.591
70.563	19.132	1344.201	1026.331
71.578	19.009	1343.036	1024.619
72.593	18.964	1342.003	1023.471
73.607	18.843	1341.945	1022.619
74.622	18.954	1340.606	1022.167
75.636	19.060	1339.740	1022.046
76.651	19.111	1339.164	1021.818
77.666	19.077	1339.368	1021.680
78.680	19.154	1339.184	1021.906
79.695	19.288	1337.856	1021.601
80.709	19.308	1337.353	1021.245
81.724	19.492	1336.367	1021.490
82.739	19.563	1335.881	1021.447
83.753	19.685	1335.368	1021.688
84.768	19.831	1334.830	1022.044
85.782	19.999	1333.683	1022.069
86.797	20.034	1331.881	1020.803
87.812	19.877	1330.571	1018.784
88.826	19.851	1329.663	1017.848
89.841	19.988	1328.820	1017.918
90.855	20.046	1327.738	1017.340
91.870	20.188	1326.937	1017.467
92.884	20.150	1326.242	1016.626
93.899	20.176	1325.167	1015.863
94.914	20.203	1324.677	1015.551
95.928	20.227	1323.618	1014.792
96.943	20.082	1322.792	1013.222
97.957	20.052	1321.697	1012.116
98.972	20.094	1320.550	1011.398
99.987	20.026	1320.003	1010.488
101.001	20.091	1318.888	1009.925
102.016	20.036	1317.752	1008.649
103.030	20.119	1316.992	1008.461
104.045	19.979	1316.371	1007.080
105.060	19.874	1314.858	1005.226
106.074	19.530	1313.314	1001.955
107.089	19.167	1311.824	998.626
108.103	19.244	1309.890	997.511
109.118	19.228	1308.561	996.317
110.133	19.219	1307.081	995.050
111.147	19.290	1305.981	994.536
112.162	19.297	1305.022	993.758
113.176	19.267	1304.025	992.736
114.191	19.425	1303.321	993.027
115.206	19.523	1301.744	992.300
116.220	19.355	1300.546	990.331
117.235	19.447	1299.484	989.962
118.249	19.249	1298.925	988.316
119.264	19.236	1297.532	987.094
120.279	19.102	1296.393	985.373
121.293	19.116	1295.019	984.323
122.308	19.063	1294.060	983.201
123.322	18.950	1293.081	981.728
124.337	18.977	1291.853	980.861
125.352	18.817	1290.900	979.142
126.366	18.932	1289.532	978.670
127.381	18.856	1289.123	977.842
128.395	18.842	1287.835	976.699
129.410	18.972	1286.938	976.667
130.424	19.101	1286.440	976.935
131.439	19.177	1286.091	977.014
132.454	19.156	1284.874	975.888
133.468	19.315	1284.107	976.116
134.483	19.274	1283.759	975.535
135.497	19.369	1282.372	974.933
136.512	19.413	1281.157	974.173
137.527	19.463	1279.765	973.307
138.541	19.511	1277.862	972.043
139.556	19.549	1277.017	971.532
140.570	19.715	1276.357	971.875
141.585	19.732	1275.167	970.976
142.600	19.785	1274.705	970.840
143.614	20.021	1273.826	971.409
144.629	20.033	1272.798	970.606
145.643	20.067	1271.457	969.686
146.658	19.713	1270.478	966.876
147.673	19.623	1268.739	964.961
148.687	19.556	1267.534	963.586
149.702	19.414	1266.263	961.745
150.716	19.313	1265.004	960.142
151.731	19.449	1263.224	959.463
152.746	19.492	1262.123	958.776
153.760	19.515	1260.990	957.958
154.775	19.563	1260.461	957.737
155.789	19.770	1259.592	958.144
156.804	19.709	1258.581	956.952
157.819	19.777	1257.776	956.629
158.833	19.964	1256.636	956.709
159.848	20.032	1256.207	956.678
160.862	19.995	1255.007	955.473
161.877	19.686	1253.159	952.281
162.892	19.286	1252.561	949.536
163.906	19.397	1251.436	949.210
164.921	19.427	1250.231	948.376
165.935	19.369	1250.166	947.928
166.950	19.542	1249.356	948.177
167.964	19.620	1248.371	947.777
168.979	19.567	1247.119	946.448
169.994	19.629	1246.288	946.073
171.008	19.561	1246.013	945.410
172.023	19.689	1245.381	945.547
173.037	19.966	1244.579	946.366
174.052	19.813	1243.752	944.822
175.067	19.597	1242.165	942.354
176.081	19.354	1241.378	940.348
177.096	19.447	1240.589	940.172
178.110	19.431	1239.260	938.997
179.125	19.511	1238.504	938.775
180.140	19.597	1237.870	938.679
181.154	19.707	1236.577	938.212
182.169	19.892	1235.046	937.970
183.183	19.947	1234.234	937.567
184.198	19.891	1233.442	936.582
185.213	20.044	1231.845	936.114
186.227	20.012	1231.272	935.420
187.242	20.013	1230.068	934.428
188.256	20.278	1229.192	935.112
189.271	20.118	1228.664	933.762
190.286	19.949	1227.159	931.630
191.300	19.475	1225.870	928.018
192.315	19.456	1224.830	927.047
193.329	19.447	1224.644	926.776
194.344	19.540	1224.049	926.743
195.359	19.604	1223.520	926.606
196.373	19.746	1223.081	926.952
197.388	19.764	1223.123	926.994
198.402	20.090	1222.427	928.135
199.417	20.299	1222.136	928.947
200.432	20.382	1221.760	929.023
201.446	20.493	1220.858	928.851
202.461	20.530	1220.218	928.478
203.475	20.400	1219.188	926.919
204.490	20.202	1217.330	924.368
205.504	20.035	1216.269	922.593
206.519	20.012	1215.054	921.466
207.534	19.872	1213.995	919.841
208.548	19.914	1212.660	918.969
209.563	19.949	1211.814	918.430
210.577	20.075	1210.961	918.371
211.592	20.061	1210.598	917.940
212.607	20.326	1209.803	918.658
213.621	20.339	1208.760	917.857
214.636	20.197	1207.826	916.314
215.650	20.192	1206.816	915.440
216.665	20.382	1206.195	915.890
217.680	20.521	1205.576	916.072
218.694	20.517	1205.017	915.545
219.709	20.560	1203.881	914.829
220.723	20.520	1203.126	913.964
221.738	20.393	1202.422	912.680
222.753	20.369	1201.297	911.620
223.767	20.339	1200.700	910.927
224.782	20.514	1200.579	911.676
225.796	20.618	1200.155	911.815
226.811	20.629	1199.078	910.978
227.826	20.529	1197.898	909.475
228.840	20.427	1197.181	908.319
229.855	20.360	1196.619	907.462
230.869	20.409	1195.450	906.751
231.884	20.250	1194.504	905.123
232.899	20.097	1193.976	903.843
233.913	20.045	1192.945	902.714
234.928	19.940	1192.317	901.610
235.942	19.863	1191.644	900.620
236.957	19.955	1190.573	900.211
237.972	20.009	1189.825	899.847
238.986	20.070	1189.500	899.837
240.001	19.930	1188.894	898.571
241.015	20.016	1187.920	898.204
242.030	20.246	1187.097	898.693
243.045	20.206	1186.534	897.978
244.059	20.247	1185.796	897.555
245.074	20.339	1184.894	897.265
246.088	20.519	1184.032	897.467
247.103	20.519	1183.575	897.041
248.117	20.675	1183.090	897.396
249.132	20.926	1182.588	898.232
250.147	21.254	1181.837	899.268
251.161	21.384	1181.048	899.259
252.176	21.303	1180.312	898.200
253.190	21.412	1179.980	898.429
254.205	21.435	1179.655	898.222
255.220	21.444	1179.175	897.823
256.234	21.358	1178.596	896.860
257.249	21.343	1177.902	896.175
258.263	21.428	1176.922	895.784
259.278	21.463	1175.634	894.906
260.293	21.257	1176.000	894.049
261.307	21.487	1175.581	894.829
262.322	21.530	1174.672	894.279
263.336	21.548	1173.741	893.584
264.351	21.566	1173.361	893.305
265.366	21.566	1172.580	892.635
266.380	21.418	1171.893	891.279
267.395	21.452	1170.893	890.608
268.409	21.340	1169.869	889.184
269.424	21.325	1168.856	888.257
270.439	21.291	1168.446	887.693
271.453	21.238	1167.855	886.898
272.468	21.080	1166.719	885.157
273.482	21.014	1165.910	884.127
274.497	21.024	1165.334	883.664
275.512	21.092	1164.852	883.564
276.526	21.112	1163.871	882.846
277.541	21.209	1162.957	882.562
278.555	21.138	1162.721	881.948
279.570	21.399	1161.998	882.638
280.585	21.453	1161.748	882.641
281.599	21.602	1160.109	882.071
282.614	21.393	1159.131	880.196
283.628	21.129	1158.229	878.103
284.643	21.096	1157.135	877.032
285.657	21.286	1155.913	876.985
286.672	21.166	1155.704	876.146
287.687	21.250	1154.518	875.588
288.701	21.222	1153.800	874.828
289.716	21.260	1152.896	874.252
290.730	21.199	1152.316	873.431
291.745	21.291	1151.994	873.571
292.760	21.381	1150.977	873.169
293.774	21.443	1150.672	873.172
294.789	21.503	1150.297	873.111
295.803	21.644	1149.100	872.827
296.818	21.338	1148.198	870.541
297.833	21.318	1147.343	869.715
298.847	21.386	1146.455	869.302
299.862	21.304	1145.885	868.388
300.876	21.286	1145.409	867.862
301.891	21.415	1145.057	868.157
302.906	21.642	1144.254	868.595
303.920	21.839	1143.482	868.913
304.935	21.946	1143.150	869.112
305.949	21.917	1142.985	868.765
306.964	21.953	1142.141	868.224
307.979	21.864	1140.345	866.344
308.993	21.693	1140.276	865.370
310.008	21.747	1139.632	865.072
311.022	21.955	1138.765	865.362
312.037	21.766	1138.277	863.981
313.052	21.694	1136.903	862.511
314.066	21.516	1135.644	860.600
315.081	21.236	1134.852	858.548
316.095	21.176	1134.184	857.674
317.110	21.263	1133.342	857.386
318.125	21.258	1132.969	857.005
319.139	21.290	1131.799	856.202
320.154	21.403	1131.254	856.265
321.168	21.297	1130.704	855.256
322.183	21.229	1130.218	854.479
323.197	21.358	1129.793	854.714
324.212	21.387	1129.219	854.347
325.227	21.521	1128.554	854.419
326.241	21.477	1128.173	853.841
327.256	21.442	1127.031	852.731
328.270	21.455	1125.684	851.702
329.285	21.466	1124.999	851.163
330.300	21.365	1124.210	849.996
331.314	21.436	1122.877	849.261
332.329	21.342	1122.150	848.177
333.343	21.435	1122.068	848.491
334.358	21.587	1121.194	848.495
335.373	21.766	1120.052	848.418
336.387	21.803	1119.232	847.901
337.402	21.783	1118.574	847.234
338.416	21.847	1118.377	847.319
339.431	22.007	1117.718	847.516
340.446	21.974	1117.557	847.161
341.460	22.323	1116.551	848.005
342.475	22.393	1115.595	847.538
343.489	22.378	1114.963	846.915
344.504	22.366	1114.383	846.341
345.519	22.397	1113.599	845.817
346.533	22.609	1112.664	846.054
347.548	22.528	1112.031	845.105
348.562	22.514	1111.043	844.212
349.577	22.236	1109.945	841.973
350.592	21.957	1109.122	839.940
351.606	21.904	1107.888	838.676
352.621	21.775	1106.890	837.233
353.635	21.776	1106.421	836.807
354.650	21.812	1105.897	836.509
355.665	21.877	1105.329	836.316
356.679	22.056	1104.432	836.417
357.694	22.094	1104.108	836.277
358.708	22.045	1104.092	835.956
359.723	22.120	1103.161	835.536
360.738	22.164	1102.466	835.143
361.752	22.155	1101.795	834.519
362.767	22.263	1100.774	834.183
363.781	22.064	1100.921	833.276
364.796	22.388	1099.951	834.006
365.810	22.471	1099.888	834.279
366.825	22.633	1099.381	834.586
367.840	22.750	1099.111	834.860
368.854	22.857	1098.688	834.972
369.869	22.799	1098.093	834.169
370.883	22.723	1096.831	832.779
371.898	22.568	1095.744	831.148
372.913	22.610	1095.245	830.896
373.927	22.623	1094.572	830.371
374.942	22.691	1094.689	830.708
375.956	22.760	1093.912	830.372
376.971	22.585	1093.173	828.913
377.986	22.727	1092.483	828.985
379.000	22.921	1092.407	829.762
380.015	22.921	1091.773	829.210
381.029	23.099	1090.830	829.253
382.044	23.007	1090.275	828.325
383.059	23.039	1089.577	827.872
384.073	22.828	1088.811	826.232
385.088	22.901	1087.643	825.615
386.102	22.935	1086.764	825.033
387.117	22.651	1085.944	823.012
388.132	22.604	1084.363	821.522
389.146	22.586	1083.525	820.727
390.161	22.447	1083.042	819.642
391.175	22.645	1082.035	819.728
392.190	22.654	1081.947	819.631
393.205	22.837	1081.369	819.973
394.219	22.813	1080.513	819.137
395.234	22.609	1079.551	817.394
396.248	22.581	1078.075	816.074
397.263	22.524	1077.081	814.984
398.278	22.426	1076.787	814.235
399.292	22.278	1075.771	812.710
400.307	22.330	1074.676	812.051
401.321	22.283	1074.534	811.654
402.336	22.359	1073.490	811.148
403.350	22.344	1072.487	810.249
404.365	22.440	1072.283	810.464
405.380	22.501	1071.753	810.270
406.394	22.602	1071.171	810.223
407.409	22.800	1070.085	810.241
408.423	22.852	1069.675	810.095
409.438	23.030	1069.004	810.333
410.453	23.014	1068.803	810.036
411.467	23.063	1068.148	809.691
412.482	23.271	1067.502	810.083
413.496	23.313	1066.827	809.689
414.511	23.261	1066.428	809.079
415.526	23.482	1065.936	809.645
416.540	23.523	1065.885	809.717
417.555	23.530	1064.808	808.863
418.569	23.220	1063.918	806.700
419.584	23.147	1064.017	806.372
420.599	23.179	1063.308	805.910
421.613	157.773	1405.092	1796.562
422.628	145.176	1454.862	1796.638
