DTS Sentinel unit serial number:	SN413079Multiplexer serial number:	ORYXHardware model number:	OX4-SRSoftware version number:	ORYX F/W v4.00 Oryx Data Collector v3.7.2.0data status	okinstallation	princeton_trtdifferential loss correction	single-endedforward channel	channel 2reverse channel	N/Adate	2019/09/17time	15:51:34forward acquisition time	60.00reverse acquisition time	0.00gamma	496.2192k internal	0.2300k external	0.2300temperature offset calibration	0.9983default loss term (dB/km)	0.3790temperature slope calibration	1.0000multiplexer offset coefficient	1.0000multiplexer slope coefficient	1.0000fibre end	0.00T internal ref (°C)	39.30T ext. ref 1 (°C)	0.38T ext. ref 2 (°C)	37.99length (m)	temperature (°C)	Stokes	anti-Stokes-747.200	207.794	-0.231	0.368
-746.185	-200.000	-0.016	0.335
-745.171	-200.000	0.228	-0.000
-744.156	-60.513	-0.101	-0.044
-743.142	800.000	-0.099	-0.304
-742.127	800.000	-0.110	0.323
-741.112	-200.000	0.041	0.236
-740.098	800.000	-0.032	0.134
-739.083	405.670	0.085	-0.183
-738.069	800.000	0.063	0.229
-737.054	800.000	-0.072	-0.301
-736.039	165.328	0.107	0.154
-735.025	-99.855	0.446	0.114
-734.010	-97.137	-0.183	-0.049
-732.996	800.000	-0.067	-0.281
-731.981	-200.000	0.009	-0.258
-730.966	43.729	0.210	0.196
-729.952	-47.843	0.230	-0.114
-728.937	-40.119	-0.079	-0.042
-727.923	0.137	-0.289	-0.210
-726.908	-78.200	-0.378	-0.133
-725.894	-86.614	0.234	0.073
-724.879	169.608	-0.101	-0.147
-723.864	-200.000	-0.004	0.120
-722.850	125.065	0.011	0.014
-721.835	39.122	-0.110	-0.100
-720.821	321.387	-0.140	0.272
-719.806	587.133	0.080	-0.200
-718.791	500.041	-0.127	-0.298
-717.777	-176.800	0.373	0.010
-716.762	228.299	0.160	-0.266
-715.748	-200.000	0.037	-0.258
-714.733	56.904	0.126	-0.125
-713.718	-49.950	-0.275	-0.133
-712.704	-104.168	-0.389	0.092
-711.689	514.501	-0.065	-0.154
-710.675	800.000	-0.056	-0.202
-709.660	20.045	0.118	0.097
-708.645	-120.250	-0.156	0.027
-707.631	-82.111	0.274	-0.091
-706.616	54.476	0.137	-0.135
-705.602	-175.963	0.607	-0.016
-704.587	-87.619	0.150	-0.046
-703.572	577.966	-0.008	-0.019
-702.558	-200.000	-0.030	0.175
-701.543	-104.524	0.047	-0.011
-700.529	-200.000	0.022	-0.257
-699.514	-101.242	-0.100	-0.025
-698.499	-67.782	0.292	0.116
-697.485	-200.000	0.001	0.242
-696.470	127.809	0.120	-0.156
-695.456	800.000	-0.050	0.177
-694.441	-50.741	0.151	-0.072
-693.426	64.661	-0.268	-0.275
-692.412	42.971	0.262	0.243
-691.397	215.668	-0.077	-0.124
-690.383	67.889	-0.098	0.102
-689.368	-200.000	0.039	0.288
-688.354	145.315	0.109	0.149
-687.339	800.000	0.053	0.191
-686.324	-119.593	-0.236	-0.042
-685.310	8.715	-0.097	-0.074
-684.295	179.142	0.090	0.134
-683.281	-100.574	0.310	-0.078
-682.266	-139.134	0.180	-0.020
-681.251	-143.918	0.286	0.027
-680.237	800.000	0.004	0.012
-679.222	-200.000	0.041	0.224
-678.208	-200.000	0.015	-0.085
-677.193	1.076	-0.176	0.129
-676.178	-169.049	-0.233	-0.009
-675.164	550.679	0.087	-0.211
-674.149	60.053	0.160	-0.161
-673.135	300.108	0.091	0.171
-672.120	195.149	-0.128	-0.198
-671.105	34.745	0.185	0.164
-670.091	350.244	-0.098	-0.198
-669.076	62.614	-0.211	0.215
-668.062	48.706	-0.102	0.098
-667.047	-200.000	0.008	-0.250
-666.032	152.775	-0.111	0.154
-665.018	75.950	0.065	-0.070
-664.003	800.000	0.068	-0.219
-662.989	5.949	0.161	-0.122
-661.974	800.000	0.071	0.294
-660.959	33.083	-0.163	0.143
-659.945	-71.228	0.087	-0.033
-658.930	-89.528	-0.147	-0.044
-657.916	38.892	0.105	-0.096
-656.901	-20.764	-0.128	0.080
-655.886	264.607	0.240	-0.425
-654.872	142.755	-0.113	-0.152
-653.857	100.602	-0.162	0.192
-652.843	-38.190	-0.227	-0.122
-651.828	-106.923	-0.153	0.034
-650.814	-200.000	-0.063	0.472
-649.799	800.000	-0.067	0.224
-648.784	800.000	-0.178	-0.526
-647.770	656.777	-0.143	-0.374
-646.755	-163.270	-0.104	0.005
-645.741	-120.847	0.194	0.033
-644.726	-42.996	-0.297	-0.153
-643.711	-200.000	-0.002	-0.073
-642.697	251.245	0.114	-0.198
-641.682	-87.851	-0.370	-0.113
-640.668	-200.000	-0.000	-0.223
-639.653	-173.409	0.247	0.008
-638.638	800.000	-0.043	0.146
-637.624	-62.219	0.341	0.144
-636.609	235.116	0.039	0.066
-635.595	800.000	0.026	0.081
-634.580	-200.000	-0.036	0.186
-633.565	-66.298	-0.154	-0.062
-632.551	-94.833	-0.197	0.054
-631.536	-39.621	-0.207	0.110
-630.522	474.485	0.020	-0.045
-629.507	58.020	-0.135	0.134
-628.492	161.152	-0.067	-0.095
-627.478	-200.000	0.045	0.266
-626.463	800.000	0.032	0.104
-625.449	-122.014	-0.209	-0.035
-624.434	-179.328	-0.170	-0.004
-623.419	-200.000	0.006	0.060
-622.405	-135.433	-0.067	-0.008
-621.390	-3.017	-0.184	-0.130
-620.376	-105.298	-0.273	-0.063
-619.361	-9.358	-0.207	-0.140
-618.346	347.717	-0.116	-0.232
-617.332	338.857	0.103	-0.203
-616.317	591.654	-0.061	0.154
-615.303	357.841	0.053	-0.107
-614.288	8.399	-0.224	-0.171
-613.273	263.594	0.094	-0.165
-612.259	-60.930	0.082	0.035
-611.244	439.952	-0.059	0.131
-610.230	-200.000	0.010	0.116
-609.215	-40.395	0.245	-0.129
-608.201	173.844	0.085	0.124
-607.186	-176.964	-0.346	-0.009
-606.171	90.063	-0.077	-0.087
-605.157	-104.631	0.253	0.059
-604.142	-128.783	0.212	-0.030
-603.128	298.963	0.058	0.109
-602.113	-200.000	0.048	0.347
-601.098	-200.000	0.041	-0.229
-600.084	-42.785	-0.194	0.100
-599.069	-200.000	0.021	-0.243
-598.055	-142.125	0.212	0.021
-597.040	800.000	0.060	-0.237
-596.025	63.486	0.171	0.174
-595.011	23.834	0.071	-0.059
-593.996	-200.000	0.024	0.267
-592.982	184.704	-0.057	-0.086
-591.967	47.071	0.282	0.266
-590.952	800.000	-0.027	-0.117
-589.938	-159.965	-0.305	0.017
-588.923	-141.264	0.195	-0.020
-587.909	-130.747	0.131	-0.018
-586.894	-106.854	-0.313	0.070
-585.879	-46.501	-0.348	-0.173
-584.865	-200.000	0.033	0.315
-583.850	21.339	0.086	0.071
-582.836	-40.649	0.065	-0.034
-581.821	-78.860	0.195	0.067
-580.806	297.013	0.047	-0.087
-579.792	-200.000	0.017	0.089
-578.777	-138.446	0.247	-0.028
-577.763	800.000	0.031	-0.106
-576.748	-16.842	0.136	-0.087
-575.733	-99.576	0.418	0.106
-574.719	507.281	-0.061	0.144
-573.704	-200.000	0.016	-0.110
-572.690	-200.000	0.051	-0.284
-571.675	306.330	0.041	-0.077
-570.661	183.781	-0.147	-0.220
-569.646	464.651	-0.072	0.162
-568.631	-60.678	0.010	-0.004
-567.617	5.124	0.073	0.054
-566.602	181.180	0.075	-0.112
-565.588	-200.000	-0.002	0.172
-564.573	-200.000	-0.015	0.294
-563.558	800.000	-0.109	-0.349
-562.544	-24.492	0.207	0.125
-561.529	800.000	-0.084	-0.243
-560.515	-200.000	0.048	-0.244
-559.500	137.897	0.059	-0.078
-558.485	-200.000	-0.047	-0.372
-557.471	697.182	0.055	-0.146
-556.456	-200.000	-0.012	-0.129
-555.442	65.351	0.070	0.071
-554.427	-200.000	-0.011	0.141
-553.412	-117.037	-0.367	0.068
-552.398	-12.576	-0.112	-0.074
-551.383	-200.000	-0.028	-0.505
-550.369	-152.333	0.356	0.026
-549.354	-145.741	-0.196	0.018
-548.339	657.868	0.059	-0.152
-547.325	-39.487	-0.064	-0.034
-546.310	800.000	0.048	0.137
-545.296	-39.076	0.151	-0.080
-544.281	289.294	-0.180	-0.331
-543.266	40.553	0.134	-0.123
-542.252	-82.956	0.200	0.065
-541.237	21.666	0.083	-0.069
-540.223	166.904	0.013	0.019
-539.208	-132.022	0.185	-0.024
-538.193	-58.582	0.191	0.084
-537.179	609.242	-0.069	-0.175
-536.164	-149.475	-0.176	0.014
-535.150	800.000	-0.030	0.098
-534.135	2.894	0.045	-0.033
-533.121	-200.000	0.028	0.178
-532.106	-8.818	0.163	-0.111
-531.091	92.738	-0.060	0.069
-530.077	-112.897	-0.157	-0.031
-529.062	-200.000	0.058	-0.361
-528.048	96.799	-0.149	-0.173
-527.033	-67.892	-0.228	0.090
-526.018	-147.970	-0.195	-0.016
-525.004	52.752	0.078	0.076
-523.989	-100.983	-0.242	-0.060
-522.975	-200.000	0.010	-0.091
-521.960	605.312	0.065	-0.163
-520.945	-52.580	-0.151	-0.070
-519.931	-119.581	0.266	-0.047
-518.916	-121.288	0.255	-0.043
-517.902	115.766	-0.115	-0.143
-516.887	425.684	0.080	0.174
-515.872	100.110	0.135	0.159
-514.858	-200.000	-0.023	0.273
-513.843	189.622	-0.156	0.237
-512.829	-114.023	-0.169	-0.033
-511.814	-200.000	-0.032	0.187
-510.799	321.854	0.118	-0.227
-509.785	209.150	-0.154	-0.244
-508.770	-100.799	0.321	0.080
-507.756	65.798	-0.225	0.230
-506.741	-200.000	-0.017	-0.131
-505.726	-60.778	0.259	0.111
-504.712	-200.000	0.003	0.135
-503.697	-134.453	-0.332	-0.041
-502.683	363.031	-0.085	-0.173
-501.668	489.562	-0.078	-0.181
-500.653	63.735	0.054	0.055
-499.639	66.299	0.359	-0.369
-498.624	-200.000	-0.003	0.352
-497.610	692.737	0.074	0.197
-496.595	199.902	0.279	-0.433
-495.581	-133.131	0.327	0.042
-494.566	28.861	0.111	-0.095
-493.551	394.998	0.070	-0.147
-492.537	237.205	0.153	0.256
-491.522	-53.493	0.289	0.134
-490.508	-200.000	-0.030	0.153
-489.493	595.811	-0.031	-0.077
-488.478	-135.715	-0.218	-0.026
-487.464	295.859	0.049	-0.091
-486.449	101.072	-0.122	-0.144
-485.435	-16.816	-0.066	0.042
-484.420	192.475	-0.227	0.346
-483.405	-56.719	0.116	-0.052
-482.391	800.000	0.045	0.159
-481.376	390.019	0.075	-0.156
-480.362	646.329	-0.084	-0.215
-479.347	-100.700	-0.526	-0.131
-478.332	704.198	0.061	0.164
-477.318	-33.223	0.217	-0.122
-476.303	-33.871	0.450	0.250
-475.289	-49.423	0.355	0.171
-474.274	-58.257	-0.172	0.076
-473.259	671.333	-0.100	0.263
-472.245	800.000	0.106	0.315
-471.230	-2.161	0.284	0.201
-470.216	-10.749	0.268	-0.179
-469.201	129.500	-0.160	0.207
-468.186	800.000	-0.062	0.193
-467.172	3.109	-0.202	0.148
-466.157	-127.718	-0.209	0.030
-465.143	800.000	0.054	0.192
-464.128	703.843	-0.056	0.150
-463.113	-200.000	-0.009	0.092
-462.099	-101.669	0.121	0.030
-461.084	-200.000	-0.035	-0.232
-460.070	800.000	0.112	0.327
-459.055	-102.255	0.206	0.050
-458.040	120.988	-0.233	0.292
-457.026	-56.078	-0.102	0.046
-456.011	-63.207	0.072	-0.030
-454.997	800.000	-0.012	0.052
-453.982	108.291	0.068	-0.082
-452.968	366.439	-0.044	-0.089
-451.953	-30.016	-0.206	0.118
-450.938	-7.914	-0.248	-0.169
-449.924	460.209	-0.135	-0.303
-448.909	-136.730	-0.221	0.026
-447.895	800.000	0.030	-0.125
-446.880	800.000	-0.094	0.324
-445.865	-200.000	0.025	0.342
-444.851	800.000	0.039	-0.130
-443.836	26.264	0.175	0.148
-442.822	-36.724	0.197	-0.107
-441.807	-200.000	0.002	-0.126
-440.792	-27.924	-0.252	-0.147
-439.778	-117.459	-0.007	-0.001
-438.763	-18.114	-0.130	-0.082
-437.749	-61.582	0.144	0.061
-436.734	-200.000	-0.031	0.195
-435.719	423.425	-0.045	0.098
-434.705	-199.415	0.244	-0.001
-433.690	-70.131	0.157	0.060
-432.676	97.365	-0.059	-0.068
-431.661	-103.564	-0.271	-0.064
-430.646	382.605	0.085	-0.176
-429.632	800.000	-0.084	0.347
-428.617	26.899	0.135	-0.114
-427.603	-128.809	-0.151	0.021
-426.588	-200.000	0.031	0.160
-425.573	107.826	-0.184	0.220
-424.559	113.415	0.108	-0.133
-423.544	800.000	0.056	0.174
-422.530	-144.634	-0.368	-0.034
-421.515	139.504	0.224	-0.297
-420.500	800.000	-0.088	0.293
-419.486	-75.878	-0.108	0.039
-418.471	295.479	0.088	-0.163
-417.457	-76.853	0.116	-0.041
-416.442	-200.000	-0.017	-0.090
-415.428	-43.413	-0.108	0.055
-414.413	-200.000	-0.052	-0.474
-413.398	-200.000	-0.001	0.239
-412.384	-151.660	0.114	0.008
-411.369	-5.325	-0.214	0.148
-410.355	314.996	0.182	-0.346
-409.340	-140.703	0.217	0.023
-408.325	7.553	0.282	0.212
-407.311	230.494	0.172	-0.283
-406.296	-53.131	-0.136	-0.063
-405.282	-51.531	-0.210	-0.099
-404.267	-178.736	0.236	-0.005
-403.252	-36.438	-0.211	0.114
-402.238	239.627	-0.143	0.240
-401.223	-169.670	-0.253	0.009
-400.209	255.295	-0.134	-0.231
-399.194	-106.670	0.234	0.052
-398.179	305.135	-0.103	-0.193
-397.165	-156.771	0.176	-0.011
-396.150	-200.000	-0.000	-0.264
-395.136	-135.699	-0.184	-0.022
-394.121	-113.234	0.017	0.003
-393.106	51.379	0.337	-0.322
-392.092	217.286	0.125	0.200
-391.077	-69.005	0.235	-0.091
-390.063	-116.097	-0.244	-0.046
-389.048	-200.000	0.032	-0.332
-388.033	-14.344	-0.171	0.111
-387.019	473.647	-0.061	0.139
-386.004	-200.000	-0.020	0.226
-384.990	800.000	0.055	-0.221
-383.975	470.064	0.066	-0.148
-382.960	84.072	0.215	0.237
-381.946	16.441	0.280	-0.223
-380.931	800.000	0.045	0.179
-379.917	158.116	0.123	0.172
-378.902	647.735	-0.037	-0.094
-377.888	177.352	-0.099	-0.146
-376.873	-186.658	-0.263	0.004
-375.858	255.723	-0.163	0.281
-374.844	453.618	-0.127	-0.284
-373.829	39.137	0.218	-0.196
-372.815	89.720	0.061	0.069
-371.800	145.378	0.031	0.041
-370.785	121.271	0.229	0.287
-369.771	800.000	0.057	-0.168
-368.756	182.138	0.171	-0.254
-367.742	34.586	-0.185	0.163
-366.727	341.224	0.170	0.333
-365.712	-5.281	-0.351	0.242
-364.698	-100.539	0.163	-0.040
-363.683	800.000	-0.078	0.315
-362.669	156.083	-0.185	0.257
-361.654	-200.000	0.028	0.140
-360.639	-151.628	0.231	-0.017
-359.625	54.890	0.062	0.060
-358.610	-200.000	-0.015	0.215
-357.596	-43.065	-0.157	-0.080
-356.581	184.597	0.270	-0.403
-355.566	5.087	0.039	-0.029
-354.552	-97.106	0.114	0.030
-353.537	-200.000	0.016	0.114
-352.523	88.301	0.060	0.067
-351.508	-33.074	-0.380	0.212
-350.493	-11.942	-0.099	-0.065
-349.479	-12.718	0.115	-0.075
-348.464	-139.523	0.317	0.034
-347.450	261.174	-0.027	-0.046
-346.435	-122.043	-0.239	-0.039
-345.420	-200.000	-0.022	0.209
-344.406	67.485	0.102	0.105
-343.391	-54.246	-0.169	-0.077
-342.377	126.953	0.200	-0.254
-341.362	131.933	0.119	-0.154
-340.348	-38.843	0.343	0.182
-339.333	800.000	0.098	0.276
-338.318	156.072	0.174	0.241
-337.304	44.973	-0.100	-0.092
-336.289	323.394	0.150	0.288
-335.275	-200.000	0.002	-0.051
-334.260	203.776	0.077	-0.120
-333.245	-74.977	-0.090	-0.032
-332.231	-138.164	-0.326	0.036
-331.216	800.000	0.016	0.063
-330.202	40.242	-0.442	-0.399
-329.187	-148.923	-0.198	0.016
-328.172	-200.000	-0.012	-0.100
-327.158	73.666	0.195	-0.205
-326.143	-124.642	-0.429	-0.067
-325.129	16.657	0.150	0.119
-324.114	-200.000	-0.029	0.188
-323.099	58.099	0.272	-0.268
-322.085	-66.894	-0.273	0.108
-321.070	-91.511	-0.329	0.094
-320.056	156.955	-0.262	-0.363
-319.041	9.487	-0.117	0.089
-318.026	270.102	-0.063	-0.111
-317.012	50.071	-0.321	0.304
-315.997	119.946	0.197	0.245
-314.983	-32.860	-0.272	0.151
-313.968	7.234	-0.103	0.077
-312.953	-75.063	-0.302	0.108
-311.939	-3.130	-0.172	0.121
-310.924	347.265	0.121	0.238
-309.910	-200.000	0.001	-0.119
-308.895	-93.024	-0.153	0.043
-307.880	-200.000	-0.020	0.220
-306.866	-105.785	0.488	-0.111
-305.851	751.219	-0.124	-0.334
-304.837	366.303	0.185	0.374
-303.822	286.095	-0.059	0.106
-302.807	450.937	-0.214	0.473
-301.793	756.378	0.092	-0.250
-300.778	800.000	-0.063	0.186
-299.764	-200.000	-0.012	0.107
-298.749	-41.441	-0.051	-0.026
-297.735	800.000	-0.130	-0.509
-296.720	294.399	0.032	-0.058
-295.705	800.000	0.043	0.178
-294.691	-112.170	0.366	0.074
-293.676	-51.055	0.212	-0.100
-292.662	-200.000	0.020	0.108
-291.647	11.705	-0.253	0.195
-290.632	64.691	0.102	0.104
-289.618	-200.000	-0.014	0.198
-288.603	800.000	-0.015	-0.058
-287.589	-39.521	0.231	-0.121
-286.574	138.758	0.145	-0.191
-285.559	-200.000	-0.009	-0.132
-284.545	-119.923	0.340	-0.059
-283.530	65.680	0.133	0.135
-282.516	-8.532	0.104	-0.070
-281.501	188.766	0.060	-0.090
-280.486	418.710	-0.055	0.118
-279.472	-101.137	-0.374	-0.092
-278.457	305.212	0.062	-0.115
-277.443	-178.021	-0.456	0.011
-276.428	-200.000	0.066	-0.334
-275.413	-200.000	0.021	-0.122
-274.399	-163.779	0.178	0.008
-273.384	-6.254	-0.104	-0.071
-272.370	-109.182	0.092	-0.020
-271.355	-75.357	-0.156	-0.056
-270.340	-46.633	0.043	-0.021
-269.326	800.000	0.019	-0.055
-268.311	-58.459	-0.116	-0.051
-267.297	-108.198	-0.183	0.040
-266.282	-92.355	0.155	0.044
-265.267	220.723	-0.083	-0.133
-264.253	-200.000	-0.007	0.199
-263.238	-6.656	0.203	-0.138
-262.224	37.379	-0.113	-0.100
-261.209	-44.031	-0.152	0.077
-260.195	-98.319	0.248	-0.064
-259.180	-153.823	-0.166	-0.011
-258.165	6.602	-0.155	-0.115
-257.151	522.804	-0.053	-0.125
-256.136	2.907	-0.139	-0.101
-255.122	-84.145	0.139	-0.044
-254.107	136.193	-0.204	-0.266
-253.092	800.000	-0.104	-0.451
-252.078	431.794	-0.052	-0.113
-251.063	-1.292	0.478	0.338
-250.049	74.382	-0.136	-0.143
-249.034	22.358	-0.261	0.214
-248.019	-200.000	0.021	-0.233
-247.005	300.810	-0.121	-0.223
-245.990	-112.696	0.232	0.046
-244.976	9.859	0.129	-0.098
-243.961	-13.254	0.250	0.163
-242.946	4.451	-0.107	0.078
-241.932	-51.854	-0.201	0.094
-240.917	58.043	0.179	0.175
-239.903	-200.000	-0.045	-0.279
-238.888	-200.000	-0.023	-0.191
-237.873	-117.682	-0.277	0.050
-236.859	-44.727	-0.152	-0.076
-235.844	211.112	0.139	0.218
-234.830	-96.414	0.123	0.033
-233.815	-171.433	0.562	0.019
-232.800	-11.905	0.225	0.148
-231.786	-200.000	-0.059	-0.496
-230.771	4.058	-0.501	-0.367
-229.757	34.277	-0.209	0.182
-228.742	-48.881	0.226	-0.109
-227.727	800.000	0.103	0.314
-226.713	9.045	-0.236	0.178
-225.698	-10.201	-0.140	0.093
-224.684	105.409	0.075	0.089
-223.669	214.566	0.274	0.434
-222.655	60.349	0.204	-0.202
-221.640	-14.457	-0.136	-0.088
-220.625	357.558	0.055	0.110
-219.611	-75.736	0.098	0.035
-218.596	108.657	0.248	-0.296
-217.582	416.150	-0.072	-0.154
-216.567	393.119	0.061	0.128
-215.552	223.496	0.283	0.456
-214.538	-200.000	0.127	-0.000
-213.523	13.500	-0.099	-0.077
-212.509	-30.338	0.227	-0.129
-211.494	214.761	0.129	0.205
-210.479	14.095	-0.037	0.029
-209.465	138.500	-0.182	-0.239
-208.450	-87.468	0.079	0.024
-207.436	-200.000	0.008	-0.051
-206.421	-170.561	0.149	-0.005
-205.406	-200.000	-0.006	0.038
-204.392	-96.043	0.118	0.031
-203.377	-200.000	0.046	0.207
-202.363	50.380	-0.152	-0.144
-201.348	-94.857	-0.247	-0.067
-200.333	-145.502	0.096	0.009
-199.319	-200.000	0.002	0.101
-198.304	248.880	-0.048	-0.081
-197.290	-114.850	-0.064	-0.012
-196.275	-66.429	-0.216	0.086
-195.260	3.263	-0.102	0.074
-194.246	800.000	-0.079	0.240
-193.231	-90.158	0.110	-0.032
-192.217	-33.371	-0.085	0.047
-191.202	-104.937	-0.340	0.078
-190.187	140.257	-0.160	0.211
-189.173	60.016	0.197	-0.194
-188.158	-135.107	-0.091	-0.011
-187.144	-28.816	-0.147	0.084
-186.129	100.080	0.329	-0.381
-185.114	-144.446	-0.182	-0.017
-184.100	166.493	0.110	0.156
-183.085	7.531	0.250	0.187
-182.071	69.946	0.168	0.173
-181.056	-200.000	0.019	0.170
-180.042	684.783	0.024	0.062
-179.027	800.000	0.044	0.190
-178.012	149.816	0.078	-0.106
-176.998	-200.000	0.188	-0.000
-175.983	43.535	0.152	-0.139
-174.969	10.615	-0.134	0.102
-173.954	-147.771	-0.092	-0.008
-172.939	800.000	-0.052	-0.205
-171.925	45.735	0.023	-0.021
-170.910	-171.026	-0.283	-0.010
-169.896	125.437	-0.063	-0.080
-168.881	-53.355	0.169	-0.077
-167.866	-151.514	0.123	0.009
-166.852	9.799	0.095	0.072
-165.837	-81.342	0.320	-0.105
-164.823	20.053	-0.139	0.112
-163.808	-9.068	-0.246	-0.164
-162.793	800.000	0.043	0.175
-161.779	-200.000	0.013	0.203
-160.764	-165.041	-0.162	0.007
-159.750	242.221	-0.101	0.169
-158.735	-19.718	-0.117	-0.072
-157.720	-200.000	0.005	-0.320
-156.706	11.708	0.104	0.080
-155.691	-169.738	-0.091	0.003
-154.677	-200.000	0.038	0.237
-153.662	-5.291	-0.131	0.090
-152.647	684.425	-0.064	-0.168
-151.633	-200.000	-0.025	0.251
-150.618	671.237	0.172	-0.444
-149.604	-200.000	-0.031	0.344
-148.589	-76.143	-0.192	-0.068
-147.574	-70.605	-0.321	-0.121
-146.560	-111.160	-0.206	0.042
-145.545	-95.611	0.111	-0.030
-144.531	146.034	0.117	0.156
-143.516	267.452	0.078	0.135
-142.502	-34.671	0.266	0.145
-141.487	-200.000	0.019	0.110
-140.472	506.963	0.059	0.135
-139.458	-15.995	-0.311	0.197
-138.443	-59.037	0.235	-0.101
-137.429	-138.150	-0.187	-0.021
-136.414	-124.045	-0.279	-0.044
-135.399	-121.278	0.191	0.032
-134.385	-121.918	-0.154	0.025
-133.370	336.165	0.057	-0.110
-132.356	-200.000	0.009	0.313
-131.341	66.869	-0.124	0.126
-130.326	91.929	-0.238	0.267
-129.312	-18.541	-0.123	0.076
-128.297	-186.394	-0.159	0.002
-127.283	261.423	-0.242	0.417
-126.268	-26.723	0.052	0.030
-125.253	743.787	-0.017	0.047
-124.239	-143.494	-0.527	0.050
-123.224	-24.296	-0.158	0.094
-122.210	-86.764	0.198	-0.060
-121.195	-19.326	-0.423	0.261
-120.180	-133.153	0.052	0.007
-119.166	-49.735	0.131	-0.062
-118.151	-82.468	0.263	0.085
-117.137	-126.717	0.348	0.051
-116.122	54.884	0.069	-0.066
-115.107	-75.069	0.376	-0.134
-114.093	-200.000	0.005	-0.253
-113.078	130.217	0.024	-0.030
-112.064	50.408	0.136	-0.128
-111.049	-118.871	0.092	0.016
-110.034	32.816	-0.213	0.183
-109.020	21.044	0.238	0.192
-108.005	364.795	0.182	0.364
-106.991	23.263	-0.214	-0.175
-105.976	-128.963	0.204	0.029
-104.962	-200.000	-0.020	0.173
-103.947	-126.362	-0.123	0.018
-102.932	-148.456	0.256	-0.021
-101.918	-142.920	0.117	0.011
-100.903	111.883	0.100	0.121
-99.889	-200.000	-0.025	-0.238
-98.874	-200.000	-0.079	0.395
-97.859	-200.000	0.001	-0.140
-96.845	-91.062	-0.066	0.019
-95.830	-200.000	-0.002	0.047
-94.816	37.154	-0.340	0.300
-93.801	-29.121	-0.095	0.054
-92.786	-200.000	0.027	0.143
-91.772	-200.000	0.016	-0.100
-90.757	-200.000	0.021	-0.101
-89.743	-200.000	0.045	-0.380
-88.728	-109.522	-0.368	0.077
-87.713	800.000	-0.029	0.110
-86.699	65.442	-0.117	0.118
-85.684	-99.125	0.080	0.020
-84.670	-114.285	-0.343	-0.066
-83.655	101.273	0.055	0.064
-82.640	8.621	-0.218	0.163
-81.626	-18.222	-0.284	-0.177
-80.611	355.397	-0.045	-0.090
-79.597	800.000	-0.102	0.391
-78.582	-19.994	0.230	-0.141
-77.567	9.599	-0.238	0.179
-76.553	69.890	0.133	0.136
-75.538	-200.000	-0.025	0.132
-74.524	-200.000	0.017	0.115
-73.509	104.304	0.157	-0.184
-72.494	-200.000	0.006	-0.202
-71.480	471.306	0.187	-0.418
-70.465	203.582	-0.145	0.223
-69.451	-93.683	-0.164	0.045
-68.436	-97.414	-0.015	0.004
-67.422	-200.000	0.013	0.229
-66.407	-93.440	0.159	0.044
-65.392	-84.454	-0.115	-0.036
-64.378	149.339	0.315	-0.423
-63.363	-200.000	0.048	0.448
-62.349	-102.401	-0.153	0.037
-61.334	-1.892	-0.788	-0.550
-60.319	-51.410	0.553	0.257
-59.305	800.000	-0.280	-1.008
-58.290	-200.000	0.165	0.926
-57.276	800.000	0.548	1.721
-56.261	-200.000	77.290	517.379
-55.246	488.100	1365.384	3095.848
-54.232	140.530	2622.611	3438.657
-53.217	107.412	2381.839	2813.292
-52.203	48.427	1987.211	1847.822
-51.188	42.580	1769.796	1599.233
-50.173	39.820	1723.129	1535.567
-49.159	53.988	1758.856	1678.746
-48.144	58.690	1777.581	1733.409
-47.130	42.370	1740.965	1571.283
-46.115	39.349	1727.053	1535.149
-45.100	39.225	1721.869	1529.513
-44.086	39.208	1718.965	1526.742
-43.071	39.227	1716.628	1524.755
-42.057	39.183	1714.068	1522.078
-41.042	39.193	1711.982	1520.247
-40.027	39.153	1710.181	1518.273
-39.013	39.163	1708.347	1516.660
-37.998	39.110	1706.609	1514.652
-36.984	39.193	1704.980	1513.788
-35.969	39.298	1703.647	1513.352
-34.954	39.430	1701.702	1512.577
-33.940	39.363	1699.821	1510.328
-32.925	39.343	1697.533	1508.081
-31.911	39.281	1695.802	1506.012
-30.896	39.303	1694.007	1504.527
-29.881	39.266	1692.156	1502.537
-28.867	39.334	1691.063	1502.029
-27.852	39.262	1689.665	1500.174
-26.838	39.291	1687.958	1498.824
-25.823	39.336	1686.569	1497.873
-24.809	39.295	1685.533	1496.583
-23.794	39.374	1683.350	1495.184
-22.779	39.369	1682.065	1493.947
-21.765	39.396	1679.982	1492.238
-20.750	39.312	1678.614	1490.327
-19.736	39.347	1677.347	1489.412
-18.721	39.417	1675.964	1488.656
-17.706	39.297	1674.452	1486.342
-16.692	39.321	1672.638	1484.856
-15.677	39.256	1671.659	1483.441
-14.663	39.367	1670.026	1482.762
-13.648	39.327	1668.546	1481.091
-12.633	39.314	1666.671	1479.268
-11.619	39.372	1664.980	1478.148
-10.604	39.218	1663.668	1475.766
-9.590	39.332	1661.900	1474.996
-8.575	39.250	1661.208	1473.711
-7.560	39.264	1659.856	1472.553
-6.546	39.277	1658.858	1471.709
-5.531	39.264	1657.256	1470.135
-4.517	39.350	1655.576	1469.225
-3.502	39.282	1654.946	1468.101
-2.487	39.345	1653.450	1467.184
-1.473	39.593	1643.450	1460.089
-0.458	38.028	1624.735	1431.936
0.556	32.619	1623.437	1395.416
1.571	28.956	1645.727	1386.890
2.586	27.606	1658.097	1386.925
3.600	24.183	1603.623	1316.006
4.615	13.339	1483.207	1142.575
5.629	2.842	1408.141	1015.503
6.644	0.566	1397.201	992.573
7.659	0.450	1395.903	990.797
8.673	0.293	1395.061	989.084
9.688	0.212	1393.293	987.212
10.702	0.106	1390.181	984.224
11.717	4.109	1397.775	1015.801
12.731	13.537	1413.431	1089.354
13.746	18.490	1418.332	1125.640
14.761	17.503	1415.870	1117.113
15.775	16.388	1413.103	1107.526
16.790	15.337	1410.654	1098.630
17.804	14.601	1407.820	1091.512
18.819	14.177	1406.934	1087.956
19.834	13.907	1404.919	1084.543
20.848	13.683	1403.618	1081.976
21.863	13.400	1402.448	1079.138
22.877	13.259	1400.857	1076.896
23.892	13.179	1400.486	1075.993
24.907	13.188	1399.399	1075.127
25.921	13.227	1398.262	1074.408
26.936	13.255	1397.581	1073.974
27.950	13.271	1396.613	1073.240
28.965	13.400	1395.492	1073.118
29.980	13.376	1394.959	1072.459
30.994	13.395	1393.878	1071.654
32.009	13.454	1392.686	1071.026
33.023	13.444	1391.589	1070.021
34.038	13.406	1390.818	1069.090
35.053	13.345	1389.423	1067.529
36.067	13.323	1388.355	1066.472
37.082	13.383	1386.627	1065.438
38.096	13.379	1386.170	1064.966
39.111	13.375	1385.776	1064.540
40.126	13.347	1385.025	1063.690
41.140	13.267	1383.912	1062.230
42.155	13.193	1383.582	1061.408
43.169	13.155	1383.326	1060.872
44.184	13.196	1382.966	1060.766
45.199	13.217	1382.443	1060.404
46.213	13.195	1382.189	1059.975
47.228	13.317	1381.015	1059.760
48.242	13.286	1379.855	1058.581
49.257	13.298	1378.187	1057.285
50.271	13.326	1376.443	1056.028
51.286	13.362	1375.323	1055.308
52.301	13.353	1373.976	1054.125
53.315	13.218	1373.037	1052.448
54.330	13.234	1372.228	1051.838
55.344	13.292	1370.373	1050.692
56.359	13.222	1369.824	1049.735
57.374	13.222	1368.859	1048.901
58.388	13.231	1368.137	1048.315
59.403	13.135	1367.683	1047.262
60.417	13.133	1367.005	1046.636
61.432	13.165	1365.731	1045.773
62.447	13.123	1364.630	1044.570
63.461	13.077	1362.978	1042.927
64.476	13.070	1362.833	1042.680
65.490	13.051	1361.240	1041.247
66.505	13.031	1359.792	1039.921
67.520	13.032	1358.220	1038.633
68.534	13.174	1357.239	1038.683
69.549	13.140	1355.761	1037.246
70.563	13.094	1355.099	1036.358
71.578	13.044	1353.884	1035.027
72.593	13.043	1353.013	1034.262
73.607	13.124	1351.888	1033.820
74.622	13.073	1351.163	1032.852
75.636	13.053	1350.839	1032.387
76.651	13.091	1349.515	1031.526
77.666	13.096	1349.063	1031.120
78.680	12.978	1348.717	1030.023
79.695	13.025	1347.786	1029.517
80.709	13.143	1346.846	1029.444
81.724	13.175	1345.756	1028.717
82.739	13.225	1344.616	1028.069
83.753	13.161	1343.743	1026.908
84.768	13.269	1343.063	1026.968
85.782	13.387	1341.670	1026.549
86.797	13.338	1340.056	1024.918
87.812	13.241	1339.172	1023.551
88.826	13.243	1337.607	1022.275
89.841	13.312	1336.507	1021.773
90.855	13.317	1335.919	1021.259
91.870	13.247	1335.017	1020.049
92.884	13.391	1333.747	1019.873
93.899	13.425	1333.101	1019.501
94.914	13.375	1332.715	1018.806
95.928	13.378	1331.462	1017.781
96.943	13.457	1330.214	1017.219
97.957	13.401	1329.611	1016.328
98.972	13.385	1328.469	1015.264
99.987	13.258	1328.153	1014.151
101.001	13.369	1326.666	1013.606
102.016	13.322	1325.935	1012.674
103.030	13.317	1325.267	1012.044
104.045	13.365	1323.846	1011.163
105.060	13.325	1322.973	1010.162
106.074	13.150	1321.706	1008.036
107.089	13.229	1319.810	1006.979
108.103	13.138	1318.932	1005.669
109.118	13.130	1318.197	1004.969
110.133	13.098	1316.458	1003.362
111.147	13.229	1314.773	1002.781
112.162	13.165	1313.905	1001.643
113.176	13.237	1312.996	1001.298
114.191	13.280	1311.625	1000.423
115.206	13.248	1310.415	999.220
116.220	13.229	1308.931	997.884
117.235	13.189	1307.726	996.639
118.249	13.217	1306.774	995.991
119.264	13.269	1305.481	995.235
120.279	13.238	1304.834	994.466
121.293	13.155	1303.700	993.013
122.308	13.174	1302.569	992.181
123.322	13.117	1302.066	991.362
124.337	13.129	1300.669	990.286
125.352	13.243	1299.425	989.932
126.366	13.204	1298.209	988.685
127.381	13.141	1297.582	987.742
128.395	13.144	1296.348	986.734
129.410	13.108	1295.185	985.550
130.424	13.192	1294.511	985.449
131.439	13.300	1293.470	985.210
132.454	13.303	1292.336	984.282
133.468	13.188	1291.394	982.793
134.483	13.259	1290.683	982.587
135.497	13.177	1289.729	981.285
136.512	13.278	1288.349	980.746
137.527	13.282	1287.078	979.716
138.541	13.367	1285.448	978.891
139.556	13.393	1283.639	977.584
140.570	13.455	1282.644	977.105
141.585	13.403	1281.771	976.046
142.600	13.400	1280.410	974.907
143.614	13.521	1279.508	974.843
144.629	13.473	1278.413	973.641
145.643	13.407	1277.079	972.155
146.658	13.365	1275.934	970.946
147.673	13.315	1274.511	969.488
148.687	13.380	1273.261	968.831
149.702	13.348	1272.064	967.644
150.716	13.285	1270.408	965.932
151.731	13.281	1269.915	965.450
152.746	13.281	1268.166	964.037
153.760	13.335	1267.205	963.536
154.775	13.371	1265.924	962.681
155.789	13.414	1264.878	962.050
156.804	13.488	1263.388	961.263
157.819	13.505	1262.440	960.558
158.833	13.524	1261.662	959.990
159.848	13.468	1260.999	959.076
160.862	13.651	1259.435	958.860
161.877	13.501	1258.692	957.340
162.892	13.415	1257.822	956.101
163.906	13.452	1256.762	955.421
164.921	13.433	1255.886	954.561
165.935	13.426	1255.086	953.827
166.950	13.398	1254.607	953.221
167.964	13.531	1253.572	953.112
168.979	13.533	1252.458	952.197
169.994	13.495	1251.977	951.527
171.008	13.618	1251.106	951.485
172.023	13.574	1250.234	950.487
173.037	13.664	1249.237	950.159
174.052	13.614	1248.492	949.225
175.067	13.635	1247.150	948.241
176.081	13.555	1246.244	947.010
177.096	13.500	1245.432	945.994
178.110	13.644	1244.135	945.746
179.125	13.682	1242.701	944.788
180.140	13.624	1241.882	943.753
181.154	13.602	1240.532	942.521
182.169	13.751	1239.068	942.167
183.183	13.719	1238.071	941.148
184.198	13.764	1236.901	940.427
185.213	13.811	1235.562	939.594
186.227	13.844	1234.599	938.964
187.242	13.771	1233.628	937.729
188.256	13.721	1233.061	936.934
189.271	13.837	1231.859	936.590
190.286	13.696	1230.899	934.986
191.300	13.613	1230.412	934.062
192.315	13.657	1229.032	933.183
193.329	13.646	1228.363	932.531
194.344	13.669	1228.037	932.326
195.359	13.713	1227.290	931.925
196.373	13.710	1226.949	931.571
197.388	13.860	1226.217	931.774
198.402	13.970	1225.284	931.600
199.417	13.934	1224.810	930.951
200.432	14.018	1223.896	930.644
201.446	14.010	1223.338	930.093
202.461	14.141	1221.943	929.682
203.475	13.991	1221.425	928.371
204.490	14.058	1219.799	927.426
205.504	14.039	1218.440	926.206
206.519	14.029	1217.488	925.341
207.534	14.008	1216.468	924.371
208.548	13.956	1215.683	923.403
209.563	13.917	1214.853	922.475
210.577	14.032	1213.684	922.140
211.592	14.008	1212.672	921.159
212.607	14.138	1211.873	921.192
213.621	14.160	1210.972	920.545
214.636	14.136	1210.424	919.913
215.650	14.173	1208.793	918.796
216.665	14.150	1208.265	918.189
217.680	14.181	1207.478	917.677
218.694	14.189	1206.655	917.017
219.709	14.317	1205.850	917.030
220.723	14.309	1204.872	916.161
221.738	14.183	1204.392	915.022
222.753	14.171	1203.914	914.514
223.767	14.290	1202.490	914.001
224.782	14.291	1202.091	913.622
225.796	14.395	1201.434	913.612
226.811	14.476	1200.539	913.298
227.826	14.324	1200.106	912.053
228.840	14.316	1199.351	911.353
229.855	14.418	1198.379	911.096
230.869	14.380	1197.690	910.282
231.884	14.268	1197.014	909.077
232.899	14.243	1196.344	908.352
233.913	14.367	1195.065	907.976
234.928	14.360	1194.274	907.253
235.942	14.316	1193.569	906.399
236.957	14.158	1193.024	905.048
237.972	14.208	1192.744	905.024
238.986	14.214	1191.877	904.321
240.001	14.297	1191.105	904.106
241.015	14.309	1190.528	903.652
242.030	14.337	1189.076	902.619
243.045	14.470	1188.293	902.668
244.059	14.467	1187.811	902.205
245.074	14.488	1186.749	901.432
246.088	14.536	1185.831	900.912
247.103	14.592	1184.881	900.417
248.117	14.605	1184.215	899.899
249.132	14.668	1183.958	899.963
250.147	14.772	1183.058	899.760
251.161	14.720	1182.381	898.888
252.176	14.688	1181.836	898.220
253.190	14.895	1180.602	898.317
254.205	14.753	1180.289	897.237
255.220	14.818	1179.608	896.985
256.234	14.847	1179.182	896.739
257.249	14.852	1178.422	896.107
258.263	14.759	1178.109	895.290
259.278	14.881	1177.043	895.058
260.293	14.890	1176.586	894.680
261.307	14.975	1175.510	894.238
262.322	14.948	1175.005	893.628
263.336	14.999	1174.554	893.476
264.351	15.031	1173.708	892.928
265.366	15.113	1172.722	892.532
266.380	14.985	1172.397	891.528
267.395	14.916	1171.702	890.550
268.409	14.959	1170.745	889.974
269.424	15.072	1170.033	889.953
270.439	15.014	1169.308	889.018
271.453	14.907	1168.767	887.956
272.468	14.927	1167.679	887.158
273.482	15.006	1166.883	886.892
274.497	14.952	1166.735	886.418
275.512	14.973	1166.238	886.071
276.526	14.997	1165.206	885.335
277.541	14.958	1164.311	884.371
278.555	15.037	1163.564	884.147
279.570	15.102	1162.663	883.725
280.585	15.195	1161.558	883.296
281.599	15.184	1160.797	882.584
282.614	15.180	1159.777	881.709
283.628	15.314	1158.129	881.078
284.643	15.189	1157.615	879.954
285.657	15.212	1157.134	879.631
286.672	15.163	1156.246	878.623
287.687	15.147	1155.551	877.932
288.701	15.195	1154.467	877.284
289.716	15.291	1153.814	877.213
290.730	15.203	1153.406	876.362
291.745	15.249	1152.493	875.834
292.760	15.287	1151.498	875.198
293.774	15.271	1150.970	874.634
294.789	15.314	1150.347	874.310
295.803	15.394	1149.750	874.192
296.818	15.428	1148.747	873.529
297.833	15.320	1148.071	872.377
298.847	15.394	1147.497	872.249
299.862	15.437	1146.766	871.837
300.876	15.354	1146.132	870.849
301.891	15.434	1145.725	870.881
302.906	15.518	1144.616	870.392
303.920	15.557	1143.972	870.028
304.935	15.636	1143.229	869.794
305.949	15.649	1142.193	868.997
306.964	15.730	1141.683	868.951
307.979	15.550	1141.138	867.532
308.993	15.589	1140.427	867.114
310.008	15.610	1139.602	866.516
311.022	15.676	1138.515	865.953
312.037	15.747	1137.668	865.599
313.052	15.678	1137.132	864.761
314.066	15.650	1135.978	863.662
315.081	15.649	1135.466	863.192
316.095	15.497	1134.556	861.642
317.110	15.572	1133.802	861.378
318.125	15.661	1132.710	860.928
319.139	15.584	1132.494	860.297
320.154	15.619	1131.261	859.458
321.168	15.633	1130.954	859.223
322.183	15.661	1130.489	858.935
323.197	15.510	1130.022	857.732
324.212	15.751	1129.026	858.133
325.227	15.733	1128.521	857.579
326.241	15.762	1127.839	857.137
327.256	15.676	1127.104	856.064
328.270	15.656	1126.285	855.261
329.285	15.619	1125.233	854.198
330.300	15.690	1124.405	853.857
331.314	15.700	1123.059	852.812
332.329	15.751	1122.450	852.528
333.343	15.840	1121.454	852.149
334.358	15.780	1120.374	850.950
335.373	15.860	1119.563	850.662
336.387	15.901	1119.077	850.424
337.402	15.966	1118.308	850.095
338.416	15.982	1117.549	849.521
339.431	15.957	1116.751	848.716
340.446	15.984	1116.383	848.494
341.460	16.041	1115.769	848.242
342.475	16.090	1114.647	847.559
343.489	16.070	1113.784	846.727
344.504	16.113	1112.871	846.174
345.519	16.124	1111.790	845.332
346.533	16.215	1111.157	845.230
347.548	16.187	1110.310	844.375
348.562	16.288	1109.229	843.981
349.577	16.094	1109.029	842.783
350.592	16.125	1108.212	842.245
351.606	16.054	1107.507	841.281
352.621	16.083	1106.701	840.738
353.635	15.997	1106.005	839.707
354.650	16.295	1104.962	840.321
355.665	16.234	1104.612	839.679
356.679	16.194	1104.025	838.958
357.694	16.227	1103.230	838.446
358.708	16.231	1102.859	838.107
359.723	16.189	1102.102	837.253
360.738	16.201	1101.455	836.747
361.752	16.202	1101.135	836.433
362.767	16.190	1100.382	835.725
363.781	16.199	1099.848	835.294
364.796	16.277	1099.120	835.053
365.810	16.430	1098.283	835.098
366.825	16.448	1097.668	834.643
367.840	16.546	1096.942	834.502
368.854	16.531	1096.358	833.908
369.869	16.553	1095.824	833.539
370.883	16.534	1095.037	832.775
371.898	16.419	1094.174	831.475
372.913	16.431	1093.678	831.085
373.927	16.419	1093.174	830.569
374.942	16.572	1092.830	830.986
375.956	16.591	1092.171	830.506
376.971	16.590	1091.590	829.986
377.986	16.549	1090.988	829.253
379.000	16.671	1089.920	828.967
380.015	16.714	1089.807	829.014
381.029	16.656	1089.134	828.147
382.044	16.769	1088.317	828.004
383.059	16.715	1087.742	827.229
384.073	16.762	1087.089	826.892
385.088	16.777	1085.974	826.041
386.102	16.857	1084.998	825.619
387.117	16.834	1083.471	824.272
388.132	16.628	1083.207	822.994
389.146	16.683	1082.257	822.469
390.161	16.699	1081.863	822.172
391.175	16.729	1080.739	821.392
392.190	16.840	1079.715	821.080
393.205	16.778	1079.285	820.379
394.219	16.925	1078.099	820.114
395.234	16.888	1077.406	819.336
396.248	16.909	1076.516	818.688
397.263	16.824	1075.431	817.381
398.278	16.708	1074.930	816.371
399.292	16.795	1074.093	816.082
400.307	16.796	1073.615	815.652
401.321	16.782	1072.901	814.967
402.336	16.792	1072.329	814.508
403.350	16.763	1071.987	814.036
404.365	16.861	1070.925	813.628
405.380	17.017	1070.193	813.751
406.394	16.812	1069.152	811.905
407.409	16.895	1068.932	812.064
408.423	17.032	1067.829	811.809
409.438	17.047	1066.871	811.079
410.453	17.043	1066.384	810.619
411.467	17.102	1065.905	810.466
412.482	17.134	1065.005	809.860
413.496	17.210	1064.258	809.586
414.511	17.004	1064.107	808.418
415.526	17.307	1063.244	809.130
416.540	17.336	1062.716	808.793
417.555	17.257	1062.349	808.066
418.569	17.215	1062.130	807.633
419.584	17.241	1061.395	807.122
420.599	17.306	1060.693	806.826
421.613	89.209	1302.628	1390.588
422.628	82.322	1337.882	1390.707
