DTS Sentinel unit serial number:	SN413079Multiplexer serial number:	ORYXHardware model number:	OX4-SRSoftware version number:	ORYX F/W v4.00 Oryx Data Collector v3.7.2.0data status	okinstallation	princeton_trtdifferential loss correction	single-endedforward channel	channel 2reverse channel	N/Adate	2019/09/14time	05:23:35forward acquisition time	60.00reverse acquisition time	0.00gamma	496.2192k internal	0.2335k external	0.2335temperature offset calibration	1.0130default loss term (dB/km)	0.3790temperature slope calibration	1.0000multiplexer offset coefficient	1.0000multiplexer slope coefficient	1.0000fibre end	0.00T internal ref (°C)	26.94T ext. ref 1 (°C)	3.39T ext. ref 2 (°C)	21.91length (m)	temperature (°C)	Stokes	anti-Stokes-747.200	16.393	0.136	0.108
-746.185	-63.905	-0.277	0.114
-745.171	232.019	-0.053	-0.088
-744.156	800.000	0.078	-0.257
-743.142	383.278	0.151	-0.311
-742.127	127.087	-0.167	0.213
-741.112	275.626	0.094	-0.167
-740.098	90.837	-0.204	-0.229
-739.083	172.962	-0.026	0.038
-738.069	37.857	-0.258	0.230
-737.054	-37.506	0.062	0.033
-736.039	-119.681	0.332	0.058
-735.025	-0.973	0.095	0.067
-734.010	-200.000	0.016	-0.313
-732.996	-91.394	-0.458	-0.131
-731.981	800.000	-0.089	-0.270
-730.966	99.600	-0.029	-0.033
-729.952	-200.000	0.014	0.530
-728.937	279.326	-0.229	-0.411
-727.923	-25.971	-0.164	-0.097
-726.908	-23.065	0.112	0.068
-725.894	271.698	0.156	-0.276
-724.879	-3.327	-0.165	-0.116
-723.864	-131.301	-0.529	-0.070
-722.850	-55.503	0.148	0.067
-721.835	-92.366	0.200	-0.057
-720.821	31.384	-0.173	0.149
-719.806	76.049	-0.292	-0.310
-718.791	319.926	0.060	0.115
-717.777	-122.446	-0.449	-0.073
-716.762	109.671	0.100	0.120
-715.748	-200.000	-0.008	-0.101
-714.733	568.334	-0.116	-0.282
-713.718	-41.259	-0.120	0.062
-712.704	800.000	-0.120	-0.373
-711.689	-96.156	-0.136	0.036
-710.675	-76.470	0.195	0.069
-709.660	-44.820	0.186	0.093
-708.645	100.924	0.297	0.347
-707.631	-95.299	-0.209	-0.056
-706.616	0.874	-0.145	0.104
-705.602	-148.231	0.075	0.006
-704.587	202.124	-0.163	0.252
-703.572	800.000	-0.042	-0.151
-702.558	-13.451	0.394	-0.256
-701.543	-109.305	0.389	0.083
-700.529	56.253	-0.136	-0.133
-699.514	415.693	-0.115	-0.246
-698.499	720.763	0.109	-0.291
-697.485	-1.476	-0.298	0.211
-696.470	26.598	0.231	-0.194
-695.456	800.000	-0.063	0.219
-694.441	92.316	-0.133	-0.150
-693.426	-52.429	0.484	-0.225
-692.412	33.920	0.130	0.114
-691.397	-35.558	-0.149	-0.081
-690.383	-60.952	0.109	0.046
-689.368	-82.805	0.197	0.064
-688.354	103.450	-0.031	-0.036
-687.339	-200.000	-0.126	-0.694
-686.324	533.650	0.104	-0.247
-685.310	-147.799	-0.559	-0.047
-684.295	800.000	0.050	-0.164
-683.281	142.510	0.124	0.164
-682.266	733.967	0.035	-0.095
-681.251	-179.725	-0.534	0.012
-680.237	-172.559	-0.068	0.002
-679.222	-119.475	0.060	-0.010
-678.208	549.337	0.098	-0.235
-677.193	-200.000	0.017	-0.090
-676.178	-53.395	-0.333	0.153
-675.164	800.000	-0.050	-0.166
-674.149	564.270	0.087	0.212
-673.135	-200.000	-0.017	-0.098
-672.120	-124.655	-0.025	0.004
-671.105	-200.000	0.072	-0.429
-670.091	-89.298	0.350	0.103
-669.076	-39.855	-0.090	-0.047
-668.062	-17.429	0.145	0.092
-667.047	-108.437	-0.285	0.061
-666.032	184.148	-0.099	0.147
-665.018	800.000	-0.018	0.064
-664.003	237.715	-0.207	-0.343
-662.989	-67.082	0.198	-0.078
-661.974	-200.000	-0.028	-0.130
-660.959	-49.419	-0.241	0.115
-659.945	56.331	0.047	0.046
-658.930	397.970	-0.085	0.178
-657.916	688.388	-0.072	-0.188
-656.901	-43.504	0.115	-0.058
-655.886	524.673	0.144	-0.340
-654.872	125.687	0.164	0.207
-653.857	-76.137	0.159	0.056
-652.843	484.256	-0.086	0.196
-651.828	715.870	-0.072	-0.191
-650.814	231.788	0.201	-0.331
-649.799	170.197	-0.053	0.076
-648.784	800.000	-0.031	0.132
-647.770	800.000	0.055	0.160
-646.755	30.511	-0.147	-0.126
-645.741	643.034	-0.135	-0.345
-644.726	-200.000	-0.009	-0.423
-643.711	-200.000	0.002	-0.139
-642.697	112.618	-0.081	-0.099
-641.682	-102.692	0.195	0.046
-640.668	354.637	0.100	0.199
-639.653	12.032	0.085	0.066
-638.638	-55.382	-0.061	-0.027
-637.624	576.069	-0.136	0.333
-636.609	-200.000	-0.004	-0.308
-635.595	-14.208	0.190	-0.122
-634.580	-62.440	0.226	0.094
-633.565	-113.305	0.344	0.068
-632.551	17.232	0.104	-0.083
-631.536	-39.290	0.377	-0.198
-630.522	-53.515	0.193	-0.089
-629.507	-200.000	-0.015	-0.204
-628.492	133.591	-0.106	-0.137
-627.478	314.157	-0.044	-0.082
-626.463	-200.000	0.006	-0.028
-625.449	800.000	0.012	0.043
-624.434	-161.609	-0.278	0.014
-623.419	800.000	-0.082	0.271
-622.405	-160.079	-0.142	0.008
-621.390	-119.693	0.031	-0.005
-620.376	-200.000	0.014	-0.230
-619.361	-55.120	-0.302	-0.136
-618.346	771.445	-0.105	-0.285
-617.332	-72.742	0.144	0.053
-616.317	-147.131	-0.281	0.024
-615.303	-62.250	-0.148	0.062
-614.288	221.625	0.041	-0.065
-613.273	-200.000	-0.001	-0.346
-612.259	-76.628	-0.483	0.170
-611.244	669.283	-0.099	0.257
-610.230	-177.525	0.164	0.004
-609.215	-104.180	-0.085	0.020
-608.201	471.011	-0.089	-0.199
-607.186	800.000	-0.109	0.401
-606.171	72.115	-0.184	-0.191
-605.157	63.382	-0.301	0.302
-604.142	59.158	0.245	0.241
-603.128	209.634	-0.196	-0.307
-602.113	-20.856	-0.181	-0.111
-601.098	-123.307	0.201	-0.032
-600.084	14.167	-0.175	-0.136
-599.069	-200.000	0.006	-0.276
-598.055	469.669	0.180	-0.405
-597.040	99.343	-0.244	-0.282
-596.025	-149.775	-0.200	-0.016
-595.011	-200.000	0.024	0.180
-593.996	-50.148	0.085	0.040
-592.982	689.493	0.105	0.276
-591.967	207.577	0.149	-0.232
-590.952	-200.000	0.005	-0.077
-589.938	61.622	-0.361	0.358
-588.923	-101.448	-0.197	-0.048
-587.909	-101.095	-0.104	-0.025
-586.894	-70.171	-0.252	0.096
-585.879	-8.174	0.188	-0.127
-584.865	-43.059	0.107	0.054
-583.850	-200.000	-0.028	0.180
-582.836	-86.498	-0.249	0.076
-581.821	-79.042	-0.198	0.067
-580.806	-74.023	0.092	-0.033
-579.792	-13.315	0.190	0.123
-578.777	-200.000	0.023	0.165
-577.763	-60.040	0.154	-0.066
-576.748	3.234	0.263	0.191
-575.733	286.264	0.097	0.174
-574.719	110.094	-0.137	-0.165
-573.704	255.344	-0.245	-0.419
-572.690	-200.000	0.009	-0.061
-571.675	-200.000	0.041	-0.183
-570.661	-174.382	0.301	-0.009
-569.646	117.470	-0.140	0.172
-568.631	472.101	-0.148	-0.331
-567.617	800.000	0.111	0.360
-566.602	-64.634	0.182	-0.074
-565.588	216.503	-0.203	0.322
-564.573	800.000	-0.023	0.067
-563.558	60.548	-0.285	0.282
-562.544	-39.640	0.110	-0.058
-561.529	-40.440	0.194	-0.100
-560.515	142.510	-0.164	-0.217
-559.500	96.620	-0.039	0.044
-558.485	203.152	-0.113	-0.174
-557.471	10.526	-0.156	-0.118
-556.456	-41.100	0.188	0.097
-555.442	-200.000	0.028	-0.153
-554.427	149.987	0.050	0.067
-553.412	-136.513	0.290	0.034
-552.398	42.893	-0.108	-0.099
-551.383	-59.186	-0.126	-0.054
-550.369	800.000	-0.106	0.302
-549.354	800.000	-0.013	-0.037
-548.339	-59.015	0.182	0.079
-547.325	-92.448	-0.029	0.008
-546.310	-66.850	0.258	0.102
-545.296	15.173	0.415	-0.325
-544.281	177.724	0.072	-0.104
-543.266	-193.643	0.210	0.002
-542.252	119.700	0.238	-0.294
-541.237	-77.714	-0.075	0.026
-540.223	800.000	-0.080	-0.230
-539.208	33.958	0.065	-0.057
-538.193	-200.000	-0.024	-0.495
-537.179	-109.541	0.156	-0.033
-536.164	-200.000	-0.040	-0.277
-535.150	800.000	-0.065	0.276
-534.135	2.503	0.148	0.107
-533.121	52.560	-0.202	-0.192
-532.106	348.164	-0.044	-0.086
-531.091	800.000	0.036	0.122
-530.077	91.011	-0.136	-0.151
-529.062	-199.458	0.284	-0.001
-528.048	249.535	0.159	-0.268
-527.033	125.930	-0.261	0.328
-526.018	227.381	0.202	-0.328
-525.004	132.457	-0.180	-0.231
-523.989	64.456	0.098	0.099
-522.975	800.000	0.016	-0.063
-521.960	167.501	-0.038	-0.053
-520.945	-20.342	0.422	-0.258
-519.931	108.054	-0.258	0.306
-518.916	-200.000	-0.032	0.190
-517.902	237.730	-0.153	0.253
-516.887	-200.000	-0.003	0.096
-515.872	800.000	-0.045	-0.175
-514.858	431.772	0.123	0.266
-513.843	-47.471	0.237	0.115
-512.829	-200.000	-0.018	0.224
-511.814	-31.542	0.053	-0.030
-510.799	369.390	0.074	0.150
-509.785	-200.000	-0.044	0.265
-508.770	-92.163	0.187	0.053
-507.756	93.999	-0.149	0.168
-506.741	142.899	0.043	0.056
-505.726	148.628	0.138	0.185
-504.712	-99.480	-0.390	-0.098
-503.697	-53.232	0.204	-0.093
-502.683	-129.457	-0.480	0.066
-501.668	200.581	-0.149	0.228
-500.653	151.941	0.119	-0.161
-499.639	-200.000	0.036	0.178
-498.624	-150.019	-0.216	0.017
-497.610	194.766	0.028	-0.042
-496.595	164.163	-0.109	-0.153
-495.581	-200.000	0.010	-0.044
-494.566	-200.000	-0.022	-0.150
-493.551	-82.224	-0.121	-0.039
-492.537	22.962	0.156	0.127
-491.522	-158.183	0.317	0.018
-490.508	-35.239	0.293	0.159
-489.493	-200.000	0.051	0.446
-488.478	166.103	0.147	0.207
-487.464	18.629	-0.174	0.138
-486.449	48.318	0.207	-0.193
-485.435	114.859	-0.173	-0.210
-484.420	-5.939	0.136	0.092
-483.405	508.050	-0.064	-0.147
-482.391	-10.783	0.148	-0.097
-481.376	-39.569	-0.257	-0.134
-480.362	144.472	-0.047	0.063
-479.347	-132.071	0.066	0.009
-478.332	-121.287	0.366	0.061
-477.318	-114.757	-0.279	-0.053
-476.303	-200.000	0.026	0.226
-475.289	-69.536	0.175	0.067
-474.274	278.955	0.068	0.121
-473.259	-50.772	0.095	-0.044
-472.245	-124.295	-0.303	0.047
-471.230	-184.999	-0.080	-0.001
-470.216	-193.434	0.225	0.002
-469.201	416.625	-0.120	-0.255
-468.186	66.908	0.107	0.109
-467.172	-74.670	-0.032	0.011
-466.157	42.537	0.354	-0.320
-465.143	-70.213	-0.239	0.090
-464.128	-101.054	0.136	-0.033
-463.113	-13.338	0.099	-0.064
-462.099	113.220	-0.116	0.140
-461.084	-200.000	-0.000	-0.022
-460.070	498.966	-0.151	0.346
-459.055	312.309	-0.152	0.284
-458.040	281.136	0.038	0.067
-457.026	85.677	0.178	-0.194
-456.011	-200.000	-0.055	0.439
-454.997	238.056	-0.107	0.177
-453.982	800.000	0.055	-0.212
-452.968	-156.237	0.141	-0.009
-451.953	-26.076	-0.175	-0.102
-450.938	118.088	0.074	0.090
-449.924	-76.601	0.336	-0.117
-448.909	-152.225	0.207	0.015
-447.895	199.432	-0.119	0.181
-446.880	-200.000	0.004	0.102
-445.865	-119.886	-0.189	-0.032
-444.851	-200.000	0.014	0.087
-443.836	27.948	-0.170	0.143
-442.822	800.000	0.071	-0.216
-441.807	519.481	0.032	-0.075
-440.792	52.339	-0.167	0.158
-439.778	-200.000	-0.040	0.176
-438.763	800.000	-0.013	0.039
-437.749	800.000	0.064	0.223
-436.734	287.510	0.050	-0.091
-435.719	-200.000	-0.046	0.213
-434.705	121.425	0.050	0.062
-433.690	109.334	0.032	-0.038
-432.676	662.772	0.137	-0.350
-431.661	-3.514	-0.139	-0.096
-430.646	112.479	0.087	-0.105
-429.632	-200.000	0.021	0.173
-428.617	-121.727	-0.122	0.020
-427.603	800.000	-0.041	-0.134
-426.588	498.802	-0.122	-0.280
-425.573	366.382	-0.033	-0.065
-424.559	361.598	-0.107	-0.212
-423.544	-200.000	-0.032	0.179
-422.530	-107.809	-0.246	-0.053
-421.515	215.845	0.169	-0.267
-420.500	-42.193	-0.155	-0.079
-419.486	-172.526	0.152	0.005
-418.471	203.300	-0.120	-0.183
-417.457	293.772	-0.060	-0.109
-416.442	75.606	0.114	0.119
-415.428	-33.821	0.237	-0.129
-414.413	800.000	0.039	-0.118
-413.398	732.330	-0.083	-0.221
-412.384	82.042	0.147	-0.158
-411.369	31.592	0.236	-0.201
-410.355	24.502	-0.306	-0.251
-409.340	685.642	-0.047	0.122
-408.325	-200.000	-0.012	0.153
-407.311	-46.326	0.084	-0.041
-406.296	-200.000	0.045	0.219
-405.282	800.000	-0.084	-0.341
-404.267	29.173	-0.262	0.220
-403.252	800.000	-0.039	0.110
-402.238	-42.348	0.148	0.075
-401.223	184.270	0.145	0.213
-400.209	119.312	-0.034	0.042
-399.194	35.650	-0.327	0.285
-398.179	742.241	-0.071	-0.190
-397.165	557.728	0.103	0.247
-396.150	4.187	0.215	0.156
-395.136	-50.064	-0.383	-0.180
-394.121	418.925	0.105	0.224
-393.106	12.508	-0.204	-0.156
-392.092	-200.000	0.034	0.208
-391.077	14.172	-0.140	-0.108
-390.063	-111.432	0.185	0.037
-389.048	125.598	0.116	-0.145
-388.033	800.000	0.014	-0.055
-387.019	15.124	-0.213	0.166
-386.004	-36.553	-0.141	-0.075
-384.990	-200.000	-0.036	-0.202
-383.975	317.471	0.198	0.371
-382.960	-150.317	-0.307	0.023
-381.946	-200.000	-0.045	0.197
-380.931	-200.000	0.313	-0.000
-379.917	-200.000	-0.020	-0.089
-378.902	-122.921	-0.511	0.082
-377.888	15.743	-0.281	0.219
-376.873	238.516	0.089	-0.146
-375.858	-185.066	0.119	-0.002
-374.844	-76.281	-0.273	0.095
-373.829	40.729	-0.228	0.203
-372.815	366.871	0.041	-0.081
-371.800	-32.637	0.143	-0.079
-370.785	468.585	0.076	0.168
-369.771	470.615	0.087	-0.194
-368.756	52.388	0.119	0.112
-367.742	19.180	-0.082	0.065
-366.727	-21.478	0.316	-0.191
-365.712	800.000	-0.106	-0.431
-364.698	-200.000	0.053	-0.329
-363.683	-94.406	-0.243	0.066
-362.669	-200.000	0.017	0.243
-361.654	-136.734	-0.419	-0.048
-360.639	154.867	-0.045	0.062
-359.625	-110.833	0.137	-0.028
-358.610	733.907	0.169	-0.448
-357.596	-27.357	0.155	-0.089
-356.581	-200.000	-0.047	0.406
-355.566	-77.505	0.317	0.109
-354.552	91.664	-0.066	-0.073
-353.537	-100.008	0.085	-0.021
-352.523	-200.000	-0.057	-0.403
-351.508	-21.900	-0.220	0.133
-350.493	-98.231	0.240	-0.061
-349.479	185.899	-0.116	0.171
-348.464	-79.834	-0.097	-0.032
-347.450	-71.530	-0.140	0.052
-346.435	2.675	-0.156	-0.112
-345.420	-200.000	-0.040	-0.256
-344.406	38.578	0.430	0.379
-343.391	385.199	-0.028	-0.057
-342.377	-200.000	-0.045	-0.211
-341.362	-64.173	0.379	-0.153
-340.348	272.978	-0.070	-0.121
-339.333	-64.833	-0.282	-0.113
-338.318	-55.846	-0.183	-0.081
-337.304	800.000	-0.020	0.077
-336.289	-46.182	0.220	-0.107
-335.275	-41.377	-0.169	0.086
-334.260	-50.409	-0.091	0.043
-333.245	294.359	0.211	-0.382
-332.231	46.817	-0.330	-0.303
-331.216	-34.951	-0.407	-0.220
-330.202	-70.797	0.128	0.048
-329.187	-150.790	-0.317	0.024
-328.172	-200.000	-0.022	0.099
-327.158	27.588	0.197	0.164
-326.143	800.000	-0.051	0.147
-325.129	-200.000	0.022	-0.111
-324.114	565.945	-0.140	-0.335
-323.099	-70.082	0.108	-0.041
-322.085	-200.000	0.044	0.303
-321.070	-84.023	0.517	0.162
-320.056	110.161	-0.015	0.017
-319.041	13.905	0.149	0.115
-318.026	-33.068	-0.120	-0.066
-317.012	565.934	0.080	0.191
-315.997	-86.877	0.351	0.106
-314.983	12.700	-0.101	0.077
-313.968	206.663	0.041	0.063
-312.953	-123.457	-0.255	0.040
-311.939	-64.688	-0.167	0.067
-310.924	503.897	-0.066	-0.150
-309.910	-200.000	0.018	0.210
-308.895	339.549	0.101	0.194
-307.880	-72.439	0.188	-0.069
-306.866	70.273	-0.070	0.071
-305.851	-200.000	-0.012	0.270
-304.837	185.807	0.116	0.170
-303.822	-110.639	0.379	0.077
-302.807	44.829	0.128	-0.116
-301.793	-62.234	-0.156	0.064
-300.778	86.666	0.145	-0.158
-299.764	101.301	-0.146	-0.167
-298.749	63.447	-0.181	-0.180
-297.735	-88.588	-0.283	-0.083
-296.720	800.000	0.095	0.264
-295.705	-180.417	0.180	-0.004
-294.691	42.719	0.149	-0.134
-293.676	800.000	0.029	0.121
-292.662	-200.000	0.030	0.276
-291.647	89.704	0.243	0.268
-290.632	41.949	0.195	-0.175
-289.618	-64.257	-0.306	0.123
-288.603	-91.863	0.287	-0.080
-287.589	16.851	0.246	-0.192
-286.574	-102.626	0.366	-0.086
-285.559	-96.198	-0.195	0.051
-284.545	139.965	0.082	0.106
-283.530	-200.000	0.003	0.029
-282.516	-114.133	0.287	-0.055
-281.501	-111.345	0.134	0.027
-280.486	296.776	0.129	-0.233
-279.472	-200.000	0.003	0.083
-278.457	158.065	-0.220	0.301
-277.443	45.703	-0.275	0.251
-276.428	-10.965	0.157	-0.102
-275.413	-200.000	-0.021	0.129
-274.399	-200.000	0.016	-0.249
-273.384	-75.262	-0.125	0.044
-272.370	-126.542	-0.304	0.045
-271.355	-111.659	-0.187	0.037
-270.340	147.965	-0.050	0.066
-269.326	-200.000	0.005	0.231
-268.311	-83.269	0.261	-0.083
-267.297	-30.467	0.087	-0.049
-266.282	441.210	0.143	-0.308
-265.267	349.669	-0.047	0.092
-264.253	-68.798	-0.054	-0.021
-263.238	4.684	-0.210	-0.152
-262.224	296.540	-0.066	0.119
-261.209	-63.671	0.143	0.058
-260.195	204.384	0.089	-0.135
-259.180	-73.084	0.092	-0.033
-258.165	171.446	0.164	0.232
-257.151	-200.000	0.042	0.370
-256.136	55.181	-0.083	-0.080
-255.122	-115.831	0.335	-0.062
-254.107	19.355	-0.044	0.035
-253.092	245.962	-0.174	0.289
-252.078	800.000	-0.087	0.368
-251.063	-133.115	0.330	0.041
-250.049	272.475	-0.163	0.283
-249.034	-52.504	0.408	-0.186
-248.019	-11.858	-0.121	-0.078
-247.005	117.292	0.215	0.261
-245.990	38.537	-0.256	-0.225
-244.976	14.033	0.050	-0.039
-243.961	138.041	-0.074	0.095
-242.946	800.000	0.072	0.248
-241.932	-12.672	0.144	0.092
-240.917	800.000	0.028	-0.089
-239.903	47.803	0.234	0.215
-238.888	135.491	0.238	-0.305
-237.873	42.922	-0.053	0.048
-236.859	14.318	0.242	-0.186
-235.844	84.975	-0.079	-0.085
-234.830	800.000	-0.048	-0.204
-233.815	93.754	0.099	-0.110
-232.800	-133.563	-0.094	-0.012
-231.786	-91.086	-0.146	-0.041
-230.771	800.000	0.021	-0.066
-229.757	-156.660	0.223	0.014
-228.742	-118.196	-0.325	-0.057
-227.727	510.147	0.011	0.025
-226.713	-200.000	0.000	-0.007
-225.698	-200.000	0.010	-0.180
-224.684	-38.422	0.149	0.077
-223.669	14.938	0.266	-0.205
-222.655	-9.727	0.300	0.197
-221.640	159.823	-0.230	0.315
-220.625	-93.289	0.217	0.059
-219.611	-66.516	-0.312	-0.122
-218.596	222.918	-0.137	-0.218
-217.582	800.000	-0.051	-0.180
-216.567	87.198	-0.032	-0.035
-215.552	-200.000	-0.009	0.091
-214.538	476.554	0.101	-0.224
-213.523	-50.831	-0.193	0.089
-212.509	476.041	-0.110	0.246
-211.494	155.289	-0.137	-0.185
-210.479	179.990	0.161	0.233
-209.465	-93.940	-0.171	0.046
-208.450	-17.472	0.204	-0.126
-207.436	-107.244	0.424	-0.092
-206.421	-110.441	-0.217	-0.044
-205.406	-50.659	-0.221	-0.102
-204.392	800.000	-0.122	-0.368
-203.377	-197.223	0.298	0.002
-202.363	-94.740	-0.124	-0.033
-201.348	4.368	0.236	-0.170
-200.333	91.981	0.247	-0.274
-199.319	206.244	-0.073	0.111
-198.304	189.806	0.184	-0.271
-197.290	-200.000	0.026	0.135
-196.275	469.128	0.112	-0.248
-195.260	800.000	0.120	0.337
-194.246	800.000	-0.029	0.120
-193.231	-81.817	-0.007	-0.002
-192.217	-200.000	-0.011	0.109
-191.202	-108.109	-0.155	-0.033
-190.187	-173.189	-0.251	-0.008
-189.173	800.000	0.037	0.141
-188.158	99.395	0.221	0.251
-187.144	-60.204	-0.242	0.101
-186.129	-100.975	0.079	-0.019
-185.114	-139.084	0.132	0.014
-184.100	354.584	0.156	-0.304
-183.085	31.534	0.189	-0.160
-182.071	-135.361	-0.127	-0.015
-181.056	497.344	0.025	0.056
-180.042	164.725	0.072	-0.100
-179.027	66.800	-0.179	-0.179
-178.012	-6.483	-0.365	-0.245
-176.998	570.482	-0.031	-0.075
-175.983	800.000	-0.065	0.249
-174.969	-16.471	0.305	0.190
-173.954	411.682	-0.121	0.253
-172.939	-200.000	0.031	0.390
-171.925	60.485	-0.201	0.195
-170.910	45.428	-0.039	-0.035
-169.896	-56.979	-0.477	0.207
-168.881	36.981	0.131	0.114
-167.866	-200.000	-0.029	-0.245
-166.852	-200.000	0.017	-0.084
-165.837	-200.000	-0.007	0.169
-164.823	43.654	-0.185	0.166
-163.808	534.517	-0.135	-0.314
-162.793	-200.000	0.020	-0.216
-161.779	-86.936	0.245	0.073
-160.764	-8.325	-0.138	-0.091
-159.750	-140.796	0.179	0.018
-158.735	-102.551	-0.096	0.023
-157.720	-56.545	-0.179	0.078
-156.706	31.184	-0.186	0.157
-155.691	-200.000	-0.016	0.288
-154.677	94.648	-0.229	0.256
-153.662	-164.650	-0.421	0.019
-152.647	60.467	-0.039	0.038
-151.633	103.850	0.239	-0.276
-150.618	-17.265	-0.199	0.123
-149.604	-114.969	0.272	-0.051
-148.589	715.854	-0.051	0.132
-147.574	-39.691	0.226	0.116
-146.560	-81.724	0.314	0.101
-145.545	-81.154	0.213	-0.069
-144.531	64.953	0.175	0.174
-143.516	-66.149	-0.297	-0.116
-142.502	74.511	-0.133	0.137
-141.487	-120.428	-0.219	-0.037
-140.472	300.651	0.075	0.136
-139.458	469.402	0.024	0.054
-138.443	-74.585	-0.368	-0.130
-137.429	-200.000	-0.018	0.107
-136.414	-4.849	0.136	0.092
-135.399	-200.000	-0.009	-0.136
-134.385	-18.642	-0.202	-0.124
-133.370	800.000	-0.048	0.140
-132.356	-118.027	-0.219	0.038
-131.341	-92.222	0.228	0.063
-130.326	-76.958	-0.055	-0.019
-129.312	800.000	-0.062	0.242
-128.297	-102.126	0.118	-0.028
-127.283	-200.000	-0.021	-0.250
-126.268	476.638	-0.049	0.108
-125.253	-48.349	0.231	0.109
-124.239	-107.351	0.261	-0.056
-123.224	-23.853	-0.375	0.220
-122.210	-88.162	0.135	-0.040
-121.195	59.177	0.112	0.108
-120.180	-22.860	0.178	-0.105
-119.166	183.235	-0.107	-0.155
-118.151	800.000	-0.031	-0.090
-117.137	556.515	0.055	0.129
-116.122	-2.182	0.138	-0.095
-115.107	374.293	0.053	-0.107
-114.093	43.772	-0.251	-0.225
-113.078	245.262	-0.105	0.173
-112.064	-200.000	-0.001	0.177
-111.049	61.855	0.058	-0.057
-110.034	-64.529	-0.169	0.067
-109.020	701.342	-0.138	-0.357
-108.005	360.040	-0.148	-0.289
-106.991	157.990	-0.136	0.184
-105.976	492.829	0.045	0.102
-104.962	713.162	-0.088	-0.227
-103.947	800.000	-0.093	0.348
-102.932	-94.929	-0.235	0.062
-101.918	-3.915	-0.037	0.025
-100.903	177.801	0.153	-0.219
-99.889	-28.458	0.254	0.144
-98.874	347.091	0.167	0.323
-97.859	8.401	-0.197	0.145
-96.845	-200.000	0.022	0.246
-95.830	3.808	0.108	-0.077
-94.816	-146.498	0.420	-0.036
-93.801	800.000	-0.055	-0.161
-92.786	-53.077	-0.460	0.207
-91.772	274.073	0.166	0.288
-90.757	-19.533	0.443	-0.269
-89.743	800.000	-0.160	-0.471
-88.728	-154.698	0.258	0.017
-87.713	-54.594	0.027	0.012
-86.699	-2.487	-0.347	0.238
-85.684	-200.000	0.008	-0.084
-84.670	-200.000	0.035	-0.297
-83.655	184.352	-0.192	-0.279
-82.640	-1.281	0.223	0.154
-81.626	-99.752	0.132	0.032
-80.611	-62.539	0.241	0.098
-79.597	-103.039	0.455	-0.105
-78.582	223.189	-0.087	0.137
-77.567	-123.085	-0.087	0.014
-76.553	-36.205	-0.171	-0.090
-75.538	-153.828	-0.320	-0.021
-74.524	-74.254	0.219	0.078
-73.509	-77.746	0.178	-0.060
-72.494	800.000	-0.052	-0.184
-71.480	85.987	0.226	0.244
-70.465	54.251	-0.311	0.293
-69.451	800.000	-0.114	-0.406
-68.436	-132.321	-0.084	-0.011
-67.422	7.275	-0.188	-0.137
-66.407	-45.417	0.060	0.029
-65.392	26.044	0.123	-0.101
-64.378	-139.623	0.132	-0.014
-63.363	-200.000	0.028	0.162
-62.349	-1.598	0.080	0.055
-61.334	270.404	-0.866	-1.490
-60.319	89.798	0.612	0.669
-59.305	292.530	-0.401	-0.715
-58.290	78.712	0.932	0.975
-57.276	633.538	0.538	1.334
-56.261	-200.000	116.210	662.626
-55.246	531.921	1532.002	3544.699
-54.232	174.732	2716.301	3844.152
-53.217	102.148	2303.139	2630.672
-52.203	36.297	1907.274	1644.161
-51.188	30.104	1696.672	1415.436
-50.173	27.610	1654.363	1361.488
-49.159	49.646	1711.574	1576.439
-48.144	47.869	1725.022	1575.295
-47.130	29.649	1682.495	1399.940
-46.115	27.045	1667.868	1368.127
-45.100	26.889	1662.719	1362.680
-44.086	26.826	1660.339	1360.203
-43.071	26.838	1657.632	1358.019
-42.057	26.736	1655.705	1355.625
-41.042	26.881	1653.170	1354.575
-40.027	26.917	1651.061	1353.064
-39.013	26.782	1649.280	1350.547
-37.998	26.786	1647.671	1349.205
-36.984	26.843	1646.393	1348.530
-35.969	26.826	1645.522	1347.638
-34.954	27.013	1643.089	1346.976
-33.940	26.816	1641.877	1344.469
-32.925	26.951	1639.615	1343.565
-31.911	26.915	1638.115	1342.013
-30.896	26.933	1636.663	1340.901
-29.881	26.946	1634.639	1339.291
-28.867	26.951	1633.311	1338.182
-27.852	26.867	1631.701	1336.196
-26.838	26.960	1629.999	1335.433
-25.823	26.877	1629.065	1334.003
-24.809	26.936	1627.638	1333.215
-23.794	26.967	1626.130	1332.155
-22.779	26.987	1624.537	1330.942
-21.765	26.837	1623.424	1328.881
-20.750	26.904	1621.385	1327.651
-19.736	26.944	1620.090	1326.830
-18.721	26.983	1618.737	1325.953
-17.706	26.968	1617.279	1324.597
-16.692	26.941	1615.955	1323.264
-15.677	27.036	1614.056	1322.345
-14.663	27.033	1613.116	1321.500
-13.648	26.981	1611.713	1319.924
-12.633	27.046	1609.432	1318.474
-11.619	27.007	1608.105	1317.049
-10.604	27.028	1606.746	1316.034
-9.590	27.010	1605.638	1314.946
-8.575	26.989	1604.499	1313.812
-7.560	27.005	1603.309	1312.896
-6.546	27.058	1602.026	1312.182
-5.531	26.980	1601.183	1310.877
-4.517	27.003	1599.623	1309.709
-3.502	26.983	1598.617	1308.691
-2.487	27.021	1597.328	1307.854
-1.473	26.750	1585.161	1295.904
-0.458	23.950	1566.329	1260.646
0.556	21.508	1567.731	1230.361
1.571	19.269	1591.865	1233.184
2.586	18.753	1603.918	1238.695
3.600	16.587	1548.272	1180.515
4.615	9.656	1440.879	1053.377
5.629	4.291	1381.731	976.350
6.644	3.442	1374.278	965.685
7.659	3.301	1373.550	964.201
8.673	3.406	1372.009	963.694
9.688	3.431	1370.317	962.572
10.702	3.355	1367.393	959.960
11.717	5.905	1372.236	979.201
12.731	13.072	1385.507	1033.600
13.746	19.065	1394.496	1077.867
14.761	20.348	1395.517	1086.595
15.775	19.695	1394.396	1081.537
16.790	18.692	1391.263	1072.746
17.804	17.854	1389.314	1065.919
18.819	17.510	1387.830	1062.542
19.834	17.346	1386.778	1060.620
20.848	17.168	1385.597	1058.514
21.863	16.989	1384.238	1056.265
22.877	16.762	1383.725	1054.369
23.892	16.768	1382.969	1053.734
24.907	16.818	1381.550	1052.869
25.921	16.747	1380.696	1051.687
26.936	16.853	1379.899	1051.646
27.950	16.894	1378.901	1051.047
28.965	16.882	1377.794	1050.033
29.980	17.057	1376.860	1050.312
30.994	17.153	1375.725	1049.947
32.009	17.147	1374.590	1048.954
33.023	17.177	1373.538	1048.237
34.038	17.120	1371.636	1046.345
35.053	17.070	1370.510	1045.084
36.067	16.963	1368.911	1043.115
37.082	16.998	1368.362	1042.821
38.096	17.035	1367.586	1042.366
39.111	17.047	1366.923	1041.839
40.126	16.953	1366.039	1040.497
41.140	16.783	1364.983	1038.557
42.155	16.763	1364.227	1037.767
43.169	16.687	1364.274	1037.250
44.184	16.656	1364.376	1037.046
45.199	16.675	1363.426	1036.348
46.213	16.757	1363.058	1036.478
47.228	16.860	1362.329	1036.459
48.242	16.828	1361.303	1035.394
49.257	16.914	1359.592	1034.526
50.271	16.930	1358.207	1033.474
51.286	16.889	1356.521	1031.850
52.301	16.903	1355.266	1030.893
53.315	16.775	1354.699	1029.589
54.330	16.805	1353.143	1028.502
55.344	16.694	1352.209	1027.023
56.359	16.766	1351.122	1026.545
57.374	16.770	1350.405	1025.932
58.388	16.665	1349.902	1024.825
59.403	16.529	1349.380	1023.516
60.417	16.632	1348.425	1023.323
61.432	16.501	1347.687	1021.883
62.447	16.485	1346.483	1020.780
63.461	16.473	1345.395	1019.792
64.476	16.438	1344.192	1018.581
65.490	16.532	1342.627	1017.867
66.505	16.596	1340.998	1016.929
67.520	16.543	1340.125	1015.860
68.534	16.517	1339.311	1014.996
69.549	16.396	1338.255	1013.380
70.563	16.341	1337.339	1012.270
71.578	16.463	1335.760	1011.716
72.593	16.279	1335.165	1010.074
73.607	16.279	1334.448	1009.441
74.622	16.384	1333.056	1008.925
75.636	16.385	1332.722	1008.587
76.651	16.361	1332.328	1008.059
77.666	16.414	1331.741	1007.844
78.680	16.449	1331.280	1007.614
79.695	16.474	1330.567	1007.132
80.709	16.657	1329.506	1007.330
81.724	16.735	1328.900	1007.243
82.739	16.623	1328.332	1006.059
83.753	16.764	1327.128	1005.894
84.768	16.939	1326.160	1006.109
85.782	16.918	1325.473	1005.379
86.797	17.039	1323.524	1004.524
87.812	16.955	1322.506	1003.167
88.826	16.896	1321.250	1001.780
89.841	17.005	1320.409	1001.696
90.855	16.973	1319.778	1000.941
91.870	17.053	1318.657	1000.470
92.884	17.082	1318.208	1000.212
93.899	17.068	1317.037	999.151
94.914	17.211	1315.995	999.113
95.928	17.128	1315.521	998.178
96.943	17.054	1314.780	997.093
97.957	17.075	1313.452	996.120
98.972	16.986	1312.230	994.583
99.987	17.048	1311.821	994.552
101.001	17.038	1310.825	993.652
102.016	16.963	1309.763	992.316
103.030	16.987	1309.352	992.056
104.045	16.977	1307.938	990.840
105.060	16.986	1305.786	989.177
106.074	16.729	1304.969	986.971
107.089	16.658	1303.315	985.218
108.103	16.509	1302.169	983.402
109.118	16.472	1300.971	982.190
110.133	16.579	1299.571	981.670
111.147	16.642	1298.103	980.840
112.162	16.552	1297.235	979.577
113.176	16.651	1296.252	979.318
114.191	16.650	1295.116	978.370
115.206	16.643	1294.106	977.479
116.220	16.696	1292.970	976.838
117.235	16.701	1291.419	975.613
118.249	16.649	1290.567	974.580
119.264	16.665	1289.200	973.556
120.279	16.540	1288.255	972.037
121.293	16.435	1287.266	970.602
122.308	16.484	1285.823	969.710
123.322	16.478	1284.867	968.869
124.337	16.382	1284.235	967.758
125.352	16.443	1282.500	966.711
126.366	16.485	1281.715	966.274
127.381	16.496	1280.352	965.223
128.395	16.428	1279.179	963.867
129.410	16.514	1278.353	963.650
130.424	16.604	1277.956	963.780
131.439	16.589	1276.689	962.650
132.454	16.638	1275.928	962.273
133.468	16.700	1274.979	961.821
134.483	16.680	1274.271	961.089
135.497	16.610	1273.319	959.889
136.512	16.765	1271.984	959.674
137.527	16.754	1270.560	958.456
138.541	16.735	1269.275	957.292
139.556	16.701	1268.250	956.246
140.570	16.850	1266.538	955.711
141.585	16.928	1265.644	955.387
142.600	16.997	1264.551	954.867
143.614	17.033	1263.636	954.293
144.629	17.052	1263.075	953.896
145.643	17.028	1261.642	952.592
146.658	16.973	1260.592	951.408
147.673	16.779	1259.077	949.092
148.687	16.707	1257.969	947.770
149.702	16.821	1256.571	947.272
150.716	16.852	1255.062	946.222
151.731	16.668	1254.687	944.828
152.746	16.760	1253.055	944.027
153.760	16.876	1251.999	943.794
154.775	16.795	1250.992	942.504
155.789	16.971	1249.582	942.335
156.804	17.064	1248.591	942.019
157.819	17.031	1247.754	941.122
158.833	17.109	1246.920	940.844
159.848	17.168	1246.693	940.914
160.862	17.163	1245.125	939.617
161.877	17.026	1243.892	937.850
162.892	16.907	1242.188	935.826
163.906	16.772	1242.189	934.997
164.921	16.885	1240.718	934.429
165.935	16.972	1239.843	934.169
166.950	17.035	1239.308	934.028
167.964	17.070	1238.500	933.527
168.979	16.933	1238.066	932.368
169.994	16.947	1236.847	931.441
171.008	17.174	1236.216	932.129
172.023	17.044	1235.899	931.099
173.037	17.106	1234.794	930.520
174.052	17.132	1233.620	929.698
175.067	17.033	1232.259	928.048
176.081	16.944	1231.275	926.740
177.096	16.770	1230.835	925.374
178.110	16.864	1229.701	924.955
179.125	16.972	1228.168	924.310
180.140	16.926	1227.076	923.154
181.154	16.960	1226.268	922.646
182.169	17.147	1224.769	922.455
183.183	17.220	1223.548	921.851
184.198	17.234	1222.448	921.017
185.213	17.236	1221.290	920.072
186.227	17.261	1220.446	919.488
187.242	17.279	1219.799	919.018
188.256	17.227	1218.963	918.026
189.271	17.284	1217.760	917.349
190.286	17.156	1216.576	915.686
191.300	16.914	1215.313	913.350
192.315	16.884	1214.532	912.519
193.329	16.919	1213.590	911.917
194.344	16.808	1213.594	911.246
195.359	16.974	1213.473	911.965
196.373	17.123	1212.653	912.067
197.388	17.242	1212.308	912.367
198.402	17.272	1212.573	912.649
199.417	17.544	1211.128	912.936
200.432	17.585	1210.147	912.335
201.446	17.707	1209.477	912.406
202.461	17.677	1208.710	911.583
203.475	17.624	1207.799	910.535
204.490	17.484	1206.699	908.878
205.504	17.510	1205.038	907.686
206.519	17.358	1204.072	906.067
207.534	17.382	1202.375	904.834
208.548	17.271	1202.106	903.965
209.563	17.409	1201.327	904.031
210.577	17.436	1200.509	903.480
211.592	17.543	1199.502	903.206
212.607	17.647	1198.829	903.171
213.621	17.563	1197.637	901.748
214.636	17.583	1196.555	900.964
215.650	17.598	1196.195	900.688
216.665	17.573	1195.300	899.807
217.680	17.846	1194.041	900.217
218.694	17.744	1193.672	899.323
219.709	17.758	1192.711	898.592
220.723	17.678	1192.277	897.764
221.738	17.855	1191.158	897.775
222.753	17.644	1190.820	896.327
223.767	17.760	1189.905	896.169
224.782	17.848	1189.121	895.962
225.796	17.916	1188.516	895.783
226.811	17.730	1188.051	894.381
227.826	17.731	1187.183	893.654
228.840	17.772	1185.809	892.756
229.855	17.709	1185.582	892.176
230.869	17.748	1184.273	891.316
231.884	17.597	1183.919	890.178
232.899	17.627	1182.853	889.457
233.913	17.596	1182.144	888.684
234.928	17.686	1181.096	888.285
235.942	17.456	1180.645	886.667
236.957	17.541	1180.028	886.571
237.972	17.562	1179.337	886.082
238.986	17.692	1178.166	885.797
240.001	17.648	1177.695	885.135
241.015	17.568	1176.957	884.090
242.030	17.766	1175.460	883.914
243.045	17.722	1175.189	883.401
244.059	17.756	1174.460	882.951
245.074	17.805	1173.502	882.406
246.088	17.898	1172.821	882.301
247.103	18.007	1171.910	882.098
248.117	18.023	1171.812	882.030
249.132	18.096	1170.989	881.705
250.147	18.311	1170.379	882.276
251.161	18.411	1169.445	882.009
252.176	18.450	1168.881	881.711
253.190	18.434	1168.430	881.208
254.205	18.544	1167.977	881.355
255.220	18.461	1167.422	880.431
256.234	18.580	1166.518	880.284
257.249	18.454	1166.000	879.169
258.263	18.557	1165.118	878.951
259.278	18.475	1164.639	878.093
260.293	18.449	1164.045	877.435
261.307	18.585	1163.822	877.885
262.322	18.545	1163.076	877.041
263.336	18.580	1162.119	876.417
264.351	18.733	1161.287	876.495
265.366	18.646	1160.483	875.367
266.380	18.677	1159.663	874.829
267.395	18.497	1159.156	873.451
268.409	18.558	1158.257	873.008
269.424	18.565	1157.917	872.709
270.439	18.584	1157.513	872.427
271.453	18.516	1156.558	871.283
272.468	18.480	1155.160	869.971
273.482	18.396	1154.469	868.945
274.497	18.416	1154.041	868.650
275.512	18.491	1153.297	868.393
276.526	18.354	1152.449	866.981
277.541	18.497	1151.742	867.097
278.555	18.553	1150.755	866.561
279.570	18.593	1150.747	866.678
280.585	18.858	1149.559	867.045
281.599	18.659	1148.853	865.431
282.614	18.686	1147.558	864.515
283.628	18.615	1146.616	863.375
284.643	18.599	1145.534	862.401
285.657	18.548	1145.197	861.816
286.672	18.628	1143.793	861.084
287.687	18.615	1143.414	860.658
288.701	18.618	1142.637	860.012
289.716	18.634	1141.602	859.234
290.730	18.641	1141.186	858.884
291.745	18.820	1139.977	858.789
292.760	18.874	1139.448	858.588
293.774	18.754	1138.998	857.573
294.789	18.912	1138.234	857.712
295.803	18.892	1137.404	856.908
296.818	18.832	1136.672	855.985
297.833	18.791	1136.073	855.254
298.847	18.656	1135.532	854.096
299.862	18.832	1134.471	854.100
300.876	18.810	1133.934	853.507
301.891	18.871	1133.681	853.544
302.906	19.071	1132.486	853.561
303.920	19.006	1131.991	852.792
304.935	19.171	1131.466	853.137
305.949	19.123	1130.853	852.362
306.964	19.148	1129.898	851.690
307.979	18.990	1129.373	850.438
308.993	18.990	1128.640	849.810
310.008	19.117	1127.558	849.548
311.022	19.004	1127.234	848.671
312.037	19.211	1125.994	848.684
313.052	19.064	1125.255	847.325
314.066	19.010	1123.940	845.997
315.081	18.929	1123.019	844.833
316.095	18.916	1122.526	844.320
317.110	18.858	1122.191	843.710
318.125	18.908	1121.333	843.238
319.139	18.978	1120.492	842.870
320.154	18.924	1119.703	841.938
321.168	18.833	1119.315	841.126
322.183	18.875	1118.920	840.960
323.197	19.060	1117.896	841.022
324.212	18.988	1117.842	840.556
325.227	18.988	1117.084	839.912
326.241	19.052	1116.209	839.493
327.256	19.092	1115.255	838.893
328.270	19.061	1113.931	837.670
329.285	19.019	1113.024	836.710
330.300	19.090	1112.122	836.304
331.314	19.017	1111.644	835.516
332.329	19.118	1110.489	835.065
333.343	19.036	1109.942	834.184
334.358	19.316	1108.850	834.645
335.373	19.118	1108.556	833.389
336.387	19.281	1107.651	833.423
337.402	19.228	1107.098	832.679
338.416	19.364	1106.216	832.599
339.431	19.363	1105.739	832.161
340.446	19.508	1104.981	832.216
341.460	19.546	1104.704	832.116
342.475	19.628	1103.421	831.469
343.489	19.557	1102.696	830.510
344.504	19.637	1101.804	830.151
345.519	19.599	1101.232	829.463
346.533	19.746	1100.341	829.421
347.548	19.866	1099.404	829.219
348.562	19.754	1098.577	827.984
349.577	19.635	1098.067	826.957
350.592	19.647	1096.569	825.814
351.606	19.489	1096.060	824.602
352.621	19.453	1095.548	823.974
353.635	19.399	1094.922	823.172
354.650	19.422	1093.961	822.486
355.665	19.541	1093.542	822.664
356.679	19.497	1093.055	822.014
357.694	19.648	1092.211	822.026
358.708	19.643	1091.444	821.353
359.723	19.604	1091.022	820.778
360.738	19.672	1090.475	820.617
361.752	19.647	1089.759	819.888
362.767	19.715	1089.609	820.025
363.781	19.778	1088.675	819.548
364.796	19.793	1088.207	819.195
365.810	19.886	1087.913	819.337
366.825	20.074	1086.810	819.327
367.840	20.025	1086.569	818.840
368.854	19.990	1086.290	818.393
369.869	20.091	1085.263	818.022
370.883	19.981	1084.315	816.714
371.898	19.996	1083.526	816.118
372.913	19.850	1083.364	815.240
373.927	20.080	1082.764	815.797
374.942	20.063	1082.446	815.407
375.956	20.112	1081.694	814.996
376.971	20.020	1080.882	813.879
377.986	20.054	1080.191	813.449
379.000	20.228	1079.611	813.757
380.015	20.256	1079.164	813.478
381.029	20.438	1078.272	813.586
382.044	20.259	1078.078	812.530
383.059	20.272	1077.361	811.977
384.073	20.289	1076.284	811.175
385.088	20.303	1075.113	810.286
386.102	20.242	1074.587	809.535
387.117	20.159	1073.603	808.334
388.132	20.011	1072.947	807.076
389.146	20.037	1071.635	806.138
390.161	20.070	1070.989	805.738
391.175	20.042	1070.484	805.156
392.190	20.104	1069.668	804.758
393.205	20.284	1069.070	805.075
394.219	20.239	1068.045	804.020
395.234	20.129	1067.329	802.899
396.248	20.007	1066.702	801.794
397.263	20.232	1065.370	801.762
398.278	20.148	1064.537	800.677
399.292	20.072	1064.030	799.871
400.307	20.105	1063.057	799.224
401.321	20.072	1062.623	798.673
402.336	20.083	1061.859	798.081
403.350	20.085	1061.041	797.405
404.365	19.993	1060.456	796.469
405.380	20.279	1059.407	796.925
406.394	20.196	1059.197	796.318
407.409	20.281	1058.317	795.972
408.423	20.435	1057.809	796.226
409.438	20.467	1056.984	795.681
410.453	20.636	1056.144	795.755
411.467	20.525	1055.757	794.885
412.482	20.584	1055.203	794.665
413.496	20.678	1054.663	794.616
414.511	20.730	1054.070	794.337
415.526	20.740	1053.666	794.007
416.540	20.835	1053.109	793.953
417.555	20.835	1052.397	793.347
418.569	20.695	1052.257	792.530
419.584	20.632	1051.302	791.455
420.599	20.645	1051.451	791.557
421.613	155.144	1405.172	1797.775
422.628	142.291	1456.649	1797.858
