DTS Sentinel unit serial number:	SN413079Multiplexer serial number:	ORYXHardware model number:	OX4-SRSoftware version number:	ORYX F/W v4.00 Oryx Data Collector v3.7.2.0data status	okinstallation	princeton_trtdifferential loss correction	single-endedforward channel	channel 2reverse channel	N/Adate	2019/09/12time	18:30:49forward acquisition time	15.00reverse acquisition time	0.00gamma	496.2192k internal	0.2324k external	0.2324temperature offset calibration	1.0129default loss term (dB/km)	0.3790temperature slope calibration	1.0000multiplexer offset coefficient	1.0000multiplexer slope coefficient	1.0000fibre end	0.00T internal ref (°C)	33.25T ext. ref 1 (°C)	2.96T ext. ref 2 (°C)	27.86length (m)	temperature (°C)	Stokes	anti-Stokes-747.200	-200.000	0.014	0.305
-746.185	94.995	-0.843	0.969
-745.171	-156.119	0.752	0.048
-744.156	-143.574	-0.421	0.040
-743.142	34.595	0.370	0.327
-742.127	23.089	0.372	0.308
-741.112	-200.000	0.032	0.188
-740.098	129.163	0.269	-0.346
-739.083	-56.115	0.540	-0.243
-738.069	-49.113	-0.602	0.291
-737.054	800.000	0.027	-0.113
-736.039	-70.901	0.611	-0.232
-735.025	-65.384	-0.334	-0.135
-734.010	800.000	-0.096	-0.392
-732.996	-190.697	-0.650	-0.007
-731.981	800.000	-0.139	0.415
-730.966	-200.000	0.127	0.811
-729.952	-81.740	-1.465	0.485
-728.937	724.542	0.098	0.263
-727.923	106.612	0.196	-0.234
-726.908	657.077	-0.456	1.181
-725.894	-181.406	0.879	-0.017
-724.879	15.727	-0.622	-0.494
-723.864	-200.000	0.003	0.175
-722.850	267.115	0.414	-0.731
-721.835	422.680	-0.313	-0.677
-720.821	-161.873	0.148	-0.008
-719.806	59.729	-0.416	-0.414
-718.791	600.835	-0.035	-0.088
-717.777	108.712	-0.409	-0.493
-716.762	-35.039	0.135	-0.074
-715.748	-69.592	-0.332	-0.128
-714.733	800.000	0.246	-0.880
-713.718	-200.000	0.055	-0.547
-712.704	-150.277	0.572	-0.045
-711.689	22.615	0.138	-0.114
-710.675	-117.067	-0.550	-0.101
-709.660	-72.858	0.633	0.235
-708.645	44.912	-1.035	0.961
-707.631	-28.217	-0.109	-0.063
-706.616	-200.000	-0.068	-0.327
-705.602	182.195	-0.258	-0.383
-704.587	-55.798	1.172	-0.528
-703.572	-15.649	-0.758	0.487
-702.558	-110.855	-0.567	-0.118
-701.543	800.000	-0.092	-0.359
-700.529	234.265	-0.321	-0.533
-699.514	629.670	0.128	-0.326
-698.499	154.951	0.590	-0.817
-697.485	107.653	-0.825	-0.990
-696.470	232.227	0.332	0.549
-695.456	2.077	0.620	-0.451
-694.441	-6.673	0.625	-0.428
-693.426	38.710	0.270	0.243
-692.412	-94.066	-0.465	-0.128
-691.397	28.102	0.155	0.132
-690.383	-154.059	0.394	-0.027
-689.368	-17.671	0.704	-0.446
-688.354	-200.000	-0.006	0.035
-687.339	188.450	-0.114	0.172
-686.324	-119.915	-0.694	-0.120
-685.310	183.894	-0.103	-0.153
-684.295	-200.000	0.251	-1.165
-683.281	-96.211	-1.060	0.283
-682.266	4.162	0.343	-0.253
-681.251	-200.000	0.002	-0.440
-680.237	-200.000	-0.001	-0.460
-679.222	62.473	-0.487	-0.490
-678.208	99.021	0.428	0.498
-677.193	-200.000	-0.004	-0.483
-676.178	12.901	-0.333	-0.259
-675.164	-81.426	-0.132	-0.044
-674.149	-11.372	-0.891	0.590
-673.135	-166.473	-0.248	-0.010
-672.120	-101.324	0.309	-0.076
-671.105	-62.844	0.556	-0.232
-670.091	25.465	-0.364	-0.304
-669.076	-97.847	-0.247	-0.064
-668.062	-48.536	0.286	-0.139
-667.047	-122.413	-0.060	-0.010
-666.032	-46.967	-0.878	-0.431
-665.018	403.997	0.126	-0.268
-664.003	7.732	-0.316	-0.238
-662.989	-31.766	-0.375	-0.212
-661.974	203.914	0.262	-0.408
-660.959	48.626	-0.436	0.411
-659.945	800.000	-0.102	-0.433
-658.930	465.431	-0.293	-0.659
-657.916	-23.627	0.127	0.077
-656.901	719.334	0.036	0.098
-655.886	-200.000	-0.073	0.561
-654.872	-88.163	-0.590	-0.178
-653.857	-51.558	0.393	0.184
-652.843	-72.741	0.175	-0.065
-651.828	87.826	-0.366	0.408
-650.814	-103.298	0.439	0.104
-649.799	-12.386	-0.665	-0.437
-648.784	-53.470	0.221	-0.102
-647.770	565.754	0.051	-0.125
-646.755	-123.311	0.393	0.063
-645.741	-56.232	-0.721	-0.323
-644.726	-36.386	0.264	-0.143
-643.711	270.529	-0.525	-0.928
-642.697	-38.405	-0.501	0.266
-641.682	276.151	-0.180	0.320
-640.668	-200.000	-0.013	0.740
-639.653	-189.088	-0.302	-0.004
-638.638	800.000	0.305	-0.852
-637.624	414.638	-0.167	0.357
-636.609	-80.214	-0.494	0.166
-635.595	800.000	-0.372	-1.053
-634.580	158.470	0.361	0.503
-633.565	-24.734	-0.099	0.059
-632.551	-200.000	0.015	-1.240
-631.536	2.562	0.430	-0.313
-630.522	-109.820	0.781	0.165
-629.507	424.979	-0.087	0.188
-628.492	94.899	-0.463	0.529
-627.478	72.510	0.215	-0.225
-626.463	-102.912	-0.638	-0.152
-625.449	-200.000	-0.016	0.103
-624.434	-162.495	0.707	-0.035
-623.419	133.396	-0.659	-0.856
-622.405	162.755	-0.230	0.325
-621.390	-81.978	0.768	-0.252
-620.376	-200.000	0.010	0.255
-619.361	-79.141	0.352	-0.120
-618.346	-22.406	-0.484	0.295
-617.332	20.851	0.503	-0.409
-616.317	302.796	-0.217	0.403
-615.303	-117.985	-0.625	0.112
-614.288	294.978	-0.211	0.387
-613.273	800.000	0.032	-0.112
-612.259	347.799	0.154	-0.304
-611.244	185.095	-0.460	0.685
-610.230	-200.000	0.068	-0.725
-609.215	-54.462	0.627	0.285
-608.201	296.109	0.173	0.319
-607.186	328.304	0.083	-0.160
-606.171	694.514	-0.074	-0.196
-605.157	130.873	-0.442	0.569
-604.142	133.233	0.350	0.454
-603.128	-0.224	0.474	0.339
-602.113	-36.720	-0.641	0.346
-601.098	-104.582	-0.637	-0.148
-600.084	-200.000	0.125	-0.837
-599.069	-200.000	0.028	-0.940
-598.055	800.000	0.146	0.432
-597.040	54.709	-0.367	-0.355
-596.025	4.336	-0.237	0.174
-595.011	226.441	-0.400	0.652
-593.996	115.241	0.238	-0.292
-592.982	-112.909	-1.083	-0.215
-591.967	-86.541	-0.451	0.139
-590.952	-102.882	-0.803	0.191
-589.938	591.157	0.270	0.668
-588.923	27.925	-0.599	0.507
-587.909	800.000	0.210	0.777
-586.894	800.000	-0.286	-1.132
-585.879	-200.000	-0.001	0.908
-584.865	-56.059	0.387	-0.173
-583.850	-118.469	-0.482	-0.086
-582.836	-50.330	0.368	0.175
-581.821	-200.000	0.041	-0.615
-580.806	-55.472	-0.080	-0.036
-579.792	94.768	0.502	-0.573
-578.777	158.517	0.191	0.266
-577.763	-58.836	-0.506	-0.220
-576.748	-66.425	-0.056	-0.022
-575.733	264.509	-0.490	0.856
-574.719	210.603	-0.071	0.112
-573.704	-67.011	0.677	-0.268
-572.690	-104.148	0.227	0.053
-571.675	-50.388	-0.144	0.068
-570.661	118.707	0.266	-0.329
-569.646	3.589	-0.247	0.180
-568.631	-65.757	-0.217	0.087
-567.617	-9.185	0.465	-0.312
-566.602	233.791	0.186	-0.308
-565.588	-27.933	-0.523	-0.304
-564.573	78.629	0.668	0.716
-563.558	132.807	0.421	0.544
-562.544	409.468	0.227	0.482
-561.529	-132.187	-0.052	0.007
-560.515	-200.000	0.046	-0.390
-559.500	-103.220	-1.275	-0.302
-558.485	191.666	-0.351	0.530
-557.471	800.000	0.144	0.562
-556.456	-115.641	0.614	0.115
-555.442	-65.220	-0.746	0.301
-554.427	-200.000	0.086	-0.448
-553.412	800.000	-0.290	-0.859
-552.398	-29.058	-0.430	-0.247
-551.383	57.245	-0.605	-0.592
-550.369	703.995	-0.340	-0.899
-549.354	41.946	-0.065	0.059
-548.339	-138.649	-1.362	0.149
-547.325	0.141	-0.438	0.313
-546.310	143.472	0.233	-0.310
-545.296	-200.000	0.059	-0.777
-544.281	78.460	0.297	-0.318
-543.266	698.747	0.197	-0.519
-542.252	66.682	0.247	0.252
-541.237	-12.593	-0.409	-0.267
-540.223	178.118	0.223	-0.326
-539.208	-164.180	0.909	0.042
-538.193	-200.000	-0.002	-0.629
-537.179	326.309	-0.548	-1.050
-536.164	226.642	0.412	0.669
-535.150	-200.000	0.037	-0.369
-534.135	98.904	0.749	0.866
-533.121	-200.000	-0.102	0.670
-532.106	119.993	0.135	-0.167
-531.091	800.000	-0.254	-0.870
-530.077	800.000	0.068	0.211
-529.062	-114.092	-0.348	0.067
-528.048	-200.000	0.022	0.466
-527.033	800.000	0.231	0.805
-526.018	163.576	-0.307	0.433
-525.004	153.419	-0.270	0.370
-523.989	35.469	-0.387	-0.339
-522.975	-57.031	-0.497	0.219
-521.960	176.249	-0.125	0.182
-520.945	344.985	0.287	0.563
-519.931	236.024	-0.155	-0.256
-518.916	4.732	-0.398	0.293
-517.902	-80.754	0.370	-0.123
-516.887	279.513	-0.392	0.701
-515.872	-200.000	-0.246	1.164
-514.858	-67.615	0.272	-0.107
-513.843	800.000	-0.263	1.051
-512.829	800.000	-0.282	1.112
-511.814	-161.456	0.475	0.024
-510.799	329.387	-0.078	-0.150
-509.785	-18.331	0.569	-0.355
-508.770	-3.429	-0.203	0.142
-507.756	7.622	0.353	-0.264
-506.741	-200.000	0.002	-0.462
-505.726	2.557	-0.244	0.177
-504.712	295.494	0.136	0.248
-503.697	-55.225	1.189	-0.534
-502.683	-200.000	-0.079	0.454
-501.668	195.134	0.372	-0.565
-500.653	-200.000	-0.134	-0.903
-499.639	153.888	-0.498	-0.683
-498.624	53.972	-0.253	-0.243
-497.610	-200.000	-0.072	-0.404
-496.595	-86.168	-0.344	-0.106
-495.581	16.631	-0.749	0.592
-494.566	-140.904	-0.802	-0.082
-493.551	588.352	0.090	-0.221
-492.537	87.803	0.748	0.828
-491.522	-78.163	0.747	-0.257
-490.508	-5.432	0.156	-0.107
-489.493	-88.919	0.473	-0.140
-488.478	58.447	-0.604	-0.592
-487.464	541.434	0.396	-0.944
-486.449	800.000	0.125	0.419
-485.435	-186.139	-0.457	0.007
-484.420	42.821	0.316	-0.287
-483.405	-107.064	0.586	0.129
-482.391	336.190	0.421	-0.816
-481.376	131.372	-0.226	0.290
-480.362	179.133	-0.359	0.525
-479.347	-84.171	0.582	0.185
-478.332	-200.000	-0.077	-0.454
-477.318	-9.575	-0.680	0.453
-476.303	319.515	0.312	0.592
-475.289	-74.202	-0.870	-0.315
-474.274	51.562	-0.064	-0.061
-473.259	281.200	0.325	-0.580
-472.245	407.705	0.080	-0.170
-471.230	-95.986	-0.677	0.180
-470.216	-200.000	0.031	-0.595
-469.201	-93.143	0.744	0.207
-468.186	116.546	-0.251	-0.307
-467.172	-84.216	-0.431	0.136
-466.157	-200.000	-0.038	-0.928
-465.143	-37.298	0.155	0.083
-464.128	15.794	0.469	0.368
-463.113	114.540	0.297	0.361
-462.099	-83.848	-0.751	-0.239
-461.084	800.000	-0.131	0.420
-460.070	-84.268	0.942	-0.298
-459.055	-200.000	0.090	-0.440
-458.040	-125.920	0.392	-0.059
-457.026	17.548	0.019	-0.015
-456.011	-69.329	-0.646	0.248
-454.997	-39.357	0.356	0.187
-453.982	-200.000	-0.020	1.028
-452.968	326.327	0.262	0.501
-451.953	-200.000	0.094	0.744
-450.938	645.531	0.179	-0.456
-449.924	66.635	-0.322	-0.326
-448.909	-71.090	0.710	-0.266
-447.895	-119.274	0.585	0.102
-446.880	60.537	-0.543	0.536
-445.865	-200.000	-0.010	0.053
-444.851	-94.720	0.239	0.065
-443.836	-87.337	0.379	0.115
-442.822	-141.521	0.270	0.027
-441.807	800.000	-0.132	0.416
-440.792	-200.000	0.090	1.096
-439.778	-117.813	0.605	-0.108
-438.763	251.954	-0.158	-0.268
-437.749	-154.558	-0.425	0.028
-436.734	-116.495	0.193	0.036
-435.719	-3.124	-0.433	0.301
-434.705	77.386	0.603	0.640
-433.690	-200.000	-0.014	0.201
-432.676	68.683	-0.746	0.764
-431.661	10.602	-0.985	0.749
-430.646	-31.393	-0.330	0.185
-429.632	399.441	0.133	-0.279
-428.617	233.813	0.085	0.139
-427.603	-200.000	-0.028	-0.153
-426.588	197.592	-0.339	-0.516
-425.573	-52.256	0.836	0.386
-424.559	357.533	-0.282	0.561
-423.544	-200.000	0.001	-0.273
-422.530	-110.836	0.664	0.136
-421.515	-152.843	-1.177	0.083
-420.500	800.000	0.237	0.947
-419.486	153.747	-0.227	0.310
-418.471	-166.286	0.215	0.009
-417.457	-60.195	0.832	0.354
-416.442	800.000	-0.343	-0.996
-415.428	101.844	-0.727	-0.845
-414.413	27.035	-0.336	0.281
-413.398	159.157	0.156	-0.216
-412.384	345.542	-0.290	0.567
-411.369	-45.793	-0.186	-0.091
-410.355	-2.903	0.844	0.587
-409.340	800.000	-0.069	0.200
-408.325	55.784	-0.380	0.367
-407.311	-200.000	-0.070	0.391
-406.296	175.810	0.437	-0.632
-405.282	-66.820	0.294	-0.116
-404.267	302.983	-0.066	-0.122
-403.252	-200.000	0.019	0.501
-402.238	-96.245	0.572	-0.151
-401.223	399.432	0.132	-0.275
-400.209	-114.950	-0.199	0.038
-399.194	-77.001	0.956	0.332
-398.179	-200.000	-0.077	-0.740
-397.165	-126.785	-0.715	-0.105
-396.150	800.000	0.211	-0.912
-395.136	60.971	0.112	0.111
-394.121	-16.817	-0.609	0.383
-393.106	199.728	-0.229	-0.350
-392.092	-18.401	0.232	-0.144
-391.077	-107.947	-0.656	0.142
-390.063	409.802	0.309	0.653
-389.048	206.473	0.482	-0.747
-388.033	-200.000	-0.006	-0.297
-387.019	800.000	0.092	0.381
-386.004	73.369	0.360	0.375
-384.990	-158.906	0.609	0.034
-383.975	66.872	-0.539	-0.546
-382.960	800.000	0.150	-0.482
-381.946	-25.300	-0.659	0.388
-380.931	466.103	-0.103	0.229
-379.917	-200.000	-0.006	0.259
-378.902	-10.021	0.600	0.397
-377.888	60.974	-0.210	-0.207
-376.873	-200.000	-0.028	0.438
-375.858	110.422	0.168	-0.200
-374.844	-200.000	0.008	0.510
-373.829	-200.000	0.031	0.304
-372.815	-200.000	0.123	-0.560
-371.800	-1.532	-0.085	0.059
-370.785	334.086	-0.165	-0.318
-369.771	-28.271	0.450	0.258
-368.756	-138.209	-0.729	0.080
-367.742	233.734	0.319	0.522
-366.727	157.579	-0.200	0.275
-365.712	-13.753	0.321	0.207
-364.698	106.930	-0.247	0.291
-363.683	181.047	0.623	-0.911
-362.669	-200.000	-0.046	-0.353
-361.654	-119.487	0.275	-0.047
-360.639	-29.619	0.139	-0.079
-359.625	-36.553	-1.211	-0.648
-358.610	-20.854	0.175	-0.107
-357.596	-49.729	-1.025	0.484
-356.581	83.345	-0.211	0.229
-355.566	-200.000	-0.147	-1.337
-354.552	800.000	0.071	-0.231
-353.537	-119.054	0.411	0.072
-352.523	800.000	0.091	0.312
-351.508	252.222	-0.299	-0.507
-350.493	180.911	0.179	-0.262
-349.479	-150.502	1.082	-0.082
-348.464	-23.135	-0.064	-0.039
-347.450	-157.471	0.896	0.054
-346.435	-200.000	-0.070	-0.331
-345.420	270.476	-0.398	0.696
-344.406	-76.450	0.553	0.193
-343.391	800.000	-0.050	0.197
-342.377	800.000	0.195	0.597
-341.362	-70.202	0.497	0.188
-340.348	176.458	-0.172	-0.248
-339.333	-200.000	-0.045	-1.050
-338.318	-175.665	-1.047	-0.028
-337.304	-81.958	-0.522	0.170
-336.289	800.000	-0.114	0.394
-335.275	3.148	-0.359	0.259
-334.260	-200.000	0.001	0.084
-333.245	-99.857	0.861	0.214
-332.231	-69.474	-0.184	-0.070
-331.216	-94.260	-0.725	-0.197
-330.202	-33.763	0.466	-0.255
-329.187	800.000	-0.289	1.170
-328.172	400.156	0.225	0.469
-327.158	-133.047	0.561	0.071
-326.143	800.000	0.207	-0.618
-325.129	800.000	-0.223	-0.667
-324.114	800.000	-0.203	-0.798
-323.099	-200.000	0.002	0.432
-322.085	-43.042	0.383	0.193
-321.070	503.904	-0.186	0.427
-320.056	144.788	-0.213	-0.282
-319.041	-79.092	0.828	0.279
-318.026	48.549	0.319	0.297
-317.012	800.000	-0.173	-0.529
-315.997	114.232	0.054	0.065
-314.983	-200.000	-0.034	-0.346
-313.968	-4.789	0.717	-0.491
-312.953	-128.172	0.536	-0.076
-311.939	800.000	0.204	0.563
-310.924	-190.149	-0.372	0.004
-309.910	-80.571	-0.408	0.135
-308.895	-200.000	-0.003	0.107
-307.880	-200.000	-0.073	-0.660
-306.866	-200.000	0.203	1.206
-305.851	-54.840	0.380	-0.170
-304.837	63.799	0.195	0.194
-303.822	368.371	0.336	0.675
-302.807	-144.523	-0.556	-0.051
-301.793	800.000	0.089	-0.305
-300.778	-103.843	-0.701	-0.163
-299.764	-74.791	-0.775	-0.276
-298.749	-44.125	0.433	-0.216
-297.735	113.115	0.584	0.702
-296.720	-4.326	0.398	0.273
-295.705	184.208	-0.077	0.114
-294.691	-200.000	-0.891	-0.001
-293.676	162.046	0.180	-0.250
-292.662	-32.363	-0.126	0.070
-291.647	171.129	0.504	-0.717
-290.632	-52.319	-0.533	0.245
-289.618	-44.856	0.680	-0.336
-288.603	-22.330	-0.327	-0.196
-287.589	-56.214	0.514	-0.227
-286.574	-57.018	-0.615	-0.269
-285.559	108.215	-0.330	-0.391
-284.545	-116.209	0.085	-0.016
-283.530	60.914	0.407	0.400
-282.516	98.343	-0.323	-0.369
-281.501	800.000	0.243	-0.798
-280.486	17.036	0.764	-0.600
-279.472	-200.000	0.049	-0.273
-278.457	-62.982	-0.556	0.228
-277.443	315.604	-0.327	-0.612
-276.428	-140.896	-0.130	-0.013
-275.413	266.003	-0.156	0.270
-274.399	-200.000	0.006	-0.381
-273.384	-200.000	-0.054	-0.346
-272.370	74.603	0.487	-0.507
-271.355	81.715	-0.259	0.278
-270.340	-200.000	-0.158	0.771
-269.326	85.249	0.561	0.610
-268.311	-61.353	-0.251	-0.105
-267.297	799.670	-0.199	-0.543
-266.282	-200.000	-0.251	-1.436
-265.267	212.234	0.169	-0.263
-264.253	-121.034	-0.540	-0.090
-263.238	800.000	-0.169	-0.550
-262.224	-124.319	-0.382	0.059
-261.209	-70.971	-0.424	0.158
-260.195	285.636	0.058	0.103
-259.180	33.824	0.761	-0.656
-258.165	76.037	-0.271	-0.284
-257.151	81.229	0.191	0.204
-256.136	614.105	0.267	0.662
-255.122	89.678	0.131	-0.144
-254.107	-64.230	0.402	0.162
-253.092	-38.735	-0.525	0.274
-252.078	408.793	-0.195	0.409
-251.063	800.000	0.120	-0.404
-250.049	-72.427	0.469	0.172
-249.034	800.000	-0.069	-0.248
-248.019	361.904	-0.107	-0.212
-247.005	-200.000	0.029	-0.449
-245.990	-81.904	-0.708	0.229
-244.976	62.560	-0.238	-0.236
-243.961	-84.337	0.261	-0.082
-242.946	-10.425	0.384	-0.252
-241.932	-200.000	0.013	-0.405
-240.917	276.221	0.122	0.214
-239.903	-107.397	0.629	-0.137
-238.888	221.983	-0.332	0.528
-237.873	800.000	0.167	-0.691
-236.859	121.508	0.544	-0.671
-235.844	-17.056	0.565	-0.353
-234.830	-200.000	-0.014	0.735
-233.815	-200.000	-0.041	0.266
-232.800	-19.791	-0.312	-0.191
-231.786	-54.481	0.643	0.288
-230.771	237.113	0.305	-0.501
-229.757	-106.031	1.145	-0.255
-228.742	-11.549	-0.171	-0.111
-227.727	263.020	-0.138	0.236
-226.713	-200.000	0.006	0.666
-225.698	-72.317	-0.252	-0.092
-224.684	800.000	-0.086	0.363
-223.669	81.042	-0.473	0.505
-222.655	194.155	0.020	-0.030
-221.640	-25.152	-0.977	-0.572
-220.625	39.031	0.257	0.227
-219.611	-100.283	0.287	0.071
-218.596	524.491	-0.390	0.907
-217.582	311.837	-0.178	-0.329
-216.567	800.000	-0.096	-0.334
-215.552	-3.335	0.730	0.503
-214.538	241.133	0.127	-0.210
-213.523	800.000	0.126	0.352
-212.509	4.718	0.327	0.238
-211.494	233.500	0.068	0.111
-210.479	28.983	-0.307	0.257
-209.465	136.641	-0.273	0.353
-208.450	-156.911	-0.376	-0.023
-207.436	800.000	-0.097	0.341
-206.421	215.549	0.429	0.673
-205.406	-149.748	-0.467	-0.036
-204.392	404.390	0.225	0.468
-203.377	179.320	0.227	-0.328
-202.363	130.008	-0.135	0.171
-201.348	-177.501	0.257	-0.006
-200.333	800.000	0.136	-0.384
-199.319	22.450	-0.788	-0.637
-198.304	-79.829	-0.045	0.015
-197.290	-135.893	0.375	0.044
-196.275	-45.499	0.443	0.217
-195.260	-113.889	-1.118	0.215
-194.246	26.220	1.036	0.855
-193.231	531.130	0.238	0.556
-192.217	60.274	-0.420	0.411
-191.202	63.041	-0.648	-0.641
-190.187	-74.477	-0.506	-0.180
-189.173	-56.082	0.305	0.134
-188.158	509.494	0.189	0.433
-187.144	450.320	0.191	0.416
-186.129	-140.380	0.156	0.016
-185.114	706.576	0.054	0.142
-184.100	-62.311	0.269	0.111
-183.085	800.000	0.265	-0.832
-182.071	-28.932	-0.703	0.399
-181.056	75.268	-0.216	0.224
-180.042	-136.284	0.560	-0.064
-179.027	99.451	0.638	-0.729
-178.012	52.866	-0.161	-0.152
-176.998	-200.000	0.035	0.639
-175.983	221.618	-0.084	-0.133
-174.969	-149.704	-0.222	0.017
-173.954	-46.779	-0.350	-0.169
-172.939	407.815	-0.172	0.359
-171.925	128.860	-0.099	0.124
-170.910	-88.464	0.376	-0.111
-169.896	135.953	0.625	-0.804
-168.881	-159.112	0.689	0.038
-167.866	-58.383	-0.664	-0.285
-166.852	-135.801	0.415	0.048
-165.837	-174.631	0.334	0.009
-164.823	800.000	-0.123	0.506
-163.808	-4.048	0.761	-0.521
-162.793	45.445	0.342	-0.312
-161.779	-93.342	0.704	-0.193
-160.764	142.975	-0.481	0.631
-159.750	199.366	-0.443	0.671
-158.735	635.090	0.079	0.198
-157.720	-109.035	0.528	0.111
-156.706	49.159	-0.231	-0.214
-155.691	-200.000	-0.020	-0.687
-154.677	-35.753	0.407	0.218
-153.662	298.313	0.420	-0.761
-152.647	-170.910	0.434	-0.015
-151.633	-2.848	-0.456	-0.314
-150.618	-200.000	-0.191	-0.911
-149.604	398.618	0.163	-0.337
-148.589	-44.702	-0.132	-0.065
-147.574	800.000	0.040	0.152
-146.560	60.382	0.472	-0.461
-145.545	67.022	0.596	-0.599
-144.531	-200.000	0.169	-0.844
-143.516	-182.598	-0.823	-0.015
-142.502	459.548	0.367	-0.806
-141.487	-17.629	-0.160	0.099
-140.472	-117.628	-0.344	-0.061
-139.458	117.305	-0.373	0.452
-138.443	116.276	0.295	0.356
-137.429	-136.596	0.813	0.093
-136.414	-1.560	-0.376	-0.261
-135.399	-183.785	-0.520	0.009
-134.385	-200.000	-0.032	0.685
-133.370	-200.000	0.113	-0.692
-132.356	-50.733	0.440	-0.204
-131.341	429.733	-0.084	0.178
-130.326	800.000	0.087	-0.294
-129.312	62.681	-0.182	-0.180
-128.297	-114.510	-0.475	0.090
-127.283	219.844	-0.316	-0.499
-126.268	522.150	-0.208	-0.481
-125.253	-14.658	-0.810	0.513
-124.239	-200.000	-0.103	-0.450
-123.224	97.548	-0.638	-0.722
-122.210	620.504	0.463	1.146
-121.195	647.510	0.047	-0.119
-120.180	-47.382	0.278	-0.133
-119.166	-128.943	-0.533	-0.074
-118.151	800.000	-0.097	-0.292
-117.137	-36.295	0.317	0.168
-116.122	569.095	-0.217	0.518
-115.107	-3.043	0.144	0.099
-114.093	-40.390	-0.418	0.214
-113.078	296.148	0.115	0.207
-112.064	-200.000	-0.014	-0.282
-111.049	-160.891	-0.635	-0.033
-110.034	-28.865	0.485	-0.274
-109.020	220.848	0.292	-0.462
-108.005	83.973	-0.270	0.290
-106.991	-101.196	-0.271	0.065
-105.976	-200.000	-0.066	-0.499
-104.962	-154.662	-0.788	-0.052
-103.947	445.367	-0.190	0.410
-102.932	340.906	0.123	-0.236
-101.918	-167.588	-0.487	-0.019
-100.903	-72.006	-0.084	-0.031
-99.889	-27.618	-1.135	-0.649
-98.874	-113.351	0.678	0.131
-97.859	-125.753	0.140	0.021
-96.845	-86.413	0.741	0.224
-95.830	800.000	0.097	0.371
-94.816	800.000	-0.110	0.467
-93.801	-200.000	0.131	0.816
-92.786	-125.635	-0.093	-0.014
-91.772	100.746	-0.198	0.226
-90.757	-200.000	0.060	0.467
-89.743	-118.702	0.423	0.073
-88.728	800.000	-0.280	0.784
-87.713	-30.964	0.763	0.424
-86.699	31.949	-0.414	0.351
-85.684	18.654	0.598	0.471
-84.670	250.427	0.304	-0.508
-83.655	-200.000	0.109	-0.520
-82.640	-200.000	-0.110	0.503
-81.626	800.000	-0.104	-0.308
-80.611	-97.678	-0.896	-0.228
-79.597	-200.000	0.079	-0.512
-78.582	179.638	-0.494	-0.712
-77.567	-200.000	0.099	-0.830
-76.553	-200.000	-0.001	-0.204
-75.538	-120.657	0.903	0.150
-74.524	449.932	0.252	-0.548
-73.509	86.001	-0.425	0.460
-72.494	-23.374	0.197	0.117
-71.480	286.018	0.432	-0.766
-70.465	-145.550	1.049	-0.092
-69.451	45.162	-0.515	-0.467
-68.436	-132.456	-0.448	0.057
-67.422	-76.703	-0.508	0.175
-66.407	-25.428	-0.171	0.099
-65.392	-179.152	-0.544	0.012
-64.378	-158.742	0.564	-0.032
-63.363	43.572	-0.119	-0.107
-62.349	652.059	0.048	-0.121
-61.334	-2.550	-1.351	-0.930
-60.319	-63.386	0.878	0.355
-59.305	800.000	-0.384	-1.067
-58.290	248.487	0.364	0.605
-57.276	324.525	0.865	1.624
-56.261	-200.000	96.107	573.368
-55.246	655.498	1365.496	3445.187
-54.232	200.813	2541.602	3840.500
-53.217	113.478	2255.008	2689.688
-52.203	42.981	1883.654	1687.478
-51.188	36.672	1676.596	1454.678
-50.173	33.801	1632.766	1395.532
-49.159	52.591	1680.362	1576.525
-48.144	53.114	1697.389	1596.324
-47.130	36.098	1656.741	1432.957
-46.115	33.438	1641.961	1400.484
-45.100	33.061	1638.248	1394.481
-44.086	33.218	1634.436	1392.339
-43.071	33.239	1632.181	1390.512
-42.057	33.057	1629.474	1386.820
-41.042	33.160	1627.879	1386.163
-40.027	33.342	1625.619	1385.512
-39.013	32.934	1624.589	1381.593
-37.998	33.235	1621.561	1381.161
-36.984	33.177	1621.176	1380.358
-35.969	33.193	1621.157	1380.402
-34.954	33.213	1617.763	1377.607
-33.940	33.311	1616.753	1377.401
-32.925	33.295	1615.107	1375.827
-31.911	33.191	1611.843	1372.236
-30.896	33.207	1610.822	1371.434
-29.881	33.187	1609.269	1369.911
-28.867	33.191	1608.452	1369.193
-27.852	33.294	1606.045	1367.833
-26.838	33.167	1605.733	1366.594
-25.823	33.312	1603.647	1365.812
-24.809	33.370	1601.562	1364.398
-23.794	33.480	1599.508	1363.383
-22.779	33.334	1599.163	1361.987
-21.765	33.120	1598.087	1359.481
-20.750	33.431	1595.410	1359.377
-19.736	33.218	1595.050	1357.488
-18.721	33.252	1593.754	1356.573
-17.706	33.124	1592.463	1354.507
-16.692	33.190	1589.885	1352.730
-15.677	33.388	1588.723	1353.102
-14.663	33.308	1587.694	1351.605
-13.648	33.207	1585.894	1349.298
-12.633	33.399	1583.668	1348.720
-11.619	33.380	1582.599	1347.616
-10.604	33.151	1582.085	1345.500
-9.590	33.358	1580.345	1345.435
-8.575	33.383	1577.798	1343.391
-7.560	33.498	1577.185	1343.630
-6.546	33.106	1577.025	1340.662
-5.531	33.155	1575.467	1339.634
-4.517	33.273	1574.259	1339.388
-3.502	33.412	1572.704	1338.996
-2.487	33.239	1571.844	1336.986
-1.473	32.926	1560.234	1324.863
-0.458	30.207	1539.863	1288.649
0.556	27.721	1539.125	1256.474
1.571	24.805	1563.217	1255.591
2.586	24.162	1576.374	1261.500
3.600	21.629	1522.536	1200.960
4.615	12.512	1413.412	1056.472
5.629	4.447	1348.654	958.368
6.644	2.954	1339.284	942.474
7.659	2.921	1339.957	942.664
8.673	3.056	1337.607	941.753
9.688	2.909	1336.306	939.853
10.702	2.659	1332.959	935.889
11.717	6.326	1341.114	964.024
12.731	15.929	1356.910	1034.545
13.746	23.708	1370.179	1092.629
14.761	25.217	1372.203	1103.433
15.775	25.566	1372.033	1105.347
16.790	25.349	1370.827	1102.944
17.804	25.849	1369.996	1105.246
18.819	25.783	1370.695	1105.307
19.834	26.077	1369.373	1105.949
20.848	25.994	1369.383	1105.348
21.863	25.938	1368.238	1103.981
22.877	25.989	1367.683	1103.748
23.892	26.115	1366.978	1103.856
24.907	26.198	1364.809	1102.514
25.921	25.870	1365.504	1100.974
26.936	26.046	1364.136	1100.842
27.950	26.082	1363.144	1100.166
28.965	26.054	1362.371	1099.275
29.980	26.024	1360.729	1097.669
30.994	26.160	1358.956	1096.971
32.009	26.178	1358.154	1096.335
33.023	26.131	1357.609	1095.515
34.038	26.036	1355.463	1093.111
35.053	26.173	1355.663	1094.005
36.067	25.982	1353.874	1091.305
37.082	25.892	1353.284	1090.189
38.096	26.175	1351.512	1090.373
39.111	26.265	1350.969	1090.387
40.126	25.855	1351.732	1088.428
41.140	26.202	1349.681	1088.773
42.155	26.005	1350.067	1087.797
43.169	26.147	1349.794	1088.336
44.184	26.168	1348.859	1087.617
45.199	26.123	1349.042	1087.398
46.213	26.224	1348.477	1087.450
47.228	25.955	1349.022	1086.173
48.242	26.230	1346.627	1085.804
49.257	26.105	1345.440	1084.002
50.271	26.137	1342.703	1081.890
51.286	26.042	1341.517	1080.270
52.301	26.117	1341.238	1080.400
53.315	26.091	1340.525	1079.573
54.330	25.993	1338.735	1077.452
55.344	26.158	1337.173	1077.083
56.359	26.380	1336.149	1077.485
57.374	26.195	1335.798	1076.005
58.388	25.997	1335.435	1074.439
59.403	26.379	1333.808	1075.307
60.417	26.054	1334.577	1073.896
61.432	26.247	1333.888	1074.398
62.447	26.270	1333.133	1073.827
63.461	26.254	1331.563	1072.372
64.476	26.247	1329.437	1070.525
65.490	26.092	1329.824	1069.823
66.505	25.949	1328.304	1067.659
67.520	26.213	1326.081	1067.337
68.534	26.234	1325.437	1066.852
69.549	26.088	1324.565	1065.190
70.563	26.176	1323.981	1065.151
71.578	25.970	1323.654	1063.575
72.593	26.076	1321.191	1062.125
73.607	26.324	1320.364	1062.823
74.622	26.122	1320.671	1061.790
75.636	25.949	1320.179	1060.285
76.651	26.627	1318.052	1062.460
77.666	26.269	1317.761	1060.034
78.680	26.285	1317.548	1059.860
79.695	26.274	1316.273	1058.674
80.709	26.280	1315.103	1057.680
81.724	26.266	1315.501	1057.822
82.739	26.291	1314.200	1056.827
83.753	26.043	1314.165	1055.257
84.768	26.222	1311.954	1054.431
85.782	26.184	1310.970	1053.326
86.797	26.230	1310.136	1052.832
87.812	26.240	1307.983	1051.068
88.826	26.206	1307.469	1050.363
89.841	26.356	1306.389	1050.272
90.855	26.306	1305.254	1048.979
91.870	26.452	1303.914	1048.656
92.884	26.093	1303.976	1046.528
93.899	26.303	1303.257	1047.077
94.914	26.577	1301.186	1046.904
95.928	26.279	1301.118	1045.034
96.943	26.588	1299.927	1045.770
97.957	26.452	1298.342	1043.620
98.972	26.266	1297.728	1041.961
99.987	26.362	1297.543	1042.273
101.001	26.501	1296.752	1042.349
102.016	26.236	1295.663	1039.853
103.030	26.350	1294.338	1039.353
104.045	26.406	1293.549	1038.949
105.060	26.533	1291.780	1038.165
106.074	26.372	1291.725	1037.107
107.089	26.740	1289.719	1037.511
108.103	26.519	1288.199	1034.932
109.118	26.371	1288.941	1034.592
110.133	26.626	1286.843	1034.270
111.147	26.457	1286.068	1032.594
112.162	26.559	1285.397	1032.546
113.176	26.452	1283.666	1030.452
114.191	26.482	1282.621	1029.696
115.206	26.396	1282.176	1028.756
116.220	26.448	1280.860	1027.902
117.235	26.682	1278.758	1027.455
118.249	26.610	1278.114	1026.435
119.264	26.627	1276.881	1025.456
120.279	26.595	1277.132	1025.385
121.293	26.478	1275.958	1023.690
122.308	26.677	1275.039	1023.985
123.322	26.427	1274.886	1022.361
124.337	26.547	1273.912	1022.166
125.352	26.742	1271.146	1020.956
126.366	26.730	1270.765	1020.490
127.381	26.661	1269.392	1018.909
128.395	26.715	1268.410	1018.336
129.410	26.520	1268.326	1017.080
130.424	26.799	1267.424	1017.833
131.439	26.707	1266.798	1016.726
132.454	26.445	1266.689	1015.076
133.468	26.515	1265.050	1014.064
134.483	26.822	1265.109	1015.742
135.497	26.637	1264.146	1013.842
136.512	26.641	1262.506	1012.460
137.527	26.391	1262.267	1010.783
138.541	26.606	1260.378	1010.382
139.556	26.466	1259.739	1009.001
140.570	26.881	1257.676	1009.567
141.585	26.263	1257.940	1006.248
142.600	26.674	1256.374	1007.192
143.614	26.510	1255.229	1005.273
144.629	26.829	1254.632	1006.477
145.643	26.761	1252.045	1003.940
146.658	26.598	1252.147	1003.029
147.673	26.360	1252.807	1002.150
148.687	26.474	1250.335	1000.716
149.702	26.624	1250.340	1001.460
150.716	26.802	1248.304	1000.720
151.731	26.408	1247.224	997.593
152.746	26.628	1246.221	997.916
153.760	26.623	1244.420	996.358
154.775	26.764	1244.048	996.749
155.789	26.842	1243.295	996.482
156.804	26.577	1243.263	994.914
157.819	26.682	1241.625	994.092
158.833	26.587	1241.800	993.622
159.848	26.809	1239.327	992.770
160.862	26.825	1238.316	991.959
161.877	26.825	1238.149	991.738
162.892	26.856	1238.283	991.930
163.906	26.912	1237.302	991.361
164.921	26.802	1236.122	989.725
165.935	26.787	1235.599	989.138
166.950	26.951	1234.627	989.166
167.964	26.897	1233.884	988.189
168.979	27.011	1233.172	988.153
169.994	26.920	1233.626	987.934
171.008	27.008	1231.783	986.850
172.023	27.130	1230.183	986.143
173.037	26.792	1231.266	985.085
174.052	26.751	1230.096	983.841
175.067	26.759	1229.603	983.406
176.081	26.765	1228.965	982.839
177.096	26.922	1226.811	981.878
178.110	27.284	1224.667	982.031
179.125	26.980	1226.239	981.561
180.140	26.981	1223.715	979.459
181.154	26.805	1223.034	977.878
182.169	27.079	1222.993	979.239
183.183	26.880	1221.388	976.794
184.198	27.136	1220.420	977.312
185.213	27.065	1219.865	976.400
186.227	26.958	1219.063	975.095
187.242	26.945	1218.662	974.618
188.256	26.924	1217.736	973.675
189.271	26.889	1216.752	972.617
190.286	27.090	1215.518	972.620
191.300	27.025	1216.008	972.580
192.315	27.180	1215.319	972.769
193.329	27.207	1214.018	971.787
194.344	27.344	1213.221	971.797
195.359	27.302	1212.323	970.769
196.373	26.877	1213.373	969.252
197.388	27.412	1211.937	970.873
198.402	27.020	1212.621	969.245
199.417	27.065	1212.324	969.159
200.432	27.157	1211.086	968.575
201.446	27.081	1211.065	968.067
202.461	27.438	1210.307	969.274
203.475	27.211	1209.006	966.939
204.490	27.267	1207.441	965.900
205.504	27.058	1206.990	964.347
206.519	27.220	1206.669	964.861
207.534	27.343	1204.755	963.898
208.548	27.081	1204.615	962.313
209.563	27.267	1202.917	961.858
210.577	27.355	1202.962	962.272
211.592	27.389	1202.199	961.759
212.607	27.231	1201.585	960.348
213.621	27.167	1201.619	959.949
214.636	27.360	1200.115	959.684
215.650	27.313	1199.232	958.641
216.665	27.377	1198.134	958.019
217.680	27.315	1197.233	956.884
218.694	27.432	1196.152	956.551
219.709	27.440	1195.240	955.779
220.723	27.667	1194.320	956.152
221.738	27.322	1194.266	954.215
222.753	27.574	1193.072	954.495
223.767	27.331	1192.887	952.988
224.782	27.569	1192.512	953.853
225.796	27.412	1191.563	952.187
226.811	27.409	1191.446	951.993
227.826	27.384	1190.313	950.873
228.840	27.258	1190.844	950.557
229.855	27.574	1189.466	951.021
230.869	27.720	1188.522	950.941
231.884	27.438	1187.909	948.899
232.899	27.488	1188.293	949.380
233.913	27.251	1187.360	947.317
234.928	27.435	1186.891	947.819
235.942	27.530	1185.603	947.202
236.957	27.519	1185.197	946.733
237.972	27.529	1184.584	946.214
238.986	27.563	1184.041	945.871
240.001	27.489	1183.669	945.105
241.015	27.700	1182.080	944.848
242.030	27.876	1181.037	944.843
243.045	27.765	1180.512	943.766
244.059	27.511	1180.167	942.093
245.074	27.569	1179.938	942.123
246.088	27.896	1178.752	942.784
247.103	27.890	1177.942	942.019
248.117	27.733	1177.019	940.389
249.132	27.715	1175.794	939.233
250.147	27.635	1175.793	938.741
251.161	27.783	1174.533	938.411
252.176	27.868	1174.579	938.803
253.190	27.478	1174.506	936.655
254.205	27.694	1172.850	936.361
255.220	27.578	1172.484	935.389
256.234	27.581	1172.673	935.475
257.249	27.710	1171.705	935.279
258.263	27.444	1170.889	933.183
259.278	27.495	1171.430	933.796
260.293	27.752	1169.887	933.794
261.307	27.382	1169.953	931.874
262.322	27.502	1168.756	931.449
263.336	27.680	1167.017	930.888
264.351	27.602	1168.296	931.430
265.366	27.706	1166.798	930.681
266.380	27.704	1165.967	929.926
267.395	27.535	1166.018	929.024
268.409	27.541	1165.196	928.319
269.424	27.760	1164.443	928.749
270.439	27.570	1163.937	927.298
271.453	27.508	1163.220	926.330
272.468	27.715	1161.383	925.835
273.482	27.525	1162.621	925.778
274.497	27.622	1161.160	925.021
275.512	27.681	1160.816	924.968
276.526	27.667	1160.223	924.339
277.541	27.559	1159.076	922.801
278.555	27.549	1158.414	922.137
279.570	27.859	1157.358	922.782
280.585	27.616	1157.633	921.692
281.599	27.712	1156.062	920.848
282.614	27.775	1155.073	920.292
283.628	27.696	1153.978	918.942
284.643	27.716	1154.037	919.008
285.657	27.719	1152.738	917.910
286.672	27.647	1152.084	916.943
287.687	27.848	1151.236	917.200
288.701	27.601	1150.664	915.419
289.716	27.828	1149.595	915.629
290.730	27.672	1149.603	914.771
291.745	27.711	1148.803	914.249
292.760	27.867	1147.918	914.243
293.774	27.881	1146.163	912.838
294.789	27.923	1146.328	913.096
295.803	27.916	1145.715	912.491
296.818	27.873	1145.908	912.352
297.833	27.488	1145.862	910.309
298.847	27.691	1144.760	910.368
299.862	27.813	1143.287	909.725
300.876	27.833	1143.480	909.894
301.891	27.889	1142.081	908.978
302.906	27.570	1141.393	906.766
303.920	27.878	1140.544	907.542
304.935	27.673	1141.595	907.278
305.949	28.004	1139.967	907.549
306.964	27.779	1138.783	905.410
307.979	27.701	1139.212	905.282
308.993	27.695	1138.187	904.359
310.008	28.030	1137.988	905.778
311.022	27.962	1136.209	903.949
312.037	27.948	1135.384	903.144
313.052	27.960	1134.442	902.372
314.066	27.650	1134.922	901.141
315.081	27.839	1133.470	900.843
316.095	27.799	1132.958	900.161
317.110	27.998	1131.894	900.213
318.125	27.939	1131.087	899.202
319.139	27.827	1130.474	898.085
320.154	27.733	1130.456	897.527
321.168	28.197	1129.293	898.806
322.183	27.792	1128.733	896.292
323.197	27.806	1128.684	896.239
324.212	27.943	1127.786	896.120
325.227	27.753	1127.811	895.130
326.241	27.618	1127.711	894.308
327.256	28.080	1126.340	895.403
328.270	28.032	1125.059	894.071
329.285	27.557	1124.963	891.593
330.300	27.743	1124.114	891.753
331.314	27.976	1122.895	891.843
332.329	27.762	1122.756	890.608
333.343	27.852	1121.924	890.307
334.358	27.990	1120.703	889.936
335.373	27.759	1119.705	887.939
336.387	27.950	1118.846	888.107
337.402	27.885	1118.438	887.390
338.416	27.754	1117.823	886.185
339.431	27.875	1117.846	886.716
340.446	27.588	1117.782	885.189
341.460	27.616	1116.472	884.209
342.475	27.734	1115.707	884.101
343.489	27.741	1115.286	883.721
344.504	28.181	1113.143	884.069
345.519	28.065	1112.823	883.181
346.533	27.668	1112.451	880.886
347.548	27.852	1110.841	880.424
348.562	27.801	1110.482	879.814
349.577	27.755	1109.957	879.099
350.592	28.062	1108.990	879.732
351.606	27.729	1108.427	877.608
352.621	28.081	1108.064	878.934
353.635	28.089	1106.938	878.002
354.650	28.034	1106.883	877.616
355.665	28.109	1105.818	877.054
356.679	27.940	1106.144	876.425
357.694	28.151	1104.633	876.159
358.708	27.984	1104.794	875.407
359.723	27.994	1103.182	874.105
360.738	27.975	1102.630	873.499
361.752	28.051	1102.331	873.546
362.767	27.900	1102.236	872.673
363.781	27.782	1101.046	871.088
364.796	28.065	1100.080	871.599
365.810	27.816	1100.580	870.730
366.825	28.055	1100.040	871.362
367.840	28.033	1098.456	869.927
368.854	27.829	1099.031	869.337
369.869	27.939	1097.823	868.827
370.883	27.779	1097.036	867.365
371.898	28.189	1095.997	868.415
372.913	28.208	1096.030	868.453
373.927	28.024	1095.143	866.799
374.942	28.018	1094.387	866.098
375.956	27.952	1094.741	865.986
376.971	27.840	1094.658	865.313
377.986	28.030	1092.729	864.612
379.000	28.150	1092.366	864.815
380.015	28.116	1091.754	864.094
381.029	27.980	1091.427	863.116
382.044	28.031	1090.702	862.707
383.059	27.735	1090.361	860.966
384.073	28.070	1088.950	861.352
385.088	27.983	1088.393	860.427
386.102	27.915	1087.621	859.420
387.117	28.173	1085.812	859.127
388.132	27.940	1085.108	857.399
389.146	28.130	1084.400	857.654
390.161	28.028	1084.015	856.798
391.175	28.259	1082.987	856.990
392.190	27.986	1082.686	855.400
393.205	28.256	1081.980	856.029
394.219	28.166	1082.141	855.656
395.234	27.746	1082.099	853.586
396.248	27.718	1080.548	852.155
397.263	28.106	1078.731	852.456
398.278	27.677	1079.836	851.253
399.292	27.770	1078.489	850.546
400.307	28.062	1077.514	851.062
401.321	27.977	1076.265	849.607
402.336	27.990	1075.340	848.862
403.350	27.842	1075.116	847.921
404.365	27.972	1075.767	848.963
405.380	28.169	1073.417	847.947
406.394	28.048	1074.049	847.811
407.409	28.156	1073.133	847.514
408.423	27.929	1071.871	845.390
409.438	27.878	1071.836	845.051
410.453	28.144	1070.640	845.262
411.467	27.929	1070.069	843.744
412.482	28.073	1068.586	843.164
413.496	27.994	1068.244	842.455
414.511	27.936	1067.933	841.871
415.526	27.933	1068.369	842.125
416.540	27.800	1068.300	841.385
417.555	28.125	1066.128	841.095
418.569	28.128	1065.943	840.885
419.584	27.918	1066.116	839.982
420.599	27.868	1064.908	838.728
421.613	152.764	1404.863	1794.083
422.628	140.524	1454.343	1794.180
