DTS Sentinel unit serial number:	SN413079Multiplexer serial number:	ORYXHardware model number:	OX4-SRSoftware version number:	ORYX F/W v4.00 Oryx Data Collector v3.7.2.0data status	okinstallation	princeton_trtdifferential loss correction	single-endedforward channel	channel 2reverse channel	N/Adate	2019/09/12time	23:11:35forward acquisition time	60.00reverse acquisition time	0.00gamma	496.2192k internal	0.2332k external	0.2332temperature offset calibration	1.0168default loss term (dB/km)	0.3790temperature slope calibration	1.0000multiplexer offset coefficient	1.0000multiplexer slope coefficient	1.0000fibre end	0.00T internal ref (°C)	29.19T ext. ref 1 (°C)	3.72T ext. ref 2 (°C)	23.74length (m)	temperature (°C)	Stokes	anti-Stokes-747.200	284.251	-0.055	0.099
-746.185	-29.880	0.303	0.174
-745.171	580.355	-0.067	-0.166
-744.156	-116.515	-0.308	0.057
-743.142	-137.983	0.059	0.007
-742.127	-56.785	-0.238	0.106
-741.112	320.730	-0.101	0.192
-740.098	217.952	0.133	-0.214
-739.083	529.941	0.050	-0.119
-738.069	-124.356	-0.223	0.035
-737.054	354.742	0.014	0.028
-736.039	331.093	-0.130	0.252
-735.025	-185.135	-0.093	0.001
-734.010	43.328	-0.105	-0.096
-732.996	53.239	-0.130	-0.126
-731.981	799.034	-0.038	-0.107
-730.966	-200.000	-0.000	-0.097
-729.952	-41.332	-0.278	0.144
-728.937	149.630	-0.044	-0.060
-727.923	91.745	-0.092	0.104
-726.908	-123.077	-0.302	-0.049
-725.894	-11.352	0.119	0.079
-724.879	-89.260	-0.120	0.035
-723.864	26.221	0.324	-0.272
-722.850	800.000	0.017	-0.057
-721.835	-124.439	0.175	0.027
-720.821	-200.000	0.018	-0.478
-719.806	-109.150	-0.120	-0.026
-718.791	800.000	-0.040	-0.162
-717.777	3.356	-0.024	-0.018
-716.762	-41.981	0.265	0.136
-715.748	-122.444	0.083	-0.014
-714.733	284.467	-0.100	-0.180
-713.718	-75.629	-0.234	-0.084
-712.704	503.280	0.051	-0.119
-711.689	-200.000	0.023	-0.219
-710.675	469.748	-0.174	-0.394
-709.660	249.883	-0.009	-0.015
-708.645	130.055	-0.072	0.093
-707.631	-43.843	-0.074	-0.038
-706.616	287.809	0.242	0.439
-705.602	-78.580	-0.286	-0.098
-704.587	-96.623	0.241	-0.064
-703.572	292.481	-0.076	0.140
-702.558	18.919	0.205	0.165
-701.543	-119.876	0.177	-0.031
-700.529	238.975	0.056	-0.094
-699.514	-0.544	-0.117	0.084
-698.499	-9.075	0.373	-0.250
-697.485	-123.557	0.398	-0.064
-696.470	75.787	-0.214	0.227
-695.456	-200.000	0.037	0.189
-694.441	-135.379	-0.188	-0.023
-693.426	-72.093	-0.320	0.119
-692.412	-21.512	-0.178	-0.109
-691.397	-85.237	-0.213	0.067
-690.383	205.960	0.092	-0.144
-689.368	42.494	0.136	-0.124
-688.354	-152.437	-0.401	0.029
-687.339	-105.320	0.114	-0.026
-686.324	78.911	0.156	-0.167
-685.310	-142.206	-0.292	0.029
-684.295	-9.599	-0.109	0.073
-683.281	-113.814	-0.115	0.023
-682.266	196.444	-0.104	-0.159
-681.251	-46.374	-0.090	0.044
-680.237	-5.787	-0.119	0.082
-679.222	6.592	-0.339	0.253
-678.208	-200.000	0.019	0.139
-677.193	-186.264	-0.044	-0.001
-676.178	440.170	-0.039	-0.086
-675.164	-122.532	-0.551	0.090
-674.149	639.787	0.073	-0.185
-673.135	-36.048	0.207	-0.112
-672.120	-95.699	-0.270	0.072
-671.105	-71.925	0.374	-0.140
-670.091	-200.000	-0.033	-0.424
-669.076	-200.000	0.012	0.287
-668.062	375.432	0.109	0.224
-667.047	800.000	-0.104	0.299
-666.032	-16.516	-0.080	0.051
-665.018	800.000	0.165	-0.520
-664.003	10.246	0.241	0.184
-662.989	-49.779	0.090	0.043
-661.974	-200.000	-0.305	0.001
-660.959	-115.028	-0.120	0.023
-659.945	-24.700	-0.236	0.141
-658.930	135.533	-0.128	0.167
-657.916	-12.018	-0.113	-0.074
-656.901	60.583	-0.292	-0.290
-655.886	-45.128	-0.099	-0.050
-654.872	260.396	-0.116	-0.202
-653.857	183.512	0.217	-0.322
-652.843	-112.447	0.181	0.036
-651.828	-200.000	-0.012	-0.289
-650.814	800.000	0.121	-0.363
-649.799	-64.971	-0.348	0.141
-648.784	9.621	0.219	-0.166
-647.770	479.553	-0.163	-0.370
-646.755	-5.819	0.196	-0.134
-645.741	-20.430	0.322	0.199
-644.726	113.986	-0.065	-0.079
-643.711	10.074	-0.279	-0.212
-642.697	-105.928	0.214	-0.048
-641.682	-104.951	-0.068	0.016
-640.668	-29.550	0.063	0.036
-639.653	-81.020	0.152	0.051
-638.638	-126.820	0.116	-0.017
-637.624	-105.631	-0.275	-0.062
-636.609	462.115	0.093	0.209
-635.595	-55.123	0.083	0.037
-634.580	17.831	0.146	-0.117
-633.565	752.187	-0.084	0.228
-632.551	396.140	-0.083	0.173
-631.536	-163.809	0.208	0.010
-630.522	-200.000	0.035	-0.236
-629.507	177.883	0.125	0.182
-628.492	-200.000	-0.012	0.070
-627.478	15.268	-0.089	0.070
-626.463	800.000	0.060	-0.179
-625.449	-80.772	0.196	-0.065
-624.434	-78.716	-0.174	-0.060
-623.419	469.901	0.068	0.152
-622.405	-69.576	0.132	0.051
-621.390	127.612	-0.122	0.156
-620.376	-71.541	-0.313	-0.117
-619.361	800.000	0.030	0.121
-618.346	531.185	-0.125	-0.295
-617.332	-178.210	-0.140	-0.003
-616.317	-11.083	-0.098	0.065
-615.303	800.000	-0.060	0.235
-614.288	800.000	-0.055	-0.207
-613.273	-88.764	0.309	-0.092
-612.259	-96.467	0.176	-0.046
-611.244	642.655	-0.085	0.217
-610.230	-99.122	-0.078	0.020
-609.215	271.295	0.066	-0.116
-608.201	349.617	-0.017	-0.034
-607.186	26.108	0.080	0.067
-606.171	-200.000	0.044	-0.215
-605.157	-48.179	0.105	-0.050
-604.142	135.256	-0.098	-0.128
-603.128	585.837	-0.028	-0.070
-602.113	-45.592	-0.267	-0.132
-601.098	218.237	0.056	0.090
-600.084	-62.701	-0.290	-0.120
-599.069	-27.761	0.036	0.021
-598.055	234.314	0.206	0.340
-597.040	84.135	0.366	-0.400
-596.025	-27.134	-0.225	-0.131
-595.011	-200.000	0.091	-0.446
-593.996	-31.857	-0.216	-0.121
-592.982	800.000	-0.022	0.067
-591.967	149.509	0.189	0.256
-590.952	-94.718	-0.413	0.112
-589.938	-86.506	-0.172	0.053
-588.923	48.460	0.087	-0.081
-587.909	-136.745	0.452	-0.052
-586.894	321.968	0.143	-0.272
-585.879	-11.788	0.041	0.027
-584.865	-200.000	-0.032	-0.324
-583.850	-88.852	0.131	-0.039
-582.836	-200.000	-0.052	0.237
-581.821	199.938	0.088	0.135
-580.806	-127.832	-0.311	0.045
-579.792	156.445	0.150	0.207
-578.777	-84.548	-0.195	0.062
-577.763	-200.000	-0.001	-0.044
-576.748	-200.000	-0.040	-0.484
-575.733	-192.131	0.274	0.003
-574.719	800.000	0.106	0.350
-573.704	36.999	-0.092	0.082
-572.690	-96.776	-0.174	-0.046
-571.675	-200.000	-0.001	0.107
-570.661	304.510	0.068	-0.126
-569.646	-200.000	0.027	-0.263
-568.631	-200.000	-0.054	-0.315
-567.617	82.590	0.186	-0.202
-566.602	97.344	-0.267	-0.307
-565.588	-200.000	-0.003	-0.075
-564.573	0.140	0.165	0.117
-563.558	13.792	-0.089	-0.069
-562.544	521.940	-0.096	-0.225
-561.529	-200.000	0.028	0.191
-560.515	-14.528	-0.168	0.108
-559.500	-100.940	0.087	0.021
-558.485	26.240	0.151	0.126
-557.471	-169.399	-0.088	0.003
-556.456	337.794	0.063	-0.123
-555.442	-9.053	-0.482	-0.322
-554.427	-100.183	0.072	0.018
-553.412	-114.708	-0.259	0.049
-552.398	-2.934	-0.091	-0.064
-551.383	605.208	0.089	-0.221
-550.369	-125.170	0.350	-0.054
-549.354	66.052	-0.292	-0.296
-548.339	-200.000	-0.032	-0.438
-547.325	-97.374	-0.250	0.065
-546.310	800.000	-0.038	0.108
-545.296	-200.000	0.036	-0.207
-544.281	77.555	-0.135	-0.143
-543.266	72.848	0.177	-0.185
-542.252	47.469	-0.150	-0.139
-541.237	-200.000	-0.016	-0.447
-540.223	64.373	-0.307	-0.309
-539.208	-119.723	-0.162	0.028
-538.193	49.142	-0.174	-0.164
-537.179	121.526	0.114	0.141
-536.164	-118.340	0.216	0.038
-535.150	-173.915	0.349	-0.010
-534.135	91.634	-0.135	0.151
-533.121	-200.000	-0.014	-0.238
-532.106	35.875	-0.159	-0.139
-531.091	-86.155	-0.282	-0.087
-530.077	-122.247	0.361	-0.059
-529.062	-130.206	0.264	0.036
-528.048	-73.147	0.059	-0.021
-527.033	800.000	0.085	-0.246
-526.018	-93.685	0.166	0.046
-525.004	-124.095	-0.251	0.039
-523.989	-86.003	0.301	-0.093
-522.975	800.000	0.044	-0.173
-521.960	39.116	0.183	-0.163
-520.945	510.506	-0.183	-0.424
-519.931	-167.669	-0.280	0.011
-518.916	-22.112	-0.100	0.061
-517.902	4.388	0.205	-0.150
-516.887	434.353	0.037	0.081
-515.872	-200.000	0.021	-0.135
-514.858	110.610	-0.033	0.040
-513.843	-200.000	-0.003	0.344
-512.829	-200.000	0.000	-0.063
-511.814	21.494	-0.097	0.079
-510.799	-95.300	-0.171	0.046
-509.785	63.688	0.121	-0.121
-508.770	800.000	0.122	0.385
-507.756	-200.000	-0.021	0.153
-506.741	-200.000	0.008	0.398
-505.726	99.098	0.072	-0.083
-504.712	179.084	-0.032	0.047
-503.697	309.030	0.178	0.332
-502.683	786.836	-0.053	0.145
-501.668	616.548	-0.026	0.066
-500.653	454.447	0.076	0.169
-499.639	-200.000	0.074	0.400
-498.624	-26.111	0.440	-0.258
-497.610	165.769	0.204	0.288
-496.595	736.315	-0.126	0.335
-495.581	257.648	0.035	-0.060
-494.566	-68.866	0.284	-0.109
-493.551	800.000	0.054	-0.181
-492.537	246.246	0.143	-0.239
-491.522	-176.248	-0.149	-0.004
-490.508	203.656	-0.101	-0.156
-489.493	-60.045	-0.139	0.059
-488.478	366.896	-0.072	0.145
-487.464	-0.996	0.048	-0.034
-486.449	-137.759	-0.124	-0.014
-485.435	-113.193	-0.279	-0.055
-484.420	72.217	-0.219	0.228
-483.405	358.484	-0.161	0.321
-482.391	44.815	-0.082	0.075
-481.376	281.526	-0.074	0.132
-480.362	-70.441	-0.027	-0.010
-479.347	-144.085	0.030	0.003
-478.332	800.000	-0.040	0.138
-477.318	-70.693	-0.202	-0.076
-476.303	-92.380	0.143	-0.040
-475.289	55.060	0.053	0.051
-474.274	76.815	0.034	0.035
-473.259	-37.821	-0.164	0.087
-472.245	79.249	-0.160	0.170
-471.230	13.076	0.284	0.219
-470.216	-15.771	-0.304	0.193
-469.201	-152.094	-0.420	0.030
-468.186	139.865	-0.152	0.200
-467.172	206.187	0.095	-0.147
-466.157	447.051	-0.146	-0.320
-465.143	163.581	-0.127	0.178
-464.128	6.331	0.131	-0.097
-463.113	333.932	0.181	-0.349
-462.099	276.751	-0.074	0.130
-461.084	-34.635	0.315	0.171
-460.070	-108.253	-0.061	0.013
-459.055	800.000	0.063	-0.252
-458.040	-62.169	-0.349	-0.145
-457.026	-30.430	-0.207	0.117
-456.011	-200.000	-0.013	-0.235
-454.997	-12.315	0.080	0.052
-453.982	-138.902	0.180	-0.019
-452.968	-128.188	0.220	0.031
-451.953	375.723	-0.067	0.136
-450.938	8.012	-0.234	0.175
-449.924	473.394	-0.086	0.194
-448.909	800.000	0.061	-0.192
-447.895	-41.858	-0.087	-0.045
-446.880	452.147	-0.086	-0.188
-445.865	800.000	-0.120	0.338
-444.851	281.676	0.145	-0.259
-443.836	-59.693	0.271	-0.116
-442.822	109.723	0.020	0.024
-441.807	-63.608	-0.215	-0.088
-440.792	-67.961	0.277	-0.108
-439.778	800.000	-0.030	-0.084
-438.763	-54.517	-0.160	0.072
-437.749	150.118	-0.130	-0.176
-436.734	-68.910	-0.117	-0.045
-435.719	5.115	-0.037	0.027
-434.705	-167.075	0.190	0.008
-433.690	304.002	0.047	0.087
-432.676	303.316	0.175	0.321
-431.661	64.477	0.082	0.082
-430.646	-55.371	-0.094	-0.042
-429.632	23.241	-0.251	-0.205
-428.617	-200.000	-0.020	-0.099
-427.603	124.066	0.355	-0.443
-426.588	41.442	-0.264	0.237
-425.573	800.000	0.068	-0.235
-424.559	-135.135	0.151	-0.018
-423.544	79.877	-0.080	-0.085
-422.530	-173.470	-0.222	0.007
-421.515	104.565	0.136	-0.159
-420.500	75.539	-0.209	-0.219
-419.486	-38.022	-0.297	-0.157
-418.471	-29.524	0.297	0.169
-417.457	-112.943	0.175	0.034
-416.442	-200.000	-0.008	-0.201
-415.428	-71.707	0.199	0.074
-414.413	-64.781	-0.069	0.028
-413.398	12.914	0.309	0.237
-412.384	-103.535	-0.124	-0.029
-411.369	-200.000	-0.029	0.307
-410.355	-200.000	0.049	-0.242
-409.340	683.236	0.064	0.165
-408.325	-200.000	0.282	0.001
-407.311	-142.884	0.358	0.035
-406.296	115.163	-0.134	0.162
-405.282	185.331	-0.134	0.197
-404.267	4.891	0.115	0.084
-403.252	-21.365	0.156	0.095
-402.238	100.056	-0.197	0.227
-401.223	-99.418	0.169	0.042
-400.209	-56.615	0.386	0.170
-399.194	-25.739	-0.299	-0.175
-398.179	-200.000	0.028	-0.126
-397.165	-94.540	-0.140	-0.038
-396.150	-200.000	-0.003	0.028
-395.136	-99.773	0.413	0.103
-394.121	-64.131	0.163	-0.066
-393.106	35.878	-0.229	-0.200
-392.092	-153.167	0.339	0.024
-391.077	-95.870	-0.262	0.069
-390.063	800.000	0.070	-0.285
-389.048	731.929	-0.041	-0.107
-388.033	43.129	0.077	-0.070
-387.019	-48.078	0.120	-0.057
-386.004	-200.000	0.045	0.363
-384.990	-88.867	0.072	-0.021
-383.975	-165.545	-0.282	-0.012
-382.960	266.851	0.132	0.228
-381.946	-200.000	0.023	-0.388
-380.931	-148.227	0.211	-0.017
-379.917	126.668	-0.170	0.213
-378.902	-97.319	0.300	-0.077
-377.888	-141.233	-0.066	-0.007
-376.873	32.824	0.136	0.117
-375.858	-86.682	-0.199	-0.060
-374.844	-200.000	0.040	0.186
-373.829	404.801	-0.135	-0.281
-372.815	3.422	-0.192	-0.139
-371.800	800.000	0.127	-0.352
-370.785	-5.939	-0.207	0.140
-369.771	114.781	-0.081	0.098
-368.756	428.515	0.181	0.389
-367.742	-191.414	-0.115	0.001
-366.727	151.897	0.101	-0.137
-365.712	-200.000	-0.001	0.081
-364.698	-116.607	-0.156	-0.029
-363.683	-110.903	-0.404	0.082
-362.669	26.031	-0.255	0.210
-361.654	648.556	0.109	0.276
-360.639	800.000	-0.065	-0.241
-359.625	-138.841	0.027	0.003
-358.610	1.932	0.192	-0.137
-357.596	11.264	0.418	-0.317
-356.581	341.476	-0.043	0.082
-355.566	17.833	-0.064	-0.051
-354.552	800.000	0.057	-0.172
-353.537	77.984	-0.181	-0.191
-352.523	-87.701	-0.223	-0.067
-351.508	-129.458	0.057	-0.008
-350.493	-31.903	-0.231	-0.128
-349.479	-36.764	0.038	0.020
-348.464	181.333	-0.130	0.190
-347.450	-200.000	-0.023	-0.127
-346.435	-128.306	0.535	0.075
-345.420	-126.650	-0.010	-0.002
-344.406	-67.648	0.354	-0.137
-343.391	230.892	0.134	-0.218
-342.377	222.419	-0.196	-0.313
-341.362	-151.930	0.246	0.018
-340.348	128.382	-0.142	-0.180
-339.333	43.744	0.131	0.119
-338.318	-200.000	-0.014	-0.192
-337.304	-159.072	0.222	0.012
-336.289	-200.000	-0.022	0.210
-335.275	-37.159	0.135	0.072
-334.260	69.433	-0.334	0.341
-333.245	271.593	0.186	-0.324
-332.231	-48.937	0.200	0.095
-331.216	44.279	0.121	0.110
-330.202	-200.000	-0.101	-0.582
-329.187	-200.000	0.021	0.168
-328.172	78.540	-0.062	-0.066
-327.158	622.489	0.095	-0.237
-326.143	125.913	-0.080	0.100
-325.129	96.678	-0.130	0.148
-324.114	-68.959	-0.398	-0.152
-323.099	-101.685	-0.153	0.037
-322.085	-10.324	0.113	0.074
-321.070	312.706	-0.038	0.071
-320.056	-200.000	0.005	0.199
-319.041	151.091	-0.108	0.145
-318.026	259.482	-0.052	0.089
-317.012	393.066	-0.137	0.283
-315.997	-165.758	-0.204	0.009
-314.983	182.119	0.175	0.255
-313.968	25.683	-0.169	0.139
-312.953	-200.000	0.014	-0.090
-311.939	-45.205	-0.349	0.171
-310.924	315.258	0.135	0.251
-309.910	-63.529	-0.098	-0.040
-308.895	-119.826	-0.106	-0.018
-307.880	-36.260	0.181	0.097
-306.866	-132.092	-0.052	0.007
-305.851	-200.000	0.031	0.327
-304.837	114.530	0.159	-0.191
-303.822	-200.000	0.014	-0.192
-302.807	196.926	0.083	0.125
-301.793	-200.000	0.023	0.120
-300.778	-200.000	0.011	-0.235
-299.764	91.186	-0.118	-0.131
-298.749	-200.000	0.018	0.427
-297.735	5.936	-0.192	0.141
-296.720	93.719	0.124	-0.138
-295.705	-200.000	-0.011	0.204
-294.691	-89.057	-0.353	0.103
-293.676	-200.000	0.051	0.239
-292.662	222.937	-0.110	0.175
-291.647	-153.979	-0.180	0.012
-290.632	-49.080	-0.333	0.157
-289.618	177.367	0.066	0.096
-288.603	-131.003	-0.043	-0.006
-287.589	-125.928	0.442	0.066
-286.574	-44.221	0.212	0.105
-285.559	249.013	-0.090	-0.151
-284.545	-156.851	0.189	-0.011
-283.530	125.223	0.075	-0.094
-282.516	19.416	-0.174	-0.138
-281.501	166.878	-0.091	-0.128
-280.486	377.265	0.060	-0.121
-279.472	800.000	0.045	-0.153
-278.457	316.367	-0.030	0.056
-277.443	-200.000	-0.026	-0.161
-276.428	-59.709	-0.313	0.132
-275.413	151.562	-0.121	0.163
-274.399	-156.321	-0.208	0.013
-273.384	800.000	0.163	0.543
-272.370	60.819	0.230	-0.225
-271.355	800.000	0.116	0.320
-270.340	-200.000	-0.178	0.000
-269.326	-76.239	-0.083	-0.029
-268.311	800.000	0.039	-0.126
-267.297	99.470	0.090	-0.103
-266.282	-197.078	-0.299	0.002
-265.267	-48.047	-0.070	-0.033
-264.253	-139.583	-0.224	0.024
-263.238	-83.141	-0.034	0.011
-262.224	22.837	-0.272	0.220
-261.209	8.488	0.051	0.038
-260.195	0.362	-0.141	-0.099
-259.180	262.483	0.120	0.206
-258.165	109.671	0.064	-0.076
-257.151	8.555	0.213	0.158
-256.136	3.333	-0.164	0.118
-255.122	103.572	0.140	0.163
-254.107	-111.179	0.202	0.041
-253.092	-71.504	0.094	0.035
-252.078	747.955	-0.039	-0.105
-251.063	-140.710	0.191	-0.019
-250.049	26.528	-0.176	-0.145
-249.034	-147.695	-0.130	-0.011
-248.019	-200.000	-0.003	-0.072
-247.005	-200.000	-0.019	0.213
-245.990	-200.000	-0.059	0.290
-244.976	-142.803	0.029	0.003
-243.961	-85.807	-0.280	0.086
-242.946	-119.846	-0.369	-0.063
-241.932	250.536	0.012	0.021
-240.917	-12.175	0.098	-0.063
-239.903	-200.000	-0.009	-0.068
-238.888	800.000	-0.047	0.198
-237.873	727.154	-0.078	0.205
-236.859	800.000	-0.027	0.074
-235.844	-200.000	0.041	-0.402
-234.830	170.099	-0.207	-0.292
-233.815	520.681	0.154	0.356
-232.800	-79.713	0.299	0.099
-231.786	-115.853	-0.308	0.057
-230.771	-33.047	-0.309	0.169
-229.757	215.172	0.114	-0.179
-228.742	-46.624	-0.253	0.122
-227.727	81.664	0.154	0.165
-226.713	-14.318	0.109	0.069
-225.698	-90.185	0.176	0.051
-224.684	280.275	-0.107	0.188
-223.669	-154.685	-0.199	0.013
-222.655	-200.000	-0.058	-0.543
-221.640	8.765	0.340	0.253
-220.625	-16.066	0.316	0.198
-219.611	16.742	-0.275	0.215
-218.596	242.484	-0.139	0.230
-217.582	93.055	0.165	-0.184
-216.567	42.473	-0.336	-0.301
-215.552	-12.209	-0.291	0.188
-214.538	7.770	0.058	-0.043
-213.523	-32.212	0.297	0.164
-212.509	340.446	-0.023	-0.043
-211.494	-127.465	0.209	0.030
-210.479	-32.439	-0.311	-0.171
-209.465	-84.360	0.198	0.062
-208.450	70.044	0.119	-0.121
-207.436	-200.000	-0.002	-0.035
-206.421	800.000	0.071	0.284
-205.406	203.311	0.065	-0.098
-204.392	74.488	-0.068	-0.071
-203.377	-200.000	-0.009	-0.150
-202.363	187.014	0.314	0.461
-201.348	385.982	-0.063	0.127
-200.333	419.899	-0.101	0.212
-199.319	-129.029	0.484	0.067
-198.304	50.720	-0.093	-0.087
-197.290	-200.000	0.041	-0.535
-196.275	91.872	0.219	-0.243
-195.260	-200.000	-0.035	0.235
-194.246	-122.554	0.207	0.033
-193.231	800.000	-0.047	0.159
-192.217	-117.141	0.109	-0.020
-191.202	-140.079	0.205	-0.021
-190.187	-137.595	-0.123	-0.014
-189.173	-133.635	0.340	-0.042
-188.158	79.304	-0.108	-0.114
-187.144	183.107	-0.026	0.037
-186.129	-89.115	0.103	-0.030
-185.114	-30.953	-0.192	0.106
-184.100	150.923	0.061	-0.082
-183.085	59.304	-0.062	0.060
-182.071	66.003	0.058	-0.058
-181.056	-200.000	0.066	0.469
-180.042	57.773	0.177	-0.170
-179.027	-200.000	-0.024	-0.126
-178.012	-111.107	0.399	-0.080
-176.998	-1.720	-0.170	-0.118
-175.983	-76.366	-0.414	0.143
-174.969	-200.000	-0.008	-0.123
-173.954	600.394	0.084	0.205
-172.939	800.000	0.079	-0.285
-171.925	-32.511	0.070	0.038
-170.910	728.098	0.061	-0.160
-169.896	34.329	-0.198	0.170
-168.881	-200.000	0.052	0.306
-167.866	-151.596	-0.125	-0.009
-166.852	-200.000	0.034	-0.173
-165.837	83.065	0.199	0.213
-164.823	-67.118	0.055	0.021
-163.808	656.914	0.087	-0.219
-162.793	-200.000	0.011	-0.119
-161.779	80.694	0.221	-0.235
-160.764	567.660	-0.231	0.552
-159.750	-53.092	0.127	-0.057
-158.735	11.585	0.135	-0.102
-157.720	257.803	0.125	0.211
-156.706	169.872	0.181	-0.254
-155.691	-57.325	0.236	0.102
-154.677	556.281	-0.087	-0.206
-153.662	52.939	0.065	0.061
-152.647	14.099	-0.406	0.311
-151.633	-100.667	0.301	0.073
-150.618	-111.211	0.213	-0.043
-149.604	-148.163	0.317	0.026
-148.589	-200.000	0.007	0.053
-147.574	-200.000	0.008	-0.082
-146.560	-143.792	0.137	0.013
-145.545	-200.000	-0.076	0.415
-144.531	-114.371	0.238	0.045
-143.516	-109.094	-0.021	-0.004
-142.502	-24.602	-0.061	-0.036
-141.487	-58.883	0.178	0.076
-140.472	-200.000	0.009	0.142
-139.458	-200.000	-0.015	0.140
-138.443	-77.879	0.302	0.102
-137.429	129.825	-0.095	-0.119
-136.414	63.108	0.034	0.033
-135.399	-99.748	-0.180	0.044
-134.385	-200.000	-0.042	-0.230
-133.370	800.000	-0.041	0.154
-132.356	770.861	0.035	-0.094
-131.341	-71.685	0.165	-0.061
-130.326	-87.745	-0.146	0.043
-129.312	-2.116	-0.283	0.195
-128.297	-200.000	0.006	-0.140
-127.283	-200.000	-0.005	-0.094
-126.268	15.329	-0.197	0.152
-125.253	20.395	-0.210	0.167
-124.239	-36.352	0.074	0.039
-123.224	120.534	0.147	-0.180
-122.210	-125.050	-0.290	0.044
-121.195	800.000	0.036	-0.117
-120.180	800.000	0.135	-0.381
-119.166	643.426	-0.011	0.026
-118.151	11.301	0.237	-0.178
-117.137	-105.546	0.327	-0.073
-116.122	-128.445	-0.227	-0.032
-115.107	-200.000	0.070	0.521
-114.093	50.513	0.297	0.275
-113.078	424.036	0.069	-0.146
-112.064	119.559	0.102	-0.124
-111.049	-100.238	0.265	0.065
-110.034	0.713	-0.152	0.107
-109.020	-131.961	-0.276	0.035
-108.005	-200.000	0.073	0.366
-106.991	-98.284	0.344	-0.087
-105.976	-40.511	-0.271	0.138
-104.962	4.859	0.120	0.087
-103.947	82.180	-0.145	0.154
-102.932	-66.525	-0.152	-0.059
-101.918	15.571	0.407	-0.314
-100.903	46.278	-0.040	0.036
-99.889	-20.645	-0.218	-0.131
-98.874	122.013	0.138	0.169
-97.859	48.442	0.181	0.167
-96.845	-136.415	0.138	0.016
-95.830	46.908	-0.238	0.217
-94.816	-200.000	-0.008	0.095
-93.801	274.000	-0.096	-0.166
-92.786	-51.437	0.346	-0.158
-91.772	-91.602	0.225	0.063
-90.757	-84.237	0.109	-0.034
-89.743	-163.517	0.437	0.020
-88.728	-40.665	0.563	-0.286
-87.713	800.000	0.021	0.066
-86.699	800.000	0.088	-0.301
-85.684	224.185	0.110	-0.174
-84.670	-200.000	-0.007	0.097
-83.655	14.242	0.246	0.188
-82.640	800.000	-0.075	-0.244
-81.626	32.863	-0.091	0.077
-80.611	751.109	-0.064	-0.168
-79.597	-124.699	-0.245	-0.037
-78.582	-38.450	0.135	0.070
-77.567	510.256	-0.040	0.090
-76.553	199.277	-0.053	0.080
-75.538	367.447	-0.097	-0.193
-74.524	49.666	0.139	0.129
-73.509	-200.000	-0.011	0.241
-72.494	800.000	-0.118	0.445
-71.480	-10.476	0.339	-0.220
-70.465	-154.943	0.285	0.018
-69.451	426.336	-0.139	0.294
-68.436	7.649	-0.168	0.123
-67.422	433.928	-0.055	0.118
-66.407	45.143	-0.099	-0.089
-65.392	-28.432	0.325	-0.184
-64.378	-98.926	0.432	0.108
-63.363	-37.734	-0.107	0.056
-62.349	23.597	0.076	-0.061
-61.334	324.330	-0.615	-1.150
-60.319	26.449	0.583	0.477
-59.305	-200.000	-0.239	-1.204
-58.290	736.783	0.420	1.103
-57.276	484.625	0.659	1.468
-56.261	-200.000	110.737	612.089
-55.246	508.076	1509.057	3430.211
-54.232	177.227	2696.208	3843.326
-53.217	103.950	2282.864	2626.849
-52.203	38.198	1892.186	1648.972
-51.188	32.434	1680.978	1421.478
-50.173	29.735	1638.201	1365.346
-49.159	48.667	1693.960	1554.603
-48.144	48.877	1708.096	1569.088
-47.130	31.898	1665.510	1404.155
-46.115	29.292	1650.711	1372.253
-45.100	29.139	1645.550	1366.777
-44.086	29.127	1642.755	1364.311
-43.071	29.083	1640.485	1362.049
-42.057	28.979	1637.897	1359.076
-41.042	29.032	1635.718	1357.602
-40.027	29.080	1634.105	1356.564
-39.013	29.092	1631.973	1354.831
-37.998	29.047	1630.967	1353.613
-36.984	29.116	1629.537	1352.877
-35.969	29.131	1627.898	1351.572
-34.954	29.241	1625.857	1350.632
-33.940	29.248	1624.047	1349.125
-32.925	29.165	1622.927	1347.534
-31.911	29.199	1621.252	1346.335
-30.896	29.189	1618.986	1344.333
-29.881	29.093	1617.957	1342.721
-28.867	29.128	1616.517	1341.732
-27.852	29.233	1614.577	1340.830
-26.838	29.191	1613.425	1339.512
-25.823	29.148	1612.042	1337.997
-24.809	29.240	1610.460	1337.300
-23.794	29.173	1609.480	1335.952
-22.779	29.180	1607.931	1334.660
-21.765	29.237	1605.723	1333.188
-20.750	29.154	1605.094	1332.015
-19.736	29.212	1603.447	1331.012
-18.721	29.232	1601.777	1329.721
-17.706	29.193	1600.463	1328.290
-16.692	29.288	1598.367	1327.182
-15.677	29.254	1597.598	1326.246
-14.663	29.255	1596.083	1324.945
-13.648	29.231	1594.669	1323.548
-12.633	29.213	1592.754	1321.772
-11.619	29.145	1591.535	1320.222
-10.604	29.282	1589.859	1319.766
-9.590	29.213	1588.931	1318.449
-8.575	29.250	1587.475	1317.449
-7.560	29.204	1586.503	1316.264
-6.546	29.238	1585.371	1315.514
-5.531	29.192	1584.569	1314.466
-4.517	29.234	1583.126	1313.517
-3.502	29.242	1581.894	1312.502
-2.487	29.208	1580.313	1310.897
-1.473	28.828	1568.669	1298.502
-0.458	25.983	1548.881	1262.190
0.556	23.948	1549.999	1230.058
1.571	21.442	1573.587	1231.056
2.586	20.890	1586.538	1237.158
3.600	18.800	1533.759	1181.533
4.615	11.515	1427.167	1052.531
5.629	4.936	1365.936	966.591
6.644	3.722	1358.338	953.638
7.659	3.723	1357.323	952.846
8.673	3.687	1356.591	952.022
9.688	3.758	1354.483	950.899
10.702	3.651	1351.153	947.820
11.717	6.797	1356.926	971.156
12.731	14.942	1372.394	1032.610
13.746	21.977	1383.716	1084.673
14.761	23.786	1385.223	1096.932
15.775	23.236	1383.687	1092.231
16.790	22.389	1382.056	1085.623
17.804	21.808	1380.468	1080.699
18.819	21.581	1379.127	1078.156
19.834	21.648	1377.941	1077.546
20.848	21.668	1377.263	1077.045
21.863	21.527	1376.555	1075.525
22.877	21.397	1375.593	1073.885
23.892	21.359	1374.618	1072.795
24.907	21.239	1374.105	1071.560
25.921	21.256	1372.751	1070.515
26.936	21.377	1371.319	1070.043
27.950	21.355	1370.694	1069.325
28.965	21.428	1369.940	1069.094
29.980	21.633	1369.009	1069.523
30.994	21.690	1368.039	1069.018
32.009	21.780	1367.035	1068.688
33.023	21.781	1365.627	1067.495
34.038	21.703	1364.327	1065.912
35.053	21.524	1363.255	1063.892
36.067	21.473	1362.342	1062.774
37.082	21.539	1361.085	1062.102
38.096	21.550	1360.539	1061.648
39.111	21.591	1359.626	1061.088
40.126	21.385	1359.437	1059.600
41.140	21.093	1357.570	1056.287
42.155	20.950	1356.906	1054.807
43.169	20.816	1357.360	1054.257
44.184	20.818	1357.144	1054.009
45.199	21.008	1356.675	1054.702
46.213	21.275	1356.981	1056.459
47.228	21.425	1355.339	1055.995
48.242	21.439	1354.718	1055.501
49.257	21.400	1353.000	1053.833
50.271	21.298	1351.794	1052.185
51.286	21.364	1350.324	1051.345
52.301	21.379	1349.236	1050.499
53.315	21.177	1347.774	1048.051
54.330	21.078	1346.810	1046.617
55.344	21.014	1345.416	1045.060
56.359	20.989	1344.778	1044.322
57.374	20.972	1343.620	1043.229
58.388	20.750	1343.233	1041.506
59.403	20.812	1342.813	1041.457
60.417	20.777	1341.844	1040.407
61.432	20.674	1340.993	1039.036
62.447	20.596	1340.052	1037.750
63.461	20.567	1338.587	1036.356
64.476	20.527	1337.785	1035.399
65.490	20.513	1336.603	1034.310
66.505	20.564	1334.844	1033.162
67.520	20.590	1334.124	1032.669
68.534	20.498	1332.768	1030.984
69.549	20.466	1331.953	1030.067
70.563	20.421	1330.409	1028.519
71.578	20.303	1329.822	1027.277
72.593	20.198	1328.419	1025.482
73.607	20.282	1328.068	1025.612
74.622	20.423	1327.151	1025.646
75.636	20.480	1326.710	1025.555
76.651	20.486	1326.157	1025.069
77.666	20.407	1326.117	1024.485
78.680	20.559	1325.427	1024.757
79.695	20.614	1324.590	1024.339
80.709	20.822	1323.802	1024.866
81.724	20.900	1323.623	1025.093
82.739	21.009	1322.641	1024.882
83.753	21.321	1322.232	1026.312
84.768	21.413	1321.316	1026.050
85.782	21.583	1320.684	1026.462
86.797	21.595	1319.493	1025.519
87.812	21.456	1318.130	1023.554
88.826	21.543	1316.539	1022.733
89.841	21.431	1316.147	1021.689
90.855	21.526	1315.196	1021.414
91.870	21.682	1314.245	1021.495
92.884	21.832	1313.606	1021.778
93.899	21.794	1313.250	1021.194
94.914	21.725	1312.108	1019.810
95.928	21.690	1311.545	1019.080
96.943	21.653	1310.668	1018.094
97.957	21.592	1309.686	1016.886
98.972	21.542	1308.627	1015.682
99.987	21.589	1307.472	1014.971
101.001	21.611	1306.569	1014.304
102.016	21.584	1305.788	1013.457
103.030	21.537	1305.302	1012.718
104.045	21.594	1303.957	1011.913
105.060	21.259	1302.909	1009.074
106.074	20.955	1300.993	1005.750
107.089	20.689	1299.239	1002.770
108.103	20.470	1298.246	1000.656
109.118	20.561	1297.080	1000.192
110.133	20.528	1295.858	998.968
111.147	20.632	1294.169	998.176
112.162	20.678	1293.288	997.670
113.176	20.812	1291.993	997.351
114.191	20.792	1291.431	996.714
115.206	20.788	1290.280	995.718
116.220	20.877	1288.754	994.957
117.235	20.756	1287.708	993.371
118.249	20.705	1286.496	992.059
119.264	20.592	1285.406	990.488
120.279	20.431	1284.703	988.940
121.293	20.394	1283.471	987.698
122.308	20.187	1282.703	985.841
123.322	20.175	1281.072	984.431
124.337	20.127	1280.102	983.328
125.352	20.093	1279.164	982.325
126.366	20.234	1277.715	981.924
127.381	20.091	1277.069	980.533
128.395	20.039	1275.771	979.156
129.410	20.114	1274.526	978.537
130.424	20.293	1274.227	979.231
131.439	20.490	1273.837	979.955
132.454	20.672	1273.060	980.294
133.468	20.629	1272.606	979.620
134.483	20.720	1271.824	979.439
135.497	20.679	1271.124	978.587
136.512	20.728	1269.990	977.899
137.527	20.627	1268.640	976.209
138.541	20.794	1267.312	976.037
139.556	20.937	1265.768	975.562
140.570	21.125	1265.305	976.167
141.585	21.206	1264.380	975.823
142.600	21.349	1263.524	975.872
143.614	21.464	1262.843	975.903
144.629	21.455	1262.542	975.531
145.643	21.460	1260.893	974.201
146.658	21.256	1259.392	971.821
147.673	21.168	1257.741	969.973
148.687	20.975	1256.331	967.725
149.702	20.801	1255.378	965.943
150.716	20.609	1253.795	963.577
151.731	20.675	1252.206	962.633
152.746	20.698	1251.857	962.407
153.760	20.815	1250.618	962.018
154.775	21.083	1249.451	962.514
155.789	21.134	1249.079	962.422
156.804	21.136	1247.727	961.306
157.819	21.159	1247.006	960.791
158.833	21.332	1246.152	961.001
159.848	21.535	1245.611	961.611
160.862	21.362	1244.997	960.106
161.877	21.001	1242.985	956.490
162.892	20.647	1241.892	953.620
163.906	20.685	1240.563	952.727
164.921	20.615	1239.589	951.510
165.935	20.783	1239.189	952.039
166.950	20.897	1238.707	952.208
167.964	20.935	1237.877	951.689
168.979	20.788	1237.198	950.284
169.994	20.890	1236.346	950.102
171.008	20.914	1235.370	949.399
172.023	20.922	1235.047	949.110
173.037	21.122	1235.039	950.107
174.052	21.162	1233.808	949.293
175.067	20.833	1232.429	946.361
176.081	20.632	1231.258	944.288
177.096	20.521	1230.391	942.938
178.110	20.781	1229.194	943.347
179.125	20.885	1228.261	943.107
180.140	20.949	1227.592	942.855
181.154	21.183	1226.748	943.390
182.169	21.161	1225.666	942.355
183.183	21.264	1224.906	942.245
184.198	21.267	1223.557	941.141
185.213	21.291	1222.366	940.269
186.227	21.366	1221.250	939.729
187.242	21.416	1220.489	939.333
188.256	21.605	1219.842	939.765
189.271	21.659	1218.828	939.188
190.286	21.406	1217.986	937.100
191.300	20.883	1216.456	933.041
192.315	20.792	1215.657	931.859
193.329	20.840	1215.057	931.573
194.344	20.734	1214.290	930.335
195.359	20.730	1214.251	930.204
196.373	20.929	1213.280	930.437
197.388	20.951	1213.412	930.576
198.402	21.301	1213.699	932.583
199.417	21.551	1213.386	933.595
200.432	21.716	1212.819	933.951
201.446	21.884	1212.309	934.371
202.461	21.942	1211.193	933.736
203.475	21.835	1209.977	932.148
204.490	21.460	1208.125	928.651
205.504	21.326	1206.623	926.702
206.519	21.246	1205.724	925.508
207.534	21.069	1204.551	923.589
208.548	21.045	1203.774	922.784
209.563	21.194	1202.688	922.656
210.577	21.100	1202.071	921.606
211.592	21.206	1201.730	921.820
212.607	21.408	1201.257	922.441
213.621	21.500	1200.105	921.963
214.636	21.414	1199.222	920.746
215.650	21.535	1198.137	920.468
216.665	21.659	1197.393	920.471
217.680	21.793	1197.041	920.823
218.694	21.967	1196.086	920.916
219.709	21.805	1194.889	919.067
220.723	21.690	1194.644	918.191
221.738	21.786	1193.939	918.072
222.753	21.646	1192.603	916.230
223.767	21.574	1192.174	915.443
224.782	21.786	1192.131	916.436
225.796	22.017	1191.387	916.993
226.811	21.839	1190.400	915.225
227.826	21.668	1189.736	913.738
228.840	21.564	1189.189	912.695
229.855	21.429	1188.453	911.346
230.869	21.567	1187.248	911.059
231.884	21.362	1185.990	908.947
232.899	21.223	1184.847	907.269
233.913	21.081	1184.744	906.375
234.928	21.118	1184.268	906.121
235.942	21.063	1182.802	904.633
236.957	21.009	1182.379	903.951
237.972	20.936	1181.317	902.683
238.986	20.895	1181.358	902.421
240.001	21.107	1180.455	902.749
241.015	21.136	1179.348	901.971
242.030	21.220	1178.674	901.810
243.045	21.349	1178.308	902.116
244.059	21.517	1177.434	902.235
245.074	21.599	1177.206	902.401
246.088	21.668	1176.177	901.889
247.103	21.860	1175.231	902.070
248.117	21.909	1175.014	902.074
249.132	22.090	1174.895	902.833
250.147	22.376	1174.479	903.902
251.161	22.539	1173.942	904.247
252.176	22.737	1173.234	904.637
253.190	22.711	1172.621	903.949
254.205	22.846	1171.911	904.014
255.220	22.922	1171.273	903.832
256.234	22.923	1170.758	903.361
257.249	22.877	1170.099	902.539
258.263	22.612	1169.573	900.699
259.278	22.715	1168.849	900.585
260.293	22.736	1168.233	900.138
261.307	22.776	1167.673	899.832
262.322	22.734	1167.408	899.333
263.336	22.799	1166.853	899.155
264.351	22.871	1165.961	898.756
265.366	22.942	1165.423	898.622
266.380	22.744	1164.993	897.205
267.395	22.776	1163.790	896.362
268.409	22.535	1162.742	894.251
269.424	22.435	1162.323	893.346
270.439	22.491	1161.531	892.939
271.453	22.406	1160.421	891.577
272.468	22.135	1159.709	889.578
273.482	22.065	1158.732	888.400
274.497	22.217	1158.100	888.604
275.512	22.281	1157.025	888.020
276.526	22.164	1157.046	887.369
277.541	22.308	1156.076	887.271
278.555	22.334	1155.723	887.053
279.570	22.700	1155.059	888.309
280.585	22.744	1154.588	888.092
281.599	22.780	1153.653	887.473
282.614	22.529	1152.093	884.935
283.628	22.322	1150.862	882.872
284.643	22.306	1150.456	882.404
285.657	22.222	1149.732	881.348
286.672	22.292	1148.408	880.608
287.687	22.413	1147.607	880.520
288.701	22.456	1146.757	880.006
289.716	22.408	1146.245	879.294
290.730	22.372	1145.443	878.422
291.745	22.413	1144.888	878.120
292.760	22.553	1144.203	878.214
293.774	22.538	1144.203	878.065
294.789	22.795	1143.436	878.679
295.803	22.714	1142.667	877.606
296.818	22.478	1141.673	875.589
297.833	22.457	1140.481	874.497
298.847	22.488	1139.821	874.064
299.862	22.473	1139.198	873.435
300.876	22.424	1138.673	872.713
301.891	22.549	1138.626	873.222
302.906	22.813	1137.607	873.666
303.920	22.983	1137.458	874.317
304.935	23.032	1137.097	874.206
305.949	23.047	1136.879	874.033
306.964	23.112	1135.497	873.215
307.979	23.019	1134.646	872.022
308.993	22.841	1133.685	870.329
310.008	23.036	1133.227	870.864
311.022	23.020	1132.849	870.417
312.037	22.953	1131.801	869.207
313.052	22.852	1130.357	867.524
314.066	22.653	1128.838	865.307
315.081	22.334	1128.252	863.216
316.095	22.293	1127.179	862.117
317.110	22.296	1126.694	861.686
318.125	22.281	1126.240	861.185
319.139	22.222	1125.495	860.250
320.154	22.176	1124.815	859.430
321.168	22.273	1124.189	859.352
322.183	22.148	1124.051	858.560
323.197	22.322	1122.920	858.468
324.212	22.449	1122.549	858.727
325.227	22.436	1122.157	858.289
326.241	22.623	1121.133	858.342
327.256	22.450	1120.172	856.684
328.270	22.375	1119.760	855.931
329.285	22.279	1118.333	854.299
330.300	22.417	1117.568	854.309
331.314	22.393	1116.640	853.406
332.329	22.322	1115.862	852.394
333.343	22.454	1115.313	852.535
334.358	22.560	1114.790	852.575
335.373	22.718	1114.467	853.017
336.387	22.787	1113.608	852.616
337.402	22.936	1112.818	852.655
338.416	22.879	1112.242	851.864
339.431	23.102	1111.746	852.481
340.446	23.256	1111.334	852.833
341.460	23.477	1110.900	853.491
342.475	23.513	1110.039	852.925
343.489	23.683	1109.062	852.917
344.504	23.686	1108.718	852.591
345.519	23.679	1107.628	851.642
346.533	23.719	1106.681	851.031
347.548	23.698	1106.084	850.395
348.562	23.738	1104.833	849.551
349.577	23.308	1104.108	846.863
350.592	23.068	1102.977	844.772
351.606	22.971	1101.858	843.377
352.621	22.826	1101.564	842.385
353.635	22.653	1100.556	840.718
354.650	22.614	1099.975	840.014
355.665	22.768	1099.506	840.314
356.679	22.965	1098.984	840.779
357.694	23.013	1098.593	840.634
358.708	23.069	1098.117	840.459
359.723	23.043	1097.362	839.684
360.738	23.076	1096.532	839.132
361.752	23.180	1095.949	839.106
362.767	23.145	1095.677	838.656
363.781	23.184	1095.205	838.404
364.796	23.409	1094.688	839.001
365.810	23.515	1094.581	839.347
366.825	23.773	1093.857	839.935
367.840	23.915	1093.905	840.571
368.854	24.118	1093.082	840.824
369.869	23.976	1092.199	839.399
370.883	23.803	1090.939	837.542
371.898	23.695	1090.484	836.608
372.913	23.657	1089.467	835.574
373.927	23.516	1089.613	834.948
374.942	23.894	1088.620	835.893
375.956	23.873	1088.063	835.294
376.971	23.640	1087.757	833.887
377.986	23.768	1087.444	834.176
379.000	23.997	1086.677	834.588
380.015	24.021	1086.387	834.402
381.029	24.104	1085.855	834.309
382.044	24.121	1084.788	833.498
383.059	23.980	1084.085	832.222
384.073	23.919	1083.335	831.290
385.088	24.045	1082.532	831.186
386.102	23.928	1081.468	829.749
387.117	23.580	1080.493	827.307
388.132	23.485	1078.893	825.567
389.146	23.524	1077.928	824.938
390.161	23.312	1077.586	823.618
391.175	23.335	1077.229	823.379
392.190	23.530	1076.706	823.808
393.205	23.807	1076.411	824.799
394.219	23.832	1075.318	824.004
395.234	23.603	1074.137	821.967
396.248	23.559	1073.071	820.873
397.263	23.512	1072.011	819.772
398.278	23.306	1071.750	818.547
399.292	23.222	1070.532	817.157
400.307	23.244	1070.007	816.785
401.321	23.320	1069.318	816.536
402.336	23.197	1068.576	815.332
403.350	23.203	1067.834	814.722
404.365	23.294	1067.523	814.832
405.380	23.380	1066.886	814.670
406.394	23.456	1066.414	814.583
407.409	23.735	1065.894	815.398
408.423	24.049	1065.201	816.234
409.438	24.145	1064.525	816.085
410.453	24.158	1064.058	815.715
411.467	24.244	1063.101	815.302
412.482	24.346	1062.846	815.500
413.496	24.281	1062.197	814.633
414.511	24.390	1061.998	814.905
415.526	24.601	1061.311	815.271
416.540	24.529	1061.630	815.112
417.555	24.525	1060.398	814.078
418.569	24.359	1059.875	812.845
419.584	24.263	1059.018	811.683
420.599	24.278	1058.995	811.659
421.613	156.276	1404.200	1797.166
422.628	143.640	1454.465	1797.256
