DTS Sentinel unit serial number:	SN413079Multiplexer serial number:	ORYXHardware model number:	OX4-SRSoftware version number:	ORYX F/W v4.00 Oryx Data Collector v3.7.2.0data status	okinstallation	princeton_trtdifferential loss correction	single-endedforward channel	channel 2reverse channel	N/Adate	2019/09/19time	07:55:34forward acquisition time	60.00reverse acquisition time	0.00gamma	496.2192k internal	0.2351k external	0.2351temperature offset calibration	1.0005default loss term (dB/km)	0.3790temperature slope calibration	1.0000multiplexer offset coefficient	1.0000multiplexer slope coefficient	1.0000fibre end	0.00T internal ref (°C)	19.72T ext. ref 1 (°C)	0.56T ext. ref 2 (°C)	15.17length (m)	temperature (°C)	Stokes	anti-Stokes-747.200	-1.464	0.460	-0.324
-746.185	198.713	0.036	0.055
-745.171	119.527	0.166	-0.205
-744.156	-96.815	-0.340	0.089
-743.142	800.000	-0.151	-0.427
-742.127	382.886	0.158	0.323
-741.112	-200.000	-0.048	0.220
-740.098	241.084	0.061	0.102
-739.083	24.525	0.093	0.077
-738.069	48.445	0.067	0.062
-737.054	-24.512	-0.281	0.167
-736.039	-38.235	-0.116	0.061
-735.025	-138.910	0.275	-0.030
-734.010	-26.717	-0.214	-0.125
-732.996	-200.000	0.033	-0.206
-731.981	7.324	-0.195	-0.145
-730.966	-49.003	0.214	-0.102
-729.952	118.685	-0.161	-0.198
-728.937	30.868	0.175	-0.149
-727.923	-54.914	0.132	-0.060
-726.908	-37.599	0.263	0.140
-725.894	-46.009	-0.484	-0.238
-724.879	-55.512	-0.244	-0.109
-723.864	-104.210	-0.434	-0.100
-722.850	-96.314	-0.013	-0.004
-721.835	-55.533	-0.110	-0.049
-720.821	151.575	0.196	-0.266
-719.806	58.688	-0.248	0.242
-718.791	89.769	-0.220	-0.245
-717.777	800.000	-0.080	-0.269
-716.762	-94.180	0.176	0.048
-715.748	33.951	-0.173	0.150
-714.733	172.377	-0.145	-0.208
-713.718	94.686	-0.264	-0.299
-712.704	-200.000	-0.019	-0.179
-711.689	149.282	-0.139	0.188
-710.675	77.766	-0.309	-0.328
-709.660	-194.666	-0.100	-0.001
-708.645	15.748	0.079	0.062
-707.631	42.343	-0.336	0.305
-706.616	11.254	0.282	-0.215
-705.602	-200.000	0.036	-0.239
-704.587	-118.492	-0.281	-0.050
-703.572	338.101	-0.045	0.086
-702.558	257.748	0.202	-0.346
-701.543	-29.448	-0.189	0.108
-700.529	310.892	-0.042	-0.078
-699.514	-45.167	0.103	0.051
-698.499	-6.816	0.035	-0.024
-697.485	-155.940	0.036	-0.002
-696.470	-44.854	0.132	0.066
-695.456	-13.085	0.169	-0.109
-694.441	389.495	-0.070	-0.145
-693.426	-200.000	0.022	0.184
-692.412	-99.711	0.192	0.048
-691.397	-120.865	0.284	-0.048
-690.383	18.703	-0.095	-0.076
-689.368	-200.000	0.003	-0.277
-688.354	-136.360	0.077	0.009
-687.339	74.255	0.081	-0.085
-686.324	8.383	-0.195	0.146
-685.310	-23.155	-0.228	-0.136
-684.295	-200.000	-0.005	-0.265
-683.281	1.259	-0.394	-0.281
-682.266	-109.398	-0.181	-0.038
-681.251	-141.456	-0.243	-0.025
-680.237	800.000	-0.035	0.104
-679.222	-200.000	0.008	-0.046
-678.208	-57.166	0.245	-0.107
-677.193	-200.000	0.028	-0.336
-676.178	232.927	0.156	-0.256
-675.164	-101.795	-0.260	0.063
-674.149	-130.822	-0.102	-0.014
-673.135	60.363	-0.149	-0.146
-672.120	-116.460	-0.365	0.067
-671.105	-200.000	0.003	0.059
-670.091	-200.000	-0.006	0.064
-669.076	-46.929	0.266	-0.130
-668.062	-54.372	-0.229	-0.103
-667.047	70.169	0.245	-0.252
-666.032	-200.000	-0.050	-0.331
-665.018	-98.052	-0.349	0.090
-664.003	-30.906	-0.142	-0.080
-662.989	753.041	0.126	-0.338
-661.974	-74.813	-0.307	0.109
-660.959	-14.809	0.275	0.176
-659.945	800.000	0.078	0.244
-658.930	-200.000	-0.007	-0.162
-657.916	-89.309	0.349	-0.102
-656.901	-200.000	0.079	0.523
-655.886	800.000	-0.129	0.447
-654.872	36.614	0.195	0.171
-653.857	-200.000	-0.029	0.222
-652.843	800.000	-0.060	-0.200
-651.828	237.274	0.108	-0.178
-650.814	116.227	0.017	-0.021
-649.799	-65.218	0.121	-0.048
-648.784	260.332	-0.071	-0.121
-647.770	-104.309	0.165	0.038
-646.755	-120.848	-0.257	0.043
-645.741	127.188	-0.018	-0.023
-644.726	30.608	0.101	-0.086
-643.711	17.977	0.221	0.175
-642.697	-113.591	-0.222	-0.043
-641.682	-19.165	-0.245	-0.151
-640.668	-200.000	0.171	-0.000
-639.653	254.850	0.222	-0.378
-638.638	100.239	0.125	-0.144
-637.624	-200.000	0.000	-0.126
-636.609	-200.000	-0.008	-0.073
-635.595	-200.000	-0.010	0.261
-634.580	244.273	0.097	0.161
-633.565	782.439	-0.119	0.323
-632.551	113.523	-0.131	-0.158
-631.536	-124.126	0.337	0.053
-630.522	-102.709	0.438	-0.104
-629.507	-200.000	-0.050	-0.250
-628.492	133.403	0.222	-0.285
-627.478	144.066	0.145	0.191
-626.463	-200.000	-0.036	0.292
-625.449	-2.058	0.095	-0.066
-624.434	-45.315	-0.367	0.181
-623.419	800.000	-0.057	0.188
-622.405	800.000	-0.057	0.239
-621.390	-200.000	0.009	0.191
-620.376	457.390	-0.109	-0.240
-619.361	-149.367	0.131	-0.010
-618.346	-53.774	-0.323	0.146
-617.332	413.139	0.186	0.392
-616.317	37.173	-0.062	-0.054
-615.303	-170.197	0.164	-0.006
-614.288	446.688	-0.026	-0.057
-613.273	-200.000	-0.033	0.188
-612.259	-124.084	-0.206	-0.032
-611.244	-200.000	-0.001	-0.129
-610.230	800.000	-0.056	-0.196
-609.215	-116.324	-0.230	-0.042
-608.201	452.052	-0.135	0.296
-607.186	-90.722	0.175	-0.050
-606.171	289.710	-0.119	0.214
-605.157	-51.963	-0.087	0.040
-604.142	674.990	-0.089	-0.229
-603.128	-200.000	0.079	-0.405
-602.113	-55.028	0.377	-0.169
-601.098	314.432	-0.020	0.037
-600.084	-99.422	0.413	-0.103
-599.069	-91.721	-0.302	-0.085
-598.055	-80.149	-0.041	-0.014
-597.040	-200.000	-0.030	0.155
-596.025	-65.126	0.243	0.097
-595.011	-200.000	0.017	0.265
-593.996	241.788	0.132	-0.219
-592.982	180.835	-0.161	0.235
-591.967	91.619	-0.043	0.048
-590.952	-147.098	0.168	0.014
-589.938	-200.000	-0.024	0.179
-588.923	266.669	0.141	-0.245
-587.909	-124.999	-0.276	-0.042
-586.894	362.248	0.162	0.322
-585.879	-27.916	0.097	-0.056
-584.865	-93.224	0.042	-0.012
-583.850	97.203	0.186	0.211
-582.836	69.066	-0.271	0.276
-581.821	480.300	-0.112	-0.251
-580.806	199.559	-0.081	-0.124
-579.792	100.801	0.119	0.137
-578.777	43.549	0.018	0.016
-577.763	-81.655	-0.347	0.113
-576.748	800.000	-0.073	-0.204
-575.733	800.000	0.021	0.074
-574.719	-104.974	-0.193	-0.044
-573.704	29.991	-0.225	0.190
-572.690	-200.000	0.035	0.268
-571.675	-200.000	0.026	0.319
-570.661	-9.697	0.035	-0.023
-569.646	-60.920	0.249	0.104
-568.631	800.000	-0.166	-0.650
-567.617	-17.201	0.061	0.038
-566.602	53.408	-0.084	0.080
-565.588	592.204	0.055	-0.134
-564.573	-45.897	-0.186	-0.091
-563.558	-131.872	0.322	-0.042
-562.544	26.703	-0.227	0.189
-561.529	-7.652	-0.130	0.087
-560.515	-7.294	-0.144	0.097
-559.500	-1.325	-0.030	0.021
-558.485	-115.444	0.387	-0.072
-557.471	389.111	0.062	-0.127
-556.456	-200.000	0.000	-0.087
-555.442	-175.632	0.035	-0.001
-554.427	-200.000	-0.010	-0.070
-553.412	-38.649	0.072	-0.038
-552.398	-66.851	-0.198	-0.078
-551.383	-38.038	-0.115	-0.060
-550.369	192.735	-0.099	0.148
-549.354	-2.519	0.204	0.141
-548.339	-131.776	0.202	-0.026
-547.325	378.805	-0.041	0.084
-546.310	-163.918	0.221	-0.010
-545.296	-182.041	0.525	-0.010
-544.281	477.845	-0.054	-0.122
-543.266	-76.709	-0.162	0.056
-542.252	-31.119	0.134	-0.075
-541.237	-200.000	0.001	-0.262
-540.223	133.096	-0.034	-0.044
-539.208	384.891	-0.005	0.011
-538.193	57.353	-0.143	-0.138
-537.179	-30.994	0.092	0.052
-536.164	-15.023	0.257	0.163
-535.150	119.086	-0.223	-0.273
-534.135	-159.106	-0.244	-0.014
-533.121	-49.597	-0.157	-0.074
-532.106	-200.000	-0.004	0.033
-531.091	91.039	-0.055	0.062
-530.077	-200.000	0.010	-0.202
-529.062	-89.688	-0.044	0.013
-528.048	-11.850	0.075	0.049
-527.033	800.000	-0.043	0.139
-526.018	-81.717	-0.185	0.060
-525.004	-126.837	-0.226	0.033
-523.989	-200.000	0.005	-0.104
-522.975	-162.889	0.138	0.007
-521.960	-200.000	-0.038	-0.165
-520.945	-79.213	0.288	-0.097
-519.931	-200.000	0.035	-0.193
-518.916	-200.000	-0.001	-0.089
-517.902	-200.000	0.000	0.307
-516.887	-200.000	0.069	0.331
-515.872	-13.786	-0.221	0.142
-514.858	-150.553	0.072	0.005
-513.843	-188.288	0.144	0.002
-512.829	-200.000	-0.006	0.170
-511.814	-88.128	0.268	-0.079
-510.799	195.735	-0.033	0.049
-509.785	-200.000	-0.001	-0.056
-508.770	-200.000	-0.031	-0.147
-507.756	800.000	-0.116	-0.402
-506.741	128.999	-0.257	-0.324
-505.726	-160.081	0.074	-0.004
-504.712	-149.696	-0.364	0.028
-503.697	-67.412	-0.109	0.042
-502.683	-200.000	-0.043	0.219
-501.668	338.344	0.034	-0.065
-500.653	228.634	0.122	-0.197
-499.639	336.391	-0.056	0.107
-498.624	21.549	-0.157	-0.126
-497.610	109.904	-0.236	-0.280
-496.595	800.000	0.003	-0.011
-495.581	106.499	0.127	0.149
-494.566	-96.228	-0.304	-0.080
-493.551	-41.624	0.325	0.165
-492.537	-200.000	0.018	-0.155
-491.522	-156.175	-0.264	-0.016
-490.508	-200.000	0.053	-0.284
-489.493	-110.762	-0.233	-0.047
-488.478	73.762	-0.172	0.178
-487.464	-200.000	-0.013	-0.092
-486.449	5.955	-0.215	0.157
-485.435	-16.073	0.074	-0.046
-484.420	800.000	0.061	-0.229
-483.405	616.036	0.185	-0.458
-482.391	529.587	-0.095	0.222
-481.376	-115.323	-0.202	0.038
-480.362	-47.889	0.236	0.113
-479.347	-59.466	0.298	-0.127
-478.332	200.123	0.070	0.106
-477.318	69.272	0.163	-0.166
-476.303	446.039	-0.106	-0.229
-475.289	-49.775	0.138	0.065
-474.274	-28.016	0.296	0.169
-473.259	-26.204	0.111	0.064
-472.245	-8.585	-0.121	0.080
-471.230	-156.770	-0.380	-0.023
-470.216	-200.000	0.002	0.034
-469.201	149.852	-0.109	0.146
-468.186	-200.000	0.023	-0.271
-467.172	-200.000	0.056	-0.297
-466.157	800.000	-0.037	-0.120
-465.143	318.964	0.065	0.122
-464.128	151.604	0.140	-0.188
-463.113	62.818	-0.216	-0.213
-462.099	-97.990	0.040	-0.010
-461.084	-200.000	0.003	-0.296
-460.070	159.383	0.116	0.160
-459.055	123.689	-0.180	-0.222
-458.040	3.567	-0.159	0.114
-457.026	29.011	0.336	0.281
-456.011	67.746	-0.251	0.254
-454.997	6.373	0.005	-0.004
-453.982	484.120	-0.055	0.123
-452.968	-200.000	-0.010	-0.139
-451.953	43.713	0.078	-0.070
-450.938	164.881	0.165	0.229
-449.924	800.000	0.098	0.273
-448.909	-18.571	-0.273	0.168
-447.895	800.000	-0.022	-0.074
-446.880	5.451	0.078	0.057
-445.865	-69.309	0.271	-0.103
-444.851	-200.000	0.065	-0.432
-443.836	-128.005	-0.151	0.021
-442.822	564.620	-0.023	0.056
-441.807	-33.870	-0.160	-0.087
-440.792	-18.091	0.250	-0.154
-439.778	2.503	-0.306	-0.218
-438.763	800.000	-0.062	-0.205
-437.749	-197.160	0.218	-0.001
-436.734	-86.281	-0.337	0.102
-435.719	36.365	0.363	-0.316
-434.705	707.862	0.090	-0.234
-433.690	138.806	0.050	-0.064
-432.676	-200.000	0.007	0.296
-431.661	-81.201	0.236	0.077
-430.646	-135.622	-0.101	-0.012
-429.632	481.586	0.054	-0.121
-428.617	-13.526	0.135	-0.086
-427.603	-78.906	-0.374	-0.125
-426.588	198.832	-0.087	-0.132
-425.573	-56.680	-0.028	0.012
-424.559	800.000	0.022	-0.066
-423.544	740.425	0.064	0.169
-422.530	-200.000	0.041	0.222
-421.515	190.002	-0.109	-0.162
-420.500	30.984	-0.093	0.078
-419.486	178.332	0.111	-0.160
-418.471	-200.000	-0.003	-0.024
-417.457	-200.000	-0.011	0.057
-416.442	-13.730	-0.311	0.198
-415.428	-101.786	0.237	0.056
-414.413	-121.360	0.301	-0.049
-413.398	-71.000	0.303	-0.112
-412.384	55.670	-0.141	-0.134
-411.369	-200.000	0.000	-0.187
-410.355	-49.460	-0.228	0.107
-409.340	-84.253	-0.045	0.014
-408.325	800.000	0.032	-0.098
-407.311	-3.022	0.120	-0.082
-406.296	-200.000	0.079	0.432
-405.282	287.605	-0.063	0.113
-404.267	66.040	0.099	-0.099
-403.252	63.431	-0.095	0.094
-402.238	-99.518	0.215	-0.053
-401.223	321.463	-0.049	0.093
-400.209	32.637	0.074	0.063
-399.194	-16.246	-0.194	-0.121
-398.179	125.916	0.207	0.257
-397.165	248.250	-0.193	0.321
-396.150	-138.671	0.273	0.029
-395.136	-200.000	-0.000	-0.289
-394.121	304.507	-0.034	-0.062
-393.106	-200.000	-0.020	0.176
-392.092	-200.000	-0.018	0.131
-391.077	800.000	-0.034	0.111
-390.063	-200.000	0.004	0.265
-389.048	-200.000	-0.035	0.297
-388.033	-83.008	0.299	0.095
-387.019	-6.646	0.023	0.016
-386.004	5.413	-0.371	-0.269
-384.990	-200.000	0.205	0.000
-383.975	-119.513	-0.241	-0.041
-382.960	106.045	0.368	-0.429
-381.946	-75.326	-0.074	-0.026
-380.931	-116.915	-0.167	0.030
-379.917	-200.000	0.001	-0.214
-378.902	785.507	-0.026	0.070
-377.888	-200.000	0.042	-0.246
-376.873	-48.367	0.230	0.109
-375.858	800.000	-0.084	0.230
-374.844	-98.960	-0.239	0.060
-373.829	-200.000	0.003	-0.137
-372.815	295.403	-0.107	-0.192
-371.800	-25.546	-0.276	0.160
-370.785	185.356	0.187	-0.273
-369.771	-23.934	0.142	0.083
-368.756	-194.040	0.169	-0.001
-367.742	800.000	-0.031	0.110
-366.727	-200.000	0.005	0.206
-365.712	186.558	-0.139	0.203
-364.698	1.080	0.167	-0.117
-363.683	26.198	-0.049	-0.040
-362.669	97.901	-0.090	0.101
-361.654	648.804	0.131	0.331
-360.639	-200.000	-0.054	-0.417
-359.625	-147.127	0.213	-0.018
-358.610	-200.000	-0.026	-0.151
-357.596	44.273	0.208	0.187
-356.581	-200.000	0.004	-0.020
-355.566	-93.372	-0.312	0.085
-354.552	800.000	0.139	-0.384
-353.537	-24.563	0.081	0.047
-352.523	-54.287	0.284	-0.127
-351.508	82.124	0.131	0.140
-350.493	-29.798	-0.256	-0.143
-349.479	-87.778	-0.315	-0.093
-348.464	320.604	0.105	-0.195
-347.450	-200.000	0.017	-0.114
-346.435	800.000	-0.085	-0.256
-345.420	18.646	0.134	-0.105
-344.406	165.370	0.182	0.253
-343.391	-47.591	0.158	0.076
-342.377	771.345	0.138	0.368
-341.362	-134.197	0.190	-0.023
-340.348	-112.637	-0.033	0.006
-339.333	-134.549	-0.122	-0.015
-338.318	-200.000	0.040	-0.248
-337.304	-30.252	-0.209	0.116
-336.289	-200.000	0.007	0.064
-335.275	-200.000	0.021	-0.212
-334.260	-143.357	-0.393	-0.037
-333.245	-200.000	-0.071	0.362
-332.231	161.720	-0.066	0.090
-331.216	371.423	-0.032	0.063
-330.202	130.349	-0.244	-0.307
-329.187	627.986	0.135	-0.334
-328.172	309.247	0.137	0.252
-327.158	135.254	-0.066	0.084
-326.143	27.224	-0.112	0.092
-325.129	-89.827	-0.176	-0.051
-324.114	633.052	-0.137	-0.341
-323.099	800.000	-0.179	-0.576
-322.085	257.017	0.128	0.215
-321.070	289.681	-0.176	0.314
-320.056	154.986	0.203	-0.274
-319.041	-5.374	-0.073	-0.049
-318.026	312.381	0.185	0.341
-317.012	109.480	0.298	-0.350
-315.997	522.108	-0.129	-0.297
-314.983	800.000	0.092	0.286
-313.968	46.770	-0.152	0.139
-312.953	-107.251	-0.332	0.072
-311.939	215.850	0.143	0.223
-310.924	180.313	0.216	0.310
-309.910	80.087	-0.346	0.365
-308.895	253.142	-0.148	0.248
-307.880	194.340	0.144	-0.214
-306.866	-200.000	0.062	0.271
-305.851	-200.000	0.014	0.360
-304.837	234.960	-0.031	0.051
-303.822	-91.953	0.296	-0.082
-302.807	137.980	0.062	0.079
-301.793	-88.953	-0.258	-0.075
-300.778	30.864	0.189	0.159
-299.764	-200.000	0.001	0.024
-298.749	800.000	0.121	0.456
-297.735	209.802	0.131	0.201
-296.720	118.052	0.049	-0.060
-295.705	-143.406	0.201	-0.019
-294.691	-200.000	-0.015	0.187
-293.676	525.410	-0.050	0.116
-292.662	-200.000	-0.017	0.251
-291.647	-200.000	-0.006	0.347
-290.632	-200.000	-0.003	-0.021
-289.618	800.000	-0.140	-0.379
-288.603	107.628	0.069	-0.080
-287.589	201.541	-0.080	-0.121
-286.574	156.208	-0.279	-0.377
-285.559	-119.361	-0.151	-0.026
-284.545	-158.163	-0.256	-0.015
-283.530	-31.860	-0.296	-0.162
-282.516	209.499	0.102	-0.156
-281.501	800.000	-0.080	0.264
-280.486	800.000	-0.032	0.135
-279.472	205.029	-0.173	0.262
-278.457	254.040	0.053	-0.088
-277.443	800.000	0.075	0.252
-276.428	-2.146	-0.218	0.150
-275.413	800.000	0.096	-0.302
-274.399	746.094	0.031	0.083
-273.384	800.000	-0.044	-0.152
-272.370	62.105	-0.183	-0.179
-271.355	-150.707	0.062	-0.005
-270.340	66.758	-0.059	0.059
-269.326	-187.820	-0.328	-0.004
-268.311	-200.000	0.021	-0.326
-267.297	-8.422	0.317	-0.208
-266.282	349.248	0.136	-0.263
-265.267	-69.885	-0.138	0.052
-264.253	74.532	0.198	0.204
-263.238	-66.382	-0.121	-0.047
-262.224	-200.000	-0.033	0.145
-261.209	182.602	0.055	-0.080
-260.195	324.732	-0.068	0.128
-259.180	-46.099	0.321	-0.155
-258.165	404.603	-0.131	0.270
-257.151	-97.688	-0.095	0.024
-256.136	-77.822	-0.343	-0.116
-255.122	-93.054	-0.230	0.063
-254.107	-200.000	-0.041	-0.251
-253.092	-79.924	0.267	0.088
-252.078	-200.000	-0.025	-0.288
-251.063	-38.221	0.202	0.105
-250.049	-66.336	-0.106	-0.041
-249.034	179.303	-0.269	-0.385
-248.019	-124.112	-0.213	-0.033
-247.005	9.565	0.241	0.179
-245.990	-26.491	0.227	-0.130
-244.976	-78.418	0.060	-0.020
-243.961	333.245	0.175	0.331
-242.946	-36.946	0.472	0.247
-241.932	61.853	-0.142	0.138
-240.917	-14.700	0.258	0.162
-239.903	-53.519	0.218	-0.097
-238.888	-200.000	0.009	0.120
-237.873	-108.913	-0.190	-0.040
-236.859	49.941	0.250	0.231
-235.844	-52.525	0.596	-0.269
-234.830	489.469	0.079	0.176
-233.815	104.001	-0.250	-0.288
-232.800	-130.196	-0.348	-0.046
-231.786	-41.645	0.189	-0.095
-230.771	800.000	-0.077	-0.216
-229.757	303.047	0.108	-0.196
-228.742	131.614	-0.139	-0.175
-227.727	51.159	0.153	-0.142
-226.713	-200.000	-0.007	-0.184
-225.698	28.742	0.253	0.209
-224.684	800.000	-0.029	0.110
-223.669	-123.416	0.433	-0.067
-222.655	-12.054	-0.341	-0.218
-221.640	-200.000	-0.007	0.068
-220.625	-81.771	0.350	-0.112
-219.611	504.682	-0.062	-0.140
-218.596	61.682	0.110	-0.107
-217.582	-60.735	0.179	0.074
-216.567	562.382	0.037	-0.087
-215.552	800.000	-0.079	-0.272
-214.538	376.712	0.163	0.325
-213.523	393.803	-0.047	-0.096
-212.509	-18.433	0.096	-0.058
-211.494	447.893	0.124	-0.267
-210.479	-108.884	-0.476	-0.099
-209.465	109.766	-0.178	-0.208
-208.450	-137.617	-0.473	0.052
-207.436	-83.279	0.259	-0.081
-206.421	-87.141	-0.218	-0.065
-205.406	587.738	-0.160	0.384
-204.392	-94.773	0.273	-0.072
-203.377	-200.000	0.024	-0.125
-202.363	626.832	0.018	0.045
-201.348	-200.000	0.045	-0.299
-200.333	203.817	0.167	0.253
-199.319	-36.302	-0.107	-0.056
-198.304	96.526	-0.058	0.065
-197.290	-25.172	0.109	0.063
-196.275	-51.864	-0.152	-0.069
-195.260	94.501	0.236	0.262
-194.246	-133.700	0.126	-0.015
-193.231	800.000	0.045	0.174
-192.217	-136.399	-0.224	0.025
-191.202	-110.561	-0.084	0.017
-190.187	-97.151	-0.341	0.087
-189.173	-47.513	-0.142	0.067
-188.158	6.424	0.146	-0.106
-187.144	-101.753	-0.255	0.060
-186.129	-102.278	0.236	0.055
-185.114	104.071	-0.235	0.269
-184.100	44.434	-0.191	0.171
-183.085	72.940	-0.208	-0.212
-182.071	-127.959	-0.295	-0.041
-181.056	37.807	0.180	0.156
-180.042	-90.904	0.250	0.070
-179.027	5.682	0.129	-0.093
-178.012	347.087	0.077	0.148
-176.998	-116.747	0.353	-0.063
-175.983	-200.000	0.000	0.003
-174.969	-25.625	0.131	0.075
-173.954	-51.397	-0.146	0.067
-172.939	51.266	-0.404	0.374
-171.925	-200.000	-0.021	-0.148
-170.910	-17.729	0.055	-0.034
-169.896	-200.000	-0.088	0.378
-168.881	-94.660	-0.220	0.058
-167.866	-29.716	-0.107	-0.060
-166.852	-171.196	-0.118	0.004
-165.837	-54.865	0.277	0.122
-164.823	-141.710	0.296	-0.029
-163.808	800.000	0.089	0.289
-162.793	800.000	0.061	-0.189
-161.779	444.824	-0.029	0.062
-160.764	-60.549	-0.113	-0.047
-159.750	72.646	0.139	0.142
-158.735	9.046	-0.059	0.043
-157.720	80.095	0.167	-0.176
-156.706	393.530	0.080	0.162
-155.691	800.000	0.052	-0.173
-154.677	-79.606	-0.100	-0.033
-153.662	800.000	0.022	0.063
-152.647	43.697	-0.255	0.227
-151.633	-200.000	-0.041	0.427
-150.618	278.737	0.265	-0.460
-149.604	800.000	0.049	0.157
-148.589	57.580	-0.248	0.237
-147.574	53.754	0.132	-0.124
-146.560	161.779	0.065	-0.089
-145.545	525.423	-0.079	-0.182
-144.531	-200.000	0.050	0.291
-143.516	61.085	0.197	-0.191
-142.502	546.681	-0.119	-0.278
-141.487	-200.000	0.012	0.331
-140.472	27.352	-0.177	-0.145
-139.458	139.886	-0.137	-0.175
-138.443	61.596	-0.120	-0.116
-137.429	-48.804	-0.265	-0.124
-136.414	-200.000	-0.010	-0.092
-135.399	46.704	0.344	-0.312
-134.385	160.659	0.275	-0.374
-133.370	-193.898	0.213	0.002
-132.356	-116.245	-0.093	-0.017
-131.341	-35.822	0.119	-0.063
-130.326	-92.425	-0.192	-0.052
-129.312	-200.000	0.035	-0.338
-128.297	201.153	-0.124	-0.185
-127.283	-52.124	0.399	0.180
-126.268	260.143	0.038	0.064
-125.253	-131.297	0.296	0.038
-124.239	17.857	-0.137	-0.106
-123.224	-63.250	-0.248	0.099
-122.210	14.482	-0.170	-0.129
-121.195	273.095	0.167	-0.287
-120.180	-51.365	-0.120	0.055
-119.166	-121.502	0.140	-0.023
-118.151	800.000	-0.080	0.224
-117.137	-200.000	-0.067	-0.291
-116.122	-2.478	0.097	0.066
-115.107	800.000	0.064	0.268
-114.093	-56.183	0.098	-0.042
-113.078	-132.556	-0.055	0.007
-112.064	150.232	-0.097	0.129
-111.049	52.415	0.042	-0.039
-110.034	648.427	0.137	-0.342
-109.020	51.473	-0.202	-0.186
-108.005	-87.754	-0.302	-0.089
-106.991	-200.000	0.011	-0.144
-105.976	201.124	0.033	-0.050
-104.962	-124.081	0.046	0.007
-103.947	-85.520	-0.256	0.078
-102.932	-200.000	-0.010	0.064
-101.918	112.746	-0.066	-0.078
-100.903	656.919	0.111	0.278
-99.889	-129.560	-0.172	0.023
-98.874	123.168	-0.156	0.190
-97.859	-200.000	-0.021	-0.157
-96.845	56.751	-0.122	-0.115
-95.830	-120.849	-0.263	-0.043
-94.816	-35.707	-0.087	0.046
-93.801	-200.000	-0.054	-0.262
-92.786	-89.524	0.260	0.074
-91.772	488.866	-0.188	-0.417
-90.757	-200.000	-0.034	-0.184
-89.743	-71.980	-0.150	0.054
-88.728	-133.453	0.008	-0.001
-87.713	164.328	-0.160	0.220
-86.699	-200.000	0.037	0.209
-85.684	-200.000	-0.002	0.126
-84.670	-190.008	0.296	0.003
-83.655	256.129	-0.072	0.120
-82.640	-68.750	0.185	-0.070
-81.626	-200.000	-0.017	0.320
-80.611	718.712	-0.082	-0.211
-79.597	-200.000	-0.087	-0.388
-78.582	-107.165	0.169	0.036
-77.567	800.000	0.019	0.067
-76.553	13.229	0.235	-0.177
-75.538	-65.310	-0.123	-0.048
-74.524	800.000	-0.040	-0.163
-73.509	-69.519	-0.295	-0.110
-72.494	800.000	0.188	-0.536
-71.480	-94.556	0.096	0.026
-70.465	-200.000	0.003	0.208
-69.451	800.000	-0.064	-0.179
-68.436	-94.988	0.399	0.105
-67.422	-200.000	0.030	0.167
-66.407	54.552	0.302	-0.282
-65.392	-154.080	0.396	0.026
-64.378	-200.000	-0.014	0.086
-63.363	346.282	0.062	-0.118
-62.349	-200.000	-0.031	0.199
-61.334	44.185	-1.299	-1.158
-60.319	60.897	0.956	0.921
-59.305	498.483	-0.629	-1.406
-58.290	286.992	0.793	1.392
-57.276	165.648	0.960	1.319
-56.261	-200.000	135.589	643.151
-55.246	336.422	1660.461	3130.731
-54.232	133.979	2811.542	3536.308
-53.217	79.241	2318.134	2412.707
-52.203	28.427	1914.257	1571.474
-51.188	22.632	1707.230	1357.005
-50.173	20.748	1669.784	1312.990
-49.159	42.287	1744.222	1539.060
-48.144	38.775	1752.883	1519.484
-47.130	22.183	1703.801	1350.609
-46.115	19.693	1688.526	1319.461
-45.100	19.673	1683.092	1315.012
-44.086	19.556	1680.692	1312.193
-43.071	19.553	1677.958	1309.988
-42.057	19.490	1675.962	1307.903
-41.042	19.665	1673.664	1307.376
-40.027	19.626	1671.212	1305.120
-39.013	19.518	1670.049	1303.342
-37.998	19.470	1668.730	1301.902
-36.984	19.595	1667.567	1301.882
-35.969	19.639	1665.658	1300.671
-34.954	19.725	1663.657	1299.706
-33.940	19.700	1662.171	1298.302
-32.925	19.663	1660.693	1296.820
-31.911	19.644	1659.400	1295.614
-30.896	19.722	1656.821	1294.137
-29.881	19.691	1655.820	1293.068
-28.867	19.603	1654.610	1291.413
-27.852	19.716	1653.076	1291.012
-26.838	19.789	1650.942	1289.835
-25.823	19.747	1650.541	1289.158
-24.809	19.772	1649.241	1288.278
-23.794	19.747	1647.527	1286.700
-22.779	19.747	1646.301	1285.695
-21.765	19.779	1644.065	1284.134
-20.750	19.752	1642.841	1282.926
-19.736	19.838	1641.325	1282.329
-18.721	19.831	1640.208	1281.356
-17.706	19.709	1638.723	1279.242
-16.692	19.723	1637.270	1278.163
-15.677	19.788	1635.690	1277.358
-14.663	19.808	1634.762	1276.725
-13.648	19.837	1633.152	1275.632
-12.633	19.733	1632.177	1274.056
-11.619	19.724	1630.215	1272.411
-10.604	19.724	1628.652	1271.140
-9.590	19.754	1627.452	1270.373
-8.575	19.829	1625.962	1269.711
-7.560	19.777	1624.783	1268.355
-6.546	19.810	1623.901	1267.859
-5.531	19.765	1622.620	1266.477
-4.517	19.719	1621.129	1264.927
-3.502	19.806	1620.454	1264.988
-2.487	19.888	1618.677	1264.145
-1.473	19.525	1606.597	1252.032
-0.458	16.919	1588.155	1218.904
0.556	12.608	1590.518	1190.840
1.571	10.733	1615.100	1195.351
2.586	10.640	1627.175	1203.496
3.600	10.007	1571.997	1158.044
4.615	5.719	1466.265	1051.340
5.629	1.264	1410.378	982.391
6.644	0.598	1403.657	973.330
7.659	0.636	1402.479	972.673
8.673	0.479	1401.844	971.132
9.688	0.537	1399.253	969.626
10.702	0.359	1395.875	966.059
11.717	2.570	1397.959	981.590
12.731	8.480	1407.034	1025.900
13.746	14.472	1415.964	1070.920
14.761	16.892	1419.939	1089.400
15.775	16.522	1417.295	1084.897
16.790	15.504	1414.904	1076.451
17.804	14.794	1412.797	1070.208
18.819	14.453	1411.111	1066.653
19.834	14.152	1410.244	1063.980
20.848	14.015	1408.863	1061.964
21.863	13.625	1407.843	1058.612
22.877	13.486	1406.816	1056.861
23.892	13.472	1405.320	1055.553
24.907	13.466	1404.682	1054.942
25.921	13.498	1403.902	1054.470
26.936	13.619	1402.157	1053.834
27.950	13.571	1401.879	1053.223
28.965	13.620	1400.552	1052.444
29.980	13.642	1399.861	1051.973
30.994	13.712	1399.086	1051.741
32.009	13.723	1397.976	1050.884
33.023	13.702	1397.028	1049.946
34.038	13.654	1395.370	1048.302
35.053	13.585	1394.690	1047.267
36.067	13.659	1393.354	1046.637
37.082	13.727	1392.275	1046.159
38.096	13.651	1391.910	1045.316
39.111	13.626	1390.587	1044.072
40.126	13.590	1389.859	1043.205
41.140	13.548	1389.578	1042.638
42.155	13.364	1389.189	1041.093
43.169	13.508	1388.747	1041.578
44.184	13.490	1388.093	1040.883
45.199	13.419	1388.166	1040.401
46.213	13.487	1387.269	1040.064
47.228	13.559	1386.299	1039.694
48.242	13.661	1385.158	1039.387
49.257	13.598	1383.443	1037.611
50.271	13.606	1381.966	1036.464
51.286	13.589	1380.938	1035.495
52.301	13.563	1379.505	1034.169
53.315	13.483	1378.704	1032.972
54.330	13.543	1377.934	1032.679
55.344	13.600	1375.760	1031.312
56.359	13.438	1375.385	1029.931
57.374	13.447	1374.600	1029.311
58.388	13.451	1373.395	1028.341
59.403	13.495	1372.761	1028.050
60.417	13.434	1372.573	1027.438
61.432	13.378	1371.562	1026.247
62.447	13.436	1370.312	1025.577
63.461	13.308	1369.058	1023.756
64.476	13.453	1367.635	1023.499
65.490	13.409	1366.678	1022.419
66.505	13.430	1365.061	1021.249
67.520	13.456	1363.568	1020.202
68.534	13.517	1362.685	1019.825
69.549	13.497	1361.620	1018.816
70.563	13.427	1360.724	1017.627
71.578	13.340	1359.742	1016.265
72.593	13.345	1358.560	1015.325
73.607	13.320	1358.265	1014.858
74.622	13.432	1356.778	1014.347
75.636	13.389	1356.140	1013.514
76.651	13.330	1355.459	1012.557
77.666	13.380	1355.366	1012.706
78.680	13.420	1354.009	1011.841
79.695	13.353	1353.656	1011.083
80.709	13.376	1352.612	1010.352
81.724	13.410	1351.715	1009.802
82.739	13.558	1350.133	1009.432
83.753	13.663	1349.055	1009.176
84.768	13.533	1348.763	1008.074
85.782	13.645	1347.646	1007.831
86.797	13.615	1345.782	1006.167
87.812	13.535	1345.073	1005.064
88.826	13.515	1343.851	1003.938
89.841	13.508	1342.768	1002.997
90.855	13.571	1341.646	1002.455
91.870	13.589	1340.624	1001.711
92.884	13.681	1339.546	1001.369
93.899	13.673	1338.711	1000.609
94.914	13.744	1337.695	1000.193
95.928	13.735	1337.174	999.660
96.943	13.744	1335.923	998.691
97.957	13.643	1335.221	997.471
98.972	13.675	1334.019	996.673
99.987	13.663	1333.136	995.858
101.001	13.680	1332.072	995.073
102.016	13.623	1331.563	994.264
103.030	13.658	1330.512	993.600
104.045	13.637	1329.450	992.592
105.060	13.564	1328.558	991.406
106.074	13.576	1326.505	989.858
107.089	13.534	1325.503	988.771
108.103	13.519	1324.193	987.614
109.118	13.650	1322.463	987.021
110.133	13.424	1321.685	985.006
111.147	13.582	1319.962	984.575
112.162	13.655	1318.688	983.968
113.176	13.653	1317.716	983.147
114.191	13.593	1316.676	981.925
115.206	13.583	1315.621	980.992
116.220	13.641	1314.175	980.169
117.235	13.567	1313.295	978.991
118.249	13.579	1312.244	978.193
119.264	13.543	1310.886	976.880
120.279	13.490	1310.128	975.919
121.293	13.558	1309.090	975.458
122.308	13.568	1307.818	974.484
123.322	13.525	1306.787	973.372
124.337	13.490	1305.923	972.438
125.352	13.614	1304.564	972.068
126.366	13.589	1302.926	970.619
127.381	13.511	1302.158	969.501
128.395	13.470	1301.755	968.874
129.410	13.581	1300.010	968.140
130.424	13.540	1299.425	967.379
131.439	13.515	1298.562	966.508
132.454	13.564	1297.417	965.852
133.468	13.601	1296.566	965.350
134.483	13.535	1295.515	964.098
135.497	13.524	1294.707	963.347
136.512	13.636	1293.035	962.669
137.527	13.590	1292.256	961.737
138.541	13.688	1290.250	960.729
139.556	13.503	1289.272	958.844
140.570	13.702	1287.952	958.929
141.585	13.725	1286.804	958.120
142.600	13.681	1285.744	956.989
143.614	13.676	1284.942	956.284
144.629	13.824	1283.568	956.026
145.643	13.842	1282.435	955.203
146.658	13.781	1281.319	953.936
147.673	13.723	1279.820	952.402
148.687	13.699	1278.865	951.472
149.702	13.701	1277.335	950.259
150.716	13.720	1276.246	949.470
151.731	13.780	1274.462	948.405
152.746	13.723	1273.849	947.537
153.760	13.788	1272.564	946.869
154.775	13.835	1271.629	946.358
155.789	13.829	1270.457	945.369
156.804	13.825	1269.630	944.648
157.819	13.845	1268.450	943.797
158.833	13.933	1267.121	943.225
159.848	13.832	1266.533	942.133
160.862	13.865	1265.401	941.393
161.877	13.948	1264.130	940.835
162.892	13.877	1263.388	939.798
163.906	13.847	1262.452	938.851
164.921	13.793	1262.098	938.199
165.935	14.022	1260.513	938.226
166.950	13.898	1260.499	937.433
167.964	13.976	1258.984	936.664
168.979	13.905	1258.813	936.056
169.994	13.931	1257.757	935.335
171.008	13.873	1257.487	934.725
172.023	13.981	1256.537	934.541
173.037	14.079	1255.361	934.136
174.052	13.980	1254.567	932.904
175.067	13.975	1253.497	932.000
176.081	13.969	1252.553	931.182
177.096	14.044	1251.417	930.674
178.110	14.050	1250.235	929.747
179.125	14.014	1248.934	928.497
180.140	14.069	1247.894	927.949
181.154	14.208	1246.123	927.324
182.169	14.090	1245.219	925.914
183.183	14.058	1244.419	925.059
184.198	14.061	1243.236	924.111
185.213	14.167	1241.930	923.649
186.227	14.162	1241.140	922.950
187.242	14.217	1239.493	921.952
188.256	14.223	1238.478	921.145
189.271	14.225	1237.460	920.321
190.286	14.217	1236.441	919.438
191.300	14.055	1236.075	918.189
192.315	14.085	1235.033	917.497
193.329	14.132	1234.858	917.544
194.344	14.211	1233.861	917.156
195.359	14.212	1233.489	916.806
196.373	14.218	1233.000	916.395
197.388	14.237	1232.717	916.207
198.402	14.290	1232.091	915.955
199.417	14.364	1230.937	915.421
200.432	14.461	1230.200	915.326
201.446	14.515	1229.560	915.065
202.461	14.379	1228.205	913.227
203.475	14.522	1227.094	913.104
204.490	14.582	1225.870	912.441
205.504	14.476	1225.095	911.205
206.519	14.445	1223.635	909.868
207.534	14.465	1222.723	909.218
208.548	14.537	1221.197	908.396
209.563	14.423	1221.166	907.671
210.577	14.455	1220.146	907.007
211.592	14.466	1219.383	906.420
212.607	14.564	1218.376	906.126
213.621	14.568	1217.707	905.567
214.636	14.640	1216.598	905.054
215.650	14.626	1215.590	904.148
216.665	14.743	1214.402	903.819
217.680	14.636	1213.827	902.730
218.694	14.591	1213.095	901.862
219.709	14.637	1212.048	901.256
220.723	14.707	1211.120	900.859
221.738	14.694	1210.369	900.153
222.753	14.630	1210.022	899.473
223.767	14.716	1209.067	899.142
224.782	14.780	1208.113	898.697
225.796	14.712	1207.864	898.067
226.811	14.828	1206.829	897.846
227.826	14.815	1206.289	897.291
228.840	14.868	1205.140	896.642
229.855	14.817	1204.466	895.789
230.869	14.805	1203.789	895.140
231.884	14.834	1203.145	894.736
232.899	14.852	1202.001	893.905
233.913	14.893	1201.263	893.496
234.928	14.780	1200.692	892.387
235.942	14.804	1199.921	891.866
236.957	14.876	1198.735	891.291
237.972	14.764	1198.599	890.511
238.986	14.785	1198.052	890.139
240.001	14.786	1196.785	889.125
241.015	14.835	1196.096	888.792
242.030	14.805	1195.199	887.887
243.045	14.990	1194.649	888.383
244.059	14.869	1193.583	886.869
245.074	14.960	1192.800	886.692
246.088	15.001	1192.181	886.370
247.103	15.077	1190.964	885.789
248.117	15.024	1190.811	885.319
249.132	14.962	1189.822	884.177
250.147	15.123	1189.100	884.413
251.161	15.245	1188.283	884.371
252.176	15.248	1187.741	883.903
253.190	15.214	1186.925	883.039
254.205	15.315	1185.852	882.691
255.220	15.200	1186.038	882.150
256.234	15.343	1184.903	881.981
257.249	15.214	1184.619	881.009
258.263	15.308	1183.682	880.732
259.278	15.297	1183.091	880.155
260.293	15.280	1182.686	879.684
261.307	15.449	1181.635	879.714
262.322	15.339	1181.282	878.797
263.336	15.343	1180.693	878.298
264.351	15.466	1180.085	878.414
265.366	15.412	1179.346	877.502
266.380	15.405	1178.543	876.791
267.395	15.475	1177.865	876.574
268.409	15.388	1177.420	875.714
269.424	15.495	1176.433	875.458
270.439	15.527	1175.549	874.891
271.453	15.476	1174.853	874.031
272.468	15.458	1174.092	873.295
273.482	15.435	1173.257	872.474
274.497	15.541	1172.431	872.335
275.512	15.425	1172.070	871.386
276.526	15.505	1171.266	871.124
277.541	15.440	1170.604	870.219
278.555	15.468	1170.045	869.873
279.570	15.673	1168.320	869.573
280.585	15.567	1167.986	868.700
281.599	15.545	1167.364	868.044
282.614	15.670	1165.873	867.504
283.628	15.683	1164.905	866.776
284.643	15.604	1164.334	865.870
285.657	15.665	1163.498	865.483
286.672	15.720	1162.221	864.741
287.687	15.737	1161.567	864.267
288.701	15.784	1160.463	863.609
289.716	15.745	1159.832	862.862
290.730	15.808	1159.139	862.594
291.745	15.804	1158.692	862.161
292.760	15.791	1157.816	861.367
293.774	15.761	1157.313	860.766
294.789	15.898	1156.450	860.749
295.803	15.922	1156.166	860.580
296.818	15.872	1155.435	859.706
297.833	15.820	1154.722	858.834
298.847	15.832	1153.866	858.184
299.862	15.912	1152.783	857.709
300.876	16.004	1152.316	857.754
301.891	16.078	1151.288	857.287
302.906	15.971	1150.915	856.393
303.920	16.013	1150.231	856.022
304.935	15.899	1149.600	854.896
305.949	16.118	1148.837	855.365
306.964	16.173	1148.119	855.034
307.979	16.080	1147.519	854.040
308.993	16.162	1146.477	853.602
310.008	15.977	1146.185	852.372
311.022	16.173	1144.834	852.283
312.037	16.084	1144.135	851.240
313.052	16.049	1143.259	850.337
314.066	16.136	1142.077	849.820
315.081	16.201	1141.108	849.348
316.095	15.999	1140.695	847.952
317.110	16.098	1140.353	848.121
318.125	16.183	1139.201	847.618
319.139	16.112	1138.579	846.721
320.154	16.110	1137.934	846.155
321.168	16.250	1137.058	846.132
322.183	16.107	1136.658	845.045
323.197	16.122	1136.268	844.753
324.212	16.149	1135.626	844.339
325.227	16.317	1134.817	844.502
326.241	16.097	1134.420	843.031
327.256	16.307	1132.963	842.923
328.270	16.249	1132.331	842.085
329.285	16.252	1131.324	841.279
330.300	16.306	1130.351	840.752
331.314	16.244	1129.341	839.616
332.329	16.216	1128.590	838.845
333.343	16.285	1127.717	838.464
334.358	16.376	1126.940	838.265
335.373	16.426	1125.938	837.692
336.387	16.389	1125.553	837.148
337.402	16.344	1124.928	836.385
338.416	16.410	1124.207	836.104
339.431	16.453	1123.282	835.554
340.446	16.531	1122.596	835.353
341.460	16.458	1122.159	834.596
342.475	16.525	1121.155	834.107
343.489	16.480	1120.339	833.200
344.504	16.615	1119.209	832.951
345.519	16.656	1118.353	832.442
346.533	16.582	1117.409	831.306
347.548	16.627	1116.646	830.882
348.562	16.627	1115.878	830.240
349.577	16.744	1115.250	830.271
350.592	16.738	1114.490	829.602
351.606	16.591	1113.686	828.210
352.621	16.624	1113.074	827.846
353.635	16.633	1112.479	827.374
354.650	16.639	1111.558	826.642
355.665	16.732	1110.963	826.580
356.679	16.759	1110.069	825.975
357.694	16.814	1109.444	825.707
358.708	16.747	1109.130	825.071
359.723	16.768	1108.394	824.552
360.738	16.865	1107.649	824.400
361.752	16.733	1107.130	823.295
362.767	16.823	1106.890	823.483
363.781	16.866	1105.840	822.836
364.796	16.826	1105.305	822.175
365.810	16.803	1104.816	821.623
366.825	16.859	1104.440	821.546
367.840	16.899	1103.765	821.161
368.854	16.960	1102.841	820.698
369.869	16.951	1102.319	820.194
370.883	17.124	1101.057	820.018
371.898	16.929	1100.506	818.595
372.913	17.022	1099.773	818.425
373.927	17.047	1099.474	818.249
374.942	17.000	1099.124	817.689
375.956	17.084	1098.168	817.313
376.971	17.083	1097.963	817.084
377.986	17.234	1096.703	816.797
379.000	17.013	1096.596	815.582
380.015	17.196	1095.975	815.930
381.029	17.224	1094.943	815.223
382.044	17.109	1095.081	814.701
383.059	17.364	1093.259	814.496
384.073	17.364	1092.657	813.976
385.088	17.227	1092.221	812.924
386.102	17.320	1090.766	812.214
387.117	17.269	1089.851	811.217
388.132	17.308	1089.315	810.931
389.146	17.228	1088.418	809.811
390.161	17.244	1087.572	809.183
391.175	17.230	1087.209	808.775
392.190	17.411	1085.989	808.658
393.205	17.402	1085.700	808.327
394.219	17.381	1084.806	807.493
395.234	17.340	1084.073	806.682
396.248	17.477	1082.521	806.104
397.263	17.467	1081.569	805.276
398.278	17.438	1081.178	804.775
399.292	17.409	1080.575	804.119
400.307	17.408	1079.739	803.420
401.321	17.346	1079.453	802.845
402.336	17.427	1078.443	802.402
403.350	17.404	1078.061	801.940
404.365	17.515	1077.266	801.799
405.380	17.399	1076.251	800.431
406.394	17.408	1075.531	799.863
407.409	17.548	1074.783	799.897
408.423	17.674	1073.705	799.614
409.438	17.566	1073.004	798.515
410.453	17.600	1072.881	798.510
411.467	17.640	1071.989	797.964
412.482	17.667	1071.430	797.604
413.496	17.709	1070.707	797.191
414.511	17.681	1070.169	796.589
415.526	17.788	1069.540	796.552
416.540	17.746	1069.518	796.267
417.555	17.818	1068.509	795.783
418.569	17.789	1067.917	795.134
419.584	17.740	1067.704	794.677
420.599	17.873	1067.439	795.028
421.613	109.127	1332.700	1491.087
422.628	100.939	1371.285	1491.147
