DTS Sentinel unit serial number:	SN413079Multiplexer serial number:	ORYXHardware model number:	OX4-SRSoftware version number:	ORYX F/W v4.00 Oryx Data Collector v3.7.2.0data status	okinstallation	princeton_trtdifferential loss correction	single-endedforward channel	channel 2reverse channel	N/Adate	2019/09/13time	05:03:35forward acquisition time	60.00reverse acquisition time	0.00gamma	496.2192k internal	0.2336k external	0.2336temperature offset calibration	1.0191default loss term (dB/km)	0.3790temperature slope calibration	1.0000multiplexer offset coefficient	1.0000multiplexer slope coefficient	1.0000fibre end	0.00T internal ref (°C)	26.44T ext. ref 1 (°C)	4.05T ext. ref 2 (°C)	20.88length (m)	temperature (°C)	Stokes	anti-Stokes-747.200	800.000	0.041	0.167
-746.185	-200.000	-0.018	0.123
-745.171	277.824	0.081	0.145
-744.156	378.851	0.064	0.131
-743.142	191.258	0.188	0.285
-742.127	800.000	-0.095	0.400
-741.112	-118.620	0.416	-0.074
-740.098	-200.000	-0.002	0.059
-739.083	-64.097	-0.042	-0.017
-738.069	-200.000	-0.061	0.299
-737.054	88.868	-0.116	0.130
-736.039	9.025	-0.315	-0.239
-735.025	31.963	0.073	0.063
-734.010	-146.437	0.302	-0.026
-732.996	-102.138	-0.386	-0.093
-731.981	249.511	-0.096	-0.163
-730.966	158.002	0.073	0.101
-729.952	-135.934	-0.171	-0.020
-728.937	-31.564	0.333	0.188
-727.923	103.110	0.133	0.156
-726.908	7.943	-0.208	-0.157
-725.894	-48.810	-0.233	0.112
-724.879	-200.000	-0.007	0.115
-723.864	-53.553	0.144	0.066
-722.850	-149.665	0.251	0.020
-721.835	-105.644	0.060	-0.014
-720.821	-44.879	-0.356	-0.178
-719.806	-92.612	-0.351	0.099
-718.791	800.000	-0.024	-0.104
-717.777	-55.135	-0.129	-0.058
-716.762	-117.061	-0.278	0.051
-715.748	66.250	0.132	-0.135
-714.733	-200.000	-0.023	-0.168
-713.718	359.304	0.216	0.432
-712.704	800.000	-0.063	-0.176
-711.689	74.872	0.187	-0.198
-710.675	-200.000	0.067	-0.478
-709.660	-200.000	0.002	-0.144
-708.645	-200.000	-0.022	0.258
-707.631	-19.118	-0.167	-0.104
-706.616	-49.808	0.227	0.108
-705.602	75.510	0.055	-0.058
-704.587	-62.643	0.138	0.057
-703.572	49.925	-0.161	-0.152
-702.558	-120.754	-0.527	0.089
-701.543	-79.422	0.056	-0.019
-700.529	51.893	0.247	0.236
-699.514	-200.000	0.032	0.000
-698.499	32.740	0.070	0.061
-697.485	299.120	-0.140	0.259
-696.470	-200.000	-0.030	-0.299
-695.456	1.632	0.086	-0.062
-694.441	-10.120	-0.294	0.196
-693.426	-77.159	0.395	-0.138
-692.412	-8.564	0.156	-0.105
-691.397	-168.630	-0.294	-0.011
-690.383	131.029	0.115	0.147
-689.368	-200.000	-0.080	0.437
-688.354	-89.824	0.060	0.017
-687.339	-80.930	-0.167	-0.055
-686.324	133.213	0.199	-0.257
-685.310	115.595	-0.172	-0.211
-684.295	11.994	-0.232	0.179
-683.281	706.188	0.088	-0.233
-682.266	-80.840	0.274	0.091
-681.251	-25.582	-0.172	-0.102
-680.237	579.219	0.086	-0.210
-679.222	-16.770	0.163	-0.104
-678.208	472.762	-0.019	0.043
-677.193	297.582	0.069	0.126
-676.178	-133.350	-0.211	-0.027
-675.164	-81.024	-0.398	-0.132
-674.149	40.722	0.178	-0.161
-673.135	-62.065	0.228	-0.096
-672.120	-100.063	-0.194	-0.048
-671.105	753.099	-0.058	-0.157
-670.091	238.230	0.054	0.090
-669.076	-144.219	-0.193	0.018
-668.062	-200.000	0.021	0.141
-667.047	-157.624	-0.155	-0.009
-666.032	188.618	0.090	-0.134
-665.018	800.000	-0.084	0.259
-664.003	-76.343	0.159	0.056
-662.989	-107.846	0.566	-0.123
-661.974	242.142	-0.069	0.115
-660.959	-4.979	-0.157	-0.108
-659.945	51.770	0.198	-0.188
-658.930	762.614	0.107	0.291
-657.916	33.338	-0.088	-0.077
-656.901	800.000	0.019	0.070
-655.886	147.926	-0.278	0.375
-654.872	270.834	-0.085	0.150
-653.857	-200.000	-0.006	-0.324
-652.843	-119.058	0.066	0.012
-651.828	283.352	-0.204	-0.367
-650.814	-56.981	-0.113	0.050
-649.799	800.000	-0.028	-0.082
-648.784	8.090	-0.182	0.137
-647.770	-90.110	0.424	-0.123
-646.755	-5.518	-0.223	0.153
-645.741	-200.000	-0.058	-0.276
-644.726	587.418	0.156	-0.385
-643.711	-27.232	0.081	0.047
-642.697	-200.000	-0.028	0.155
-641.682	519.288	0.021	0.050
-640.668	-190.709	-0.189	0.002
-639.653	-82.607	-0.312	0.101
-638.638	-108.819	-0.120	0.026
-637.624	-84.559	0.280	-0.088
-636.609	-200.000	-0.021	0.146
-635.595	81.389	-0.044	-0.048
-634.580	42.921	-0.134	-0.122
-633.565	-80.626	-0.107	0.036
-632.551	-200.000	0.007	-0.032
-631.536	353.157	-0.131	-0.259
-630.522	-200.000	-0.011	0.278
-629.507	-33.948	-0.188	0.103
-628.492	-98.015	-0.333	-0.086
-627.478	532.208	-0.026	-0.061
-626.463	-70.150	-0.466	0.177
-625.449	56.392	-0.097	0.094
-624.434	-137.321	0.156	-0.018
-623.419	40.294	-0.352	0.316
-622.405	776.047	-0.138	-0.376
-621.390	800.000	0.060	0.204
-620.376	-87.985	-0.360	0.108
-619.361	-49.595	-0.180	-0.086
-618.346	-200.000	-0.051	-0.554
-617.332	800.000	0.103	-0.306
-616.317	-80.648	-0.113	-0.038
-615.303	-3.176	-0.156	0.109
-614.288	250.275	-0.197	0.334
-613.273	-4.697	-0.327	-0.225
-612.259	800.000	0.080	-0.225
-611.244	271.811	0.084	-0.148
-610.230	-47.085	0.110	0.054
-609.215	151.460	-0.095	0.130
-608.201	135.853	-0.192	-0.250
-607.186	-200.000	-0.040	0.204
-606.171	-125.630	-0.165	-0.025
-605.157	800.000	-0.032	0.095
-604.142	213.797	0.198	0.313
-603.128	117.752	0.083	-0.102
-602.113	-200.000	-0.071	0.320
-601.098	46.415	0.074	0.069
-600.084	-24.254	-0.244	-0.145
-599.069	56.646	-0.295	-0.286
-598.055	-115.892	-0.202	-0.038
-597.040	-89.813	0.199	0.058
-596.025	-200.000	-0.001	0.130
-595.011	462.597	0.055	0.122
-593.996	78.482	0.093	0.099
-592.982	291.338	-0.169	-0.307
-591.967	-65.804	-0.044	0.017
-590.952	467.745	0.114	-0.255
-589.938	109.654	0.117	0.140
-588.923	106.877	-0.226	0.267
-587.909	800.000	-0.113	0.314
-586.894	-151.734	-0.235	-0.017
-585.879	-72.311	-0.097	-0.036
-584.865	6.306	-0.301	-0.223
-583.850	-200.000	0.012	0.089
-582.836	-63.097	-0.377	0.155
-581.821	-35.201	-0.197	0.107
-580.806	-103.590	-0.093	-0.022
-579.792	-200.000	0.028	0.198
-578.777	3.388	0.265	0.193
-577.763	315.853	0.200	0.376
-576.748	-200.000	0.041	0.315
-575.733	15.374	0.215	-0.168
-574.719	763.403	0.088	-0.238
-573.704	-90.883	0.144	0.041
-572.690	157.583	0.057	0.079
-571.675	-200.000	0.012	0.220
-570.661	403.310	-0.089	0.187
-569.646	520.325	0.116	-0.271
-568.631	-200.000	0.030	-0.218
-567.617	-131.695	0.071	0.009
-566.602	-39.718	0.382	0.199
-565.588	-53.098	-0.138	-0.063
-564.573	214.916	0.081	-0.128
-563.558	179.726	0.089	0.130
-562.544	-18.137	-0.377	-0.236
-561.529	-51.375	0.109	0.051
-560.515	-20.752	0.078	0.047
-559.500	69.231	-0.107	0.110
-558.485	-24.319	0.321	-0.191
-557.471	74.435	0.185	0.194
-556.456	-107.779	0.178	0.039
-555.442	207.348	-0.205	-0.319
-554.427	580.671	0.049	-0.120
-553.412	70.785	-0.182	-0.188
-552.398	-19.628	-0.242	-0.149
-551.383	414.195	-0.106	-0.225
-550.369	-200.000	-0.047	-0.225
-549.354	-200.000	-0.029	0.215
-548.339	-153.231	-0.282	-0.020
-547.325	526.033	-0.062	-0.145
-546.310	446.906	0.074	0.163
-545.296	-116.555	0.048	-0.009
-544.281	685.567	-0.151	0.392
-543.266	-115.996	0.103	-0.019
-542.252	-27.195	-0.077	0.045
-541.237	30.642	-0.499	-0.425
-540.223	-8.438	0.118	-0.079
-539.208	145.757	-0.117	-0.156
-538.193	-82.997	0.249	0.080
-537.179	800.000	0.045	0.143
-536.164	203.068	0.111	0.171
-535.150	-67.112	-0.281	0.110
-534.135	-4.003	0.502	0.347
-533.121	-132.683	-0.226	0.029
-532.106	800.000	0.071	-0.277
-531.091	-129.659	-0.250	0.034
-530.077	-200.000	0.023	-0.410
-529.062	-200.000	0.012	-0.221
-528.048	51.538	0.244	0.231
-527.033	314.865	0.071	-0.133
-526.018	-200.000	-0.006	0.173
-525.004	-18.816	0.186	0.115
-523.989	-200.000	-0.016	-0.216
-522.975	339.275	0.035	-0.068
-521.960	-82.500	0.099	0.032
-520.945	52.067	-0.120	0.114
-519.931	216.248	0.120	0.190
-518.916	-141.249	0.195	-0.020
-517.902	-20.782	0.144	-0.088
-516.887	-3.418	0.042	0.029
-515.872	-6.701	-0.374	0.254
-514.858	-65.763	0.126	-0.050
-513.843	-200.000	0.017	0.122
-512.829	-47.071	-0.328	-0.159
-511.814	-200.000	0.009	-0.175
-510.799	-200.000	0.028	0.278
-509.785	-46.894	-0.376	-0.183
-508.770	-122.367	-0.234	-0.038
-507.756	800.000	-0.064	-0.184
-506.741	0.894	-0.237	-0.169
-505.726	800.000	0.021	-0.069
-504.712	218.321	-0.104	0.165
-503.697	-129.101	0.173	0.024
-502.683	-33.048	0.262	-0.145
-501.668	238.376	0.164	-0.270
-500.653	-55.367	-0.114	0.051
-499.639	314.098	0.052	0.097
-498.624	438.392	0.131	0.284
-497.610	487.350	-0.129	-0.292
-496.595	-141.011	-0.261	-0.027
-495.581	174.328	-0.140	-0.201
-494.566	388.707	0.040	-0.082
-493.551	483.639	0.171	-0.387
-492.537	32.655	0.031	0.027
-491.522	-154.227	-0.054	-0.004
-490.508	-84.901	-0.093	0.029
-489.493	-118.976	0.223	-0.039
-488.478	-40.121	-0.177	0.092
-487.464	-36.953	0.200	-0.106
-486.449	439.058	0.097	0.210
-485.435	-181.341	-0.199	-0.004
-484.420	-157.080	0.374	0.023
-483.405	800.000	-0.075	0.303
-482.391	-98.205	-0.269	0.069
-481.376	165.380	-0.074	0.103
-480.362	30.306	0.176	0.149
-479.347	-120.772	0.310	0.052
-478.332	193.600	-0.119	0.179
-477.318	132.621	0.134	0.172
-476.303	-48.561	-0.199	0.095
-475.289	8.833	0.173	0.130
-474.274	-200.000	0.002	-0.442
-473.259	-94.438	0.221	0.060
-472.245	182.354	0.171	0.250
-471.230	269.072	0.057	0.099
-470.216	800.000	0.016	0.045
-469.201	-200.000	-0.020	0.152
-468.186	120.663	-0.094	0.117
-467.172	-200.000	0.065	-0.326
-466.157	192.895	-0.021	-0.031
-465.143	-103.385	0.151	-0.035
-464.128	118.332	-0.106	-0.129
-463.113	-9.317	0.122	-0.081
-462.099	-200.000	-0.020	-0.149
-461.084	-127.854	-0.179	-0.026
-460.070	-27.096	0.069	-0.040
-459.055	-200.000	0.000	-0.050
-458.040	172.086	-0.148	-0.212
-457.026	160.329	0.197	0.272
-456.011	-88.868	-0.248	0.073
-454.997	55.247	-0.153	-0.147
-453.982	17.231	-0.179	-0.141
-452.968	335.451	-0.084	-0.161
-451.953	-44.888	0.208	0.103
-450.938	-15.347	0.194	0.123
-449.924	-17.200	0.056	-0.035
-448.909	-200.000	0.025	0.120
-447.895	-200.000	0.018	-0.426
-446.880	-71.046	-0.212	-0.079
-445.865	-169.092	0.291	-0.011
-444.851	800.000	-0.116	0.392
-443.836	-27.895	-0.213	0.122
-442.822	800.000	-0.016	0.052
-441.807	-107.645	0.197	0.043
-440.792	67.908	-0.143	0.145
-439.778	-75.790	0.261	0.092
-438.763	-10.545	0.146	0.096
-437.749	-114.828	-0.084	0.016
-436.734	-168.903	-0.157	-0.006
-435.719	-200.000	-0.006	-0.126
-434.705	156.329	0.117	0.160
-433.690	359.603	-0.038	-0.075
-432.676	-103.992	0.325	0.075
-431.661	220.921	-0.226	-0.359
-430.646	4.241	-0.112	0.081
-429.632	322.030	0.080	-0.151
-428.617	-151.386	0.263	0.019
-427.603	256.970	0.121	-0.206
-426.588	-200.000	0.011	-0.086
-425.573	-80.270	0.135	-0.045
-424.559	21.350	-0.169	0.136
-423.544	-3.357	-0.138	-0.095
-422.530	-130.238	0.186	0.025
-421.515	-90.208	0.265	-0.076
-420.500	123.335	0.119	0.147
-419.486	-33.846	0.219	0.119
-418.471	41.337	0.019	0.017
-417.457	800.000	0.040	-0.124
-416.442	-200.000	-0.014	-0.226
-415.428	-28.051	-0.115	0.066
-414.413	-45.294	0.200	-0.098
-413.398	-36.448	-0.048	0.026
-412.384	6.230	0.185	-0.136
-411.369	-161.706	0.078	0.004
-410.355	-200.000	0.062	0.329
-409.340	800.000	-0.043	0.142
-408.325	9.163	0.073	0.055
-407.311	800.000	-0.091	0.341
-406.296	-88.888	0.191	0.056
-405.282	-200.000	-0.102	0.449
-404.267	-200.000	0.016	-0.153
-403.252	190.196	0.137	0.204
-402.238	-10.241	0.315	-0.207
-401.223	183.261	-0.116	0.170
-400.209	83.414	-0.202	-0.218
-399.194	-115.918	-0.189	-0.035
-398.179	800.000	-0.113	-0.394
-397.165	-61.842	0.216	-0.089
-396.150	42.552	-0.051	-0.046
-395.136	448.168	0.146	-0.319
-394.121	-147.837	-0.325	-0.027
-393.106	28.721	0.213	0.179
-392.092	-1.381	-0.155	0.108
-391.077	86.562	0.061	0.066
-390.063	-31.701	-0.290	0.161
-389.048	154.720	0.046	-0.062
-388.033	437.082	0.021	-0.046
-387.019	171.622	-0.058	-0.082
-386.004	-129.583	0.399	0.055
-384.990	-32.070	-0.237	0.131
-383.975	241.246	-0.148	0.244
-382.960	48.829	0.105	0.098
-381.946	-92.538	-0.056	0.016
-380.931	321.515	0.051	0.096
-379.917	-8.164	0.223	0.149
-378.902	-158.128	-0.326	-0.019
-377.888	42.121	-0.132	-0.119
-376.873	532.738	-0.040	0.094
-375.858	-87.982	0.074	0.022
-374.844	-165.864	0.435	0.018
-373.829	-109.310	-0.168	0.035
-372.815	-200.000	-0.045	-0.214
-371.800	100.244	-0.072	0.082
-370.785	710.261	-0.149	-0.391
-369.771	-200.000	-0.085	0.000
-368.756	427.464	0.153	0.327
-367.742	209.919	0.067	0.104
-366.727	-108.085	-0.157	-0.034
-365.712	-96.060	0.355	0.093
-364.698	335.352	-0.123	0.236
-363.683	302.507	-0.165	-0.303
-362.669	-172.983	0.128	-0.004
-361.654	72.155	0.089	0.092
-360.639	389.511	-0.098	0.202
-359.625	99.377	-0.255	-0.291
-358.610	-200.000	-0.053	-0.247
-357.596	-86.972	-0.270	0.081
-356.581	21.088	0.118	-0.094
-355.566	77.851	0.182	-0.192
-354.552	800.000	-0.118	-0.395
-353.537	-200.000	0.009	0.074
-352.523	-48.776	0.087	-0.041
-351.508	500.523	-0.108	0.247
-350.493	87.032	0.123	-0.134
-349.479	-80.904	0.206	0.068
-348.464	364.766	-0.138	-0.275
-347.450	-97.287	-0.226	0.058
-346.435	800.000	0.071	0.200
-345.420	221.720	0.191	-0.304
-344.406	-172.912	0.123	-0.004
-343.391	-200.000	0.028	0.152
-342.377	289.717	0.079	0.141
-341.362	-70.012	-0.413	-0.156
-340.348	-69.274	0.055	-0.021
-339.333	158.546	0.076	-0.105
-338.318	-8.894	-0.331	-0.220
-337.304	37.576	-0.120	-0.105
-336.289	-200.000	-0.038	-0.429
-335.275	478.698	-0.137	0.307
-334.260	-177.994	-0.275	0.006
-333.245	-86.879	0.189	-0.057
-332.231	-36.498	0.345	-0.183
-331.216	445.975	-0.089	-0.193
-330.202	-200.000	0.034	-0.230
-329.187	800.000	0.057	-0.170
-328.172	-98.411	-0.223	0.056
-327.158	632.092	0.097	-0.242
-326.143	133.128	0.179	-0.229
-325.129	800.000	-0.135	0.416
-324.114	-167.459	0.103	-0.004
-323.099	412.443	-0.087	-0.182
-322.085	-200.000	-0.005	-0.215
-321.070	-82.523	-0.104	0.033
-320.056	680.558	-0.058	-0.150
-319.041	-200.000	-0.056	-0.422
-318.026	16.991	0.303	0.237
-317.012	-104.837	0.236	-0.053
-315.997	470.029	0.137	0.303
-314.983	108.356	-0.215	-0.254
-313.968	348.663	0.194	0.379
-312.953	800.000	0.019	-0.056
-311.939	-20.107	0.134	-0.082
-310.924	36.347	0.194	0.169
-309.910	336.731	-0.117	-0.224
-308.895	143.639	-0.241	0.317
-307.880	800.000	-0.017	0.054
-306.866	-77.195	-0.080	0.028
-305.851	212.254	-0.103	-0.161
-304.837	-146.309	-0.456	0.039
-303.822	-147.723	-0.449	-0.037
-302.807	-79.516	0.213	0.071
-301.793	-128.154	0.070	-0.010
-300.778	-67.003	-0.174	-0.068
-299.764	800.000	-0.052	0.197
-298.749	-37.484	-0.154	-0.081
-297.735	-107.726	0.318	-0.069
-296.720	-50.832	0.190	-0.088
-295.705	238.792	0.136	-0.223
-294.691	-0.229	-0.274	0.192
-293.676	800.000	-0.083	-0.309
-292.662	-162.355	0.244	0.012
-291.647	-200.000	-0.014	0.086
-290.632	-143.755	0.164	-0.015
-289.618	800.000	-0.121	0.445
-288.603	26.164	0.100	-0.082
-287.589	800.000	0.027	0.076
-286.574	-87.211	-0.366	-0.110
-285.559	-126.580	0.368	-0.054
-284.545	-146.598	-0.301	0.026
-283.530	-200.000	-0.021	-0.176
-282.516	155.995	0.122	-0.165
-281.501	-169.142	0.046	-0.002
-280.486	-161.330	0.187	-0.010
-279.472	-92.396	0.380	-0.105
-278.457	-65.879	0.366	-0.144
-277.443	466.565	0.133	-0.293
-276.428	75.006	0.077	0.080
-275.413	-140.307	-0.112	-0.011
-274.399	-65.384	0.032	0.013
-273.384	800.000	0.033	0.092
-272.370	800.000	-0.083	0.345
-271.355	89.290	0.164	0.180
-270.340	109.958	0.104	-0.123
-269.326	-48.114	-0.312	0.149
-268.311	10.985	-0.151	-0.114
-267.297	-29.461	0.096	-0.054
-266.282	-103.286	0.093	-0.022
-265.267	-13.351	0.166	-0.106
-264.253	-33.614	-0.115	-0.063
-263.238	-33.837	0.251	-0.136
-262.224	-139.175	-0.169	0.018
-261.209	-65.797	0.417	-0.164
-260.195	-67.901	0.239	-0.092
-259.180	-190.401	0.089	-0.001
-258.165	-21.242	-0.264	-0.159
-257.151	-116.760	-0.205	0.037
-256.136	154.690	0.095	-0.129
-255.122	586.609	0.147	0.357
-254.107	211.060	0.209	0.324
-253.092	86.154	0.306	0.332
-252.078	28.745	0.084	-0.070
-251.063	800.000	-0.026	-0.102
-250.049	529.686	0.152	0.354
-249.034	-143.376	0.149	0.014
-248.019	800.000	0.053	-0.225
-247.005	-47.039	-0.217	0.104
-245.990	-200.000	-0.031	-0.410
-244.976	29.680	0.272	-0.228
-243.961	-200.000	0.028	0.294
-242.946	-19.788	0.144	-0.087
-241.932	-200.000	0.054	0.427
-240.917	800.000	-0.060	-0.205
-239.903	-200.000	-0.017	0.277
-238.888	385.670	0.156	0.317
-237.873	-127.796	-0.149	0.021
-236.859	32.920	0.206	0.175
-235.844	-22.056	-0.139	0.083
-234.830	289.983	-0.081	0.144
-233.815	373.108	-0.018	0.035
-232.800	623.309	0.069	0.170
-231.786	800.000	0.082	-0.346
-230.771	-22.116	0.197	-0.118
-229.757	-200.000	-0.032	0.345
-228.742	-200.000	0.061	0.263
-227.727	93.873	0.110	0.123
-226.713	229.083	-0.076	0.123
-225.698	-16.482	-0.116	0.072
-224.684	364.014	0.035	0.070
-223.669	11.720	-0.105	0.080
-222.655	-200.000	0.005	-0.045
-221.640	172.555	-0.078	-0.111
-220.625	-30.031	0.045	0.025
-219.611	-83.044	-0.180	-0.057
-218.596	-101.035	-0.091	-0.022
-217.582	414.758	-0.184	0.386
-216.567	800.000	-0.093	-0.285
-215.552	-4.079	0.047	-0.032
-214.538	800.000	0.057	-0.184
-213.523	125.016	0.069	-0.085
-212.509	800.000	-0.057	-0.240
-211.494	95.685	0.110	0.124
-210.479	-18.014	0.130	-0.080
-209.465	-192.513	-0.239	0.002
-208.450	92.214	-0.165	-0.183
-207.436	-59.385	0.019	0.008
-206.421	-10.614	0.181	0.118
-205.406	61.135	0.277	0.271
-204.392	221.950	-0.206	-0.326
-203.377	-200.000	0.049	-0.228
-202.363	11.462	0.227	-0.171
-201.348	-77.604	0.117	-0.040
-200.333	25.697	0.187	0.153
-199.319	142.491	0.073	-0.095
-198.304	139.429	0.249	0.322
-197.290	204.231	-0.168	0.257
-196.275	-159.220	0.120	0.007
-195.260	800.000	0.024	-0.087
-194.246	-52.189	-0.554	-0.252
-193.231	217.490	-0.131	-0.204
-192.217	-143.518	0.132	-0.012
-191.202	-99.113	0.112	-0.028
-190.187	561.090	-0.095	0.226
-189.173	213.286	-0.067	-0.105
-188.158	164.094	0.110	-0.153
-187.144	-114.613	0.124	0.023
-186.129	37.089	0.163	-0.142
-185.114	800.000	0.056	0.190
-184.100	131.287	0.096	0.121
-183.085	-200.000	-0.001	0.102
-182.071	272.289	0.067	-0.117
-181.056	-133.861	-0.053	-0.006
-180.042	201.070	0.188	-0.285
-179.027	171.917	-0.152	0.215
-178.012	-66.161	-0.158	-0.062
-176.998	-118.285	0.357	0.062
-175.983	-200.000	0.083	0.425
-174.969	245.497	-0.165	0.272
-173.954	-124.508	-0.120	-0.018
-172.939	7.102	0.153	-0.112
-171.925	-19.653	-0.189	-0.115
-170.910	-200.000	0.044	-0.574
-169.896	359.660	0.145	-0.285
-168.881	-64.640	0.216	0.086
-167.866	-105.799	-0.244	-0.054
-166.852	38.135	-0.285	-0.249
-165.837	-31.265	0.339	-0.188
-164.823	-48.545	0.185	-0.087
-163.808	800.000	-0.183	0.568
-162.793	59.596	-0.215	-0.208
-161.779	480.402	0.235	0.524
-160.764	-24.694	0.173	-0.101
-159.750	-20.945	0.139	-0.083
-158.735	800.000	-0.063	0.248
-157.720	-200.000	-0.069	0.385
-156.706	800.000	0.136	0.484
-155.691	144.299	0.330	0.433
-154.677	475.150	-0.121	-0.268
-153.662	-99.134	-0.320	-0.079
-152.647	800.000	-0.133	0.378
-151.633	-48.887	-0.111	0.052
-150.618	38.295	0.048	-0.042
-149.604	-200.000	0.052	0.284
-148.589	-157.591	0.256	-0.015
-147.574	83.109	-0.187	0.200
-146.560	-125.037	0.583	0.088
-145.545	-147.089	0.144	-0.012
-144.531	341.411	0.085	0.164
-143.516	-124.475	-0.240	-0.037
-142.502	800.000	0.037	-0.145
-141.487	249.294	-0.032	-0.053
-140.472	-200.000	0.028	0.317
-139.458	-200.000	0.029	0.281
-138.443	-123.276	0.386	-0.060
-137.429	-43.420	0.148	-0.073
-136.414	-91.780	0.111	0.031
-135.399	-33.210	-0.255	-0.139
-134.385	-200.000	-0.018	-0.093
-133.370	800.000	0.039	-0.115
-132.356	-91.348	-0.094	-0.026
-131.341	187.658	0.156	-0.228
-130.326	-30.002	0.129	0.072
-129.312	-200.000	-0.055	0.244
-128.297	-60.955	0.440	0.182
-127.283	123.892	0.123	-0.151
-126.268	-10.197	0.219	0.142
-125.253	800.000	-0.105	0.326
-124.239	69.895	0.136	0.137
-123.224	735.266	0.066	0.173
-122.210	-29.969	-0.240	0.134
-121.195	-136.356	0.321	0.037
-120.180	-51.788	0.148	-0.068
-119.166	80.730	-0.158	0.167
-118.151	-123.779	-0.086	0.013
-117.137	-168.263	0.214	0.008
-116.122	82.590	0.208	0.222
-115.107	800.000	0.067	-0.225
-114.093	-200.000	0.009	0.375
-113.078	294.826	0.116	0.207
-112.064	-64.304	0.126	0.050
-111.049	136.978	-0.083	-0.107
-110.034	-126.574	0.173	0.025
-109.020	220.025	-0.056	0.088
-108.005	-130.610	0.368	0.049
-106.991	176.890	-0.204	-0.291
-105.976	127.939	-0.151	0.189
-104.962	-109.364	-0.094	0.020
-103.947	-67.196	0.205	0.079
-102.932	-200.000	-0.054	0.380
-101.918	-135.073	0.210	-0.025
-100.903	28.566	-0.176	-0.145
-99.889	17.319	-0.088	0.069
-98.874	246.188	0.146	0.240
-97.859	-78.691	-0.348	-0.116
-96.845	265.548	-0.148	-0.253
-95.830	-37.514	0.103	0.054
-94.816	388.084	-0.053	0.107
-93.801	800.000	0.107	0.355
-92.786	-11.367	-0.111	0.071
-91.772	-52.514	-0.062	0.028
-90.757	-53.398	0.157	-0.070
-89.743	-94.098	0.247	-0.066
-88.728	17.032	-0.147	0.114
-87.713	38.476	0.113	0.099
-86.699	-126.299	0.251	0.037
-85.684	-200.000	0.028	-0.188
-84.670	-9.689	-0.043	0.028
-83.655	234.211	0.116	0.188
-82.640	800.000	0.090	-0.321
-81.626	-26.936	0.039	-0.022
-80.611	4.429	-0.066	-0.047
-79.597	207.356	-0.038	0.058
-78.582	-36.503	0.262	-0.138
-77.567	6.713	0.162	0.118
-76.553	-200.000	0.004	-0.041
-75.538	-48.339	0.045	0.021
-74.524	-137.793	0.255	-0.028
-73.509	594.347	0.037	-0.089
-72.494	75.432	0.090	-0.093
-71.480	800.000	-0.055	0.202
-70.465	138.287	0.063	-0.081
-69.451	800.000	0.107	0.306
-68.436	544.456	0.081	-0.190
-67.422	163.586	-0.221	0.304
-66.407	-82.729	0.266	0.084
-65.392	19.744	-0.034	0.027
-64.378	-200.000	-0.039	-0.308
-63.363	800.000	0.073	0.288
-62.349	800.000	-0.099	0.368
-61.334	55.354	-0.879	-0.831
-60.319	55.475	0.677	0.640
-59.305	800.000	-0.339	-1.208
-58.290	795.726	0.578	1.556
-57.276	292.432	0.826	1.471
-56.261	-200.000	117.579	655.598
-55.246	506.298	1545.351	3502.005
-54.232	174.100	2722.298	3844.564
-53.217	99.376	2291.768	2590.674
-52.203	35.438	1898.797	1628.698
-51.188	29.550	1691.781	1406.388
-50.173	27.186	1649.951	1353.974
-49.159	47.497	1708.201	1556.372
-48.144	46.048	1721.567	1557.508
-47.130	29.068	1678.549	1391.523
-46.115	26.454	1664.340	1360.066
-45.100	26.338	1659.844	1355.471
-44.086	26.294	1657.043	1352.797
-43.071	26.374	1653.795	1350.693
-42.057	26.264	1651.956	1348.316
-41.042	26.294	1650.045	1346.923
-40.027	26.286	1647.817	1344.989
-39.013	26.346	1645.848	1343.780
-37.998	26.228	1644.816	1342.004
-36.984	26.326	1643.118	1341.292
-35.969	26.341	1641.853	1340.324
-34.954	26.506	1640.067	1340.030
-33.940	26.440	1638.466	1338.179
-32.925	26.450	1636.529	1336.621
-31.911	26.388	1635.169	1334.998
-30.896	26.413	1633.179	1333.504
-29.881	26.412	1631.540	1332.104
-28.867	26.444	1630.219	1331.209
-27.852	26.395	1629.030	1329.830
-26.838	26.372	1627.422	1328.291
-25.823	26.360	1626.366	1327.291
-24.809	26.564	1624.050	1326.845
-23.794	26.505	1623.250	1325.702
-22.779	26.439	1621.610	1323.827
-21.765	26.409	1620.050	1322.280
-20.750	26.406	1618.530	1320.970
-19.736	26.490	1617.070	1320.337
-18.721	26.529	1615.748	1319.492
-17.706	26.532	1614.089	1318.104
-16.692	26.445	1612.510	1316.131
-15.677	26.476	1610.970	1315.047
-14.663	26.535	1609.689	1314.377
-13.648	26.459	1608.517	1312.819
-12.633	26.508	1606.488	1311.460
-11.619	26.539	1605.262	1310.634
-10.604	26.348	1604.324	1308.435
-9.590	26.542	1602.215	1308.067
-8.575	26.477	1600.851	1306.433
-7.560	26.492	1599.625	1305.489
-6.546	26.551	1598.734	1305.134
-5.531	26.439	1597.446	1303.222
-4.517	26.481	1596.260	1302.507
-3.502	26.522	1595.269	1301.937
-2.487	26.510	1593.888	1300.679
-1.473	26.158	1581.930	1288.357
-0.458	23.089	1562.601	1250.892
0.556	21.517	1563.941	1219.370
1.571	19.122	1587.639	1220.770
2.586	18.732	1599.923	1227.325
3.600	17.064	1545.799	1174.166
4.615	10.693	1439.678	1052.292
5.629	5.025	1379.730	973.102
6.644	4.002	1372.752	961.739
7.659	3.982	1371.933	960.956
8.673	4.073	1371.329	961.014
9.688	4.143	1368.810	959.595
10.702	4.081	1365.762	956.993
11.717	6.730	1370.838	976.874
12.731	14.210	1384.345	1032.999
13.746	20.866	1395.706	1082.904
14.761	22.833	1397.759	1096.632
15.775	22.156	1396.204	1091.112
16.790	21.235	1393.525	1083.210
17.804	20.501	1391.589	1077.064
18.819	20.277	1390.327	1074.605
19.834	20.272	1389.336	1073.710
20.848	20.189	1388.988	1072.833
21.863	20.029	1387.379	1070.511
22.877	19.971	1386.120	1069.082
23.892	19.885	1385.588	1068.049
24.907	19.870	1384.178	1066.777
25.921	19.834	1383.053	1065.593
26.936	19.851	1382.499	1065.178
27.950	19.891	1381.539	1064.589
28.965	19.947	1380.529	1064.057
29.980	20.089	1379.515	1064.054
30.994	20.366	1378.290	1064.714
32.009	20.292	1378.035	1063.969
33.023	20.342	1376.359	1062.892
34.038	20.203	1374.689	1060.655
35.053	20.078	1373.662	1059.004
36.067	20.001	1372.974	1057.911
37.082	20.062	1371.988	1057.430
38.096	20.142	1370.972	1057.041
39.111	20.105	1370.344	1056.236
40.126	19.985	1368.912	1054.310
41.140	19.671	1368.109	1051.690
42.155	19.562	1367.264	1050.281
43.169	19.537	1366.838	1049.709
44.184	19.494	1366.832	1049.349
45.199	19.573	1366.839	1049.741
46.213	19.743	1366.726	1050.600
47.228	20.003	1365.528	1051.163
48.242	20.000	1364.588	1050.327
49.257	19.903	1363.003	1048.424
50.271	19.990	1361.444	1047.661
51.286	19.924	1359.898	1045.978
52.301	19.940	1358.650	1045.024
53.315	19.682	1358.078	1042.934
54.330	19.787	1356.543	1042.295
55.344	19.626	1355.270	1040.259
56.359	19.680	1354.453	1039.863
57.374	19.535	1353.603	1038.243
58.388	19.398	1353.276	1037.080
59.403	19.417	1352.590	1036.575
60.417	19.415	1351.684	1035.780
61.432	19.401	1350.473	1034.676
62.447	19.181	1350.060	1032.949
63.461	19.198	1348.613	1031.848
64.476	19.281	1346.862	1030.916
65.490	19.233	1346.074	1029.937
66.505	19.260	1344.442	1028.756
67.520	19.257	1343.525	1027.945
68.534	19.228	1342.401	1026.821
69.549	19.189	1341.120	1025.519
70.563	19.059	1340.157	1023.919
71.578	18.984	1339.151	1022.614
72.593	19.034	1338.162	1022.063
73.607	18.962	1337.484	1021.029
74.622	19.003	1336.842	1020.689
75.636	19.193	1335.934	1021.034
76.651	19.065	1335.722	1020.022
77.666	19.159	1334.660	1019.678
78.680	19.218	1334.861	1020.092
79.695	19.418	1333.809	1020.381
80.709	19.433	1333.606	1020.223
81.724	19.587	1332.737	1020.380
82.739	19.567	1332.103	1019.682
83.753	19.792	1331.538	1020.488
84.768	19.952	1330.351	1020.435
85.782	20.018	1329.714	1020.243
86.797	20.077	1328.516	1019.580
87.812	20.020	1327.088	1018.057
88.826	19.994	1325.805	1016.829
89.841	20.094	1324.785	1016.547
90.855	20.138	1324.240	1016.297
91.870	20.137	1323.160	1015.372
92.884	20.299	1322.177	1015.473
93.899	20.220	1321.580	1014.463
94.914	20.228	1320.950	1013.941
95.928	20.204	1320.215	1013.144
96.943	20.181	1319.135	1012.090
97.957	20.046	1318.271	1010.552
98.972	20.088	1317.392	1010.035
99.987	20.099	1316.276	1009.151
101.001	20.177	1315.366	1008.818
102.016	20.166	1314.279	1007.829
103.030	20.117	1313.328	1006.728
104.045	20.027	1312.864	1005.760
105.060	19.877	1310.977	1003.357
106.074	19.622	1309.334	1000.536
107.089	19.290	1307.802	997.356
108.103	19.173	1306.694	995.747
109.118	19.256	1304.703	994.619
110.133	19.266	1303.885	993.963
111.147	19.186	1302.934	992.689
112.162	19.350	1301.553	992.496
113.176	19.487	1300.445	992.352
114.191	19.475	1299.888	991.768
115.206	19.557	1298.200	990.861
116.220	19.376	1297.489	989.194
117.235	19.363	1296.293	988.120
118.249	19.354	1295.135	987.098
119.264	19.254	1293.937	985.525
120.279	19.200	1292.691	984.185
121.293	19.266	1291.326	983.431
122.308	19.015	1290.644	981.397
123.322	18.954	1289.354	979.981
124.337	18.880	1288.724	978.990
125.352	18.910	1287.426	978.092
126.366	18.953	1286.112	977.249
127.381	18.955	1285.227	976.505
128.395	18.964	1283.869	975.437
129.410	18.922	1283.266	974.652
130.424	19.067	1282.311	974.665
131.439	19.249	1281.864	975.264
132.454	19.322	1281.480	975.299
133.468	19.443	1280.325	975.022
134.483	19.383	1279.818	974.208
135.497	19.409	1278.632	973.368
136.512	19.287	1277.537	971.760
137.527	19.480	1276.258	971.787
138.541	19.467	1274.703	970.442
139.556	19.674	1273.441	970.562
140.570	19.656	1272.990	970.031
141.585	19.751	1271.652	969.458
142.600	19.872	1271.056	969.596
143.614	19.983	1270.522	969.724
144.629	20.019	1269.331	968.927
145.643	20.069	1267.881	968.017
146.658	19.731	1266.936	965.322
147.673	19.708	1265.044	963.667
148.687	19.522	1263.929	961.698
149.702	19.445	1262.515	960.104
150.716	19.471	1260.743	958.820
151.731	19.309	1260.315	957.509
152.746	19.460	1258.942	957.220
153.760	19.505	1258.281	956.878
154.775	19.676	1256.995	956.767
155.789	19.715	1256.353	956.406
156.804	19.732	1255.209	955.548
157.819	19.872	1254.114	955.399
158.833	19.984	1253.610	955.551
159.848	20.142	1252.400	955.416
160.862	19.997	1251.815	954.085
161.877	19.666	1249.710	950.573
162.892	19.399	1248.713	948.264
163.906	19.339	1248.139	947.415
164.921	19.506	1246.755	947.197
165.935	19.617	1245.534	946.795
166.950	19.661	1245.700	947.080
167.964	19.630	1245.261	946.490
168.979	19.587	1244.064	945.265
169.994	19.532	1243.088	944.136
171.008	19.539	1242.483	943.630
172.023	19.836	1241.622	944.515
173.037	19.955	1241.092	944.680
174.052	19.933	1240.052	943.683
175.067	19.593	1238.934	940.896
176.081	19.450	1237.282	938.780
177.096	19.367	1236.830	937.905
178.110	19.429	1235.780	937.363
179.125	19.607	1234.208	937.051
180.140	19.658	1233.510	936.717
181.154	19.851	1232.298	936.758
182.169	19.955	1231.473	936.608
183.183	19.927	1230.421	935.575
184.198	20.041	1229.376	935.316
185.213	20.084	1227.936	934.367
186.227	19.992	1227.640	933.565
187.242	20.116	1226.741	933.466
188.256	20.158	1225.815	932.904
189.271	20.262	1224.352	932.266
190.286	19.932	1223.727	929.938
191.300	19.560	1221.975	926.526
192.315	19.389	1221.260	924.988
193.329	19.495	1221.234	925.455
194.344	19.591	1220.311	925.185
195.359	19.541	1219.852	924.488
196.373	19.792	1218.886	925.017
197.388	19.880	1219.204	925.648
198.402	20.097	1219.336	926.827
199.417	20.329	1218.537	927.378
200.432	20.388	1217.914	927.138
201.446	20.533	1217.021	927.146
202.461	20.558	1216.501	926.801
203.475	20.574	1215.420	925.980
204.490	20.262	1213.661	922.898
205.504	20.111	1212.338	921.008
206.519	19.959	1211.645	919.596
207.534	19.939	1210.346	918.423
208.548	19.894	1209.194	917.229
209.563	20.034	1208.488	917.355
210.577	19.897	1207.447	915.756
211.592	20.015	1207.129	916.056
212.607	20.247	1206.300	916.572
213.621	20.379	1205.117	916.290
214.636	20.193	1204.697	914.912
215.650	20.142	1203.410	913.582
216.665	20.435	1202.355	914.241
217.680	20.479	1202.327	914.373
218.694	20.466	1201.845	913.856
219.709	20.487	1200.723	913.033
220.723	20.450	1199.799	912.054
221.738	20.436	1198.732	911.090
222.753	20.438	1198.028	910.487
223.767	20.480	1197.199	909.993
224.782	20.651	1196.639	910.380
225.796	20.698	1196.302	910.291
226.811	20.660	1195.685	909.542
227.826	20.408	1195.012	907.633
228.840	20.231	1194.351	906.127
229.855	20.278	1193.080	905.328
230.869	20.445	1191.885	905.209
231.884	20.262	1191.284	903.722
232.899	20.119	1190.336	902.178
233.913	20.148	1189.580	901.674
234.928	20.025	1188.980	900.503
235.942	19.935	1187.975	899.195
236.957	20.003	1187.224	898.901
237.972	19.862	1186.834	897.791
238.986	19.956	1186.447	897.909
240.001	19.994	1185.391	897.223
241.015	20.131	1184.297	897.025
242.030	20.199	1183.709	896.856
243.045	20.286	1183.208	896.844
244.059	20.396	1181.881	896.327
245.074	20.298	1181.722	895.623
246.088	20.437	1181.096	895.785
247.103	20.719	1180.207	896.487
248.117	20.693	1180.226	896.286
249.132	20.945	1179.662	897.076
250.147	21.189	1179.258	897.942
251.161	21.288	1178.821	898.041
252.176	21.363	1177.843	897.602
253.190	21.377	1177.137	897.056
254.205	21.495	1176.887	897.390
255.220	21.477	1176.206	896.698
256.234	21.581	1175.181	896.370
257.249	21.495	1174.652	895.447
258.263	21.410	1173.953	894.402
259.278	21.478	1173.101	894.020
260.293	21.479	1172.692	893.635
261.307	21.552	1172.159	893.523
262.322	21.586	1171.864	893.392
263.336	21.714	1170.658	893.045
264.351	21.443	1170.387	891.380
265.366	21.561	1170.016	891.622
266.380	21.583	1169.245	891.065
267.395	21.582	1167.761	889.851
268.409	21.301	1167.059	887.809
269.424	21.254	1166.611	887.148
270.439	21.401	1165.462	886.943
271.453	21.304	1164.856	885.911
272.468	21.076	1163.879	883.935
273.482	21.106	1163.003	883.346
274.497	21.121	1162.423	882.899
275.512	21.061	1161.947	882.158
276.526	21.160	1160.888	881.777
277.541	21.224	1160.085	881.412
278.555	21.244	1160.012	881.381
279.570	21.312	1159.305	881.107
280.585	21.610	1158.807	882.151
281.599	21.643	1157.798	881.471
282.614	21.248	1156.583	878.484
283.628	21.262	1154.837	877.148
284.643	21.121	1154.456	876.076
285.657	21.170	1153.515	875.528
286.672	21.307	1151.909	874.918
287.687	21.325	1151.690	874.767
288.701	21.270	1150.763	873.708
289.716	21.234	1150.425	873.195
290.730	21.311	1149.326	872.667
291.745	21.426	1148.799	872.763
292.760	21.334	1148.499	871.998
293.774	21.489	1148.502	872.698
294.789	21.564	1147.760	872.432
295.803	21.555	1146.893	871.649
296.818	21.395	1145.891	870.014
297.833	21.309	1145.003	868.839
298.847	21.276	1144.096	867.907
299.862	21.318	1143.320	867.451
300.876	21.302	1143.286	867.269
301.891	21.454	1142.699	867.499
302.906	21.686	1142.179	868.180
303.920	21.760	1141.443	867.909
304.935	21.892	1141.157	868.269
305.949	22.086	1140.229	868.442
306.964	21.933	1139.088	866.742
307.979	21.822	1138.317	865.529
308.993	21.709	1137.713	864.436
310.008	21.840	1137.105	864.545
311.022	21.946	1136.360	864.423
312.037	21.943	1135.194	863.448
313.052	21.666	1133.864	860.996
314.066	21.313	1133.501	858.912
315.081	21.305	1132.131	857.759
316.095	21.313	1131.344	857.125
317.110	21.291	1130.889	856.594
318.125	21.204	1130.177	855.557
319.139	21.197	1129.425	854.878
320.154	21.192	1128.810	854.310
321.168	21.276	1128.018	854.045
322.183	21.295	1127.500	853.671
323.197	21.419	1126.730	853.620
324.212	21.443	1126.322	853.349
325.227	21.389	1125.910	852.699
326.241	21.518	1124.912	852.498
327.256	21.497	1124.039	851.657
328.270	21.440	1122.734	850.315
329.285	21.325	1122.608	849.587
330.300	21.371	1121.264	848.715
331.314	21.397	1120.579	848.251
332.329	21.547	1119.263	847.906
333.343	21.496	1118.936	847.333
334.358	21.683	1118.308	847.688
335.373	21.772	1117.602	847.509
336.387	21.924	1116.642	847.443
337.402	21.871	1116.186	846.764
338.416	21.886	1115.679	846.377
339.431	22.002	1115.381	846.637
340.446	22.131	1114.643	846.620
341.460	22.275	1113.774	846.581
342.475	22.382	1113.451	846.772
343.489	22.285	1112.741	845.691
344.504	22.471	1111.407	845.497
345.519	22.467	1111.106	845.176
346.533	22.647	1109.961	845.094
347.548	22.708	1109.234	844.757
348.562	22.760	1107.772	843.814
349.577	22.248	1107.453	841.050
350.592	22.030	1106.277	839.040
351.606	21.907	1105.017	837.423
352.621	21.780	1104.496	836.347
353.635	21.796	1103.720	835.764
354.650	21.765	1103.245	835.181
355.665	21.907	1102.450	835.184
356.679	21.974	1102.058	835.131
357.694	22.035	1102.015	835.317
358.708	22.079	1101.072	834.733
359.723	22.037	1100.466	834.000
360.738	22.178	1099.498	833.862
361.752	22.193	1099.374	833.769
362.767	22.088	1099.021	832.928
363.781	22.198	1097.945	832.562
364.796	22.336	1097.612	832.887
365.810	22.592	1096.997	833.558
366.825	22.643	1096.815	833.584
367.840	22.787	1096.478	833.937
368.854	22.873	1095.843	833.785
369.869	22.801	1095.154	832.849
370.883	22.712	1094.207	831.636
371.898	22.447	1093.338	829.652
372.913	22.499	1092.255	829.002
373.927	22.488	1092.196	828.834
374.942	22.824	1091.589	829.876
375.956	22.703	1091.103	828.869
376.971	22.609	1090.732	828.069
377.986	22.717	1089.809	827.804
379.000	22.849	1089.244	827.918
380.015	22.818	1089.158	827.633
381.029	22.878	1088.659	827.462
382.044	22.988	1087.586	827.090
383.059	22.916	1086.446	825.814
384.073	23.015	1085.413	825.420
385.088	22.887	1085.014	824.445
386.102	22.952	1083.964	823.877
387.117	22.664	1083.046	821.763
388.132	22.374	1082.245	819.731
389.146	22.448	1081.442	819.396
390.161	22.484	1080.622	818.869
391.175	22.566	1079.654	818.443
392.190	22.690	1079.185	818.593
393.205	22.878	1078.452	818.835
394.219	22.856	1077.808	818.174
395.234	22.693	1076.853	816.620
396.248	22.610	1075.330	815.008
397.263	22.574	1074.778	814.354
398.278	22.326	1074.253	812.739
399.292	22.307	1073.086	811.694
400.307	22.202	1072.440	810.651
401.321	22.236	1071.647	810.138
402.336	22.181	1071.402	809.627
403.350	22.334	1070.928	809.902
404.365	22.311	1069.900	808.945
405.380	22.504	1069.532	809.480
406.394	22.549	1068.605	808.916
407.409	22.760	1067.957	809.322
408.423	23.010	1067.257	809.864
409.438	23.026	1066.874	809.575
410.453	23.130	1066.300	809.545
411.467	23.170	1065.360	808.942
412.482	23.132	1065.243	808.606
413.496	23.187	1064.499	808.223
414.511	23.312	1063.980	808.326
415.526	23.499	1063.547	808.782
416.540	23.537	1063.076	808.521
417.555	23.550	1062.011	807.701
418.569	23.496	1061.325	806.864
419.584	23.319	1061.038	805.767
420.599	23.086	1060.879	804.518
421.613	157.806	1405.339	1798.980
422.628	145.122	1455.463	1799.051
