DTS Sentinel unit serial number:	SN413079Multiplexer serial number:	ORYXHardware model number:	OX4-SRSoftware version number:	ORYX F/W v4.00 Oryx Data Collector v3.7.2.0data status	okinstallation	princeton_trtdifferential loss correction	single-endedforward channel	channel 2reverse channel	N/Adate	2019/09/12time	19:32:48forward acquisition time	15.00reverse acquisition time	0.00gamma	496.2192k internal	0.2327k external	0.2327temperature offset calibration	1.0159default loss term (dB/km)	0.3790temperature slope calibration	1.0000multiplexer offset coefficient	1.0000multiplexer slope coefficient	1.0000fibre end	0.00T internal ref (°C)	32.25T ext. ref 1 (°C)	3.37T ext. ref 2 (°C)	26.77length (m)	temperature (°C)	Stokes	anti-Stokes-747.200	-6.088	1.212	0.835
-746.185	-53.090	0.212	0.098
-745.171	-50.165	0.880	0.420
-744.156	118.714	-0.395	0.491
-743.142	-74.750	-1.071	-0.388
-742.127	-0.004	0.445	0.320
-741.112	38.741	-1.012	-0.911
-740.098	-139.947	-0.026	-0.003
-739.083	800.000	-0.157	0.620
-738.069	273.395	-0.279	-0.498
-737.054	2.973	-0.117	-0.086
-736.039	43.342	-0.291	-0.268
-735.025	214.055	0.369	0.588
-734.010	-39.138	0.405	-0.214
-732.996	-21.432	-0.122	-0.075
-731.981	800.000	-0.221	0.743
-730.966	146.836	-0.348	0.471
-729.952	-157.285	0.484	-0.030
-728.937	-200.000	0.018	-0.087
-727.923	-86.259	-0.501	0.156
-726.908	-132.938	1.069	0.137
-725.894	-21.208	-0.285	-0.176
-724.879	12.055	0.045	-0.035
-723.864	-142.719	0.248	0.024
-722.850	-159.407	0.287	-0.016
-721.835	-200.000	-0.035	-0.330
-720.821	-144.310	0.889	0.083
-719.806	-200.000	-0.084	0.525
-718.791	-174.026	-0.399	-0.012
-717.777	24.912	-0.671	0.561
-716.762	674.055	-0.153	0.400
-715.748	95.026	0.367	-0.421
-714.733	32.807	-0.219	0.191
-713.718	144.135	-0.796	1.069
-712.704	-200.000	-0.077	-0.359
-711.689	34.961	-0.233	0.206
-710.675	-82.185	-0.679	0.223
-709.660	53.114	0.768	0.740
-708.645	-105.057	-0.605	-0.139
-707.631	-45.951	0.225	0.112
-706.616	800.000	0.075	0.224
-705.602	-13.325	-0.378	0.247
-704.587	-43.424	-0.366	-0.186
-703.572	99.000	0.380	0.442
-702.558	-170.312	0.195	-0.007
-701.543	-167.001	0.384	0.016
-700.529	800.000	0.081	-0.267
-699.514	174.928	-0.341	0.498
-698.499	72.211	-0.441	0.463
-697.485	800.000	-0.107	0.427
-696.470	-9.473	-0.701	0.471
-695.456	199.946	0.164	0.254
-694.441	-96.218	-0.903	-0.241
-693.426	51.909	-0.515	-0.494
-692.412	-89.377	-0.689	-0.204
-691.397	682.517	0.182	-0.477
-690.383	800.000	0.164	-0.512
-689.368	97.490	0.121	-0.140
-688.354	415.254	0.108	-0.232
-687.339	-152.637	0.510	0.037
-686.324	358.938	0.314	0.631
-685.310	-200.000	-0.000	0.350
-684.295	65.832	0.465	0.474
-683.281	-200.000	-0.020	-0.992
-682.266	-45.886	-0.506	-0.251
-681.251	-60.169	-0.310	-0.133
-680.237	617.650	-0.193	-0.488
-679.222	59.977	0.460	0.457
-678.208	-160.226	-0.243	0.013
-677.193	-46.159	0.158	-0.078
-676.178	410.829	-0.387	-0.825
-675.164	181.623	-0.284	0.421
-674.149	-96.013	0.423	0.113
-673.135	-136.249	-0.826	-0.097
-672.120	-200.000	-0.014	0.678
-671.105	-136.426	0.544	0.064
-670.091	-80.897	-0.173	0.058
-669.076	-193.348	0.074	0.001
-668.062	117.318	-0.505	-0.624
-667.047	-128.308	-0.531	-0.076
-666.032	-97.188	0.606	-0.159
-665.018	-200.000	-0.018	-0.413
-664.003	-155.105	0.328	0.022
-662.989	-97.682	-0.873	0.227
-661.974	-200.000	0.050	-0.433
-660.959	268.970	0.417	-0.735
-659.945	-200.000	0.082	-0.482
-658.930	-200.000	0.044	-0.649
-657.916	693.861	-0.205	0.540
-656.901	-141.967	0.423	0.042
-655.886	7.062	0.482	0.361
-654.872	138.678	0.086	0.113
-653.857	-87.661	-0.420	-0.127
-652.843	20.207	-0.315	0.256
-651.828	150.375	-0.196	-0.268
-650.814	-101.668	0.457	-0.111
-649.799	559.863	-0.315	-0.763
-648.784	62.603	-0.377	0.379
-647.770	127.757	0.357	0.456
-646.755	-190.306	0.574	0.006
-645.741	-92.781	0.869	0.244
-644.726	-200.000	0.057	0.300
-643.711	368.579	-0.165	0.335
-642.697	-70.869	0.411	-0.156
-641.682	96.381	0.406	-0.466
-640.668	-200.000	0.145	-0.715
-639.653	108.235	0.254	0.305
-638.638	641.757	0.182	0.467
-637.624	121.519	0.243	0.304
-636.609	-200.000	-0.036	0.209
-635.595	339.417	0.417	0.817
-634.580	-184.699	0.365	0.006
-633.565	-53.720	0.059	0.027
-632.551	-45.417	-0.131	0.065
-631.536	-144.137	-0.850	-0.080
-630.522	-200.000	-0.104	0.723
-629.507	30.032	0.515	-0.441
-628.492	367.558	-0.089	0.181
-627.478	-200.000	-0.068	0.561
-626.463	39.285	-0.045	-0.040
-625.449	-200.000	0.020	-0.311
-624.434	184.662	-0.441	0.656
-623.419	-200.000	0.111	-1.019
-622.405	-135.809	0.545	-0.065
-621.390	-200.000	-0.036	0.161
-620.376	210.652	0.289	0.456
-619.361	252.941	-0.253	0.434
-618.346	-70.859	-0.456	0.173
-617.332	27.937	0.730	0.618
-616.317	-101.825	0.496	0.120
-615.303	-53.086	0.586	0.270
-614.288	6.666	-0.670	-0.500
-613.273	-200.000	0.173	-0.986
-612.259	-84.920	0.105	0.033
-611.244	-117.894	-0.616	-0.111
-610.230	-40.694	-0.292	-0.152
-609.215	-154.042	-0.029	-0.002
-608.201	-200.000	0.069	-0.406
-607.186	-8.342	-0.780	-0.526
-606.171	-7.935	-1.098	-0.743
-605.157	-192.568	0.455	0.004
-604.142	188.852	0.052	-0.079
-603.128	269.899	-0.290	0.512
-602.113	22.277	0.367	-0.301
-601.098	-136.041	0.581	-0.068
-600.084	-94.941	-1.214	-0.329
-599.069	252.734	0.325	-0.555
-598.055	155.364	0.369	-0.510
-597.040	-2.159	0.668	0.470
-596.025	316.773	-0.262	0.496
-595.011	469.946	-0.278	-0.627
-593.996	15.449	0.118	-0.093
-592.982	800.000	-0.019	0.076
-591.967	48.660	-0.364	0.342
-590.952	-200.000	0.085	0.710
-589.938	371.690	0.204	-0.415
-588.923	26.381	0.838	-0.702
-587.909	-200.000	0.029	0.679
-586.894	-12.847	0.572	0.373
-585.879	225.388	0.518	0.840
-584.865	-86.133	-0.060	0.019
-583.850	33.788	0.228	-0.199
-582.836	-124.247	-0.986	-0.155
-581.821	-27.063	-0.032	-0.019
-580.806	-180.217	-0.259	-0.005
-579.792	167.704	-0.039	0.056
-578.777	-133.622	-0.707	0.089
-577.763	-131.049	-0.444	-0.059
-576.748	86.826	0.316	0.349
-575.733	-200.000	0.110	-0.582
-574.719	-114.582	0.500	-0.096
-573.704	-200.000	-0.027	0.327
-572.690	266.926	0.402	-0.703
-571.675	-89.461	0.370	-0.109
-570.661	-91.974	-0.650	-0.185
-569.646	311.417	-0.411	-0.772
-568.631	-200.000	-0.045	0.733
-567.617	-100.449	-1.104	-0.274
-566.602	9.553	0.947	-0.718
-565.588	-69.361	-0.603	0.232
-564.573	724.271	-0.389	1.038
-563.558	31.636	0.224	-0.193
-562.544	-27.340	-0.179	0.105
-561.529	195.844	0.012	-0.019
-560.515	267.287	0.086	-0.151
-559.500	-200.000	-0.041	0.407
-558.485	-47.550	-0.301	-0.147
-557.471	-23.894	0.702	0.421
-556.456	-112.434	-0.126	-0.025
-555.442	482.167	-0.144	-0.328
-554.427	443.961	0.339	-0.744
-553.412	655.115	-0.074	0.191
-552.398	104.770	-0.572	0.675
-551.383	-141.083	0.460	-0.047
-550.369	-14.503	0.140	0.090
-549.354	-54.603	0.282	-0.128
-548.339	38.439	-0.938	0.837
-547.325	-13.059	0.279	0.181
-546.310	800.000	0.251	0.880
-545.296	111.904	0.436	-0.527
-544.281	-10.550	0.187	0.124
-543.266	-5.476	0.386	-0.265
-542.252	312.453	0.518	-0.973
-541.237	-40.785	0.486	0.252
-540.223	0.102	0.192	-0.137
-539.208	167.925	0.467	-0.665
-538.193	91.353	-0.370	0.416
-537.179	-93.199	-0.779	-0.216
-536.164	800.000	-0.112	0.318
-535.150	-57.847	-0.834	0.365
-534.135	-200.000	0.029	-0.451
-533.121	-94.050	-0.035	0.010
-532.106	-125.095	0.422	-0.065
-531.091	800.000	0.032	0.110
-530.077	-3.988	-0.186	-0.129
-529.062	-200.000	-0.055	-0.445
-528.048	55.609	0.397	-0.384
-527.033	-200.000	0.022	0.479
-526.018	33.162	0.387	0.335
-525.004	-200.000	0.083	-0.521
-523.989	22.656	-0.211	0.172
-522.975	2.754	-0.686	0.497
-521.960	549.160	0.173	-0.414
-520.945	-8.748	0.247	0.166
-519.931	-200.000	0.147	-0.822
-518.916	-200.000	0.021	0.511
-517.902	-128.489	-0.509	-0.072
-516.887	-14.413	-0.527	-0.339
-515.872	-51.754	0.869	0.404
-514.858	-80.804	0.942	0.313
-513.843	-118.275	0.466	-0.083
-512.829	-200.000	-0.090	0.913
-511.814	-97.468	-0.359	-0.093
-510.799	16.078	-0.392	-0.309
-509.785	800.000	0.080	-0.325
-508.770	434.556	0.165	0.359
-507.756	-80.789	-0.628	0.208
-506.741	239.087	-0.232	0.385
-505.726	-4.653	-0.217	0.150
-504.712	19.730	0.292	-0.235
-503.697	-200.000	-0.128	0.714
-502.683	702.891	-0.389	-1.025
-501.668	-21.986	0.140	-0.085
-500.653	135.668	-0.117	-0.151
-499.639	784.811	0.032	-0.087
-498.624	204.414	0.202	0.312
-497.610	-200.000	0.076	0.693
-496.595	-49.577	-0.381	-0.181
-495.581	382.933	-0.072	-0.149
-494.566	-200.000	-0.001	-0.351
-493.551	-200.000	0.082	-0.511
-492.537	113.638	0.737	0.893
-491.522	1.104	0.260	-0.186
-490.508	767.389	-0.224	-0.607
-489.493	-85.249	0.338	0.106
-488.478	-23.789	0.185	0.111
-487.464	-200.000	-0.096	0.565
-486.449	234.553	-0.551	0.906
-485.435	341.722	-0.200	-0.390
-484.420	-38.107	-0.083	-0.044
-483.405	-200.000	0.075	0.488
-482.391	-127.633	-0.321	-0.046
-481.376	-70.468	0.215	0.081
-480.362	29.654	-0.756	-0.642
-479.347	8.782	0.668	-0.502
-478.332	761.704	0.338	-0.915
-477.318	-89.156	-0.184	-0.054
-476.303	314.772	-0.045	0.084
-475.289	-57.638	-0.420	0.184
-474.274	114.479	-0.339	-0.411
-473.259	-166.590	0.148	0.006
-472.245	-88.867	-0.833	-0.247
-471.230	108.881	-0.124	-0.148
-470.216	-46.179	-0.368	0.181
-469.201	-200.000	0.027	-0.196
-468.186	1.598	0.452	0.324
-467.172	786.944	0.127	0.347
-466.157	-95.093	0.217	-0.058
-465.143	-21.232	-0.107	-0.065
-464.128	534.671	-0.234	0.553
-463.113	-31.965	-0.919	-0.513
-462.099	102.718	-0.577	0.673
-461.084	17.677	-0.268	0.213
-460.070	-200.000	-0.042	-0.612
-459.055	-71.540	0.152	-0.057
-458.040	-110.271	-0.124	0.026
-457.026	-200.000	-0.011	-0.448
-456.011	705.955	0.134	0.353
-454.997	-184.404	1.209	-0.020
-453.982	-6.349	-0.278	0.189
-452.968	336.964	0.137	0.266
-451.953	185.529	0.352	0.521
-450.938	-95.739	-0.360	-0.096
-449.924	-99.263	0.541	0.136
-448.909	32.774	-0.655	-0.565
-447.895	-200.000	0.054	-0.320
-446.880	19.131	-0.686	0.548
-445.865	-24.880	0.733	0.434
-444.851	17.132	-0.572	-0.452
-443.836	652.102	-0.305	0.778
-442.822	30.466	0.724	0.616
-441.807	-126.033	-0.025	-0.004
-440.792	29.077	0.632	-0.535
-439.778	402.062	0.220	-0.460
-438.763	-87.977	-0.338	0.101
-437.749	-70.854	0.107	-0.040
-436.734	-116.209	0.048	0.009
-435.719	153.341	0.257	-0.350
-434.705	-57.274	-0.805	0.353
-433.690	87.928	-0.435	0.480
-432.676	-200.000	-0.063	0.813
-431.661	-173.620	-0.918	-0.027
-430.646	-189.408	-0.515	-0.006
-429.632	127.863	-0.049	-0.063
-428.617	175.868	0.361	-0.521
-427.603	44.886	0.887	-0.813
-426.588	-200.000	0.045	1.147
-425.573	800.000	0.066	0.212
-424.559	-84.854	-0.122	-0.038
-423.544	209.621	0.223	0.348
-422.530	268.095	-0.128	0.224
-421.515	-129.534	0.474	-0.065
-420.500	-134.662	-0.893	-0.108
-419.486	-36.807	-0.596	0.318
-418.471	-200.000	0.068	-0.455
-417.457	90.662	0.359	-0.400
-416.442	718.621	0.355	0.939
-415.428	445.171	0.148	-0.324
-414.413	-105.584	-0.944	-0.213
-413.398	1.722	0.795	0.570
-412.384	-56.832	0.910	0.400
-411.369	-22.034	0.204	-0.123
-410.355	-27.222	-0.432	-0.250
-409.340	0.021	0.519	-0.368
-408.325	-117.377	-0.496	-0.089
-407.311	79.655	-0.373	-0.399
-406.296	-150.230	0.581	-0.045
-405.282	-200.000	-0.018	-0.864
-404.267	-6.988	0.508	-0.343
-403.252	165.464	-0.278	0.391
-402.238	135.950	-0.402	-0.520
-401.223	-85.917	0.430	0.132
-400.209	170.929	-0.175	-0.249
-399.194	638.779	-0.479	1.212
-398.179	-200.000	-0.144	0.823
-397.165	424.404	0.385	0.823
-396.150	170.186	0.670	-0.954
-395.136	623.763	-0.109	-0.273
-394.121	-58.288	-0.507	0.220
-393.106	-119.317	0.948	-0.164
-392.092	-68.509	0.317	-0.122
-391.077	-121.926	0.801	0.131
-390.063	-200.000	-0.042	0.614
-389.048	723.479	-0.114	-0.302
-388.033	368.972	0.103	0.208
-387.019	-117.390	0.717	-0.129
-386.004	-68.991	-0.897	-0.344
-384.990	240.935	-0.291	0.484
-383.975	61.764	-0.140	0.138
-382.960	-200.000	-0.001	-0.569
-381.946	-124.603	-0.641	0.099
-380.931	-146.512	-0.639	0.055
-379.917	-136.746	-0.690	-0.079
-378.902	163.344	-0.253	0.354
-377.888	377.158	-0.062	0.126
-376.873	-200.000	0.062	0.307
-375.858	-105.498	-0.866	-0.195
-374.844	-35.756	-0.454	-0.245
-373.829	800.000	0.152	-0.517
-372.815	39.621	0.616	0.549
-371.800	87.305	0.716	0.787
-370.785	-125.088	-0.412	0.063
-369.771	800.000	-0.296	0.998
-368.756	148.973	-0.476	0.639
-367.742	123.315	0.616	-0.767
-366.727	13.705	0.231	0.179
-365.712	215.210	-0.438	-0.690
-364.698	800.000	0.113	0.337
-363.683	-86.194	0.188	0.058
-362.669	-104.270	-1.030	-0.237
-361.654	-116.269	0.900	-0.166
-360.639	85.481	0.779	0.850
-359.625	-200.000	-0.015	-0.570
-358.610	259.699	-0.477	-0.818
-357.596	-112.309	0.763	-0.152
-356.581	-200.000	0.008	-0.060
-355.566	-108.914	-0.348	0.074
-354.552	472.863	-0.198	0.443
-353.537	91.285	0.341	-0.380
-352.523	-44.671	-0.639	0.317
-351.508	800.000	-0.171	0.515
-350.493	190.919	-0.263	0.393
-349.479	15.637	0.394	-0.308
-348.464	-33.954	-0.207	0.113
-347.450	-200.000	-0.098	0.813
-346.435	-103.405	0.065	0.015
-345.420	-67.918	-0.865	-0.335
-344.406	14.498	-0.269	0.208
-343.391	152.509	-0.387	-0.524
-342.377	204.980	0.174	-0.268
-341.362	-82.928	0.260	-0.083
-340.348	-43.012	0.548	-0.276
-339.333	-81.901	-0.590	-0.192
-338.318	371.790	0.074	0.149
-337.304	-176.410	-0.718	0.018
-336.289	-87.635	0.706	-0.212
-335.275	-87.976	-0.574	-0.171
-334.260	800.000	-0.023	0.098
-333.245	-178.069	-0.610	-0.014
-332.231	26.449	0.850	-0.706
-331.216	-124.719	-0.377	-0.058
-330.202	800.000	-0.118	-0.438
-329.187	405.695	-0.187	-0.391
-328.172	118.833	0.245	0.301
-327.158	800.000	-0.025	-0.072
-326.143	79.461	0.251	0.268
-325.129	800.000	-0.149	-0.531
-324.114	71.443	0.205	0.211
-323.099	800.000	0.252	0.722
-322.085	-122.630	-0.321	-0.052
-321.070	800.000	-0.163	-0.605
-320.056	800.000	0.083	0.230
-319.041	-200.000	0.015	-0.283
-318.026	248.578	-0.455	-0.764
-317.012	341.192	0.124	-0.241
-315.997	-122.332	0.402	0.065
-314.983	800.000	-0.053	0.226
-313.968	-115.381	0.626	0.117
-312.953	727.374	0.136	0.360
-311.939	-33.073	-0.428	0.235
-310.924	-65.685	0.234	-0.093
-309.910	53.968	-0.669	-0.638
-308.895	702.548	0.109	0.286
-307.880	-85.390	-0.727	-0.225
-306.866	369.782	0.345	-0.692
-305.851	75.134	0.256	-0.267
-304.837	-12.554	0.370	-0.239
-303.822	800.000	0.162	0.476
-302.807	-156.096	0.661	0.041
-301.793	-200.000	0.026	0.245
-300.778	-84.879	0.605	-0.188
-299.764	-200.000	-0.122	-0.777
-298.749	124.523	0.233	0.291
-297.735	-45.256	0.308	-0.151
-296.720	-123.447	0.174	0.027
-295.705	800.000	0.089	-0.356
-294.691	-118.628	-0.732	0.128
-293.676	47.191	-0.279	0.258
-292.662	-59.167	-0.697	0.298
-291.647	13.723	-0.255	-0.196
-290.632	-39.283	0.251	0.131
-289.618	800.000	-0.177	-0.674
-288.603	-105.835	-0.630	-0.141
-287.589	29.530	0.336	0.283
-286.574	43.035	-0.110	0.099
-285.559	-88.587	-0.564	-0.166
-284.545	642.488	0.261	0.659
-283.530	-127.191	0.572	0.083
-282.516	-200.000	0.034	-0.839
-281.501	-80.952	0.429	0.141
-280.486	-200.000	-0.019	-0.144
-279.472	800.000	0.212	-0.850
-278.457	49.020	-0.704	0.654
-277.443	45.762	0.367	0.336
-276.428	-98.746	0.875	-0.221
-275.413	286.288	0.176	0.314
-274.399	-47.398	-0.868	0.418
-273.384	29.924	0.301	-0.254
-272.370	-79.741	0.582	-0.194
-271.355	-87.233	-0.766	-0.230
-270.340	-9.479	0.459	-0.303
-269.326	179.740	-0.049	0.071
-268.311	-200.000	-0.029	0.152
-267.297	-96.017	-0.529	-0.139
-266.282	488.773	0.334	0.755
-265.267	-200.000	0.023	-0.302
-264.253	14.923	0.476	-0.368
-263.238	-105.932	-0.352	-0.078
-262.224	-82.502	-0.622	-0.200
-261.209	800.000	-0.076	-0.241
-260.195	521.638	-0.080	0.186
-259.180	307.726	-0.253	-0.468
-258.165	7.895	-0.174	0.129
-257.151	-117.402	-0.652	-0.117
-256.136	-41.218	-0.399	0.204
-255.122	166.729	0.199	0.279
-254.107	143.095	0.605	0.796
-253.092	-200.000	0.128	0.704
-252.078	-73.337	-0.249	0.090
-251.063	-125.881	-0.614	-0.092
-250.049	-200.000	0.034	-0.264
-249.034	-114.469	0.164	0.031
-248.019	-58.459	-0.730	0.314
-247.005	151.167	-0.322	-0.433
-245.990	-105.934	0.727	-0.162
-244.976	800.000	0.289	0.822
-243.961	-70.023	-0.224	0.084
-242.946	259.481	-0.340	0.580
-241.932	462.677	0.253	-0.558
-240.917	123.300	0.255	0.317
-239.903	-200.000	0.026	0.399
-238.888	56.403	0.154	-0.148
-237.873	0.882	0.591	-0.419
-236.859	15.661	-0.385	-0.299
-235.844	271.259	-0.047	-0.082
-234.830	-96.283	0.471	-0.123
-233.815	-200.000	-0.106	-0.483
-232.800	-200.000	-0.056	-1.046
-231.786	662.949	0.200	0.510
-230.771	-186.402	-0.728	0.010
-229.757	192.499	-0.600	-0.895
-228.742	-200.000	-0.039	0.648
-227.727	-40.902	0.307	0.157
-226.713	-200.000	-0.115	-0.794
-225.698	-96.227	-0.431	-0.113
-224.684	-74.706	-0.288	-0.102
-223.669	23.634	0.327	0.266
-222.655	-120.961	0.560	-0.093
-221.640	-20.093	-0.536	0.326
-220.625	-17.219	-1.001	-0.623
-219.611	91.594	0.982	1.090
-218.596	-30.858	0.116	-0.065
-217.582	-200.000	0.002	0.305
-216.567	308.013	0.274	0.505
-215.552	-139.204	0.710	0.076
-214.538	685.090	-0.290	-0.747
-213.523	-50.253	0.190	-0.089
-212.509	-200.000	0.030	0.218
-211.494	-78.380	0.018	0.006
-210.479	47.626	0.332	-0.306
-209.465	85.932	-0.250	-0.272
-208.450	148.774	-0.620	0.827
-207.436	-25.375	1.148	-0.670
-206.421	-200.000	0.088	-0.943
-205.406	-200.000	0.068	0.439
-204.392	-102.680	0.986	0.232
-203.377	-183.677	-0.191	-0.003
-202.363	-134.527	0.998	-0.120
-201.348	-106.271	-0.964	-0.213
-200.333	-11.436	-0.383	0.249
-199.319	-6.866	-0.279	0.187
-198.304	80.207	0.224	0.238
-197.290	207.618	-0.213	-0.328
-196.275	95.171	0.166	-0.186
-195.260	800.000	0.156	-0.478
-194.246	-97.038	0.175	-0.045
-193.231	-200.000	-0.013	-0.487
-192.217	-183.658	-0.620	-0.010
-191.202	-32.491	0.141	-0.077
-190.187	70.432	-0.040	-0.041
-189.173	-108.742	0.977	0.206
-188.158	800.000	-0.441	-1.204
-187.144	392.895	-0.360	-0.739
-186.129	-171.112	0.553	0.018
-185.114	-159.062	-0.855	0.048
-184.100	-122.405	-0.104	-0.017
-183.085	202.028	0.268	-0.408
-182.071	12.293	0.224	0.170
-181.056	-70.262	0.541	-0.203
-180.042	-200.000	0.056	0.418
-179.027	800.000	-0.139	0.469
-178.012	59.703	-0.515	0.501
-176.998	107.707	-0.243	0.285
-175.983	-154.694	0.873	0.057
-174.969	354.435	-0.135	-0.265
-173.954	800.000	0.093	0.287
-172.939	-55.971	0.528	-0.232
-171.925	800.000	-0.131	-0.384
-170.910	-22.132	0.560	0.335
-169.896	-87.035	0.490	-0.147
-168.881	-62.446	-0.575	0.236
-167.866	-200.000	0.013	0.117
-166.852	-90.782	-0.467	-0.133
-165.837	-200.000	-0.067	-0.839
-164.823	403.679	0.184	0.382
-163.808	257.614	0.288	-0.489
-162.793	255.014	-0.232	0.391
-161.779	800.000	0.236	-0.724
-160.764	-200.000	-0.025	-0.538
-159.750	148.511	-0.451	0.600
-158.735	800.000	0.066	-0.188
-157.720	-76.438	0.748	-0.259
-156.706	324.721	0.245	0.462
-155.691	800.000	0.137	0.396
-154.677	151.281	0.279	0.374
-153.662	764.718	0.431	1.154
-152.647	-77.898	-0.510	0.173
-151.633	800.000	-0.214	0.627
-150.618	800.000	-0.211	0.860
-149.604	-114.951	-0.485	-0.091
-148.589	180.369	-0.469	-0.678
-147.574	152.710	0.388	-0.522
-146.560	-146.226	-0.516	-0.045
-145.545	-132.784	0.369	-0.046
-144.531	99.050	-0.210	-0.239
-143.516	-200.000	0.103	-0.865
-142.502	277.889	0.162	-0.284
-141.487	-31.177	0.443	-0.246
-140.472	20.979	0.369	0.295
-139.458	182.464	-0.371	-0.538
-138.443	-188.963	0.684	0.008
-137.429	86.660	0.262	0.285
-136.414	800.000	0.129	0.411
-135.399	800.000	-0.379	-1.168
-134.385	324.634	-0.110	-0.208
-133.370	800.000	-0.111	0.345
-132.356	96.681	-0.324	0.366
-131.341	-107.674	-0.191	-0.041
-130.326	121.202	-0.255	-0.312
-129.312	-146.912	-0.200	-0.017
-128.297	44.609	-0.453	-0.410
-127.283	-74.221	0.271	0.096
-126.268	49.174	-0.433	0.400
-125.253	-41.036	0.725	0.368
-124.239	-55.360	0.278	0.123
-123.224	800.000	0.308	-0.879
-122.210	281.179	-0.195	-0.343
-121.195	-161.932	-0.474	0.024
-120.180	475.313	0.318	-0.708
-119.166	-200.000	0.007	-0.417
-118.151	800.000	-0.294	0.889
-117.137	-30.290	-0.135	0.076
-116.122	17.211	-0.581	0.454
-115.107	-200.000	-0.000	-0.754
-114.093	-200.000	-0.010	0.593
-113.078	800.000	-0.233	0.954
-112.064	800.000	0.210	-0.724
-111.049	232.012	-0.233	-0.376
-110.034	125.818	0.145	-0.180
-109.020	-200.000	0.158	1.032
-108.005	22.494	-0.428	-0.344
-106.991	800.000	0.169	0.673
-105.976	206.184	-0.286	0.438
-104.962	-116.028	-0.254	-0.047
-103.947	-153.294	-0.180	-0.012
-102.932	-200.000	0.036	0.558
-101.918	32.096	0.592	0.502
-100.903	800.000	0.177	-0.709
-99.889	69.688	0.080	0.081
-98.874	39.916	-0.175	-0.154
-97.859	-117.785	0.873	-0.154
-96.845	365.710	-0.105	-0.208
-95.830	-163.479	0.181	0.008
-94.816	800.000	-0.173	0.676
-93.801	10.930	0.773	0.580
-92.786	-75.412	0.465	0.163
-91.772	-200.000	-0.128	1.025
-90.757	-200.000	0.010	-0.466
-89.743	202.024	0.293	0.444
-88.728	800.000	0.093	-0.277
-87.713	147.600	-0.159	0.211
-86.699	-200.000	-0.128	0.708
-85.684	280.652	0.099	-0.174
-84.670	800.000	-0.048	0.192
-83.655	-18.935	-0.802	0.491
-82.640	-96.212	0.495	0.129
-81.626	800.000	-0.068	-0.291
-80.611	-200.000	0.033	-0.581
-79.597	-138.768	0.120	-0.013
-78.582	-161.048	-0.809	-0.042
-77.567	315.348	0.316	0.585
-76.553	800.000	-0.145	0.530
-75.538	-10.580	0.487	-0.316
-74.524	-200.000	0.006	0.716
-73.509	135.044	0.479	0.611
-72.494	-152.024	0.256	0.018
-71.480	281.342	-0.167	0.294
-70.465	-136.646	-0.942	-0.107
-69.451	-200.000	0.005	-0.245
-68.436	-200.000	-0.162	-0.769
-67.422	49.571	0.354	0.327
-66.407	-200.000	-0.020	-0.380
-65.392	-200.000	-0.030	0.262
-64.378	-181.307	0.775	0.015
-63.363	-200.000	0.067	-0.590
-62.349	-200.000	-0.050	0.459
-61.334	16.432	-0.849	-0.658
-60.319	51.847	-0.367	0.343
-59.305	105.547	-0.960	-1.113
-58.290	-200.000	0.034	0.559
-57.276	141.950	0.506	0.658
-56.261	-200.000	95.504	595.570
-55.246	675.488	1353.171	3449.269
-54.232	203.673	2527.719	3839.712
-53.217	112.824	2247.455	2672.160
-52.203	41.783	1880.958	1673.345
-51.188	35.466	1673.739	1441.688
-50.173	32.768	1630.497	1384.612
-49.159	50.758	1680.865	1561.886
-48.144	52.037	1694.406	1583.917
-47.130	35.085	1655.323	1422.765
-46.115	32.322	1641.828	1390.712
-45.100	32.310	1635.606	1385.302
-44.086	32.249	1634.216	1383.618
-43.071	32.398	1631.024	1381.952
-42.057	31.872	1629.941	1377.120
-41.042	32.099	1626.107	1375.487
-40.027	32.304	1624.489	1375.563
-39.013	32.143	1622.736	1372.853
-37.998	31.990	1622.138	1371.168
-36.984	32.136	1620.395	1370.712
-35.969	32.160	1618.843	1369.515
-34.954	32.118	1617.574	1368.084
-33.940	32.263	1615.187	1367.066
-32.925	32.226	1613.215	1365.075
-31.911	32.119	1612.229	1363.406
-30.896	32.112	1610.648	1361.964
-29.881	32.367	1608.076	1361.586
-28.867	31.988	1608.253	1358.936
-27.852	32.234	1606.028	1358.779
-26.838	32.314	1604.826	1358.286
-25.823	32.315	1602.094	1355.929
-24.809	32.256	1601.561	1354.994
-23.794	32.288	1600.548	1354.315
-22.779	32.494	1598.009	1353.595
-21.765	32.277	1596.258	1350.503
-20.750	32.288	1595.009	1349.470
-19.736	32.159	1595.337	1348.768
-18.721	32.311	1593.397	1348.160
-17.706	32.554	1590.094	1347.053
-16.692	32.232	1589.481	1344.182
-15.677	32.260	1587.944	1343.022
-14.663	32.165	1586.625	1341.177
-13.648	32.331	1585.285	1341.173
-12.633	32.101	1585.141	1339.358
-11.619	32.447	1582.212	1339.298
-10.604	32.348	1580.153	1336.794
-9.590	32.312	1579.791	1336.184
-8.575	32.217	1578.084	1334.012
-7.560	32.212	1577.920	1333.781
-6.546	32.571	1575.697	1334.397
-5.531	32.457	1574.830	1332.801
-4.517	32.236	1574.001	1330.480
-3.502	32.251	1573.079	1329.753
-2.487	32.385	1570.927	1328.830
-1.473	31.885	1560.047	1316.067
-0.458	28.904	1539.794	1278.244
0.556	26.777	1540.395	1246.015
1.571	24.308	1563.759	1247.549
2.586	23.784	1574.791	1252.547
3.600	21.044	1522.845	1192.419
4.615	12.585	1414.144	1053.274
5.629	4.860	1351.334	958.995
6.644	3.499	1342.160	944.071
7.659	3.349	1340.981	942.241
8.673	3.264	1341.148	941.753
9.688	3.369	1337.972	940.084
10.702	3.198	1336.054	937.609
11.717	6.673	1341.877	962.844
12.731	16.072	1359.503	1033.270
13.746	23.443	1371.133	1087.412
14.761	24.887	1373.519	1098.070
15.775	24.971	1370.813	1096.326
16.790	24.505	1370.890	1093.433
17.804	24.377	1370.072	1091.906
18.819	24.160	1368.759	1089.433
19.834	24.653	1366.978	1090.930
20.848	24.303	1367.596	1089.191
21.863	24.533	1366.107	1089.307
22.877	24.350	1366.068	1088.066
23.892	24.664	1364.188	1088.382
24.907	24.367	1364.640	1086.837
25.921	24.525	1362.626	1086.102
26.936	24.371	1362.076	1084.627
27.950	24.694	1360.518	1085.255
28.965	24.500	1359.363	1083.058
29.980	24.459	1358.890	1082.335
30.994	24.882	1357.524	1083.716
32.009	24.589	1357.370	1081.724
33.023	24.549	1357.109	1081.175
34.038	25.017	1353.369	1080.928
35.053	24.535	1353.446	1077.982
36.067	24.444	1352.468	1076.562
37.082	24.506	1351.490	1076.062
38.096	24.565	1350.860	1075.820
39.111	24.484	1350.323	1074.812
40.126	24.415	1349.873	1073.938
41.140	23.995	1349.388	1070.933
42.155	24.159	1348.793	1071.353
43.169	24.050	1347.479	1069.557
44.184	24.106	1347.167	1069.550
45.199	24.060	1348.152	1069.964
46.213	24.164	1348.709	1070.935
47.228	24.358	1346.506	1070.257
48.242	24.493	1346.263	1070.775
49.257	24.474	1344.646	1069.285
50.271	24.515	1343.189	1068.278
51.286	24.368	1341.762	1066.166
52.301	24.428	1340.304	1065.272
53.315	24.291	1338.343	1062.802
54.330	24.583	1338.267	1064.390
55.344	24.525	1337.434	1063.285
56.359	24.312	1336.926	1061.519
57.374	24.043	1335.750	1058.894
58.388	24.085	1335.879	1059.150
59.403	24.005	1333.957	1057.058
60.417	24.034	1333.178	1056.517
61.432	24.074	1332.518	1056.143
62.447	23.833	1331.805	1054.052
63.461	23.751	1330.950	1052.800
64.476	23.735	1329.499	1051.462
65.490	23.968	1328.342	1051.831
66.505	24.034	1327.378	1051.367
67.520	24.155	1325.023	1050.122
68.534	24.149	1324.638	1049.685
69.549	23.931	1324.426	1048.142
70.563	23.844	1323.469	1046.780
71.578	23.829	1322.337	1045.701
72.593	23.554	1322.447	1044.078
73.607	23.878	1319.884	1043.868
74.622	23.759	1320.448	1043.519
75.636	23.876	1319.754	1043.565
76.651	24.005	1317.769	1042.659
77.666	24.028	1318.442	1043.238
78.680	23.805	1318.348	1041.759
79.695	24.094	1317.540	1042.725
80.709	24.029	1316.465	1041.402
81.724	24.289	1316.278	1042.681
82.739	24.265	1315.087	1041.508
83.753	24.326	1314.537	1041.333
84.768	24.789	1313.379	1043.027
85.782	24.637	1313.390	1042.052
86.797	24.554	1311.765	1040.188
87.812	24.567	1310.435	1039.116
88.826	24.808	1308.279	1038.716
89.841	24.637	1308.548	1037.847
90.855	24.552	1307.974	1036.807
91.870	24.691	1306.702	1036.512
92.884	24.749	1306.381	1036.498
93.899	24.675	1306.113	1035.766
94.914	24.806	1304.638	1035.266
95.928	24.643	1304.708	1034.283
96.943	24.867	1302.538	1033.766
97.957	24.661	1302.113	1032.151
98.972	24.603	1301.393	1031.155
99.987	24.515	1300.709	1030.011
101.001	24.653	1300.071	1030.212
102.016	24.810	1297.311	1028.836
103.030	24.752	1297.674	1028.700
104.045	24.280	1297.372	1025.651
105.060	24.334	1295.328	1024.259
106.074	24.137	1294.774	1022.597
107.089	24.110	1293.517	1021.359
108.103	23.898	1291.940	1018.807
109.118	24.112	1289.414	1017.949
110.133	23.830	1288.497	1015.525
111.147	23.913	1287.662	1015.251
112.162	23.921	1287.289	1014.913
113.176	24.068	1285.571	1014.306
114.191	24.103	1285.183	1014.112
115.206	24.344	1284.429	1014.798
116.220	24.141	1282.981	1012.407
117.235	24.175	1281.718	1011.517
118.249	23.856	1281.048	1009.090
119.264	24.017	1278.988	1008.286
120.279	24.051	1279.066	1008.450
121.293	24.069	1278.279	1007.842
122.308	23.609	1278.008	1004.938
123.322	23.828	1276.085	1004.572
124.337	23.803	1275.201	1003.650
125.352	23.602	1275.068	1002.320
126.366	23.767	1274.011	1002.333
127.381	23.940	1272.912	1002.351
128.395	23.819	1271.193	1000.232
129.410	23.807	1269.958	999.103
130.424	23.566	1270.645	998.197
131.439	23.777	1269.402	998.318
132.454	23.844	1270.133	999.181
133.468	24.007	1268.831	998.984
134.483	24.061	1268.602	999.020
135.497	24.139	1266.467	997.686
136.512	24.294	1265.301	997.547
137.527	24.253	1263.902	996.125
138.541	24.063	1263.852	994.936
139.556	24.015	1263.482	994.291
140.570	24.237	1262.494	994.665
141.585	24.164	1262.228	993.957
142.600	24.663	1260.061	994.945
143.614	24.397	1261.326	994.370
144.629	24.705	1258.392	993.683
145.643	24.359	1257.445	990.925
146.658	24.217	1256.404	989.227
147.673	24.312	1256.370	989.642
148.687	24.075	1255.146	987.274
149.702	23.914	1253.187	984.758
150.716	23.996	1250.975	983.384
151.731	23.735	1250.134	981.195
152.746	23.656	1249.434	980.124
153.760	24.007	1248.358	981.124
154.775	24.272	1247.231	981.614
155.789	24.686	1246.763	983.438
156.804	24.206	1245.301	979.561
157.819	24.431	1244.240	979.875
158.833	24.627	1241.785	978.928
159.848	24.463	1243.088	978.966
160.862	24.335	1243.025	978.129
161.877	24.116	1241.337	975.516
162.892	24.338	1238.765	974.619
163.906	23.892	1238.521	971.908
164.921	24.048	1238.244	972.457
165.935	24.320	1237.040	972.907
166.950	24.256	1237.527	972.856
167.964	24.247	1236.593	971.988
168.979	24.262	1235.574	971.182
169.994	24.021	1236.168	970.245
171.008	24.153	1233.802	969.022
172.023	24.402	1233.406	969.979
173.037	24.258	1233.573	969.241
174.052	24.540	1232.015	969.461
175.067	24.485	1231.006	968.288
176.081	24.022	1230.398	965.212
177.096	23.777	1229.443	963.046
178.110	23.927	1228.903	963.352
179.125	23.840	1227.916	962.024
180.140	24.151	1227.102	962.983
181.154	24.349	1225.705	962.871
182.169	24.349	1224.629	961.939
183.183	24.363	1224.235	961.621
184.198	24.243	1223.696	960.464
185.213	24.346	1222.667	960.128
186.227	24.796	1219.911	960.291
187.242	24.453	1220.360	958.721
188.256	24.436	1219.730	958.047
189.271	24.379	1218.005	956.304
190.286	24.312	1217.795	955.698
191.300	24.202	1216.083	953.678
192.315	23.823	1216.013	951.511
193.329	24.181	1216.059	953.381
194.344	24.163	1214.755	952.177
195.359	24.107	1213.866	951.094
196.373	23.906	1212.793	949.097
197.388	24.011	1212.765	949.555
198.402	24.115	1213.476	950.580
199.417	24.688	1212.315	952.640
200.432	24.699	1212.093	952.443
201.446	24.376	1212.174	950.702
202.461	24.569	1211.197	950.879
203.475	24.767	1209.289	950.346
204.490	24.168	1209.538	947.276
205.504	24.307	1207.332	946.198
206.519	24.214	1206.663	945.099
207.534	24.155	1205.024	943.418
208.548	23.871	1204.568	941.474
209.563	23.813	1204.679	941.173
210.577	23.773	1203.157	939.687
211.592	24.115	1201.421	940.053
212.607	24.592	1202.281	943.162
213.621	24.474	1201.812	942.087
214.636	24.407	1199.802	940.079
215.650	24.117	1199.270	938.051
216.665	24.468	1197.611	938.513
217.680	24.859	1197.829	940.656
218.694	24.975	1196.366	940.033
219.709	24.759	1195.652	938.259
220.723	24.482	1194.824	936.071
221.738	24.518	1195.183	936.458
222.753	24.546	1192.995	934.807
223.767	24.247	1192.567	932.824
224.782	24.560	1192.862	934.615
225.796	24.834	1191.821	935.149
226.811	24.777	1191.526	934.532
227.826	24.686	1189.306	932.234
228.840	24.632	1188.652	931.358
229.855	24.253	1189.094	929.646
230.869	24.448	1187.503	929.337
231.884	24.262	1187.293	928.119
232.899	23.785	1186.129	924.649
233.913	23.920	1186.435	925.507
234.928	24.072	1185.961	925.844
235.942	24.317	1183.736	925.299
236.957	24.079	1183.189	923.554
237.972	23.597	1183.266	921.035
238.986	24.131	1181.408	922.271
240.001	24.321	1180.824	922.718
241.015	24.095	1180.644	921.323
242.030	24.173	1179.561	920.802
243.045	24.248	1179.318	920.916
244.059	24.274	1178.990	920.714
245.074	24.394	1178.858	921.147
246.088	24.621	1176.927	920.731
247.103	24.448	1176.277	919.249
248.117	24.873	1176.067	921.193
249.132	24.878	1175.504	920.693
250.147	25.069	1175.809	921.834
251.161	25.325	1174.466	922.015
252.176	25.004	1174.029	919.943
253.190	25.308	1173.863	921.291
254.205	25.359	1173.706	921.349
255.220	25.360	1172.425	920.266
256.234	25.722	1171.368	921.205
257.249	25.455	1170.543	919.109
258.263	25.435	1170.657	919.018
259.278	25.237	1169.691	917.166
260.293	25.443	1169.145	917.706
261.307	25.568	1169.198	918.309
262.322	25.367	1169.750	917.630
263.336	25.489	1166.944	915.973
264.351	25.295	1167.288	915.169
265.366	25.461	1166.109	915.011
266.380	25.441	1165.443	914.304
267.395	25.409	1164.816	913.572
268.409	25.057	1164.003	911.063
269.424	24.894	1162.749	909.172
270.439	25.016	1163.377	910.201
271.453	25.142	1162.062	909.734
272.468	25.151	1160.382	908.384
273.482	25.067	1159.534	907.213
274.497	24.882	1159.278	905.998
275.512	24.698	1159.377	905.065
276.526	24.850	1158.892	905.374
277.541	25.119	1157.625	905.661
278.555	25.262	1156.342	905.302
279.570	25.618	1155.952	906.707
280.585	25.545	1155.815	906.156
281.599	25.602	1154.699	905.483
282.614	25.158	1153.413	902.163
283.628	25.090	1152.121	900.731
284.643	25.078	1151.324	899.971
285.657	24.898	1151.229	898.910
286.672	24.964	1149.628	897.915
287.687	24.795	1149.356	896.772
288.701	24.861	1149.304	896.983
289.716	25.151	1147.487	896.937
290.730	24.998	1147.294	895.942
291.745	24.909	1146.995	895.187
292.760	24.673	1147.079	893.993
293.774	25.191	1146.253	895.854
294.789	25.543	1145.832	897.204
295.803	25.117	1145.222	894.523
296.818	25.168	1143.919	893.678
297.833	24.947	1143.631	892.273
298.847	25.153	1142.406	892.266
299.862	25.069	1141.157	890.792
300.876	24.817	1141.707	889.892
301.891	25.229	1140.182	890.671
302.906	25.424	1139.367	890.918
303.920	25.256	1140.107	890.586
304.935	25.574	1139.576	891.671
305.949	25.627	1138.741	891.202
306.964	25.501	1138.638	890.415
307.979	25.413	1136.383	888.142
308.993	25.391	1135.832	887.522
310.008	25.663	1135.201	888.294
311.022	25.368	1135.411	886.921
312.037	25.473	1134.814	886.894
313.052	25.383	1133.468	885.319
314.066	25.296	1132.156	883.791
315.081	25.007	1129.869	880.506
316.095	24.633	1130.108	878.777
317.110	24.984	1129.554	879.994
318.125	24.676	1128.789	877.806
319.139	24.798	1128.165	877.842
320.154	24.680	1126.342	875.766
321.168	24.987	1126.320	877.178
322.183	24.827	1126.854	876.732
323.197	25.475	1125.312	878.624
324.212	25.206	1124.684	876.740
325.227	24.975	1124.848	875.659
326.241	25.069	1125.495	876.545
327.256	25.088	1123.030	874.641
328.270	25.118	1122.767	874.504
329.285	24.788	1121.516	871.846
330.300	25.017	1119.960	871.674
331.314	25.167	1119.732	872.151
332.329	24.898	1118.630	869.908
333.343	24.984	1117.701	869.527
334.358	25.110	1117.393	869.821
335.373	25.244	1117.971	870.845
336.387	25.422	1116.707	870.646
337.402	25.380	1115.316	869.277
338.416	25.776	1114.981	870.858
339.431	25.740	1114.407	870.157
340.446	25.610	1114.472	869.503
341.460	25.775	1113.393	869.380
342.475	26.096	1112.763	870.362
343.489	25.838	1112.441	868.787
344.504	26.030	1111.543	868.935
345.519	26.103	1111.203	868.942
346.533	25.977	1109.947	867.276
347.548	26.070	1108.143	866.240
348.562	25.774	1108.547	865.053
349.577	25.737	1107.325	863.847
350.592	25.428	1106.267	861.462
351.606	25.442	1105.331	860.727
352.621	25.250	1104.761	859.289
353.635	25.078	1104.358	858.075
354.650	25.318	1103.059	858.135
355.665	25.318	1103.309	858.257
356.679	25.350	1102.368	857.601
357.694	25.491	1102.021	857.930
358.708	25.543	1101.747	857.887
359.723	25.508	1100.560	856.718
360.738	25.775	1098.731	856.490
361.752	25.728	1098.630	856.112
362.767	25.548	1099.344	855.735
363.781	25.798	1097.823	855.663
364.796	25.660	1098.192	855.223
365.810	25.973	1097.866	856.376
366.825	26.076	1097.395	856.425
367.840	26.491	1096.324	857.479
368.854	26.546	1096.080	857.472
369.869	26.266	1095.444	855.572
370.883	25.826	1094.526	852.699
371.898	25.971	1093.791	852.735
372.913	25.642	1093.460	850.848
373.927	26.053	1092.451	851.926
374.942	26.162	1092.525	852.423
375.956	25.855	1092.716	851.046
376.971	26.010	1091.172	850.501
377.986	26.040	1089.543	849.299
379.000	26.492	1090.084	851.773
380.015	26.567	1088.739	851.000
381.029	26.394	1089.494	850.698
382.044	26.573	1088.423	850.631
383.059	26.257	1088.094	848.813
384.073	26.201	1086.599	847.307
385.088	26.592	1085.575	848.270
386.102	26.320	1085.188	846.617
387.117	26.135	1083.005	843.973
388.132	25.755	1082.912	842.049
389.146	25.698	1081.892	840.915
390.161	25.556	1081.980	840.247
391.175	25.631	1081.078	839.822
392.190	26.166	1079.827	841.270
393.205	26.200	1079.695	841.252
394.219	26.246	1078.874	840.749
395.234	25.954	1077.539	838.279
396.248	25.734	1077.446	837.109
397.263	25.787	1076.878	836.839
398.278	25.659	1074.991	834.707
399.292	25.849	1074.047	834.780
400.307	25.670	1074.644	834.340
401.321	25.883	1073.400	834.286
402.336	25.499	1072.565	831.788
403.350	25.287	1072.112	830.380
404.365	25.883	1070.854	832.088
405.380	25.877	1070.238	831.505
406.394	26.081	1069.131	831.513
407.409	25.983	1069.684	831.419
408.423	26.212	1069.064	831.918
409.438	26.113	1068.886	831.248
410.453	26.584	1067.595	832.336
411.467	26.373	1067.106	830.910
412.482	26.318	1065.785	829.558
413.496	26.410	1065.910	830.005
414.511	26.526	1065.561	830.191
415.526	26.393	1065.815	829.706
416.540	26.756	1064.816	830.518
417.555	26.580	1064.790	829.615
418.569	26.076	1063.349	826.116
419.584	26.565	1063.126	828.106
420.599	26.713	1061.262	827.257
421.613	154.198	1404.001	1792.832
422.628	141.754	1453.963	1792.926
