DTS Sentinel unit serial number:	SN413079Multiplexer serial number:	ORYXHardware model number:	OX4-SRSoftware version number:	ORYX F/W v4.00 Oryx Data Collector v3.7.2.0data status	okinstallation	princeton_trtdifferential loss correction	single-endedforward channel	channel 2reverse channel	N/Adate	2019/09/12time	19:53:48forward acquisition time	15.00reverse acquisition time	0.00gamma	496.2192k internal	0.2328k external	0.2328temperature offset calibration	1.0161default loss term (dB/km)	0.3790temperature slope calibration	1.0000multiplexer offset coefficient	1.0000multiplexer slope coefficient	1.0000fibre end	0.00T internal ref (°C)	31.87T ext. ref 1 (°C)	3.42T ext. ref 2 (°C)	26.45length (m)	temperature (°C)	Stokes	anti-Stokes-747.200	-200.000	-0.020	-0.489
-746.185	-38.901	0.912	0.484
-745.171	180.279	0.120	0.178
-744.156	800.000	-0.063	0.184
-743.142	800.000	0.176	-0.717
-742.127	800.000	-0.174	-0.737
-741.112	-4.237	-0.113	-0.079
-740.098	-106.321	0.383	-0.086
-739.083	175.241	0.436	-0.636
-738.069	-103.781	-0.594	-0.140
-737.054	-114.806	0.441	-0.085
-736.039	-184.715	0.560	0.009
-735.025	-164.547	1.176	-0.054
-734.010	61.986	-0.648	-0.651
-732.996	274.358	-0.321	-0.572
-731.981	552.337	0.153	-0.371
-730.966	-130.030	1.053	0.145
-729.952	-136.945	-1.039	-0.120
-728.937	-200.000	-0.003	-0.242
-727.923	-1.490	-1.115	-0.792
-726.908	-48.371	0.349	-0.169
-725.894	101.816	0.206	0.242
-724.879	-200.000	0.016	-0.345
-723.864	-200.000	-0.101	-0.533
-722.850	800.000	0.283	-1.101
-721.835	109.508	-0.085	0.103
-720.821	230.903	-0.238	-0.393
-719.806	-200.000	-0.060	-0.563
-718.791	107.243	-0.351	-0.420
-717.777	103.290	-0.136	0.161
-716.762	-200.000	-0.139	-0.777
-715.748	-6.615	0.243	0.166
-714.733	800.000	0.167	-0.565
-713.718	-75.617	0.507	0.181
-712.704	-21.836	-0.084	0.052
-711.689	-200.000	-0.047	0.316
-710.675	-147.632	0.485	0.041
-709.660	-200.000	0.025	-0.521
-708.645	57.041	0.412	0.405
-707.631	714.417	-0.152	0.405
-706.616	-53.406	0.217	-0.100
-705.602	-200.000	0.012	-0.169
-704.587	-200.000	0.000	-0.030
-703.572	167.495	0.319	-0.456
-702.558	669.884	-0.115	-0.299
-701.543	-61.183	0.261	0.111
-700.529	-163.451	-0.532	0.025
-699.514	800.000	-0.231	0.679
-698.499	17.611	-0.541	-0.433
-697.485	-136.149	-0.740	-0.087
-696.470	-9.868	-0.276	0.185
-695.456	5.526	0.630	0.468
-694.441	-9.206	-0.633	0.426
-693.426	-109.810	-0.552	0.117
-692.412	29.033	-0.160	-0.137
-691.397	566.972	0.396	-0.967
-690.383	8.120	0.303	-0.229
-689.368	-200.000	-0.034	0.446
-688.354	99.353	0.173	-0.201
-687.339	122.985	-0.692	-0.872
-686.324	-200.000	0.126	-0.860
-685.310	-106.848	-0.432	0.096
-684.295	15.913	-0.088	-0.070
-683.281	-200.000	0.019	-0.368
-682.266	-200.000	-0.048	0.771
-681.251	800.000	0.133	0.449
-680.237	-115.495	-0.149	-0.028
-679.222	-142.641	-0.808	-0.079
-678.208	535.163	-0.176	-0.420
-677.193	-86.063	0.433	-0.134
-676.178	-134.328	0.129	0.016
-675.164	-146.079	-0.140	0.012
-674.149	133.528	-0.501	-0.652
-673.135	-100.872	-0.068	0.017
-672.120	-129.674	-0.461	0.064
-671.105	-157.095	-0.328	0.020
-670.091	50.542	0.213	0.202
-669.076	64.553	0.347	-0.351
-668.062	-59.858	-0.164	0.071
-667.047	49.757	0.919	-0.870
-666.032	-162.962	-0.337	-0.016
-665.018	89.169	0.484	-0.542
-664.003	395.253	0.130	-0.272
-662.989	273.082	-0.589	1.046
-661.974	-200.000	-0.140	-1.004
-660.959	-200.000	0.014	-0.768
-659.945	383.791	0.475	0.982
-658.930	718.739	0.289	0.771
-657.916	800.000	0.141	-0.419
-656.901	165.479	0.065	-0.092
-655.886	220.553	-0.067	-0.108
-654.872	44.096	0.555	-0.511
-653.857	-80.524	0.342	-0.114
-652.843	267.346	-0.357	-0.626
-651.828	-59.252	0.199	-0.086
-650.814	-61.945	0.314	0.132
-649.799	136.576	-0.305	0.399
-648.784	364.328	0.324	-0.654
-647.770	-200.000	-0.014	-0.203
-646.755	344.039	0.233	0.458
-645.741	-170.807	0.686	0.024
-644.726	-75.493	0.159	0.057
-643.711	357.135	-0.208	0.416
-642.697	259.681	0.282	0.488
-641.682	362.031	-0.147	-0.295
-640.668	800.000	-0.191	-0.590
-639.653	800.000	0.226	-0.764
-638.638	448.926	0.242	-0.535
-637.624	-14.760	-0.473	-0.305
-636.609	-200.000	-0.074	-0.631
-635.595	-62.049	1.046	-0.438
-634.580	50.799	0.420	0.399
-633.565	243.059	-0.506	0.850
-632.551	52.492	-0.435	-0.417
-631.536	42.208	-0.461	0.420
-630.522	-144.667	-0.243	-0.022
-629.507	314.065	0.176	-0.333
-628.492	-59.722	1.048	0.450
-627.478	800.000	0.178	0.683
-626.463	-148.758	0.358	-0.029
-625.449	-200.000	-0.033	0.344
-624.434	800.000	-0.226	-0.766
-623.419	-200.000	-0.081	-0.703
-622.405	49.219	-0.505	0.476
-621.390	264.351	0.209	0.365
-620.376	297.567	0.553	1.019
-619.361	-200.000	0.071	0.341
-618.346	16.297	-0.250	-0.198
-617.332	185.413	-0.526	-0.784
-616.317	228.544	-0.398	-0.651
-615.303	36.741	-0.303	0.269
-614.288	-43.565	-0.301	-0.152
-613.273	64.484	-0.468	-0.473
-612.259	-200.000	0.066	0.368
-611.244	-75.002	-0.300	-0.108
-610.230	-51.649	-0.794	-0.371
-609.215	-97.907	-0.439	0.114
-608.201	-40.062	0.277	0.145
-607.186	800.000	0.093	0.406
-606.171	-171.236	1.278	0.043
-605.157	-133.400	0.329	-0.041
-604.142	47.567	-0.326	0.304
-603.128	-148.906	0.042	0.003
-602.113	88.795	0.333	-0.371
-601.098	-42.998	-0.671	0.341
-600.084	-57.073	-0.467	-0.206
-599.069	800.000	0.183	-0.548
-598.055	4.506	0.151	0.111
-597.040	800.000	-0.322	-0.982
-596.025	-176.455	0.765	0.020
-595.011	0.631	-0.260	-0.186
-593.996	-200.000	-0.065	-0.453
-592.982	800.000	-0.299	-0.837
-591.967	18.200	-0.063	0.050
-590.952	387.836	-0.265	0.548
-589.938	157.563	-0.212	0.294
-588.923	-82.955	-0.446	-0.144
-587.909	-126.673	-0.201	0.030
-586.894	771.320	0.107	0.291
-585.879	-151.287	-0.445	0.033
-584.865	516.371	0.221	-0.518
-583.850	-29.176	0.445	-0.255
-582.836	-200.000	-0.090	-0.430
-581.821	-200.000	0.178	-1.033
-580.806	-200.000	0.037	0.529
-579.792	44.074	-0.531	0.488
-578.777	-64.669	0.199	0.081
-577.763	389.020	0.225	0.466
-576.748	233.144	0.186	0.306
-575.733	800.000	0.027	-0.082
-574.719	-15.821	0.541	-0.345
-573.704	-83.154	-0.132	0.043
-572.690	52.521	-0.476	0.455
-571.675	527.869	-0.130	-0.307
-570.661	-97.380	-0.186	0.049
-569.646	107.828	0.154	0.184
-568.631	3.763	0.253	-0.185
-567.617	-121.579	0.324	0.054
-566.602	81.617	0.670	0.725
-565.588	-200.000	0.002	0.528
-564.573	-12.709	-0.683	-0.446
-563.558	209.321	0.400	-0.627
-562.544	-200.000	-0.038	0.238
-561.529	21.802	-0.181	-0.147
-560.515	492.698	0.039	0.090
-559.500	140.827	0.476	0.629
-558.485	408.515	-0.365	0.773
-557.471	-151.066	0.589	0.044
-556.456	-6.309	0.042	-0.029
-555.442	-143.461	-0.352	-0.034
-554.427	800.000	0.214	0.683
-553.412	-200.000	0.170	-0.859
-552.398	278.294	0.203	-0.361
-551.383	296.568	-0.450	0.825
-550.369	191.338	-0.282	0.425
-549.354	136.035	0.267	-0.347
-548.339	-21.541	0.152	0.092
-547.325	-61.662	-0.412	0.173
-546.310	-200.000	-0.013	0.140
-545.296	-82.887	0.272	-0.088
-544.281	-116.599	0.982	-0.181
-543.266	306.056	-0.151	0.281
-542.252	-14.095	0.349	0.225
-541.237	-191.211	-0.258	-0.003
-540.223	74.221	0.457	-0.480
-539.208	-127.913	0.595	-0.086
-538.193	-200.000	0.033	-0.776
-537.179	-58.122	0.657	-0.286
-536.164	395.563	-0.395	-0.824
-535.150	800.000	0.160	0.607
-534.135	225.189	-0.278	0.449
-533.121	-200.000	0.051	0.279
-532.106	-200.000	0.274	0.001
-531.091	800.000	-0.039	-0.149
-530.077	-200.000	-0.040	-0.241
-529.062	-70.752	-0.160	0.060
-528.048	-133.262	-0.119	0.015
-527.033	670.677	0.230	-0.595
-526.018	495.623	-0.070	0.160
-525.004	-30.762	-0.243	-0.137
-523.989	-33.951	-0.322	-0.177
-522.975	-155.696	0.154	-0.010
-521.960	-34.809	0.663	-0.362
-520.945	-200.000	0.087	-0.456
-519.931	-25.312	-0.363	-0.215
-518.916	-200.000	-0.055	-0.383
-517.902	276.677	0.049	0.087
-516.887	-200.000	0.057	-0.472
-515.872	9.979	-0.882	0.669
-514.858	267.356	0.138	0.241
-513.843	59.070	-0.735	-0.723
-512.829	-73.238	0.314	-0.115
-511.814	31.839	0.409	-0.352
-510.799	281.254	0.208	0.372
-509.785	-200.000	-0.013	-0.359
-508.770	70.975	-0.088	0.091
-507.756	-31.599	0.108	0.061
-506.741	149.018	-0.244	0.329
-505.726	-42.637	0.606	0.308
-504.712	186.340	-0.501	-0.744
-503.697	800.000	-0.288	0.965
-502.683	568.526	-0.092	-0.223
-501.668	-142.165	0.111	-0.011
-500.653	699.514	0.130	0.341
-499.639	-143.003	-0.572	-0.055
-498.624	-188.021	-1.062	-0.014
-497.610	128.345	0.310	-0.394
-496.595	-200.000	0.037	-0.466
-495.581	97.138	-0.395	-0.452
-494.566	101.499	-0.247	0.287
-493.551	723.456	0.260	-0.691
-492.537	23.984	-0.370	-0.304
-491.522	-135.713	-0.189	-0.022
-490.508	-76.203	-0.508	-0.179
-489.493	333.216	-0.147	-0.283
-488.478	49.391	0.439	-0.412
-487.464	-200.000	-0.006	0.441
-486.449	800.000	0.125	-0.363
-485.435	-79.366	0.449	-0.152
-484.420	-157.626	0.239	-0.014
-483.405	526.169	0.157	-0.370
-482.391	-200.000	-0.102	-0.645
-481.376	-84.074	1.006	-0.319
-480.362	-200.000	-0.042	0.318
-479.347	-200.000	0.015	0.814
-478.332	-16.042	-0.393	0.249
-477.318	156.553	-0.703	0.968
-476.303	-113.535	-0.605	-0.118
-475.289	-50.450	0.553	0.261
-474.274	-90.120	-0.531	-0.154
-473.259	136.934	0.044	-0.057
-472.245	116.509	-0.191	-0.234
-471.230	-94.211	0.500	0.137
-470.216	-41.208	-0.777	0.400
-469.201	800.000	0.082	0.297
-468.186	38.827	-0.481	-0.428
-467.172	-91.981	0.656	0.185
-466.157	-10.141	-0.471	-0.312
-465.143	-200.000	0.020	0.226
-464.128	-87.391	0.369	0.111
-463.113	-151.050	-0.581	-0.044
-462.099	-115.954	-0.554	-0.103
-461.084	-128.598	0.326	0.046
-460.070	-200.000	0.027	0.363
-459.055	800.000	0.095	-0.413
-458.040	34.757	0.317	-0.276
-457.026	111.543	0.597	0.718
-456.011	628.444	-0.105	-0.265
-454.997	-82.385	-0.587	-0.190
-453.982	-41.945	0.356	0.182
-452.968	-85.167	-0.250	-0.078
-451.953	-12.187	-0.535	-0.349
-450.938	79.409	0.210	-0.224
-449.924	-41.593	0.842	-0.431
-448.909	-82.202	-0.770	-0.250
-447.895	800.000	0.107	0.355
-446.880	0.272	0.833	0.592
-445.865	36.472	-0.336	0.296
-444.851	332.817	0.249	-0.479
-443.836	150.657	-0.402	-0.545
-442.822	-92.197	-0.140	0.039
-441.807	-147.950	-0.735	0.061
-440.792	800.000	-0.225	-0.975
-439.778	-66.650	-0.479	0.189
-438.763	-48.836	-0.558	0.267
-437.749	173.539	0.208	0.298
-436.734	800.000	-0.146	-0.482
-435.719	387.791	-0.178	-0.366
-434.705	-24.922	0.410	0.242
-433.690	-200.000	0.102	0.752
-432.676	-200.000	-0.002	-0.999
-431.661	-96.885	-0.397	0.104
-430.646	-125.557	0.432	-0.065
-429.632	51.381	-0.166	-0.157
-428.617	-24.071	-0.345	-0.205
-427.603	-200.000	-0.005	-0.354
-426.588	-109.446	0.420	0.088
-425.573	91.367	0.119	0.133
-424.559	-186.405	-0.285	0.004
-423.544	385.671	-0.030	0.061
-422.530	-151.960	-0.963	0.070
-421.515	-99.183	0.501	0.126
-420.500	55.499	0.665	0.641
-419.486	800.000	-0.162	-0.459
-418.471	206.757	-0.062	0.096
-417.457	-76.243	-0.398	-0.140
-416.442	-4.339	-0.633	0.436
-415.428	-200.000	-0.098	0.518
-414.413	-200.000	-0.057	-0.514
-413.398	-200.000	0.106	0.559
-412.384	264.463	-0.254	0.441
-411.369	-91.309	0.991	-0.282
-410.355	-72.140	0.364	-0.135
-409.340	-125.093	-0.488	0.074
-408.325	-94.195	-0.225	-0.061
-407.311	800.000	0.311	0.974
-406.296	468.972	0.182	-0.407
-405.282	423.053	-0.327	-0.699
-404.267	-119.815	0.575	-0.099
-403.252	49.609	-0.330	0.309
-402.238	324.132	-0.153	0.291
-401.223	800.000	0.081	0.341
-400.209	-149.996	1.141	-0.088
-399.194	758.167	-0.559	1.504
-398.179	-91.773	-0.470	0.133
-397.165	100.072	0.896	1.033
-396.150	-200.000	0.031	-0.572
-395.136	-3.804	0.172	0.119
-394.121	800.000	0.026	-0.088
-393.106	-14.819	-0.449	0.287
-392.092	-140.752	0.433	-0.044
-391.077	-176.166	-0.832	0.022
-390.063	13.863	0.454	-0.351
-389.048	-200.000	-0.046	-0.240
-388.033	17.865	0.402	-0.319
-387.019	-132.626	-0.266	-0.034
-386.004	330.502	0.310	-0.594
-384.990	-184.701	0.511	0.008
-383.975	-176.744	0.433	0.011
-382.960	-127.982	0.818	0.117
-381.946	116.280	0.351	0.428
-380.931	800.000	-0.086	-0.323
-379.917	32.762	-0.564	-0.485
-378.902	-129.146	-0.248	-0.034
-377.888	800.000	-0.125	-0.468
-376.873	-200.000	0.105	-0.469
-375.858	-106.458	-0.395	-0.088
-374.844	287.279	0.129	0.232
-373.829	14.280	-0.316	-0.244
-372.815	-156.410	-0.558	0.035
-371.800	-67.329	-0.639	-0.249
-370.785	-13.546	-0.510	-0.328
-369.771	190.842	0.354	0.529
-368.756	800.000	0.230	-0.867
-367.742	-200.000	0.068	0.394
-366.727	800.000	0.164	0.464
-365.712	-64.680	0.693	-0.279
-364.698	-142.878	0.708	-0.068
-363.683	-60.248	-0.818	-0.346
-362.669	-200.000	0.049	0.367
-361.654	0.575	0.473	0.336
-360.639	34.654	0.332	0.288
-359.625	-200.000	0.009	-0.514
-358.610	-200.000	0.019	0.174
-357.596	-61.414	0.066	-0.028
-356.581	439.796	0.179	-0.387
-355.566	3.054	-0.502	-0.362
-354.552	192.253	0.431	0.645
-353.537	-132.470	0.183	0.023
-352.523	-35.983	-0.271	0.145
-351.508	288.682	0.194	0.348
-350.493	-77.586	0.534	0.183
-349.479	800.000	0.114	0.489
-348.464	-14.274	0.181	0.116
-347.450	-127.634	0.477	0.069
-346.435	-38.953	0.166	0.087
-345.420	800.000	-0.169	-0.536
-344.406	-149.008	0.306	-0.024
-343.391	-147.198	-0.231	-0.020
-342.377	381.025	0.544	-1.109
-341.362	60.156	0.301	-0.295
-340.348	-135.391	-0.492	-0.058
-339.333	194.281	0.482	0.724
-338.318	86.352	-0.037	0.041
-337.304	148.599	-0.450	-0.603
-336.289	-116.931	-0.530	0.096
-335.275	133.835	0.173	-0.222
-334.260	396.875	-0.317	-0.657
-333.245	46.612	-0.332	0.306
-332.231	-100.623	0.489	-0.120
-331.216	63.486	0.304	0.302
-330.202	383.204	0.089	0.181
-329.187	-32.059	0.543	0.301
-328.172	-200.000	-0.085	-0.447
-327.158	31.602	-0.530	-0.452
-326.143	-143.902	0.289	0.027
-325.129	71.084	0.331	0.340
-324.114	741.558	-0.028	-0.075
-323.099	80.742	-0.222	-0.237
-322.085	240.505	-0.254	0.420
-321.070	-200.000	0.029	0.402
-320.056	-200.000	0.092	0.588
-319.041	-5.539	-0.520	0.354
-318.026	800.000	0.283	0.810
-317.012	-200.000	-0.100	0.769
-315.997	-200.000	-0.081	0.681
-314.983	248.649	0.319	-0.535
-313.968	-15.143	-0.631	0.401
-312.953	-42.580	-0.295	0.149
-311.939	-200.000	-0.068	0.798
-310.924	-160.348	0.491	0.026
-309.910	-38.414	-0.262	0.137
-308.895	-0.357	0.599	0.422
-307.880	225.836	-0.263	-0.423
-306.866	-200.000	-0.039	-0.319
-305.851	800.000	-0.081	0.261
-304.837	-200.000	-0.033	0.683
-303.822	-127.505	-0.490	0.070
-302.807	-200.000	-0.037	0.317
-301.793	710.167	-0.585	1.534
-300.778	-103.347	0.678	0.158
-299.764	148.908	0.340	0.456
-298.749	-21.238	0.171	0.103
-297.735	-13.379	0.359	-0.231
-296.720	338.405	-0.274	0.528
-295.705	-13.342	-0.278	0.179
-294.691	16.623	-0.694	-0.543
-293.676	-48.442	0.722	0.344
-292.662	29.348	0.273	0.230
-291.647	22.050	-0.677	-0.547
-290.632	77.804	-0.294	-0.310
-289.618	154.990	0.274	-0.373
-288.603	-103.634	0.378	0.088
-287.589	13.306	-0.754	-0.578
-286.574	113.934	-0.235	0.282
-285.559	-2.453	0.227	0.158
-284.545	800.000	0.116	-0.409
-283.530	126.969	-0.244	-0.307
-282.516	-147.158	-0.187	0.016
-281.501	-116.137	-0.309	-0.057
-280.486	-34.408	-0.560	-0.304
-279.472	242.442	-0.211	0.349
-278.457	-114.837	0.667	0.126
-277.443	-62.775	0.789	0.323
-276.428	-41.376	0.016	-0.008
-275.413	-110.964	-0.924	-0.188
-274.399	137.330	-0.423	0.547
-273.384	-88.757	0.667	-0.196
-272.370	-68.343	-0.510	0.196
-271.355	-11.140	0.889	-0.580
-270.340	-13.085	-0.739	0.475
-269.326	-200.000	0.061	-0.505
-268.311	-200.000	0.002	0.254
-267.297	-127.254	0.334	-0.048
-266.282	-145.137	0.298	0.027
-265.267	-59.290	0.796	-0.339
-264.253	-86.886	-0.620	-0.187
-263.238	-78.577	-0.570	-0.193
-262.224	-86.245	0.443	-0.135
-261.209	-71.250	0.320	-0.119
-260.195	237.806	0.139	-0.228
-259.180	228.242	-0.049	-0.079
-258.165	-58.353	-1.072	-0.461
-257.151	-200.000	0.092	0.485
-256.136	-200.000	0.063	0.505
-255.122	-200.000	-0.071	0.593
-254.107	41.093	-0.265	0.237
-253.092	-66.160	0.568	-0.224
-252.078	-200.000	-0.032	0.453
-251.063	-6.017	-0.397	0.268
-250.049	-200.000	0.009	0.360
-249.034	35.477	-0.233	-0.202
-248.019	48.735	0.512	0.475
-247.005	-200.000	-0.038	-0.815
-245.990	-167.722	0.960	-0.038
-244.976	-60.126	-0.275	0.116
-243.961	-108.310	-0.457	0.097
-242.946	31.498	0.581	-0.493
-241.932	800.000	0.140	-0.412
-240.917	38.862	0.724	-0.639
-239.903	628.282	0.296	-0.740
-238.888	-200.000	-0.117	-1.464
-237.873	-124.948	0.370	-0.056
-236.859	4.321	-0.497	-0.360
-235.844	628.151	0.288	0.719
-234.830	-138.128	-0.133	0.015
-233.815	48.483	-0.387	0.358
-232.800	157.398	0.325	0.444
-231.786	569.112	-0.154	-0.370
-230.771	79.066	-0.197	-0.209
-229.757	164.230	-0.439	-0.611
-228.742	800.000	-0.121	-0.360
-227.727	20.881	0.433	-0.346
-226.713	265.151	0.276	-0.476
-225.698	17.500	0.012	0.009
-224.684	-8.978	-0.401	0.265
-223.669	-200.000	0.029	-0.587
-222.655	-144.706	0.563	0.051
-221.640	305.042	-0.083	0.152
-220.625	352.249	-0.343	0.670
-219.611	12.925	0.108	0.082
-218.596	-113.899	-0.554	0.106
-217.582	32.526	0.180	0.154
-216.567	-126.919	0.652	0.095
-215.552	-147.777	0.515	0.043
-214.538	-6.158	0.275	-0.186
-213.523	-26.652	-0.602	0.348
-212.509	-23.240	0.389	0.231
-211.494	800.000	0.167	0.714
-210.479	50.775	-0.579	0.542
-209.465	31.681	-0.446	0.379
-208.450	-130.685	-0.238	0.032
-207.436	800.000	-0.210	0.880
-206.421	800.000	0.148	0.427
-205.406	-200.000	-0.014	-0.268
-204.392	79.968	0.344	-0.365
-203.377	-71.232	-0.215	0.080
-202.363	-69.387	-0.135	-0.051
-201.348	11.303	-0.252	-0.190
-200.333	-109.349	-0.364	0.076
-199.319	18.574	0.408	0.322
-198.304	-125.108	-0.591	0.089
-197.290	-102.079	-0.477	0.113
-196.275	79.163	-0.319	0.337
-195.260	-98.065	-0.556	0.141
-194.246	-152.565	1.269	0.090
-193.231	-200.000	0.047	-0.217
-192.217	17.941	-0.352	0.276
-191.202	-87.122	-0.376	-0.113
-190.187	82.731	-0.548	0.588
-189.173	622.299	0.111	-0.274
-188.158	-132.859	0.913	0.115
-187.144	-50.167	1.019	-0.476
-186.129	-200.000	0.129	-0.737
-185.114	50.616	-0.189	-0.176
-184.100	800.000	-0.077	0.276
-183.085	48.572	0.128	-0.118
-182.071	-200.000	0.117	-0.547
-181.056	534.780	-0.240	-0.561
-180.042	800.000	-0.087	0.285
-179.027	121.299	-0.369	0.453
-178.012	209.714	-0.265	0.410
-176.998	800.000	-0.123	0.420
-175.983	-200.000	-0.145	0.876
-174.969	-200.000	-0.052	0.360
-173.954	800.000	0.044	0.176
-172.939	800.000	0.051	-0.157
-171.925	590.839	0.258	0.628
-170.910	-124.308	0.261	0.040
-169.896	202.952	0.369	-0.561
-168.881	-147.904	0.534	-0.044
-167.866	-200.000	-0.017	-0.449
-166.852	625.240	-0.103	-0.257
-165.837	-17.522	-0.564	-0.349
-164.823	87.973	-0.152	0.166
-163.808	341.383	0.183	-0.351
-162.793	-151.987	-0.374	-0.027
-161.779	-161.153	0.674	0.035
-160.764	-200.000	0.067	-0.339
-159.750	13.733	0.323	-0.248
-158.735	40.295	0.161	-0.143
-157.720	-200.000	0.088	-0.545
-156.706	118.628	-0.454	0.553
-155.691	87.433	-0.264	0.288
-154.677	-165.369	0.547	-0.024
-153.662	-92.100	-0.252	0.070
-152.647	36.621	-0.111	-0.096
-151.633	-200.000	0.071	0.716
-150.618	83.467	-0.087	-0.094
-149.604	-35.371	0.788	0.422
-148.589	-200.000	-0.127	-0.799
-147.574	89.931	-0.755	-0.830
-146.560	3.781	-0.613	-0.441
-145.545	-200.000	-0.221	-1.292
-144.531	306.660	-0.158	-0.289
-143.516	-94.753	-0.231	0.062
-142.502	-155.486	0.314	-0.020
-141.487	-200.000	-0.045	0.311
-140.472	-172.269	-0.531	-0.017
-139.458	-200.000	-0.085	0.443
-138.443	252.726	0.121	0.203
-137.429	181.566	0.400	-0.579
-136.414	328.178	-0.594	1.122
-135.399	-200.000	0.075	-0.558
-134.385	-200.000	-0.090	0.448
-133.370	14.438	-0.635	0.488
-132.356	-1.928	-0.785	0.543
-131.341	-13.133	0.427	-0.273
-130.326	-82.694	0.198	0.063
-129.312	9.609	-0.302	-0.225
-128.297	-168.784	-1.048	-0.039
-127.283	-5.905	0.594	0.400
-126.268	-200.000	0.070	0.511
-125.253	-200.000	0.832	-0.003
-124.239	219.185	0.133	-0.209
-123.224	-74.770	-0.476	0.168
-122.210	157.701	0.080	0.109
-121.195	-30.371	0.410	0.229
-120.180	-41.471	-0.161	-0.082
-119.166	-49.801	-0.138	0.065
-118.151	-200.000	-0.055	0.846
-117.137	95.046	0.307	0.344
-116.122	-200.000	0.006	0.418
-115.107	-200.000	-0.051	-0.589
-114.093	41.233	0.609	0.541
-113.078	111.505	0.324	0.385
-112.064	-81.418	-0.540	0.175
-111.049	-101.303	-0.259	0.062
-110.034	-7.643	0.393	0.261
-109.020	-18.097	0.390	0.240
-108.005	800.000	-0.142	0.528
-106.991	-81.180	0.206	0.067
-105.976	-43.165	0.408	-0.203
-104.962	504.936	0.098	-0.222
-103.947	-159.171	-0.927	-0.051
-102.932	-21.958	-0.226	-0.135
-101.918	37.607	0.305	-0.266
-100.903	250.095	-0.251	-0.418
-99.889	-200.000	0.118	0.721
-98.874	-180.277	0.372	-0.008
-97.859	115.232	-0.394	0.473
-96.845	-200.000	-0.047	-0.368
-95.830	-17.213	0.397	0.246
-94.816	532.489	-0.024	-0.056
-93.801	-88.240	0.524	0.154
-92.786	125.415	0.440	-0.546
-91.772	-95.441	-0.099	0.026
-90.757	-200.000	-0.043	1.022
-89.743	27.110	0.468	-0.386
-88.728	55.709	-1.156	-1.100
-87.713	277.182	-0.234	-0.410
-86.699	-23.157	-0.529	0.313
-85.684	-141.260	-0.495	0.049
-84.670	376.374	0.118	0.237
-83.655	214.294	-0.103	-0.160
-82.640	171.692	-0.175	-0.247
-81.626	228.614	0.311	-0.497
-80.611	-118.320	-0.329	0.057
-79.597	-200.000	0.080	0.455
-78.582	-155.757	-0.109	0.007
-77.567	800.000	-0.372	1.157
-76.553	-5.284	-0.254	0.172
-75.538	190.157	-0.317	-0.468
-74.524	147.695	0.182	-0.241
-73.509	-7.342	-0.623	-0.414
-72.494	-200.000	-0.019	-0.263
-71.480	245.667	0.266	-0.439
-70.465	84.861	-0.720	0.775
-69.451	-129.127	-0.162	0.022
-68.436	-160.052	-0.506	0.027
-67.422	-200.000	0.040	-0.439
-66.407	395.300	-0.124	0.253
-65.392	-130.573	-0.327	0.043
-64.378	800.000	0.197	-0.567
-63.363	-9.667	-0.249	-0.163
-62.349	-161.597	0.647	0.033
-61.334	0.111	-1.116	-0.781
-60.319	79.000	1.057	1.111
-59.305	800.000	-0.313	-0.985
-58.290	355.848	0.365	0.713
-57.276	-200.000	0.104	1.648
-56.261	-200.000	98.676	607.301
-55.246	645.348	1366.323	3421.963
-54.232	202.134	2538.367	3841.166
-53.217	113.003	2248.321	2673.569
-52.203	41.425	1879.439	1668.239
-51.188	35.357	1672.774	1439.382
-50.173	32.544	1629.095	1381.149
-49.159	51.301	1679.795	1564.185
-48.144	52.158	1694.588	1584.268
-47.130	34.709	1656.245	1420.115
-46.115	32.099	1641.740	1388.352
-45.100	31.729	1636.639	1381.256
-44.086	31.889	1633.666	1379.874
-43.071	32.061	1630.039	1378.020
-42.057	31.792	1628.949	1375.068
-41.042	31.794	1625.675	1372.262
-40.027	32.128	1623.361	1372.695
-39.013	31.782	1622.618	1369.490
-37.998	31.732	1622.035	1368.574
-36.984	31.753	1620.257	1367.177
-35.969	31.920	1618.862	1367.159
-34.954	31.930	1616.866	1365.496
-33.940	31.847	1615.648	1363.810
-32.925	31.826	1613.458	1361.749
-31.911	31.697	1612.372	1359.843
-30.896	31.815	1610.324	1358.919
-29.881	31.884	1608.661	1357.962
-28.867	31.933	1607.040	1356.892
-27.852	32.031	1604.751	1355.613
-26.838	31.733	1604.654	1353.327
-25.823	31.979	1603.196	1353.821
-24.809	31.999	1600.765	1351.853
-23.794	31.992	1599.222	1350.446
-22.779	32.040	1597.887	1349.612
-21.765	31.904	1596.343	1347.281
-20.750	31.867	1595.275	1346.055
-19.736	31.844	1594.536	1345.219
-18.721	31.706	1593.955	1343.680
-17.706	32.089	1589.709	1342.788
-16.692	31.828	1589.857	1340.996
-15.677	31.986	1588.292	1340.748
-14.663	32.093	1587.023	1340.392
-13.648	31.856	1585.556	1337.408
-12.633	31.627	1584.081	1334.480
-11.619	31.884	1581.790	1334.328
-10.604	31.885	1581.779	1334.267
-9.590	31.881	1580.218	1332.869
-8.575	31.961	1577.324	1330.947
-7.560	31.838	1577.759	1330.384
-6.546	32.021	1575.714	1329.906
-5.531	31.840	1575.923	1328.743
-4.517	31.930	1574.160	1327.843
-3.502	31.817	1573.150	1326.143
-2.487	31.919	1571.551	1325.463
-1.473	31.492	1558.505	1311.413
-0.458	28.812	1538.746	1276.153
0.556	26.718	1540.785	1245.060
1.571	24.205	1563.593	1245.836
2.586	23.629	1575.624	1251.250
3.600	21.102	1523.204	1192.269
4.615	12.604	1414.573	1052.986
5.629	4.930	1351.897	959.158
6.644	3.321	1344.060	943.667
7.659	3.479	1343.120	943.887
8.673	3.476	1341.763	942.834
9.688	3.404	1340.058	941.108
10.702	3.388	1336.847	938.677
11.717	6.820	1342.785	963.729
12.731	15.829	1360.662	1031.947
13.746	23.362	1371.953	1086.808
14.761	25.101	1372.982	1098.196
15.775	24.647	1372.679	1095.074
16.790	24.448	1370.096	1091.695
17.804	24.049	1369.438	1088.635
18.819	24.280	1368.086	1088.874
19.834	24.068	1368.599	1087.895
20.848	23.912	1367.146	1085.692
21.863	24.025	1366.490	1085.761
22.877	24.012	1365.844	1085.076
23.892	23.861	1365.709	1083.948
24.907	24.133	1363.639	1083.866
25.921	23.850	1363.622	1082.032
26.936	23.746	1363.083	1080.881
27.950	24.164	1360.340	1081.147
28.965	24.102	1360.897	1081.113
29.980	24.076	1359.434	1079.699
30.994	24.124	1358.381	1079.062
32.009	24.155	1357.897	1078.769
33.023	24.024	1357.031	1077.192
34.038	23.938	1355.481	1075.344
35.053	24.061	1354.048	1074.854
36.067	24.069	1352.318	1073.434
37.082	24.055	1352.655	1073.522
38.096	24.058	1351.162	1072.262
39.111	24.086	1350.982	1072.194
40.126	24.221	1348.737	1071.130
41.140	23.837	1348.902	1068.856
42.155	23.677	1348.158	1067.213
43.169	23.610	1347.502	1066.195
44.184	23.462	1348.243	1065.796
45.199	23.523	1348.210	1066.045
46.213	23.781	1347.859	1067.222
47.228	23.804	1347.586	1067.050
48.242	23.926	1346.642	1066.940
49.257	24.058	1344.146	1065.657
50.271	24.049	1342.578	1064.262
51.286	24.255	1340.909	1064.078
52.301	23.988	1341.208	1062.629
53.315	23.702	1340.008	1059.874
54.330	23.941	1337.915	1059.550
55.344	23.990	1336.453	1058.588
56.359	23.696	1336.175	1056.526
57.374	23.808	1334.210	1055.543
58.388	23.634	1333.857	1054.139
59.403	23.670	1333.406	1053.902
60.417	23.489	1333.769	1053.021
61.432	23.561	1333.171	1052.884
62.447	23.627	1331.704	1052.024
63.461	23.346	1330.710	1049.480
64.476	23.200	1329.482	1047.553
65.490	23.216	1328.024	1046.407
66.505	23.197	1327.402	1045.714
67.520	23.228	1325.985	1044.689
68.534	23.518	1324.782	1045.359
69.549	23.539	1323.122	1044.081
70.563	23.387	1323.190	1043.142
71.578	23.520	1321.204	1042.265
72.593	23.359	1319.701	1040.043
73.607	23.290	1320.371	1040.078
74.622	23.410	1319.441	1039.956
75.636	23.176	1319.370	1038.432
76.651	23.107	1318.769	1037.466
77.666	23.091	1318.370	1036.968
78.680	23.358	1317.760	1037.961
79.695	23.681	1316.219	1038.542
80.709	23.579	1315.659	1037.414
81.724	23.831	1316.287	1039.292
82.739	23.402	1315.186	1035.818
83.753	23.681	1314.585	1036.883
84.768	24.040	1313.569	1038.089
85.782	24.273	1312.836	1038.771
86.797	24.307	1310.986	1037.416
87.812	24.234	1309.322	1035.585
88.826	24.275	1308.424	1035.017
89.841	24.385	1307.140	1034.551
90.855	24.425	1307.115	1034.672
91.870	24.219	1306.933	1033.242
92.884	24.381	1305.760	1033.161
93.899	24.442	1304.713	1032.590
94.914	24.238	1303.973	1030.737
95.928	24.502	1302.843	1031.276
96.943	24.452	1301.895	1030.148
97.957	24.181	1302.128	1028.674
98.972	24.221	1300.472	1027.508
99.987	24.064	1299.956	1026.106
101.001	24.296	1298.194	1025.958
102.016	23.974	1298.664	1024.386
103.030	24.159	1297.619	1024.534
104.045	24.183	1296.146	1023.418
105.060	23.920	1295.837	1021.571
106.074	23.718	1293.602	1018.559
107.089	23.650	1292.705	1017.377
108.103	23.776	1290.446	1016.227
109.118	23.385	1289.618	1013.251
110.133	23.314	1288.305	1011.723
111.147	23.448	1286.313	1010.835
112.162	23.471	1286.462	1010.995
113.176	23.527	1285.518	1010.481
114.191	23.668	1284.087	1010.070
115.206	23.749	1282.811	1009.436
116.220	23.906	1281.962	1009.573
117.235	23.743	1281.158	1007.921
118.249	23.457	1281.216	1006.257
119.264	23.183	1279.766	1003.473
120.279	23.530	1278.749	1004.552
121.293	23.306	1278.119	1002.702
122.308	23.286	1276.369	1001.130
123.322	23.203	1274.511	999.112
124.337	23.027	1276.112	999.287
125.352	23.035	1273.554	997.241
126.366	23.115	1272.858	997.059
127.381	22.840	1272.627	995.236
128.395	22.918	1271.014	994.328
129.410	23.082	1270.326	994.626
130.424	23.090	1269.532	993.962
131.439	23.320	1268.543	994.387
132.454	23.359	1268.618	994.580
133.468	23.565	1267.906	995.085
134.483	23.718	1267.012	995.158
135.497	23.357	1266.531	992.666
136.512	23.688	1265.202	993.389
137.527	23.688	1263.625	992.064
138.541	23.675	1262.169	990.760
139.556	23.374	1261.752	988.665
140.570	23.730	1260.621	989.679
141.585	24.130	1259.800	991.170
142.600	23.999	1259.012	989.733
143.614	24.183	1258.759	990.474
144.629	24.162	1258.002	989.671
145.643	24.136	1256.533	988.281
146.658	23.927	1255.566	986.276
147.673	23.948	1254.457	985.434
148.687	24.088	1251.984	984.177
149.702	23.608	1251.706	981.221
150.716	23.547	1249.592	979.140
151.731	23.329	1248.768	977.207
152.746	23.552	1247.680	977.498
153.760	23.702	1246.513	977.323
154.775	23.928	1246.163	978.201
155.789	23.826	1245.865	977.321
156.804	23.829	1243.902	975.710
157.819	23.611	1243.562	974.161
158.833	24.010	1242.482	975.417
159.848	24.222	1241.691	975.874
160.862	24.230	1240.618	974.984
161.877	23.785	1240.614	972.459
162.892	23.611	1238.717	969.936
163.906	23.623	1237.368	968.858
164.921	23.491	1236.547	967.411
165.935	23.452	1236.273	966.900
166.950	23.782	1235.470	967.983
167.964	23.706	1235.166	967.244
168.979	23.739	1234.473	966.798
169.994	23.447	1234.082	964.814
171.008	23.365	1233.464	963.800
172.023	23.776	1232.044	964.840
173.037	23.918	1231.920	965.430
174.052	23.892	1231.948	965.226
175.067	23.716	1230.142	962.769
176.081	23.542	1228.079	960.128
177.096	23.526	1228.138	960.001
178.110	23.502	1226.983	958.885
179.125	23.548	1225.796	958.120
180.140	23.560	1226.081	958.325
181.154	23.856	1223.534	957.843
182.169	23.922	1223.308	957.935
183.183	24.188	1221.128	957.576
184.198	24.062	1221.217	956.880
185.213	23.747	1220.350	954.425
186.227	24.086	1219.435	955.447
187.242	23.981	1218.547	954.105
188.256	24.214	1216.873	953.958
189.271	24.252	1217.023	954.194
190.286	23.954	1216.005	951.714
191.300	23.542	1214.728	948.429
192.315	23.627	1215.170	949.146
193.329	23.517	1214.664	948.077
194.344	23.430	1213.571	946.678
195.359	23.628	1212.064	946.473
196.373	23.690	1210.501	945.498
197.388	23.481	1210.878	944.598
198.402	24.116	1211.534	948.406
199.417	24.111	1211.351	948.153
200.432	24.143	1211.476	948.338
201.446	24.246	1210.464	948.009
202.461	24.259	1210.137	947.737
203.475	24.271	1208.603	946.517
204.490	23.659	1207.778	942.538
205.504	23.622	1206.048	940.908
206.519	23.903	1203.916	940.653
207.534	23.467	1202.972	937.524
208.548	23.400	1202.465	936.693
209.563	23.633	1200.780	936.528
210.577	23.307	1200.226	934.292
211.592	23.802	1199.151	935.983
212.607	24.209	1199.751	938.510
213.621	24.248	1198.477	937.638
214.636	23.760	1197.776	934.437
215.650	23.651	1196.083	932.462
216.665	24.006	1196.453	934.534
217.680	24.114	1196.562	935.104
218.694	24.321	1194.596	934.570
219.709	24.032	1194.048	932.544
220.723	24.307	1192.783	932.913
221.738	24.232	1192.055	931.866
222.753	23.836	1191.389	929.193
223.767	23.903	1191.693	929.699
224.782	24.071	1191.441	930.297
225.796	24.179	1190.808	930.284
226.811	24.059	1190.159	929.069
227.826	24.120	1188.559	928.056
228.840	23.897	1187.948	926.335
229.855	23.991	1187.608	926.479
230.869	23.977	1185.767	924.890
231.884	23.772	1184.625	922.850
232.899	23.488	1184.611	921.283
233.913	23.720	1183.627	921.641
234.928	23.791	1182.655	921.169
235.942	23.611	1182.785	920.254
236.957	23.509	1180.507	917.876
237.972	23.207	1180.905	916.539
238.986	23.499	1180.598	917.729
240.001	23.466	1179.297	916.467
241.015	23.632	1178.061	916.283
242.030	23.524	1178.516	915.997
243.045	23.901	1177.469	917.046
244.059	23.982	1176.744	916.819
245.074	24.217	1175.741	917.166
246.088	24.046	1175.460	915.988
247.103	24.098	1175.284	916.038
248.117	24.059	1175.579	915.986
249.132	24.226	1174.444	915.878
250.147	24.442	1174.196	916.714
251.161	24.932	1173.262	918.416
252.176	24.809	1172.122	916.815
253.190	24.963	1172.249	917.619
254.205	25.257	1170.934	918.015
255.220	24.969	1170.396	916.039
256.234	25.150	1169.686	916.326
257.249	24.880	1169.055	914.370
258.263	25.013	1169.108	915.010
259.278	24.744	1169.309	913.714
260.293	24.703	1167.935	912.351
261.307	25.169	1166.924	913.853
262.322	25.318	1166.111	913.894
263.336	25.065	1165.950	912.397
264.351	25.021	1165.952	912.097
265.366	25.047	1164.719	911.186
266.380	25.103	1164.762	911.421
267.395	25.105	1162.612	909.669
268.409	24.732	1162.173	907.353
269.424	24.689	1161.045	906.175
270.439	24.972	1160.274	906.927
271.453	24.751	1159.784	905.342
272.468	24.630	1159.148	904.154
273.482	24.463	1158.105	902.419
274.497	24.617	1157.945	902.989
275.512	24.445	1157.794	901.926
276.526	24.474	1156.550	901.019
277.541	24.489	1156.128	900.688
278.555	24.795	1155.147	901.389
279.570	24.937	1153.793	900.963
280.585	25.302	1153.774	902.706
281.599	25.136	1152.744	900.987
282.614	24.792	1151.453	898.172
283.628	24.594	1151.118	896.836
284.643	24.408	1149.648	894.678
285.657	24.449	1149.657	894.813
286.672	24.416	1149.032	894.079
287.687	24.572	1147.489	893.583
288.701	24.736	1147.046	893.978
289.716	24.594	1147.017	893.164
290.730	24.537	1145.359	891.514
291.745	24.749	1144.164	891.560
292.760	24.663	1144.373	891.213
293.774	24.434	1144.387	890.003
294.789	24.756	1144.564	891.672
295.803	24.908	1143.372	891.421
296.818	24.464	1142.419	888.385
297.833	24.474	1141.761	887.847
298.847	24.645	1141.105	888.110
299.862	24.572	1139.003	886.034
300.876	24.550	1139.195	885.996
301.891	24.796	1137.787	886.039
302.906	25.240	1137.551	887.975
303.920	25.275	1137.790	888.258
304.935	24.995	1138.003	886.957
305.949	25.078	1137.544	886.933
306.964	25.290	1135.272	886.130
307.979	25.173	1135.468	885.625
308.993	24.840	1134.558	883.193
310.008	25.156	1133.562	883.899
311.022	25.144	1132.715	883.099
312.037	25.322	1132.127	883.440
313.052	24.929	1131.489	880.933
314.066	24.626	1130.537	878.623
315.081	24.447	1128.588	876.151
316.095	24.496	1127.018	875.096
317.110	24.433	1127.605	875.162
318.125	24.556	1125.646	874.170
319.139	24.588	1125.461	874.104
320.154	24.386	1125.626	873.164
321.168	24.555	1124.642	873.150
322.183	24.835	1123.704	873.711
323.197	24.518	1124.085	872.382
324.212	24.787	1122.951	872.739
325.227	24.520	1122.462	870.980
326.241	24.744	1122.086	871.702
327.256	24.749	1121.187	870.951
328.270	24.540	1120.266	869.143
329.285	24.485	1120.091	868.661
330.300	24.564	1119.674	868.646
331.314	24.677	1118.015	867.832
332.329	24.443	1116.965	865.804
333.343	24.617	1116.273	866.034
334.358	24.740	1116.047	866.380
335.373	24.747	1115.533	865.935
336.387	25.111	1114.362	866.710
337.402	25.181	1113.795	866.530
338.416	24.882	1113.815	865.028
339.431	25.244	1112.791	865.903
340.446	25.445	1112.586	866.633
341.460	25.570	1111.593	866.389
342.475	25.348	1111.265	864.986
343.489	25.801	1109.622	865.808
344.504	25.598	1109.239	864.457
345.519	25.425	1109.302	863.599
346.533	25.762	1107.799	863.967
347.548	25.854	1107.250	863.904
348.562	25.786	1106.036	862.556
349.577	25.106	1105.458	858.773
350.592	25.057	1104.958	858.073
351.606	24.985	1103.928	856.854
352.621	24.758	1102.467	854.561
353.635	25.092	1101.157	855.060
354.650	24.721	1101.527	853.502
355.665	24.978	1100.283	853.688
356.679	25.228	1099.744	854.388
357.694	24.996	1099.695	853.167
358.708	25.242	1099.171	853.855
359.723	25.560	1098.186	854.527
360.738	24.978	1098.239	851.725
361.752	25.375	1097.633	853.067
362.767	25.158	1096.640	851.191
363.781	25.063	1096.260	850.369
364.796	25.526	1096.465	852.649
365.810	25.533	1096.279	852.461
366.825	25.710	1095.570	852.676
367.840	25.582	1095.438	851.889
368.854	25.841	1094.915	852.635
369.869	25.810	1094.071	851.753
370.883	25.882	1091.616	850.105
371.898	25.529	1091.385	848.187
372.913	25.313	1091.725	847.354
373.927	25.601	1090.829	847.942
374.942	25.905	1090.794	849.274
375.956	25.856	1089.717	848.130
376.971	25.530	1089.411	846.284
377.986	25.749	1089.564	847.355
379.000	26.006	1088.281	847.491
380.015	26.268	1086.725	847.437
381.029	26.076	1087.980	847.438
382.044	25.900	1087.046	845.809
383.059	26.070	1085.815	845.574
384.073	25.793	1085.691	844.102
385.088	26.065	1084.297	844.217
386.102	25.881	1084.097	843.126
387.117	25.619	1081.536	839.836
388.132	25.360	1080.209	837.526
389.146	25.459	1080.226	837.924
390.161	25.276	1079.147	836.163
391.175	25.144	1078.336	834.844
392.190	25.507	1078.206	836.361
393.205	25.537	1078.727	836.831
394.219	26.225	1076.473	838.200
395.234	25.921	1075.114	835.659
396.248	25.463	1074.128	832.700
397.263	25.563	1074.197	833.138
398.278	25.400	1072.985	831.373
399.292	25.271	1073.020	830.730
400.307	25.315	1072.105	830.152
401.321	25.044	1072.017	828.754
402.336	25.134	1069.882	827.449
403.350	25.188	1069.857	827.606
404.365	25.482	1069.252	828.419
405.380	25.849	1068.294	829.293
406.394	25.521	1067.643	827.204
407.409	25.570	1067.965	827.607
408.423	26.013	1067.620	829.302
409.438	26.253	1066.144	829.186
410.453	25.844	1066.468	827.486
411.467	26.151	1064.961	827.649
412.482	26.044	1064.774	826.941
413.496	26.302	1063.141	826.782
414.511	26.296	1063.194	826.721
415.526	26.421	1062.688	826.824
416.540	26.763	1062.599	828.248
417.555	26.351	1062.654	826.335
418.569	26.038	1061.914	824.254
419.584	26.258	1060.304	823.934
420.599	26.059	1060.742	823.293
421.613	154.653	1404.397	1794.315
422.628	142.156	1454.420	1794.326
