DTS Sentinel unit serial number:	SN413079Multiplexer serial number:	ORYXHardware model number:	OX4-SRSoftware version number:	ORYX F/W v4.00 Oryx Data Collector v3.7.2.0data status	okinstallation	princeton_trtdifferential loss correction	single-endedforward channel	channel 2reverse channel	N/Adate	2019/09/18time	09:31:35forward acquisition time	60.00reverse acquisition time	0.00gamma	496.2192k internal	0.2337k external	0.2337temperature offset calibration	0.9973default loss term (dB/km)	0.3790temperature slope calibration	1.0000multiplexer offset coefficient	1.0000multiplexer slope coefficient	1.0000fibre end	0.00T internal ref (°C)	26.44T ext. ref 1 (°C)	0.27T ext. ref 2 (°C)	23.42length (m)	temperature (°C)	Stokes	anti-Stokes-747.200	-96.813	0.161	0.042
-746.185	-67.592	-0.558	0.220
-745.171	-41.055	0.485	-0.252
-744.156	-91.913	0.081	-0.023
-743.142	209.504	0.017	-0.027
-742.127	-61.791	-0.164	0.069
-741.112	-200.000	0.040	-0.184
-740.098	121.329	-0.227	0.284
-739.083	789.660	-0.081	-0.222
-738.069	422.830	-0.071	0.153
-737.054	-73.185	-0.490	-0.180
-736.039	800.000	0.095	-0.368
-735.025	800.000	0.083	0.310
-734.010	242.869	-0.070	-0.117
-732.996	800.000	-0.033	-0.143
-731.981	-47.795	-0.086	-0.042
-730.966	26.255	-0.056	0.047
-729.952	-119.802	0.088	-0.015
-728.937	-160.771	-0.257	0.014
-727.923	57.138	-0.186	-0.182
-726.908	142.664	0.143	-0.191
-725.894	111.981	0.111	-0.134
-724.879	106.787	-0.222	-0.264
-723.864	208.739	0.083	-0.130
-722.850	20.427	-0.246	-0.200
-721.835	245.440	0.063	-0.106
-720.821	-16.850	0.085	0.054
-719.806	-123.314	-0.453	0.073
-718.791	22.715	0.154	-0.126
-717.777	56.758	-0.043	-0.042
-716.762	-62.428	-0.123	0.051
-715.748	-154.989	0.339	-0.022
-714.733	102.036	-0.127	0.148
-713.718	-175.707	-0.412	-0.011
-712.704	730.090	-0.091	-0.243
-711.689	333.453	-0.091	0.176
-710.675	-7.932	-0.268	-0.181
-709.660	-200.000	-0.018	-0.095
-708.645	85.783	0.224	0.247
-707.631	379.087	0.013	0.026
-706.616	-36.199	-0.177	-0.096
-705.602	429.437	0.043	0.093
-704.587	-33.874	-0.004	0.002
-703.572	47.792	0.227	0.213
-702.558	800.000	0.059	0.204
-701.543	800.000	0.097	0.304
-700.529	-158.186	0.083	-0.005
-699.514	108.723	-0.056	-0.067
-698.499	-152.262	-0.147	0.011
-697.485	457.974	0.065	0.144
-696.470	22.364	-0.204	0.167
-695.456	-90.379	0.165	-0.048
-694.441	227.530	-0.100	0.163
-693.426	-167.676	-0.373	0.015
-692.412	747.162	0.093	0.251
-691.397	518.626	-0.050	-0.118
-690.383	409.140	-0.103	-0.218
-689.368	-200.000	0.001	-0.084
-688.354	681.273	0.112	-0.292
-687.339	-200.000	-0.014	0.125
-686.324	-200.000	0.006	-0.099
-685.310	-48.326	0.053	0.025
-684.295	-135.068	-0.210	-0.025
-683.281	27.588	0.195	0.164
-682.266	76.298	0.154	-0.163
-681.251	-200.000	-0.024	-0.262
-680.237	-133.200	0.337	-0.043
-679.222	266.674	-0.109	0.191
-678.208	-133.189	0.297	-0.038
-677.193	-56.066	0.194	0.087
-676.178	102.200	-0.181	-0.212
-675.164	-81.488	0.172	-0.057
-674.149	96.039	-0.038	0.044
-673.135	800.000	-0.177	-0.583
-672.120	257.086	0.149	0.256
-671.105	289.434	0.060	-0.109
-670.091	-57.367	-0.099	0.043
-669.076	-200.000	-0.026	0.168
-668.062	123.785	0.108	-0.135
-667.047	800.000	0.019	0.074
-666.032	-200.000	0.012	-0.379
-665.018	222.471	-0.162	0.262
-664.003	70.752	0.012	0.013
-662.989	800.000	-0.025	0.101
-661.974	317.811	0.039	-0.074
-660.959	-105.511	0.089	0.020
-659.945	-200.000	0.065	-0.454
-658.930	800.000	0.079	-0.228
-657.916	196.202	0.070	-0.107
-656.901	9.540	-0.286	0.217
-655.886	800.000	-0.028	0.120
-654.872	-66.484	-0.197	0.078
-653.857	800.000	0.061	0.171
-652.843	662.238	-0.132	0.341
-651.828	189.177	-0.099	0.148
-650.814	17.395	0.104	-0.083
-649.799	-200.000	-0.005	-0.178
-648.784	-200.000	-0.040	-0.427
-647.770	383.736	0.140	-0.289
-646.755	-28.810	-0.067	-0.039
-645.741	-200.000	-0.020	0.225
-644.726	1.047	-0.116	-0.083
-643.711	800.000	0.014	-0.044
-642.697	-200.000	0.020	0.099
-641.682	800.000	-0.019	-0.072
-640.668	257.334	0.133	0.229
-639.653	69.554	0.119	0.123
-638.638	291.878	0.068	-0.124
-637.624	-200.000	-0.032	0.290
-636.609	-200.000	-0.017	0.084
-635.595	127.493	0.116	0.147
-634.580	237.061	0.049	0.080
-633.565	-151.024	0.085	-0.006
-632.551	-117.874	-0.082	-0.015
-631.536	-44.774	-0.278	-0.139
-630.522	-200.000	-0.018	-0.126
-629.507	800.000	0.024	-0.066
-628.492	-200.000	0.011	0.225
-627.478	-106.049	-0.163	-0.037
-626.463	-55.990	-0.147	0.065
-625.449	-144.597	-0.291	0.027
-624.434	-102.846	0.188	-0.045
-623.419	-137.390	0.069	0.008
-622.405	-150.217	-0.152	0.012
-621.390	-110.869	-0.181	0.037
-620.376	-9.531	-0.173	-0.115
-619.361	772.041	-0.033	0.089
-618.346	-53.425	-0.164	-0.075
-617.332	377.270	0.126	0.256
-616.317	-75.458	0.233	-0.083
-615.303	-128.169	0.461	0.066
-614.288	-200.000	0.037	-0.325
-613.273	397.007	0.170	-0.354
-612.259	-46.099	0.088	-0.043
-611.244	621.644	0.016	-0.039
-610.230	-200.000	0.012	-0.269
-609.215	-83.475	-0.325	0.104
-608.201	197.679	-0.179	0.273
-607.186	70.571	-0.144	-0.149
-606.171	294.518	0.046	-0.085
-605.157	-69.409	-0.228	0.087
-604.142	-114.839	0.222	-0.042
-603.128	-86.604	-0.114	-0.035
-602.113	800.000	-0.085	-0.240
-601.098	230.459	-0.106	-0.173
-600.084	800.000	0.078	0.329
-599.069	-200.000	-0.084	-0.382
-598.055	163.141	-0.015	0.021
-597.040	-0.821	-0.310	-0.219
-596.025	-137.510	0.193	-0.022
-595.011	195.408	-0.098	0.148
-593.996	345.515	-0.109	-0.213
-592.982	298.518	0.154	0.282
-591.967	-0.164	-0.144	0.102
-590.952	166.556	0.092	0.130
-589.938	-183.593	0.224	-0.004
-588.923	-200.000	-0.001	-0.293
-587.909	800.000	-0.126	-0.358
-586.894	-70.525	-0.229	-0.086
-585.879	279.813	-0.060	0.107
-584.865	43.419	0.121	-0.110
-583.850	-71.195	-0.445	-0.167
-582.836	43.780	-0.036	-0.033
-581.821	30.173	-0.154	-0.132
-580.806	32.804	0.097	0.083
-579.792	43.646	-0.334	-0.305
-578.777	-150.562	-0.338	0.026
-577.763	-135.530	0.189	0.022
-576.748	-87.157	0.161	0.049
-575.733	428.574	-0.095	-0.205
-574.719	154.273	-0.204	0.280
-573.704	-126.468	-0.254	-0.038
-572.690	198.924	0.121	-0.186
-571.675	14.523	0.228	-0.177
-570.661	68.558	0.078	0.080
-569.646	-148.284	-0.318	0.026
-568.631	-87.786	-0.071	-0.021
-567.617	44.117	-0.074	-0.068
-566.602	601.064	-0.072	0.179
-565.588	621.263	-0.093	0.234
-564.573	141.013	-0.045	-0.060
-563.558	184.442	0.095	0.141
-562.544	800.000	0.096	-0.327
-561.529	-200.000	0.024	-0.149
-560.515	-200.000	0.048	0.279
-559.500	-200.000	-0.005	0.074
-558.485	-57.107	-0.070	0.031
-557.471	85.018	0.150	0.164
-556.456	-189.259	-0.151	-0.002
-555.442	348.234	-0.074	-0.146
-554.427	-200.000	-0.060	0.349
-553.412	-118.252	0.462	0.082
-552.398	14.540	-0.122	-0.095
-551.383	-12.456	-0.320	-0.208
-550.369	-102.320	-0.177	0.042
-549.354	214.340	0.128	0.202
-548.339	-162.859	-0.217	-0.011
-547.325	-200.000	-0.042	0.211
-546.310	-30.015	0.123	-0.070
-545.296	800.000	-0.056	-0.242
-544.281	-4.842	-0.207	-0.142
-543.266	-200.000	0.009	-0.051
-542.252	800.000	0.148	-0.501
-541.237	340.522	-0.110	-0.215
-540.223	-132.836	-0.109	-0.014
-539.208	-43.304	-0.492	0.248
-538.193	-0.721	-0.033	-0.023
-537.179	-184.964	0.180	0.003
-536.164	-200.000	0.001	0.082
-535.150	7.987	-0.179	0.134
-534.135	-144.150	-0.095	0.009
-533.121	281.810	0.023	0.041
-532.106	21.954	0.119	0.097
-531.091	-81.629	-0.175	0.057
-530.077	468.703	-0.126	0.282
-529.062	130.196	-0.147	-0.187
-528.048	-67.544	0.342	0.133
-527.033	233.349	-0.080	-0.130
-526.018	105.003	-0.078	0.092
-525.004	-75.038	0.124	-0.044
-523.989	800.000	-0.030	-0.119
-522.975	-200.000	-0.042	-0.192
-521.960	-138.479	-0.284	0.031
-520.945	297.994	0.136	0.249
-519.931	-30.992	-0.212	-0.119
-518.916	800.000	0.078	-0.251
-517.902	133.956	-0.232	-0.299
-516.887	-200.000	0.001	-0.229
-515.872	113.345	-0.161	0.195
-514.858	-117.706	-0.214	-0.038
-513.843	178.222	-0.122	0.178
-512.829	-200.000	0.033	0.151
-511.814	300.579	-0.117	0.215
-510.799	-94.990	0.142	0.038
-509.785	-44.112	-0.124	-0.062
-508.770	-24.732	0.125	-0.074
-507.756	-200.000	-0.031	-0.293
-506.741	424.717	0.054	0.116
-505.726	-76.874	0.143	-0.050
-504.712	148.619	-0.253	-0.340
-503.697	78.204	0.159	-0.169
-502.683	-104.047	0.368	0.085
-501.668	544.236	-0.072	-0.171
-500.653	800.000	0.051	0.171
-499.639	-46.245	-0.315	-0.154
-498.624	405.289	0.145	0.304
-497.610	-70.380	0.063	-0.024
-496.595	69.594	0.077	-0.079
-495.581	320.061	0.107	-0.202
-494.566	12.952	-0.121	-0.093
-493.551	-200.000	0.008	0.339
-492.537	-102.523	-0.385	0.092
-491.522	-200.000	-0.043	0.454
-490.508	204.292	0.028	0.043
-489.493	800.000	0.117	0.397
-488.478	417.728	0.019	0.039
-487.464	132.771	-0.094	-0.121
-486.449	463.247	0.054	-0.120
-485.435	800.000	0.113	-0.463
-484.420	800.000	0.034	-0.143
-483.405	695.108	-0.037	-0.097
-482.391	116.939	-0.240	-0.293
-481.376	226.757	-0.109	-0.176
-480.362	17.946	0.095	-0.075
-479.347	735.292	-0.160	0.426
-478.332	-113.611	-0.147	-0.028
-477.318	-60.866	-0.249	-0.105
-476.303	-200.000	0.003	-0.089
-475.289	252.447	0.162	0.274
-474.274	-200.000	-0.029	0.149
-473.259	72.739	-0.213	0.221
-472.245	-200.000	0.028	0.332
-471.230	-90.150	0.451	-0.130
-470.216	123.457	-0.189	-0.236
-469.201	-144.627	0.330	-0.030
-468.186	-107.941	-0.295	-0.064
-467.172	-166.290	-0.025	0.001
-466.157	-154.887	-0.118	0.008
-465.143	102.503	-0.073	-0.084
-464.128	-200.000	0.029	-0.300
-463.113	-119.748	-0.400	0.069
-462.099	-69.701	-0.288	0.109
-461.084	-85.266	0.424	-0.132
-460.070	-102.910	-0.260	-0.061
-459.055	715.415	0.053	0.139
-458.040	198.465	-0.214	0.326
-457.026	145.778	0.152	-0.202
-456.011	244.595	-0.137	-0.229
-454.997	-200.000	0.027	-0.304
-453.982	-100.171	0.182	0.045
-452.968	-93.886	0.199	-0.054
-451.953	-200.000	-0.012	-0.145
-450.938	-98.282	-0.151	-0.038
-449.924	-169.614	0.481	-0.017
-448.909	800.000	0.072	-0.281
-447.895	40.876	0.018	-0.016
-446.880	-200.000	-0.028	-0.224
-445.865	-58.307	0.338	-0.146
-444.851	-0.760	0.102	0.072
-443.836	44.850	0.144	-0.132
-442.822	113.785	-0.112	-0.136
-441.807	-115.248	0.614	0.115
-440.792	13.310	-0.258	-0.198
-439.778	800.000	-0.049	-0.192
-438.763	757.949	0.097	0.259
-437.749	800.000	0.064	0.181
-436.734	-164.374	-0.402	-0.018
-435.719	-50.866	-0.096	0.045
-434.705	-5.266	0.333	0.227
-433.690	-131.334	0.466	-0.061
-432.676	-41.597	0.310	-0.158
-431.661	-200.000	0.075	0.000
-430.646	-102.241	0.212	-0.051
-429.632	-138.076	-0.225	0.025
-428.617	284.500	0.101	-0.181
-427.603	137.836	0.055	-0.072
-426.588	-200.000	0.035	-0.207
-425.573	-36.253	0.207	-0.111
-424.559	252.295	0.195	-0.330
-423.544	-16.974	0.269	-0.169
-422.530	800.000	-0.020	-0.059
-421.515	13.771	-0.181	-0.140
-420.500	-200.000	-0.004	-0.224
-419.486	800.000	0.086	-0.354
-418.471	-135.412	-0.277	0.033
-417.457	-200.000	-0.006	-0.328
-416.442	-111.937	0.083	-0.017
-415.428	-61.102	-0.199	0.083
-414.413	526.109	0.098	-0.229
-413.398	-25.338	-0.088	-0.051
-412.384	-86.615	0.240	0.073
-411.369	43.768	0.172	-0.156
-410.355	-7.637	-0.166	0.111
-409.340	-200.000	0.025	0.267
-408.325	-190.730	0.070	-0.001
-407.311	5.778	0.137	-0.100
-406.296	362.657	0.015	-0.029
-405.282	30.168	-0.288	0.243
-404.267	129.185	0.324	-0.410
-403.252	-200.000	0.015	0.467
-402.238	-200.000	-0.102	0.443
-401.223	-172.603	-0.143	0.004
-400.209	800.000	-0.125	0.469
-399.194	800.000	0.042	-0.144
-398.179	325.440	-0.145	0.274
-397.165	-200.000	0.029	0.125
-396.150	800.000	0.021	0.079
-395.136	-200.000	0.515	0.001
-394.121	-200.000	0.001	-0.188
-393.106	-37.685	-0.425	-0.224
-392.092	152.615	0.106	-0.144
-391.077	319.475	0.137	0.257
-390.063	-134.669	0.246	0.030
-389.048	-118.472	0.297	0.052
-388.033	800.000	-0.012	-0.037
-387.019	-31.707	-0.126	0.070
-386.004	800.000	-0.020	-0.085
-384.990	24.287	0.144	-0.118
-383.975	20.377	0.064	-0.051
-382.960	-200.000	-0.039	-0.241
-381.946	-200.000	-0.004	0.073
-380.931	-200.000	-0.018	0.364
-379.917	122.748	0.252	0.312
-378.902	-6.600	0.237	-0.160
-377.888	-200.000	0.018	-0.101
-376.873	-200.000	0.010	0.386
-375.858	-92.790	0.323	-0.089
-374.844	-137.931	-0.377	0.042
-373.829	800.000	0.071	-0.219
-372.815	-68.804	0.128	0.049
-371.800	98.927	-0.155	-0.177
-370.785	-200.000	-0.003	0.450
-369.771	156.990	0.192	-0.263
-368.756	-148.927	-0.256	-0.020
-367.742	-132.784	-0.067	0.008
-366.727	-200.000	-0.068	0.299
-365.712	215.693	-0.109	0.171
-364.698	61.366	0.146	-0.143
-363.683	-20.460	0.356	0.217
-362.669	352.493	0.078	0.152
-361.654	-156.251	-0.124	-0.008
-360.639	-125.559	-0.426	0.064
-359.625	-7.427	0.049	-0.033
-358.610	-167.709	-0.276	-0.011
-357.596	10.246	0.244	0.183
-356.581	-4.757	0.126	-0.086
-355.566	-157.043	-0.319	0.019
-354.552	564.465	0.066	0.157
-353.537	-200.000	-0.048	0.281
-352.523	-200.000	0.001	0.038
-351.508	800.000	0.101	0.333
-350.493	400.964	-0.189	-0.392
-349.479	-200.000	-0.011	0.130
-348.464	340.113	0.084	0.162
-347.450	285.706	0.107	0.191
-346.435	125.800	0.113	0.141
-345.420	-56.212	-0.396	0.174
-344.406	-72.038	-0.141	-0.052
-343.391	-200.000	0.006	0.049
-342.377	-5.512	-0.205	0.139
-341.362	-200.000	0.076	0.346
-340.348	800.000	-0.027	-0.115
-339.333	306.278	-0.116	0.213
-338.318	-33.736	-0.039	0.021
-337.304	-72.720	-0.223	0.081
-336.289	-31.264	-0.429	0.239
-335.275	292.495	0.200	0.361
-334.260	174.126	-0.097	0.139
-333.245	-102.495	-0.204	0.048
-332.231	-75.350	0.166	-0.058
-331.216	37.896	0.029	-0.026
-330.202	-8.829	0.094	0.062
-329.187	-151.152	-0.218	-0.016
-328.172	8.679	0.098	0.073
-327.158	-200.000	-0.008	-0.041
-326.143	-22.670	0.146	-0.087
-325.129	402.116	-0.118	0.245
-324.114	-200.000	-0.018	0.146
-323.099	-200.000	-0.002	-0.163
-322.085	735.446	0.126	-0.333
-321.070	-6.683	0.099	0.067
-320.056	-96.119	0.158	-0.041
-319.041	-67.970	-0.133	-0.051
-318.026	338.861	-0.034	-0.065
-317.012	-98.306	-0.274	-0.069
-315.997	371.131	-0.036	0.071
-314.983	-165.260	-0.041	-0.002
-313.968	200.994	0.254	-0.386
-312.953	-140.491	0.192	0.020
-311.939	6.131	-0.146	0.107
-310.924	282.230	-0.067	0.119
-309.910	-200.000	-0.030	0.235
-308.895	-75.162	0.384	-0.135
-307.880	244.144	-0.038	0.063
-306.866	-83.876	-0.374	0.118
-305.851	-200.000	-0.034	0.506
-304.837	10.736	-0.150	0.113
-303.822	-200.000	0.013	0.197
-302.807	-105.054	-0.137	-0.031
-301.793	-82.936	-0.107	0.034
-300.778	800.000	0.044	0.173
-299.764	800.000	0.042	0.156
-298.749	302.796	-0.061	0.111
-297.735	17.808	0.123	-0.097
-296.720	-81.249	0.342	0.111
-295.705	800.000	-0.087	0.275
-294.691	44.624	0.207	0.188
-293.676	-72.730	0.397	0.144
-292.662	-200.000	0.002	-0.055
-291.647	-200.000	0.009	0.214
-290.632	457.619	0.058	-0.127
-289.618	-200.000	0.034	-0.333
-288.603	-73.187	0.358	0.129
-287.589	-84.776	-0.065	0.020
-286.574	-200.000	-0.101	0.475
-285.559	-180.997	0.321	-0.006
-284.545	-158.077	-0.174	0.010
-283.530	-200.000	-0.020	-0.119
-282.516	-98.937	0.218	0.055
-281.501	-64.275	0.264	-0.106
-280.486	656.509	-0.132	-0.334
-279.472	253.756	0.105	0.176
-278.457	800.000	-0.037	0.141
-277.443	-42.248	-0.171	0.086
-276.428	-18.157	0.118	-0.073
-275.413	238.271	0.188	0.308
-274.399	322.918	-0.144	0.271
-273.384	-159.442	-0.113	-0.006
-272.370	268.926	0.156	-0.270
-271.355	375.318	-0.091	0.184
-270.340	97.585	0.158	-0.179
-269.326	117.900	0.136	-0.165
-268.311	-9.541	0.212	-0.139
-267.297	-200.000	0.020	0.302
-266.282	334.511	-0.047	0.089
-265.267	-3.825	0.139	0.095
-264.253	-86.225	-0.131	0.040
-263.238	-66.615	0.105	0.041
-262.224	-200.000	0.042	0.377
-261.209	-16.061	0.124	-0.078
-260.195	-154.201	0.370	-0.025
-259.180	462.898	0.060	0.132
-258.165	100.984	0.135	-0.155
-257.151	-164.767	0.354	-0.016
-256.136	-200.000	0.033	-0.316
-255.122	174.358	-0.099	0.142
-254.107	637.535	-0.060	0.149
-253.092	14.056	0.140	0.107
-252.078	-26.468	0.148	-0.085
-251.063	152.144	0.212	0.285
-250.049	-200.000	0.022	-0.168
-249.034	-3.697	0.359	-0.246
-248.019	197.465	-0.164	-0.247
-247.005	-130.292	0.100	0.013
-245.990	-98.870	-0.302	0.076
-244.976	-120.051	-0.103	0.017
-243.961	149.839	0.031	-0.041
-242.946	33.381	0.132	-0.113
-241.932	162.938	0.110	-0.153
-240.917	77.910	0.071	-0.074
-239.903	-200.000	0.014	-0.156
-238.888	735.538	-0.214	0.564
-237.873	-200.000	0.012	0.412
-236.859	-134.047	0.159	-0.019
-235.844	-200.000	-0.070	-0.356
-234.830	459.455	0.027	-0.059
-233.815	28.357	0.401	0.333
-232.800	-102.528	-0.347	0.082
-231.786	-200.000	0.041	0.350
-230.771	-200.000	0.038	0.366
-229.757	269.415	-0.167	-0.288
-228.742	320.248	-0.145	-0.270
-227.727	-99.812	-0.098	-0.024
-226.713	-40.885	-0.256	-0.130
-225.698	-200.000	-0.035	-0.165
-224.684	89.697	0.287	-0.315
-223.669	-32.107	-0.182	-0.100
-222.655	273.488	-0.125	-0.217
-221.640	-38.371	-0.158	-0.082
-220.625	-95.121	-0.006	0.002
-219.611	-200.000	-0.020	-0.086
-218.596	-131.998	0.262	0.034
-217.582	-112.813	-0.171	0.033
-216.567	99.689	0.287	0.327
-215.552	-200.000	0.032	0.278
-214.538	387.504	0.136	0.277
-213.523	2.877	0.164	0.117
-212.509	234.537	0.190	0.308
-211.494	800.000	0.082	0.299
-210.479	-86.233	-0.144	0.044
-209.465	-127.455	-0.026	-0.004
-208.450	-10.238	-0.243	-0.159
-207.436	-27.055	0.048	0.028
-206.421	325.952	-0.036	-0.067
-205.406	-200.000	-0.013	-0.272
-204.392	157.717	0.107	0.146
-203.377	-116.637	0.330	0.060
-202.363	-123.315	-0.299	-0.047
-201.348	-104.200	-0.065	-0.015
-200.333	142.673	-0.138	-0.181
-199.319	-95.788	0.059	0.016
-198.304	800.000	0.027	-0.082
-197.290	800.000	0.028	-0.107
-196.275	-187.911	-0.187	0.002
-195.260	-12.457	0.241	0.154
-194.246	212.683	0.099	-0.153
-193.231	-67.267	0.160	-0.062
-192.217	-35.738	0.148	-0.079
-191.202	543.222	0.053	-0.125
-190.187	-200.000	-0.048	-0.256
-189.173	-28.736	0.216	0.122
-188.158	-188.253	-0.406	0.005
-187.144	800.000	-0.033	-0.113
-186.129	-35.620	-0.118	0.063
-185.114	-200.000	-0.011	0.116
-184.100	-200.000	0.021	-0.164
-183.085	703.289	-0.174	-0.451
-182.071	621.823	0.086	-0.212
-181.056	59.988	-0.040	-0.039
-180.042	147.356	0.031	0.041
-179.027	-14.360	0.211	-0.133
-178.012	-93.834	-0.309	0.084
-176.998	491.001	0.051	-0.114
-175.983	-167.072	-0.333	-0.013
-174.969	-200.000	-0.006	0.039
-173.954	86.624	-0.138	-0.149
-172.939	-91.450	0.110	0.031
-171.925	-200.000	0.074	0.485
-170.910	345.581	0.121	0.234
-169.896	135.517	0.115	0.147
-168.881	129.646	0.052	0.066
-167.866	-175.342	0.165	-0.004
-166.852	-28.676	0.136	-0.077
-165.837	-56.607	-0.389	-0.169
-164.823	-200.000	-0.020	-0.228
-163.808	555.979	-0.096	-0.226
-162.793	-58.766	-0.252	-0.107
-161.779	800.000	0.089	-0.261
-160.764	-194.948	-0.039	0.000
-159.750	-200.000	-0.016	-0.367
-158.735	-200.000	0.014	-0.222
-157.720	86.549	0.195	0.211
-156.706	-200.000	0.020	0.260
-155.691	193.601	0.232	0.345
-154.677	-157.052	-0.136	-0.008
-153.662	92.542	0.241	-0.267
-152.647	103.949	-0.173	-0.200
-151.633	-200.000	-0.033	0.196
-150.618	454.683	-0.086	-0.188
-149.604	-197.029	0.162	-0.001
-148.589	201.040	0.118	0.178
-147.574	-2.156	0.111	-0.076
-146.560	-200.000	0.025	0.170
-145.545	-200.000	0.004	0.094
-144.531	123.537	-0.100	-0.123
-143.516	-1.902	0.034	0.023
-142.502	361.204	0.030	0.059
-141.487	269.635	0.115	0.197
-140.472	-37.072	0.180	0.094
-139.458	-182.137	-0.128	-0.002
-138.443	-145.464	-0.516	0.046
-137.429	800.000	0.132	-0.500
-136.414	-200.000	0.014	-0.227
-135.399	-106.627	-0.275	0.060
-134.385	309.941	-0.079	-0.146
-133.370	-144.381	-0.166	0.015
-132.356	-145.927	0.445	0.039
-131.341	723.202	0.148	0.386
-130.326	163.928	0.128	-0.177
-129.312	460.708	0.122	-0.266
-128.297	-200.000	0.004	0.095
-127.283	800.000	0.023	-0.092
-126.268	449.529	0.121	-0.262
-125.253	-26.730	0.349	0.200
-124.239	-200.000	0.007	0.147
-123.224	800.000	0.081	0.226
-122.210	44.988	-0.240	0.217
-121.195	539.097	-0.059	-0.136
-120.180	800.000	0.022	-0.065
-119.166	-200.000	-0.006	0.115
-118.151	-200.000	0.015	0.206
-117.137	15.347	0.153	-0.117
-116.122	-19.074	-0.178	0.108
-115.107	-158.474	-0.110	-0.006
-114.093	-61.217	-0.088	0.036
-113.078	310.712	0.104	-0.190
-112.064	658.697	0.138	0.347
-111.049	202.397	-0.185	0.280
-110.034	-3.758	-0.322	0.219
-109.020	-200.000	-0.023	0.163
-108.005	-135.548	0.289	0.034
-106.991	319.284	-0.311	0.578
-105.976	-110.404	0.348	0.071
-104.962	-200.000	0.015	0.228
-103.947	24.243	-0.263	0.213
-102.932	372.225	-0.096	0.191
-101.918	546.526	-0.089	-0.209
-100.903	-34.478	0.280	-0.150
-99.889	147.543	0.248	-0.327
-98.874	-200.000	-0.026	0.180
-97.859	-98.186	0.326	0.082
-96.845	-200.000	0.026	0.296
-95.830	-200.000	-0.004	-0.052
-94.816	198.632	-0.131	-0.196
-93.801	-73.004	-0.404	-0.145
-92.786	6.405	-0.345	0.251
-91.772	6.605	0.527	-0.384
-90.757	57.695	0.118	-0.113
-89.743	-23.468	-0.245	0.144
-88.728	-128.196	-0.161	-0.023
-87.713	-72.699	-0.273	0.098
-86.699	-200.000	0.063	-0.282
-85.684	35.763	-0.215	-0.185
-84.670	-200.000	-0.071	0.342
-83.655	-200.000	-0.005	-0.227
-82.640	40.199	-0.226	-0.198
-81.626	800.000	-0.078	0.326
-80.611	800.000	-0.012	0.040
-79.597	81.023	-0.096	0.101
-78.582	-200.000	-0.002	0.055
-77.567	101.944	-0.113	0.129
-76.553	-100.468	-0.110	0.027
-75.538	800.000	0.104	0.360
-74.524	32.538	-0.198	-0.168
-73.509	340.574	0.054	0.103
-72.494	63.330	-0.189	-0.186
-71.480	526.356	0.105	0.242
-70.465	800.000	0.074	0.299
-69.451	800.000	0.024	0.094
-68.436	-58.112	-0.221	-0.094
-67.422	470.941	-0.194	0.428
-66.407	495.329	0.046	-0.103
-65.392	-81.458	0.120	-0.039
-64.378	-164.190	-0.276	-0.012
-63.363	263.616	-0.124	-0.210
-62.349	321.163	-0.048	-0.089
-61.334	83.015	-0.975	-1.037
-60.319	142.102	0.341	0.442
-59.305	-200.000	0.008	-1.204
-58.290	800.000	0.351	1.168
-57.276	384.264	0.839	1.690
-56.261	-200.000	112.582	608.241
-55.246	445.092	1517.105	3255.654
-54.232	142.937	2714.949	3527.596
-53.217	93.969	2321.310	2572.463
-52.203	35.294	1925.907	1650.314
-51.188	29.379	1714.116	1423.290
-50.173	27.127	1671.260	1370.685
-49.159	47.050	1725.596	1568.451
-48.144	46.022	1740.272	1573.848
-47.130	29.110	1699.459	1408.835
-46.115	26.620	1684.684	1377.615
-45.100	26.341	1680.300	1371.862
-44.086	26.337	1677.270	1369.303
-43.071	26.311	1674.406	1366.716
-42.057	26.254	1672.199	1364.429
-41.042	26.314	1670.321	1363.297
-40.027	26.334	1668.364	1361.796
-39.013	26.269	1666.336	1359.599
-37.998	26.296	1665.045	1358.691
-36.984	26.375	1663.183	1357.709
-35.969	26.353	1662.448	1356.890
-34.954	26.484	1660.303	1356.070
-33.940	26.407	1658.620	1354.068
-32.925	26.399	1657.021	1352.650
-31.911	26.379	1655.387	1351.112
-30.896	26.480	1652.921	1349.797
-29.881	26.392	1651.862	1348.220
-28.867	26.428	1650.255	1347.125
-27.852	26.365	1648.903	1345.496
-26.838	26.430	1647.619	1344.883
-25.823	26.435	1646.287	1343.775
-24.809	26.451	1644.705	1342.553
-23.794	26.482	1643.074	1341.397
-22.779	26.471	1641.626	1340.083
-21.765	26.394	1640.256	1338.342
-20.750	26.416	1638.240	1336.800
-19.736	26.513	1636.868	1336.351
-18.721	26.529	1635.631	1335.405
-17.706	26.335	1634.819	1333.252
-16.692	26.519	1631.926	1332.201
-15.677	26.454	1630.855	1330.793
-14.663	26.571	1629.441	1330.447
-13.648	26.506	1628.152	1328.866
-12.633	26.478	1626.776	1327.482
-11.619	26.521	1624.924	1326.236
-10.604	26.495	1623.653	1324.951
-9.590	26.529	1622.088	1323.874
-8.575	26.526	1620.685	1322.650
-7.560	26.517	1619.336	1321.435
-6.546	26.449	1618.475	1320.179
-5.531	26.456	1617.502	1319.387
-4.517	26.363	1616.238	1317.623
-3.502	26.390	1615.076	1316.824
-2.487	26.605	1612.871	1316.534
-1.473	26.433	1601.759	1306.169
-0.458	24.153	1583.161	1274.661
0.556	19.326	1585.623	1247.192
1.571	17.386	1610.538	1252.414
2.586	17.218	1623.641	1261.241
3.600	15.736	1569.524	1208.452
4.615	8.685	1458.171	1075.400
5.629	1.707	1394.554	983.432
6.644	0.369	1387.015	969.431
7.659	0.301	1385.956	968.168
8.673	0.268	1384.878	967.118
9.688	0.152	1382.813	964.848
10.702	0.039	1379.091	961.443
11.717	3.158	1384.391	985.040
12.731	10.827	1396.284	1042.787
13.746	15.841	1403.342	1080.218
14.761	16.752	1403.663	1086.216
15.775	16.157	1401.198	1080.404
16.790	15.116	1398.625	1071.663
17.804	14.325	1396.594	1064.961
18.819	14.011	1395.344	1061.907
19.834	13.754	1393.810	1059.004
20.848	13.449	1392.552	1056.008
21.863	13.286	1390.988	1053.689
22.877	13.132	1389.984	1051.858
23.892	13.038	1388.816	1050.279
24.907	12.985	1388.132	1049.332
25.921	13.011	1387.352	1048.819
26.936	13.096	1386.611	1048.702
27.950	13.178	1385.490	1048.282
28.965	13.135	1384.943	1047.503
29.980	13.115	1384.135	1046.674
30.994	13.295	1382.426	1046.425
32.009	13.335	1381.395	1045.810
33.023	13.355	1380.354	1045.056
34.038	13.282	1379.064	1043.523
35.053	13.324	1377.939	1042.844
36.067	13.254	1376.878	1041.509
37.082	13.252	1375.843	1040.622
38.096	13.223	1375.177	1039.841
39.111	13.205	1374.568	1039.178
40.126	13.133	1373.471	1037.803
41.140	13.150	1372.691	1037.229
42.155	13.052	1372.518	1036.391
43.169	13.009	1372.342	1035.894
44.184	13.056	1371.981	1035.828
45.199	13.106	1371.314	1035.544
46.213	13.219	1370.457	1035.512
47.228	13.149	1369.448	1034.221
48.242	13.090	1368.624	1033.142
49.257	13.177	1366.791	1032.211
50.271	13.264	1365.283	1031.524
51.286	13.180	1364.446	1030.272
52.301	13.282	1362.677	1029.478
53.315	13.085	1362.039	1027.681
54.330	13.127	1360.982	1027.053
55.344	13.267	1359.247	1026.526
56.359	13.156	1358.895	1025.478
57.374	13.048	1358.077	1024.100
58.388	12.994	1357.569	1023.294
59.403	13.012	1356.711	1022.667
60.417	13.125	1355.820	1022.604
61.432	13.119	1354.485	1021.471
62.447	12.953	1354.758	1020.556
63.461	12.955	1352.745	1018.964
64.476	13.025	1352.010	1018.753
65.490	13.032	1350.375	1017.474
66.505	13.062	1349.011	1016.542
67.520	13.076	1347.655	1015.513
68.534	13.105	1346.731	1014.908
69.549	12.999	1345.557	1013.282
70.563	13.034	1344.233	1012.412
71.578	12.961	1343.250	1011.134
72.593	12.975	1342.806	1010.794
73.607	12.877	1342.240	1009.679
74.622	12.990	1340.917	1009.285
75.636	12.951	1340.208	1008.425
76.651	12.994	1339.404	1007.994
77.666	12.953	1339.023	1007.364
78.680	12.946	1338.771	1007.047
79.695	12.969	1337.565	1006.190
80.709	13.035	1336.567	1005.752
81.724	13.222	1335.094	1005.689
82.739	13.103	1334.490	1004.422
83.753	13.139	1333.607	1003.887
84.768	13.274	1332.332	1003.659
85.782	13.189	1331.829	1002.677
86.797	13.198	1329.872	1001.172
87.812	13.138	1329.015	1000.069
88.826	13.091	1327.930	998.883
89.841	13.158	1327.064	998.547
90.855	13.165	1326.162	997.821
91.870	13.219	1325.013	997.195
92.884	13.348	1324.018	997.135
93.899	13.299	1323.255	996.179
94.914	13.237	1322.694	995.297
95.928	13.288	1321.918	994.929
96.943	13.273	1320.750	993.874
97.957	13.255	1319.914	993.049
98.972	13.334	1318.493	992.365
99.987	13.252	1317.490	991.031
101.001	13.154	1316.823	989.854
102.016	13.161	1315.753	989.004
103.030	13.205	1314.884	988.527
104.045	13.280	1313.896	988.143
105.060	13.141	1312.806	986.407
106.074	13.216	1311.106	985.491
107.089	13.095	1310.006	983.855
108.103	13.141	1308.771	983.116
109.118	13.126	1307.840	982.239
110.133	13.065	1306.533	980.808
111.147	13.131	1304.659	979.706
112.162	13.124	1303.556	978.751
113.176	13.181	1302.168	977.960
114.191	13.183	1301.314	977.241
115.206	13.249	1300.232	976.734
116.220	13.151	1298.970	975.117
117.235	13.227	1297.906	974.683
118.249	13.171	1296.940	973.542
119.264	13.152	1295.955	972.606
120.279	13.234	1294.287	971.746
121.293	13.070	1293.920	970.423
122.308	13.098	1292.938	969.765
123.322	13.145	1291.498	968.877
124.337	13.105	1290.909	968.110
125.352	13.108	1289.451	966.949
126.366	13.152	1287.949	965.995
127.381	13.165	1286.932	965.225
128.395	13.214	1285.633	964.450
129.410	13.214	1284.746	963.699
130.424	13.152	1284.586	963.131
131.439	13.180	1283.148	962.132
132.454	13.188	1282.409	961.540
133.468	13.183	1281.271	960.575
134.483	13.146	1280.821	959.934
135.497	13.102	1279.861	958.875
136.512	13.178	1278.221	958.002
137.527	13.156	1276.620	956.589
138.541	13.205	1275.554	955.991
139.556	13.174	1273.896	954.484
140.570	13.258	1273.202	954.363
141.585	13.264	1271.740	953.220
142.600	13.278	1270.496	952.285
143.614	13.391	1269.870	952.380
144.629	13.385	1268.513	951.242
145.643	13.385	1267.473	950.377
146.658	13.296	1266.407	948.988
147.673	13.365	1264.736	948.046
148.687	13.273	1263.484	946.495
149.702	13.282	1262.700	945.876
150.716	13.215	1261.292	944.357
151.731	13.326	1259.803	943.789
152.746	13.268	1258.696	942.548
153.760	13.291	1257.803	941.927
154.775	13.430	1256.526	941.678
155.789	13.407	1255.446	940.651
156.804	13.458	1253.898	939.700
157.819	13.386	1253.224	938.705
158.833	13.496	1252.195	938.470
159.848	13.562	1250.922	937.810
160.862	13.533	1250.477	937.231
161.877	13.462	1249.565	936.060
162.892	13.384	1248.120	934.454
163.906	13.441	1247.573	934.285
164.921	13.380	1246.244	932.864
165.935	13.462	1245.409	932.619
166.950	13.468	1244.800	932.114
167.964	13.428	1244.008	931.212
168.979	13.494	1243.614	931.204
169.994	13.574	1242.430	930.687
171.008	13.530	1241.727	929.830
172.023	13.514	1241.134	929.213
173.037	13.536	1240.036	928.433
174.052	13.552	1238.957	927.630
175.067	13.568	1237.994	926.918
176.081	13.673	1236.488	926.297
177.096	13.532	1236.021	925.078
178.110	13.587	1235.007	924.546
179.125	13.594	1233.735	923.549
180.140	13.656	1232.416	922.821
181.154	13.638	1231.091	921.651
182.169	13.570	1230.134	920.477
183.183	13.746	1228.659	920.264
184.198	13.613	1227.836	918.832
185.213	13.776	1226.214	918.438
186.227	13.699	1225.523	917.415
187.242	13.665	1224.780	916.590
188.256	13.733	1224.023	916.318
189.271	13.810	1223.078	915.952
190.286	13.685	1221.999	914.374
191.300	13.562	1220.681	912.631
192.315	13.653	1219.872	912.442
193.329	13.640	1219.453	911.977
194.344	13.773	1219.048	912.325
195.359	13.694	1218.224	911.197
196.373	13.836	1217.905	911.656
197.388	13.862	1217.083	911.102
198.402	13.828	1217.178	910.907
199.417	13.936	1215.756	910.355
200.432	13.967	1214.837	909.756
201.446	13.992	1213.779	909.021
202.461	14.036	1212.822	908.463
203.475	13.988	1211.743	907.312
204.490	13.955	1210.824	906.362
205.504	13.971	1209.579	905.439
206.519	13.976	1208.329	904.452
207.534	13.983	1207.333	903.665
208.548	13.961	1206.615	902.925
209.563	13.945	1205.826	902.169
210.577	14.050	1204.516	901.678
211.592	14.087	1203.781	901.248
212.607	14.045	1203.078	900.417
213.621	14.061	1202.074	899.668
214.636	14.055	1201.272	898.959
215.650	14.139	1200.170	898.509
216.665	14.133	1198.814	897.380
217.680	14.183	1198.542	897.365
218.694	14.160	1197.648	896.495
219.709	14.269	1196.589	896.212
220.723	14.116	1196.094	894.937
221.738	14.216	1195.094	894.646
222.753	14.125	1194.697	893.778
223.767	14.337	1193.567	893.992
224.782	14.285	1193.093	893.284
225.796	14.421	1192.339	893.366
226.811	14.406	1191.670	892.707
227.826	14.223	1191.285	891.359
228.840	14.291	1190.299	890.909
229.855	14.297	1189.767	890.462
230.869	14.264	1188.773	889.464
231.884	14.230	1188.287	888.840
232.899	14.177	1187.541	887.919
233.913	14.266	1186.838	887.787
234.928	14.288	1185.678	886.960
235.942	14.250	1185.137	886.276
236.957	14.324	1184.204	885.890
237.972	14.375	1183.297	885.409
238.986	14.383	1182.396	884.695
240.001	14.369	1181.951	884.208
241.015	14.389	1180.726	883.321
242.030	14.468	1180.185	883.256
243.045	14.361	1179.563	882.150
244.059	14.384	1178.622	881.488
245.074	14.416	1177.821	880.980
246.088	14.541	1176.489	880.566
247.103	14.538	1175.775	879.939
248.117	14.541	1175.315	879.531
249.132	14.599	1174.734	879.325
250.147	14.594	1174.159	878.787
251.161	14.695	1173.333	878.627
252.176	14.754	1172.704	878.385
253.190	14.751	1172.045	877.798
254.205	14.728	1171.322	877.061
255.220	14.708	1171.071	876.690
256.234	14.823	1169.908	876.344
257.249	14.776	1169.502	875.715
258.263	14.812	1168.741	875.255
259.278	14.717	1168.352	874.392
260.293	14.789	1167.558	874.097
261.307	14.827	1167.216	873.962
262.322	14.865	1166.482	873.531
263.336	14.983	1165.347	873.221
264.351	14.938	1165.168	872.773
265.366	15.001	1164.238	872.328
266.380	15.061	1163.582	872.072
267.395	15.025	1162.811	871.232
268.409	14.985	1162.135	870.439
269.424	14.917	1161.741	869.712
270.439	15.015	1160.945	869.548
271.453	15.058	1159.909	868.922
272.468	15.032	1158.795	867.873
273.482	14.971	1158.146	866.997
274.497	14.972	1157.561	866.488
275.512	15.055	1157.003	866.423
276.526	14.953	1156.427	865.384
277.541	14.951	1155.475	864.584
278.555	15.044	1154.936	864.585
279.570	15.048	1154.065	863.880
280.585	15.116	1153.204	863.507
281.599	15.278	1152.277	863.574
282.614	15.077	1151.504	861.884
283.628	15.134	1150.150	861.086
284.643	15.050	1149.446	860.050
285.657	15.219	1148.213	859.919
286.672	15.124	1147.545	858.857
287.687	15.150	1146.796	858.350
288.701	15.208	1146.013	857.985
289.716	15.247	1145.438	857.679
290.730	15.238	1144.194	856.626
291.745	15.318	1143.583	856.504
292.760	15.342	1142.939	856.070
293.774	15.335	1142.192	855.397
294.789	15.423	1141.891	855.546
295.803	15.468	1141.160	855.150
296.818	15.398	1140.380	854.131
297.833	15.298	1139.822	853.133
298.847	15.448	1138.719	852.991
299.862	15.331	1138.049	851.822
300.876	15.527	1137.097	852.024
301.891	15.461	1136.863	851.443
302.906	15.498	1135.681	850.670
303.920	15.481	1135.393	850.291
304.935	15.548	1134.708	850.042
305.949	15.692	1133.849	850.053
306.964	15.689	1133.043	849.359
307.979	15.655	1131.994	848.323
308.993	15.664	1131.556	847.963
310.008	15.616	1130.924	847.177
311.022	15.633	1130.212	846.655
312.037	15.651	1129.352	846.025
313.052	15.549	1128.270	844.625
314.066	15.563	1127.413	843.978
315.081	15.590	1126.988	843.720
316.095	15.669	1126.122	843.397
317.110	15.643	1125.561	842.772
318.125	15.630	1124.868	842.113
319.139	15.619	1124.205	841.487
320.154	15.575	1123.068	840.341
321.168	15.641	1122.611	840.256
322.183	15.703	1121.772	839.863
323.197	15.584	1121.590	839.058
324.212	15.627	1120.717	838.543
325.227	15.650	1120.328	838.293
326.241	15.734	1119.565	838.068
327.256	15.791	1118.494	837.475
328.270	15.793	1117.570	836.721
329.285	15.773	1116.753	835.935
330.300	15.716	1116.017	835.026
331.314	15.707	1114.781	833.983
332.329	15.779	1113.919	833.620
333.343	15.820	1113.061	833.105
334.358	15.743	1112.378	832.142
335.373	15.867	1111.362	831.924
336.387	15.825	1110.919	831.309
337.402	15.892	1110.363	831.149
338.416	15.918	1109.535	830.587
339.431	15.921	1108.997	830.122
340.446	15.931	1108.694	829.874
341.460	15.866	1107.908	828.892
342.475	16.053	1106.252	828.499
343.489	15.957	1106.157	827.880
344.504	16.135	1104.665	827.563
345.519	16.032	1104.245	826.669
346.533	16.277	1102.858	826.761
347.548	16.191	1102.658	826.118
348.562	16.135	1101.765	825.101
349.577	16.270	1100.642	824.843
350.592	16.097	1100.114	823.530
351.606	16.173	1099.354	823.260
352.621	16.134	1099.090	822.800
353.635	16.034	1098.366	821.696
354.650	16.130	1097.687	821.585
355.665	16.223	1096.787	821.292
356.679	16.197	1095.906	820.432
357.694	16.213	1095.527	820.155
358.708	16.377	1094.411	820.041
359.723	16.338	1093.927	819.416
360.738	16.276	1093.311	818.584
361.752	16.411	1093.135	819.034
362.767	16.367	1092.350	818.158
363.781	16.237	1091.881	817.108
364.796	16.406	1090.645	816.926
365.810	16.443	1090.404	816.853
366.825	16.501	1089.849	816.645
367.840	16.537	1089.151	816.225
368.854	16.440	1089.010	815.576
369.869	16.535	1087.651	814.942
370.883	16.480	1087.216	814.281
371.898	16.346	1086.327	812.898
372.913	16.531	1085.918	813.413
373.927	16.505	1085.826	813.147
374.942	16.546	1085.288	812.865
375.956	16.498	1084.264	811.798
376.971	16.575	1083.378	811.434
377.986	16.693	1082.652	811.383
379.000	16.604	1082.348	810.657
380.015	16.654	1081.811	810.419
381.029	16.661	1081.305	810.006
382.044	16.682	1081.024	809.822
383.059	16.788	1079.627	809.210
384.073	16.764	1079.145	808.663
385.088	16.783	1078.433	808.148
386.102	16.730	1077.063	806.799
387.117	16.805	1075.941	806.242
388.132	16.691	1075.546	805.334
389.146	16.679	1074.333	804.296
390.161	16.789	1073.767	804.325
391.175	16.701	1073.599	803.710
392.190	16.853	1072.372	803.439
393.205	16.820	1071.751	802.748
394.219	16.800	1070.980	802.005
395.234	16.897	1069.933	801.607
396.248	16.867	1069.015	800.707
397.263	16.855	1067.274	799.275
398.278	16.804	1067.346	799.018
399.292	16.881	1066.734	798.853
400.307	16.825	1066.114	798.053
401.321	16.852	1065.241	797.455
402.336	16.859	1064.991	797.232
403.350	16.858	1063.881	796.326
404.365	16.905	1063.070	795.869
405.380	16.894	1062.778	795.529
406.394	16.989	1061.785	795.161
407.409	17.021	1061.119	794.742
408.423	17.046	1060.787	794.541
409.438	17.086	1059.704	793.845
410.453	17.118	1059.205	793.552
411.467	17.169	1058.204	792.966
412.482	17.112	1057.513	792.115
413.496	17.199	1056.895	791.989
414.511	17.173	1056.319	791.363
415.526	17.188	1056.087	791.189
416.540	17.276	1055.309	790.946
417.555	17.341	1054.655	790.687
418.569	17.273	1054.057	789.854
419.584	17.396	1053.716	790.100
420.599	17.310	1053.313	789.330
421.613	105.077	1328.676	1479.954
422.628	96.741	1368.749	1480.041
