DTS Sentinel unit serial number:	SN413079Multiplexer serial number:	ORYXHardware model number:	OX4-SRSoftware version number:	ORYX F/W v4.00 Oryx Data Collector v3.7.2.0data status	okinstallation	princeton_trtdifferential loss correction	single-endedforward channel	channel 2reverse channel	N/Adate	2019/09/15time	10:35:34forward acquisition time	60.00reverse acquisition time	0.00gamma	496.2192k internal	0.2316k external	0.2316temperature offset calibration	1.0020default loss term (dB/km)	0.3790temperature slope calibration	1.0000multiplexer offset coefficient	1.0000multiplexer slope coefficient	1.0000fibre end	0.00T internal ref (°C)	34.25T ext. ref 1 (°C)	5.05T ext. ref 2 (°C)	29.52length (m)	temperature (°C)	Stokes	anti-Stokes-747.200	67.327	-0.228	0.235
-746.185	800.000	0.052	0.156
-745.171	-83.285	-0.125	0.041
-744.156	-200.000	-0.108	0.488
-743.142	421.253	0.176	0.382
-742.127	119.159	0.189	0.237
-741.112	-17.182	0.226	-0.144
-740.098	356.555	0.208	0.421
-739.083	-42.234	0.346	0.179
-738.069	61.302	-0.064	0.064
-737.054	-23.543	-0.114	-0.069
-736.039	381.948	0.075	-0.155
-735.025	-148.765	0.272	-0.022
-734.010	202.711	-0.039	-0.062
-732.996	800.000	-0.052	-0.219
-731.981	-71.463	-0.332	-0.126
-730.966	800.000	0.119	-0.379
-729.952	155.897	0.070	-0.097
-728.937	-52.776	0.286	-0.134
-727.923	-200.000	0.010	0.088
-726.908	-200.000	0.016	0.141
-725.894	-161.031	-0.506	0.027
-724.879	-57.640	-0.284	-0.126
-723.864	63.585	0.206	0.209
-722.850	67.647	-0.059	0.061
-721.835	-200.000	0.002	0.191
-720.821	-130.543	0.228	0.031
-719.806	268.188	0.055	-0.098
-718.791	-200.000	0.028	0.233
-717.777	50.471	-0.236	-0.226
-716.762	-141.963	0.155	0.016
-715.748	-73.304	0.052	0.019
-714.733	-200.000	-0.059	-0.312
-713.718	-74.604	0.216	-0.079
-712.704	-146.378	-0.179	0.016
-711.689	-98.058	-0.372	0.097
-710.675	-78.222	-0.268	0.093
-709.660	-59.813	0.252	-0.109
-708.645	-75.840	0.058	0.021
-707.631	-200.000	-0.024	-0.188
-706.616	213.050	0.064	0.103
-705.602	307.462	-0.105	-0.197
-704.587	45.600	-0.066	0.062
-703.572	152.771	-0.120	0.166
-702.558	-200.000	0.048	-0.331
-701.543	39.637	0.175	-0.159
-700.529	-200.000	0.002	-0.128
-699.514	-84.738	0.203	-0.064
-698.499	-24.340	0.039	-0.023
-697.485	-200.000	0.001	0.126
-696.470	-127.144	0.432	-0.064
-695.456	-83.681	0.227	-0.073
-694.441	800.000	-0.191	0.644
-693.426	-200.000	0.025	-0.241
-692.412	-124.249	0.117	-0.018
-691.397	-200.000	0.051	0.231
-690.383	-103.781	0.034	0.008
-689.368	-200.000	0.017	0.277
-688.354	-200.000	-0.024	0.143
-687.339	-200.000	0.036	-0.173
-686.324	74.848	0.197	-0.210
-685.310	800.000	-0.046	-0.135
-684.295	-122.944	0.222	0.036
-683.281	-168.949	0.160	-0.006
-682.266	-84.205	-0.234	-0.075
-681.251	-20.188	-0.300	-0.187
-680.237	636.265	0.020	-0.053
-679.222	106.651	0.147	0.176
-678.208	166.896	0.075	-0.108
-677.193	-200.000	0.004	0.116
-676.178	236.019	-0.092	0.154
-675.164	-84.273	0.113	0.036
-674.149	-80.006	-0.109	-0.037
-673.135	-135.163	-0.257	0.031
-672.120	-45.025	-0.138	0.069
-671.105	222.281	-0.137	-0.223
-670.091	-123.180	0.098	0.016
-669.076	-75.475	-0.430	-0.155
-668.062	-80.188	-0.180	0.061
-667.047	2.704	-0.268	0.197
-666.032	-107.502	-0.197	0.044
-665.018	-200.000	0.024	0.299
-664.003	-113.291	-0.108	-0.021
-662.989	-5.844	-0.056	-0.039
-661.974	-200.000	0.053	0.241
-660.959	-123.897	0.332	-0.053
-659.945	16.762	0.169	-0.135
-658.930	117.857	-0.097	-0.121
-657.916	124.681	-0.032	-0.040
-656.901	-87.039	0.126	-0.039
-655.886	-200.000	-0.191	-0.001
-654.872	-119.182	-0.199	-0.035
-653.857	-200.000	-0.020	-0.206
-652.843	21.354	-0.315	-0.258
-651.828	-200.000	0.008	-0.069
-650.814	-139.936	-0.156	-0.017
-649.799	-200.000	-0.006	0.171
-648.784	-89.251	-0.012	0.004
-647.770	2.802	-0.007	-0.005
-646.755	48.010	-0.103	-0.097
-645.741	-76.108	0.177	-0.063
-644.726	-55.354	0.408	0.185
-643.711	-144.188	-0.098	0.009
-642.697	-128.756	-0.104	-0.015
-641.682	-123.438	0.179	-0.029
-640.668	-200.000	-0.006	-0.199
-639.653	-200.000	0.026	0.191
-638.638	76.180	-0.147	-0.157
-637.624	800.000	0.045	-0.179
-636.609	74.818	-0.269	-0.286
-635.595	-81.547	0.078	0.026
-634.580	658.341	0.064	0.166
-633.565	800.000	-0.037	0.119
-632.551	13.647	-0.094	0.074
-631.536	-200.000	-0.036	0.324
-630.522	-47.772	-0.206	0.101
-629.507	-139.464	0.124	-0.013
-628.492	-33.654	-0.109	0.061
-627.478	200.867	0.266	-0.412
-626.463	-140.628	0.301	0.031
-625.449	-200.000	0.057	0.542
-624.434	-200.000	0.009	0.194
-623.419	-171.730	-0.432	-0.014
-622.405	-200.000	0.038	0.190
-621.390	-87.255	-0.357	0.109
-620.376	-121.722	-0.420	-0.070
-619.361	800.000	0.088	-0.273
-618.346	-83.484	-0.223	-0.072
-617.332	15.387	-0.263	-0.208
-616.317	29.500	-0.088	0.076
-615.303	61.359	0.178	-0.178
-614.288	-81.176	0.166	-0.055
-613.273	-114.707	-0.225	0.043
-612.259	-143.604	-0.172	0.016
-611.244	120.399	0.205	0.257
-610.230	-146.930	-0.186	-0.016
-609.215	-110.687	0.131	0.027
-608.201	-200.000	-0.028	-0.296
-607.186	33.397	-0.258	-0.225
-606.171	24.109	-0.165	-0.137
-605.157	-34.864	-0.064	-0.035
-604.142	800.000	-0.036	-0.137
-603.128	269.297	0.018	0.032
-602.113	54.552	0.065	0.063
-601.098	67.053	0.248	0.254
-600.084	106.149	-0.057	0.068
-599.069	122.516	0.120	0.151
-598.055	11.638	0.069	-0.053
-597.040	59.058	0.044	-0.044
-596.025	-200.000	0.017	-0.229
-595.011	-145.403	-0.254	0.023
-593.996	-109.449	-0.381	-0.081
-592.982	-29.024	-0.142	-0.082
-591.967	-162.024	-0.354	0.018
-590.952	-54.984	0.244	-0.111
-589.938	-120.185	0.071	-0.012
-588.923	-31.113	0.180	0.102
-587.909	745.598	0.025	-0.067
-586.894	-34.631	-0.248	0.137
-585.879	100.168	-0.109	-0.128
-584.865	27.793	-0.253	-0.215
-583.850	-200.000	0.027	-0.151
-582.836	609.830	0.184	-0.462
-581.821	54.742	-0.063	0.061
-580.806	-200.000	-0.019	0.207
-579.792	25.463	-0.300	0.251
-578.777	-130.182	0.183	0.025
-577.763	-200.000	-0.010	-0.073
-576.748	-200.000	-0.002	0.201
-575.733	-51.778	-0.060	-0.028
-574.719	-94.458	-0.266	0.073
-573.704	-158.468	-0.280	0.016
-572.690	800.000	0.148	-0.433
-571.675	-82.675	-0.164	0.053
-570.661	-112.906	-0.263	-0.052
-569.646	-5.125	0.118	-0.082
-568.631	159.541	-0.140	0.196
-567.617	-120.319	0.364	-0.062
-566.602	-200.000	-0.007	-0.142
-565.588	-200.000	-0.028	0.410
-564.573	-116.135	0.292	-0.055
-563.558	189.176	0.055	0.082
-562.544	-200.000	0.041	-0.220
-561.529	-106.188	-0.362	0.082
-560.515	-200.000	0.039	-0.210
-559.500	-19.495	-0.093	0.058
-558.485	155.997	0.090	0.125
-557.471	460.741	0.136	-0.305
-556.456	153.129	-0.093	-0.128
-555.442	172.411	-0.093	0.134
-554.427	136.413	0.072	0.094
-553.412	800.000	0.126	-0.413
-552.398	467.404	0.039	0.088
-551.383	-132.543	0.134	-0.017
-550.369	-200.000	0.039	0.296
-549.354	615.668	0.035	0.087
-548.339	800.000	0.016	0.054
-547.325	800.000	-0.063	0.222
-546.310	-65.716	0.220	-0.088
-545.296	-55.264	0.387	0.175
-544.281	800.000	0.026	0.079
-543.266	-110.598	0.055	-0.011
-542.252	317.821	0.125	-0.238
-541.237	-17.115	0.053	-0.033
-540.223	-200.000	0.000	-0.220
-539.208	-12.113	0.306	-0.201
-538.193	-200.000	0.047	0.219
-537.179	53.602	0.194	0.187
-536.164	800.000	0.050	-0.186
-535.150	-130.946	0.098	-0.013
-534.135	-200.000	0.018	-0.102
-533.121	800.000	-0.021	-0.068
-532.106	-173.697	-0.304	0.009
-531.091	-142.025	-0.294	0.029
-530.077	-145.244	0.115	-0.010
-529.062	-200.000	0.006	0.172
-528.048	206.753	0.075	0.117
-527.033	100.535	0.062	0.072
-526.018	-108.826	-0.241	0.052
-525.004	74.265	0.012	0.012
-523.989	12.430	0.103	-0.080
-522.975	800.000	0.064	-0.236
-521.960	-141.257	0.472	0.048
-520.945	-103.799	0.229	-0.054
-519.931	-200.000	-0.014	0.300
-518.916	800.000	-0.088	0.310
-517.902	-92.870	-0.100	-0.028
-516.887	189.454	-0.028	-0.043
-515.872	-23.853	-0.406	0.244
-514.858	-38.149	-0.291	-0.155
-513.843	-98.391	0.222	-0.057
-512.829	380.524	-0.096	-0.198
-511.814	-99.182	-0.040	-0.010
-510.799	-100.803	-0.089	0.022
-509.785	800.000	-0.065	0.225
-508.770	340.204	0.013	-0.025
-507.756	-114.351	-0.350	0.068
-506.741	200.837	0.096	-0.148
-505.726	-9.016	0.114	0.077
-504.712	-5.975	0.230	0.158
-503.697	800.000	0.009	-0.028
-502.683	-7.413	-0.180	0.122
-501.668	-200.000	-0.023	-0.142
-500.653	-11.955	-0.185	0.121
-499.639	-200.000	-0.016	-0.124
-498.624	-18.885	-0.274	-0.171
-497.610	-74.273	0.233	-0.085
-496.595	-125.009	-0.159	-0.025
-495.581	800.000	0.041	-0.161
-494.566	-100.731	0.126	0.031
-493.551	800.000	-0.082	-0.272
-492.537	-123.556	0.295	0.047
-491.522	292.099	0.080	0.147
-490.508	-67.518	-0.247	-0.097
-489.493	208.786	0.095	-0.150
-488.478	-60.745	0.279	-0.119
-487.464	-7.038	0.143	0.097
-486.449	-200.000	-0.077	0.373
-485.435	-200.000	-0.031	0.299
-484.420	-104.495	0.120	-0.028
-483.405	743.165	-0.049	-0.133
-482.391	-84.706	-0.059	0.019
-481.376	800.000	0.007	0.019
-480.362	-91.407	-0.327	0.094
-479.347	289.825	0.077	-0.140
-478.332	-132.825	0.275	-0.035
-477.318	800.000	0.092	0.275
-476.303	-200.000	0.010	-0.219
-475.289	-71.937	-0.133	-0.050
-474.274	6.967	0.346	-0.258
-473.259	-9.373	0.167	-0.112
-472.245	-164.695	-0.302	0.014
-471.230	459.980	0.227	-0.507
-470.216	63.056	0.055	0.055
-469.201	-200.000	0.003	-0.095
-468.186	-94.107	0.346	-0.095
-467.172	-66.260	-0.234	-0.093
-466.157	-106.327	-0.108	0.024
-465.143	349.584	0.084	0.166
-464.128	-84.126	0.143	0.046
-463.113	-200.000	-0.013	-0.067
-462.099	800.000	-0.021	-0.071
-461.084	-200.000	-0.013	0.166
-460.070	269.717	0.111	0.195
-459.055	45.894	-0.191	-0.177
-458.040	-144.159	-0.158	0.015
-457.026	-90.137	0.068	-0.020
-456.011	800.000	0.005	-0.021
-454.997	800.000	-0.040	-0.144
-453.982	63.161	0.215	-0.216
-452.968	800.000	-0.054	0.171
-451.953	207.907	-0.229	-0.359
-450.938	-200.000	0.031	-0.252
-449.924	228.726	-0.033	-0.054
-448.909	-77.547	-0.307	-0.106
-447.895	45.015	-0.316	-0.291
-446.880	-200.000	-0.017	-0.086
-445.865	800.000	0.067	-0.289
-444.851	-32.116	0.143	0.080
-443.836	49.042	0.261	-0.245
-442.822	713.714	0.073	-0.194
-441.807	-46.900	0.101	0.050
-440.792	89.088	0.143	-0.159
-439.778	-200.000	-0.090	0.476
-438.763	-26.413	-0.414	0.243
-437.749	-21.412	0.055	0.034
-436.734	130.678	-0.144	0.184
-435.719	415.521	-0.049	0.105
-434.705	-154.888	-0.068	-0.005
-433.690	-96.498	0.047	-0.012
-432.676	-200.000	0.046	-0.266
-431.661	307.460	-0.123	-0.230
-430.646	443.917	-0.016	-0.035
-429.632	250.223	-0.120	-0.204
-428.617	-56.361	-0.145	0.065
-427.603	-200.000	0.017	0.306
-426.588	176.961	0.031	-0.045
-425.573	-99.321	-0.174	-0.044
-424.559	-27.685	0.078	0.045
-423.544	58.112	-0.189	-0.185
-422.530	-43.039	-0.154	0.078
-421.515	9.772	0.214	0.162
-420.500	13.213	0.144	0.112
-419.486	39.680	0.091	-0.081
-418.471	-11.500	0.044	0.029
-417.457	-200.000	0.019	-0.212
-416.442	-200.000	0.007	-0.075
-415.428	-200.000	0.057	-0.280
-414.413	-86.828	-0.321	-0.098
-413.398	-34.817	0.281	0.153
-412.384	800.000	0.113	0.412
-411.369	212.196	-0.195	0.307
-410.355	-200.000	-0.066	0.391
-409.340	-25.343	-0.241	0.143
-408.325	-200.000	0.011	-0.098
-407.311	-170.225	0.437	-0.015
-406.296	800.000	0.109	0.397
-405.282	-200.000	-0.007	0.237
-404.267	-200.000	-0.003	0.445
-403.252	325.046	-0.069	0.132
-402.238	-82.639	0.050	-0.016
-401.223	746.156	0.095	-0.255
-400.209	800.000	0.014	0.057
-399.194	292.688	-0.148	-0.270
-398.179	-200.000	0.031	-0.146
-397.165	478.622	0.129	0.293
-396.150	-200.000	-0.008	-0.058
-395.136	67.152	0.057	-0.058
-394.121	98.407	0.135	-0.156
-393.106	-99.632	0.169	0.042
-392.092	-43.165	-0.172	-0.087
-391.077	-2.169	0.295	0.207
-390.063	-113.842	0.280	0.054
-389.048	-81.956	-0.219	-0.071
-388.033	-144.141	0.242	-0.023
-387.019	-97.645	-0.363	0.094
-386.004	-137.804	-0.255	-0.029
-384.990	-68.413	-0.153	-0.059
-383.975	-200.000	-0.018	0.241
-382.960	-151.794	-0.158	-0.012
-381.946	1.057	0.201	0.144
-380.931	496.452	0.084	-0.192
-379.917	-116.695	-0.294	0.054
-378.902	800.000	0.058	-0.176
-377.888	-200.000	-0.000	0.064
-376.873	-124.280	0.214	-0.033
-375.858	386.609	-0.073	-0.151
-374.844	280.698	-0.096	0.171
-373.829	-126.862	0.193	-0.028
-372.815	-38.977	-0.247	-0.130
-371.800	6.583	-0.170	0.126
-370.785	10.794	-0.095	-0.072
-369.771	800.000	-0.010	0.029
-368.756	29.670	-0.120	-0.102
-367.742	138.669	0.168	-0.220
-366.727	-185.572	-0.097	-0.001
-365.712	628.061	0.011	0.027
-364.698	7.598	-0.227	0.170
-363.683	800.000	-0.044	0.176
-362.669	-200.000	0.033	0.244
-361.654	-146.155	-0.019	-0.002
-360.639	-70.033	0.049	-0.019
-359.625	3.692	0.202	-0.147
-358.610	179.808	0.174	-0.255
-357.596	-179.342	0.266	-0.006
-356.581	-99.285	-0.160	0.040
-355.566	271.547	-0.144	0.252
-354.552	742.303	-0.062	0.166
-353.537	-200.000	-0.023	-0.311
-352.523	248.759	-0.081	-0.138
-351.508	149.777	0.159	0.215
-350.493	800.000	0.077	0.251
-349.479	-52.107	0.359	-0.166
-348.464	321.449	0.114	0.217
-347.450	128.535	-0.211	-0.268
-346.435	-66.908	-0.212	0.083
-345.420	-200.000	-0.002	-0.301
-344.406	724.076	-0.086	0.229
-343.391	309.062	0.126	0.234
-342.377	369.559	-0.020	0.040
-341.362	-112.376	-0.146	0.029
-340.348	-200.000	0.004	-0.126
-339.333	-200.000	0.196	-0.000
-338.318	-34.655	-0.189	0.103
-337.304	-69.253	-0.345	0.132
-336.289	699.614	0.063	-0.166
-335.275	-154.445	0.019	-0.001
-334.260	-96.556	-0.034	0.009
-333.245	42.559	-0.104	-0.095
-332.231	-200.000	-0.024	0.296
-331.216	10.596	0.092	0.070
-330.202	125.354	0.192	-0.241
-329.187	82.183	0.373	-0.403
-328.172	800.000	0.024	-0.094
-327.158	800.000	0.037	0.135
-326.143	473.237	0.049	0.109
-325.129	223.627	-0.075	0.121
-324.114	-200.000	0.026	0.204
-323.099	-26.221	0.363	-0.213
-322.085	125.300	-0.084	-0.105
-321.070	-9.498	0.129	0.085
-320.056	-200.000	0.009	-0.086
-319.041	-31.830	-0.192	-0.107
-318.026	-51.358	-0.330	-0.154
-317.012	116.012	0.112	0.137
-315.997	145.524	0.070	0.094
-314.983	53.523	0.173	-0.165
-313.968	-72.656	-0.282	0.104
-312.953	441.835	-0.063	-0.138
-311.939	-74.178	-0.229	-0.082
-310.924	-200.000	-0.055	-0.272
-309.910	200.510	0.234	0.358
-308.895	229.469	0.112	0.182
-307.880	-38.757	-0.367	-0.193
-306.866	473.512	-0.131	-0.293
-305.851	-95.764	0.131	0.035
-304.837	143.368	-0.108	-0.143
-303.822	51.331	0.092	-0.087
-302.807	-91.512	-0.238	-0.068
-301.793	200.191	0.091	0.140
-300.778	295.236	-0.060	0.110
-299.764	-82.653	-0.472	0.152
-298.749	-200.000	-0.021	0.205
-297.735	-200.000	0.022	-0.213
-296.720	-200.000	0.020	-0.331
-295.705	-109.603	-0.202	-0.042
-294.691	-122.232	0.264	-0.043
-293.676	210.638	0.183	-0.287
-292.662	41.370	-0.187	0.168
-291.647	-1.537	0.355	0.249
-290.632	-149.223	-0.312	0.025
-289.618	-29.075	0.278	0.159
-288.603	-115.700	-0.065	-0.012
-287.589	19.650	-0.054	-0.043
-286.574	46.843	-0.139	0.128
-285.559	-104.379	-0.095	0.022
-284.545	597.417	0.077	0.190
-283.530	259.462	-0.042	-0.073
-282.516	-35.032	-0.293	0.159
-281.501	-142.429	-0.194	0.019
-280.486	127.065	0.429	-0.541
-279.472	-136.714	-0.191	0.022
-278.457	87.446	-0.172	-0.189
-277.443	-2.656	0.206	-0.143
-276.428	737.915	0.008	0.021
-275.413	388.355	0.113	-0.233
-274.399	114.524	0.032	0.038
-273.384	-200.000	0.016	0.112
-272.370	-68.208	-0.274	0.106
-271.355	37.367	-0.099	0.087
-270.340	-77.041	-0.172	-0.060
-269.326	-102.054	0.184	-0.044
-268.311	-18.438	0.144	0.089
-267.297	34.097	-0.121	-0.105
-266.282	24.008	-0.006	-0.005
-265.267	-108.684	-0.025	0.005
-264.253	781.508	-0.086	-0.233
-263.238	86.790	0.173	0.189
-262.224	38.591	0.060	-0.053
-261.209	-135.215	0.163	0.019
-260.195	-100.120	-0.220	-0.054
-259.180	-200.000	-0.003	0.331
-258.165	-76.145	0.168	0.059
-257.151	245.165	0.072	0.121
-256.136	-27.192	-0.127	0.073
-255.122	454.590	0.095	-0.209
-254.107	-12.545	0.175	0.114
-253.092	-200.000	-0.042	0.276
-252.078	10.018	0.187	0.141
-251.063	-94.827	-0.198	-0.053
-250.049	-65.554	-0.332	-0.132
-249.034	-40.046	-0.131	0.068
-248.019	-200.000	0.005	-0.130
-247.005	63.896	0.297	0.297
-245.990	800.000	-0.014	-0.049
-244.976	-115.195	0.333	-0.063
-243.961	48.809	0.117	0.109
-242.946	-200.000	-0.078	0.404
-241.932	36.329	0.189	0.166
-240.917	600.483	0.161	0.398
-239.903	-127.532	0.469	-0.068
-238.888	257.868	-0.127	-0.218
-237.873	23.364	0.168	0.138
-236.859	-77.205	0.456	-0.158
-235.844	37.965	-0.223	0.197
-234.830	800.000	0.025	0.085
-233.815	-200.000	0.000	0.347
-232.800	481.613	0.163	0.367
-231.786	-65.105	0.255	-0.102
-230.771	17.322	0.232	0.183
-229.757	-13.556	-0.405	0.261
-228.742	-5.979	-0.159	0.108
-227.727	-33.350	0.125	0.068
-226.713	-85.845	0.392	0.121
-225.698	-80.185	-0.175	0.058
-224.684	211.048	0.174	-0.271
-223.669	800.000	0.063	-0.206
-222.655	49.001	0.375	-0.350
-221.640	-200.000	0.056	-0.274
-220.625	800.000	-0.045	-0.123
-219.611	-82.170	-0.133	-0.043
-218.596	9.791	-0.020	0.015
-217.582	-200.000	-0.065	0.361
-216.567	16.840	0.144	0.113
-215.552	19.805	0.082	-0.066
-214.538	90.841	0.198	-0.221
-213.523	-200.000	-0.038	-0.236
-212.509	-200.000	0.001	0.267
-211.494	12.054	-0.286	0.219
-210.479	-141.830	-0.166	0.016
-209.465	689.174	0.052	-0.135
-208.450	-130.255	-0.175	0.024
-207.436	-66.236	-0.061	0.024
-206.421	-133.067	-0.045	-0.006
-205.406	322.440	0.182	0.344
-204.392	348.211	0.028	-0.056
-203.377	800.000	0.034	-0.119
-202.363	-150.289	0.283	-0.022
-201.348	-115.665	0.227	0.042
-200.333	223.485	0.105	0.167
-199.319	166.422	-0.077	0.108
-198.304	354.935	0.087	-0.172
-197.290	234.551	0.100	0.164
-196.275	152.172	-0.084	0.113
-195.260	-84.882	-0.206	0.064
-194.246	-200.000	-0.032	-0.267
-193.231	-200.000	-0.058	-0.000
-192.217	-119.009	0.178	-0.031
-191.202	-122.382	-0.151	0.024
-190.187	-200.000	0.008	0.099
-189.173	372.310	-0.075	-0.150
-188.158	-133.606	0.103	-0.013
-187.144	-149.062	-0.167	-0.013
-186.129	109.382	0.115	-0.137
-185.114	142.182	0.194	0.255
-184.100	-51.919	0.254	-0.117
-183.085	116.495	-0.164	-0.200
-182.071	-200.000	-0.004	-0.185
-181.056	19.421	-0.138	-0.110
-180.042	-30.993	-0.067	-0.037
-179.027	-81.342	0.094	-0.031
-178.012	-66.718	0.202	-0.079
-176.998	45.659	-0.271	0.248
-175.983	27.104	0.317	-0.263
-174.969	270.033	0.144	0.251
-173.954	-26.627	-0.073	0.042
-172.939	14.459	0.255	0.197
-171.925	28.030	-0.193	-0.162
-170.910	-48.315	0.278	0.133
-169.896	-200.000	0.040	0.195
-168.881	163.071	-0.227	-0.316
-167.866	-95.208	0.147	-0.039
-166.852	7.768	-0.166	-0.123
-165.837	-200.000	-0.005	-0.050
-164.823	54.804	-0.075	0.071
-163.808	-1.170	0.235	0.164
-162.793	239.366	-0.057	-0.094
-161.779	800.000	0.006	0.027
-160.764	800.000	0.088	-0.293
-159.750	-76.475	0.150	0.052
-158.735	159.245	-0.073	-0.100
-157.720	-200.000	-0.045	0.247
-156.706	134.653	-0.165	-0.212
-155.691	209.782	0.074	-0.116
-154.677	258.521	0.093	0.159
-153.662	-50.247	-0.339	-0.159
-152.647	800.000	0.039	0.126
-151.633	-115.999	-0.448	0.083
-150.618	-103.677	-0.448	-0.104
-149.604	76.491	0.079	-0.083
-148.589	178.988	-0.100	-0.145
-147.574	553.807	0.214	0.510
-146.560	104.373	0.154	-0.180
-145.545	-13.345	-0.429	-0.275
-144.531	-42.921	0.119	-0.060
-143.516	624.339	0.062	-0.154
-142.502	175.968	0.061	0.088
-141.487	17.659	0.204	-0.160
-140.472	-168.787	-0.165	0.006
-139.458	130.027	0.114	0.145
-138.443	347.206	-0.092	0.179
-137.429	800.000	0.074	-0.218
-136.414	134.306	-0.026	0.033
-135.399	446.466	0.057	0.125
-134.385	473.807	-0.077	-0.172
-133.370	-16.871	0.132	0.083
-132.356	329.824	-0.052	0.100
-131.341	-132.042	0.255	0.033
-130.326	-8.043	0.170	0.114
-129.312	-200.000	-0.022	0.212
-128.297	-7.755	-0.248	-0.166
-127.283	295.470	-0.170	-0.307
-126.268	-38.799	-0.136	-0.071
-125.253	-23.076	-0.384	-0.229
-124.239	26.438	0.192	-0.159
-123.224	-200.000	-0.031	0.297
-122.210	-97.760	0.322	-0.082
-121.195	800.000	0.046	0.135
-120.180	-170.689	-0.493	0.017
-119.166	-198.877	-0.112	0.001
-118.151	-158.054	0.009	-0.001
-117.137	371.595	-0.132	0.265
-116.122	36.002	-0.174	-0.151
-115.107	193.702	0.141	-0.210
-114.093	-60.533	-0.055	-0.023
-113.078	-8.492	-0.380	0.253
-112.064	211.867	0.074	-0.115
-111.049	-191.093	-0.375	-0.004
-110.034	253.511	-0.055	0.092
-109.020	-200.000	-0.017	-0.174
-108.005	124.026	0.169	0.210
-106.991	-52.410	0.181	0.083
-105.976	-200.000	-0.044	0.383
-104.962	-10.487	0.044	-0.029
-103.947	77.345	0.173	-0.182
-102.932	-155.596	-0.116	-0.007
-101.918	248.850	-0.149	-0.249
-100.903	-75.563	0.046	0.016
-99.889	80.773	0.140	0.149
-98.874	-133.250	-0.159	0.020
-97.859	-200.000	-0.064	0.371
-96.845	-113.422	0.100	0.019
-95.830	-200.000	-0.005	0.183
-94.816	63.595	0.115	0.114
-93.801	113.168	0.327	0.392
-92.786	-171.721	0.210	-0.007
-91.772	800.000	-0.049	0.134
-90.757	-66.875	0.303	0.118
-89.743	215.197	-0.142	0.222
-88.728	54.142	-0.404	-0.384
-87.713	113.429	0.152	-0.182
-86.699	357.718	-0.042	0.083
-85.684	-8.060	-0.133	-0.088
-84.670	-118.622	-0.370	0.065
-83.655	-200.000	0.077	0.660
-82.640	-200.000	0.079	0.000
-81.626	527.286	-0.064	0.150
-80.611	-200.000	0.011	0.138
-79.597	-127.917	0.225	-0.032
-78.582	-10.295	0.051	0.033
-77.567	-101.544	0.440	0.106
-76.553	129.187	0.129	-0.163
-75.538	-200.000	-0.012	-0.236
-74.524	-52.742	0.147	-0.067
-73.509	800.000	-0.088	-0.251
-72.494	41.234	-0.118	0.106
-71.480	-116.920	-0.294	0.053
-70.465	32.630	-0.162	0.138
-69.451	-20.092	0.092	-0.056
-68.436	800.000	0.047	-0.198
-67.422	119.606	-0.052	0.063
-66.407	148.158	-0.242	-0.322
-65.392	-184.507	0.403	0.006
-64.378	87.148	-0.229	0.250
-63.363	800.000	-0.094	-0.280
-62.349	27.627	0.064	-0.054
-61.334	57.513	-0.806	-0.777
-60.319	166.745	0.331	0.463
-59.305	271.817	-0.612	-1.064
-58.290	171.626	0.480	0.680
-57.276	684.175	0.619	1.594
-56.261	-200.000	97.663	575.039
-55.246	631.797	1402.703	3502.609
-54.232	186.075	2617.187	3837.996
-53.217	114.884	2310.028	2778.259
-52.203	43.790	1921.584	1734.678
-51.188	37.425	1709.024	1494.014
-50.173	34.693	1664.149	1434.249
-49.159	51.775	1712.837	1606.693
-48.144	55.133	1729.975	1648.252
-47.130	37.214	1686.291	1472.309
-46.115	34.270	1671.342	1437.027
-45.100	34.069	1666.587	1431.373
-44.086	34.070	1663.398	1428.581
-43.071	34.073	1660.689	1426.219
-42.057	34.084	1658.440	1424.312
-41.042	34.135	1656.398	1422.889
-40.027	34.157	1654.160	1421.073
-39.013	34.135	1652.188	1419.155
-37.998	33.985	1651.445	1417.345
-36.984	34.132	1648.909	1416.203
-35.969	34.237	1647.930	1416.092
-34.954	34.329	1646.218	1415.249
-33.940	34.345	1644.206	1413.581
-32.925	34.277	1642.331	1411.408
-31.911	34.318	1640.166	1409.794
-30.896	34.216	1639.234	1408.182
-29.881	34.229	1637.578	1406.797
-28.867	34.248	1635.697	1405.271
-27.852	34.263	1634.101	1403.949
-26.838	34.270	1632.973	1402.976
-25.823	34.196	1631.726	1401.305
-24.809	34.363	1629.845	1400.863
-23.794	34.182	1628.735	1398.525
-22.779	34.290	1626.993	1397.761
-21.765	34.344	1625.781	1397.064
-20.750	34.242	1624.269	1394.961
-19.736	34.239	1622.742	1393.571
-18.721	34.361	1620.521	1392.503
-17.706	34.311	1618.852	1390.649
-16.692	34.222	1618.023	1389.232
-15.677	34.264	1616.268	1387.975
-14.663	34.256	1615.161	1386.908
-13.648	34.269	1613.830	1385.808
-12.633	34.309	1612.035	1384.506
-11.619	34.293	1610.749	1383.229
-10.604	34.160	1609.290	1380.952
-9.590	34.270	1607.760	1380.384
-8.575	34.358	1606.831	1380.171
-7.560	34.300	1605.654	1378.681
-6.546	34.221	1604.365	1376.951
-5.531	34.322	1603.121	1376.557
-4.517	34.291	1601.816	1375.161
-3.502	34.285	1600.852	1374.230
-2.487	34.307	1599.370	1373.066
-1.473	34.078	1587.933	1361.552
-0.458	31.259	1568.351	1324.747
0.556	26.525	1567.806	1289.974
1.571	23.990	1591.788	1291.220
2.586	23.407	1605.137	1297.669
3.600	20.836	1552.590	1236.842
4.615	12.896	1443.490	1097.196
5.629	6.230	1380.204	1006.469
6.644	5.168	1371.624	993.365
7.659	4.979	1370.471	991.242
8.673	5.008	1369.197	990.420
9.688	5.045	1367.071	989.028
10.702	4.846	1364.498	985.820
11.717	8.183	1371.448	1011.954
12.731	15.690	1384.757	1069.609
13.746	19.557	1390.117	1098.302
14.761	18.708	1387.301	1090.583
15.775	17.601	1384.799	1081.497
16.790	16.500	1382.125	1072.339
17.804	15.635	1379.467	1064.702
18.819	15.183	1378.528	1061.022
19.834	15.006	1377.084	1058.696
20.848	14.717	1375.742	1055.742
21.863	14.484	1374.675	1053.357
22.877	14.459	1373.061	1051.871
23.892	14.378	1372.006	1050.457
24.907	14.331	1371.724	1049.853
25.921	14.469	1370.119	1049.399
26.936	14.452	1369.676	1048.865
27.950	14.440	1368.788	1048.016
28.965	14.547	1367.704	1047.763
29.980	14.510	1366.509	1046.521
30.994	14.639	1365.074	1046.142
32.009	14.799	1364.012	1046.234
33.023	14.668	1362.981	1044.533
34.038	14.620	1361.298	1042.853
35.053	14.580	1359.978	1041.498
36.067	14.609	1358.870	1040.737
37.082	14.690	1357.673	1040.234
38.096	14.621	1357.409	1039.512
39.111	14.554	1356.838	1038.564
40.126	14.515	1355.280	1037.035
41.140	14.481	1354.443	1036.092
42.155	14.307	1354.234	1034.760
43.169	14.312	1353.993	1034.516
44.184	14.314	1353.519	1034.075
45.199	14.326	1353.196	1033.813
46.213	14.353	1352.426	1033.300
47.228	14.442	1351.741	1033.237
48.242	14.539	1350.225	1032.585
49.257	14.505	1349.055	1031.387
50.271	14.441	1347.758	1029.910
51.286	14.540	1346.409	1029.402
52.301	14.523	1344.946	1028.089
53.315	14.296	1344.354	1026.143
54.330	14.251	1342.642	1024.469
55.344	14.380	1341.568	1024.355
56.359	14.365	1340.542	1023.388
57.374	14.313	1339.706	1022.335
58.388	14.309	1338.752	1021.494
59.403	14.220	1338.780	1020.882
60.417	14.242	1337.779	1020.161
61.432	14.324	1336.436	1019.549
62.447	14.191	1335.930	1018.256
63.461	14.141	1334.349	1016.657
64.476	14.191	1333.681	1016.367
65.490	14.097	1332.772	1015.009
66.505	14.135	1331.031	1013.827
67.520	14.235	1329.698	1013.330
68.534	14.245	1329.069	1012.822
69.549	14.239	1328.147	1011.991
70.563	14.203	1327.141	1010.914
71.578	14.182	1325.362	1009.346
72.593	14.146	1324.656	1008.497
73.607	14.054	1324.058	1007.399
74.622	14.070	1323.270	1006.806
75.636	14.089	1322.707	1006.404
76.651	14.056	1321.989	1005.567
77.666	14.109	1321.013	1005.058
78.680	14.139	1321.135	1005.240
79.695	14.147	1320.290	1004.558
80.709	14.252	1319.044	1004.158
81.724	14.254	1318.763	1003.865
82.739	14.376	1317.649	1003.663
83.753	14.371	1316.965	1003.025
84.768	14.453	1315.861	1002.589
85.782	14.544	1314.341	1001.887
86.797	14.506	1313.129	1000.644
87.812	14.400	1312.250	999.251
88.826	14.413	1311.378	998.578
89.841	14.555	1309.875	998.194
90.855	14.427	1308.798	996.519
91.870	14.548	1307.912	996.479
92.884	14.524	1307.269	995.758
93.899	14.585	1306.518	995.461
94.914	14.673	1305.862	995.401
95.928	14.559	1305.173	994.106
96.943	14.560	1304.510	993.518
97.957	14.573	1303.271	992.564
98.972	14.498	1302.466	991.418
99.987	14.402	1301.590	990.095
101.001	14.496	1300.569	989.785
102.016	14.525	1299.296	988.900
103.030	14.548	1298.535	988.371
104.045	14.500	1297.592	987.281
105.060	14.353	1296.471	985.473
106.074	14.353	1294.777	984.098
107.089	14.317	1293.551	982.867
108.103	14.317	1291.839	981.479
109.118	14.230	1290.791	980.081
110.133	14.265	1289.722	979.393
111.147	14.309	1288.129	978.355
112.162	14.311	1286.910	977.355
113.176	14.372	1285.614	976.637
114.191	14.385	1284.792	976.004
115.206	14.437	1283.079	974.921
116.220	14.357	1282.575	973.986
117.235	14.339	1281.313	972.837
118.249	14.191	1280.680	971.407
119.264	14.302	1278.972	970.668
120.279	14.321	1277.862	969.855
121.293	14.272	1277.202	968.982
122.308	14.261	1276.386	968.209
123.322	14.154	1274.749	966.262
124.337	14.245	1273.658	965.877
125.352	14.308	1272.324	965.146
126.366	14.260	1271.800	964.384
127.381	14.217	1270.789	963.284
128.395	14.091	1269.711	961.652
129.410	14.192	1268.541	961.265
130.424	14.348	1267.740	961.473
131.439	14.303	1267.152	960.683
132.454	14.274	1266.355	959.830
133.468	14.332	1265.272	959.256
134.483	14.314	1264.376	958.388
135.497	14.420	1262.936	957.820
136.512	14.409	1261.985	956.951
137.527	14.477	1260.879	956.420
138.541	14.454	1259.048	954.816
139.556	14.373	1258.284	953.689
140.570	14.571	1256.686	953.523
141.585	14.568	1255.375	952.428
142.600	14.657	1254.508	952.190
143.614	14.630	1253.540	951.220
144.629	14.574	1252.956	950.370
145.643	14.513	1251.701	948.988
146.658	14.584	1250.118	948.111
147.673	14.475	1248.810	946.412
148.687	14.414	1247.914	945.307
149.702	14.468	1246.093	944.146
150.716	14.460	1244.670	942.944
151.731	14.455	1243.774	942.149
152.746	14.499	1242.618	941.441
153.760	14.460	1241.590	940.356
154.775	14.500	1240.468	939.650
155.789	14.673	1239.139	939.532
156.804	14.620	1238.678	938.803
157.819	14.658	1237.411	937.974
158.833	14.714	1236.620	937.608
159.848	14.797	1235.184	936.901
160.862	14.755	1234.706	936.219
161.877	14.646	1233.538	934.642
162.892	14.496	1232.563	932.978
163.906	14.451	1232.010	932.229
164.921	14.536	1230.748	931.661
165.935	14.571	1229.949	931.172
166.950	14.588	1229.587	930.913
167.964	14.599	1228.875	930.350
168.979	14.680	1227.847	929.943
169.994	14.673	1227.461	929.529
171.008	14.714	1226.435	928.895
172.023	14.781	1225.372	928.380
173.037	14.814	1224.618	927.912
174.052	14.815	1223.969	927.343
175.067	14.687	1222.893	925.734
176.081	14.705	1221.431	924.647
177.096	14.597	1220.841	923.522
178.110	14.719	1219.864	923.373
179.125	14.838	1218.399	922.840
180.140	14.730	1217.623	921.575
181.154	14.807	1216.161	920.810
182.169	14.791	1215.072	919.818
183.183	14.848	1214.126	919.335
184.198	14.872	1212.974	918.511
185.213	14.933	1211.787	917.867
186.227	14.934	1210.342	916.695
187.242	14.990	1209.572	916.337
188.256	14.972	1208.792	915.569
189.271	15.000	1207.942	914.997
190.286	14.818	1206.706	912.984
191.300	14.658	1206.232	911.671
192.315	14.675	1205.160	910.874
193.329	14.598	1204.510	909.882
194.344	14.737	1203.663	909.921
195.359	14.821	1202.914	909.731
196.373	14.896	1202.559	909.789
197.388	14.870	1202.205	909.302
198.402	15.067	1201.597	909.832
199.417	15.124	1201.204	909.759
200.432	15.204	1200.436	909.535
201.446	15.098	1199.744	908.353
202.461	15.314	1198.278	908.332
203.475	15.174	1197.747	907.092
204.490	15.223	1195.965	905.928
205.504	15.106	1194.738	904.285
206.519	15.062	1194.122	903.504
207.534	15.129	1192.418	902.493
208.548	15.080	1191.697	901.604
209.563	15.137	1190.891	901.221
210.577	15.183	1190.055	900.760
211.592	15.218	1189.177	900.203
212.607	15.282	1188.466	899.926
213.621	15.311	1187.328	899.143
214.636	15.111	1186.686	897.505
215.650	15.276	1185.352	897.298
216.665	15.366	1184.592	897.126
217.680	15.369	1183.488	896.225
218.694	15.465	1182.844	896.172
219.709	15.445	1182.186	895.488
220.723	15.458	1180.955	894.543
221.738	15.444	1180.278	893.876
222.753	15.470	1179.742	893.533
223.767	15.347	1179.568	892.665
224.782	15.454	1178.518	892.361
225.796	15.517	1178.461	892.576
226.811	15.488	1177.036	891.263
227.826	15.471	1176.584	890.749
228.840	15.416	1175.798	889.782
229.855	15.487	1175.021	889.494
230.869	15.437	1174.116	888.463
231.884	15.478	1173.223	887.927
232.899	15.425	1172.302	886.870
233.913	15.356	1172.238	886.379
234.928	15.385	1171.058	885.561
235.942	15.504	1169.912	885.246
236.957	15.296	1169.595	883.832
237.972	15.315	1169.169	883.529
238.986	15.467	1168.223	883.536
240.001	15.400	1167.370	882.464
241.015	15.375	1166.779	881.804
242.030	15.464	1165.789	881.446
243.045	15.541	1165.180	881.314
244.059	15.578	1163.958	880.504
245.074	15.574	1163.492	880.053
246.088	15.613	1163.357	880.075
247.103	15.679	1161.717	879.102
248.117	15.697	1161.140	878.682
249.132	15.808	1160.268	878.525
250.147	15.868	1159.968	878.531
251.161	15.956	1159.324	878.425
252.176	16.043	1158.418	878.115
253.190	16.048	1157.854	877.635
254.205	16.023	1157.172	876.915
255.220	16.028	1156.496	876.349
256.234	16.044	1156.079	876.038
257.249	16.003	1155.504	875.315
258.263	16.055	1154.711	874.904
259.278	16.093	1153.753	874.296
260.293	16.061	1153.958	874.209
261.307	16.111	1153.178	873.802
262.322	16.160	1152.460	873.433
263.336	16.154	1151.896	872.895
264.351	16.208	1151.250	872.607
265.366	16.150	1150.546	871.698
266.380	16.226	1149.331	871.091
267.395	16.222	1148.511	870.373
268.409	16.185	1148.002	869.722
269.424	16.132	1147.378	868.899
270.439	16.241	1146.669	868.844
271.453	16.030	1146.282	867.388
272.468	16.102	1145.056	866.757
273.482	16.218	1144.175	866.609
274.497	16.051	1144.063	865.586
275.512	16.174	1142.884	865.249
276.526	16.132	1142.069	864.344
277.541	16.090	1141.335	863.495
278.555	16.194	1140.825	863.564
279.570	16.325	1140.190	863.677
280.585	16.467	1139.126	863.521
281.599	16.428	1137.954	862.357
282.614	16.333	1136.957	861.041
283.628	16.397	1136.020	860.583
284.643	16.289	1135.400	859.484
285.657	16.375	1134.651	859.278
286.672	16.301	1133.758	858.150
287.687	16.284	1132.921	857.358
288.701	16.341	1131.915	856.806
289.716	16.462	1131.072	856.707
290.730	16.441	1130.579	856.151
291.745	16.325	1130.020	855.063
292.760	16.436	1129.597	855.229
293.774	16.556	1128.413	854.867
294.789	16.526	1128.154	854.443
295.803	16.560	1127.311	853.900
296.818	16.561	1126.441	853.173
297.833	16.536	1125.442	852.211
298.847	16.504	1125.183	851.777
299.862	16.577	1124.326	851.421
300.876	16.503	1123.761	850.547
301.891	16.560	1123.558	850.607
302.906	16.656	1122.742	850.395
303.920	16.712	1121.833	849.912
304.935	16.703	1121.515	849.550
305.949	16.786	1120.853	849.390
306.964	16.829	1119.657	848.625
307.979	16.789	1118.956	847.816
308.993	16.870	1118.298	847.650
310.008	16.760	1117.991	846.793
311.022	16.760	1117.062	846.014
312.037	16.829	1116.028	845.500
313.052	16.776	1114.827	844.248
314.066	16.841	1113.805	843.726
315.081	16.677	1113.361	842.495
316.095	16.663	1112.636	841.806
317.110	16.603	1112.193	841.099
318.125	16.704	1111.441	840.958
319.139	16.758	1110.644	840.544
320.154	16.698	1110.503	840.067
321.168	16.805	1109.494	839.758
322.183	16.749	1108.901	838.962
323.197	16.736	1108.121	838.229
324.212	16.824	1107.707	838.277
325.227	16.802	1106.941	837.517
326.241	16.774	1106.344	836.850
327.256	16.810	1105.663	836.441
328.270	16.738	1104.728	835.307
329.285	16.797	1103.786	834.809
330.300	16.819	1102.797	834.094
331.314	16.811	1101.777	833.209
332.329	16.808	1100.829	832.406
333.343	16.898	1099.909	832.077
334.358	16.964	1099.137	831.744
335.373	16.930	1098.507	831.027
336.387	17.053	1097.707	830.950
337.402	17.060	1096.357	829.888
338.416	17.047	1096.287	829.700
339.431	17.094	1095.493	829.256
340.446	17.133	1095.062	829.046
341.460	17.196	1094.487	828.844
342.475	17.260	1093.587	828.402
343.489	17.261	1092.788	827.725
344.504	17.198	1091.857	826.642
345.519	17.312	1091.114	826.561
346.533	17.376	1090.052	825.994
347.548	17.423	1089.220	825.518
348.562	17.371	1088.542	824.682
349.577	17.305	1087.756	823.694
350.592	17.101	1087.281	822.271
351.606	17.076	1086.694	821.634
352.621	17.090	1085.450	820.689
353.635	17.186	1084.949	820.699
354.650	17.290	1083.879	820.318
355.665	17.298	1083.198	819.768
356.679	17.218	1082.939	819.114
357.694	17.359	1081.821	818.875
358.708	17.406	1081.533	818.814
359.723	17.422	1080.972	818.394
360.738	17.300	1080.688	817.519
361.752	17.317	1080.020	817.023
362.767	17.350	1079.257	816.534
363.781	17.417	1078.550	816.246
364.796	17.443	1078.355	816.151
365.810	17.510	1077.609	815.836
366.825	17.666	1076.850	815.936
367.840	17.623	1076.727	815.562
368.854	17.715	1075.894	815.303
369.869	17.731	1075.225	814.798
370.883	17.698	1074.231	813.816
371.898	17.666	1073.430	812.984
372.913	17.618	1072.900	812.282
373.927	17.689	1072.604	812.322
374.942	17.773	1072.019	812.209
375.956	17.818	1071.135	811.682
376.971	17.660	1070.960	810.723
377.986	17.671	1070.408	810.289
379.000	17.723	1069.903	810.081
380.015	17.892	1069.282	810.340
381.029	17.937	1068.192	809.659
382.044	17.893	1068.042	809.264
383.059	17.789	1067.253	808.100
384.073	17.879	1066.181	807.642
385.088	17.975	1064.797	806.976
386.102	17.979	1064.263	806.521
387.117	17.933	1063.302	805.502
388.132	17.737	1062.346	803.786
389.146	17.779	1061.772	803.477
390.161	17.801	1061.487	803.292
391.175	17.779	1060.205	802.149
392.190	17.866	1059.812	802.188
393.205	17.963	1059.170	802.087
394.219	17.901	1058.432	801.170
395.234	18.006	1057.094	800.577
396.248	17.905	1056.330	799.455
397.263	17.900	1055.064	798.401
398.278	17.923	1054.906	798.321
399.292	17.821	1053.980	797.073
400.307	17.782	1053.393	796.376
401.321	17.800	1052.653	795.827
402.336	17.811	1051.864	795.212
403.350	17.763	1051.376	794.549
404.365	17.823	1050.839	794.352
405.380	17.968	1050.030	794.346
406.394	18.046	1049.212	794.019
407.409	18.059	1048.823	793.714
408.423	18.224	1047.708	793.565
409.438	18.178	1047.353	793.015
410.453	18.194	1046.432	792.321
411.467	18.168	1046.011	791.813
412.482	18.294	1045.095	791.631
413.496	18.455	1044.372	791.754
414.511	18.311	1044.083	790.802
415.526	18.377	1043.618	790.683
416.540	18.436	1043.058	790.463
417.555	18.439	1042.713	790.146
418.569	18.378	1041.942	789.210
419.584	18.498	1041.622	789.450
420.599	18.540	1040.772	788.930
421.613	147.883	1400.702	1790.427
422.628	135.203	1453.135	1790.544
