DTS Sentinel unit serial number:	SN413079Multiplexer serial number:	ORYXHardware model number:	OX4-SRSoftware version number:	ORYX F/W v4.00 Oryx Data Collector v3.7.2.0data status	okinstallation	princeton_trtdifferential loss correction	single-endedforward channel	channel 2reverse channel	N/Adate	2019/09/18time	10:43:35forward acquisition time	60.00reverse acquisition time	0.00gamma	496.2192k internal	0.2331k external	0.2331temperature offset calibration	0.9982default loss term (dB/km)	0.3790temperature slope calibration	1.0000multiplexer offset coefficient	1.0000multiplexer slope coefficient	1.0000fibre end	0.00T internal ref (°C)	28.80T ext. ref 1 (°C)	0.37T ext. ref 2 (°C)	25.45length (m)	temperature (°C)	Stokes	anti-Stokes-747.200	-31.886	0.034	0.019
-746.185	142.339	-0.076	0.102
-745.171	429.563	0.109	-0.238
-744.156	-118.644	-0.063	0.011
-743.142	-114.049	0.245	-0.048
-742.127	132.378	0.206	0.268
-741.112	233.089	-0.086	0.142
-740.098	39.449	-0.216	-0.195
-739.083	97.156	0.263	-0.304
-738.069	-200.000	0.002	-0.046
-737.054	-200.000	-0.004	0.040
-736.039	-71.401	-0.164	-0.062
-735.025	1.839	0.222	0.161
-734.010	-131.371	0.268	0.036
-732.996	800.000	0.074	-0.308
-731.981	-121.195	-0.243	0.041
-730.966	-87.165	-0.174	-0.053
-729.952	-146.995	-0.325	-0.028
-728.937	-165.007	0.316	0.014
-727.923	-86.959	-0.416	-0.128
-726.908	-75.073	-0.349	-0.125
-725.894	-124.600	-0.377	0.059
-724.879	-89.415	-0.166	-0.049
-723.864	-200.000	0.054	-0.241
-722.850	183.678	-0.211	0.314
-721.835	130.998	-0.186	-0.240
-720.821	-200.000	-0.042	0.198
-719.806	-75.417	0.263	0.094
-718.791	-200.000	-0.012	-0.074
-717.777	-130.137	-0.235	-0.032
-716.762	68.382	-0.200	0.206
-715.748	134.576	-0.139	-0.181
-714.733	29.510	-0.156	-0.134
-713.718	-200.000	0.035	-0.370
-712.704	-1.053	-0.151	-0.108
-711.689	-63.398	-0.170	0.071
-710.675	540.564	-0.092	-0.220
-709.660	25.575	0.164	0.137
-708.645	114.942	0.203	-0.249
-707.631	264.285	0.054	0.094
-706.616	140.254	-0.124	0.164
-705.602	-57.580	0.137	0.060
-704.587	279.802	-0.183	-0.328
-703.572	35.810	-0.114	-0.101
-702.558	-159.246	0.259	0.015
-701.543	-65.682	0.227	0.091
-700.529	-132.202	-0.098	0.013
-699.514	207.852	-0.113	0.177
-698.499	-200.000	-0.008	-0.277
-697.485	-140.211	-0.139	-0.015
-696.470	-24.552	0.079	-0.047
-695.456	95.012	0.269	0.307
-694.441	-200.000	-0.023	-0.190
-693.426	54.514	-0.234	-0.226
-692.412	16.700	-0.252	-0.200
-691.397	59.071	0.244	-0.241
-690.383	-6.141	-0.223	-0.153
-689.368	-140.428	0.334	-0.035
-688.354	-200.000	0.004	-0.054
-687.339	-138.867	-0.336	-0.037
-686.324	1.099	0.267	-0.193
-685.310	-19.192	-0.304	0.189
-684.295	297.464	-0.109	-0.200
-683.281	-97.640	0.302	-0.079
-682.266	112.620	-0.244	-0.297
-681.251	82.395	0.157	-0.171
-680.237	-126.902	0.280	0.041
-679.222	138.236	0.181	0.238
-678.208	74.624	-0.191	0.201
-677.193	-56.008	0.161	0.072
-676.178	92.849	0.068	0.078
-675.164	-80.094	0.147	-0.049
-674.149	800.000	0.043	-0.162
-673.135	279.968	0.015	-0.027
-672.120	-200.000	-0.020	-0.567
-671.105	-25.757	-0.144	-0.085
-670.091	29.850	-0.132	-0.113
-669.076	-200.000	-0.023	0.140
-668.062	-84.930	-0.109	-0.034
-667.047	-125.732	-0.426	0.065
-666.032	-28.093	-0.300	-0.174
-665.018	772.422	-0.096	-0.261
-664.003	483.697	-0.133	0.304
-662.989	-0.964	0.018	0.013
-661.974	-60.123	0.043	0.018
-660.959	-52.023	-0.093	-0.043
-659.945	800.000	0.098	0.359
-658.930	253.364	-0.140	-0.240
-657.916	254.826	-0.157	0.269
-656.901	271.255	-0.143	0.253
-655.886	-200.000	-0.006	-0.109
-654.872	-21.823	-0.080	0.049
-653.857	-189.907	0.231	-0.003
-652.843	800.000	-0.045	0.184
-651.828	44.933	0.076	0.070
-650.814	-87.441	-0.056	-0.017
-649.799	105.630	0.192	0.227
-648.784	800.000	-0.082	0.291
-647.770	-160.013	0.256	0.014
-646.755	234.582	-0.235	-0.389
-645.741	-51.976	0.041	0.019
-644.726	98.543	0.180	0.208
-643.711	49.124	-0.150	-0.142
-642.697	-200.000	0.065	0.287
-641.682	800.000	0.035	0.105
-640.668	-200.000	-0.025	0.167
-639.653	447.869	0.050	0.109
-638.638	50.276	-0.120	0.114
-637.624	-184.415	0.112	0.002
-636.609	207.486	0.018	0.028
-635.595	-103.445	-0.131	0.031
-634.580	-200.000	0.023	0.202
-633.565	205.237	0.062	-0.097
-632.551	104.309	-0.154	-0.182
-631.536	-200.000	-0.038	-0.314
-630.522	21.136	-0.285	-0.232
-629.507	32.721	0.135	-0.117
-628.492	-78.724	0.049	0.017
-627.478	-47.096	0.352	0.172
-626.463	-86.024	-0.239	-0.074
-625.449	71.118	-0.112	-0.116
-624.434	-90.693	0.130	-0.038
-623.419	-200.000	-0.017	0.149
-622.405	338.061	-0.140	0.272
-621.390	-25.457	-0.127	-0.075
-620.376	218.830	0.150	0.240
-619.361	-35.868	-0.068	-0.037
-618.346	-200.000	0.026	-0.212
-617.332	113.772	-0.077	-0.094
-616.317	59.738	-0.165	0.163
-615.303	279.857	-0.151	0.271
-614.288	-85.064	-0.361	0.113
-613.273	33.812	0.286	-0.249
-612.259	-114.328	-0.126	0.024
-611.244	-200.000	-0.037	0.310
-610.230	-96.498	0.112	-0.029
-609.215	286.375	-0.104	0.188
-608.201	111.601	-0.092	-0.111
-607.186	-200.000	0.006	-0.132
-606.171	121.417	-0.213	0.266
-605.157	186.499	-0.114	-0.170
-604.142	-51.850	0.221	0.103
-603.128	-150.574	0.212	-0.016
-602.113	800.000	-0.115	0.321
-601.098	-3.523	0.230	0.160
-600.084	800.000	0.054	-0.164
-599.069	368.220	0.148	0.300
-598.055	83.535	0.103	0.112
-597.040	-106.300	-0.113	-0.025
-596.025	-129.478	0.120	0.017
-595.011	-27.437	-0.286	0.167
-593.996	768.274	-0.068	0.185
-592.982	-92.562	-0.128	0.036
-591.967	362.566	-0.097	-0.196
-590.952	25.711	-0.153	-0.127
-589.938	-16.347	-0.185	-0.117
-588.923	135.765	0.130	-0.170
-587.909	-122.603	0.289	0.047
-586.894	229.312	-0.202	0.330
-585.879	-127.999	0.096	0.014
-584.865	-87.317	0.218	-0.066
-583.850	-139.308	0.248	-0.027
-582.836	-32.613	-0.352	0.196
-581.821	-139.090	-0.110	0.012
-580.806	-26.049	0.142	-0.083
-579.792	260.668	-0.160	-0.277
-578.777	-200.000	-0.011	-0.070
-577.763	-110.868	0.055	0.011
-576.748	389.714	-0.020	0.041
-575.733	220.287	-0.070	-0.112
-574.719	175.702	0.205	-0.297
-573.704	74.437	0.309	0.325
-572.690	-135.574	-0.257	-0.031
-571.675	-138.987	-0.402	-0.044
-570.661	175.712	0.043	-0.062
-569.646	-32.774	-0.102	-0.057
-568.631	800.000	0.055	-0.171
-567.617	-0.230	0.148	-0.105
-566.602	292.948	0.186	-0.339
-565.588	-16.909	0.089	0.056
-564.573	-78.073	-0.185	-0.064
-563.558	800.000	0.018	-0.064
-562.544	299.911	0.112	0.206
-561.529	75.783	-0.179	-0.189
-560.515	-195.374	-0.172	-0.001
-559.500	-200.000	0.030	0.161
-558.485	119.156	0.097	-0.120
-557.471	-74.821	-0.448	0.161
-556.456	-63.277	0.271	-0.111
-555.442	173.379	-0.216	0.311
-554.427	-200.000	0.007	-0.163
-553.412	13.728	-0.011	-0.009
-552.398	-74.633	-0.495	-0.178
-551.383	126.906	-0.046	-0.058
-550.369	173.224	-0.050	0.072
-549.354	405.757	-0.048	-0.101
-548.339	39.743	0.270	-0.242
-547.325	142.309	0.066	-0.088
-546.310	-139.855	0.204	0.022
-545.296	-10.453	-0.089	-0.059
-544.281	432.717	-0.121	-0.262
-543.266	444.799	-0.119	-0.260
-542.252	2.804	0.029	-0.021
-541.237	-200.000	-0.057	-0.283
-540.223	800.000	-0.071	-0.204
-539.208	800.000	-0.033	0.141
-538.193	-77.172	-0.121	-0.042
-537.179	0.162	-0.130	0.093
-536.164	83.292	-0.051	-0.056
-535.150	76.132	-0.176	0.186
-534.135	481.726	0.074	0.168
-533.121	509.751	0.178	-0.414
-532.106	-96.426	-0.299	-0.079
-531.091	-200.000	0.022	-0.098
-530.077	-137.727	-0.227	0.025
-529.062	-200.000	-0.036	0.454
-528.048	-31.945	0.478	-0.267
-527.033	-200.000	0.015	-0.409
-526.018	27.312	0.397	0.333
-525.004	10.852	0.130	0.099
-523.989	-82.789	-0.215	-0.069
-522.975	-14.147	-0.266	-0.171
-521.960	19.392	0.224	-0.179
-520.945	-154.618	-0.308	0.021
-519.931	-68.421	0.110	0.043
-518.916	-200.000	-0.045	-0.247
-517.902	-51.917	-0.230	0.107
-516.887	-103.724	-0.121	0.028
-515.872	374.791	-0.036	-0.073
-514.858	-60.385	0.254	0.108
-513.843	514.422	-0.190	0.443
-512.829	55.456	-0.064	0.062
-511.814	492.468	0.133	0.304
-510.799	-3.825	0.139	-0.097
-509.785	-86.214	0.235	0.072
-508.770	145.419	0.086	-0.115
-507.756	1.426	-0.096	0.069
-506.741	800.000	-0.083	0.297
-505.726	-11.025	-0.159	0.105
-504.712	-85.816	-0.079	-0.024
-503.697	-97.518	0.192	-0.050
-502.683	189.915	0.187	0.280
-501.668	-200.000	-0.011	0.131
-500.653	-200.000	0.035	0.300
-499.639	-48.394	-0.205	0.099
-498.624	-111.663	0.216	-0.044
-497.610	-200.000	-0.029	-0.272
-496.595	132.019	0.031	0.040
-495.581	800.000	-0.091	-0.301
-494.566	-97.756	-0.138	0.036
-493.551	-103.874	0.126	0.029
-492.537	-200.000	0.001	0.011
-491.522	347.186	0.134	0.263
-490.508	29.517	-0.276	0.234
-489.493	21.023	0.180	-0.145
-488.478	219.341	0.092	0.146
-487.464	-200.000	0.055	-0.274
-486.449	-115.221	-0.252	-0.048
-485.435	-97.680	-0.142	0.037
-484.420	-96.351	-0.345	0.091
-483.405	3.406	0.271	-0.196
-482.391	394.627	0.278	0.577
-481.376	-165.637	0.177	0.008
-480.362	-64.533	-0.299	-0.121
-479.347	202.494	0.160	0.247
-478.332	-200.000	0.007	0.129
-477.318	482.801	0.134	0.304
-476.303	-82.212	0.183	-0.059
-475.289	-108.782	-0.073	0.016
-474.274	-200.000	-0.010	0.263
-473.259	-48.213	0.454	-0.218
-472.245	800.000	0.138	-0.554
-471.230	-200.000	-0.003	0.277
-470.216	683.353	-0.108	-0.282
-469.201	248.548	-0.227	0.382
-468.186	-131.631	0.177	0.023
-467.172	208.132	-0.123	-0.192
-466.157	-200.000	0.238	-0.000
-465.143	-200.000	-0.026	-0.365
-464.128	32.736	0.175	-0.150
-463.113	-36.994	0.140	0.075
-462.099	-137.605	0.278	-0.031
-461.084	-200.000	0.003	-0.053
-460.070	63.969	0.295	-0.295
-459.055	-96.964	0.463	0.121
-458.040	800.000	-0.114	-0.452
-457.026	-84.724	0.247	0.078
-456.011	646.517	0.141	0.358
-454.997	117.928	0.065	-0.080
-453.982	-87.104	0.127	-0.039
-452.968	206.865	0.105	0.162
-451.953	-200.000	-0.056	0.277
-450.938	-48.318	-0.222	0.106
-449.924	-96.633	0.324	-0.085
-448.909	170.279	-0.038	-0.054
-447.895	45.020	0.165	0.151
-446.880	800.000	0.081	-0.243
-445.865	147.893	0.113	-0.152
-444.851	6.258	-0.208	-0.153
-443.836	180.072	0.162	0.236
-442.822	-48.454	-0.157	0.075
-441.807	-200.000	0.020	-0.373
-440.792	177.490	0.105	-0.152
-439.778	-200.000	-0.017	0.243
-438.763	-200.000	0.112	0.494
-437.749	158.184	-0.236	0.325
-436.734	-55.365	-0.261	0.117
-435.719	480.277	-0.033	-0.074
-434.705	-200.000	-0.032	-0.194
-433.690	800.000	0.088	-0.272
-432.676	186.859	-0.049	0.073
-431.661	-97.765	-0.105	0.027
-430.646	-125.880	0.326	-0.049
-429.632	54.123	-0.031	-0.030
-428.617	-86.734	0.497	0.151
-427.603	16.876	-0.368	-0.289
-426.588	520.830	0.040	0.093
-425.573	-200.000	0.008	0.079
-424.559	303.042	-0.096	-0.177
-423.544	-9.801	0.318	0.210
-422.530	-200.000	-0.309	-0.001
-421.515	-200.000	-0.042	-0.231
-420.500	-99.713	-0.203	0.051
-419.486	346.490	0.146	-0.285
-418.471	-18.421	-0.215	-0.134
-417.457	7.956	0.236	0.176
-416.442	447.575	-0.100	0.219
-415.428	800.000	-0.087	-0.299
-414.413	-46.871	0.249	-0.121
-413.398	126.773	-0.187	-0.235
-412.384	66.752	-0.215	-0.218
-411.369	-109.747	0.263	-0.055
-410.355	491.245	-0.079	0.180
-409.340	-133.442	0.352	0.044
-408.325	110.827	0.255	0.305
-407.311	-200.000	-0.010	-0.095
-406.296	689.639	-0.054	-0.140
-405.282	800.000	-0.046	-0.181
-404.267	-5.964	-0.320	0.217
-403.252	92.136	0.047	-0.053
-402.238	800.000	0.036	0.139
-401.223	-97.458	-0.073	-0.019
-400.209	290.889	-0.092	0.167
-399.194	34.223	-0.103	0.089
-398.179	-200.000	-0.036	0.263
-397.165	-200.000	0.018	0.192
-396.150	-200.000	-0.014	0.204
-395.136	-119.708	0.208	-0.036
-394.121	-200.000	-0.037	-0.179
-393.106	800.000	-0.020	-0.064
-392.092	-113.219	0.128	0.025
-391.077	-2.573	-0.199	-0.138
-390.063	-89.474	0.188	0.055
-389.048	-200.000	0.045	-0.416
-388.033	-23.007	-0.261	0.156
-387.019	245.737	-0.033	0.056
-386.004	-83.881	-0.116	-0.037
-384.990	-139.175	-0.374	-0.040
-383.975	5.613	0.155	-0.113
-382.960	-139.989	-0.287	-0.030
-381.946	-9.999	0.126	-0.083
-380.931	-200.000	0.073	-0.442
-379.917	18.475	0.222	-0.176
-378.902	436.448	0.095	0.206
-377.888	86.032	-0.157	-0.171
-376.873	-50.072	-0.245	0.115
-375.858	7.809	-0.065	-0.048
-374.844	471.052	0.048	0.108
-373.829	-126.995	0.229	-0.033
-372.815	-102.653	0.243	0.058
-371.800	-172.181	-0.253	0.008
-370.785	20.434	-0.043	0.034
-369.771	-200.000	-0.016	0.103
-368.756	244.278	0.010	0.017
-367.742	192.974	-0.342	0.513
-366.727	-29.124	0.113	-0.064
-365.712	-99.599	-0.038	-0.010
-364.698	99.488	-0.157	0.180
-363.683	-200.000	0.034	-0.274
-362.669	-52.290	0.376	0.173
-361.654	-133.384	-0.169	0.021
-360.639	-200.000	-0.019	-0.088
-359.625	-66.567	0.237	-0.093
-358.610	212.457	-0.072	0.113
-357.596	-200.000	0.010	0.179
-356.581	-9.237	-0.234	-0.155
-355.566	708.435	-0.059	0.155
-354.552	-47.172	-0.180	-0.087
-353.537	116.396	-0.162	-0.197
-352.523	-126.497	-0.131	-0.019
-351.508	-1.681	0.299	-0.209
-350.493	554.643	0.179	0.428
-349.479	-200.000	0.024	-0.185
-348.464	800.000	-0.059	0.235
-347.450	-200.000	0.028	0.161
-346.435	350.274	0.024	0.048
-345.420	-51.972	-0.234	-0.108
-344.406	-200.000	0.043	-0.386
-343.391	-100.522	-0.218	-0.054
-342.377	-200.000	0.007	0.105
-341.362	-35.744	-0.167	-0.089
-340.348	69.385	-0.054	0.055
-339.333	800.000	0.104	0.423
-338.318	-82.499	-0.220	0.071
-337.304	-200.000	-0.034	-0.218
-336.289	-170.654	0.177	-0.006
-335.275	152.936	-0.219	-0.296
-334.260	-128.974	-0.236	0.033
-333.245	-117.350	-0.008	0.001
-332.231	10.024	0.237	-0.179
-331.216	-200.000	0.005	0.090
-330.202	100.855	0.217	-0.250
-329.187	-61.848	0.277	-0.115
-328.172	-88.790	0.260	-0.077
-327.158	-154.148	-0.141	-0.009
-326.143	-200.000	-0.044	-0.263
-325.129	-156.425	-0.080	0.005
-324.114	-116.317	-0.274	0.050
-323.099	71.340	-0.082	-0.085
-322.085	-140.046	-0.028	-0.003
-321.070	336.767	-0.143	0.275
-320.056	-154.136	-0.286	0.019
-319.041	-23.535	0.127	-0.076
-318.026	-93.558	-0.356	0.098
-317.012	108.909	0.113	-0.134
-315.997	448.363	-0.078	-0.170
-314.983	195.165	-0.186	-0.280
-313.968	69.573	0.230	0.235
-312.953	-200.000	0.027	0.123
-311.939	-42.903	0.283	-0.142
-310.924	-86.392	-0.207	-0.063
-309.910	-200.000	-0.026	-0.123
-308.895	-3.363	-0.238	-0.164
-307.880	14.471	-0.105	0.081
-306.866	-77.815	0.166	0.057
-305.851	800.000	-0.077	0.212
-304.837	-196.040	0.137	0.001
-303.822	47.177	0.319	0.294
-302.807	-55.781	0.265	0.117
-301.793	-138.348	-0.102	-0.011
-300.778	471.100	-0.134	-0.297
-299.764	253.605	-0.056	-0.095
-298.749	-73.379	0.239	0.087
-297.735	-79.404	0.319	-0.107
-296.720	224.581	-0.072	-0.115
-295.705	-67.253	0.400	0.156
-294.691	-128.929	0.280	0.039
-293.676	800.000	0.076	-0.209
-292.662	-82.368	0.343	-0.110
-291.647	-127.889	0.162	-0.023
-290.632	-200.000	-0.000	0.031
-289.618	48.697	-0.181	0.168
-288.603	-19.790	0.165	0.101
-287.589	30.783	-0.180	-0.152
-286.574	-4.841	0.214	-0.146
-285.559	584.696	0.093	0.225
-284.545	77.222	-0.218	0.229
-283.530	-105.546	-0.380	-0.085
-282.516	419.211	0.028	0.060
-281.501	591.411	-0.042	0.102
-280.486	154.536	-0.301	0.409
-279.472	14.421	-0.202	0.156
-278.457	389.955	-0.033	-0.067
-277.443	-59.495	-0.102	-0.043
-276.428	205.729	-0.116	-0.179
-275.413	124.041	0.083	0.103
-274.399	800.000	-0.044	0.134
-273.384	-44.923	-0.267	0.131
-272.370	4.770	-0.278	-0.202
-271.355	800.000	-0.069	0.259
-270.340	19.644	0.245	-0.195
-269.326	800.000	-0.099	-0.291
-268.311	-32.302	-0.444	-0.245
-267.297	-77.346	-0.017	-0.006
-266.282	-86.642	0.074	-0.022
-265.267	209.597	0.163	0.252
-264.253	-200.000	-0.016	-0.237
-263.238	-19.125	-0.182	-0.112
-262.224	-136.663	-0.241	-0.028
-261.209	479.192	-0.154	-0.344
-260.195	-156.525	0.306	-0.019
-259.180	93.734	0.203	-0.227
-258.165	22.364	-0.205	0.165
-257.151	-73.940	-0.092	0.033
-256.136	91.948	-0.188	0.209
-255.122	-108.048	0.073	0.016
-254.107	800.000	0.048	-0.172
-253.092	176.861	-0.041	-0.059
-252.078	-112.778	-0.610	0.119
-251.063	-76.090	0.297	-0.104
-250.049	-200.000	-0.015	-0.077
-249.034	-77.588	0.117	0.040
-248.019	-26.210	0.241	0.140
-247.005	-52.615	0.104	0.047
-245.990	-42.708	-0.097	-0.049
-244.976	-200.000	-0.038	-0.338
-243.961	192.451	-0.036	-0.053
-242.946	-63.118	-0.443	-0.180
-241.932	65.606	0.075	0.075
-240.917	-53.166	0.411	-0.186
-239.903	243.821	-0.181	-0.299
-238.888	-200.000	0.004	0.145
-237.873	484.219	-0.039	0.088
-236.859	-103.134	0.082	-0.019
-235.844	-200.000	0.042	-0.257
-234.830	-200.000	-0.017	0.277
-233.815	-1.907	-0.121	0.084
-232.800	-18.166	0.190	-0.118
-231.786	-4.422	-0.096	-0.066
-230.771	794.880	0.080	-0.216
-229.757	-68.226	0.078	-0.030
-228.742	547.894	-0.080	-0.189
-227.727	129.350	0.153	0.193
-226.713	103.190	-0.087	0.100
-225.698	800.000	0.061	-0.214
-224.684	567.541	0.116	-0.278
-223.669	37.320	-0.315	-0.276
-222.655	-65.839	-0.420	0.166
-221.640	-70.339	-0.273	0.102
-220.625	328.888	-0.094	-0.178
-219.611	-2.996	-0.094	0.065
-218.596	6.499	0.090	0.066
-217.582	98.188	-0.104	0.118
-216.567	800.000	-0.038	-0.119
-215.552	-45.895	0.232	0.113
-214.538	-200.000	0.010	0.147
-213.523	-200.000	-0.012	0.186
-212.509	85.596	0.234	0.253
-211.494	-130.301	0.302	-0.040
-210.479	-36.498	-0.396	0.210
-209.465	-200.000	-0.014	0.350
-208.450	-18.895	-0.114	0.070
-207.436	-78.064	0.396	0.134
-206.421	217.891	0.139	-0.218
-205.406	115.853	-0.133	0.161
-204.392	-200.000	-0.424	0.002
-203.377	1.196	0.201	0.142
-202.363	800.000	0.054	0.152
-201.348	-136.664	0.283	0.032
-200.333	-17.834	-0.131	-0.081
-199.319	800.000	0.035	0.148
-198.304	554.748	0.079	0.187
-197.290	172.029	-0.102	0.144
-196.275	-53.811	0.258	0.116
-195.260	-200.000	-0.001	-0.238
-194.246	37.585	-0.115	0.101
-193.231	27.796	0.113	-0.094
-192.217	-66.392	-0.064	0.025
-191.202	481.318	0.120	-0.268
-190.187	-90.168	0.398	0.114
-189.173	-162.554	0.197	0.010
-188.158	-124.936	0.207	0.031
-187.144	-200.000	0.005	0.055
-186.129	156.892	0.080	-0.108
-185.114	-187.646	0.201	-0.003
-184.100	-109.036	0.103	0.022
-183.085	-136.337	-0.078	0.009
-182.071	114.145	0.123	0.147
-181.056	7.748	-0.234	0.173
-180.042	-20.407	0.090	-0.055
-179.027	-21.700	0.270	0.162
-178.012	126.223	-0.180	-0.224
-176.998	-41.822	-0.417	-0.210
-175.983	-52.244	0.228	-0.104
-174.969	-126.219	-0.220	-0.032
-173.954	-146.207	0.101	0.009
-172.939	-110.489	0.139	0.028
-171.925	-88.770	0.387	-0.113
-170.910	-146.172	0.251	-0.022
-169.896	19.635	0.168	-0.133
-168.881	-161.416	-0.352	-0.018
-167.866	-200.000	0.083	-0.358
-166.852	90.007	-0.172	-0.189
-165.837	55.704	0.175	0.167
-164.823	107.234	-0.039	0.046
-163.808	-12.783	-0.164	-0.105
-162.793	-68.758	0.072	-0.027
-161.779	-200.000	-0.032	0.245
-160.764	103.147	-0.215	-0.248
-159.750	-200.000	0.021	-0.111
-158.735	-200.000	-0.023	0.230
-157.720	800.000	0.159	0.447
-156.706	-120.941	0.183	-0.030
-155.691	-34.775	0.271	0.146
-154.677	-200.000	0.074	0.000
-153.662	-76.647	0.032	0.011
-152.647	-200.000	0.006	0.269
-151.633	-110.569	-0.055	0.011
-150.618	-184.113	0.203	0.003
-149.604	155.062	0.188	0.255
-148.589	-12.667	0.143	-0.092
-147.574	15.663	0.177	-0.136
-146.560	800.000	0.103	-0.312
-145.545	56.647	-0.276	-0.264
-144.531	-141.759	-0.335	-0.033
-143.516	-134.218	0.182	-0.022
-142.502	124.780	0.159	0.197
-141.487	800.000	0.145	0.534
-140.472	-90.655	0.206	0.059
-139.458	294.014	0.156	-0.281
-138.443	52.003	-0.486	-0.455
-137.429	138.051	-0.085	-0.109
-136.414	69.645	0.137	0.139
-135.399	179.964	0.068	-0.097
-134.385	800.000	0.026	0.098
-133.370	-30.909	-0.191	0.106
-132.356	2.605	0.181	-0.129
-131.341	60.894	-0.123	0.120
-130.326	800.000	0.038	0.129
-129.312	-137.087	-0.396	-0.044
-128.297	-84.698	0.257	0.079
-127.283	111.624	0.082	0.097
-126.268	653.628	-0.064	-0.160
-125.253	290.239	0.103	-0.183
-124.239	-200.000	-0.012	-0.081
-123.224	-74.919	-0.051	0.018
-122.210	310.241	-0.053	-0.098
-121.195	-191.575	0.526	-0.005
-120.180	800.000	-0.125	0.362
-119.166	800.000	-0.028	0.108
-118.151	800.000	0.021	-0.085
-117.137	-169.557	0.192	0.007
-116.122	-170.980	-0.371	-0.012
-115.107	-200.000	0.042	0.356
-114.093	-98.416	0.300	-0.075
-113.078	583.289	0.133	-0.320
-112.064	73.397	0.289	-0.297
-111.049	183.534	-0.286	0.415
-110.034	-23.923	-0.419	-0.246
-109.020	27.136	0.140	-0.116
-108.005	-200.000	0.008	0.186
-106.991	-101.434	0.118	-0.028
-105.976	-200.000	-0.025	-0.123
-104.962	-200.000	0.050	-0.371
-103.947	-112.257	0.110	-0.022
-102.932	-200.000	0.007	0.266
-101.918	157.384	0.139	0.189
-100.903	-10.025	0.147	0.096
-99.889	-200.000	-0.021	0.126
-98.874	63.884	-0.109	0.107
-97.859	-100.478	-0.208	0.051
-96.845	18.567	0.223	-0.175
-95.830	-115.551	-0.279	-0.051
-94.816	-103.017	-0.191	0.045
-93.801	-150.310	-0.127	-0.010
-92.786	12.060	-0.055	-0.042
-91.772	54.817	0.159	-0.151
-90.757	-69.657	0.312	-0.117
-89.743	180.262	0.076	-0.110
-88.728	114.588	-0.074	-0.089
-87.713	800.000	-0.082	-0.226
-86.699	-200.000	0.240	-0.001
-85.684	-81.293	-0.110	-0.036
-84.670	800.000	0.080	-0.249
-83.655	24.849	-0.367	0.298
-82.640	-92.873	-0.242	-0.066
-81.626	800.000	-0.047	0.182
-80.611	51.476	0.209	-0.195
-79.597	-129.639	-0.036	0.005
-78.582	-107.876	-0.318	-0.068
-77.567	-99.775	0.209	0.051
-76.553	-87.716	-0.218	-0.065
-75.538	-135.665	-0.253	-0.029
-74.524	96.609	-0.148	-0.167
-73.509	800.000	0.062	-0.186
-72.494	-193.007	0.290	0.003
-71.480	147.628	0.075	-0.099
-70.465	-200.000	-0.028	0.162
-69.451	-200.000	-0.046	-0.243
-68.436	-77.366	-0.376	-0.128
-67.422	-200.000	0.017	0.095
-66.407	170.834	-0.105	-0.148
-65.392	71.466	0.258	0.263
-64.378	800.000	0.057	0.173
-63.363	-48.394	0.369	-0.174
-62.349	645.519	-0.036	0.091
-61.334	374.239	-0.538	-1.073
-60.319	508.842	0.330	0.750
-59.305	464.655	-0.544	-1.193
-58.290	224.046	0.757	1.198
-57.276	188.064	1.014	1.485
-56.261	-200.000	108.583	580.741
-55.246	413.072	1521.080	3168.764
-54.232	139.211	2732.167	3520.954
-53.217	95.913	2333.019	2610.613
-52.203	37.547	1935.736	1682.517
-51.188	31.917	1721.439	1452.739
-50.173	29.350	1678.599	1397.106
-49.159	47.731	1732.394	1583.880
-48.144	47.862	1748.191	1599.266
-47.130	31.515	1705.568	1436.028
-46.115	28.786	1690.487	1402.475
-45.100	28.775	1685.149	1397.907
-44.086	28.698	1682.647	1395.190
-43.071	28.661	1680.041	1392.692
-42.057	28.555	1677.945	1390.096
-41.042	28.630	1675.615	1388.680
-40.027	28.654	1673.721	1387.239
-39.013	28.687	1671.656	1385.718
-37.998	28.672	1669.979	1384.162
-36.984	28.690	1668.597	1383.097
-35.969	28.744	1667.521	1382.557
-34.954	28.802	1665.991	1381.670
-33.940	28.833	1664.104	1380.280
-32.925	28.768	1662.780	1378.643
-31.911	28.888	1660.691	1377.757
-30.896	28.801	1659.048	1375.686
-29.881	28.823	1657.400	1374.431
-28.867	28.773	1655.956	1372.806
-27.852	28.849	1654.278	1371.928
-26.838	28.767	1652.911	1370.125
-25.823	28.829	1651.304	1369.201
-24.809	28.839	1650.101	1368.222
-23.794	28.805	1648.741	1366.788
-22.779	28.774	1647.317	1365.321
-21.765	28.803	1645.301	1363.813
-20.750	28.785	1643.913	1362.473
-19.736	28.856	1642.395	1361.690
-18.721	28.817	1640.991	1360.184
-17.706	28.841	1639.531	1359.100
-16.692	28.814	1637.816	1357.425
-15.677	28.821	1636.432	1356.274
-14.663	28.900	1635.187	1355.768
-13.648	28.778	1634.076	1353.897
-12.633	28.826	1632.346	1352.764
-11.619	28.756	1630.972	1351.058
-10.604	28.810	1628.925	1349.705
-9.590	28.808	1627.766	1348.671
-8.575	28.876	1626.828	1348.340
-7.560	28.886	1625.194	1347.004
-6.546	28.797	1624.453	1345.686
-5.531	28.810	1623.338	1344.809
-4.517	28.731	1622.217	1343.248
-3.502	28.799	1620.598	1342.349
-2.487	28.926	1619.364	1342.197
-1.473	28.793	1607.376	1331.250
-0.458	26.384	1588.355	1298.166
0.556	21.417	1590.302	1268.076
1.571	19.224	1614.594	1271.164
2.586	18.642	1627.063	1276.543
3.600	16.944	1573.129	1221.889
4.615	9.400	1460.335	1083.548
5.629	1.957	1395.916	987.600
6.644	0.509	1387.318	972.111
7.659	0.357	1386.249	970.293
8.673	0.309	1385.127	969.112
9.688	0.295	1383.454	967.770
10.702	0.118	1380.114	964.213
11.717	3.602	1385.902	990.558
12.731	11.619	1398.081	1050.907
13.746	16.459	1404.668	1086.957
14.761	16.919	1404.245	1089.494
15.775	16.329	1401.645	1083.595
16.790	15.265	1399.194	1074.784
17.804	14.601	1396.531	1068.395
18.819	14.094	1395.941	1064.607
19.834	13.871	1394.330	1061.852
20.848	13.618	1393.231	1059.306
21.863	13.399	1391.723	1056.671
22.877	13.205	1390.638	1054.514
23.892	13.104	1389.550	1052.949
24.907	13.128	1389.161	1052.717
25.921	13.177	1387.943	1052.009
26.936	13.165	1386.670	1050.877
27.950	13.202	1386.094	1050.581
28.965	13.289	1385.180	1050.348
29.980	13.228	1384.736	1049.531
30.994	13.241	1383.343	1048.469
32.009	13.428	1381.796	1048.389
33.023	13.348	1381.429	1047.506
34.038	13.343	1380.023	1046.316
35.053	13.341	1379.094	1045.511
36.067	13.290	1377.524	1043.907
37.082	13.266	1376.922	1043.205
38.096	13.447	1375.792	1043.399
39.111	13.371	1375.406	1042.529
40.126	13.287	1374.231	1041.023
41.140	13.174	1373.429	1039.611
42.155	13.149	1372.841	1038.918
43.169	13.123	1372.768	1038.604
44.184	13.150	1372.301	1038.331
45.199	13.264	1371.929	1038.670
46.213	13.152	1371.742	1037.737
47.228	13.226	1370.482	1037.155
48.242	13.196	1369.436	1036.081
49.257	13.228	1368.183	1035.241
50.271	13.343	1366.377	1034.507
51.286	13.313	1365.031	1033.210
52.301	13.306	1363.520	1031.928
53.315	13.180	1362.919	1030.596
54.330	13.214	1362.052	1030.064
55.344	13.165	1360.640	1028.597
56.359	13.268	1359.195	1028.054
57.374	13.176	1358.551	1026.907
58.388	13.148	1357.732	1026.020
59.403	13.023	1357.547	1025.016
60.417	13.175	1356.543	1025.107
61.432	13.048	1355.658	1023.562
62.447	13.172	1354.452	1023.331
63.461	13.041	1353.462	1021.679
64.476	13.037	1352.505	1020.841
65.490	13.116	1351.163	1020.225
66.505	13.048	1349.791	1018.682
67.520	13.066	1348.335	1017.601
68.534	13.076	1347.354	1016.834
69.549	13.132	1346.127	1016.162
70.563	13.076	1345.142	1014.986
71.578	13.114	1343.811	1014.121
72.593	13.089	1342.604	1012.967
73.607	13.003	1341.941	1011.856
74.622	13.115	1341.222	1011.906
75.636	13.026	1340.716	1010.894
76.651	13.147	1339.088	1010.318
77.666	13.048	1339.167	1009.678
78.680	13.212	1338.641	1010.194
79.695	13.085	1337.860	1008.742
80.709	13.065	1337.026	1007.898
81.724	13.109	1336.040	1007.336
82.739	13.133	1335.550	1007.025
83.753	13.224	1334.241	1006.500
84.768	13.128	1333.176	1005.026
85.782	13.242	1332.118	1004.834
86.797	13.229	1330.771	1003.646
87.812	13.234	1328.726	1002.050
88.826	13.112	1328.307	1000.903
89.841	13.123	1327.477	1000.257
90.855	13.363	1325.773	1000.337
91.870	13.285	1325.590	999.639
92.884	13.375	1324.071	998.944
93.899	13.350	1323.428	998.224
94.914	13.289	1323.031	997.466
95.928	13.337	1322.398	997.193
96.943	13.357	1321.159	996.288
97.957	13.273	1320.288	995.037
98.972	13.325	1318.830	994.163
99.987	13.346	1317.658	993.319
101.001	13.350	1316.722	992.547
102.016	13.249	1315.815	991.169
103.030	13.322	1315.022	990.924
104.045	13.322	1314.343	990.328
105.060	13.266	1312.818	988.752
106.074	13.292	1311.477	987.814
107.089	13.201	1310.025	986.086
108.103	13.136	1309.609	985.299
109.118	13.170	1308.010	984.209
110.133	13.168	1306.554	983.016
111.147	13.199	1305.181	982.079
112.162	13.171	1303.959	980.909
113.176	13.280	1302.829	980.615
114.191	13.235	1302.135	979.743
115.206	13.196	1301.017	978.583
116.220	13.262	1299.650	977.861
117.235	13.248	1298.556	976.869
118.249	13.290	1297.273	976.065
119.264	13.275	1295.801	974.778
120.279	13.176	1294.659	973.251
121.293	13.172	1294.060	972.692
122.308	13.245	1292.930	972.185
123.322	13.196	1291.843	970.997
124.337	13.209	1290.636	970.077
125.352	13.193	1289.562	969.091
126.366	13.159	1288.505	968.015
127.381	13.289	1287.315	967.793
128.395	13.249	1286.463	966.836
129.410	13.212	1285.731	965.981
130.424	13.260	1284.778	965.460
131.439	13.302	1283.538	964.686
132.454	13.305	1282.166	963.592
133.468	13.259	1281.648	962.847
134.483	13.283	1280.681	962.176
135.497	13.280	1279.268	961.010
136.512	13.281	1278.232	960.155
137.527	13.181	1277.148	958.675
138.541	13.197	1275.459	957.413
139.556	13.244	1274.052	956.543
140.570	13.349	1273.059	956.325
141.585	13.296	1271.766	954.962
142.600	13.304	1270.683	954.110
143.614	13.448	1269.382	953.878
144.629	13.482	1268.207	953.107
145.643	13.431	1267.393	952.118
146.658	13.431	1266.311	951.221
147.673	13.325	1264.731	949.340
148.687	13.352	1263.682	948.623
149.702	13.368	1262.294	947.587
150.716	13.387	1260.531	946.292
151.731	13.326	1259.465	945.055
152.746	13.327	1258.601	944.333
153.760	13.401	1257.744	944.027
154.775	13.344	1256.433	942.637
155.789	13.459	1255.174	942.264
156.804	13.561	1254.076	941.934
157.819	13.480	1253.181	940.716
158.833	13.462	1252.304	939.872
159.848	13.579	1251.096	939.551
160.862	13.553	1250.307	938.726
161.877	13.450	1249.163	937.200
162.892	13.539	1247.566	936.420
163.906	13.426	1247.225	935.443
164.921	13.423	1246.313	934.659
165.935	13.484	1245.410	934.246
166.950	13.602	1244.511	934.155
167.964	13.537	1243.904	933.247
168.979	13.643	1243.228	933.256
169.994	13.614	1242.200	932.241
171.008	13.685	1241.313	931.890
172.023	13.595	1240.856	930.958
173.037	13.687	1239.567	930.423
174.052	13.790	1238.288	929.960
175.067	13.594	1237.507	928.195
176.081	13.490	1237.189	927.292
177.096	13.578	1235.723	926.604
178.110	13.679	1234.969	926.519
179.125	13.735	1233.673	925.779
180.140	13.720	1232.045	924.390
181.154	13.686	1231.446	923.672
182.169	13.637	1230.166	922.356
183.183	13.762	1228.472	921.698
184.198	13.749	1227.690	920.955
185.213	13.773	1226.376	920.021
186.227	13.860	1225.284	919.605
187.242	13.895	1223.963	918.727
188.256	13.859	1223.052	917.760
189.271	13.866	1222.258	917.122
190.286	13.734	1221.177	915.500
191.300	13.667	1220.674	914.672
192.315	13.771	1219.500	914.287
193.329	13.681	1219.276	913.543
194.344	13.620	1218.883	912.831
195.359	13.678	1218.312	912.643
196.373	13.835	1217.162	912.565
197.388	13.823	1216.963	912.269
198.402	13.904	1216.470	912.262
199.417	14.018	1214.919	911.645
200.432	14.085	1214.582	911.678
201.446	14.034	1213.675	910.639
202.461	14.195	1212.607	910.633
203.475	14.096	1211.715	909.344
204.490	14.011	1210.709	908.047
205.504	14.022	1209.340	906.997
206.519	13.944	1208.437	905.817
207.534	14.073	1206.609	905.068
208.548	14.075	1205.940	904.496
209.563	14.128	1204.712	903.780
210.577	14.037	1204.365	902.946
211.592	14.111	1203.089	902.314
212.607	14.201	1202.594	902.347
213.621	14.245	1201.588	901.751
214.636	14.189	1200.470	900.534
215.650	14.159	1200.124	900.032
216.665	14.214	1199.052	899.446
217.680	14.219	1198.420	898.915
218.694	14.257	1197.747	898.535
219.709	14.238	1196.737	897.599
220.723	14.364	1195.768	897.472
221.738	14.242	1195.059	896.204
222.753	14.348	1194.289	896.115
223.767	14.294	1193.834	895.405
224.782	14.348	1193.180	895.124
225.796	14.400	1192.438	894.769
226.811	14.441	1192.014	894.593
227.826	14.427	1191.120	893.769
228.840	14.389	1190.143	892.748
229.855	14.425	1189.380	892.294
230.869	14.359	1188.785	891.411
231.884	14.541	1187.497	891.340
232.899	14.401	1186.445	889.725
233.913	14.255	1186.510	888.917
234.928	14.394	1185.626	888.917
235.942	14.461	1184.660	888.471
236.957	14.473	1183.960	887.932
237.972	14.519	1182.767	887.202
238.986	14.438	1182.817	886.729
240.001	14.361	1182.250	885.815
241.015	14.526	1181.233	885.852
242.030	14.506	1180.315	884.980
243.045	14.468	1179.453	884.055
244.059	14.484	1179.087	883.788
245.074	14.519	1177.908	883.007
246.088	14.574	1176.904	882.470
247.103	14.532	1176.152	881.607
248.117	14.617	1175.474	881.469
249.132	14.691	1174.644	881.160
250.147	14.729	1173.875	880.708
251.161	14.808	1173.182	880.526
252.176	14.769	1172.585	879.793
253.190	14.733	1172.207	879.240
254.205	14.812	1171.367	878.948
255.220	14.888	1171.152	879.109
256.234	14.953	1170.061	878.555
257.249	14.997	1169.029	877.931
258.263	14.914	1168.654	877.135
259.278	14.879	1168.136	876.487
260.293	14.968	1167.279	876.231
261.307	14.876	1167.225	875.634
262.322	15.046	1166.255	875.715
263.336	14.921	1165.880	874.704
264.351	14.944	1165.201	874.241
265.366	15.011	1164.565	874.034
266.380	15.115	1163.306	873.552
267.395	14.997	1162.723	872.423
268.409	15.024	1162.031	871.970
269.424	15.029	1161.342	871.401
270.439	14.966	1161.105	870.819
271.453	15.073	1159.975	870.447
272.468	15.043	1159.108	869.565
273.482	15.036	1158.409	868.926
274.497	15.074	1158.073	868.794
275.512	15.088	1156.981	867.973
276.526	15.198	1156.078	867.790
277.541	15.130	1155.322	866.793
278.555	15.178	1154.935	866.672
279.570	15.260	1154.137	866.421
280.585	15.358	1153.090	866.064
281.599	15.241	1152.334	864.819
282.614	15.243	1151.407	864.052
283.628	15.173	1150.734	863.115
284.643	15.305	1149.312	862.650
285.657	15.331	1148.442	862.053
286.672	15.266	1147.717	861.100
287.687	15.307	1146.644	860.427
288.701	15.309	1146.032	859.901
289.716	15.322	1145.496	859.492
290.730	15.371	1144.803	859.144
291.745	15.468	1143.880	858.871
292.760	15.470	1143.481	858.509
293.774	15.434	1142.617	857.601
294.789	15.516	1141.961	857.452
295.803	15.473	1141.575	856.866
296.818	15.424	1140.960	856.079
297.833	15.501	1139.902	855.600
298.847	15.570	1139.152	855.315
299.862	15.440	1138.768	854.288
300.876	15.602	1137.643	854.191
301.891	15.580	1137.021	853.535
302.906	15.645	1136.265	853.223
303.920	15.692	1135.804	853.038
304.935	15.652	1135.330	852.407
305.949	15.672	1134.198	851.583
306.964	15.773	1133.640	851.597
307.979	15.692	1132.935	850.586
308.993	15.697	1131.923	849.774
310.008	15.703	1131.104	849.115
311.022	15.699	1130.643	848.675
312.037	15.699	1129.797	847.962
313.052	15.722	1128.938	847.361
314.066	15.693	1127.648	846.171
315.081	15.704	1126.685	845.430
316.095	15.831	1125.955	845.445
317.110	15.622	1125.891	844.273
318.125	15.675	1124.886	843.709
319.139	15.618	1124.525	843.076
320.154	15.779	1123.198	842.816
321.168	15.809	1123.065	842.793
322.183	15.736	1122.523	841.944
323.197	15.843	1121.503	841.638
324.212	15.757	1120.938	840.709
325.227	15.749	1120.752	840.458
326.241	15.855	1119.671	840.101
327.256	15.928	1118.673	839.640
328.270	15.836	1117.549	838.269
329.285	15.900	1116.688	837.864
330.300	15.870	1115.880	837.036
331.314	15.900	1114.980	836.432
332.329	15.836	1114.291	835.525
333.343	15.904	1113.529	835.220
334.358	15.898	1112.515	834.352
335.373	15.993	1111.668	834.117
336.387	15.915	1111.374	833.433
337.402	15.963	1110.087	832.635
338.416	16.027	1109.739	832.617
339.431	16.079	1109.341	832.501
340.446	16.026	1108.572	831.588
341.460	16.149	1107.749	831.500
342.475	16.113	1107.257	830.883
343.489	16.195	1106.027	830.290
344.504	16.137	1105.149	829.272
345.519	16.139	1104.367	828.622
346.533	16.249	1103.604	828.515
347.548	16.224	1102.660	827.610
348.562	16.327	1101.990	827.541
349.577	16.241	1101.494	826.674
350.592	16.171	1101.035	825.910
351.606	16.141	1099.969	824.894
352.621	16.221	1099.505	824.863
353.635	16.300	1098.513	824.431
354.650	16.173	1098.091	823.420
355.665	16.168	1097.230	822.677
356.679	16.293	1096.440	822.624
357.694	16.307	1095.818	822.154
358.708	16.269	1095.354	821.548
359.723	16.424	1094.573	821.643
360.738	16.394	1093.851	820.882
361.752	16.341	1093.659	820.408
362.767	16.427	1092.880	820.169
363.781	16.393	1092.332	819.518
364.796	16.476	1091.679	819.358
365.810	16.497	1090.823	818.743
366.825	16.425	1090.593	818.153
367.840	16.484	1089.778	817.752
368.854	16.537	1089.513	817.739
369.869	16.703	1088.393	817.625
370.883	16.506	1087.937	816.260
371.898	16.544	1087.047	815.704
372.913	16.633	1086.432	815.597
373.927	16.762	1085.918	815.765
374.942	16.671	1085.096	814.634
375.956	16.639	1084.993	814.331
376.971	16.522	1084.694	813.474
377.986	16.800	1083.271	813.669
379.000	16.804	1082.900	813.339
380.015	16.827	1082.352	812.961
381.029	16.847	1081.665	812.472
382.044	16.935	1080.587	812.012
383.059	16.890	1080.069	811.334
384.073	16.933	1079.282	810.876
385.088	17.012	1078.181	810.355
386.102	16.884	1077.694	809.305
387.117	16.837	1076.413	808.049
388.132	16.782	1075.717	807.191
389.146	16.742	1075.057	806.435
390.161	16.780	1074.475	806.110
391.175	16.855	1073.561	805.710
392.190	16.886	1073.132	805.463
393.205	16.894	1072.669	805.084
394.219	17.007	1071.356	804.560
395.234	16.890	1070.539	803.323
396.248	16.907	1069.633	802.653
397.263	16.908	1068.606	801.815
398.278	17.009	1067.857	801.662
399.292	16.954	1067.497	801.060
400.307	16.925	1066.326	799.970
401.321	16.940	1066.063	799.775
402.336	16.922	1065.107	798.900
403.350	17.052	1064.418	798.925
404.365	17.011	1063.934	798.299
405.380	17.160	1063.025	798.246
406.394	17.074	1062.093	797.075
407.409	17.148	1061.557	796.948
408.423	17.105	1061.046	796.293
409.438	17.221	1060.389	796.271
410.453	17.201	1059.487	795.428
411.467	17.194	1058.963	794.933
412.482	17.236	1058.113	794.423
413.496	17.316	1057.297	794.112
414.511	17.412	1056.674	794.023
415.526	17.315	1056.686	793.510
416.540	17.351	1056.134	793.193
417.555	17.406	1055.559	792.946
418.569	17.452	1054.835	792.547
419.584	17.408	1054.245	791.830
420.599	17.302	1053.861	790.975
421.613	103.703	1326.725	1473.100
422.628	95.494	1366.421	1473.208
