DTS Sentinel unit serial number:	SN413079Multiplexer serial number:	ORYXHardware model number:	OX4-SRSoftware version number:	ORYX F/W v4.00 Oryx Data Collector v3.7.2.0data status	okinstallation	princeton_trtdifferential loss correction	single-endedforward channel	channel 2reverse channel	N/Adate	2019/09/19time	12:43:34forward acquisition time	60.00reverse acquisition time	0.00gamma	496.2192k internal	0.2333k external	0.2333temperature offset calibration	1.0019default loss term (dB/km)	0.3790temperature slope calibration	1.0000multiplexer offset coefficient	1.0000multiplexer slope coefficient	1.0000fibre end	0.00T internal ref (°C)	27.70T ext. ref 1 (°C)	0.90T ext. ref 2 (°C)	25.86length (m)	temperature (°C)	Stokes	anti-Stokes-747.200	-130.826	-0.242	0.033
-746.185	800.000	-0.034	0.098
-745.171	-134.979	0.269	0.033
-744.156	192.723	-0.115	-0.174
-743.142	282.283	0.038	0.068
-742.127	-74.551	-0.311	0.113
-741.112	-200.000	-0.037	0.208
-740.098	-164.072	0.198	-0.009
-739.083	-137.755	0.124	-0.014
-738.069	-196.542	-0.155	-0.001
-737.054	800.000	0.018	0.070
-736.039	-81.165	-0.382	0.127
-735.025	-182.749	0.294	-0.005
-734.010	-200.000	0.011	-0.172
-732.996	58.193	-0.209	-0.206
-731.981	-200.000	-0.024	-0.113
-730.966	-79.501	-0.021	0.007
-729.952	-30.538	-0.272	0.155
-728.937	-45.452	-0.203	0.101
-727.923	-28.157	0.234	0.136
-726.908	-56.257	0.216	-0.096
-725.894	616.146	-0.024	0.061
-724.879	375.754	0.059	-0.122
-723.864	-34.997	-0.118	-0.065
-722.850	-200.000	0.051	-0.281
-721.835	-25.356	0.248	-0.147
-720.821	-116.010	0.096	-0.018
-719.806	94.561	-0.233	-0.266
-718.791	-200.000	0.024	-0.229
-717.777	368.607	0.052	-0.106
-716.762	-200.000	0.006	-0.030
-715.748	373.954	-0.150	-0.306
-714.733	16.902	0.192	0.153
-713.718	-163.504	-0.352	-0.017
-712.704	737.984	0.163	0.439
-711.689	-19.755	-0.264	-0.164
-710.675	31.967	-0.069	0.059
-709.660	-200.000	0.035	-0.171
-708.645	-86.204	0.277	0.086
-707.631	-48.064	0.361	-0.175
-706.616	81.871	-0.117	0.127
-705.602	-189.810	-0.287	-0.003
-704.587	349.374	0.036	-0.072
-703.572	17.939	-0.121	-0.096
-702.558	163.878	-0.090	0.128
-701.543	704.938	-0.106	-0.280
-700.529	274.838	0.136	-0.242
-699.514	151.898	-0.050	-0.069
-698.499	-200.000	-0.022	-0.261
-697.485	-200.000	0.247	0.001
-696.470	129.547	-0.069	0.089
-695.456	800.000	0.067	-0.246
-694.441	1.739	0.047	0.034
-693.426	542.692	0.137	0.328
-692.412	-24.197	0.067	0.040
-691.397	-86.880	-0.230	-0.070
-690.383	-134.029	-0.078	0.010
-689.368	-200.000	-0.019	0.094
-688.354	-81.009	-0.100	-0.033
-687.339	-36.265	-0.159	0.086
-686.324	126.767	-0.072	0.091
-685.310	50.489	-0.118	0.112
-684.295	-17.955	0.046	0.029
-683.281	-83.712	0.067	-0.021
-682.266	-23.657	-0.197	-0.118
-681.251	227.101	-0.083	-0.136
-680.237	800.000	-0.034	0.133
-679.222	103.501	0.101	0.119
-678.208	-200.000	-0.002	-0.039
-677.193	350.456	0.061	-0.121
-676.178	-200.000	-0.017	0.133
-675.164	122.192	0.096	-0.120
-674.149	113.549	0.223	0.271
-673.135	128.130	0.118	-0.151
-672.120	80.918	-0.167	0.180
-671.105	-200.000	-0.009	0.235
-670.091	-114.525	0.100	-0.019
-669.076	-160.253	-0.148	0.008
-668.062	85.974	-0.149	-0.165
-667.047	-200.000	-0.027	0.147
-666.032	-22.354	0.401	0.243
-665.018	122.930	-0.167	0.210
-664.003	53.460	0.144	-0.138
-662.989	-37.692	-0.151	0.081
-661.974	761.131	-0.042	0.114
-660.959	800.000	0.040	0.123
-659.945	800.000	-0.008	0.030
-658.930	-200.000	-0.011	-0.213
-657.916	589.905	-0.049	-0.122
-656.901	-76.556	0.108	-0.038
-655.886	13.089	-0.105	0.081
-654.872	-200.000	-0.028	-0.328
-653.857	136.712	-0.028	-0.036
-652.843	-67.034	0.142	0.056
-651.828	210.681	0.113	-0.178
-650.814	508.934	-0.097	-0.225
-649.799	113.477	-0.046	-0.057
-648.784	-52.941	0.195	0.090
-647.770	-200.000	-0.021	0.193
-646.755	-117.914	-0.197	0.035
-645.741	-120.522	0.168	-0.029
-644.726	800.000	0.047	0.158
-643.711	152.976	-0.175	0.240
-642.697	182.677	0.223	-0.329
-641.682	-38.793	-0.208	-0.110
-640.668	-40.660	-0.143	0.074
-639.653	-108.732	0.444	-0.095
-638.638	-200.000	0.020	0.113
-637.624	-86.303	0.143	0.044
-636.609	800.000	0.051	-0.204
-635.595	342.270	0.156	-0.305
-634.580	44.366	-0.149	0.137
-633.565	-200.000	-0.041	-0.459
-632.551	40.157	-0.151	-0.136
-631.536	-200.000	0.104	-0.462
-630.522	26.991	0.435	-0.366
-629.507	34.762	0.236	-0.207
-628.492	-180.752	0.153	-0.003
-627.478	103.268	-0.119	0.139
-626.463	-200.000	-0.013	-0.070
-625.449	-48.168	0.153	0.074
-624.434	-34.560	-0.313	-0.172
-623.419	45.326	-0.248	-0.228
-622.405	11.190	0.181	-0.139
-621.390	-49.082	0.131	-0.063
-620.376	6.502	-0.187	0.139
-619.361	-123.575	0.060	0.009
-618.346	342.717	0.065	0.128
-617.332	-200.000	-0.308	-0.000
-616.317	360.783	-0.090	-0.181
-615.303	60.982	0.136	-0.135
-614.288	-183.222	0.288	-0.005
-613.273	-19.729	0.050	-0.031
-612.259	544.736	0.046	0.110
-611.244	206.401	0.099	-0.154
-610.230	-125.885	0.189	-0.029
-609.215	-25.320	0.287	-0.170
-608.201	-200.000	-0.033	-0.506
-607.186	-5.159	-0.206	-0.142
-606.171	461.977	0.142	0.318
-605.157	-105.596	-0.185	0.042
-604.142	32.684	0.088	-0.076
-603.128	130.689	-0.184	0.236
-602.113	-57.878	0.262	-0.115
-601.098	316.098	-0.111	0.210
-600.084	101.942	-0.040	0.047
-599.069	-13.092	-0.217	-0.141
-598.055	-104.358	0.293	0.068
-597.040	55.098	-0.145	0.140
-596.025	419.903	-0.125	0.267
-595.011	-89.193	-0.163	0.048
-593.996	-115.237	0.261	-0.049
-592.982	189.911	0.032	0.049
-591.967	84.144	-0.173	0.188
-590.952	54.341	-0.186	-0.179
-589.938	87.830	-0.235	-0.260
-588.923	-135.376	-0.268	0.032
-587.909	-200.000	-0.008	-0.104
-586.894	-177.681	-0.129	-0.003
-585.879	155.592	-0.207	-0.285
-584.865	-65.920	-0.112	-0.045
-583.850	21.304	-0.132	-0.107
-582.836	-80.832	0.402	0.133
-581.821	-200.000	-0.052	0.241
-580.806	154.356	0.085	-0.117
-579.792	800.000	-0.078	0.288
-578.777	189.322	-0.046	0.070
-577.763	-166.626	0.293	-0.012
-576.748	-200.000	0.053	-0.266
-575.733	-54.877	-0.258	0.116
-574.719	-130.387	-0.044	0.006
-573.704	170.353	0.201	0.288
-572.690	84.618	0.228	-0.249
-571.675	-200.000	0.020	-0.201
-570.661	154.372	-0.252	-0.346
-569.646	-200.000	-0.054	-0.317
-568.631	-65.678	0.108	-0.043
-567.617	72.472	0.111	0.116
-566.602	33.979	0.213	0.186
-565.588	66.263	-0.149	0.151
-564.573	492.848	-0.080	-0.183
-563.558	-135.214	-0.144	-0.017
-562.544	-91.366	0.191	-0.055
-561.529	18.412	-0.143	-0.114
-560.515	-103.318	0.147	0.035
-559.500	-17.334	0.201	0.126
-558.485	302.714	-0.114	-0.211
-557.471	-200.000	0.022	-0.245
-556.456	-48.352	0.159	0.076
-555.442	354.410	0.038	0.076
-554.427	-25.270	-0.325	0.192
-553.412	447.329	-0.105	0.230
-552.398	181.629	0.125	-0.183
-551.383	-30.970	-0.331	-0.187
-550.369	358.941	0.135	-0.268
-549.354	485.743	0.074	0.167
-548.339	-96.240	0.248	-0.066
-547.325	224.570	-0.017	-0.027
-546.310	-200.000	0.021	0.127
-545.296	-124.963	-0.086	0.013
-544.281	-127.123	-0.255	0.037
-543.266	44.974	0.086	0.079
-542.252	446.823	0.106	0.233
-541.237	-7.383	0.207	-0.140
-540.223	138.349	-0.076	-0.100
-539.208	22.655	-0.160	-0.131
-538.193	-200.000	0.002	-0.311
-537.179	-200.000	-0.016	-0.082
-536.164	116.016	-0.270	0.329
-535.150	-171.751	-0.040	0.001
-534.135	-15.155	0.204	0.130
-533.121	0.538	0.114	-0.081
-532.106	149.709	-0.066	-0.089
-531.091	-147.121	0.080	-0.007
-530.077	330.511	-0.055	0.106
-529.062	-16.022	0.048	0.030
-528.048	11.343	-0.281	0.214
-527.033	-200.000	-0.008	-0.231
-526.018	445.360	0.064	0.140
-525.004	54.244	0.206	0.197
-523.989	575.943	-0.139	0.339
-522.975	-126.413	-0.094	-0.014
-521.960	-109.525	-0.533	0.112
-520.945	-200.000	-0.017	0.291
-519.931	-87.370	0.237	0.072
-518.916	131.574	0.091	0.117
-517.902	-82.691	0.357	0.115
-516.887	28.973	0.243	0.205
-515.872	-100.719	-0.104	-0.026
-514.858	-35.277	0.186	0.101
-513.843	800.000	0.062	-0.214
-512.829	87.534	0.110	-0.121
-511.814	500.684	-0.117	-0.269
-510.799	-174.690	-0.377	0.011
-509.785	39.484	0.138	0.123
-508.770	800.000	0.022	0.095
-507.756	-158.588	0.171	0.010
-506.741	178.597	-0.162	0.235
-505.726	-200.000	0.017	-0.378
-504.712	-92.986	-0.086	-0.024
-503.697	265.242	0.016	0.028
-502.683	29.520	0.150	0.127
-501.668	107.300	-0.114	0.135
-500.653	69.494	0.081	0.083
-499.639	163.352	-0.148	0.207
-498.624	-90.425	-0.340	0.098
-497.610	-200.000	0.021	0.175
-496.595	359.819	0.096	-0.191
-495.581	410.866	-0.099	-0.208
-494.566	109.098	-0.120	0.142
-493.551	-51.303	-0.181	-0.084
-492.537	65.823	-0.082	0.082
-491.522	-200.000	-0.061	-0.414
-490.508	20.827	0.032	0.026
-489.493	-200.000	-0.057	0.336
-488.478	172.029	0.246	-0.352
-487.464	106.729	-0.110	0.130
-486.449	-168.907	-0.079	0.003
-485.435	-64.504	-0.341	-0.138
-484.420	-97.696	0.144	-0.037
-483.405	-64.609	0.296	-0.119
-482.391	101.371	-0.182	0.211
-481.376	-93.525	0.319	-0.088
-480.362	-200.000	-0.014	-0.199
-479.347	341.795	-0.053	0.104
-478.332	-96.960	-0.267	0.070
-477.318	-200.000	0.025	0.157
-476.303	-152.470	0.151	0.011
-475.289	-200.000	-0.044	0.263
-474.274	-118.667	0.288	-0.051
-473.259	-200.000	0.025	-0.464
-472.245	-22.765	0.346	0.208
-471.230	-200.000	-0.026	-0.279
-470.216	-128.270	-0.139	0.020
-469.201	469.528	0.163	0.365
-468.186	-64.958	-0.240	-0.097
-467.172	-200.000	-0.007	0.677
-466.157	-105.743	-0.063	-0.014
-465.143	-200.000	0.011	-0.131
-464.128	-49.208	0.240	0.114
-463.113	-96.062	-0.144	-0.038
-462.099	800.000	-0.084	0.310
-461.084	-13.585	0.162	-0.105
-460.070	90.535	-0.302	-0.336
-459.055	159.359	-0.183	0.254
-458.040	553.950	0.136	-0.326
-457.026	-106.762	0.386	0.085
-456.011	48.332	-0.233	0.217
-454.997	92.860	-0.118	-0.133
-453.982	63.293	-0.164	-0.163
-452.968	87.128	0.104	-0.115
-451.953	-84.981	0.139	-0.043
-450.938	653.592	-0.136	-0.346
-449.924	-67.953	-0.241	-0.094
-448.909	-44.198	-0.165	-0.082
-447.895	39.992	-0.330	-0.295
-446.880	59.093	-0.110	0.107
-445.865	83.129	-0.120	0.130
-444.851	-20.120	0.059	-0.036
-443.836	-61.687	0.163	-0.068
-442.822	-44.758	0.362	-0.180
-441.807	-83.496	-0.132	-0.042
-440.792	454.914	0.051	-0.113
-439.778	-200.000	-0.027	0.310
-438.763	185.266	0.044	0.065
-437.749	191.522	0.081	-0.121
-436.734	-200.000	-0.003	0.200
-435.719	-25.435	-0.084	-0.049
-434.705	-84.873	-0.072	-0.023
-433.690	-200.000	-0.042	0.217
-432.676	-132.818	0.201	0.026
-431.661	-97.596	0.252	-0.065
-430.646	800.000	0.019	-0.074
-429.632	-29.308	-0.220	-0.125
-428.617	-126.817	-0.398	-0.058
-427.603	800.000	-0.050	0.140
-426.588	-124.229	0.237	0.037
-425.573	187.022	0.320	0.474
-424.559	-37.868	-0.121	0.064
-423.544	179.047	0.223	0.324
-422.530	-28.325	0.078	-0.045
-421.515	39.658	-0.270	-0.241
-420.500	73.583	-0.100	-0.104
-419.486	-77.769	0.144	0.050
-418.471	-200.000	-0.012	0.178
-417.457	800.000	-0.096	0.273
-416.442	446.304	-0.075	0.164
-415.428	204.313	0.092	0.142
-414.413	494.443	-0.040	-0.090
-413.398	-134.020	0.237	-0.029
-412.384	-200.000	0.036	0.204
-411.369	-200.000	0.004	0.152
-410.355	-200.000	-0.034	-0.375
-409.340	-56.887	0.338	-0.148
-408.325	-200.000	0.036	0.000
-407.311	307.785	-0.089	-0.165
-406.296	-71.486	0.084	0.031
-405.282	-200.000	-0.028	0.254
-404.267	-89.486	-0.292	-0.085
-403.252	-200.000	-0.010	-0.123
-402.238	-200.000	-0.030	0.227
-401.223	157.049	0.096	0.132
-400.209	-97.677	0.075	0.019
-399.194	345.902	-0.070	-0.137
-398.179	-63.586	-0.185	-0.075
-397.165	-200.000	-0.037	0.179
-396.150	28.452	-0.216	-0.181
-395.136	8.970	-0.242	0.181
-394.121	96.362	-0.187	0.212
-393.106	133.316	0.182	0.233
-392.092	-3.465	0.071	-0.049
-391.077	-130.379	-0.185	0.025
-390.063	139.148	-0.098	-0.128
-389.048	-200.000	-0.016	-0.217
-388.033	-87.851	-0.391	0.117
-387.019	800.000	0.093	0.300
-386.004	29.197	-0.165	0.139
-384.990	539.339	-0.097	0.230
-383.975	-59.614	-0.388	0.165
-382.960	-200.000	-0.025	-0.265
-381.946	-72.836	-0.379	-0.138
-380.931	-88.767	0.177	0.052
-379.917	-64.183	-0.081	0.033
-378.902	367.414	-0.033	-0.066
-377.888	165.977	-0.199	0.279
-376.873	319.905	-0.047	0.089
-375.858	-65.230	-0.256	-0.102
-374.844	-200.000	0.050	-0.381
-373.829	426.382	0.132	-0.281
-372.815	5.734	0.167	-0.122
-371.800	800.000	0.068	0.233
-370.785	-41.683	0.241	0.122
-369.771	800.000	0.023	0.077
-368.756	190.523	-0.049	-0.073
-367.742	-66.654	0.086	0.034
-366.727	423.087	-0.051	0.109
-365.712	800.000	-0.044	0.171
-364.698	58.347	-0.224	0.217
-363.683	447.712	-0.068	0.148
-362.669	535.024	0.072	-0.170
-361.654	-175.538	0.370	-0.010
-360.639	11.340	-0.174	-0.132
-359.625	-200.000	0.004	0.216
-358.610	-200.000	0.034	0.175
-357.596	800.000	0.044	-0.162
-356.581	216.097	-0.177	0.279
-355.566	584.657	0.063	0.152
-354.552	-17.801	-0.081	-0.051
-353.537	79.394	-0.136	-0.145
-352.523	640.770	0.092	-0.232
-351.508	-104.549	-0.120	-0.027
-350.493	-34.074	0.129	-0.070
-349.479	-45.988	0.249	-0.122
-348.464	-200.000	0.027	-0.174
-347.450	34.074	0.156	0.135
-346.435	209.564	-0.143	-0.222
-345.420	128.833	0.296	0.373
-344.406	58.928	0.200	-0.194
-343.391	-200.000	0.006	0.266
-342.377	35.451	-0.163	-0.142
-341.362	-200.000	0.003	-0.089
-340.348	91.918	-0.168	0.187
-339.333	800.000	0.030	-0.084
-338.318	-35.030	-0.113	-0.061
-337.304	-114.069	0.118	-0.023
-336.289	-82.579	-0.124	-0.040
-335.275	97.098	-0.223	-0.253
-334.260	-94.674	0.207	-0.056
-333.245	724.937	0.056	0.147
-332.231	-78.332	-0.100	-0.034
-331.216	-163.440	0.331	-0.016
-330.202	-86.913	0.456	0.138
-329.187	182.272	0.093	-0.136
-328.172	51.695	0.444	-0.417
-327.158	390.424	0.234	0.480
-326.143	81.937	-0.233	-0.250
-325.129	183.424	0.097	-0.142
-324.114	-67.792	0.306	0.118
-323.099	-59.165	0.279	-0.119
-322.085	-61.864	-0.443	-0.183
-321.070	54.320	-0.184	0.175
-320.056	-40.225	0.167	-0.086
-319.041	-200.000	0.002	-0.014
-318.026	415.380	-0.087	0.184
-317.012	183.558	0.136	0.198
-315.997	-200.000	0.021	-0.106
-314.983	-200.000	-0.049	-0.368
-313.968	204.130	-0.051	-0.077
-312.953	143.618	-0.158	0.208
-311.939	150.238	-0.234	0.313
-310.924	75.212	-0.146	0.152
-309.910	800.000	0.030	-0.116
-308.895	-30.060	0.300	-0.169
-307.880	-200.000	0.327	0.000
-306.866	-200.000	0.024	0.320
-305.851	-114.646	-0.223	0.042
-304.837	356.206	0.152	0.298
-303.822	-18.040	-0.168	-0.104
-302.807	64.780	0.089	0.088
-301.793	-200.000	0.020	-0.114
-300.778	109.461	-0.334	-0.395
-299.764	513.074	-0.059	-0.136
-298.749	-200.000	0.030	0.238
-297.735	-77.792	-0.134	0.046
-296.720	-200.000	0.025	0.116
-295.705	-6.950	-0.139	-0.093
-294.691	-148.071	-0.040	0.003
-293.676	140.517	-0.114	0.148
-292.662	-7.141	0.365	0.244
-291.647	-159.059	-0.416	0.023
-290.632	67.306	-0.072	0.072
-289.618	-200.000	0.001	-0.058
-288.603	-115.201	-0.263	0.049
-287.589	764.210	-0.159	0.427
-286.574	800.000	0.041	0.116
-285.559	-68.352	-0.220	-0.084
-284.545	-190.116	-0.054	0.001
-283.530	341.525	0.049	-0.095
-282.516	-200.000	-0.000	-0.283
-281.501	185.051	0.256	0.375
-280.486	28.044	-0.081	-0.068
-279.472	-200.000	-0.013	0.092
-278.457	800.000	-0.053	0.146
-277.443	-21.008	0.249	0.151
-276.428	-1.649	-0.118	-0.082
-275.413	80.842	-0.204	0.217
-274.399	169.611	-0.231	-0.326
-273.384	800.000	0.064	-0.176
-272.370	77.289	-0.197	-0.207
-271.355	-200.000	0.016	-0.087
-270.340	-115.429	0.205	-0.038
-269.326	347.451	-0.103	0.200
-268.311	246.705	0.089	0.148
-267.297	128.415	-0.180	0.226
-266.282	108.975	-0.126	-0.149
-265.267	-129.641	0.364	-0.050
-264.253	776.769	-0.027	-0.073
-263.238	316.695	-0.260	-0.485
-262.224	-93.072	0.290	-0.080
-261.209	-200.000	0.052	0.307
-260.195	-27.554	-0.155	0.089
-259.180	800.000	-0.041	0.160
-258.165	41.518	-0.107	-0.096
-257.151	221.152	-0.029	-0.046
-256.136	-4.360	-0.167	-0.114
-255.122	412.072	-0.043	-0.089
-254.107	-121.452	0.243	-0.040
-253.092	-156.323	0.166	-0.010
-252.078	-118.576	-0.166	0.029
-251.063	248.439	-0.063	-0.106
-250.049	-77.988	0.439	0.149
-249.034	-200.000	0.035	-0.153
-248.019	155.572	0.097	-0.132
-247.005	296.565	0.095	0.173
-245.990	-178.681	-0.092	0.002
-244.976	-23.232	0.239	0.142
-243.961	-200.000	-0.050	0.276
-242.946	-51.099	0.112	-0.052
-241.932	-123.966	0.299	0.046
-240.917	382.760	-0.121	0.246
-239.903	-75.590	-0.150	-0.053
-238.888	290.062	0.098	0.176
-237.873	-56.784	0.099	-0.043
-236.859	6.118	-0.109	-0.080
-235.844	-98.285	0.300	-0.076
-234.830	-11.799	-0.344	-0.222
-233.815	-164.540	0.143	-0.006
-232.800	-60.849	-0.309	-0.129
-231.786	-137.190	0.411	-0.046
-230.771	-68.292	0.194	-0.074
-229.757	-35.361	-0.261	0.140
-228.742	-65.904	-0.176	-0.069
-227.727	139.495	0.064	-0.082
-226.713	80.343	0.117	0.124
-225.698	-200.000	0.015	0.084
-224.684	800.000	0.052	0.212
-223.669	-104.886	-0.119	0.027
-222.655	-200.000	0.038	-0.254
-221.640	-200.000	0.001	-0.028
-220.625	-48.854	0.140	0.066
-219.611	-179.528	0.172	-0.004
-218.596	-200.000	0.045	0.214
-217.582	-11.600	0.034	-0.022
-216.567	4.087	0.131	0.094
-215.552	-200.000	-0.002	-0.143
-214.538	-99.402	0.069	0.017
-213.523	-115.262	-0.227	0.042
-212.509	-160.654	-0.286	0.015
-211.494	-76.810	-0.188	-0.065
-210.479	-65.191	-0.219	0.087
-209.465	39.023	0.236	-0.208
-208.450	-139.313	0.147	0.016
-207.436	800.000	0.051	0.160
-206.421	800.000	0.067	0.186
-205.406	-83.267	0.319	0.101
-204.392	-27.306	0.093	-0.054
-203.377	187.893	-0.064	-0.095
-202.363	-200.000	0.013	0.153
-201.348	-200.000	-0.057	-0.301
-200.333	191.701	0.170	-0.253
-199.319	455.633	-0.075	0.164
-198.304	-200.000	-0.005	-0.189
-197.290	-137.925	0.202	0.022
-196.275	-200.000	0.050	-0.223
-195.260	457.715	0.066	-0.144
-194.246	-78.377	-0.191	0.064
-193.231	-121.339	0.225	-0.037
-192.217	-10.259	-0.191	0.124
-191.202	89.393	-0.215	0.236
-190.187	53.219	0.320	-0.301
-189.173	698.969	0.061	-0.157
-188.158	10.464	0.217	-0.163
-187.144	-181.579	0.039	0.001
-186.129	-111.592	-0.195	0.039
-185.114	800.000	0.015	-0.050
-184.100	800.000	0.077	-0.214
-183.085	114.943	0.077	0.093
-182.071	506.741	0.150	0.342
-181.056	-200.000	-0.232	0.000
-180.042	-108.014	0.089	0.019
-179.027	137.196	0.251	0.323
-178.012	-200.000	-0.012	0.213
-176.998	-35.674	-0.232	-0.124
-175.983	208.974	0.068	-0.104
-174.969	93.702	-0.092	0.103
-173.954	422.919	0.095	-0.201
-172.939	-200.000	0.006	0.034
-171.925	-26.438	-0.033	0.019
-170.910	249.561	-0.179	0.298
-169.896	78.558	-0.196	0.206
-168.881	-16.945	-0.199	-0.123
-167.866	-100.668	0.113	-0.027
-166.852	-102.776	-0.087	0.020
-165.837	-200.000	0.012	-0.415
-164.823	-5.613	0.100	-0.067
-163.808	6.919	-0.392	0.287
-162.793	-146.330	0.193	-0.017
-161.779	-96.289	0.088	0.023
-160.764	-115.432	-0.187	0.035
-159.750	-152.183	0.308	0.022
-158.735	-40.467	-0.249	-0.127
-157.720	524.357	-0.090	-0.209
-156.706	140.114	0.168	0.218
-155.691	33.680	0.179	-0.153
-154.677	-152.169	0.525	0.037
-153.662	-47.219	-0.117	-0.056
-152.647	529.618	0.036	0.085
-151.633	-200.000	-0.031	-0.329
-150.618	267.484	0.066	0.113
-149.604	-113.653	0.131	0.025
-148.589	-8.787	-0.239	0.158
-147.574	445.206	-0.077	0.165
-146.560	17.643	-0.315	-0.246
-145.545	-75.698	-0.224	-0.078
-144.531	-20.474	0.328	-0.198
-143.516	-200.000	0.018	-0.106
-142.502	10.504	-0.223	0.167
-141.487	-200.000	0.002	-0.163
-140.472	184.961	0.182	0.266
-139.458	191.239	0.091	-0.134
-138.443	-88.587	-0.373	0.109
-137.429	112.830	0.065	0.077
-136.414	83.014	0.160	0.171
-135.399	-48.310	0.128	-0.060
-134.385	58.479	0.160	-0.155
-133.370	800.000	0.067	-0.194
-132.356	-151.888	0.180	0.013
-131.341	-49.602	-0.280	-0.131
-130.326	-200.000	-0.016	0.191
-129.312	350.208	-0.069	0.134
-128.297	141.477	0.057	0.074
-127.283	311.199	-0.236	-0.435
-126.268	-108.141	-0.087	0.018
-125.253	-105.156	0.164	-0.037
-124.239	-151.763	-0.158	0.011
-123.224	207.826	-0.071	0.109
-122.210	800.000	-0.088	0.286
-121.195	56.850	0.138	0.132
-120.180	-127.167	-0.246	0.035
-119.166	-200.000	-0.000	0.082
-118.151	800.000	0.109	-0.362
-117.137	-130.980	0.383	0.050
-116.122	422.766	-0.185	0.390
-115.107	-200.000	-0.013	0.301
-114.093	259.697	0.047	0.079
-113.078	1.356	-0.092	0.065
-112.064	115.997	0.194	0.233
-111.049	-200.000	-0.035	-0.170
-110.034	-200.000	0.029	0.200
-109.020	-98.498	-0.169	-0.042
-108.005	219.103	0.098	-0.154
-106.991	-200.000	-0.031	-0.140
-105.976	-3.269	-0.191	0.131
-104.962	627.748	-0.167	-0.415
-103.947	800.000	0.085	0.318
-102.932	-105.251	-0.223	-0.050
-101.918	-156.657	0.176	-0.011
-100.903	181.630	0.137	-0.198
-99.889	-16.795	0.172	0.107
-98.874	-65.269	-0.166	0.065
-97.859	-200.000	0.002	-0.105
-96.845	-168.626	0.263	-0.010
-95.830	-72.253	0.172	-0.063
-94.816	-72.609	0.147	-0.053
-93.801	-200.000	0.012	-0.118
-92.786	335.695	0.051	0.098
-91.772	240.326	-0.118	0.193
-90.757	800.000	-0.025	-0.097
-89.743	-200.000	-0.001	0.223
-88.728	-109.075	-0.122	-0.026
-87.713	-26.017	0.268	0.154
-86.699	293.096	-0.105	0.187
-85.684	448.663	-0.032	0.069
-84.670	46.022	-0.197	-0.179
-83.655	-200.000	0.024	-0.268
-82.640	97.901	0.117	-0.132
-81.626	129.025	0.158	0.197
-80.611	80.448	-0.057	-0.060
-79.597	-200.000	-0.031	0.220
-78.582	520.608	-0.131	0.302
-77.567	800.000	0.037	-0.126
-76.553	14.353	-0.156	-0.119
-75.538	-110.690	-0.250	-0.051
-74.524	114.231	0.172	-0.204
-73.509	66.618	0.178	-0.177
-72.494	-121.408	0.128	0.021
-71.480	295.021	-0.109	-0.195
-70.465	447.904	-0.126	0.271
-69.451	-130.680	-0.155	-0.020
-68.436	-61.135	-0.274	0.113
-67.422	800.000	0.118	-0.405
-66.407	188.115	0.117	-0.171
-65.392	-69.148	-0.148	0.056
-64.378	-158.311	-0.182	-0.010
-63.363	-153.158	-0.203	-0.014
-62.349	68.206	-0.242	0.243
-61.334	72.678	-0.967	-0.988
-60.319	21.979	0.614	0.490
-59.305	800.000	-0.236	-0.851
-58.290	299.248	0.721	1.300
-57.276	385.273	0.724	1.462
-56.261	-200.000	110.288	601.544
-55.246	415.221	1535.569	3202.362
-54.232	138.584	2742.334	3523.389
-53.217	95.753	2336.595	2609.984
-52.203	37.014	1933.962	1674.370
-51.188	30.954	1718.360	1440.969
-50.173	28.314	1675.727	1385.227
-49.159	48.432	1730.931	1585.993
-48.144	48.157	1745.600	1597.266
-47.130	30.542	1702.441	1424.239
-46.115	27.781	1687.931	1391.032
-45.100	27.666	1682.289	1385.460
-44.086	27.630	1680.110	1383.333
-43.071	27.598	1677.090	1380.551
-42.057	27.518	1675.051	1378.209
-41.042	27.557	1672.839	1376.632
-40.027	27.478	1671.247	1374.674
-39.013	27.530	1668.988	1373.152
-37.998	27.507	1667.503	1371.703
-36.984	27.575	1665.957	1370.882
-35.969	27.655	1664.305	1370.072
-34.954	27.766	1662.702	1369.533
-33.940	27.680	1661.450	1367.801
-32.925	27.671	1659.388	1365.982
-31.911	27.679	1657.726	1364.620
-30.896	27.640	1656.358	1363.150
-29.881	27.742	1653.950	1361.875
-28.867	27.748	1652.494	1360.668
-27.852	27.652	1651.117	1358.762
-26.838	27.624	1649.496	1357.168
-25.823	27.705	1648.177	1356.628
-24.809	27.714	1647.617	1356.180
-23.794	27.794	1645.055	1354.613
-22.779	27.769	1644.109	1353.594
-21.765	27.691	1642.428	1351.579
-20.750	27.695	1640.936	1350.330
-19.736	27.669	1640.090	1349.386
-18.721	27.855	1638.253	1349.192
-17.706	27.804	1636.547	1347.357
-16.692	27.749	1634.920	1345.561
-15.677	27.746	1633.821	1344.584
-14.663	27.791	1632.326	1343.628
-13.648	27.730	1631.270	1342.255
-12.633	27.763	1629.787	1341.224
-11.619	27.650	1628.008	1338.879
-10.604	27.708	1626.549	1338.048
-9.590	27.753	1625.189	1337.212
-8.575	27.776	1623.735	1336.127
-7.560	27.792	1622.749	1335.384
-6.546	27.758	1621.343	1333.925
-5.531	27.761	1620.928	1333.550
-4.517	27.785	1619.389	1332.409
-3.502	27.778	1618.018	1331.174
-2.487	27.826	1616.949	1330.595
-1.473	27.852	1605.746	1321.512
-0.458	25.794	1587.163	1291.422
0.556	21.537	1589.039	1261.775
1.571	19.111	1612.244	1262.317
2.586	18.069	1624.369	1263.998
3.600	16.176	1569.532	1207.674
4.615	9.085	1458.541	1074.845
5.629	2.357	1395.554	985.122
6.644	0.924	1387.912	970.461
7.659	0.993	1386.044	969.508
8.673	0.834	1385.422	967.969
9.688	0.839	1383.942	966.880
10.702	0.580	1380.709	962.888
11.717	3.755	1384.757	985.906
12.731	10.953	1395.706	1039.764
13.746	16.153	1402.874	1078.337
14.761	17.319	1403.358	1086.068
15.775	16.804	1401.499	1081.251
16.790	15.836	1399.013	1073.068
17.804	15.053	1396.824	1066.307
18.819	14.602	1395.516	1062.340
19.834	14.321	1394.393	1059.608
20.848	14.096	1392.987	1057.012
21.863	13.800	1391.941	1054.247
22.877	13.687	1390.475	1052.325
23.892	13.637	1389.124	1050.894
24.907	13.594	1388.758	1050.253
25.921	13.537	1388.107	1049.302
26.936	13.589	1386.949	1048.663
27.950	13.737	1385.386	1048.324
28.965	13.716	1384.243	1047.236
29.980	13.879	1383.428	1047.553
30.994	13.848	1382.679	1046.696
32.009	13.965	1381.636	1046.554
33.023	13.926	1380.460	1045.324
34.038	13.850	1379.564	1044.078
35.053	13.846	1378.129	1042.876
36.067	13.768	1377.451	1041.778
37.082	13.808	1376.398	1041.140
38.096	13.792	1376.079	1040.704
39.111	13.862	1374.833	1040.109
40.126	13.718	1374.175	1038.616
41.140	13.608	1373.356	1037.220
42.155	13.685	1372.708	1037.118
43.169	13.689	1372.914	1037.212
44.184	13.728	1372.077	1036.731
45.199	13.677	1371.919	1036.198
46.213	13.679	1371.742	1035.985
47.228	13.698	1370.542	1035.109
48.242	13.688	1369.555	1034.208
49.257	13.639	1368.214	1032.798
50.271	13.770	1366.090	1031.918
51.286	13.834	1364.637	1031.128
52.301	13.704	1363.598	1029.440
53.315	13.736	1362.599	1028.795
54.330	13.684	1361.717	1027.715
55.344	13.691	1360.260	1026.567
56.359	13.670	1359.047	1025.434
57.374	13.573	1358.548	1024.364
58.388	13.672	1357.158	1023.842
59.403	13.638	1357.027	1023.441
60.417	13.645	1356.226	1022.791
61.432	13.581	1355.526	1021.777
62.447	13.453	1355.012	1020.510
63.461	13.470	1353.536	1019.411
64.476	13.604	1352.587	1019.433
65.490	13.591	1350.750	1017.878
66.505	13.565	1349.409	1016.616
67.520	13.588	1348.404	1015.913
68.534	13.640	1347.010	1015.090
69.549	13.606	1346.140	1014.136
70.563	13.600	1345.291	1013.372
71.578	13.616	1343.784	1012.245
72.593	13.435	1343.198	1010.605
73.607	13.514	1342.041	1010.128
74.622	13.532	1341.291	1009.586
75.636	13.568	1340.241	1008.925
76.651	13.468	1339.918	1007.980
77.666	13.457	1339.394	1007.434
78.680	13.500	1338.519	1006.949
79.695	13.484	1337.637	1006.098
80.709	13.595	1336.582	1005.887
81.724	13.535	1335.979	1004.982
82.739	13.652	1334.796	1004.710
83.753	13.656	1333.933	1003.998
84.768	13.705	1332.643	1003.234
85.782	13.740	1331.511	1002.506
86.797	13.727	1330.492	1001.567
87.812	13.679	1328.997	1000.067
88.826	13.625	1328.215	999.066
89.841	13.684	1327.153	998.532
90.855	13.753	1325.714	997.778
91.870	13.764	1325.039	997.246
92.884	13.709	1323.908	995.977
93.899	13.757	1323.165	995.616
94.914	13.726	1322.633	994.942
95.928	13.783	1321.757	994.539
96.943	13.824	1320.869	994.029
97.957	13.760	1320.102	992.979
98.972	13.771	1318.819	991.990
99.987	13.688	1318.375	991.071
101.001	13.671	1317.370	990.128
102.016	13.782	1315.839	989.556
103.030	13.815	1315.135	989.134
104.045	13.832	1313.868	988.195
105.060	13.775	1312.934	987.067
106.074	13.711	1311.524	985.538
107.089	13.662	1310.219	984.177
108.103	13.739	1308.955	983.599
109.118	13.618	1307.710	981.860
110.133	13.609	1306.369	980.711
111.147	13.664	1305.156	980.039
112.162	13.749	1303.471	979.190
113.176	13.711	1302.685	978.286
114.191	13.657	1301.938	977.323
115.206	13.771	1300.203	976.605
116.220	13.732	1298.686	975.150
117.235	13.731	1297.978	974.526
118.249	13.724	1297.007	973.671
119.264	13.633	1295.976	972.277
120.279	13.613	1294.687	971.105
121.293	13.652	1293.641	970.460
122.308	13.717	1292.372	969.808
123.322	13.651	1291.695	968.826
124.337	13.616	1290.942	967.972
125.352	13.653	1289.050	966.682
126.366	13.577	1287.982	965.350
127.381	13.630	1287.133	964.937
128.395	13.729	1285.827	964.449
129.410	13.615	1285.392	963.379
130.424	13.743	1283.971	962.969
131.439	13.725	1283.432	962.374
132.454	13.736	1282.068	961.330
133.468	13.757	1281.003	960.572
134.483	13.716	1280.401	959.796
135.497	13.803	1278.909	959.093
136.512	13.753	1277.657	957.784
137.527	13.747	1276.654	956.914
138.541	13.744	1274.982	955.558
139.556	13.743	1273.606	954.437
140.570	13.784	1272.659	953.877
141.585	13.791	1271.864	953.237
142.600	13.690	1270.373	951.457
143.614	13.913	1269.243	951.805
144.629	13.912	1268.081	950.843
145.643	13.935	1266.947	950.038
146.658	13.874	1265.911	948.828
147.673	13.792	1264.300	947.071
148.687	13.822	1262.995	946.178
149.702	13.739	1262.371	945.158
150.716	13.802	1260.969	944.381
151.731	13.807	1259.714	943.388
152.746	13.876	1258.535	942.813
153.760	13.892	1257.258	941.860
154.775	13.938	1256.074	941.155
155.789	13.976	1255.270	940.681
156.804	13.963	1254.044	939.606
157.819	13.908	1252.804	938.282
158.833	13.968	1252.103	938.014
159.848	14.056	1250.866	937.500
160.862	13.965	1250.491	936.624
161.877	14.000	1248.850	935.510
162.892	14.022	1248.189	935.054
163.906	13.924	1247.111	933.613
164.921	13.973	1245.935	932.924
165.935	13.991	1245.203	932.398
166.950	13.975	1244.622	931.788
167.964	14.096	1243.493	931.538
168.979	14.011	1243.122	930.703
169.994	14.045	1242.480	930.327
171.008	14.104	1241.630	929.943
172.023	14.024	1241.013	928.949
173.037	14.200	1239.888	929.010
174.052	14.061	1239.440	927.815
175.067	14.068	1237.994	926.688
176.081	14.077	1237.204	926.068
177.096	14.061	1236.180	925.129
178.110	14.110	1235.353	924.701
179.125	14.203	1233.474	923.728
180.140	14.145	1232.852	922.859
181.154	14.075	1231.563	921.424
182.169	14.164	1230.424	920.984
183.183	14.296	1229.017	920.578
184.198	14.266	1227.747	919.377
185.213	14.277	1226.482	918.414
186.227	14.224	1225.901	917.602
187.242	14.304	1224.542	916.944
188.256	14.322	1223.723	916.351
189.271	14.378	1222.694	915.807
190.286	14.231	1221.493	914.017
191.300	14.282	1220.774	913.678
192.315	14.186	1220.272	912.698
193.329	14.190	1219.832	912.306
194.344	14.261	1219.058	912.039
195.359	14.250	1218.327	911.350
196.373	14.388	1217.933	911.729
197.388	14.337	1217.356	910.936
198.402	14.339	1216.685	910.367
199.417	14.531	1215.699	910.595
200.432	14.410	1215.182	909.467
201.446	14.418	1214.748	909.109
202.461	14.503	1213.610	908.637
203.475	14.592	1212.150	907.951
204.490	14.502	1211.186	906.656
205.504	14.437	1210.108	905.419
206.519	14.546	1209.052	905.136
207.534	14.555	1207.435	903.897
208.548	14.623	1206.680	903.619
209.563	14.532	1205.768	902.364
210.577	14.578	1204.658	901.700
211.592	14.549	1204.134	901.075
212.607	14.733	1203.032	901.162
213.621	14.760	1202.236	900.631
214.636	14.642	1201.112	899.072
215.650	14.481	1201.082	898.106
216.665	14.628	1199.465	897.610
217.680	14.683	1198.594	897.171
218.694	14.680	1198.120	896.720
219.709	14.688	1197.406	896.149
220.723	14.835	1195.735	895.610
221.738	14.692	1195.786	894.803
222.753	14.765	1194.592	894.222
223.767	14.745	1194.349	893.849
224.782	14.844	1193.481	893.651
225.796	14.824	1192.878	893.015
226.811	14.906	1191.992	892.708
227.826	14.977	1191.196	892.413
228.840	14.881	1190.794	891.520
229.855	14.860	1190.191	890.880
230.869	14.959	1188.996	890.434
231.884	14.785	1188.541	889.088
232.899	14.876	1187.263	888.539
233.913	14.820	1186.978	887.947
234.928	14.803	1186.261	887.241
235.942	14.814	1185.700	886.805
236.957	14.904	1184.308	886.160
237.972	14.942	1183.371	885.584
238.986	14.829	1183.152	884.739
240.001	15.009	1181.910	884.685
241.015	14.953	1181.423	883.947
242.030	14.837	1180.701	882.717
243.045	14.873	1180.039	882.331
244.059	15.037	1178.896	882.262
245.074	15.005	1177.923	881.287
246.088	15.035	1177.748	881.239
247.103	15.087	1176.493	880.497
248.117	15.158	1175.658	880.167
249.132	15.162	1175.145	879.726
250.147	15.175	1174.675	879.365
251.161	15.291	1173.268	878.843
252.176	15.313	1172.653	878.415
253.190	15.243	1172.554	877.901
254.205	15.288	1171.775	877.473
255.220	15.366	1170.816	877.087
256.234	15.353	1170.394	876.624
257.249	15.319	1169.929	876.022
258.263	15.407	1168.988	875.696
259.278	15.442	1168.136	875.163
260.293	15.360	1168.052	874.597
261.307	15.412	1167.267	874.200
262.322	15.488	1166.248	873.759
263.336	15.393	1165.920	872.938
264.351	15.546	1165.155	873.083
265.366	15.585	1164.462	872.691
266.380	15.464	1163.773	871.467
267.395	15.587	1162.786	871.293
268.409	15.430	1162.301	870.034
269.424	15.458	1161.753	869.694
270.439	15.611	1160.984	869.832
271.453	15.575	1160.031	868.855
272.468	15.531	1159.474	868.135
273.482	15.572	1158.513	867.549
274.497	15.546	1158.088	867.019
275.512	15.630	1157.255	866.754
276.526	15.576	1156.814	866.068
277.541	15.623	1155.852	865.514
278.555	15.651	1155.015	864.956
279.570	15.759	1154.118	864.764
280.585	15.651	1153.760	863.862
281.599	15.624	1152.790	862.923
282.614	15.700	1151.947	862.605
283.628	15.635	1150.680	861.242
284.643	15.639	1149.775	860.512
285.657	15.719	1149.008	860.273
286.672	15.601	1148.013	858.846
287.687	15.777	1146.885	858.828
288.701	15.819	1146.048	858.339
289.716	15.778	1145.467	857.618
290.730	15.950	1144.076	857.376
291.745	15.845	1143.757	856.526
292.760	15.945	1143.544	856.801
293.774	15.872	1143.049	855.979
294.789	15.900	1142.347	855.520
295.803	15.956	1141.696	855.242
296.818	15.941	1140.789	854.415
297.833	15.866	1140.005	853.367
298.847	15.935	1139.195	853.036
299.862	16.018	1138.379	852.771
300.876	15.959	1137.950	852.074
301.891	16.006	1137.321	851.768
302.906	15.956	1136.208	850.604
303.920	16.096	1135.655	850.823
304.935	16.069	1134.943	850.077
305.949	16.017	1134.639	849.511
306.964	16.288	1133.259	849.770
307.979	16.297	1132.583	849.233
308.993	16.145	1131.915	847.893
310.008	16.202	1131.299	847.639
311.022	16.127	1130.649	846.704
312.037	16.200	1129.682	846.269
313.052	16.255	1128.459	845.556
314.066	16.182	1127.749	844.584
315.081	16.180	1126.968	843.915
316.095	16.156	1126.456	843.335
317.110	16.213	1126.041	843.236
318.125	16.227	1124.725	842.243
319.139	16.196	1124.432	841.796
320.154	16.222	1123.583	841.217
321.168	16.239	1123.000	840.788
322.183	16.234	1122.431	840.262
323.197	16.261	1121.798	839.851
324.212	16.347	1120.986	839.593
325.227	16.283	1120.685	838.979
326.241	16.327	1120.020	838.622
327.256	16.376	1118.954	837.994
328.270	16.323	1118.042	836.973
329.285	16.290	1117.248	836.143
330.300	16.446	1115.992	835.902
331.314	16.416	1115.328	835.181
332.329	16.341	1114.474	834.098
333.343	16.409	1113.503	833.633
334.358	16.387	1112.703	832.851
335.373	16.351	1112.411	832.381
336.387	16.430	1111.144	831.750
337.402	16.473	1110.555	831.446
338.416	16.460	1110.165	831.015
339.431	16.484	1109.413	830.498
340.446	16.635	1108.288	830.322
341.460	16.579	1107.644	829.491
342.475	16.638	1106.961	829.195
343.489	16.700	1106.033	828.733
344.504	16.742	1105.107	828.171
345.519	16.661	1104.390	827.163
346.533	16.674	1103.761	826.683
347.548	16.729	1103.110	826.388
348.562	16.741	1102.035	825.570
349.577	16.786	1101.296	825.162
350.592	16.745	1100.224	824.087
351.606	16.785	1099.498	823.663
352.621	16.716	1099.267	823.085
353.635	16.646	1098.426	822.040
354.650	16.833	1097.711	822.338
355.665	16.789	1097.113	821.607
356.679	16.879	1096.529	821.533
357.694	16.764	1096.189	820.649
358.708	16.798	1095.574	820.277
359.723	16.762	1094.668	819.354
360.738	16.848	1093.646	818.931
361.752	16.808	1093.538	818.583
362.767	16.988	1092.780	818.815
363.781	17.004	1092.059	818.279
364.796	16.963	1091.642	817.699
365.810	16.974	1090.801	817.047
366.825	17.053	1090.454	817.097
367.840	17.029	1090.110	816.650
368.854	17.044	1089.693	816.340
369.869	17.105	1088.502	815.668
370.883	17.111	1087.583	814.934
371.898	17.110	1086.900	814.346
372.913	17.113	1086.105	813.694
373.927	17.073	1086.051	813.389
374.942	17.069	1085.518	812.897
375.956	17.168	1084.788	812.754
376.971	17.162	1083.908	811.993
377.986	17.208	1083.709	811.989
379.000	17.213	1083.247	811.600
380.015	17.265	1082.361	811.108
381.029	17.284	1081.342	810.367
382.044	17.291	1080.802	809.921
383.059	17.371	1080.213	809.792
384.073	17.254	1079.907	808.932
385.088	17.350	1078.541	808.295
386.102	17.349	1077.855	807.701
387.117	17.378	1076.802	806.980
388.132	17.403	1076.076	806.485
389.146	17.239	1075.425	805.147
390.161	17.289	1074.671	804.748
391.175	17.413	1073.561	804.432
392.190	17.403	1072.906	803.823
393.205	17.482	1072.506	803.824
394.219	17.462	1071.530	802.926
395.234	17.418	1070.488	801.870
396.248	17.448	1069.552	801.236
397.263	17.469	1068.568	800.528
398.278	17.415	1067.971	799.756
399.292	17.368	1067.242	798.920
400.307	17.386	1066.585	798.440
401.321	17.422	1066.026	798.123
402.336	17.463	1065.330	797.724
403.350	17.485	1064.475	797.112
404.365	17.560	1063.811	796.896
405.380	17.549	1063.057	796.212
406.394	17.518	1062.379	795.489
407.409	17.608	1061.340	795.059
408.423	17.582	1061.029	794.635
409.438	17.662	1060.009	794.173
410.453	17.798	1059.239	794.160
411.467	17.634	1058.944	793.106
412.482	17.722	1058.098	792.808
413.496	17.798	1057.714	792.806
414.511	17.692	1057.118	791.796
415.526	17.813	1056.696	791.970
416.540	17.873	1055.821	791.525
417.555	17.884	1055.214	791.051
418.569	17.760	1055.146	790.354
419.584	17.878	1054.330	790.221
420.599	17.805	1053.916	789.502
421.613	105.796	1325.746	1475.553
422.628	97.515	1365.294	1475.626
