DTS Sentinel unit serial number:	SN413079Multiplexer serial number:	ORYXHardware model number:	OX4-SRSoftware version number:	ORYX F/W v4.00 Oryx Data Collector v3.7.2.0data status	okinstallation	princeton_trtdifferential loss correction	single-endedforward channel	channel 2reverse channel	N/Adate	2019/09/18time	20:07:35forward acquisition time	60.00reverse acquisition time	0.00gamma	496.2192k internal	0.2335k external	0.2335temperature offset calibration	1.0025default loss term (dB/km)	0.3790temperature slope calibration	1.0000multiplexer offset coefficient	1.0000multiplexer slope coefficient	1.0000fibre end	0.00T internal ref (°C)	29.84T ext. ref 1 (°C)	0.87T ext. ref 2 (°C)	20.41length (m)	temperature (°C)	Stokes	anti-Stokes-747.200	120.293	0.163	0.203
-746.185	414.939	-0.182	0.389
-745.171	-116.293	-0.044	-0.008
-744.156	-200.000	-0.015	0.184
-743.142	75.985	0.098	0.104
-742.127	142.673	-0.184	0.245
-741.112	-200.000	-0.081	0.370
-740.098	-62.394	0.284	0.119
-739.083	-69.919	0.446	0.171
-738.069	124.937	-0.111	0.140
-737.054	125.860	-0.024	-0.030
-736.039	-95.875	-0.377	-0.101
-735.025	87.033	0.184	0.205
-734.010	800.000	0.097	-0.276
-732.996	-200.000	-0.048	0.232
-731.981	-97.918	0.376	0.097
-730.966	-200.000	0.035	0.411
-729.952	-108.715	-0.306	-0.066
-728.937	180.736	-0.171	0.253
-727.923	-33.348	0.077	-0.043
-726.908	319.962	-0.110	-0.209
-725.894	90.561	0.376	-0.422
-724.879	-40.081	-0.135	-0.071
-723.864	-200.000	0.023	-0.105
-722.850	-139.181	0.140	-0.015
-721.835	800.000	-0.110	-0.436
-720.821	-97.156	0.105	-0.028
-719.806	-32.508	0.310	-0.173
-718.791	-24.554	-0.196	-0.117
-717.777	102.526	0.125	0.147
-716.762	31.153	-0.173	-0.149
-715.748	66.674	-0.166	0.169
-714.733	-45.208	-0.192	-0.096
-713.718	-200.000	-0.038	0.172
-712.704	-9.600	-0.261	0.175
-711.689	-31.592	0.033	0.019
-710.675	-200.000	0.051	-0.251
-709.660	152.139	0.097	0.132
-708.645	335.098	-0.076	0.147
-707.631	800.000	0.056	0.160
-706.616	63.920	-0.064	0.064
-705.602	-200.000	-0.005	0.106
-704.587	53.291	0.148	0.142
-703.572	-128.017	-0.175	0.025
-702.558	-84.380	-0.197	-0.063
-701.543	303.904	0.119	-0.221
-700.529	-142.844	0.152	-0.015
-699.514	-61.983	0.323	-0.135
-698.499	-143.367	0.375	0.036
-697.485	262.181	-0.183	-0.318
-696.470	94.583	-0.110	0.125
-695.456	800.000	0.030	0.108
-694.441	-103.934	0.159	0.037
-693.426	800.000	-0.037	-0.151
-692.412	-175.275	-0.168	-0.005
-691.397	-64.204	-0.070	0.028
-690.383	70.250	0.284	0.294
-689.368	800.000	0.085	-0.345
-688.354	-200.000	0.042	0.342
-687.339	-82.360	-0.313	-0.102
-686.324	-200.000	-0.010	-0.205
-685.310	176.204	0.253	0.368
-684.295	112.599	0.081	0.098
-683.281	94.917	-0.149	-0.170
-682.266	196.256	0.227	-0.347
-681.251	-126.097	-0.262	-0.039
-680.237	-200.000	-0.018	-0.165
-679.222	-99.122	-0.301	-0.076
-678.208	-93.746	-0.289	0.080
-677.193	289.952	0.042	0.077
-676.178	-200.000	0.047	-0.261
-675.164	-26.678	0.113	0.066
-674.149	-61.474	-0.192	-0.081
-673.135	154.082	-0.159	0.218
-672.120	-38.124	0.025	-0.013
-671.105	-53.650	-0.089	0.041
-670.091	-24.222	0.232	-0.139
-669.076	-1.169	-0.208	-0.147
-668.062	-67.312	-0.195	0.077
-667.047	-71.549	0.132	0.049
-666.032	6.171	-0.156	0.116
-665.018	327.630	0.041	-0.079
-664.003	-61.593	-0.099	-0.042
-662.989	-200.000	0.017	-0.220
-661.974	203.442	-0.076	0.117
-660.959	-54.831	-0.173	0.078
-659.945	-10.164	-0.159	-0.106
-658.930	94.081	-0.103	0.117
-657.916	-200.000	0.024	-0.300
-656.901	231.820	0.078	-0.129
-655.886	-88.161	-0.495	0.149
-654.872	-96.479	0.061	0.016
-653.857	-86.439	0.100	-0.031
-652.843	-200.000	0.037	0.299
-651.828	39.199	-0.214	0.192
-650.814	-14.672	0.108	-0.070
-649.799	-200.000	-0.022	0.139
-648.784	-13.073	0.013	-0.008
-647.770	-75.935	-0.070	-0.025
-646.755	-91.889	-0.118	0.033
-645.741	-32.088	0.054	0.030
-644.726	-36.548	-0.163	-0.088
-643.711	800.000	-0.088	0.326
-642.697	34.273	0.041	0.036
-641.682	117.297	0.194	-0.239
-640.668	-57.458	-0.143	-0.063
-639.653	19.332	-0.206	0.165
-638.638	-173.179	0.274	0.008
-637.624	-0.565	0.100	-0.071
-636.609	-200.000	-0.010	-0.198
-635.595	800.000	-0.065	0.184
-634.580	60.714	0.150	0.149
-633.565	-48.429	-0.247	-0.119
-632.551	-53.573	0.303	-0.139
-631.536	13.964	-0.264	-0.206
-630.522	-89.580	-0.303	-0.089
-629.507	345.984	-0.103	0.203
-628.492	-200.000	-0.021	0.389
-627.478	-7.504	-0.323	-0.218
-626.463	149.281	-0.027	0.036
-625.449	-176.343	-0.135	0.004
-624.434	-76.170	-0.244	-0.086
-623.419	448.175	0.139	-0.306
-622.405	-200.000	0.052	0.259
-621.390	-115.880	0.197	0.037
-620.376	624.860	0.081	-0.203
-619.361	-200.000	-0.031	-0.204
-618.346	-180.016	-0.197	-0.004
-617.332	184.761	0.300	0.444
-616.317	-168.999	-0.174	0.006
-615.303	-200.000	-0.013	0.152
-614.288	116.426	-0.087	0.107
-613.273	121.589	-0.224	-0.279
-612.259	375.568	-0.066	-0.135
-611.244	164.275	-0.101	0.142
-610.230	41.297	-0.105	0.095
-609.215	-94.750	-0.134	0.036
-608.201	-93.760	-0.266	0.073
-607.186	-200.000	0.001	0.060
-606.171	-133.166	0.347	-0.044
-605.157	800.000	0.059	0.170
-604.142	800.000	0.136	0.488
-603.128	-93.466	-0.306	-0.085
-602.113	417.428	-0.058	0.124
-601.098	-46.385	-0.036	-0.018
-600.084	81.272	0.166	-0.179
-599.069	-59.286	0.210	-0.090
-598.055	-200.000	0.045	-0.259
-597.040	-200.000	0.026	-0.123
-596.025	-17.451	-0.347	-0.218
-595.011	3.374	0.135	0.098
-593.996	-200.000	0.074	0.348
-592.982	-88.446	-0.174	0.052
-591.967	-191.822	-0.041	0.000
-590.952	800.000	0.135	-0.478
-589.938	-52.538	0.256	0.118
-588.923	-127.002	-0.268	0.039
-587.909	800.000	0.050	0.163
-586.894	-33.766	0.166	-0.092
-585.879	49.934	0.153	-0.144
-584.865	-43.200	-0.151	-0.077
-583.850	-94.364	-0.041	0.011
-582.836	43.463	-0.060	0.055
-581.821	-200.000	0.044	0.233
-580.806	722.052	-0.089	-0.236
-579.792	7.967	-0.090	-0.067
-578.777	29.086	0.319	-0.270
-577.763	85.775	0.164	-0.180
-576.748	-200.000	-0.041	-0.227
-575.733	373.011	-0.212	-0.431
-574.719	-52.928	0.197	-0.091
-573.704	-126.104	0.367	-0.055
-572.690	87.696	-0.027	-0.030
-571.675	800.000	-0.113	-0.447
-570.661	800.000	0.020	-0.061
-569.646	-18.809	0.186	0.116
-568.631	-200.000	-0.029	0.175
-567.617	-26.497	-0.199	0.116
-566.602	800.000	-0.085	0.335
-565.588	108.659	0.039	0.047
-564.573	-7.837	-0.030	0.020
-563.558	257.501	-0.149	0.255
-562.544	-21.421	0.285	-0.174
-561.529	277.188	-0.241	-0.427
-560.515	277.359	-0.155	-0.276
-559.500	-154.014	-0.116	-0.008
-558.485	-118.110	0.423	0.075
-557.471	-103.021	-0.474	0.112
-556.456	800.000	-0.031	-0.089
-555.442	-200.000	0.055	-0.345
-554.427	604.404	-0.092	-0.229
-553.412	-49.957	0.062	0.029
-552.398	-135.683	-0.333	0.039
-551.383	72.374	-0.134	0.140
-550.369	466.793	0.050	0.112
-549.354	-88.971	-0.289	-0.085
-548.339	-119.370	0.175	-0.030
-547.325	-83.392	-0.236	-0.076
-546.310	33.577	0.073	-0.063
-545.296	130.006	-0.148	0.189
-544.281	277.858	-0.056	-0.100
-543.266	199.627	-0.089	0.137
-542.252	-81.140	-0.143	0.047
-541.237	37.864	-0.070	-0.062
-540.223	-164.568	-0.155	-0.007
-539.208	-104.997	0.431	0.098
-538.193	-143.197	-0.105	0.010
-537.179	37.465	0.248	0.220
-536.164	182.979	0.080	0.118
-535.150	132.138	0.088	0.113
-534.135	-192.384	-0.391	0.004
-533.121	413.002	-0.086	0.182
-532.106	-200.000	0.012	-0.236
-531.091	249.209	0.147	-0.248
-530.077	-110.815	-0.520	0.107
-529.062	800.000	0.069	0.204
-528.048	-200.000	0.030	0.173
-527.033	800.000	0.029	-0.096
-526.018	71.718	-0.260	-0.269
-525.004	-200.000	-0.039	-0.257
-523.989	12.553	-0.141	0.109
-522.975	800.000	0.063	-0.240
-521.960	791.886	0.100	0.275
-520.945	14.479	-0.108	-0.084
-519.931	-127.983	-0.254	0.036
-518.916	53.072	-0.178	-0.170
-517.902	-13.771	0.233	-0.150
-516.887	79.338	0.267	-0.285
-515.872	81.774	-0.142	0.153
-514.858	-85.806	0.427	0.132
-513.843	-62.005	-0.410	-0.170
-512.829	-200.000	0.008	-0.264
-511.814	240.037	-0.105	-0.174
-510.799	800.000	-0.027	0.092
-509.785	197.080	0.044	0.068
-508.770	-134.432	0.224	-0.027
-507.756	66.546	0.056	0.056
-506.741	-200.000	-0.010	0.162
-505.726	-1.388	-0.311	-0.218
-504.712	-200.000	0.071	-0.334
-503.697	-200.000	0.023	-0.295
-502.683	800.000	0.043	0.139
-501.668	-113.854	-0.094	-0.018
-500.653	-39.068	-0.130	0.068
-499.639	471.956	0.055	0.122
-498.624	-69.450	-0.135	-0.052
-497.610	389.270	-0.064	0.133
-496.595	-156.523	0.101	-0.006
-495.581	-200.000	-0.007	0.122
-494.566	-118.529	-0.210	0.037
-493.551	-200.000	-0.006	0.068
-492.537	445.541	0.130	0.284
-491.522	-26.859	-0.109	0.063
-490.508	-39.838	-0.047	0.024
-489.493	174.315	0.064	-0.093
-488.478	-200.000	0.021	-0.094
-487.464	-200.000	-0.032	0.188
-486.449	514.329	-0.106	0.246
-485.435	-152.038	0.157	0.011
-484.420	402.930	-0.083	0.174
-483.405	60.255	0.160	0.157
-482.391	-38.945	0.077	-0.040
-481.376	366.462	-0.091	0.184
-480.362	-94.007	-0.327	0.089
-479.347	-136.300	0.122	0.014
-478.332	-200.000	0.024	0.170
-477.318	800.000	0.057	-0.208
-476.303	800.000	-0.019	-0.063
-475.289	-200.000	0.035	0.161
-474.274	210.671	-0.063	-0.098
-473.259	-141.025	0.163	-0.017
-472.245	-160.914	0.129	0.007
-471.230	-200.000	0.043	0.298
-470.216	-122.199	0.532	0.087
-469.201	203.924	0.138	-0.212
-468.186	-140.034	0.128	0.013
-467.172	800.000	-0.055	-0.167
-466.157	800.000	-0.027	0.077
-465.143	-61.617	-0.273	0.114
-464.128	425.312	0.075	0.160
-463.113	698.043	0.081	0.212
-462.099	225.563	0.110	0.177
-461.084	-112.264	-0.139	0.028
-460.070	-53.809	0.182	0.083
-459.055	113.350	-0.216	-0.261
-458.040	-107.931	-0.108	0.023
-457.026	-200.000	0.019	0.123
-456.011	-117.339	0.357	-0.064
-454.997	143.587	-0.043	0.057
-453.982	-100.230	0.276	-0.068
-452.968	-200.000	-0.014	-0.279
-451.953	204.562	-0.127	-0.196
-450.938	800.000	0.085	0.352
-449.924	-115.407	0.182	-0.034
-448.909	562.641	0.038	0.091
-447.895	800.000	0.056	-0.169
-446.880	110.837	-0.104	-0.124
-445.865	-200.000	-0.015	-0.205
-444.851	800.000	0.104	0.307
-443.836	66.773	0.277	-0.280
-442.822	-22.917	-0.163	-0.098
-441.807	800.000	0.134	0.393
-440.792	-104.246	-0.055	-0.013
-439.778	-43.386	-0.283	0.142
-438.763	207.928	-0.017	-0.026
-437.749	240.251	-0.094	-0.156
-436.734	407.833	-0.163	-0.343
-435.719	-71.812	0.087	-0.032
-434.705	-200.000	0.058	-0.358
-433.690	1.629	-0.340	-0.243
-432.676	800.000	-0.061	-0.244
-431.661	-84.551	-0.331	0.104
-430.646	587.517	0.133	0.325
-429.632	-131.625	-0.551	-0.072
-428.617	-64.979	-0.221	0.089
-427.603	434.782	0.146	-0.315
-426.588	-200.000	0.014	0.265
-425.573	217.234	0.199	-0.315
-424.559	-200.000	0.046	-0.302
-423.544	-88.087	0.152	-0.045
-422.530	-36.785	0.060	-0.032
-421.515	-200.000	0.000	0.082
-420.500	-200.000	0.015	-0.097
-419.486	278.751	-0.097	-0.171
-418.471	418.460	-0.012	0.025
-417.457	-200.000	-0.030	-0.157
-416.442	123.313	0.103	-0.128
-415.428	-200.000	-0.017	-0.159
-414.413	589.409	0.145	0.354
-413.398	5.668	-0.263	0.193
-412.384	21.146	0.233	-0.187
-411.369	35.190	-0.229	-0.199
-410.355	-13.926	0.303	-0.194
-409.340	18.739	0.052	-0.041
-408.325	-60.971	-0.153	0.064
-407.311	87.357	-0.145	0.159
-406.296	-1.797	0.173	-0.121
-405.282	-131.242	-0.313	-0.041
-404.267	-164.912	-0.048	-0.002
-403.252	-64.418	0.125	0.051
-402.238	-33.835	0.055	0.030
-401.223	26.469	0.113	0.094
-400.209	-104.243	-0.124	0.028
-399.194	800.000	0.056	0.187
-398.179	800.000	-0.096	0.283
-397.165	-54.175	-0.356	0.160
-396.150	188.879	-0.224	0.332
-395.136	-116.071	0.163	0.030
-394.121	-185.044	-0.260	-0.004
-393.106	16.286	0.171	0.134
-392.092	43.366	-0.132	0.120
-391.077	89.524	0.010	-0.011
-390.063	223.815	-0.183	-0.293
-389.048	800.000	-0.093	0.256
-388.033	57.601	-0.169	-0.163
-387.019	-150.143	0.251	-0.019
-386.004	-82.532	-0.116	0.037
-384.990	32.440	0.272	0.233
-383.975	-105.396	0.228	0.051
-382.960	-200.000	0.017	-0.209
-381.946	-45.223	0.232	-0.114
-380.931	-20.724	0.039	0.024
-379.917	25.277	0.210	0.173
-378.902	26.316	0.124	0.103
-377.888	112.684	0.107	0.128
-376.873	800.000	-0.035	-0.109
-375.858	-200.000	0.004	-0.130
-374.844	-200.000	-0.003	-0.454
-373.829	656.981	0.034	0.088
-372.815	12.563	0.249	-0.190
-371.800	-2.446	-0.189	0.131
-370.785	-21.942	0.345	0.208
-369.771	-91.253	0.129	-0.037
-368.756	99.178	-0.135	0.155
-367.742	18.770	-0.087	0.069
-366.727	68.497	-0.022	-0.023
-365.712	296.569	0.202	0.368
-364.698	-200.000	-0.060	-0.270
-363.683	-200.000	0.037	0.285
-362.669	-200.000	0.002	0.098
-361.654	26.452	0.170	-0.141
-360.639	-154.892	0.111	0.007
-359.625	316.196	0.158	-0.295
-358.610	-45.729	0.170	-0.083
-357.596	-60.340	0.270	-0.114
-356.581	-60.812	-0.483	-0.202
-355.566	-200.000	0.003	0.123
-354.552	-150.339	-0.206	0.016
-353.537	641.558	0.087	-0.218
-352.523	69.992	0.107	-0.109
-351.508	407.687	-0.052	-0.109
-350.493	-28.902	-0.081	0.046
-349.479	326.818	-0.126	0.239
-348.464	-200.000	0.015	-0.146
-347.450	-48.178	0.320	-0.153
-346.435	-200.000	0.021	0.229
-345.420	800.000	0.031	-0.129
-344.406	-52.152	-0.133	-0.061
-343.391	-43.917	0.167	-0.083
-342.377	380.440	-0.102	0.207
-341.362	-107.412	-0.136	-0.030
-340.348	510.381	0.035	-0.081
-339.333	-68.976	-0.101	0.039
-338.318	-24.137	-0.221	-0.131
-337.304	-42.282	-0.125	-0.063
-336.289	-37.411	-0.097	-0.051
-335.275	376.266	0.094	0.190
-334.260	-200.000	0.032	0.280
-333.245	-46.418	0.255	-0.124
-332.231	-200.000	-0.017	0.224
-331.216	-100.308	-0.128	-0.031
-330.202	-200.000	0.010	-0.080
-329.187	-2.759	-0.135	0.093
-328.172	637.537	-0.106	0.265
-327.158	772.891	-0.025	0.067
-326.143	-160.233	0.245	-0.013
-325.129	-126.527	0.260	0.038
-324.114	163.459	-0.088	0.122
-323.099	82.839	-0.063	0.068
-322.085	-169.449	0.399	-0.014
-321.070	149.865	0.109	0.146
-320.056	-30.416	-0.210	-0.117
-319.041	41.599	0.293	0.262
-318.026	38.805	-0.140	0.124
-317.012	800.000	0.049	0.179
-315.997	581.894	0.106	0.258
-314.983	-200.000	0.007	-0.170
-313.968	511.656	-0.086	0.198
-312.953	193.429	0.123	0.184
-311.939	-144.759	-0.081	-0.007
-310.924	161.003	0.173	0.239
-309.910	130.540	0.074	0.094
-308.895	425.917	0.109	-0.231
-307.880	-200.000	-0.016	-0.131
-306.866	-200.000	0.078	-0.379
-305.851	320.788	0.086	0.161
-304.837	268.913	0.076	-0.132
-303.822	473.306	0.091	-0.202
-302.807	-107.553	-0.270	0.058
-301.793	-128.251	0.394	-0.056
-300.778	-100.737	0.134	-0.033
-299.764	-79.623	-0.325	-0.108
-298.749	-200.000	-0.028	0.177
-297.735	-19.638	0.068	0.042
-296.720	800.000	-0.129	-0.464
-295.705	-200.000	-0.001	0.050
-294.691	-176.046	-0.220	0.006
-293.676	696.037	-0.068	-0.175
-292.662	153.413	-0.146	0.198
-291.647	-108.647	0.131	-0.028
-290.632	-86.779	0.430	-0.130
-289.618	208.549	-0.152	-0.235
-288.603	270.728	-0.150	0.261
-287.589	59.886	0.134	-0.130
-286.574	-104.469	0.152	-0.035
-285.559	49.007	-0.165	0.153
-284.545	-200.000	0.281	0.001
-283.530	2.801	-0.127	-0.091
-282.516	159.810	0.065	-0.090
-281.501	-200.000	0.022	0.279
-280.486	-46.954	-0.089	-0.043
-279.472	185.095	-0.272	-0.398
-278.457	800.000	-0.016	0.068
-277.443	254.171	0.048	0.082
-276.428	-129.224	0.152	-0.021
-275.413	124.088	-0.232	-0.288
-274.399	-200.000	0.022	0.450
-273.384	-105.291	0.327	-0.074
-272.370	495.267	0.069	0.157
-271.355	82.757	0.015	-0.016
-270.340	33.529	-0.198	-0.170
-269.326	413.608	-0.114	0.239
-268.311	586.147	0.132	0.321
-267.297	800.000	-0.053	0.167
-266.282	79.148	0.163	-0.172
-265.267	-200.000	0.027	0.284
-264.253	800.000	-0.070	-0.249
-263.238	48.594	0.054	-0.050
-262.224	-95.002	0.199	-0.053
-261.209	-166.144	-0.029	-0.001
-260.195	-119.327	0.291	0.050
-259.180	396.391	0.044	0.092
-258.165	800.000	-0.013	0.046
-257.151	389.410	0.089	0.182
-256.136	-103.690	-0.204	0.047
-255.122	-200.000	-0.039	-0.195
-254.107	-10.781	-0.195	-0.127
-253.092	-200.000	0.015	-0.111
-252.078	214.401	0.139	-0.217
-251.063	800.000	0.049	0.206
-250.049	-7.786	0.148	0.098
-249.034	340.493	0.108	0.207
-248.019	-100.514	-0.162	0.039
-247.005	53.741	0.196	-0.185
-245.990	-200.000	-0.034	-0.217
-244.976	800.000	-0.016	0.064
-243.961	740.076	0.151	0.399
-242.946	120.842	0.070	0.085
-241.932	143.733	-0.168	-0.221
-240.917	6.629	0.114	-0.083
-239.903	800.000	0.067	-0.222
-238.888	-17.913	-0.291	-0.179
-237.873	-91.876	0.149	0.042
-236.859	-91.689	0.050	-0.014
-235.844	-200.000	-0.037	-0.189
-234.830	800.000	0.097	-0.290
-233.815	-200.000	-0.011	0.344
-232.800	-128.883	0.086	0.012
-231.786	-200.000	0.009	-0.217
-230.771	77.836	-0.035	0.037
-229.757	22.931	-0.168	0.136
-228.742	-86.579	-0.184	0.056
-227.727	-200.000	0.027	-0.202
-226.713	241.735	-0.088	0.145
-225.698	-33.173	-0.015	0.008
-224.684	251.134	-0.093	-0.156
-223.669	-200.000	0.008	-0.114
-222.655	-104.150	-0.158	-0.036
-221.640	800.000	-0.113	0.316
-220.625	-200.000	-0.006	0.117
-219.611	-5.909	0.174	-0.117
-218.596	60.156	-0.132	-0.128
-217.582	-109.682	-0.239	-0.050
-216.567	-160.821	0.178	-0.009
-215.552	-200.000	0.031	0.159
-214.538	-20.419	0.254	0.154
-213.523	-200.000	0.058	0.460
-212.509	174.191	-0.105	0.149
-211.494	-200.000	-0.012	-0.061
-210.479	-32.769	0.203	-0.111
-209.465	457.279	0.070	-0.154
-208.450	-2.478	-0.089	0.062
-207.436	-112.898	0.582	-0.113
-206.421	70.777	-0.066	-0.067
-205.406	-80.695	0.250	0.082
-204.392	434.777	-0.063	-0.135
-203.377	-93.313	-0.252	0.069
-202.363	286.237	0.161	0.286
-201.348	-200.000	-0.043	-0.204
-200.333	20.044	0.282	0.223
-199.319	-98.167	0.113	0.029
-198.304	-142.873	-0.218	-0.021
-197.290	159.074	-0.234	0.321
-196.275	550.446	0.061	0.144
-195.260	-74.039	-0.189	-0.068
-194.246	-52.263	-0.041	0.019
-193.231	55.397	0.231	0.220
-192.217	204.546	-0.210	-0.320
-191.202	-40.635	0.153	-0.078
-190.187	-88.416	0.442	-0.130
-189.173	155.260	-0.113	-0.153
-188.158	-83.952	-0.138	-0.043
-187.144	-68.975	0.081	-0.031
-186.129	-200.000	0.017	-0.092
-185.114	449.624	0.062	-0.134
-184.100	95.505	0.202	0.226
-183.085	104.520	0.055	-0.063
-182.071	-34.072	0.197	-0.106
-181.056	43.830	-0.134	0.121
-180.042	36.935	0.113	0.098
-179.027	115.175	0.104	0.125
-178.012	343.745	-0.090	0.173
-176.998	-200.000	0.020	0.226
-175.983	-41.519	0.129	-0.065
-174.969	-107.263	-0.087	0.019
-173.954	277.998	-0.047	-0.082
-172.939	-200.000	-0.055	-0.552
-171.925	56.075	0.123	0.117
-170.910	-52.290	0.288	0.131
-169.896	-14.618	0.161	-0.102
-168.881	133.387	-0.138	-0.175
-167.866	121.505	-0.111	-0.136
-166.852	230.909	-0.147	0.236
-165.837	-200.000	-0.014	0.203
-164.823	511.951	-0.097	0.223
-163.808	541.216	-0.048	-0.113
-162.793	620.034	0.080	-0.197
-161.779	-200.000	-0.065	0.000
-160.764	-133.389	0.094	0.012
-159.750	-23.917	-0.131	0.077
-158.735	800.000	-0.047	0.168
-157.720	191.099	0.125	0.185
-156.706	549.204	0.074	-0.175
-155.691	94.383	-0.072	0.080
-154.677	-90.000	0.109	0.031
-153.662	414.480	-0.161	0.337
-152.647	71.636	-0.175	0.178
-151.633	71.901	-0.302	-0.308
-150.618	186.544	-0.203	0.296
-149.604	-200.000	-0.042	-0.345
-148.589	-4.298	-0.044	0.030
-147.574	-141.790	-0.298	0.029
-146.560	800.000	-0.014	0.059
-145.545	-118.930	0.316	-0.054
-144.531	88.901	0.081	-0.088
-143.516	-200.000	-0.032	0.174
-142.502	800.000	-0.048	-0.203
-141.487	-98.959	0.482	-0.120
-140.472	-115.690	-0.238	0.044
-139.458	365.989	0.307	-0.608
-138.443	170.999	0.031	0.043
-137.429	7.521	-0.203	0.149
-136.414	309.061	-0.104	0.191
-135.399	-161.794	0.179	-0.009
-134.385	25.168	-0.189	0.154
-133.370	332.973	0.098	-0.186
-132.356	624.774	0.051	0.125
-131.341	589.988	-0.136	-0.330
-130.326	-13.042	-0.243	-0.155
-129.312	-200.000	-0.010	-0.190
-128.297	-102.984	-0.125	0.029
-127.283	-11.586	-0.232	0.149
-126.268	-119.860	-0.177	0.030
-125.253	-200.000	0.014	0.184
-124.239	453.811	-0.104	0.227
-123.224	-200.000	0.033	-0.216
-122.210	800.000	-0.051	0.194
-121.195	-200.000	0.369	0.001
-120.180	-153.963	0.042	0.003
-119.166	223.640	-0.099	0.157
-118.151	1.124	0.348	-0.245
-117.137	-37.976	0.349	0.182
-116.122	-200.000	-0.027	0.357
-115.107	-200.000	0.087	0.414
-114.093	69.558	0.049	-0.049
-113.078	-131.025	0.294	0.039
-112.064	198.153	0.254	0.381
-111.049	346.115	-0.158	0.305
-110.034	-200.000	0.006	-0.216
-109.020	-52.088	0.140	0.064
-108.005	-103.702	-0.076	-0.018
-106.991	152.268	-0.212	-0.283
-105.976	-200.000	0.008	-0.415
-104.962	800.000	0.046	0.174
-103.947	77.102	-0.145	-0.151
-102.932	88.262	-0.059	0.064
-101.918	-96.864	0.091	0.023
-100.903	-119.366	0.328	-0.056
-99.889	662.994	-0.186	-0.470
-98.874	-200.000	0.030	-0.142
-97.859	133.172	-0.143	-0.181
-96.845	31.213	0.035	-0.030
-95.830	-24.008	-0.229	0.134
-94.816	-54.695	-0.086	-0.038
-93.801	-36.116	0.123	0.065
-92.786	800.000	-0.047	-0.172
-91.772	-66.200	0.258	-0.101
-90.757	-63.630	0.276	0.111
-89.743	105.538	0.084	-0.097
-88.728	-200.000	0.025	0.155
-87.713	188.109	0.058	0.086
-86.699	394.192	-0.169	0.344
-85.684	800.000	0.031	0.104
-84.670	738.228	-0.085	0.223
-83.655	117.513	0.138	0.166
-82.640	534.361	0.051	0.119
-81.626	-200.000	0.017	-0.232
-80.611	-24.569	-0.338	0.197
-79.597	-200.000	-0.009	-0.156
-78.582	123.968	0.200	-0.246
-77.567	-200.000	0.021	0.131
-76.553	33.229	0.086	0.073
-75.538	-117.633	0.202	0.036
-74.524	-99.843	0.268	0.066
-73.509	255.499	0.150	-0.252
-72.494	74.913	0.340	0.350
-71.480	-90.421	0.242	-0.069
-70.465	-200.000	0.003	-0.075
-69.451	88.495	0.367	0.400
-68.436	-44.195	0.192	-0.094
-67.422	800.000	0.057	0.190
-66.407	-200.000	-0.202	-0.001
-65.392	800.000	-0.155	0.469
-64.378	-9.778	0.039	0.025
-63.363	65.187	0.114	0.112
-62.349	-3.994	-0.289	-0.196
-61.334	-30.892	-1.045	-0.578
-60.319	99.919	0.460	0.522
-59.305	-200.000	-0.116	-1.277
-58.290	456.666	0.607	1.319
-57.276	269.831	0.856	1.472
-56.261	-200.000	110.427	683.096
-55.246	510.983	1486.378	3383.461
-54.232	148.582	2665.797	3522.685
-53.217	104.779	2278.227	2626.634
-52.203	39.517	1896.515	1662.340
-51.188	33.146	1689.226	1432.509
-50.173	30.523	1646.654	1376.953
-49.159	54.029	1700.394	1598.946
-48.144	54.034	1715.501	1613.125
-47.130	32.864	1673.990	1417.251
-46.115	29.903	1659.771	1383.070
-45.100	29.764	1654.794	1377.831
-44.086	29.727	1652.286	1375.410
-43.071	29.684	1649.638	1372.830
-42.057	29.667	1647.107	1370.543
-41.042	29.639	1645.289	1368.772
-40.027	29.801	1643.646	1368.552
-39.013	29.647	1641.573	1365.634
-37.998	29.629	1640.285	1364.375
-36.984	29.694	1638.928	1363.669
-35.969	29.828	1636.983	1362.987
-34.954	29.791	1636.171	1361.981
-33.940	29.770	1634.319	1360.227
-32.925	29.841	1632.313	1359.027
-31.911	29.869	1630.582	1357.742
-30.896	29.758	1629.404	1355.887
-29.881	29.772	1627.454	1354.316
-28.867	29.825	1625.962	1353.408
-27.852	29.823	1624.451	1352.084
-26.838	29.792	1622.866	1350.480
-25.823	29.927	1621.244	1350.066
-24.809	29.908	1620.000	1348.840
-23.794	29.845	1618.749	1347.285
-22.779	29.874	1617.180	1346.136
-21.765	29.892	1615.417	1344.749
-20.750	29.851	1614.038	1343.246
-19.736	29.920	1612.964	1342.801
-18.721	29.876	1611.443	1341.160
-17.706	29.880	1609.911	1339.858
-16.692	29.907	1608.224	1338.597
-15.677	29.955	1606.697	1337.624
-14.663	29.844	1605.759	1335.988
-13.648	29.854	1604.310	1334.802
-12.633	29.946	1603.218	1334.502
-11.619	29.938	1601.306	1332.798
-10.604	29.949	1600.171	1331.880
-9.590	29.914	1598.740	1330.384
-8.575	29.919	1597.557	1329.383
-7.560	29.947	1596.466	1328.627
-6.546	29.886	1595.011	1326.928
-5.531	29.864	1593.634	1325.568
-4.517	29.842	1593.020	1324.848
-3.502	29.904	1591.756	1324.186
-2.487	29.901	1589.978	1322.634
-1.473	29.226	1577.352	1307.290
-0.458	25.055	1555.925	1260.219
0.556	19.436	1553.666	1217.614
1.571	16.199	1574.991	1211.022
2.586	15.272	1586.607	1213.134
3.600	13.943	1534.483	1163.872
4.615	8.180	1429.497	1046.432
5.629	2.149	1368.467	963.699
6.644	0.969	1360.492	950.595
7.659	0.851	1359.424	949.023
8.673	0.830	1358.728	948.322
9.688	0.851	1356.034	946.492
10.702	0.645	1353.005	943.009
11.717	3.390	1356.720	962.677
12.731	10.516	1367.322	1014.847
13.746	16.082	1375.347	1055.655
14.761	17.420	1376.656	1064.947
15.775	16.906	1374.535	1059.998
16.790	15.985	1371.208	1051.593
17.804	15.146	1369.705	1045.116
18.819	14.650	1368.397	1040.936
19.834	14.431	1367.009	1038.420
20.848	14.245	1365.974	1036.384
21.863	14.058	1363.986	1033.620
22.877	13.819	1363.328	1031.543
23.892	13.680	1362.520	1029.981
24.907	13.667	1361.437	1028.990
25.921	13.858	1360.286	1029.213
26.936	13.813	1359.631	1028.349
27.950	13.831	1358.933	1027.838
28.965	13.872	1358.124	1027.390
29.980	13.927	1356.964	1026.762
30.994	14.019	1355.647	1026.246
32.009	13.962	1355.007	1025.314
33.023	14.024	1353.921	1024.788
34.038	13.862	1352.856	1022.891
35.053	13.937	1351.711	1022.398
36.067	13.939	1350.604	1021.481
37.082	13.869	1349.581	1020.188
38.096	13.914	1348.728	1019.725
39.111	13.850	1348.035	1018.720
40.126	13.929	1347.171	1018.465
41.140	13.757	1346.352	1016.697
42.155	13.784	1345.712	1016.292
43.169	13.802	1345.867	1016.431
44.184	13.668	1345.483	1015.229
45.199	13.742	1345.058	1015.271
46.213	13.724	1344.531	1014.673
47.228	13.834	1343.266	1014.298
48.242	13.841	1342.094	1013.369
49.257	13.873	1340.702	1012.421
50.271	13.839	1339.612	1011.303
51.286	13.824	1338.274	1010.112
52.301	13.790	1337.163	1008.977
53.315	13.843	1335.674	1008.085
54.330	13.731	1335.160	1006.930
55.344	13.765	1333.599	1005.871
56.359	13.808	1332.746	1005.399
57.374	13.724	1331.644	1003.971
58.388	13.732	1330.937	1003.393
59.403	13.740	1330.727	1003.197
60.417	13.758	1329.533	1002.320
61.432	13.631	1328.877	1000.969
62.447	13.701	1327.457	1000.232
63.461	13.739	1326.231	999.450
64.476	13.702	1325.570	998.640
65.490	13.571	1324.566	997.006
66.505	13.745	1322.461	996.377
67.520	13.635	1321.203	994.681
68.534	13.621	1321.013	994.365
69.549	13.784	1319.475	994.097
70.563	13.870	1317.489	993.028
71.578	13.698	1316.887	991.456
72.593	13.567	1316.252	990.110
73.607	13.617	1315.332	989.631
74.622	13.625	1314.693	989.109
75.636	13.621	1314.044	988.509
76.651	13.605	1313.434	987.869
77.666	13.529	1312.718	986.785
78.680	13.708	1311.946	987.184
79.695	13.677	1311.326	986.450
80.709	13.719	1310.412	985.925
81.724	13.675	1309.497	984.883
82.739	13.609	1309.183	984.168
83.753	13.766	1307.707	983.902
84.768	13.768	1306.786	983.136
85.782	13.944	1305.297	982.972
86.797	13.838	1304.108	981.360
87.812	13.861	1302.959	980.548
88.826	13.909	1302.027	980.038
89.841	13.839	1300.694	978.538
90.855	13.891	1299.895	978.157
91.870	13.876	1298.775	977.139
92.884	13.836	1298.613	976.694
93.899	13.880	1297.719	976.199
94.914	13.931	1296.735	975.671
95.928	13.994	1295.661	975.142
96.943	13.794	1295.406	973.694
97.957	13.905	1294.253	973.393
98.972	13.883	1293.376	972.517
99.987	13.891	1291.891	971.357
101.001	13.938	1291.125	970.974
102.016	13.919	1289.966	969.904
103.030	14.012	1288.925	969.580
104.045	13.976	1287.711	968.371
105.060	13.756	1287.174	966.599
106.074	13.836	1285.507	965.729
107.089	13.833	1284.530	964.887
108.103	13.785	1283.179	963.512
109.118	13.899	1281.482	962.813
110.133	13.735	1280.746	961.226
111.147	13.844	1279.256	960.654
112.162	13.755	1278.199	959.257
113.176	13.812	1277.437	958.932
114.191	13.765	1276.311	957.731
115.206	13.906	1274.763	957.299
116.220	13.924	1273.635	956.470
117.235	13.871	1272.647	955.335
118.249	13.775	1271.682	953.978
119.264	13.753	1270.642	952.984
120.279	13.833	1269.345	952.386
121.293	13.769	1268.538	951.330
122.308	13.729	1267.379	950.148
123.322	13.769	1266.451	949.598
124.337	13.863	1265.157	949.080
125.352	13.855	1264.143	948.187
126.366	13.870	1262.948	947.297
127.381	13.728	1261.961	945.659
128.395	13.753	1261.294	945.218
129.410	13.828	1259.803	944.443
130.424	13.807	1259.494	944.013
131.439	13.795	1258.587	943.178
132.454	13.930	1256.915	942.612
133.468	13.944	1255.803	941.773
134.483	13.873	1256.031	941.456
135.497	13.810	1255.160	940.363
136.512	13.901	1253.324	939.419
137.527	13.922	1251.903	938.391
138.541	13.812	1250.623	936.728
139.556	13.801	1249.433	935.689
140.570	13.819	1248.326	934.877
141.585	14.012	1246.327	934.383
142.600	13.926	1246.072	933.631
143.614	13.985	1244.805	932.927
144.629	14.035	1243.741	932.327
145.643	13.874	1242.825	930.659
146.658	13.979	1241.710	930.325
147.673	13.960	1240.312	929.093
148.687	13.971	1239.665	928.584
149.702	13.979	1238.097	927.374
150.716	14.000	1236.506	926.217
151.731	14.021	1235.346	925.382
152.746	14.022	1234.090	924.364
153.760	14.030	1233.157	923.632
154.775	14.043	1231.766	922.579
155.789	14.022	1230.762	921.630
156.804	14.047	1230.134	921.218
157.819	14.212	1228.374	920.732
158.833	14.124	1227.376	919.414
159.848	14.089	1227.124	918.949
160.862	14.180	1225.700	918.301
161.877	14.130	1224.836	917.300
162.892	13.984	1223.987	915.780
163.906	14.093	1222.868	915.458
164.921	14.104	1221.621	914.508
165.935	14.220	1220.758	914.417
166.950	14.183	1220.105	913.644
167.964	14.223	1219.599	913.402
168.979	14.158	1218.854	912.406
169.994	14.154	1217.968	911.644
171.008	14.115	1217.267	910.823
172.023	14.221	1216.138	910.478
173.037	14.209	1216.007	910.234
174.052	14.250	1214.607	909.331
175.067	14.106	1214.428	908.327
176.081	14.156	1213.320	907.692
177.096	14.237	1211.760	906.888
178.110	14.291	1210.337	906.036
179.125	14.265	1209.308	905.042
180.140	14.233	1208.254	903.997
181.154	14.294	1207.091	903.378
182.169	14.347	1205.936	902.723
183.183	14.363	1204.819	901.894
184.198	14.339	1204.242	901.250
185.213	14.411	1202.661	900.378
186.227	14.486	1201.792	900.052
187.242	14.392	1200.665	898.621
188.256	14.435	1199.513	897.913
189.271	14.491	1198.819	897.616
190.286	14.417	1197.794	896.371
191.300	14.325	1196.798	895.050
192.315	14.288	1196.415	894.488
193.329	14.405	1195.431	894.300
194.344	14.331	1194.740	893.306
195.359	14.395	1194.409	893.324
196.373	14.444	1193.677	892.957
197.388	14.472	1193.545	892.929
198.402	14.532	1193.065	892.814
199.417	14.634	1191.911	892.418
200.432	14.567	1191.579	891.731
201.446	14.619	1190.692	891.265
202.461	14.690	1189.775	890.880
203.475	14.729	1188.205	889.835
204.490	14.794	1186.943	889.157
205.504	14.673	1186.033	887.755
206.519	14.640	1184.967	886.700
207.534	14.643	1183.849	885.804
208.548	14.592	1183.093	884.889
209.563	14.610	1182.204	884.241
210.577	14.701	1181.161	883.864
211.592	14.606	1180.372	882.689
212.607	14.633	1179.522	882.120
213.621	14.749	1178.764	882.091
214.636	14.758	1177.846	881.372
215.650	14.832	1176.821	880.916
216.665	14.796	1175.978	880.018
217.680	14.873	1175.059	879.657
218.694	14.828	1174.316	878.783
219.709	14.807	1173.898	878.286
220.723	14.885	1172.841	877.827
221.738	14.869	1172.117	877.121
222.753	14.886	1170.917	876.235
223.767	14.853	1170.609	875.754
224.782	14.987	1169.616	875.638
225.796	14.983	1169.507	875.455
226.811	15.073	1168.316	874.957
227.826	14.919	1167.867	873.741
228.840	14.954	1166.933	873.144
229.855	15.003	1166.639	873.107
230.869	14.939	1165.740	872.020
231.884	15.051	1164.452	871.563
232.899	14.918	1164.076	870.515
233.913	14.932	1163.288	869.916
234.928	15.042	1162.309	869.680
235.942	15.101	1161.744	869.487
236.957	14.909	1161.011	867.864
237.972	14.950	1160.724	867.787
238.986	14.941	1160.178	867.258
240.001	15.064	1159.148	867.047
241.015	14.974	1158.027	865.665
242.030	15.043	1157.120	865.266
243.045	15.120	1156.545	865.158
244.059	15.080	1155.941	864.425
245.074	15.211	1155.097	864.390
246.088	15.183	1154.123	863.442
247.103	15.156	1153.281	862.598
248.117	15.191	1153.279	862.700
249.132	15.199	1152.160	861.828
250.147	15.302	1151.530	861.808
251.161	15.340	1150.598	861.232
252.176	15.278	1149.873	860.291
253.190	15.442	1149.320	860.642
254.205	15.371	1148.802	859.818
255.220	15.510	1147.838	859.728
256.234	15.587	1147.003	859.424
257.249	15.471	1146.635	858.480
258.263	15.555	1145.985	858.343
259.278	15.542	1145.569	857.889
260.293	15.451	1145.354	857.189
261.307	15.536	1144.702	857.058
262.322	15.562	1144.018	856.602
263.336	15.651	1142.620	855.934
264.351	15.597	1142.325	855.365
265.366	15.705	1141.799	855.443
266.380	15.776	1140.657	854.874
267.395	15.694	1140.202	854.041
268.409	15.669	1139.565	853.360
269.424	15.560	1139.198	852.456
270.439	15.726	1137.872	852.230
271.453	15.690	1137.124	851.414
272.468	15.693	1136.274	850.715
273.482	15.632	1136.318	850.363
274.497	15.619	1135.468	849.587
275.512	15.690	1134.758	849.342
276.526	15.803	1133.838	849.148
277.541	15.718	1133.125	848.110
278.555	15.859	1132.203	848.055
279.570	15.848	1131.771	847.598
280.585	15.783	1131.191	846.763
281.599	15.829	1130.082	846.087
282.614	15.820	1128.899	845.082
283.628	15.805	1127.994	844.256
284.643	15.913	1127.027	844.001
285.657	15.934	1126.241	843.443
286.672	15.958	1125.473	842.910
287.687	16.020	1124.213	842.201
288.701	15.860	1124.119	841.257
289.716	15.873	1123.085	840.476
290.730	15.915	1122.344	840.057
291.745	15.929	1121.831	839.668
292.760	16.028	1120.725	839.260
293.774	16.033	1120.375	838.947
294.789	16.066	1120.133	838.855
295.803	16.072	1119.217	838.123
296.818	16.078	1118.270	837.372
297.833	16.051	1117.580	836.646
298.847	16.139	1116.879	836.483
299.862	16.163	1116.158	835.987
300.876	16.013	1115.736	834.855
301.891	16.208	1114.673	834.950
302.906	16.201	1114.368	834.617
303.920	16.219	1113.784	834.191
304.935	16.224	1112.867	833.459
305.949	16.390	1112.126	833.648
306.964	16.305	1111.166	832.436
307.979	16.269	1110.940	832.016
308.993	16.223	1109.988	831.000
310.008	16.275	1109.215	830.606
311.022	16.247	1108.223	829.652
312.037	16.274	1107.745	829.355
313.052	16.279	1106.702	828.521
314.066	16.368	1105.585	828.049
315.081	16.450	1105.015	827.949
316.095	16.249	1104.749	826.694
317.110	16.372	1103.440	826.243
318.125	16.374	1103.207	826.007
319.139	16.271	1102.243	824.705
320.154	16.406	1101.604	824.816
321.168	16.212	1101.250	823.530
322.183	16.371	1100.470	823.649
323.197	16.284	1100.157	822.918
324.212	16.352	1099.355	822.575
325.227	16.320	1099.000	822.081
326.241	16.399	1098.198	821.794
327.256	16.408	1097.292	821.089
328.270	16.444	1096.045	820.254
329.285	16.271	1095.929	819.256
330.300	16.476	1094.533	819.133
331.314	16.601	1093.276	818.729
332.329	16.476	1092.632	817.569
333.343	16.537	1091.805	817.173
334.358	16.594	1090.917	816.710
335.373	16.516	1090.310	815.804
336.387	16.667	1089.273	815.687
337.402	16.642	1089.051	815.327
338.416	16.604	1087.773	814.113
339.431	16.677	1087.537	814.219
340.446	16.660	1086.885	813.576
341.460	16.552	1086.402	812.625
342.475	16.749	1085.373	812.727
343.489	16.832	1084.374	812.305
344.504	16.769	1083.417	811.214
345.519	16.879	1083.017	811.368
346.533	16.893	1082.106	810.684
347.548	16.927	1080.941	809.902
348.562	16.903	1080.368	809.284
349.577	16.906	1079.925	808.897
350.592	16.925	1078.838	808.100
351.606	16.884	1078.365	807.477
352.621	16.862	1077.876	806.935
353.635	16.966	1077.015	806.717
354.650	16.841	1076.077	805.349
355.665	16.823	1075.379	804.671
356.679	16.809	1075.095	804.317
357.694	16.997	1074.075	804.377
358.708	17.008	1073.566	803.976
359.723	16.942	1073.064	803.216
360.738	16.993	1072.615	803.050
361.752	16.951	1072.004	802.324
362.767	16.948	1071.341	801.744
363.781	17.045	1070.830	801.744
364.796	17.161	1070.252	801.789
365.810	17.057	1069.785	800.878
366.825	17.068	1069.235	800.447
367.840	17.129	1068.665	800.237
368.854	17.209	1067.527	799.690
369.869	17.188	1067.227	799.299
370.883	17.184	1066.420	798.603
371.898	17.145	1065.378	797.572
372.913	17.064	1065.239	797.014
373.927	17.077	1064.949	796.786
374.942	17.279	1064.022	796.969
375.956	17.289	1063.378	796.465
376.971	17.283	1062.569	795.759
377.986	17.250	1062.346	795.370
379.000	17.300	1061.413	794.836
380.015	17.419	1061.158	795.128
381.029	17.251	1060.732	793.956
382.044	17.384	1059.846	793.841
383.059	17.497	1058.952	793.628
384.073	17.503	1058.200	793.021
385.088	17.373	1057.417	791.758
386.102	17.420	1056.514	791.230
387.117	17.365	1055.266	789.970
388.132	17.375	1054.526	789.393
389.146	17.421	1053.729	788.944
390.161	17.431	1053.329	788.620
391.175	17.521	1052.183	788.106
392.190	17.498	1051.529	787.442
393.205	17.637	1050.936	787.570
394.219	17.627	1050.277	786.959
395.234	17.572	1049.445	786.015
396.248	17.583	1048.229	785.084
397.263	17.550	1047.571	784.368
398.278	17.536	1046.716	783.596
399.292	17.592	1045.812	783.105
400.307	17.522	1045.698	782.630
401.321	17.510	1044.756	781.804
402.336	17.593	1044.111	781.630
403.350	17.586	1043.657	781.189
404.365	17.545	1042.776	780.273
405.380	17.623	1042.097	780.054
406.394	17.731	1041.002	779.656
407.409	17.787	1040.494	779.465
408.423	17.828	1039.932	779.160
409.438	17.734	1039.017	777.979
410.453	17.746	1038.856	777.845
411.467	17.825	1037.805	777.348
412.482	17.946	1037.261	777.425
413.496	17.954	1036.558	776.865
414.511	17.880	1036.121	776.129
415.526	17.905	1035.532	775.737
416.540	17.838	1035.410	775.270
417.555	17.952	1034.675	775.168
418.569	17.914	1034.531	774.819
419.584	18.011	1033.781	774.632
420.599	18.014	1033.251	774.180
421.613	106.317	1323.970	1474.720
422.628	97.442	1366.285	1474.802
