DTS Sentinel unit serial number:	SN413079Multiplexer serial number:	ORYXHardware model number:	OX4-SRSoftware version number:	ORYX F/W v4.00 Oryx Data Collector v3.7.2.0data status	okinstallation	princeton_trtdifferential loss correction	single-endedforward channel	channel 2reverse channel	N/Adate	2019/09/15time	04:31:35forward acquisition time	60.00reverse acquisition time	0.00gamma	496.2192k internal	0.2325k external	0.2325temperature offset calibration	1.0027default loss term (dB/km)	0.3790temperature slope calibration	1.0000multiplexer offset coefficient	1.0000multiplexer slope coefficient	1.0000fibre end	0.00T internal ref (°C)	30.87T ext. ref 1 (°C)	4.65T ext. ref 2 (°C)	25.48length (m)	temperature (°C)	Stokes	anti-Stokes-747.200	446.216	0.091	-0.201
-746.185	25.319	0.175	0.147
-745.171	-200.000	0.054	-0.337
-744.156	290.284	-0.112	0.205
-743.142	33.965	-0.080	0.070
-742.127	556.720	-0.088	0.215
-741.112	-200.000	-0.026	0.532
-740.098	56.456	-0.158	0.155
-739.083	-200.000	0.077	0.343
-738.069	-148.628	0.199	0.016
-737.054	-200.000	0.013	-0.391
-736.039	-149.908	-0.283	-0.022
-735.025	85.040	-0.125	0.139
-734.010	60.508	0.073	0.073
-732.996	118.994	-0.254	-0.317
-731.981	-200.000	0.036	-0.241
-730.966	-194.476	0.109	-0.001
-729.952	29.881	-0.146	-0.125
-728.937	-200.000	-0.004	-0.197
-727.923	-108.518	-0.383	-0.083
-726.908	-106.721	-0.165	-0.037
-725.894	-146.964	-0.486	-0.042
-724.879	79.951	0.138	-0.149
-723.864	123.139	-0.086	0.108
-722.850	-200.000	-0.013	0.075
-721.835	1.244	-0.157	-0.114
-720.821	146.312	0.189	-0.256
-719.806	-200.000	-0.093	-0.434
-718.791	673.376	0.075	-0.195
-717.777	-200.000	0.045	-0.200
-716.762	-48.492	0.135	0.065
-715.748	-160.338	0.267	-0.014
-714.733	-147.623	-0.236	0.020
-713.718	9.234	0.125	0.095
-712.704	38.558	-0.074	0.066
-711.689	-160.449	0.267	0.014
-710.675	800.000	-0.105	-0.303
-709.660	-8.670	0.226	-0.153
-708.645	-200.000	-0.008	-0.194
-707.631	-28.926	-0.092	0.053
-706.616	46.452	-0.232	-0.217
-705.602	-129.071	-0.275	0.039
-704.587	-65.141	0.114	-0.046
-703.572	-83.515	0.215	0.069
-702.558	-200.000	0.031	0.288
-701.543	352.925	-0.204	-0.407
-700.529	800.000	0.009	-0.031
-699.514	-52.744	0.059	0.027
-698.499	-43.059	-0.211	-0.108
-697.485	-200.000	-0.120	-0.001
-696.470	318.109	0.118	-0.225
-695.456	-200.000	0.026	-0.268
-694.441	-200.000	0.005	-0.039
-693.426	-200.000	-0.029	-0.130
-692.412	-200.000	-0.004	0.051
-691.397	498.959	0.101	0.234
-690.383	70.677	0.158	-0.165
-689.368	349.128	0.067	0.132
-688.354	800.000	0.044	0.141
-687.339	-200.000	0.024	0.194
-686.324	-167.767	0.231	-0.009
-685.310	-200.000	-0.033	-0.153
-684.295	-59.014	0.182	-0.079
-683.281	67.880	-0.059	0.060
-682.266	-200.000	0.014	-0.086
-681.251	-72.425	0.289	-0.108
-680.237	772.168	-0.119	0.327
-679.222	474.546	-0.011	-0.026
-678.208	142.598	0.134	0.179
-677.193	-200.000	-0.020	-0.344
-676.178	-200.000	0.061	-0.339
-675.164	381.244	0.135	-0.278
-674.149	261.700	-0.168	-0.292
-673.135	-200.000	0.050	-0.294
-672.120	113.950	0.167	0.205
-671.105	150.396	0.176	-0.241
-670.091	-107.311	-0.354	0.078
-669.076	-42.884	-0.302	-0.154
-668.062	195.685	-0.069	0.105
-667.047	-200.000	0.034	0.177
-666.032	-32.237	-0.258	-0.145
-665.018	216.810	-0.113	0.181
-664.003	-200.000	-0.007	0.132
-662.989	-123.673	0.280	-0.045
-661.974	153.190	0.073	0.100
-660.959	239.753	0.057	-0.096
-659.945	-180.828	-0.036	-0.001
-658.930	-200.000	-0.039	-0.209
-657.916	800.000	-0.062	-0.208
-656.901	-164.414	0.166	0.008
-655.886	-189.378	-0.164	0.002
-654.872	-141.778	0.242	0.024
-653.857	-72.569	-0.069	0.026
-652.843	-55.019	-0.295	-0.134
-651.828	-64.144	-0.203	-0.083
-650.814	129.380	0.136	-0.174
-649.799	-122.673	-0.278	0.045
-648.784	-66.403	0.057	0.023
-647.770	-61.333	-0.325	0.138
-646.755	-23.767	-0.244	-0.147
-645.741	369.972	0.043	0.088
-644.726	68.793	-0.251	0.259
-643.711	-75.923	-0.133	-0.047
-642.697	320.284	0.113	0.215
-641.682	-200.000	0.004	0.081
-640.668	54.782	-0.142	-0.138
-639.653	36.482	0.204	-0.181
-638.638	-86.231	-0.231	-0.072
-637.624	-200.000	0.014	0.138
-636.609	-88.427	-0.211	0.063
-635.595	203.421	-0.124	-0.192
-634.580	-64.253	-0.116	-0.047
-633.565	643.765	-0.029	0.074
-632.551	-178.316	-0.268	0.006
-631.536	414.163	-0.052	-0.112
-630.522	-101.315	0.056	0.014
-629.507	-70.923	0.355	0.134
-628.492	266.796	0.054	0.096
-627.478	222.492	0.042	-0.067
-626.463	-149.438	0.163	0.013
-625.449	-97.469	-0.271	-0.071
-624.434	641.527	-0.048	0.124
-623.419	800.000	-0.094	-0.392
-622.405	406.248	-0.047	0.099
-621.390	-121.397	-0.360	-0.060
-620.376	800.000	0.037	0.112
-619.361	203.690	0.127	0.197
-618.346	262.041	-0.005	0.009
-617.332	-200.000	0.059	-0.381
-616.317	800.000	0.031	0.096
-615.303	-121.742	0.200	0.033
-614.288	-200.000	-0.021	0.113
-613.273	-73.613	0.144	-0.053
-612.259	298.016	-0.033	0.060
-611.244	625.464	-0.040	0.101
-610.230	-76.936	0.172	0.060
-609.215	-165.821	0.275	0.012
-608.201	21.780	0.076	0.062
-607.186	-200.000	0.014	-0.324
-606.171	-68.687	-0.040	-0.016
-605.157	10.493	-0.249	-0.190
-604.142	-57.398	-0.047	-0.021
-603.128	-153.430	0.362	-0.025
-602.113	-101.854	0.390	0.095
-601.098	-119.208	-0.035	0.006
-600.084	69.325	-0.114	-0.117
-599.069	-42.667	-0.166	0.085
-598.055	524.614	0.163	0.384
-597.040	-140.015	0.144	-0.015
-596.025	651.405	-0.145	-0.372
-595.011	463.680	0.087	0.195
-593.996	306.900	0.067	0.126
-592.982	-200.000	-0.010	0.318
-591.967	-127.427	0.229	-0.033
-590.952	-200.000	0.040	0.260
-589.938	52.130	-0.236	0.225
-588.923	124.265	-0.116	0.147
-587.909	800.000	-0.031	0.090
-586.894	-78.465	-0.101	0.035
-585.879	19.243	0.096	0.077
-584.865	-54.632	-0.385	-0.175
-583.850	45.378	-0.216	-0.200
-582.836	800.000	-0.035	-0.098
-581.821	65.347	0.130	0.132
-580.806	-155.648	-0.191	0.012
-579.792	27.430	-0.173	-0.146
-578.777	-131.276	0.045	-0.006
-577.763	153.966	0.100	-0.138
-576.748	203.893	0.075	-0.117
-575.733	-131.528	-0.346	0.046
-574.719	800.000	-0.036	-0.116
-573.704	530.694	-0.106	-0.251
-572.690	268.435	0.050	0.088
-571.675	153.936	-0.051	-0.071
-570.661	-200.000	0.051	-0.377
-569.646	-134.100	-0.098	-0.012
-568.631	284.152	0.126	0.228
-567.617	265.890	-0.247	-0.432
-566.602	-200.000	0.048	-0.215
-565.588	260.841	0.047	0.081
-564.573	32.904	0.040	0.034
-563.558	-111.368	0.238	-0.049
-562.544	800.000	0.137	-0.384
-561.529	-96.173	0.297	-0.079
-560.515	-104.219	0.437	0.102
-559.500	800.000	0.022	-0.081
-558.485	97.507	0.115	0.132
-557.471	-100.446	0.137	0.034
-556.456	-101.511	-0.095	0.023
-555.442	-200.000	-0.046	-0.202
-554.427	-68.202	-0.186	-0.073
-553.412	-18.488	0.234	-0.146
-552.398	-164.276	-0.526	0.024
-551.383	-200.000	0.051	-0.338
-550.369	445.891	-0.054	0.119
-549.354	111.281	0.094	-0.114
-548.339	-1.844	-0.121	-0.085
-547.325	-10.157	-0.064	0.042
-546.310	-200.000	0.014	0.150
-545.296	124.413	0.118	-0.149
-544.281	76.060	-0.279	-0.296
-543.266	0.438	0.224	-0.160
-542.252	-137.097	-0.262	-0.030
-541.237	800.000	-0.092	0.254
-540.223	-140.867	0.315	-0.032
-539.208	-89.084	-0.247	-0.073
-538.193	-83.803	-0.291	0.093
-537.179	-149.545	0.301	0.024
-536.164	137.377	0.095	-0.125
-535.150	-96.338	-0.256	0.068
-534.135	800.000	-0.008	-0.029
-533.121	126.081	0.098	-0.124
-532.106	-7.452	-0.123	-0.084
-531.091	-76.628	-0.148	-0.052
-530.077	-200.000	-0.014	0.086
-529.062	-48.349	-0.261	0.126
-528.048	-200.000	0.045	0.307
-527.033	-200.000	-0.008	0.220
-526.018	-36.091	0.232	-0.126
-525.004	-93.717	0.102	-0.028
-523.989	-101.281	0.297	0.073
-522.975	-23.242	0.138	0.083
-521.960	800.000	-0.069	-0.255
-520.945	-200.000	0.033	-0.268
-519.931	120.837	-0.092	0.114
-518.916	89.423	0.307	0.343
-517.902	690.071	-0.084	-0.219
-516.887	-200.000	-0.037	0.437
-515.872	41.811	-0.068	-0.061
-514.858	-200.000	-0.011	0.116
-513.843	800.000	-0.106	-0.409
-512.829	20.712	-0.089	-0.072
-511.814	210.243	0.103	-0.161
-510.799	33.062	-0.114	-0.098
-509.785	130.380	-0.131	0.167
-508.770	112.726	-0.112	0.136
-507.756	-200.000	0.032	-0.228
-506.741	332.831	-0.104	0.201
-505.726	-38.927	0.216	0.113
-504.712	113.858	-0.123	0.150
-503.697	-158.761	-0.096	-0.005
-502.683	800.000	-0.064	0.230
-501.668	-77.331	0.165	0.057
-500.653	-200.000	-0.010	0.221
-499.639	100.843	0.089	-0.103
-498.624	-74.036	-0.450	-0.163
-497.610	282.682	0.046	0.082
-496.595	33.607	0.170	0.147
-495.581	-76.173	-0.115	0.040
-494.566	800.000	-0.047	0.172
-493.551	260.625	-0.085	0.147
-492.537	-200.000	0.063	-0.282
-491.522	27.316	-0.471	-0.396
-490.508	454.457	0.196	-0.434
-489.493	-168.469	0.481	-0.018
-488.478	479.350	0.103	0.232
-487.464	-72.690	-0.148	-0.054
-486.449	-200.000	-0.012	0.192
-485.435	-68.352	0.144	0.056
-484.420	299.763	-0.202	0.371
-483.405	608.695	-0.041	0.101
-482.391	-86.904	-0.253	0.077
-481.376	-200.000	0.006	-0.090
-480.362	-6.615	-0.148	0.101
-479.347	37.166	-0.331	0.292
-478.332	160.740	-0.140	-0.196
-477.318	-130.024	0.381	0.052
-476.303	-187.226	0.332	0.005
-475.289	-200.000	0.007	0.178
-474.274	163.499	-0.119	-0.167
-473.259	418.735	-0.096	-0.206
-472.245	-21.270	-0.059	0.036
-471.230	-54.035	-0.250	0.114
-470.216	333.404	-0.104	-0.201
-469.201	-200.000	-0.022	-0.209
-468.186	-156.491	-0.235	0.015
-467.172	-61.552	-0.298	-0.125
-466.157	447.629	-0.068	-0.150
-465.143	643.814	-0.039	0.100
-464.128	800.000	0.032	-0.137
-463.113	-192.146	0.061	-0.001
-462.099	398.179	0.078	0.163
-461.084	88.785	0.133	0.148
-460.070	-118.878	-0.103	0.018
-459.055	-92.017	-0.196	0.055
-458.040	65.177	-0.083	-0.083
-457.026	111.251	-0.215	0.258
-456.011	403.801	-0.066	0.139
-454.997	153.255	-0.169	-0.230
-453.982	99.959	0.402	0.464
-452.968	-8.583	-0.344	0.231
-451.953	30.914	0.071	0.061
-450.938	-200.000	-0.016	-0.101
-449.924	-200.000	-0.003	-0.013
-448.909	-151.904	0.179	-0.013
-447.895	-116.593	-0.159	0.029
-446.880	-53.822	0.046	0.021
-445.865	25.398	-0.091	-0.076
-444.851	-72.683	0.204	-0.075
-443.836	79.589	-0.031	0.033
-442.822	-93.552	0.309	0.085
-441.807	81.394	-0.068	0.073
-440.792	-46.722	0.114	0.056
-439.778	-43.492	0.240	-0.121
-438.763	14.974	0.177	0.138
-437.749	316.865	0.098	0.184
-436.734	-42.351	-0.174	0.088
-435.719	117.194	0.058	0.071
-434.705	260.385	0.112	-0.194
-433.690	29.016	-0.232	-0.196
-432.676	-149.242	-0.188	0.015
-431.661	-57.435	-0.251	0.110
-430.646	-4.033	0.084	-0.058
-429.632	109.967	-0.202	-0.242
-428.617	104.300	0.129	-0.152
-427.603	800.000	0.071	0.263
-426.588	-200.000	-0.055	0.298
-425.573	-161.763	-0.083	-0.004
-424.559	65.204	-0.174	0.175
-423.544	-200.000	0.039	0.375
-422.530	-200.000	-0.045	-0.255
-421.515	-158.213	-0.432	-0.025
-420.500	-118.442	-0.296	0.052
-419.486	-49.080	0.134	0.064
-418.471	-82.910	0.134	0.043
-417.457	771.858	-0.132	-0.358
-416.442	-84.600	-0.097	-0.030
-415.428	-71.819	0.298	-0.111
-414.413	59.946	-0.079	-0.078
-413.398	-200.000	-0.009	0.162
-412.384	-97.066	0.080	0.021
-411.369	36.060	0.235	-0.206
-410.355	-200.000	-0.001	-0.014
-409.340	-34.072	0.134	0.073
-408.325	800.000	-0.086	0.314
-407.311	-60.851	-0.172	0.072
-406.296	154.964	0.082	0.112
-405.282	-7.216	0.207	0.140
-404.267	405.971	0.136	0.286
-403.252	800.000	0.051	0.181
-402.238	-52.470	-0.056	-0.026
-401.223	-200.000	-0.013	0.176
-400.209	-74.872	0.098	0.035
-399.194	475.898	0.220	-0.496
-398.179	423.052	0.013	0.028
-397.165	-200.000	-0.203	0.001
-396.150	93.368	-0.031	0.035
-395.136	-178.632	0.205	-0.005
-394.121	-125.016	-0.384	-0.059
-393.106	-139.779	0.329	0.035
-392.092	-200.000	0.342	-0.001
-391.077	61.227	-0.056	-0.055
-390.063	800.000	0.055	0.174
-389.048	722.871	0.043	0.115
-388.033	352.133	0.056	-0.110
-387.019	-13.566	-0.098	-0.063
-386.004	-200.000	0.002	0.068
-384.990	81.203	0.090	-0.097
-383.975	515.374	0.142	-0.329
-382.960	91.035	-0.132	-0.147
-381.946	196.563	-0.141	0.214
-380.931	107.419	0.236	0.279
-379.917	-179.489	0.197	-0.004
-378.902	302.748	-0.175	0.322
-377.888	189.141	-0.127	0.189
-376.873	-200.000	0.005	0.231
-375.858	-85.041	0.360	-0.112
-374.844	-6.500	-0.225	-0.153
-373.829	-20.319	-0.162	-0.099
-372.815	-92.198	-0.486	0.136
-371.800	415.963	-0.260	0.551
-370.785	-200.000	-0.025	-0.180
-369.771	-107.536	-0.093	0.020
-368.756	455.947	-0.109	-0.240
-367.742	166.784	-0.199	0.281
-366.727	-1.137	0.182	0.128
-365.712	-97.435	0.412	-0.107
-364.698	194.614	-0.189	-0.285
-363.683	266.893	0.146	-0.253
-362.669	-200.000	0.101	0.490
-361.654	-200.000	0.021	-0.262
-360.639	101.868	-0.179	0.208
-359.625	-100.699	0.308	0.075
-358.610	299.690	0.066	-0.120
-357.596	252.929	-0.103	-0.174
-356.581	-150.574	-0.087	0.007
-355.566	474.378	-0.104	0.234
-354.552	800.000	-0.005	-0.015
-353.537	-74.944	0.216	-0.077
-352.523	314.646	0.023	-0.042
-351.508	418.308	-0.118	-0.251
-350.493	121.559	0.238	0.295
-349.479	-200.000	0.082	-0.378
-348.464	-7.575	-0.095	-0.064
-347.450	-200.000	0.019	-0.153
-346.435	-200.000	0.050	-0.254
-345.420	-33.849	-0.125	0.068
-344.406	-200.000	-0.035	0.156
-343.391	800.000	-0.027	-0.089
-342.377	461.868	-0.118	-0.262
-341.362	103.400	-0.158	0.184
-340.348	-200.000	0.030	0.275
-339.333	-11.600	-0.130	0.085
-338.318	49.609	-0.234	0.219
-337.304	-78.098	-0.174	0.059
-336.289	-200.000	-0.027	-0.262
-335.275	800.000	-0.124	0.377
-334.260	160.097	0.141	-0.195
-333.245	-200.000	-0.038	0.286
-332.231	710.211	0.066	-0.174
-331.216	-84.963	-0.420	0.131
-330.202	-200.000	-0.022	0.137
-329.187	-54.046	0.191	-0.086
-328.172	571.402	0.070	-0.169
-327.158	800.000	0.072	-0.239
-326.143	196.764	0.045	-0.068
-325.129	-34.829	0.186	0.101
-324.114	209.866	0.022	0.034
-323.099	-200.000	-0.047	-0.375
-322.085	-149.209	-0.035	-0.003
-321.070	302.389	-0.123	0.226
-320.056	577.132	-0.040	0.098
-319.041	70.079	0.287	0.294
-318.026	-148.505	-0.301	-0.024
-317.012	45.154	0.124	0.113
-315.997	107.250	-0.169	-0.200
-314.983	-3.639	-0.110	0.076
-313.968	475.308	0.147	0.330
-312.953	-140.821	0.248	0.025
-311.939	-71.279	0.211	0.079
-310.924	41.476	0.208	-0.187
-309.910	-200.000	0.031	-0.269
-308.895	-130.889	0.311	-0.041
-307.880	-200.000	0.034	-0.309
-306.866	800.000	0.055	-0.163
-305.851	736.640	-0.037	-0.099
-304.837	800.000	0.015	0.047
-303.822	-200.000	0.048	0.221
-302.807	151.335	0.088	-0.119
-301.793	-200.000	-0.039	-0.230
-300.778	-115.458	-0.152	-0.028
-299.764	363.924	0.157	0.314
-298.749	105.793	0.253	0.297
-297.735	-123.610	-0.107	-0.017
-296.720	-71.116	0.321	0.120
-295.705	63.935	0.160	0.160
-294.691	800.000	-0.049	0.171
-293.676	-200.000	-0.011	-0.106
-292.662	800.000	0.084	-0.229
-291.647	-200.000	-0.042	0.296
-290.632	-94.341	-0.371	0.101
-289.618	-181.680	0.090	-0.002
-288.603	800.000	0.100	0.283
-287.589	-106.141	0.288	0.064
-286.574	-105.722	-0.191	0.043
-285.559	-36.768	-0.106	0.057
-284.545	-153.476	-0.134	0.009
-283.530	214.106	0.220	-0.345
-282.516	800.000	0.027	0.096
-281.501	72.026	-0.055	0.057
-280.486	-22.960	0.119	0.071
-279.472	-17.171	0.327	-0.204
-278.457	-200.000	-0.047	-0.225
-277.443	-14.714	0.281	-0.179
-276.428	-94.759	0.150	0.040
-275.413	30.239	0.367	0.310
-274.399	12.706	-0.197	-0.150
-273.384	2.449	-0.247	-0.177
-272.370	-78.607	-0.118	0.040
-271.355	-172.231	0.194	-0.006
-270.340	-34.608	-0.099	-0.054
-269.326	20.267	0.263	-0.211
-268.311	-47.655	0.085	-0.041
-267.297	120.091	0.039	0.048
-266.282	-95.956	-0.129	0.034
-265.267	47.724	-0.112	-0.103
-264.253	-99.314	-0.069	0.017
-263.238	502.998	0.061	0.139
-262.224	-23.267	0.031	0.018
-261.209	-71.191	0.128	0.048
-260.195	-39.945	0.333	-0.172
-259.180	-84.481	-0.271	0.085
-258.165	313.734	-0.151	0.281
-257.151	-200.000	0.044	-0.197
-256.136	166.197	-0.091	-0.127
-255.122	64.822	-0.057	0.057
-254.107	-200.000	-0.006	-0.061
-253.092	47.950	0.200	0.185
-252.078	-200.000	-0.009	0.245
-251.063	-84.002	0.460	-0.145
-250.049	-65.784	0.054	-0.021
-249.034	-24.630	-0.238	-0.140
-248.019	-60.403	0.334	-0.140
-247.005	164.750	0.074	-0.104
-245.990	121.923	-0.098	0.121
-244.976	-58.792	0.133	-0.057
-243.961	222.782	0.059	0.095
-242.946	-140.174	-0.305	-0.032
-241.932	294.078	0.064	-0.115
-240.917	4.630	0.213	-0.154
-239.903	-200.000	0.068	-0.299
-238.888	-42.977	-0.246	-0.123
-237.873	190.590	-0.126	-0.187
-236.859	-200.000	0.075	-0.546
-235.844	-148.900	0.111	-0.009
-234.830	-122.602	-0.217	-0.035
-233.815	209.022	-0.053	0.081
-232.800	-200.000	0.026	0.131
-231.786	-93.095	-0.275	-0.076
-230.771	122.523	-0.138	0.171
-229.757	122.792	0.084	-0.104
-228.742	392.819	0.103	0.212
-227.727	800.000	0.053	-0.198
-226.713	109.773	-0.174	-0.206
-225.698	89.113	0.115	-0.127
-224.684	-122.897	-0.397	-0.063
-223.669	-142.790	0.150	0.014
-222.655	-172.756	-0.228	-0.007
-221.640	-200.000	-0.035	0.300
-220.625	230.669	0.088	-0.143
-219.611	51.584	-0.294	-0.276
-218.596	-33.294	0.343	-0.188
-217.582	115.426	0.079	0.096
-216.567	13.878	0.154	-0.118
-215.552	40.851	0.260	-0.232
-214.538	-200.000	0.025	-0.111
-213.523	155.331	0.200	-0.272
-212.509	800.000	0.052	-0.197
-211.494	174.676	0.111	0.159
-210.479	-95.074	0.128	-0.034
-209.465	22.604	-0.104	-0.084
-208.450	503.993	-0.111	-0.254
-207.436	110.167	-0.020	0.024
-206.421	725.873	-0.048	0.126
-205.406	800.000	-0.042	-0.130
-204.392	-200.000	0.057	0.274
-203.377	-140.752	0.278	0.028
-202.363	160.161	0.098	-0.135
-201.348	-33.229	-0.115	-0.063
-200.333	169.678	-0.168	0.237
-199.319	-73.850	-0.175	-0.063
-198.304	-73.917	0.120	0.043
-197.290	38.931	0.061	0.054
-196.275	671.935	0.119	-0.306
-195.260	54.303	-0.173	-0.165
-194.246	-83.722	-0.247	-0.078
-193.231	-144.811	0.061	0.005
-192.217	136.993	0.119	0.154
-191.202	-59.854	-0.203	-0.086
-190.187	-94.688	0.114	-0.031
-189.173	-58.181	0.303	0.131
-188.158	-33.333	0.160	-0.088
-187.144	-42.065	0.285	0.144
-186.129	-47.948	0.011	0.005
-185.114	389.240	-0.059	0.121
-184.100	800.000	-0.112	0.468
-183.085	-200.000	-0.007	0.088
-182.071	-77.751	0.228	0.078
-181.056	800.000	0.020	-0.075
-180.042	-134.901	0.164	0.020
-179.027	494.064	0.113	0.256
-178.012	-26.954	0.384	0.221
-176.998	0.117	0.053	0.037
-175.983	500.927	-0.115	-0.262
-174.969	314.127	0.067	-0.125
-173.954	134.083	0.143	0.182
-172.939	9.267	0.152	0.113
-171.925	633.909	0.078	0.196
-170.910	81.406	-0.227	0.242
-169.896	258.410	-0.121	-0.206
-168.881	230.866	0.031	0.050
-167.866	408.183	-0.105	-0.218
-166.852	-200.000	0.021	0.195
-165.837	4.408	-0.258	-0.187
-164.823	-65.433	0.132	-0.052
-163.808	-200.000	0.072	0.346
-162.793	-200.000	0.025	0.252
-161.779	-60.873	-0.247	0.103
-160.764	-200.000	0.019	-0.168
-159.750	-84.892	0.289	0.089
-158.735	48.516	0.218	0.202
-157.720	345.881	0.054	-0.105
-156.706	-59.314	-0.191	0.081
-155.691	-200.000	0.088	-0.449
-154.677	78.378	-0.281	-0.296
-153.662	56.327	-0.029	-0.028
-152.647	800.000	-0.017	0.065
-151.633	-89.946	-0.154	-0.044
-150.618	-39.886	-0.058	0.030
-149.604	-81.066	0.175	-0.057
-148.589	15.036	-0.119	0.092
-147.574	-144.394	-0.265	-0.024
-146.560	800.000	-0.086	-0.307
-145.545	-46.930	-0.177	0.085
-144.531	236.422	-0.053	0.087
-143.516	501.825	0.111	-0.254
-142.502	-200.000	0.014	0.331
-141.487	-84.246	-0.151	0.047
-140.472	800.000	0.142	0.388
-139.458	316.502	-0.141	-0.262
-138.443	-162.422	-0.125	0.006
-137.429	-161.597	0.401	-0.020
-136.414	-10.367	-0.182	-0.119
-135.399	-58.647	-0.173	-0.074
-134.385	298.568	0.025	0.045
-133.370	-200.000	-0.005	0.115
-132.356	134.398	-0.126	-0.161
-131.341	-11.958	-0.085	-0.055
-130.326	-42.940	0.219	0.109
-129.312	-186.130	0.355	0.005
-128.297	-17.541	0.082	0.051
-127.283	31.691	0.359	-0.304
-126.268	67.652	-0.158	0.159
-125.253	-5.315	0.117	-0.079
-124.239	-12.542	0.249	-0.160
-123.224	-200.000	0.016	-0.123
-122.210	13.244	-0.143	0.109
-121.195	96.219	-0.042	0.047
-120.180	85.934	0.074	0.081
-119.166	-137.196	0.063	0.007
-118.151	-200.000	0.037	0.223
-117.137	784.106	0.035	-0.094
-116.122	800.000	-0.070	-0.250
-115.107	-19.165	-0.356	-0.218
-114.093	-14.386	-0.299	0.190
-113.078	372.886	0.081	-0.161
-112.064	512.891	-0.045	0.104
-111.049	-113.550	-0.342	0.066
-110.034	794.563	0.102	-0.277
-109.020	-55.344	-0.103	-0.045
-108.005	504.713	0.120	-0.273
-106.991	-110.236	0.065	0.013
-105.976	800.000	0.120	-0.375
-104.962	800.000	0.079	-0.238
-103.947	-57.237	0.290	0.126
-102.932	27.047	-0.197	-0.163
-101.918	-200.000	0.066	0.358
-100.903	-39.017	0.134	-0.069
-99.889	364.528	0.142	0.282
-98.874	-200.000	-0.045	-0.310
-97.859	-92.745	0.174	-0.048
-96.845	416.243	-0.033	-0.069
-95.830	648.592	0.063	0.159
-94.816	85.892	-0.086	-0.093
-93.801	34.978	0.029	0.025
-92.786	-123.831	0.071	-0.011
-91.772	27.374	-0.360	0.298
-90.757	-200.000	-0.043	0.248
-89.743	-148.283	0.167	0.014
-88.728	495.187	-0.038	0.086
-87.713	-200.000	0.021	0.150
-86.699	106.098	0.168	-0.196
-85.684	58.376	-0.186	-0.179
-84.670	-90.674	0.038	0.011
-83.655	46.219	-0.117	0.107
-82.640	-68.181	-0.080	0.030
-81.626	575.330	0.100	0.240
-80.611	-32.779	0.213	-0.117
-79.597	-200.000	-0.014	-0.283
-78.582	-164.506	0.253	0.011
-77.567	97.609	-0.048	-0.055
-76.553	-58.198	0.334	-0.143
-75.538	307.267	0.074	0.136
-74.524	237.635	-0.184	0.301
-73.509	-37.712	-0.256	-0.134
-72.494	-1.274	0.175	0.122
-71.480	-131.615	-0.235	-0.030
-70.465	800.000	0.053	-0.212
-69.451	-200.000	0.031	-0.295
-68.436	-200.000	0.013	0.101
-67.422	-106.060	-0.271	0.060
-66.407	469.024	0.104	-0.229
-65.392	28.780	-0.252	0.210
-64.378	60.409	-0.125	-0.122
-63.363	127.852	-0.132	-0.165
-62.349	-49.714	0.248	0.116
-61.334	102.311	-0.933	-1.071
-60.319	43.466	0.269	0.242
-59.305	-200.000	0.006	-0.931
-58.290	49.658	0.952	0.881
-57.276	255.545	0.891	1.500
-56.261	-200.000	102.224	592.228
-55.246	563.442	1423.793	3385.327
-54.232	188.521	2617.775	3844.802
-53.217	110.345	2278.008	2687.337
-52.203	40.266	1895.612	1674.362
-51.188	34.108	1684.956	1441.754
-50.173	31.559	1640.930	1385.180
-49.159	49.248	1691.685	1561.435
-48.144	50.853	1707.727	1588.244
-47.130	33.709	1667.089	1423.241
-46.115	31.048	1652.520	1390.935
-45.100	30.861	1647.685	1385.422
-44.086	30.793	1645.342	1382.888
-43.071	30.817	1642.198	1380.371
-42.057	30.730	1640.240	1378.026
-41.042	30.813	1638.515	1377.134
-40.027	30.723	1636.128	1374.407
-39.013	30.718	1634.577	1373.018
-37.998	30.706	1632.735	1371.321
-36.984	30.703	1631.958	1370.599
-35.969	30.852	1630.172	1370.139
-34.954	30.833	1628.797	1368.788
-33.940	30.882	1626.904	1367.504
-32.925	30.833	1625.281	1365.722
-31.911	30.898	1623.334	1364.514
-30.896	30.879	1621.682	1362.930
-29.881	30.842	1620.240	1361.393
-28.867	30.840	1618.301	1359.698
-27.852	30.924	1616.670	1358.884
-26.838	30.873	1615.535	1357.500
-25.823	30.877	1614.375	1356.504
-24.809	30.946	1612.572	1355.434
-23.794	30.893	1611.349	1353.969
-22.779	30.964	1609.960	1353.263
-21.765	30.939	1607.995	1351.379
-20.750	30.887	1606.629	1349.802
-19.736	30.926	1605.544	1349.120
-18.721	30.952	1603.461	1347.499
-17.706	30.926	1602.184	1346.186
-16.692	30.855	1600.649	1344.334
-15.677	30.963	1599.161	1343.807
-14.663	30.949	1598.333	1342.955
-13.648	30.914	1596.992	1341.526
-12.633	30.875	1595.282	1339.756
-11.619	30.926	1593.340	1338.439
-10.604	30.903	1592.144	1337.216
-9.590	30.936	1590.724	1336.202
-8.575	30.840	1590.126	1334.958
-7.560	30.898	1588.563	1334.012
-6.546	30.921	1587.643	1333.351
-5.531	30.929	1586.443	1332.350
-4.517	30.924	1585.410	1331.388
-3.502	30.907	1584.305	1330.289
-2.487	30.805	1582.599	1328.077
-1.473	30.698	1570.816	1317.381
-0.458	27.875	1551.321	1281.202
0.556	23.582	1552.055	1250.133
1.571	21.259	1576.030	1252.697
2.586	20.800	1588.502	1259.177
3.600	18.576	1535.318	1201.349
4.615	11.373	1428.730	1070.732
5.629	5.507	1368.578	988.595
6.644	4.721	1361.013	978.102
7.659	4.674	1359.418	976.574
8.673	4.573	1358.542	975.226
9.688	4.633	1356.632	974.146
10.702	4.518	1353.710	971.244
11.717	7.089	1359.464	991.405
12.731	14.100	1372.096	1044.719
13.746	18.740	1378.538	1078.749
14.761	18.704	1377.109	1077.310
15.775	17.635	1374.906	1068.792
16.790	16.591	1371.928	1059.847
17.804	15.741	1369.993	1052.935
18.819	15.307	1368.789	1049.207
19.834	15.138	1367.335	1046.943
20.848	14.924	1366.034	1044.514
21.863	14.731	1364.697	1042.193
22.877	14.649	1363.330	1040.549
23.892	14.618	1362.146	1039.361
24.907	14.507	1361.750	1038.277
25.921	14.542	1360.958	1037.795
26.936	14.494	1360.114	1036.761
27.950	14.583	1358.643	1036.104
28.965	14.726	1358.089	1036.473
29.980	14.705	1356.997	1035.420
30.994	14.827	1355.660	1035.063
32.009	14.898	1354.743	1034.713
33.023	14.845	1353.312	1033.201
34.038	14.887	1352.042	1032.401
35.053	14.735	1350.629	1030.289
36.067	14.763	1349.336	1029.383
37.082	14.621	1349.149	1028.279
38.096	14.829	1347.761	1028.409
39.111	14.746	1347.636	1027.711
40.126	14.664	1346.372	1026.155
41.140	14.573	1345.635	1024.942
42.155	14.590	1344.838	1024.348
43.169	14.403	1345.247	1023.420
44.184	14.395	1344.901	1023.014
45.199	14.455	1344.082	1022.670
46.213	14.485	1343.503	1022.323
47.228	14.645	1342.291	1022.292
48.242	14.706	1341.266	1021.795
49.257	14.614	1339.812	1020.032
50.271	14.699	1338.449	1019.423
51.286	14.662	1337.516	1018.395
52.301	14.675	1335.879	1017.143
53.315	14.629	1334.679	1015.858
54.330	14.551	1333.764	1014.594
55.344	14.498	1332.773	1013.433
56.359	14.520	1331.649	1012.623
57.374	14.565	1330.389	1011.845
58.388	14.536	1329.644	1011.011
59.403	14.270	1329.790	1009.422
60.417	14.375	1328.637	1009.093
61.432	14.395	1328.052	1008.682
62.447	14.316	1326.682	1007.075
63.461	14.304	1325.592	1006.084
64.476	14.305	1324.633	1005.275
65.490	14.293	1323.534	1004.281
66.505	14.376	1321.473	1003.126
67.520	14.368	1320.669	1002.382
68.534	14.406	1319.551	1001.668
69.549	14.448	1318.538	1001.066
70.563	14.288	1317.493	999.225
71.578	14.331	1316.463	998.612
72.593	14.237	1315.685	997.370
73.607	14.177	1315.092	996.474
74.622	14.179	1314.001	995.569
75.636	14.358	1313.152	995.908
76.651	14.258	1312.932	995.056
77.666	14.362	1312.128	994.977
78.680	14.354	1311.521	994.386
79.695	14.308	1311.312	993.862
80.709	14.280	1310.400	992.915
81.724	14.364	1309.588	992.712
82.739	14.497	1308.715	992.754
83.753	14.575	1307.832	992.462
84.768	14.635	1306.815	991.957
85.782	14.669	1305.851	991.339
86.797	14.645	1304.644	990.194
87.812	14.591	1303.011	988.550
88.826	14.582	1302.632	988.117
89.841	14.616	1301.391	987.291
90.855	14.642	1300.479	986.667
91.870	14.744	1299.505	986.444
92.884	14.743	1298.464	985.561
93.899	14.738	1297.905	985.017
94.914	14.845	1296.930	984.823
95.928	14.753	1296.462	983.840
96.943	14.696	1295.276	982.515
97.957	14.707	1294.184	981.662
98.972	14.737	1293.240	981.036
99.987	14.790	1292.189	980.462
101.001	14.694	1291.300	979.138
102.016	14.738	1290.156	978.442
103.030	14.794	1289.383	978.098
104.045	14.685	1288.612	976.790
105.060	14.710	1287.199	975.780
106.074	14.608	1285.863	974.083
107.089	14.466	1284.356	972.029
108.103	14.345	1283.567	970.639
109.118	14.385	1282.233	969.778
110.133	14.355	1280.654	968.325
111.147	14.525	1279.310	968.211
112.162	14.485	1278.213	967.063
113.176	14.365	1277.319	965.603
114.191	14.639	1275.821	965.970
115.206	14.454	1275.404	964.500
116.220	14.578	1273.292	963.534
117.235	14.522	1272.551	962.564
118.249	14.569	1271.774	962.164
119.264	14.471	1270.578	960.606
120.279	14.344	1269.505	958.981
121.293	14.402	1268.600	958.548
122.308	14.418	1267.183	957.483
123.322	14.355	1266.581	956.580
124.337	14.291	1265.330	955.185
125.352	14.396	1264.335	954.951
126.366	14.214	1263.479	953.176
127.381	14.288	1262.236	952.578
128.395	14.397	1261.202	952.336
129.410	14.441	1260.153	951.711
130.424	14.504	1259.513	951.503
131.439	14.530	1258.331	950.675
132.454	14.471	1257.786	949.845
133.468	14.480	1256.954	949.179
134.483	14.536	1255.785	948.533
135.497	14.521	1254.726	947.566
136.512	14.488	1253.679	946.502
137.527	14.563	1252.589	946.023
138.541	14.556	1250.774	944.530
139.556	14.662	1249.308	943.936
140.570	14.736	1248.425	943.602
141.585	14.661	1247.858	942.668
142.600	14.770	1246.776	942.380
143.614	14.822	1246.150	942.118
144.629	14.785	1244.787	940.794
145.643	14.834	1243.754	940.208
146.658	14.848	1241.976	938.860
147.673	14.663	1240.996	937.000
148.687	14.710	1239.981	936.413
149.702	14.605	1238.580	934.683
150.716	14.510	1237.555	933.295
151.731	14.628	1236.139	932.804
152.746	14.672	1235.068	932.162
153.760	14.747	1233.799	931.540
154.775	14.653	1233.127	930.424
155.789	14.687	1231.793	929.526
156.804	14.800	1230.869	929.372
157.819	14.829	1230.376	929.082
158.833	14.875	1229.024	928.234
159.848	14.939	1228.334	927.983
160.862	14.979	1227.094	927.187
161.877	14.774	1226.648	925.632
162.892	14.727	1224.945	924.003
163.906	14.772	1223.995	923.455
164.921	14.618	1223.431	922.100
165.935	14.666	1222.669	921.706
166.950	14.763	1221.904	921.586
167.964	14.841	1220.645	920.983
168.979	14.808	1220.039	920.262
169.994	14.839	1219.008	919.572
171.008	14.872	1218.281	919.127
172.023	14.965	1217.686	919.108
173.037	14.979	1216.894	918.506
174.052	15.033	1216.058	918.089
175.067	14.918	1214.443	916.159
176.081	14.781	1214.201	915.142
177.096	14.664	1213.150	913.627
178.110	14.848	1211.808	913.543
179.125	14.816	1210.632	912.400
180.140	14.672	1210.176	911.191
181.154	14.911	1208.109	910.854
182.169	14.892	1207.570	910.265
183.183	15.038	1206.008	909.803
184.198	15.019	1204.833	908.732
185.213	15.015	1204.220	908.166
186.227	15.081	1203.128	907.619
187.242	15.009	1202.238	906.480
188.256	15.233	1201.200	906.828
189.271	15.207	1200.231	905.875
190.286	14.961	1199.062	903.588
191.300	14.787	1198.505	902.147
192.315	14.739	1197.618	901.141
193.329	14.848	1196.516	900.821
194.344	14.911	1196.583	901.132
195.359	15.014	1195.391	900.704
196.373	15.213	1195.051	901.438
197.388	15.162	1195.144	901.156
198.402	15.232	1194.582	901.030
199.417	15.333	1193.943	901.012
200.432	15.418	1192.818	900.540
201.446	15.307	1192.470	899.597
202.461	15.402	1191.260	899.118
203.475	15.395	1190.138	898.152
204.490	15.331	1188.929	896.820
205.504	15.266	1187.944	895.651
206.519	15.289	1186.521	894.619
207.534	15.223	1185.480	893.406
208.548	15.289	1184.649	893.050
209.563	15.349	1183.630	892.522
210.577	15.312	1182.836	891.649
211.592	15.391	1182.131	891.456
212.607	15.381	1181.831	891.101
213.621	15.469	1180.290	890.326
214.636	15.393	1179.347	889.133
215.650	15.426	1178.714	888.754
216.665	15.503	1177.718	888.327
217.680	15.558	1176.728	887.794
218.694	15.470	1176.381	886.989
219.709	15.550	1175.523	886.687
220.723	15.613	1174.196	885.941
221.738	15.544	1173.900	885.272
222.753	15.542	1172.891	884.425
223.767	15.673	1171.952	884.325
224.782	15.788	1171.412	884.443
225.796	15.693	1171.142	883.666
226.811	15.643	1170.606	882.919
227.826	15.753	1169.598	882.660
228.840	15.633	1168.813	881.357
229.855	15.474	1168.244	880.016
230.869	15.743	1167.360	880.684
231.884	15.599	1166.532	879.226
232.899	15.515	1165.925	878.249
233.913	15.584	1165.047	877.873
234.928	15.534	1164.126	876.840
235.942	15.493	1163.443	876.033
236.957	15.457	1163.377	875.720
237.972	15.590	1162.401	875.598
238.986	15.566	1161.904	875.023
240.001	15.665	1160.531	874.427
241.015	15.535	1159.914	873.210
242.030	15.683	1159.321	873.455
243.045	15.695	1158.237	872.624
244.059	15.701	1157.699	872.173
245.074	15.826	1156.934	872.166
246.088	15.881	1156.163	871.794
247.103	15.826	1155.174	870.682
248.117	15.829	1154.302	869.963
249.132	16.044	1153.743	870.577
250.147	16.016	1153.260	869.992
251.161	16.103	1152.448	869.751
252.176	16.115	1151.951	869.362
253.190	16.287	1151.594	869.902
254.205	16.176	1150.915	868.740
255.220	16.173	1150.499	868.333
256.234	16.340	1149.036	868.012
257.249	16.251	1148.817	867.309
258.263	16.283	1148.281	866.995
259.278	16.273	1147.494	866.271
260.293	16.343	1147.071	866.236
261.307	16.399	1146.503	866.016
262.322	16.304	1145.680	864.830
263.336	16.321	1145.385	864.620
264.351	16.473	1144.159	864.396
265.366	16.458	1143.458	863.714
266.380	16.467	1143.131	863.436
267.395	16.378	1142.089	862.115
268.409	16.366	1141.528	861.557
269.424	16.365	1140.764	860.897
270.439	16.418	1139.812	860.371
271.453	16.339	1139.408	859.588
272.468	16.234	1138.307	858.151
273.482	16.297	1137.890	858.078
274.497	16.314	1137.098	857.493
275.512	16.376	1136.370	857.182
276.526	16.333	1135.632	856.330
277.541	16.446	1135.066	856.402
278.555	16.450	1134.539	855.947
279.570	16.480	1133.543	855.273
280.585	16.599	1132.904	855.319
281.599	16.585	1131.482	854.098
282.614	16.454	1130.762	852.818
283.628	16.448	1129.413	851.693
284.643	16.451	1128.983	851.308
285.657	16.639	1127.892	851.359
286.672	16.489	1127.065	849.905
287.687	16.626	1125.951	849.674
288.701	16.459	1125.921	848.742
289.716	16.667	1124.773	848.844
290.730	16.645	1124.019	848.090
291.745	16.563	1123.670	847.339
292.760	16.632	1122.524	846.748
293.774	16.760	1122.177	847.048
294.789	16.848	1121.748	847.090
295.803	16.689	1121.136	845.761
296.818	16.675	1120.316	844.993
297.833	16.617	1119.666	844.143
298.847	16.699	1118.733	843.770
299.862	16.734	1117.811	843.178
300.876	16.770	1117.479	843.032
301.891	16.799	1116.881	842.648
302.906	16.802	1116.140	842.031
303.920	16.896	1115.033	841.587
304.935	16.670	1115.253	840.557
305.949	16.943	1114.075	840.948
306.964	17.051	1113.470	840.951
307.979	16.969	1112.438	839.691
308.993	16.864	1112.146	838.875
310.008	17.005	1111.405	838.942
311.022	17.119	1110.110	838.455
312.037	17.039	1109.363	837.421
313.052	16.961	1108.249	836.122
314.066	16.922	1107.875	835.573
315.081	16.845	1106.835	834.334
316.095	16.933	1105.887	833.978
317.110	16.888	1105.191	833.157
318.125	16.854	1104.531	832.423
319.139	16.921	1104.029	832.300
320.154	16.912	1103.448	831.743
321.168	16.918	1102.974	831.341
322.183	17.020	1101.780	830.869
323.197	16.872	1101.787	830.076
324.212	17.028	1101.125	830.264
325.227	16.958	1100.360	829.274
326.241	17.015	1099.663	828.954
327.256	17.105	1098.700	828.593
328.270	17.182	1097.832	828.238
329.285	17.070	1097.018	827.007
330.300	17.004	1096.411	826.155
331.314	17.022	1094.898	825.029
332.329	17.052	1093.948	824.388
333.343	17.052	1093.600	824.053
334.358	17.120	1092.790	823.698
335.373	17.091	1092.377	823.172
336.387	17.196	1091.370	822.852
337.402	17.241	1091.245	822.901
338.416	17.297	1090.136	822.263
339.431	17.271	1089.452	821.546
340.446	17.172	1089.258	820.851
341.460	17.462	1088.573	821.661
342.475	17.433	1087.600	820.715
343.489	17.489	1086.021	819.718
344.504	17.573	1085.322	819.523
345.519	17.546	1084.833	818.953
346.533	17.557	1084.115	818.393
347.548	17.643	1083.317	818.130
348.562	17.640	1082.555	817.467
349.577	17.458	1081.998	816.100
350.592	17.353	1081.105	814.853
351.606	17.429	1079.912	814.244
352.621	17.472	1079.526	814.088
353.635	17.418	1078.800	813.211
354.650	17.446	1078.125	812.764
355.665	17.348	1077.977	812.111
356.679	17.426	1076.970	811.652
357.694	17.395	1076.357	810.970
358.708	17.489	1075.777	810.910
359.723	17.456	1075.087	810.163
360.738	17.453	1074.543	809.664
361.752	17.567	1073.546	809.385
362.767	17.644	1073.051	809.307
363.781	17.700	1072.701	809.234
364.796	17.735	1071.930	808.748
365.810	17.778	1071.562	808.603
366.825	17.818	1070.914	808.234
367.840	17.891	1070.522	808.211
368.854	17.922	1069.864	807.787
369.869	18.001	1068.842	807.319
370.883	17.920	1068.195	806.376
371.898	17.865	1067.635	805.620
372.913	17.871	1067.043	805.134
373.927	17.875	1066.513	804.681
374.942	17.907	1065.894	804.291
375.956	17.975	1065.507	804.252
376.971	18.004	1065.142	804.040
377.986	17.904	1064.524	803.032
379.000	18.038	1063.873	803.097
380.015	18.049	1063.176	802.553
381.029	18.055	1062.932	802.325
382.044	18.192	1061.834	802.071
383.059	18.224	1060.698	801.291
384.073	18.093	1060.149	800.191
385.088	18.132	1059.621	799.906
386.102	18.188	1058.551	799.289
387.117	18.125	1057.782	798.340
388.132	18.019	1056.338	796.685
389.146	18.060	1055.900	796.478
390.161	18.050	1055.173	795.812
391.175	17.982	1054.918	795.236
392.190	18.114	1053.850	794.971
393.205	18.208	1052.837	794.573
394.219	18.126	1052.212	793.651
395.234	18.243	1050.865	793.109
396.248	18.182	1049.758	791.918
397.263	18.141	1049.157	791.207
398.278	18.220	1048.532	791.032
399.292	18.087	1047.878	789.853
400.307	18.084	1047.343	789.366
401.321	18.041	1046.372	788.364
402.336	18.161	1045.794	788.414
403.350	18.056	1045.114	787.349
404.365	18.029	1044.564	786.736
405.380	18.159	1044.002	786.843
406.394	18.036	1043.533	785.853
407.409	18.272	1042.383	786.004
408.423	18.278	1042.022	785.691
409.438	18.324	1041.137	785.165
410.453	18.515	1040.406	785.420
411.467	18.519	1039.715	784.844
412.482	18.452	1039.372	784.211
413.496	18.600	1037.993	783.774
414.511	18.604	1037.422	783.292
415.526	18.633	1037.320	783.281
416.540	18.685	1037.058	783.252
417.555	18.719	1036.194	782.683
418.569	18.616	1035.536	781.649
419.584	18.643	1035.435	781.624
420.599	18.576	1034.901	780.849
421.613	150.781	1401.791	1797.578
422.628	137.692	1455.241	1797.651
