DTS Sentinel unit serial number:	SN413079Multiplexer serial number:	ORYXHardware model number:	OX4-SRSoftware version number:	ORYX F/W v4.00 Oryx Data Collector v3.7.2.0data status	okinstallation	princeton_trtdifferential loss correction	single-endedforward channel	channel 2reverse channel	N/Adate	2019/09/11time	03:57:10forward acquisition time	60.00reverse acquisition time	0.00gamma	496.2192k internal	0.2329k external	0.2329temperature offset calibration	0.9937default loss term (dB/km)	0.3790temperature slope calibration	1.0000multiplexer offset coefficient	1.0000multiplexer slope coefficient	1.0000fibre end	0.00T internal ref (°C)	29.56T ext. ref 1 (°C)	-0.29T ext. ref 2 (°C)	23.67length (m)	temperature (°C)	Stokes	anti-Stokes-747.200	130.272	0.204	0.263
-746.185	800.000	0.076	0.220
-745.171	118.598	-0.137	0.170
-744.156	-7.060	-0.164	0.112
-743.142	-41.460	0.070	-0.036
-742.127	106.580	-0.242	-0.289
-741.112	450.437	0.073	0.162
-740.098	-200.000	-0.107	0.500
-739.083	336.459	-0.076	0.148
-738.069	-200.000	-0.012	-0.119
-737.054	369.880	0.115	-0.235
-736.039	-83.232	-0.491	0.159
-735.025	-142.861	0.197	0.019
-734.010	-200.000	0.058	-0.511
-732.996	800.000	0.057	0.227
-731.981	97.743	-0.121	0.140
-730.966	-200.000	0.022	0.252
-729.952	212.387	-0.023	0.036
-728.937	-99.745	-0.276	-0.070
-727.923	-50.080	0.102	-0.049
-726.908	-97.850	-0.200	0.052
-725.894	314.779	0.099	-0.188
-724.879	-200.000	0.022	-0.391
-723.864	-130.936	-0.349	-0.047
-722.850	48.412	0.303	0.286
-721.835	-57.542	-0.189	0.084
-720.821	89.882	-0.163	-0.183
-719.806	111.075	0.065	-0.079
-718.791	-200.000	0.012	0.074
-717.777	-26.533	0.160	0.094
-716.762	-57.071	0.366	0.163
-715.748	127.458	0.137	-0.174
-714.733	-200.000	-0.023	0.160
-713.718	-66.737	0.307	0.122
-712.704	800.000	-0.081	0.353
-711.689	273.117	-0.100	-0.177
-710.675	-82.346	-0.212	0.069
-709.660	-200.000	-0.054	0.275
-708.645	-63.950	0.102	-0.042
-707.631	-100.143	0.254	0.064
-706.616	76.531	-0.077	0.082
-705.602	-90.793	0.156	0.045
-704.587	-48.858	0.099	0.048
-703.572	92.458	0.126	-0.142
-702.558	244.908	0.122	0.207
-701.543	-200.000	0.015	0.091
-700.529	-110.216	0.267	0.056
-699.514	89.735	-0.031	-0.035
-698.499	-129.558	-0.322	-0.045
-697.485	367.535	-0.085	-0.172
-696.470	71.902	0.043	-0.045
-695.456	800.000	0.089	0.266
-694.441	372.406	-0.077	-0.158
-693.426	-200.000	0.039	-0.264
-692.412	800.000	0.060	0.223
-691.397	85.060	0.176	-0.194
-690.383	-75.070	-0.087	0.031
-689.368	-200.000	-0.015	-0.254
-688.354	-200.000	0.012	0.137
-687.339	-200.000	-0.005	-0.139
-686.324	-200.000	0.018	0.354
-685.310	-200.000	0.011	-0.169
-684.295	-22.779	0.105	-0.064
-683.281	-31.103	-0.168	0.095
-682.266	-59.242	-0.348	0.151
-681.251	-63.458	0.100	-0.041
-680.237	25.000	-0.314	-0.262
-679.222	85.215	0.113	0.125
-678.208	-200.000	-0.013	-0.066
-677.193	138.851	0.168	0.222
-676.178	154.284	0.116	-0.160
-675.164	-124.932	-0.255	0.040
-674.149	83.037	0.074	0.081
-673.135	-119.154	-0.183	0.032
-672.120	-200.000	0.038	-0.173
-671.105	-57.608	-0.167	0.073
-670.091	108.558	-0.089	-0.107
-669.076	-200.000	-0.089	-0.411
-668.062	44.556	0.279	-0.257
-667.047	497.517	0.162	-0.375
-666.032	-130.773	-0.155	-0.021
-665.018	800.000	0.046	0.131
-664.003	-200.000	0.091	0.463
-662.989	-22.071	-0.229	-0.140
-661.974	-77.256	0.352	0.123
-660.959	-89.954	-0.036	0.010
-659.945	-130.014	0.163	0.022
-658.930	426.733	-0.113	-0.244
-657.916	-115.497	-0.122	-0.023
-656.901	215.127	0.064	0.102
-655.886	-94.975	-0.275	-0.075
-654.872	-60.972	-0.312	-0.132
-653.857	-66.208	0.052	-0.021
-652.843	-82.026	0.180	0.059
-651.828	162.874	-0.048	-0.067
-650.814	-45.959	0.206	-0.102
-649.799	14.055	-0.128	0.100
-648.784	11.659	-0.134	-0.103
-647.770	305.609	0.126	0.235
-646.755	125.747	-0.077	0.098
-645.741	45.883	-0.294	0.273
-644.726	77.999	-0.099	-0.106
-643.711	618.058	0.019	-0.049
-642.697	134.248	0.193	0.251
-641.682	181.753	-0.248	0.366
-640.668	-94.650	0.110	-0.030
-639.653	-82.807	0.231	0.075
-638.638	142.901	0.026	0.035
-637.624	-28.085	-0.092	0.053
-636.609	-42.291	-0.122	-0.063
-635.595	87.319	-0.242	-0.268
-634.580	-56.661	0.450	0.200
-633.565	-12.719	0.197	-0.129
-632.551	-200.000	-0.008	0.284
-631.536	800.000	-0.083	-0.237
-630.522	359.508	0.097	-0.194
-629.507	-18.836	-0.330	-0.206
-628.492	-200.000	-0.003	-0.054
-627.478	-72.470	0.186	0.069
-626.463	-77.276	-0.178	-0.062
-625.449	207.912	-0.135	-0.212
-624.434	-59.677	-0.574	-0.247
-623.419	800.000	-0.107	0.459
-622.405	-56.184	-0.184	0.082
-621.390	-96.149	-0.377	-0.100
-620.376	38.935	0.113	-0.101
-619.361	81.663	0.059	0.063
-618.346	-43.474	0.075	-0.038
-617.332	-24.857	0.156	-0.093
-616.317	-36.020	0.085	0.046
-615.303	115.718	0.034	-0.041
-614.288	110.018	0.259	-0.312
-613.273	-54.885	0.233	-0.105
-612.259	-34.852	0.038	-0.021
-611.244	170.202	0.191	-0.274
-610.230	-117.635	-0.115	0.021
-609.215	800.000	-0.046	0.175
-608.201	432.332	-0.047	0.101
-607.186	117.803	0.094	-0.116
-606.171	-134.828	0.206	0.025
-605.157	123.022	0.237	0.297
-604.142	2.122	0.298	-0.216
-603.128	-58.997	0.267	-0.116
-602.113	94.991	0.102	-0.117
-601.098	-7.380	0.163	0.111
-600.084	-111.900	0.239	-0.048
-599.069	694.345	-0.063	-0.166
-598.055	-34.168	-0.341	-0.188
-597.040	416.057	0.098	-0.209
-596.025	-110.996	-0.423	0.087
-595.011	85.683	-0.183	-0.202
-593.996	-90.591	-0.062	-0.018
-592.982	19.432	0.239	0.192
-591.967	176.598	-0.041	0.059
-590.952	800.000	-0.033	0.102
-589.938	403.535	-0.093	0.196
-588.923	151.907	-0.128	-0.174
-587.909	-98.334	-0.130	0.033
-586.894	90.218	-0.069	-0.077
-585.879	168.548	-0.220	0.314
-584.865	11.595	0.175	-0.134
-583.850	-136.665	0.248	0.029
-582.836	239.580	0.163	-0.271
-581.821	-179.058	-0.050	-0.001
-580.806	52.942	0.096	-0.092
-579.792	-46.555	0.140	0.069
-578.777	-77.914	-0.143	0.049
-577.763	55.005	0.073	-0.070
-576.748	-147.539	0.107	-0.009
-575.733	-103.782	-0.064	-0.015
-574.719	-20.763	0.289	0.178
-573.704	-170.324	-0.222	-0.008
-572.690	-77.686	-0.366	-0.127
-571.675	202.649	0.098	-0.151
-570.661	103.495	-0.345	-0.406
-569.646	-133.755	0.068	0.009
-568.631	358.027	-0.147	0.293
-567.617	-123.342	0.093	-0.015
-566.602	332.168	-0.109	-0.211
-565.588	-54.096	0.286	-0.130
-564.573	-143.165	-0.132	-0.013
-563.558	685.077	-0.097	-0.252
-562.544	-200.000	0.034	-0.196
-561.529	55.511	0.343	-0.332
-560.515	-122.442	-0.131	0.021
-559.500	10.168	-0.126	0.096
-558.485	240.889	-0.129	-0.215
-557.471	-24.237	-0.097	0.058
-556.456	129.989	-0.027	-0.035
-555.442	-159.427	-0.222	-0.012
-554.427	22.835	-0.298	0.245
-553.412	-57.134	0.346	0.152
-552.398	352.037	0.009	0.018
-551.383	800.000	-0.105	0.384
-550.369	-200.000	-0.006	0.185
-549.354	-59.853	0.060	-0.026
-548.339	-33.440	-0.213	-0.118
-547.325	16.642	0.099	0.078
-546.310	203.660	0.183	-0.284
-545.296	19.556	0.129	0.104
-544.281	-200.000	-0.006	-0.071
-543.266	-91.848	-0.311	-0.088
-542.252	-200.000	-0.049	-0.349
-541.237	-200.000	0.055	-0.281
-540.223	-34.155	0.079	-0.043
-539.208	280.693	-0.026	-0.047
-538.193	151.568	0.115	-0.156
-537.179	-200.000	0.016	-0.197
-536.164	9.179	0.098	0.074
-535.150	-3.490	0.094	-0.065
-534.135	116.947	0.153	-0.187
-533.121	96.440	-0.067	0.076
-532.106	31.877	-0.146	0.126
-531.091	112.151	0.138	0.167
-530.077	-200.000	0.068	0.389
-529.062	800.000	-0.031	0.128
-528.048	169.985	0.062	0.088
-527.033	118.094	-0.084	-0.103
-526.018	-200.000	0.050	-0.350
-525.004	-157.481	-0.385	-0.023
-523.989	498.430	0.030	-0.069
-522.975	-200.000	0.014	-0.188
-521.960	68.141	-0.130	-0.133
-520.945	-200.000	-0.002	-0.335
-519.931	-158.642	0.209	-0.012
-518.916	54.122	0.110	-0.106
-517.902	195.021	0.052	-0.079
-516.887	289.808	0.062	0.112
-515.872	-135.165	0.080	-0.010
-514.858	104.882	-0.086	-0.101
-513.843	-48.607	0.419	-0.201
-512.829	-200.000	0.015	0.233
-511.814	123.896	0.151	-0.190
-510.799	128.939	-0.162	-0.206
-509.785	800.000	-0.086	0.242
-508.770	361.664	-0.059	-0.119
-507.756	6.518	0.245	-0.182
-506.741	146.101	-0.105	0.141
-505.726	-200.000	-0.005	-0.217
-504.712	-83.017	-0.181	0.058
-503.697	-113.652	-0.367	0.071
-502.683	-17.181	0.281	0.177
-501.668	-69.277	0.029	-0.011
-500.653	-113.076	-0.341	-0.067
-499.639	198.675	-0.056	0.086
-498.624	-47.860	0.217	0.105
-497.610	-94.447	0.123	-0.034
-496.595	-23.322	-0.191	0.114
-495.581	196.964	-0.149	-0.227
-494.566	-148.186	0.275	-0.023
-493.551	-200.000	-0.038	0.425
-492.537	423.184	-0.066	0.140
-491.522	800.000	-0.028	0.094
-490.508	27.292	-0.219	0.184
-489.493	-35.645	0.313	0.169
-488.478	-67.721	-0.168	-0.066
-487.464	-138.885	0.392	0.043
-486.449	311.749	0.087	-0.164
-485.435	-72.856	-0.106	-0.039
-484.420	-22.706	-0.183	-0.110
-483.405	387.343	0.065	-0.134
-482.391	-155.221	0.176	0.011
-481.376	-56.854	-0.402	0.177
-480.362	190.131	0.155	-0.232
-479.347	-92.424	0.300	-0.084
-478.332	26.974	0.152	-0.127
-477.318	350.312	-0.248	0.488
-476.303	-90.547	-0.458	-0.132
-475.289	-200.000	0.017	-0.173
-474.274	-200.000	-0.009	0.041
-473.259	-4.004	-0.120	-0.083
-472.245	-57.286	-0.160	0.070
-471.230	-38.560	0.165	0.087
-470.216	-35.653	-0.344	0.186
-469.201	-21.028	-0.282	0.172
-468.186	-200.000	-0.054	0.236
-467.172	708.994	0.047	0.124
-466.157	41.419	0.291	-0.263
-465.143	10.139	-0.227	-0.172
-464.128	73.897	0.220	-0.230
-463.113	-120.832	-0.124	-0.021
-462.099	-188.927	-0.401	-0.005
-461.084	-151.811	-0.053	-0.004
-460.070	114.959	0.060	-0.073
-459.055	0.933	-0.076	0.055
-458.040	-10.132	-0.235	0.155
-457.026	800.000	0.083	-0.308
-456.011	27.036	0.107	-0.089
-454.997	608.687	0.080	0.198
-453.982	-60.073	-0.309	0.131
-452.968	-200.000	0.032	0.195
-451.953	49.463	0.050	-0.047
-450.938	340.770	-0.112	-0.218
-449.924	271.450	0.134	0.235
-448.909	-56.722	0.104	0.046
-447.895	-83.875	0.168	-0.053
-446.880	234.214	0.224	-0.368
-445.865	800.000	-0.037	0.153
-444.851	96.773	0.123	0.140
-443.836	122.156	-0.119	-0.148
-442.822	265.178	-0.068	-0.118
-441.807	-50.165	0.180	-0.085
-440.792	215.862	-0.092	-0.145
-439.778	800.000	-0.050	0.192
-438.763	-61.616	-0.049	0.020
-437.749	-90.302	-0.185	0.054
-436.734	-200.000	-0.034	0.580
-435.719	-116.289	0.131	0.024
-434.705	-200.000	-0.024	-0.278
-433.690	365.146	-0.057	-0.114
-432.676	301.992	0.179	0.330
-431.661	-141.480	0.216	-0.022
-430.646	95.062	0.085	-0.097
-429.632	13.921	0.082	0.064
-428.617	-95.331	-0.542	0.145
-427.603	-147.331	-0.382	-0.032
-426.588	548.640	-0.057	-0.137
-425.573	-200.000	-0.006	-0.221
-424.559	10.248	-0.289	-0.218
-423.544	-135.966	-0.245	-0.029
-422.530	35.839	0.172	0.151
-421.515	-46.863	-0.100	0.049
-420.500	-85.786	-0.384	-0.118
-419.486	-0.784	-0.189	0.133
-418.471	291.573	-0.143	-0.258
-417.457	25.218	0.131	0.108
-416.442	-200.000	0.036	-0.158
-415.428	-200.000	-0.027	-0.126
-414.413	-200.000	0.088	-0.410
-413.398	-200.000	0.011	-0.063
-412.384	800.000	-0.070	0.209
-411.369	-200.000	0.014	0.100
-410.355	800.000	-0.101	-0.432
-409.340	800.000	0.115	-0.478
-408.325	375.200	-0.124	0.252
-407.311	-200.000	0.035	0.222
-406.296	-200.000	-0.022	-0.200
-405.282	-200.000	-0.006	0.206
-404.267	-159.702	-0.070	-0.004
-403.252	147.611	0.269	-0.360
-402.238	34.842	0.168	-0.146
-401.223	47.541	0.167	-0.155
-400.209	-200.000	0.002	-0.140
-399.194	31.685	-0.274	-0.234
-398.179	-200.000	0.029	-0.148
-397.165	-117.311	-0.389	0.070
-396.150	-91.600	0.433	-0.123
-395.136	211.996	-0.163	0.256
-394.121	-71.672	0.080	0.030
-393.106	-49.066	-0.210	0.100
-392.092	-122.830	0.061	0.010
-391.077	151.280	-0.143	0.194
-390.063	-47.674	0.253	0.122
-389.048	-48.643	-0.234	0.112
-388.033	-183.691	0.140	0.002
-387.019	-179.447	0.295	0.006
-386.004	800.000	0.065	0.229
-384.990	-179.403	0.181	-0.004
-383.975	499.497	0.184	0.421
-382.960	-128.637	-0.370	0.052
-381.946	-200.000	-0.002	-0.139
-380.931	-200.000	0.008	0.166
-379.917	-51.775	-0.333	-0.154
-378.902	-87.842	0.081	-0.024
-377.888	375.914	-0.076	0.154
-376.873	-156.850	0.087	-0.005
-375.858	52.900	-0.040	-0.038
-374.844	19.187	0.038	0.031
-373.829	432.337	-0.024	0.052
-372.815	-11.439	0.276	-0.180
-371.800	-44.846	0.243	0.120
-370.785	-200.000	0.016	-0.320
-369.771	-1.848	-0.291	0.203
-368.756	-63.805	0.302	0.123
-367.742	-6.928	-0.192	0.130
-366.727	169.507	-0.168	-0.238
-365.712	-108.025	0.233	-0.050
-364.698	-125.429	-0.217	-0.033
-363.683	294.293	-0.093	-0.169
-362.669	-60.208	0.410	-0.173
-361.654	-200.000	0.056	-0.266
-360.639	-200.000	-0.011	-0.176
-359.625	139.870	0.269	0.351
-358.610	-200.000	-0.033	0.208
-357.596	363.372	-0.141	-0.281
-356.581	-132.005	0.323	0.042
-355.566	58.508	0.257	0.250
-354.552	774.978	0.051	0.138
-353.537	1.543	0.223	0.159
-352.523	236.599	0.287	0.472
-351.508	-67.103	-0.086	-0.034
-350.493	-174.591	0.423	-0.012
-349.479	800.000	0.098	-0.268
-348.464	-68.411	0.251	-0.097
-347.450	69.911	0.106	-0.108
-346.435	-46.079	0.089	-0.044
-345.420	-200.000	0.025	-0.147
-344.406	-105.352	-0.061	0.014
-343.391	-54.369	-0.175	0.079
-342.377	65.955	0.172	-0.173
-341.362	227.952	-0.202	0.326
-340.348	-85.926	0.123	0.038
-339.333	109.583	-0.164	-0.195
-338.318	-76.284	0.123	-0.043
-337.304	-59.678	0.217	0.092
-336.289	-129.580	0.209	0.029
-335.275	-35.448	-0.076	-0.041
-334.260	-59.679	-0.208	0.088
-333.245	-77.134	-0.137	0.047
-332.231	-200.000	0.011	0.266
-331.216	201.777	0.076	0.116
-330.202	72.824	0.143	-0.148
-329.187	-200.000	0.040	0.235
-328.172	-111.043	-0.364	0.074
-327.158	800.000	-0.068	-0.218
-326.143	-200.000	0.060	-0.420
-325.129	-128.452	-0.102	0.014
-324.114	-200.000	-0.012	0.158
-323.099	-53.144	-0.189	0.086
-322.085	-200.000	0.024	0.339
-321.070	-76.072	0.179	0.063
-320.056	-59.277	-0.091	-0.039
-319.041	148.801	-0.186	0.250
-318.026	21.797	-0.239	-0.193
-317.012	-77.548	0.188	-0.065
-315.997	-200.000	0.085	0.436
-314.983	196.279	-0.088	-0.133
-313.968	-54.524	-0.293	-0.132
-312.953	-200.000	-0.025	0.181
-311.939	120.003	-0.104	0.128
-310.924	445.353	-0.110	0.240
-309.910	-200.000	-0.017	0.203
-308.895	800.000	-0.109	-0.427
-307.880	185.824	0.065	-0.096
-306.866	162.915	-0.122	0.170
-305.851	-26.920	-0.128	0.074
-304.837	-34.374	-0.246	0.133
-303.822	800.000	-0.118	0.363
-302.807	217.639	0.105	0.166
-301.793	52.479	0.331	0.313
-300.778	-200.000	0.043	-0.246
-299.764	180.753	-0.127	0.185
-298.749	-63.340	0.158	-0.064
-297.735	-109.255	0.195	-0.041
-296.720	-200.000	0.020	-0.379
-295.705	-85.614	-0.140	0.043
-294.691	-39.406	-0.271	0.141
-293.676	512.979	0.097	0.223
-292.662	-32.259	-0.078	-0.043
-291.647	-148.764	0.046	-0.004
-290.632	-200.000	-0.015	0.233
-289.618	-132.826	0.027	0.003
-288.603	-60.993	0.391	-0.163
-287.589	800.000	0.072	-0.257
-286.574	624.958	-0.124	-0.309
-285.559	11.788	-0.115	0.087
-284.545	350.698	0.097	-0.190
-283.530	800.000	0.073	0.240
-282.516	-140.127	-0.237	-0.025
-281.501	-200.000	0.007	-0.038
-280.486	656.484	-0.075	0.189
-279.472	-37.718	-0.232	0.122
-278.457	173.380	-0.077	-0.110
-277.443	800.000	0.009	0.034
-276.428	-54.144	0.256	-0.115
-275.413	-142.718	-0.245	0.024
-274.399	800.000	0.089	0.279
-273.384	-0.768	-0.058	0.041
-272.370	-200.000	-0.007	0.291
-271.355	-133.917	-0.264	0.032
-270.340	16.958	-0.063	0.050
-269.326	-133.423	-0.284	-0.035
-268.311	47.696	-0.175	0.162
-267.297	576.206	0.015	-0.035
-266.282	103.289	0.040	0.047
-265.267	-94.546	-0.176	0.048
-264.253	-34.365	0.229	0.124
-263.238	-63.278	-0.151	0.062
-262.224	800.000	0.049	0.173
-261.209	178.344	0.172	-0.248
-260.195	110.751	0.204	-0.243
-259.180	-200.000	0.013	0.181
-258.165	-200.000	0.015	0.152
-257.151	32.098	0.173	0.148
-256.136	214.646	-0.134	0.210
-255.122	-24.578	0.328	0.193
-254.107	7.287	0.095	-0.070
-253.092	-48.275	-0.145	-0.069
-252.078	800.000	0.097	0.291
-251.063	212.476	-0.037	-0.058
-250.049	50.247	0.068	0.063
-249.034	633.897	-0.119	-0.298
-248.019	220.348	0.109	0.173
-247.005	-54.506	-0.169	-0.076
-245.990	133.990	0.107	-0.137
-244.976	-61.829	0.249	0.103
-243.961	-200.000	-0.062	0.347
-242.946	-200.000	-0.001	-0.178
-241.932	-133.966	0.179	-0.022
-240.917	-68.243	0.230	-0.088
-239.903	-200.000	0.019	0.148
-238.888	93.442	0.269	0.300
-237.873	3.718	-0.247	-0.178
-236.859	-4.634	0.161	0.110
-235.844	31.296	0.070	-0.059
-234.830	605.188	0.135	0.332
-233.815	633.330	-0.052	0.131
-232.800	31.765	0.249	-0.212
-231.786	-161.540	0.079	0.004
-230.771	-31.218	0.306	0.170
-229.757	-200.000	0.024	0.390
-228.742	80.699	0.130	0.139
-227.727	-200.000	-0.041	-0.271
-226.713	-200.000	0.031	-0.158
-225.698	-43.709	0.134	-0.067
-224.684	173.031	0.102	0.146
-223.669	329.746	0.118	0.223
-222.655	-60.011	0.246	0.104
-221.640	496.046	-0.119	-0.271
-220.625	37.308	-0.081	-0.071
-219.611	315.787	0.098	0.182
-218.596	36.923	-0.164	-0.143
-217.582	-94.307	-0.153	-0.041
-216.567	153.456	0.228	-0.308
-215.552	-94.829	-0.060	-0.016
-214.538	-25.229	-0.105	-0.061
-213.523	-32.309	0.155	0.086
-212.509	800.000	-0.094	-0.263
-211.494	-127.173	0.215	-0.031
-210.479	-185.413	-0.357	0.005
-209.465	-91.103	0.236	0.067
-208.450	33.028	-0.042	-0.036
-207.436	245.424	-0.061	0.101
-206.421	690.294	0.092	0.237
-205.406	474.147	0.105	-0.233
-204.392	-35.305	0.223	0.120
-203.377	-93.482	0.118	0.032
-202.363	-200.000	-0.011	-0.304
-201.348	206.593	-0.045	-0.069
-200.333	-98.493	-0.281	-0.071
-199.319	-23.215	0.160	-0.095
-198.304	-200.000	-0.064	0.280
-197.290	18.095	0.418	0.329
-196.275	39.342	-0.193	0.171
-195.260	-200.000	-0.018	0.171
-194.246	-40.977	-0.148	-0.075
-193.231	20.851	-0.167	0.133
-192.217	-69.853	0.176	-0.066
-191.202	65.456	0.099	0.098
-190.187	-200.000	0.036	0.170
-189.173	800.000	-0.067	-0.286
-188.158	800.000	0.043	-0.172
-187.144	285.398	0.142	-0.252
-186.129	156.807	0.122	-0.166
-185.114	219.974	-0.211	0.333
-184.100	-123.179	-0.510	-0.080
-183.085	508.516	-0.066	0.152
-182.071	-98.558	0.120	-0.030
-181.056	34.637	0.177	-0.152
-180.042	-149.119	0.138	-0.011
-179.027	7.432	0.345	-0.254
-178.012	-74.175	-0.272	-0.097
-176.998	-161.681	-0.315	-0.016
-175.983	-114.365	-0.031	-0.006
-174.969	-16.006	0.021	-0.013
-173.954	-26.337	-0.250	-0.145
-172.939	-155.711	-0.188	-0.012
-171.925	324.749	0.110	-0.207
-170.910	-145.723	-0.312	0.027
-169.896	705.517	0.126	0.328
-168.881	731.517	-0.068	0.178
-167.866	4.015	0.271	0.195
-166.852	587.073	0.175	0.424
-165.837	-200.000	0.003	-0.207
-164.823	800.000	-0.076	0.255
-163.808	450.854	-0.070	-0.153
-162.793	80.204	-0.488	-0.517
-161.779	-122.160	0.419	0.068
-160.764	709.681	0.041	0.108
-159.750	800.000	-0.055	-0.203
-158.735	36.894	-0.125	-0.109
-157.720	451.686	-0.115	0.251
-156.706	-150.020	-0.054	0.004
-155.691	617.768	0.095	-0.234
-154.677	504.218	-0.044	0.100
-153.662	-3.573	0.183	-0.125
-152.647	411.522	0.079	0.166
-151.633	-23.576	0.144	-0.085
-150.618	141.385	0.056	-0.072
-149.604	-143.160	-0.141	0.013
-148.589	-109.806	-0.254	-0.052
-147.574	153.690	-0.049	-0.066
-146.560	-23.000	-0.066	0.039
-145.545	-145.699	0.146	0.013
-144.531	800.000	0.007	-0.029
-143.516	-3.154	0.213	-0.146
-142.502	-200.000	-0.070	0.324
-141.487	294.082	-0.087	0.156
-140.472	-19.240	-0.077	-0.047
-139.458	409.928	-0.118	0.245
-138.443	123.270	-0.186	0.229
-137.429	-32.352	-0.234	-0.128
-136.414	-101.762	0.144	-0.034
-135.399	-102.688	-0.366	-0.086
-134.385	18.335	0.258	0.202
-133.370	800.000	0.156	0.429
-132.356	325.122	0.110	-0.208
-131.341	-52.685	-0.175	-0.079
-130.326	800.000	0.019	0.063
-129.312	-90.551	0.245	-0.070
-128.297	91.244	0.314	0.347
-127.283	387.234	-0.047	0.096
-126.268	-200.000	0.011	-0.122
-125.253	-200.000	-0.018	0.119
-124.239	-200.000	-0.052	0.238
-123.224	165.911	-0.159	0.222
-122.210	-200.000	0.017	0.137
-121.195	212.040	0.066	-0.102
-120.180	1.492	-0.150	-0.106
-119.166	-200.000	0.012	-0.112
-118.151	-18.505	-0.235	-0.144
-117.137	-157.070	0.592	0.035
-116.122	-145.134	0.209	0.019
-115.107	-200.000	0.007	-0.206
-114.093	143.359	-0.161	-0.211
-113.078	-200.000	0.015	-0.073
-112.064	60.556	0.170	0.166
-111.049	2.296	0.231	0.165
-110.034	55.558	0.045	0.042
-109.020	337.013	-0.104	0.198
-108.005	414.712	-0.119	-0.248
-106.991	-200.000	-0.006	0.138
-105.976	74.583	-0.203	0.210
-104.962	800.000	-0.033	-0.122
-103.947	-70.745	-0.113	0.042
-102.932	-194.567	0.426	0.003
-101.918	-46.538	-0.116	-0.056
-100.903	-92.842	0.153	-0.042
-99.889	-77.050	0.097	-0.033
-98.874	62.743	0.095	-0.094
-97.859	-131.976	0.291	0.037
-96.845	47.363	0.080	0.073
-95.830	354.068	-0.180	0.352
-94.816	-200.000	0.054	0.261
-93.801	-48.156	0.363	0.172
-92.786	-88.842	0.211	0.061
-91.772	-93.011	-0.288	-0.079
-90.757	-12.379	-0.170	0.109
-89.743	-77.233	0.167	0.057
-88.728	-84.512	0.294	-0.091
-87.713	-110.649	-0.262	-0.053
-86.699	301.370	0.042	-0.077
-85.684	367.950	0.193	-0.383
-84.670	-200.000	-0.012	-0.225
-83.655	257.046	-0.179	0.302
-82.640	-11.012	0.247	0.160
-81.626	331.670	-0.174	0.329
-80.611	12.047	0.118	-0.089
-79.597	210.538	0.173	-0.267
-78.582	-84.062	0.069	-0.021
-77.567	-171.433	-0.177	-0.006
-76.553	-66.086	-0.271	-0.106
-75.538	301.419	0.041	-0.074
-74.524	-200.000	-0.026	-0.254
-73.509	-24.800	0.125	-0.073
-72.494	-200.000	0.025	-0.238
-71.480	146.813	0.218	-0.288
-70.465	-138.050	-0.283	0.031
-69.451	-39.301	0.234	-0.121
-68.436	514.917	0.108	-0.247
-67.422	233.691	0.174	-0.282
-66.407	639.183	-0.135	-0.336
-65.392	-40.069	-0.056	-0.029
-64.378	-142.881	0.120	0.011
-63.363	97.113	-0.219	-0.246
-62.349	-76.617	0.124	0.043
-61.334	9.886	-0.838	-0.624
-60.319	240.244	0.375	0.614
-59.305	-200.000	-0.082	-0.992
-58.290	198.720	0.798	1.198
-57.276	542.059	0.641	1.499
-56.261	-200.000	106.080	610.682
-55.246	501.582	1507.393	3413.300
-54.232	174.763	2710.169	3845.588
-53.217	104.649	2301.745	2658.981
-52.203	38.747	1905.373	1667.608
-51.188	32.706	1691.508	1434.578
-50.173	30.159	1647.791	1378.534
-49.159	48.970	1701.439	1566.055
-48.144	49.334	1717.306	1583.349
-47.130	32.371	1674.650	1417.530
-46.115	29.607	1659.911	1384.318
-45.100	29.474	1655.183	1379.325
-44.086	29.543	1652.007	1377.142
-43.071	29.484	1649.476	1374.537
-42.057	29.330	1647.819	1371.956
-41.042	29.516	1645.375	1371.245
-40.027	29.472	1643.627	1369.406
-39.013	29.480	1641.512	1367.648
-37.998	29.407	1639.597	1365.462
-36.984	29.498	1638.727	1365.358
-35.969	29.537	1636.779	1363.965
-34.954	29.660	1635.032	1363.362
-33.940	29.547	1633.532	1361.227
-32.925	29.500	1632.213	1359.728
-31.911	29.675	1629.845	1358.985
-30.896	29.523	1628.340	1356.562
-29.881	29.483	1627.049	1355.139
-28.867	29.511	1625.187	1353.737
-27.852	29.482	1623.844	1352.353
-26.838	29.576	1622.469	1351.842
-25.823	29.475	1621.357	1350.122
-24.809	29.610	1619.712	1349.691
-23.794	29.591	1618.260	1348.285
-22.779	29.625	1616.713	1347.189
-21.765	29.493	1615.641	1345.280
-20.750	29.569	1613.389	1343.905
-19.736	29.537	1612.163	1342.597
-18.721	29.614	1610.983	1342.123
-17.706	29.646	1609.106	1340.738
-16.692	29.633	1607.818	1339.519
-15.677	29.542	1606.598	1337.790
-14.663	29.653	1604.972	1337.187
-13.648	29.581	1603.944	1335.759
-12.633	29.639	1601.720	1334.269
-11.619	29.574	1601.001	1333.146
-10.604	29.600	1599.254	1331.831
-9.590	29.573	1598.202	1330.704
-8.575	29.785	1596.072	1330.404
-7.560	29.594	1596.018	1328.931
-6.546	29.642	1594.254	1327.755
-5.531	29.506	1594.281	1326.751
-4.517	29.609	1592.739	1326.148
-3.502	29.617	1591.396	1325.039
-2.487	29.707	1589.609	1324.144
-1.473	29.290	1578.110	1311.542
-0.458	26.620	1558.788	1276.639
0.556	20.795	1561.198	1247.014
1.571	18.752	1585.822	1251.698
2.586	18.499	1598.821	1259.985
3.600	16.738	1546.571	1206.167
4.615	8.741	1437.054	1067.536
5.629	1.208	1372.683	971.521
6.644	-0.179	1364.636	956.904
7.659	-0.292	1363.379	955.220
8.673	-0.322	1362.512	954.332
9.688	-0.377	1360.914	952.785
10.702	-0.503	1357.028	949.179
11.717	3.044	1364.217	976.687
12.731	12.476	1382.066	1049.852
13.746	19.751	1394.341	1105.784
14.761	21.653	1396.611	1119.655
15.775	21.886	1396.661	1121.090
16.790	21.906	1395.997	1120.584
17.804	21.937	1395.997	1120.681
18.819	22.277	1394.959	1121.922
19.834	22.270	1394.752	1121.611
20.848	22.300	1393.987	1121.088
21.863	22.399	1392.952	1120.785
22.877	22.364	1391.833	1119.560
23.892	22.500	1390.976	1119.636
24.907	22.378	1390.088	1118.050
25.921	22.436	1389.353	1117.727
26.936	22.306	1388.781	1116.344
27.950	22.251	1387.930	1115.213
28.965	22.345	1386.406	1114.484
29.980	22.388	1384.943	1113.480
30.994	22.317	1384.002	1112.178
32.009	22.427	1383.000	1111.966
33.023	22.387	1381.971	1110.788
34.038	22.458	1380.258	1109.764
35.053	22.364	1379.988	1108.856
36.067	22.351	1378.902	1107.802
37.082	22.301	1377.988	1106.656
38.096	22.345	1377.101	1106.123
39.111	22.315	1376.155	1105.077
40.126	22.353	1375.729	1104.872
41.140	22.320	1375.049	1104.027
42.155	22.305	1374.716	1103.567
43.169	22.339	1374.511	1103.513
44.184	22.335	1374.452	1103.347
45.199	22.364	1373.743	1102.857
46.213	22.409	1373.159	1102.577
47.228	22.277	1372.739	1101.316
48.242	22.390	1370.815	1100.379
49.257	22.344	1369.746	1099.134
50.271	22.423	1368.191	1098.284
51.286	22.369	1366.942	1096.846
52.301	22.325	1365.434	1095.271
53.315	22.334	1365.062	1094.926
54.330	22.369	1363.985	1094.185
55.344	22.382	1362.585	1093.045
56.359	22.315	1361.931	1092.011
57.374	22.305	1361.523	1091.525
58.388	22.391	1360.225	1090.919
59.403	22.300	1360.244	1090.271
60.417	22.354	1359.315	1089.769
61.432	22.322	1358.164	1088.552
62.447	22.290	1358.189	1088.273
63.461	22.332	1356.518	1087.098
64.476	22.359	1355.530	1086.381
65.490	22.360	1353.951	1085.026
66.505	22.332	1352.610	1083.682
67.520	22.395	1351.448	1083.039
68.534	22.388	1350.428	1082.082
69.549	22.359	1350.008	1081.473
70.563	22.361	1349.181	1080.727
71.578	22.341	1348.127	1079.665
72.593	22.372	1347.235	1079.046
73.607	22.426	1346.413	1078.620
74.622	22.378	1345.275	1077.324
75.636	22.403	1344.567	1076.813
76.651	22.421	1344.169	1076.510
77.666	22.319	1343.676	1075.392
78.680	22.397	1342.899	1075.155
79.695	22.419	1342.285	1074.702
80.709	22.459	1341.448	1074.183
81.724	22.385	1340.464	1072.844
82.739	22.434	1339.448	1072.237
83.753	22.340	1338.569	1070.869
84.768	22.343	1337.360	1069.822
85.782	22.370	1336.065	1068.857
86.797	22.416	1335.161	1068.320
87.812	22.424	1334.420	1067.682
88.826	22.352	1333.370	1066.307
89.841	22.449	1331.829	1065.568
90.855	22.500	1330.822	1064.977
91.870	22.423	1330.103	1063.841
92.884	22.496	1329.157	1063.433
93.899	22.473	1328.428	1062.613
94.914	22.343	1328.018	1061.410
95.928	22.407	1327.038	1060.918
96.943	22.442	1326.093	1060.282
97.957	22.495	1325.573	1060.087
98.972	22.525	1324.463	1059.288
99.987	22.522	1323.027	1058.027
101.001	22.451	1322.456	1057.050
102.016	22.371	1321.652	1055.833
103.030	22.504	1320.306	1055.462
104.045	22.422	1319.711	1054.403
105.060	22.486	1318.690	1053.877
106.074	22.387	1317.848	1052.518
107.089	22.384	1316.769	1051.545
108.103	22.440	1315.833	1051.041
109.118	22.430	1314.900	1050.142
110.133	22.606	1313.171	1049.715
111.147	22.578	1312.024	1048.540
112.162	22.592	1310.516	1047.324
113.176	22.535	1309.500	1046.080
114.191	22.482	1308.879	1045.180
115.206	22.448	1308.229	1044.364
116.220	22.459	1306.865	1043.247
117.235	22.543	1306.019	1042.979
118.249	22.407	1305.497	1041.663
119.264	22.444	1304.466	1040.968
120.279	22.508	1303.866	1040.779
121.293	22.522	1302.984	1040.063
122.308	22.598	1301.697	1039.393
123.322	22.501	1300.886	1038.080
124.337	22.547	1299.949	1037.512
125.352	22.543	1298.577	1036.301
126.366	22.582	1297.894	1035.895
127.381	22.575	1297.343	1035.319
128.395	22.583	1296.131	1034.307
129.410	22.605	1295.110	1033.530
130.424	22.555	1294.695	1032.816
131.439	22.624	1293.489	1032.170
132.454	22.521	1292.684	1030.831
133.468	22.503	1292.291	1030.319
134.483	22.647	1291.498	1030.440
135.497	22.594	1290.876	1029.545
136.512	22.662	1289.447	1028.706
137.527	22.617	1288.341	1027.474
138.541	22.516	1287.078	1025.785
139.556	22.540	1285.840	1024.848
140.570	22.612	1284.872	1024.408
141.585	22.650	1283.324	1023.300
142.600	22.551	1283.282	1022.601
143.614	22.577	1281.722	1021.422
144.629	22.513	1280.905	1020.305
145.643	22.476	1279.960	1019.252
146.658	22.513	1278.706	1018.374
147.673	22.452	1277.640	1017.085
148.687	22.471	1276.933	1016.540
149.702	22.502	1275.512	1015.498
150.716	22.374	1275.148	1014.383
151.731	22.518	1273.503	1013.814
152.746	22.486	1272.522	1012.759
153.760	22.503	1271.521	1011.966
154.775	22.563	1270.856	1011.697
155.789	22.614	1269.669	1010.952
156.804	22.537	1268.874	1009.788
157.819	22.573	1267.975	1009.187
158.833	22.599	1267.039	1008.503
159.848	22.690	1266.105	1008.194
160.862	22.694	1265.500	1007.643
161.877	22.660	1264.772	1006.780
162.892	22.638	1263.623	1005.650
163.906	22.524	1263.129	1004.521
164.921	22.633	1262.268	1004.366
165.935	22.560	1261.935	1003.597
166.950	22.622	1260.991	1003.113
167.964	22.680	1260.168	1002.695
168.979	22.727	1259.593	1002.418
169.994	22.736	1258.978	1001.889
171.008	22.632	1258.477	1000.813
172.023	22.757	1257.213	1000.427
173.037	22.709	1256.749	999.695
174.052	22.721	1255.800	998.923
175.067	22.755	1255.136	998.499
176.081	22.731	1254.517	997.779
177.096	22.696	1253.877	996.986
178.110	22.623	1252.876	995.690
179.125	22.798	1251.517	995.508
180.140	22.767	1250.448	994.396
181.154	22.782	1249.179	993.387
182.169	22.629	1248.421	991.831
183.183	22.684	1247.666	991.454
184.198	22.806	1246.138	990.834
185.213	22.805	1245.673	990.376
186.227	22.815	1244.663	989.538
187.242	22.821	1243.848	988.835
188.256	22.801	1242.970	987.938
189.271	22.828	1241.881	987.139
190.286	22.778	1241.380	986.372
191.300	22.761	1240.853	985.771
192.315	22.727	1240.495	985.210
193.329	22.739	1239.718	984.572
194.344	22.850	1239.759	985.137
195.359	22.788	1239.237	984.287
196.373	22.740	1238.563	983.401
197.388	22.754	1237.925	982.884
198.402	22.713	1237.465	982.207
199.417	22.732	1237.007	981.862
200.432	22.713	1236.565	981.318
201.446	22.839	1235.514	981.093
202.461	22.741	1234.898	979.973
203.475	22.714	1234.003	979.029
204.490	22.773	1233.008	978.482
205.504	22.793	1231.997	977.699
206.519	23.020	1230.797	977.918
207.534	22.976	1230.165	977.088
208.548	22.793	1229.571	975.519
209.563	22.832	1228.758	975.002
210.577	22.875	1227.847	974.431
211.592	22.800	1227.064	973.310
212.607	22.771	1226.468	972.588
213.621	22.882	1225.581	972.412
214.636	22.940	1224.677	971.929
215.650	22.926	1223.847	971.107
216.665	22.829	1222.971	969.792
217.680	22.824	1222.255	969.108
218.694	22.846	1221.485	968.532
219.709	22.996	1220.184	968.238
220.723	22.976	1219.725	967.679
221.738	22.838	1219.234	966.446
222.753	22.859	1218.614	965.985
223.767	22.949	1218.355	966.188
224.782	23.159	1217.477	966.555
225.796	22.953	1217.470	965.340
226.811	22.956	1216.059	964.150
227.826	22.951	1215.655	963.717
228.840	23.077	1214.939	963.750
229.855	22.986	1214.778	963.043
230.869	22.957	1214.004	962.183
231.884	22.970	1213.104	961.459
232.899	23.043	1212.371	961.188
233.913	23.048	1211.683	960.585
234.928	23.151	1211.185	960.663
235.942	23.150	1210.475	960.011
236.957	23.102	1209.759	959.100
237.972	22.858	1209.614	957.573
238.986	23.072	1208.429	957.709
240.001	23.062	1208.229	957.415
241.015	23.189	1207.397	957.359
242.030	23.178	1206.381	956.407
243.045	23.120	1205.601	955.389
244.059	23.201	1204.721	955.046
245.074	23.228	1204.074	954.592
246.088	23.195	1203.516	953.889
247.103	23.325	1202.203	953.464
248.117	23.158	1201.771	952.141
249.132	23.063	1201.240	951.125
250.147	23.232	1200.165	951.095
251.161	23.328	1199.835	951.264
252.176	23.258	1198.963	950.112
253.190	23.307	1198.499	949.925
254.205	23.213	1197.742	948.740
255.220	23.232	1197.075	948.226
256.234	23.242	1196.831	948.002
257.249	23.322	1195.958	947.657
258.263	23.246	1195.349	946.684
259.278	23.389	1194.559	946.737
260.293	23.351	1194.057	946.054
261.307	23.213	1193.907	945.113
262.322	23.189	1193.636	944.688
263.336	23.299	1192.627	944.391
264.351	23.200	1192.372	943.580
265.366	23.366	1191.484	943.678
266.380	23.365	1190.346	942.687
267.395	23.290	1190.201	942.088
268.409	23.235	1189.374	941.061
269.424	23.261	1188.762	940.628
270.439	23.280	1188.526	940.462
271.453	23.433	1187.652	940.499
272.468	23.259	1186.898	938.896
273.482	23.234	1186.295	938.200
274.497	23.363	1185.814	938.419
275.512	23.448	1184.989	938.136
276.526	23.398	1184.420	937.341
277.541	23.408	1183.676	936.720
278.555	23.430	1183.257	936.421
279.570	23.527	1182.273	936.073
280.585	23.427	1181.461	934.819
281.599	23.404	1180.642	933.969
282.614	23.418	1179.827	933.310
283.628	23.437	1178.777	932.498
284.643	23.509	1178.031	932.205
285.657	23.373	1177.609	931.073
286.672	23.464	1176.594	930.666
287.687	23.531	1175.477	930.052
288.701	23.613	1174.835	929.891
289.716	23.582	1174.444	929.340
290.730	23.432	1173.816	927.975
291.745	23.505	1173.377	927.923
292.760	23.593	1172.631	927.712
293.774	23.618	1172.045	927.298
294.789	23.486	1171.790	926.327
295.803	23.588	1170.570	925.812
296.818	23.602	1170.207	925.517
297.833	23.710	1169.510	925.443
298.847	23.606	1169.031	924.444
299.862	23.549	1168.070	923.305
300.876	23.589	1167.610	923.067
301.891	23.724	1166.966	923.177
302.906	23.679	1166.364	922.387
303.920	23.713	1165.551	921.840
304.935	23.602	1165.388	921.050
305.949	23.633	1164.434	920.378
306.964	23.698	1163.684	920.039
307.979	23.715	1163.217	919.676
308.993	23.709	1162.653	919.119
310.008	23.607	1161.954	917.958
311.022	23.833	1160.800	918.134
312.037	23.780	1160.276	917.360
313.052	23.710	1159.215	916.080
314.066	23.735	1158.533	915.589
315.081	23.700	1157.945	914.864
316.095	23.756	1157.023	914.342
317.110	23.718	1157.010	914.056
318.125	23.865	1155.657	913.660
319.139	23.880	1154.884	913.047
320.154	23.847	1154.932	912.833
321.168	23.746	1154.055	911.541
322.183	23.828	1153.297	911.285
323.197	23.642	1153.450	910.369
324.212	23.721	1152.712	910.113
325.227	23.782	1152.203	909.939
326.241	23.753	1151.841	909.429
327.256	23.849	1150.573	908.838
328.270	23.846	1149.807	908.135
329.285	23.837	1149.422	907.707
330.300	23.922	1148.048	906.974
331.314	23.875	1147.099	905.901
332.329	23.891	1146.751	905.632
333.343	24.019	1145.677	905.354
334.358	23.976	1145.134	904.624
335.373	23.931	1144.693	903.965
336.387	23.997	1143.734	903.468
337.402	24.043	1142.686	902.790
338.416	23.960	1142.613	902.235
339.431	24.091	1141.665	902.070
340.446	24.138	1140.790	901.534
341.460	24.091	1140.799	901.225
342.475	24.178	1139.582	900.621
343.489	24.114	1138.783	899.590
344.504	24.123	1138.078	898.997
345.519	24.186	1136.949	898.345
346.533	24.289	1136.473	898.407
347.548	24.195	1135.553	897.128
348.562	24.152	1134.779	896.220
349.577	24.106	1134.528	895.710
350.592	24.152	1133.646	895.167
351.606	24.079	1132.853	894.096
352.621	24.191	1132.349	894.180
353.635	24.140	1132.065	893.620
354.650	24.139	1131.226	892.873
355.665	24.182	1130.534	892.465
356.679	24.241	1129.836	892.129
357.694	24.265	1129.166	891.643
358.708	24.262	1128.570	891.076
359.723	24.207	1128.065	890.324
360.738	24.135	1127.509	889.449
361.752	24.202	1126.833	889.171
362.767	24.242	1126.118	888.728
363.781	24.310	1125.412	888.430
364.796	24.358	1124.802	888.110
365.810	24.326	1124.455	887.599
366.825	24.355	1124.025	887.324
367.840	24.314	1123.561	886.673
368.854	24.407	1122.614	886.310
369.869	24.272	1122.228	885.257
370.883	24.443	1121.243	885.252
371.898	24.350	1120.716	884.293
372.913	24.319	1120.187	883.646
373.927	24.447	1119.296	883.499
374.942	24.394	1118.793	882.760
375.956	24.476	1118.507	882.860
376.971	24.473	1118.041	882.400
377.986	24.462	1117.191	881.598
379.000	24.479	1117.251	881.650
380.015	24.543	1116.441	881.251
381.029	24.621	1115.276	880.637
382.044	24.605	1114.786	880.092
383.059	24.561	1114.207	879.339
384.073	24.539	1113.506	878.604
385.088	24.530	1112.658	877.809
386.102	24.529	1112.223	877.387
387.117	24.473	1111.091	876.142
388.132	24.524	1110.021	875.467
389.146	24.643	1109.536	875.594
390.161	24.600	1109.050	874.921
391.175	24.543	1108.489	874.123
392.190	24.565	1108.015	873.779
393.205	24.671	1107.028	873.442
394.219	24.638	1106.090	872.462
395.234	24.586	1105.562	871.714
396.248	24.636	1104.618	871.138
397.263	24.721	1103.727	870.773
398.278	24.792	1103.182	870.609
399.292	24.726	1102.808	869.916
400.307	24.732	1102.184	869.374
401.321	24.671	1101.593	868.536
402.336	24.737	1100.645	868.034
403.350	24.692	1099.942	867.185
404.365	24.767	1099.551	867.162
405.380	24.833	1098.715	866.745
406.394	24.695	1098.193	865.589
407.409	24.822	1097.038	865.218
408.423	24.830	1096.415	864.689
409.438	24.901	1095.339	864.107
410.453	24.831	1095.088	863.491
411.467	24.937	1094.000	863.069
412.482	24.785	1093.456	861.833
413.496	24.856	1093.215	861.909
414.511	25.034	1092.240	861.920
415.526	24.890	1092.032	860.988
416.540	25.014	1091.563	861.137
417.555	24.976	1091.121	860.528
418.569	24.811	1090.677	859.310
419.584	24.960	1090.450	859.767
420.599	25.017	1089.774	859.436
421.613	148.100	1402.844	1798.989
422.628	137.010	1448.439	1799.071
