DTS Sentinel unit serial number:	SN413079Multiplexer serial number:	ORYXHardware model number:	OX4-SRSoftware version number:	ORYX F/W v4.00 Oryx Data Collector v3.7.2.0data status	okinstallation	princeton_trtdifferential loss correction	single-endedforward channel	channel 2reverse channel	N/Adate	2019/09/15time	00:55:35forward acquisition time	60.00reverse acquisition time	0.00gamma	496.2192k internal	0.2324k external	0.2324temperature offset calibration	1.0039default loss term (dB/km)	0.3790temperature slope calibration	1.0000multiplexer offset coefficient	1.0000multiplexer slope coefficient	1.0000fibre end	0.00T internal ref (°C)	32.03T ext. ref 1 (°C)	4.54T ext. ref 2 (°C)	26.92length (m)	temperature (°C)	Stokes	anti-Stokes-747.200	800.000	-0.015	0.063
-746.185	160.043	0.109	0.153
-745.171	-153.315	0.203	-0.014
-744.156	-200.000	0.037	0.281
-743.142	-52.694	-0.192	0.090
-742.127	4.559	-0.065	0.048
-741.112	230.645	0.113	-0.186
-740.098	-83.124	0.183	-0.059
-739.083	800.000	-0.088	-0.261
-738.069	-57.042	-0.196	0.087
-737.054	-24.584	-0.030	0.018
-736.039	33.353	-0.168	0.147
-735.025	-30.527	0.174	0.100
-734.010	-152.565	-0.268	-0.019
-732.996	-113.974	0.023	0.005
-731.981	-200.000	-0.034	-0.192
-730.966	21.981	0.110	-0.091
-729.952	195.482	-0.144	-0.221
-728.937	-142.872	-0.173	-0.017
-727.923	-156.403	-0.211	0.013
-726.908	44.366	-0.021	0.020
-725.894	5.758	0.126	-0.094
-724.879	-200.000	0.008	-0.168
-723.864	491.084	-0.105	0.243
-722.850	-200.000	0.029	0.342
-721.835	-200.000	0.028	-0.136
-720.821	-122.693	-0.367	-0.060
-719.806	800.000	-0.065	0.192
-718.791	-31.436	0.107	-0.061
-717.777	-200.000	0.037	-0.222
-716.762	-132.386	-0.232	-0.030
-715.748	-200.000	-0.071	-0.331
-714.733	-104.709	0.131	0.030
-713.718	231.569	0.110	0.182
-712.704	-82.365	-0.219	-0.072
-711.689	515.002	0.075	0.177
-710.675	-45.070	-0.052	0.026
-709.660	-78.495	0.216	0.074
-708.645	-39.484	0.087	-0.046
-707.631	-200.000	0.358	0.001
-706.616	-200.000	0.027	0.453
-705.602	163.334	-0.275	-0.390
-704.587	-106.670	-0.237	0.053
-703.572	-70.634	-0.182	0.070
-702.558	693.285	0.066	-0.175
-701.543	289.224	0.108	-0.197
-700.529	406.983	0.018	0.038
-699.514	-18.936	-0.192	0.121
-698.499	143.481	-0.267	-0.358
-697.485	-200.000	-0.056	0.270
-696.470	731.318	-0.039	-0.105
-695.456	-58.317	0.232	-0.102
-694.441	130.939	0.113	0.146
-693.426	-152.529	0.211	0.015
-692.412	-158.664	-0.055	0.003
-691.397	360.832	-0.105	-0.211
-690.383	-200.000	0.038	-0.262
-689.368	-200.000	-0.032	-0.378
-688.354	-40.866	-0.175	-0.091
-687.339	217.630	-0.184	-0.296
-686.324	125.867	0.163	0.207
-685.310	95.637	-0.165	0.189
-684.295	-88.254	-0.092	-0.028
-683.281	14.247	-0.092	0.072
-682.266	-21.222	0.109	0.067
-681.251	-200.000	0.061	-0.282
-680.237	316.964	0.082	-0.155
-679.222	800.000	0.081	-0.294
-678.208	570.936	-0.102	-0.250
-677.193	-54.561	0.285	-0.130
-676.178	358.042	-0.068	-0.137
-675.164	-200.000	-0.010	-0.280
-674.149	374.847	-0.051	0.105
-673.135	-138.408	-0.268	-0.030
-672.120	-200.000	-0.016	-0.281
-671.105	1.614	0.243	0.176
-670.091	5.826	0.061	0.046
-669.076	-54.914	-0.093	-0.042
-668.062	145.137	-0.197	-0.265
-667.047	104.701	0.015	0.018
-666.032	-116.875	0.248	-0.046
-665.018	50.960	0.160	0.153
-664.003	187.765	0.031	-0.047
-662.989	-44.932	0.058	-0.029
-661.974	64.271	-0.029	0.029
-660.959	94.519	0.053	-0.061
-659.945	-98.742	0.423	0.108
-658.930	27.162	0.212	-0.179
-657.916	51.898	0.159	0.153
-656.901	-18.015	0.309	-0.195
-655.886	-123.210	0.047	0.008
-654.872	-98.003	-0.226	0.059
-653.857	563.900	0.150	-0.365
-652.843	-126.906	-0.375	-0.056
-651.828	68.044	0.211	0.217
-650.814	361.354	-0.061	-0.123
-649.799	-65.661	0.082	0.033
-648.784	-200.000	0.016	-0.186
-647.770	58.431	-0.172	-0.169
-646.755	-0.493	-0.106	-0.076
-645.741	-127.414	-0.229	-0.033
-644.726	98.550	-0.213	-0.247
-643.711	596.142	0.020	0.049
-642.697	-75.596	-0.256	-0.092
-641.682	580.839	0.029	-0.071
-640.668	61.219	0.215	0.215
-639.653	-6.542	-0.118	-0.081
-638.638	167.468	0.084	-0.120
-637.624	155.385	-0.153	-0.212
-636.609	-200.000	0.008	0.283
-635.595	800.000	-0.084	-0.302
-634.580	65.131	0.214	-0.217
-633.565	35.655	-0.039	-0.034
-632.551	-16.929	-0.225	-0.143
-631.536	800.000	0.077	-0.298
-630.522	-49.025	-0.293	-0.141
-629.507	800.000	-0.051	-0.183
-628.492	565.927	-0.124	-0.303
-627.478	-68.325	0.051	0.020
-626.463	17.764	0.183	-0.146
-625.449	-200.000	-0.049	-0.235
-624.434	-149.495	0.232	-0.018
-623.419	-137.529	0.160	-0.018
-622.405	-61.576	0.040	-0.017
-621.390	-200.000	0.002	-0.093
-620.376	-200.000	0.003	-0.055
-619.361	-200.000	0.018	-0.121
-618.346	-143.836	0.183	-0.017
-617.332	38.386	0.092	0.083
-616.317	-33.853	0.083	-0.046
-615.303	-109.237	0.197	0.042
-614.288	55.675	-0.105	-0.102
-613.273	1.003	-0.259	-0.187
-612.259	-200.000	0.006	-0.047
-611.244	-3.025	0.031	-0.022
-610.230	-150.806	0.180	0.014
-609.215	82.367	0.150	-0.163
-608.201	-17.150	-0.042	0.027
-607.186	800.000	0.014	-0.042
-606.171	800.000	0.016	-0.050
-605.157	-36.675	0.174	-0.094
-604.142	443.004	-0.120	0.264
-603.128	-173.648	-0.200	-0.006
-602.113	-200.000	-0.011	-0.140
-601.098	-200.000	-0.025	-0.121
-600.084	-99.794	-0.083	-0.021
-599.069	-75.951	0.167	0.059
-598.055	-7.112	0.320	0.218
-597.040	-200.000	-0.052	-0.276
-596.025	-200.000	-0.006	0.108
-595.011	-200.000	-0.072	0.323
-593.996	-131.962	0.075	-0.010
-592.982	-104.426	-0.327	-0.076
-591.967	-2.596	0.104	0.073
-590.952	-200.000	-0.057	0.314
-589.938	280.631	-0.137	-0.247
-588.923	-200.000	-0.059	0.428
-587.909	-61.269	-0.139	-0.059
-586.894	800.000	-0.033	-0.138
-585.879	800.000	0.087	-0.295
-584.865	800.000	-0.046	-0.200
-583.850	-200.000	-0.060	0.321
-582.836	-29.501	-0.242	0.139
-581.821	800.000	0.078	0.276
-580.806	-182.547	0.230	-0.004
-579.792	800.000	-0.022	-0.065
-578.777	-200.000	-0.001	-0.410
-577.763	-176.510	0.016	0.000
-576.748	81.867	-0.061	0.067
-575.733	292.256	-0.107	-0.195
-574.719	70.830	0.374	-0.388
-573.704	210.042	0.141	-0.222
-572.690	-200.000	0.013	-0.190
-571.675	138.895	0.227	-0.299
-570.661	99.944	0.087	-0.101
-569.646	800.000	-0.071	-0.211
-568.631	-89.937	0.162	0.048
-567.617	-80.542	-0.463	0.155
-566.602	-200.000	-0.034	-0.166
-565.588	87.634	0.056	-0.062
-564.573	-49.336	-0.230	0.110
-563.558	-79.160	0.269	-0.091
-562.544	58.616	-0.144	0.142
-561.529	135.033	0.150	-0.195
-560.515	499.390	0.109	0.251
-559.500	800.000	0.038	0.107
-558.485	300.780	-0.101	0.187
-557.471	-200.000	-0.015	-0.495
-556.456	-70.132	-0.315	0.120
-555.442	-92.942	0.064	0.018
-554.427	123.352	0.064	0.080
-553.412	-61.653	0.364	0.153
-552.398	-200.000	0.042	-0.242
-551.383	-110.029	0.025	0.005
-550.369	57.562	-0.166	0.162
-549.354	95.759	-0.035	0.041
-548.339	-157.281	0.270	-0.016
-547.325	-86.517	0.163	-0.050
-546.310	23.256	-0.195	-0.160
-545.296	-60.117	-0.198	-0.084
-544.281	-200.000	-0.045	0.265
-543.266	256.998	-0.140	0.242
-542.252	-200.000	-0.014	0.107
-541.237	-60.017	-0.217	0.093
-540.223	47.583	0.019	0.018
-539.208	120.912	-0.063	-0.078
-538.193	-120.501	-0.184	-0.031
-537.179	128.041	0.114	0.146
-536.164	-87.555	0.178	0.054
-535.150	223.178	0.125	-0.201
-534.135	120.241	-0.065	0.080
-533.121	117.943	-0.176	0.217
-532.106	210.425	-0.100	0.157
-531.091	-90.590	-0.092	-0.027
-530.077	-189.257	0.094	0.001
-529.062	129.535	-0.231	0.296
-528.048	-8.356	0.283	0.191
-527.033	-91.887	0.231	-0.065
-526.018	-200.000	0.032	0.155
-525.004	-32.726	0.123	-0.068
-523.989	566.588	-0.121	-0.295
-522.975	-69.034	-0.462	-0.178
-521.960	-200.000	-0.004	0.135
-520.945	-75.446	0.319	0.114
-519.931	-117.845	-0.011	-0.002
-518.916	494.398	0.043	-0.098
-517.902	-32.882	-0.219	-0.122
-516.887	46.715	0.174	-0.162
-515.872	-79.948	0.158	0.053
-514.858	-35.341	-0.147	-0.080
-513.843	-10.693	-0.094	0.063
-512.829	800.000	0.082	-0.309
-511.814	-200.000	0.011	-0.384
-510.799	760.297	0.030	0.081
-509.785	60.246	-0.090	0.089
-508.770	349.214	0.078	0.155
-507.756	-41.076	0.225	0.116
-506.741	-132.204	-0.533	-0.069
-505.726	379.486	-0.035	0.072
-504.712	22.381	0.024	-0.019
-503.697	46.837	0.108	-0.100
-502.683	-200.000	0.029	0.285
-501.668	22.868	-0.242	-0.198
-500.653	159.618	-0.120	-0.167
-499.639	-17.471	0.176	0.111
-498.624	213.955	-0.127	0.200
-497.610	103.235	0.310	0.363
-496.595	-48.324	0.066	0.032
-495.581	5.254	-0.139	-0.102
-494.566	276.990	0.065	-0.116
-493.551	-126.207	0.216	-0.032
-492.537	84.995	-0.221	-0.243
-491.522	-154.101	-0.150	-0.010
-490.508	10.177	0.280	0.213
-489.493	-62.340	0.457	0.190
-488.478	-171.488	-0.200	0.007
-487.464	-166.852	-0.175	-0.007
-486.449	-29.155	-0.210	-0.120
-485.435	-169.303	0.082	-0.003
-484.420	800.000	-0.068	-0.217
-483.405	-135.501	0.190	-0.023
-482.391	6.051	0.209	0.155
-481.376	75.103	-0.158	-0.166
-480.362	800.000	0.067	0.195
-479.347	374.753	-0.078	-0.159
-478.332	-140.759	0.295	-0.030
-477.318	-137.380	0.301	-0.034
-476.303	-114.910	-0.072	0.014
-475.289	-200.000	0.101	0.447
-474.274	425.709	0.134	0.287
-473.259	-71.023	0.118	-0.044
-472.245	-98.869	-0.421	0.107
-471.230	-200.000	-0.079	-0.529
-470.216	-121.942	0.160	-0.026
-469.201	-93.402	-0.198	-0.055
-468.186	-54.139	0.296	-0.135
-467.172	-200.000	0.001	-0.244
-466.157	-47.384	-0.146	0.071
-465.143	-10.646	-0.086	0.057
-464.128	-20.325	-0.244	-0.150
-463.113	635.765	-0.074	-0.187
-462.099	-46.531	-0.020	-0.010
-461.084	285.767	0.100	-0.180
-460.070	100.790	-0.133	0.154
-459.055	-131.823	-0.371	0.048
-458.040	-200.000	-0.074	0.328
-457.026	-28.823	-0.232	-0.133
-456.011	-200.000	0.006	-0.061
-454.997	300.014	-0.125	0.229
-453.982	-56.345	0.318	-0.141
-452.968	-102.077	-0.240	0.058
-451.953	-130.309	0.196	0.027
-450.938	-183.269	0.241	-0.004
-449.924	-200.000	0.008	-0.163
-448.909	-124.902	-0.323	-0.050
-447.895	9.298	-0.230	-0.174
-446.880	-158.046	-0.277	0.016
-445.865	800.000	-0.010	0.039
-444.851	250.217	-0.028	0.048
-443.836	21.821	-0.113	-0.092
-442.822	-200.000	0.010	-0.089
-441.807	-30.324	-0.301	-0.170
-440.792	-73.567	-0.194	-0.071
-439.778	608.252	0.024	-0.060
-438.763	-152.085	-0.433	0.031
-437.749	18.907	0.164	0.131
-436.734	-200.000	-0.022	0.452
-435.719	2.981	0.087	0.063
-434.705	-80.984	0.156	0.052
-433.690	304.720	0.059	0.110
-432.676	251.217	-0.129	0.219
-431.661	-52.033	-0.245	-0.114
-430.646	-81.663	-0.331	0.108
-429.632	-57.540	-0.253	-0.111
-428.617	800.000	0.083	0.337
-427.603	-33.991	-0.133	0.073
-426.588	444.519	-0.112	-0.244
-425.573	800.000	-0.034	-0.135
-424.559	-89.857	-0.188	0.055
-423.544	-20.056	0.269	0.165
-422.530	235.770	-0.198	-0.327
-421.515	800.000	0.085	-0.281
-420.500	164.492	0.149	0.210
-419.486	-134.108	-0.117	-0.014
-418.471	130.043	-0.148	-0.189
-417.457	-200.000	-0.025	-0.140
-416.442	205.291	0.042	0.065
-415.428	-88.250	0.280	-0.084
-414.413	-96.635	0.190	0.050
-413.398	-146.355	-0.225	-0.020
-412.384	-119.843	0.351	0.060
-411.369	-88.298	-0.261	-0.078
-410.355	-42.305	0.018	0.009
-409.340	132.587	-0.236	0.303
-408.325	-116.942	0.296	0.054
-407.311	-36.421	-0.240	-0.129
-406.296	6.176	-0.121	0.089
-405.282	-200.000	0.283	0.000
-404.267	-0.209	0.120	-0.085
-403.252	352.110	0.129	-0.254
-402.238	232.558	-0.038	0.062
-401.223	-84.859	0.359	-0.112
-400.209	316.850	-0.115	-0.216
-399.194	-123.455	0.193	0.031
-398.179	-153.996	-0.194	-0.013
-397.165	-200.000	0.006	-0.121
-396.150	-200.000	-0.007	-0.064
-395.136	-200.000	0.014	0.297
-394.121	194.173	0.283	0.426
-393.106	-200.000	0.007	0.116
-392.092	738.979	-0.112	0.300
-391.077	136.273	-0.071	0.092
-390.063	-200.000	0.039	-0.344
-389.048	-165.167	-0.248	0.011
-388.033	-131.324	0.283	-0.037
-387.019	-40.642	0.160	0.083
-386.004	201.844	-0.214	-0.328
-384.990	171.178	-0.074	0.106
-383.975	-142.599	0.095	-0.009
-382.960	52.332	-0.084	0.080
-381.946	3.605	0.131	-0.095
-380.931	-173.235	-0.016	-0.000
-379.917	800.000	0.030	0.121
-378.902	-3.624	0.147	-0.102
-377.888	11.059	0.121	-0.092
-376.873	84.306	-0.120	-0.130
-375.858	-81.748	0.267	0.087
-374.844	48.350	-0.176	0.164
-373.829	767.482	-0.171	0.462
-372.815	-80.208	-0.183	0.061
-371.800	-87.470	-0.242	0.073
-370.785	606.110	0.090	0.224
-369.771	-200.000	0.055	0.260
-368.756	-105.766	-0.273	-0.061
-367.742	1.732	0.204	0.146
-366.727	-200.000	-0.047	0.222
-365.712	-160.011	0.302	0.016
-364.698	-45.020	-0.292	-0.145
-363.683	-200.000	-0.009	0.181
-362.669	-79.094	-0.085	0.029
-361.654	-200.000	-0.006	-0.322
-360.639	36.728	0.295	0.259
-359.625	800.000	-0.077	-0.220
-358.610	205.218	-0.252	0.389
-357.596	71.061	0.153	-0.158
-356.581	131.786	0.121	-0.155
-355.566	479.142	-0.093	-0.208
-354.552	468.671	-0.122	-0.271
-353.537	63.825	-0.066	0.066
-352.523	-200.000	-0.046	0.235
-351.508	-49.783	0.270	0.128
-350.493	-120.829	0.099	0.017
-349.479	-172.806	0.328	-0.010
-348.464	64.942	-0.138	0.138
-347.450	-200.000	-0.010	0.118
-346.435	-78.430	-0.140	-0.048
-345.420	-159.045	0.191	0.011
-344.406	-95.285	-0.124	0.033
-343.391	162.889	-0.186	-0.259
-342.377	188.456	-0.215	0.319
-341.362	-27.981	0.105	0.060
-340.348	-200.000	0.000	0.266
-339.333	136.786	-0.184	0.239
-338.318	-151.733	0.137	-0.010
-337.304	-89.759	-0.312	0.091
-336.289	51.767	0.140	0.133
-335.275	-37.353	0.128	0.068
-334.260	-200.000	-0.078	0.000
-333.245	-22.448	0.128	0.077
-332.231	59.428	0.091	0.089
-331.216	-200.000	0.010	0.160
-330.202	98.772	0.084	0.097
-329.187	-200.000	-0.017	0.089
-328.172	-14.130	0.219	-0.140
-327.158	800.000	-0.119	0.461
-326.143	-129.722	0.341	0.047
-325.129	6.366	-0.063	0.047
-324.114	-12.811	-0.235	0.152
-323.099	279.790	-0.162	0.287
-322.085	-49.930	0.054	0.026
-321.070	-76.332	0.135	-0.047
-320.056	0.811	0.078	-0.055
-319.041	501.105	0.083	0.191
-318.026	-140.454	0.160	0.017
-317.012	60.465	0.194	-0.191
-315.997	102.411	0.087	0.101
-314.983	-125.275	-0.118	-0.018
-313.968	249.198	-0.139	-0.234
-312.953	-200.000	-0.012	-0.079
-311.939	-200.000	0.006	0.434
-310.924	-93.556	-0.454	-0.125
-309.910	-68.680	0.018	0.007
-308.895	800.000	0.049	0.145
-307.880	-200.000	-0.026	0.274
-306.866	730.668	-0.050	-0.132
-305.851	-200.000	-0.059	-0.269
-304.837	-65.211	-0.100	-0.040
-303.822	-97.632	-0.065	-0.017
-302.807	550.935	-0.058	-0.138
-301.793	-20.582	-0.014	-0.008
-300.778	-83.834	0.154	-0.049
-299.764	159.514	-0.122	0.169
-298.749	-45.425	-0.108	0.053
-297.735	225.260	-0.153	-0.246
-296.720	800.000	-0.125	-0.366
-295.705	-200.000	0.017	-0.271
-294.691	-86.943	-0.331	-0.100
-293.676	-46.243	0.264	0.129
-292.662	-35.349	-0.310	-0.167
-291.647	603.767	0.065	0.162
-290.632	-117.427	-0.238	-0.043
-289.618	-104.964	0.225	-0.051
-288.603	251.965	-0.084	0.142
-287.589	-101.560	-0.134	0.032
-286.574	-86.124	0.214	-0.065
-285.559	75.618	0.052	-0.055
-284.545	186.079	-0.266	-0.393
-283.530	-200.000	0.005	-0.070
-282.516	70.697	0.095	0.097
-281.501	-200.000	-0.074	0.335
-280.486	-72.007	0.282	-0.104
-279.472	-200.000	0.003	0.021
-278.457	-72.517	0.044	-0.016
-277.443	68.942	-0.122	-0.124
-276.428	94.598	0.227	0.256
-275.413	-170.684	0.213	-0.007
-274.399	201.642	0.121	-0.185
-273.384	677.530	-0.160	0.412
-272.370	-200.000	-0.027	-0.288
-271.355	130.647	0.045	-0.058
-270.340	-200.000	-0.008	0.111
-269.326	644.463	0.091	0.230
-268.311	482.841	-0.074	-0.166
-267.297	221.033	0.153	0.243
-266.282	258.914	0.134	-0.229
-265.267	-184.380	-0.070	0.001
-264.253	187.818	-0.071	0.106
-263.238	119.805	0.203	-0.249
-262.224	114.086	-0.140	0.169
-261.209	-86.128	0.219	-0.067
-260.195	-20.492	-0.193	0.117
-259.180	-171.428	0.201	0.007
-258.165	-61.871	-0.402	-0.167
-257.151	536.325	0.085	0.199
-256.136	-60.579	0.237	0.100
-255.122	-137.443	-0.160	0.018
-254.107	-125.466	0.319	-0.048
-253.092	757.535	-0.073	-0.197
-252.078	-37.026	-0.132	0.070
-251.063	153.917	-0.182	0.247
-250.049	-88.383	-0.202	0.060
-249.034	-28.502	0.131	0.075
-248.019	-86.597	0.163	-0.049
-247.005	800.000	0.042	-0.130
-245.990	-24.598	0.276	-0.163
-244.976	-27.288	0.196	-0.113
-243.961	-47.825	-0.326	-0.156
-242.946	-119.465	-0.261	0.045
-241.932	800.000	0.036	0.136
-240.917	281.753	-0.148	0.263
-239.903	52.576	-0.082	0.078
-238.888	-40.191	0.243	-0.125
-237.873	-200.000	0.037	-0.229
-236.859	-48.622	0.274	-0.130
-235.844	800.000	-0.045	-0.196
-234.830	-18.563	-0.188	-0.116
-233.815	64.500	-0.288	0.287
-232.800	-99.458	-0.331	0.082
-231.786	-66.426	-0.354	0.139
-230.771	131.897	-0.101	-0.128
-229.757	-44.475	-0.292	0.145
-228.742	173.330	-0.167	-0.238
-227.727	-66.839	-0.103	-0.040
-226.713	6.651	-0.153	-0.112
-225.698	97.782	0.180	-0.204
-224.684	-109.310	0.009	-0.002
-223.669	-25.384	0.165	0.097
-222.655	12.543	0.378	-0.288
-221.640	-200.000	-0.003	-0.209
-220.625	-119.683	0.218	0.037
-219.611	-168.041	-0.144	-0.006
-218.596	596.013	-0.162	0.396
-217.582	533.289	-0.044	-0.102
-216.567	-200.000	0.010	-0.414
-215.552	-37.190	-0.202	-0.107
-214.538	28.058	0.178	-0.149
-213.523	800.000	-0.027	0.108
-212.509	584.652	0.064	-0.156
-211.494	-113.041	0.337	-0.066
-210.479	215.019	-0.063	0.099
-209.465	40.554	0.258	-0.230
-208.450	-66.419	0.114	-0.045
-207.436	782.092	0.060	0.162
-206.421	34.481	-0.284	-0.245
-205.406	-147.567	0.131	0.011
-204.392	54.400	0.269	-0.256
-203.377	-141.010	0.384	-0.039
-202.363	125.101	-0.208	0.259
-201.348	-39.539	0.367	-0.190
-200.333	-102.317	0.161	0.038
-199.319	-36.608	0.128	-0.068
-198.304	-83.094	0.274	0.087
-197.290	134.991	0.190	0.243
-196.275	-200.000	-0.036	0.279
-195.260	146.475	0.229	0.304
-194.246	-181.754	-0.170	0.003
-193.231	324.288	0.151	-0.284
-192.217	-200.000	-0.001	0.145
-191.202	124.232	-0.204	-0.253
-190.187	0.857	0.232	0.164
-189.173	-200.000	-0.003	0.262
-188.158	24.942	0.050	0.041
-187.144	-82.919	0.113	-0.036
-186.129	302.989	0.156	0.284
-185.114	800.000	-0.118	0.364
-184.100	-178.002	-0.219	0.005
-183.085	800.000	0.045	0.181
-182.071	-79.373	-0.143	-0.048
-181.056	61.437	0.273	0.268
-180.042	-125.027	0.386	0.059
-179.027	276.995	0.098	0.173
-178.012	388.307	0.107	-0.219
-176.998	202.559	0.144	0.220
-175.983	171.336	0.065	0.092
-174.969	734.986	-0.056	0.147
-173.954	65.815	-0.259	-0.259
-172.939	118.175	0.134	-0.163
-171.925	365.743	0.103	0.205
-170.910	-167.514	0.040	0.002
-169.896	800.000	-0.035	-0.121
-168.881	-20.943	0.165	-0.100
-167.866	800.000	0.028	-0.103
-166.852	800.000	0.044	-0.157
-165.837	-150.098	-0.386	0.030
-164.823	278.254	-0.037	0.065
-163.808	-200.000	-0.019	0.176
-162.793	85.064	-0.265	0.287
-161.779	495.392	-0.054	0.123
-160.764	-76.565	0.105	0.036
-159.750	-200.000	0.017	0.179
-158.735	156.190	-0.150	0.204
-157.720	800.000	-0.032	0.105
-156.706	-93.422	0.308	-0.084
-155.691	800.000	0.021	-0.058
-154.677	56.692	0.269	0.259
-153.662	99.101	0.154	-0.175
-152.647	-6.843	0.317	0.212
-151.633	-28.767	0.247	-0.140
-150.618	800.000	-0.060	0.167
-149.604	-200.000	-0.037	0.181
-148.589	-106.105	-0.240	-0.053
-147.574	-36.824	-0.226	-0.120
-146.560	-25.634	-0.188	-0.110
-145.545	91.397	-0.245	-0.272
-144.531	-105.093	0.089	0.020
-143.516	800.000	0.130	0.437
-142.502	-15.336	0.182	0.114
-141.487	-162.308	0.291	-0.014
-140.472	-200.000	-0.019	-0.384
-139.458	-36.824	-0.350	-0.185
-138.443	-37.694	-0.291	-0.153
-137.429	171.401	0.192	0.272
-136.414	-52.891	0.104	0.047
-135.399	-37.207	-0.123	-0.065
-134.385	-200.000	-0.034	0.271
-133.370	-66.749	0.095	0.037
-132.356	-200.000	-0.026	0.468
-131.341	-3.001	-0.152	0.105
-130.326	-50.059	0.543	-0.254
-129.312	-19.668	0.193	-0.117
-128.297	-46.076	-0.199	0.097
-127.283	-33.642	0.029	-0.016
-126.268	-99.688	-0.166	-0.041
-125.253	-200.000	0.066	0.387
-124.239	-126.943	0.109	0.016
-123.224	-200.000	-0.034	-0.254
-122.210	-200.000	0.020	0.091
-121.195	-200.000	-0.027	-0.444
-120.180	-69.054	0.206	-0.078
-119.166	-4.337	-0.374	-0.255
-118.151	137.168	0.097	-0.125
-117.137	-25.329	0.383	-0.223
-116.122	-104.863	0.295	0.067
-115.107	700.263	0.075	0.195
-114.093	-124.614	-0.362	0.055
-113.078	700.900	0.078	0.202
-112.064	63.530	-0.221	0.218
-111.049	295.583	-0.127	-0.229
-110.034	-91.008	0.106	-0.030
-109.020	-200.000	-0.016	0.234
-108.005	737.817	0.130	-0.344
-106.991	-123.316	0.076	-0.012
-105.976	12.082	-0.106	0.080
-104.962	800.000	-0.015	0.040
-103.947	-153.094	0.179	0.012
-102.932	-24.517	0.052	-0.031
-101.918	-98.918	0.137	-0.034
-100.903	78.167	-0.123	-0.130
-99.889	-63.983	0.059	-0.024
-98.874	687.523	0.089	0.229
-97.859	-200.000	0.057	0.272
-96.845	8.344	-0.138	-0.102
-95.830	800.000	-0.067	-0.225
-94.816	-39.646	0.059	-0.031
-93.801	-114.687	0.238	0.045
-92.786	-200.000	-0.004	0.279
-91.772	800.000	-0.065	-0.239
-90.757	800.000	0.047	-0.141
-89.743	-130.468	-0.348	0.046
-88.728	-82.478	-0.157	0.050
-87.713	-77.470	-0.224	-0.076
-86.699	-147.533	0.315	-0.026
-85.684	-148.411	0.087	0.007
-84.670	-57.550	-0.316	0.136
-83.655	-113.383	-0.358	0.069
-82.640	-173.940	-0.242	-0.007
-81.626	33.279	-0.127	0.108
-80.611	-51.593	0.129	0.059
-79.597	774.435	0.106	0.283
-78.582	-200.000	0.005	-0.067
-77.567	800.000	-0.077	-0.230
-76.553	161.363	-0.175	-0.241
-75.538	-135.312	-0.109	0.013
-74.524	131.978	-0.193	-0.244
-73.509	83.019	-0.122	0.131
-72.494	-21.823	-0.187	-0.112
-71.480	1.431	-0.316	-0.223
-70.465	243.861	0.190	0.313
-69.451	-200.000	-0.116	0.536
-68.436	-29.735	0.134	0.075
-67.422	-47.790	0.103	0.049
-66.407	-81.953	-0.233	0.075
-65.392	-97.658	-0.187	0.048
-64.378	-4.183	-0.362	-0.246
-63.363	-73.263	-0.031	-0.011
-62.349	-141.818	-0.281	-0.028
-61.334	196.734	-0.846	-1.268
-60.319	174.854	0.382	0.543
-59.305	721.450	-0.466	-1.219
-58.290	328.497	0.507	0.958
-57.276	570.895	0.653	1.563
-56.261	-200.000	95.268	594.242
-55.246	662.669	1366.651	3462.249
-54.232	199.275	2550.539	3840.891
-53.217	113.612	2268.321	2706.778
-52.203	41.486	1896.968	1686.779
-51.188	35.392	1686.584	1453.657
-50.173	32.612	1642.802	1395.309
-49.159	50.513	1689.050	1569.250
-48.144	52.190	1705.109	1596.678
-47.130	34.953	1666.627	1432.935
-46.115	32.146	1652.360	1399.737
-45.100	32.051	1647.158	1394.566
-44.086	31.993	1644.455	1391.789
-43.071	31.955	1642.123	1389.481
-42.057	31.982	1639.295	1387.236
-41.042	31.895	1637.650	1385.144
-40.027	31.965	1635.974	1384.188
-39.013	31.926	1633.825	1382.027
-37.998	31.873	1632.385	1380.364
-36.984	31.943	1631.066	1379.707
-35.969	32.035	1629.606	1379.093
-34.954	32.049	1627.583	1377.430
-33.940	32.018	1626.358	1376.110
-32.925	32.073	1624.172	1374.613
-31.911	32.026	1622.849	1373.097
-30.896	32.100	1620.806	1371.849
-29.881	31.987	1619.657	1370.000
-28.867	32.050	1617.686	1368.734
-27.852	31.948	1616.183	1366.668
-26.838	31.976	1614.472	1365.368
-25.823	32.034	1613.090	1364.571
-24.809	32.100	1611.372	1363.541
-23.794	32.034	1610.631	1362.381
-22.779	32.060	1609.053	1361.178
-21.765	31.979	1607.405	1359.143
-20.750	32.048	1605.384	1357.884
-19.736	32.060	1604.611	1357.261
-18.721	32.101	1603.124	1356.248
-17.706	32.073	1601.669	1354.755
-16.692	32.005	1600.262	1353.023
-15.677	32.052	1598.733	1352.015
-14.663	32.079	1597.129	1350.797
-13.648	32.047	1596.084	1349.631
-12.633	32.054	1594.508	1348.299
-11.619	32.054	1593.222	1347.159
-10.604	32.135	1591.550	1346.267
-9.590	32.080	1590.466	1344.906
-8.575	32.107	1588.486	1343.372
-7.560	32.052	1587.981	1342.501
-6.546	32.076	1586.970	1341.760
-5.531	32.076	1585.420	1340.400
-4.517	32.007	1584.293	1338.898
-3.502	32.116	1582.726	1338.296
-2.487	32.119	1580.981	1336.789
-1.473	31.808	1569.914	1325.184
-0.458	29.187	1550.003	1290.000
0.556	24.938	1550.924	1257.856
1.571	22.613	1573.833	1259.729
2.586	22.138	1587.058	1266.778
3.600	19.492	1533.218	1205.241
4.615	11.890	1426.040	1071.330
5.629	5.654	1363.795	985.355
6.644	4.630	1356.162	973.346
7.659	4.529	1355.020	971.806
8.673	4.438	1353.977	970.406
9.688	4.573	1352.122	969.836
10.702	4.491	1349.481	967.343
11.717	7.284	1355.402	988.952
12.731	14.562	1368.521	1044.141
13.746	19.108	1375.467	1077.879
14.761	18.976	1373.186	1075.170
15.775	17.917	1370.628	1066.461
16.790	16.969	1367.634	1058.123
17.804	16.028	1365.987	1050.893
18.819	15.610	1364.785	1047.272
19.834	15.332	1363.289	1044.296
20.848	15.144	1361.579	1041.726
21.863	15.027	1360.798	1040.309
22.877	14.850	1359.714	1038.287
23.892	14.834	1358.519	1037.185
24.907	14.755	1357.864	1036.104
25.921	14.825	1357.091	1035.860
26.936	14.792	1356.679	1035.249
27.950	14.826	1354.848	1033.966
28.965	14.937	1353.793	1033.758
29.980	15.006	1353.358	1033.761
30.994	15.101	1351.873	1033.120
32.009	15.145	1350.989	1032.624
33.023	15.153	1349.279	1031.278
34.038	14.954	1348.555	1029.405
35.053	14.922	1347.308	1028.167
36.067	14.912	1346.338	1027.273
37.082	14.966	1345.107	1026.575
38.096	15.121	1344.155	1026.706
39.111	15.078	1343.516	1025.864
40.126	14.946	1342.630	1024.288
41.140	14.813	1341.513	1022.535
42.155	14.685	1341.094	1021.338
43.169	14.737	1340.940	1021.453
44.184	14.726	1340.487	1020.948
45.199	14.728	1339.957	1020.468
46.213	14.793	1339.676	1020.561
47.228	14.860	1339.121	1020.457
48.242	14.915	1337.797	1019.690
49.257	14.894	1336.263	1018.301
50.271	14.844	1335.001	1016.950
51.286	14.931	1333.102	1015.941
52.301	14.955	1332.003	1015.161
53.315	14.819	1331.413	1013.796
54.330	14.844	1329.696	1012.548
55.344	14.639	1328.617	1010.398
56.359	14.790	1327.506	1010.377
57.374	14.709	1326.726	1009.203
58.388	14.608	1325.880	1007.859
59.403	14.538	1325.810	1007.296
60.417	14.702	1324.779	1007.409
61.432	14.742	1324.092	1007.044
62.447	14.532	1323.059	1004.900
63.461	14.503	1321.735	1003.630
64.476	14.537	1321.090	1003.260
65.490	14.562	1319.562	1002.156
66.505	14.634	1317.561	1000.984
67.520	14.670	1316.646	1000.414
68.534	14.657	1315.602	999.453
69.549	14.579	1314.489	998.057
70.563	14.647	1313.307	997.477
71.578	14.491	1312.489	995.834
72.593	14.360	1311.908	994.525
73.607	14.559	1310.431	994.499
74.622	14.560	1309.794	993.934
75.636	14.501	1309.221	993.060
76.651	14.507	1309.093	992.912
77.666	14.521	1308.554	992.500
78.680	14.520	1307.648	991.717
79.695	14.554	1306.989	991.334
80.709	14.657	1305.953	991.072
81.724	14.701	1305.283	990.738
82.739	14.775	1304.251	990.305
83.753	14.902	1303.315	990.259
84.768	14.895	1302.662	989.633
85.782	15.028	1301.334	989.322
86.797	14.908	1300.315	987.751
87.812	14.865	1299.196	986.563
88.826	14.858	1298.098	985.600
89.841	14.858	1297.292	984.899
90.855	15.006	1295.901	984.624
91.870	15.026	1295.318	984.217
92.884	14.965	1294.146	982.880
93.899	14.988	1293.498	982.434
94.914	15.104	1292.957	982.616
95.928	15.022	1292.240	981.502
96.943	14.996	1290.997	980.321
97.957	14.986	1290.216	979.584
98.972	14.994	1288.867	978.520
99.987	14.961	1288.234	977.759
101.001	14.991	1286.976	976.890
102.016	14.944	1285.958	975.762
103.030	15.041	1284.789	975.349
104.045	15.013	1284.407	974.810
105.060	14.880	1283.094	972.955
106.074	14.799	1281.556	971.232
107.089	14.723	1280.311	969.764
108.103	14.590	1279.121	967.999
109.118	14.704	1277.587	967.418
110.133	14.670	1276.363	966.205
111.147	14.705	1274.586	964.980
112.162	14.739	1273.948	964.606
113.176	14.739	1272.828	963.673
114.191	14.754	1271.738	962.850
115.206	14.742	1270.846	962.019
116.220	14.811	1269.593	961.384
117.235	14.766	1268.541	960.243
118.249	14.793	1267.416	959.459
119.264	14.696	1266.255	957.943
120.279	14.781	1264.667	957.139
121.293	14.708	1264.258	956.329
122.308	14.601	1263.121	954.772
123.322	14.642	1262.083	954.139
124.337	14.613	1260.783	952.906
125.352	14.547	1260.251	952.040
126.366	14.585	1258.927	951.174
127.381	14.646	1257.486	950.348
128.395	14.637	1256.947	949.804
129.410	14.629	1256.000	948.962
130.424	14.675	1255.274	948.592
131.439	14.715	1254.429	948.095
132.454	14.758	1252.923	947.113
133.468	14.805	1252.260	946.798
134.483	14.837	1251.638	946.427
135.497	14.859	1250.597	945.679
136.512	14.807	1249.222	944.262
137.527	14.798	1247.868	943.104
138.541	14.777	1246.672	941.995
139.556	14.848	1245.496	941.426
140.570	14.891	1244.451	940.795
141.585	14.993	1243.089	940.253
142.600	14.986	1242.043	939.343
143.614	15.099	1241.445	939.440
144.629	15.043	1240.057	937.995
145.643	15.024	1238.867	936.902
146.658	15.042	1237.705	936.044
147.673	14.907	1236.050	933.956
148.687	14.872	1235.214	933.043
149.702	14.897	1233.376	931.711
150.716	14.889	1232.123	930.639
151.731	14.957	1230.833	929.962
152.746	14.912	1229.771	928.827
153.760	14.853	1229.062	927.879
154.775	15.050	1227.818	927.954
155.789	14.994	1227.286	927.157
156.804	15.145	1226.360	927.211
157.819	15.104	1225.099	925.949
158.833	15.097	1224.396	925.297
159.848	15.184	1223.457	924.987
160.862	15.110	1222.472	923.753
161.877	15.013	1221.307	922.257
162.892	14.993	1219.922	921.016
163.906	14.909	1219.468	920.132
164.921	14.947	1218.647	919.639
165.935	15.059	1217.746	919.490
166.950	15.124	1216.776	919.036
167.964	15.091	1216.239	918.371
168.979	15.052	1215.557	917.556
169.994	14.949	1214.956	916.457
171.008	15.114	1214.036	916.585
172.023	15.212	1212.643	915.991
173.037	15.298	1212.514	916.280
174.052	15.167	1211.781	914.930
175.067	15.038	1210.705	913.333
176.081	15.051	1209.479	912.401
177.096	14.936	1208.661	911.072
178.110	15.124	1207.623	911.236
179.125	15.147	1206.313	910.288
180.140	15.042	1205.290	908.868
181.154	15.164	1203.857	908.371
182.169	15.176	1203.062	907.756
183.183	15.310	1201.529	907.239
184.198	15.258	1200.402	906.028
185.213	15.217	1199.697	905.196
186.227	15.383	1198.518	905.119
187.242	15.375	1197.271	904.058
188.256	15.443	1196.380	903.668
189.271	15.476	1195.347	902.986
190.286	15.350	1193.821	901.076
191.300	15.090	1193.116	899.071
192.315	14.945	1192.661	897.870
193.329	15.024	1192.085	897.780
194.344	15.163	1191.273	897.836
195.359	15.212	1190.907	897.741
196.373	15.217	1190.733	897.556
197.388	15.361	1189.946	897.657
198.402	15.438	1190.081	898.090
199.417	15.481	1188.629	897.146
200.432	15.667	1187.693	897.353
201.446	15.700	1187.241	897.106
202.461	15.738	1186.078	896.352
203.475	15.686	1185.443	895.516
204.490	15.473	1184.238	893.393
205.504	15.447	1183.104	892.321
206.519	15.654	1181.262	891.947
207.534	15.446	1180.597	890.266
208.548	15.561	1179.208	889.749
209.563	15.523	1178.748	889.121
210.577	15.515	1178.059	888.480
211.592	15.609	1177.044	888.136
212.607	15.710	1176.169	887.930
213.621	15.622	1176.073	887.312
214.636	15.719	1174.682	886.697
215.650	15.639	1173.344	885.186
216.665	15.673	1173.032	885.049
217.680	15.797	1171.956	884.813
218.694	15.866	1170.742	884.181
219.709	15.834	1170.339	883.631
220.723	15.811	1169.488	882.791
221.738	15.764	1168.858	881.992
222.753	15.801	1168.234	881.632
223.767	15.828	1167.450	881.108
224.782	15.936	1166.589	880.944
225.796	15.863	1166.261	880.235
226.811	15.888	1165.154	879.453
227.826	15.886	1164.598	878.946
228.840	15.798	1164.046	877.992
229.855	15.862	1163.387	877.747
230.869	15.791	1162.361	876.529
231.884	15.825	1161.630	876.077
232.899	15.780	1160.841	875.170
233.913	15.897	1159.822	874.933
234.928	15.808	1159.344	874.033
235.942	15.655	1158.720	872.690
236.957	15.864	1157.733	872.951
237.972	15.798	1156.790	871.825
238.986	15.746	1156.355	871.148
240.001	15.784	1156.062	871.048
241.015	15.771	1154.948	870.066
242.030	15.893	1154.021	869.919
243.045	15.872	1153.377	869.248
244.059	15.989	1152.542	869.147
245.074	16.048	1151.493	868.583
246.088	16.052	1150.904	868.080
247.103	15.992	1150.336	867.270
248.117	16.153	1149.563	867.435
249.132	16.178	1148.987	867.054
250.147	16.211	1148.830	867.028
251.161	16.393	1147.491	866.872
252.176	16.329	1147.261	866.295
253.190	16.365	1146.147	865.561
254.205	16.408	1145.759	865.414
255.220	16.555	1145.033	865.540
256.234	16.461	1144.667	864.706
257.249	16.464	1144.221	864.307
258.263	16.422	1143.432	863.420
259.278	16.484	1142.674	863.087
260.293	16.575	1142.135	863.067
261.307	16.620	1141.111	862.448
262.322	16.644	1140.709	862.189
263.336	16.644	1140.001	861.580
264.351	16.608	1139.953	861.283
265.366	16.745	1138.937	861.136
266.380	16.694	1138.327	860.337
267.395	16.591	1137.064	858.788
268.409	16.596	1136.546	858.345
269.424	16.435	1136.423	857.359
270.439	16.572	1135.173	857.033
271.453	16.569	1134.469	856.413
272.468	16.523	1133.633	855.469
273.482	16.566	1133.012	855.144
274.497	16.556	1132.405	854.559
275.512	16.614	1131.438	854.049
276.526	16.682	1130.799	853.831
277.541	16.579	1130.228	852.805
278.555	16.562	1129.622	852.191
279.570	16.573	1129.276	851.905
280.585	16.813	1128.090	852.144
281.599	16.740	1127.002	850.879
282.614	16.660	1126.155	849.766
283.628	16.744	1124.846	849.122
284.643	16.736	1123.857	848.261
285.657	16.608	1123.709	847.431
286.672	16.792	1122.427	847.310
287.687	16.793	1121.451	846.506
288.701	16.703	1120.545	845.296
289.716	16.821	1119.862	845.293
290.730	16.749	1119.541	844.618
291.745	16.803	1118.748	844.215
292.760	16.974	1117.764	844.250
293.774	16.944	1117.219	843.612
294.789	17.012	1116.916	843.648
295.803	16.945	1116.434	842.878
296.818	16.846	1115.573	841.661
297.833	17.004	1114.276	841.393
298.847	16.908	1114.118	840.723
299.862	16.930	1113.413	840.226
300.876	16.989	1112.662	839.875
301.891	17.030	1112.010	839.510
302.906	17.049	1111.539	839.177
303.920	17.126	1110.696	838.844
304.935	17.184	1110.402	838.837
305.949	17.251	1109.337	838.289
306.964	17.298	1108.722	837.978
307.979	17.166	1107.868	836.608
308.993	17.193	1107.127	836.107
310.008	17.151	1107.102	835.810
311.022	17.171	1106.056	835.043
312.037	17.195	1104.893	834.210
313.052	17.165	1103.805	833.170
314.066	17.122	1102.933	832.226
315.081	17.115	1102.055	831.454
316.095	17.168	1101.331	831.096
317.110	17.070	1100.770	830.118
318.125	17.147	1099.887	829.756
319.139	17.048	1099.400	828.829
320.154	17.195	1098.685	828.938
321.168	17.118	1098.604	828.426
322.183	17.251	1097.580	828.229
323.197	17.131	1097.066	827.184
324.212	17.218	1096.067	826.779
325.227	17.165	1095.934	826.350
326.241	17.242	1094.955	825.913
327.256	17.192	1094.340	825.134
328.270	17.172	1093.338	824.205
329.285	17.200	1092.255	823.454
330.300	17.251	1091.397	822.981
331.314	17.121	1090.814	821.839
332.329	17.182	1089.838	821.323
333.343	17.287	1088.705	820.907
334.358	17.376	1088.223	820.900
335.373	17.278	1087.568	819.858
336.387	17.278	1087.119	819.451
337.402	17.356	1086.151	819.022
338.416	17.400	1085.399	818.594
339.431	17.548	1084.527	818.574
340.446	17.602	1084.367	818.642
341.460	17.591	1083.538	817.892
342.475	17.807	1082.337	817.947
343.489	17.614	1082.279	816.904
344.504	17.801	1080.745	816.573
345.519	17.710	1080.282	815.713
346.533	17.833	1079.135	815.364
347.548	17.718	1078.889	814.553
348.562	17.756	1078.008	814.000
349.577	17.747	1077.137	813.226
350.592	17.604	1076.342	811.873
351.606	17.439	1075.953	810.720
352.621	17.606	1074.665	810.473
353.635	17.527	1074.361	809.798
354.650	17.562	1073.715	809.407
355.665	17.608	1072.585	808.700
356.679	17.647	1072.260	808.569
357.694	17.657	1071.974	808.327
358.708	17.714	1071.236	807.970
359.723	17.749	1070.252	807.324
360.738	17.829	1069.595	807.136
361.752	17.801	1069.300	806.706
362.767	17.859	1068.440	806.263
363.781	17.805	1068.001	805.607
364.796	17.951	1067.709	806.000
365.810	17.918	1067.003	805.243
366.825	18.051	1066.182	805.179
367.840	18.118	1065.766	805.109
368.854	18.049	1065.413	804.444
369.869	18.067	1064.569	803.822
370.883	18.102	1063.379	803.017
371.898	17.872	1063.021	801.595
372.913	17.930	1062.474	801.383
373.927	18.195	1061.743	802.006
374.942	18.130	1061.236	801.245
375.956	18.094	1061.000	800.828
376.971	18.094	1060.345	800.262
377.986	18.257	1059.513	800.325
379.000	18.218	1058.837	799.565
380.015	18.317	1058.616	799.787
381.029	18.350	1057.973	799.384
382.044	18.272	1057.573	798.646
383.059	18.254	1056.270	797.509
384.073	18.263	1056.007	797.283
385.088	18.301	1055.175	796.759
386.102	18.347	1053.910	795.948
387.117	18.332	1052.828	794.992
388.132	18.164	1052.035	793.544
389.146	18.250	1051.302	793.319
390.161	18.238	1050.293	792.433
391.175	18.312	1049.516	792.116
392.190	18.203	1049.120	791.244
393.205	18.344	1048.345	791.241
394.219	18.257	1047.760	790.329
395.234	18.384	1046.793	790.115
396.248	18.245	1045.679	788.565
397.263	18.222	1044.653	787.616
398.278	18.175	1044.436	787.163
399.292	18.241	1043.294	786.536
400.307	18.128	1042.625	785.443
401.321	18.178	1042.210	785.290
402.336	18.248	1041.083	784.696
403.350	18.493	1040.322	785.174
404.365	18.275	1040.023	783.881
405.380	18.340	1039.048	783.373
406.394	18.404	1038.722	783.352
407.409	18.504	1038.078	783.254
408.423	18.595	1037.105	782.864
409.438	18.599	1036.629	782.453
410.453	18.580	1036.302	782.051
411.467	18.605	1035.410	781.423
412.482	18.651	1034.560	780.924
413.496	18.761	1034.116	781.018
414.511	18.769	1033.156	780.259
415.526	18.746	1033.008	779.973
416.540	18.847	1032.749	780.171
417.555	18.861	1031.862	779.492
418.569	18.716	1031.826	778.738
419.584	18.774	1031.313	778.544
420.599	18.872	1030.537	778.335
421.613	150.410	1401.122	1793.583
422.628	137.215	1455.128	1793.694
