DTS Sentinel unit serial number:	SN413079Multiplexer serial number:	ORYXHardware model number:	OX4-SRSoftware version number:	ORYX F/W v4.00 Oryx Data Collector v3.7.2.0data status	okinstallation	princeton_trtdifferential loss correction	single-endedforward channel	channel 2reverse channel	N/Adate	2019/09/17time	01:51:35forward acquisition time	60.00reverse acquisition time	0.00gamma	496.2192k internal	0.2328k external	0.2328temperature offset calibration	0.9979default loss term (dB/km)	0.3790temperature slope calibration	1.0000multiplexer offset coefficient	1.0000multiplexer slope coefficient	1.0000fibre end	0.00T internal ref (°C)	29.61T ext. ref 1 (°C)	0.12T ext. ref 2 (°C)	24.60length (m)	temperature (°C)	Stokes	anti-Stokes-747.200	-131.256	-0.366	0.049
-746.185	20.816	0.251	-0.205
-745.171	-200.000	0.001	-0.016
-744.156	-17.455	0.151	-0.096
-743.142	-200.000	-0.004	0.043
-742.127	209.150	-0.064	0.101
-741.112	-72.806	-0.478	0.177
-740.098	312.662	-0.151	0.286
-739.083	96.646	0.150	-0.173
-738.069	-200.000	0.042	0.205
-737.054	800.000	0.018	0.064
-736.039	374.066	-0.186	-0.381
-735.025	171.037	0.032	-0.046
-734.010	192.553	0.100	-0.152
-732.996	-38.290	-0.315	-0.168
-731.981	-149.716	-0.112	0.009
-730.966	-56.054	-0.110	0.049
-729.952	59.605	-0.365	-0.362
-728.937	27.689	0.049	0.042
-727.923	-91.031	-0.250	-0.072
-726.908	19.833	-0.233	0.189
-725.894	2.555	0.268	-0.195
-724.879	-200.000	-0.101	-0.465
-723.864	800.000	-0.086	0.271
-722.850	-84.368	0.208	-0.066
-721.835	800.000	-0.072	-0.313
-720.821	-200.000	-0.010	-0.185
-719.806	20.418	-0.247	-0.201
-718.791	-3.921	-0.468	0.327
-717.777	90.091	0.147	-0.165
-716.762	84.439	-0.026	-0.028
-715.748	-106.452	-0.410	0.092
-714.733	-70.748	-0.055	-0.021
-713.718	-97.725	-0.071	-0.019
-712.704	-147.018	0.229	0.020
-711.689	-168.391	-0.276	0.011
-710.675	800.000	-0.051	-0.162
-709.660	315.899	-0.156	-0.296
-708.645	-123.546	-0.192	0.031
-707.631	172.139	0.207	0.299
-706.616	307.682	-0.096	0.180
-705.602	-106.983	0.255	-0.057
-704.587	461.991	0.071	0.159
-703.572	-200.000	0.018	-0.119
-702.558	-27.619	-0.362	0.211
-701.543	-26.267	0.372	-0.220
-700.529	-49.927	-0.083	-0.040
-699.514	79.523	-0.094	0.102
-698.499	-157.504	0.327	-0.020
-697.485	-110.619	-0.186	-0.039
-696.470	290.910	-0.036	0.066
-695.456	-64.205	-0.200	-0.082
-694.441	647.313	0.163	-0.420
-693.426	177.305	-0.063	0.092
-692.412	60.849	-0.316	-0.315
-691.397	551.533	0.093	0.226
-690.383	29.224	0.207	-0.177
-689.368	-200.000	0.001	0.329
-688.354	800.000	0.044	0.181
-687.339	109.028	0.157	-0.189
-686.324	-53.256	-0.076	0.035
-685.310	33.338	0.141	-0.123
-684.295	129.971	0.150	-0.193
-683.281	98.206	-0.307	0.356
-682.266	-149.331	-0.184	0.015
-681.251	195.601	-0.077	0.117
-680.237	-131.062	-0.186	0.025
-679.222	-200.000	-0.029	0.155
-678.208	-200.000	0.022	0.127
-677.193	106.516	-0.117	-0.139
-676.178	-200.000	0.023	-0.578
-675.164	-200.000	-0.085	-0.483
-674.149	-10.342	0.030	0.020
-673.135	-62.252	0.136	0.057
-672.120	57.882	0.265	-0.261
-671.105	239.133	-0.181	-0.302
-670.091	-123.607	-0.063	0.010
-669.076	800.000	-0.079	0.236
-668.062	-97.082	-0.134	-0.035
-667.047	33.750	0.076	0.067
-666.032	-78.392	-0.131	-0.045
-665.018	800.000	0.040	-0.152
-664.003	-80.018	-0.386	-0.130
-662.989	41.923	-0.079	-0.072
-661.974	34.598	-0.194	0.170
-660.959	-200.000	0.002	0.077
-659.945	-200.000	0.025	-0.390
-658.930	-162.939	-0.054	0.003
-657.916	-149.798	0.162	0.013
-656.901	11.986	0.431	0.333
-655.886	800.000	-0.164	0.558
-654.872	-71.026	0.229	0.087
-653.857	445.306	0.081	0.178
-652.843	-7.424	-0.092	-0.063
-651.828	-106.354	-0.446	-0.100
-650.814	30.677	-0.158	0.136
-649.799	-200.000	0.046	-0.205
-648.784	-200.000	0.016	-0.091
-647.770	800.000	-0.031	-0.135
-646.755	124.271	-0.036	0.045
-645.741	-136.070	0.149	0.018
-644.726	404.481	0.033	-0.069
-643.711	-104.856	-0.173	-0.040
-642.697	216.076	0.204	0.325
-641.682	-129.237	0.183	-0.026
-640.668	-200.000	-0.310	0.001
-639.653	800.000	0.073	0.256
-638.638	-95.722	-0.425	-0.114
-637.624	-200.000	-0.099	-0.450
-636.609	-200.000	0.030	-0.254
-635.595	-167.915	0.226	0.009
-634.580	-137.256	0.582	-0.066
-633.565	-200.000	0.030	0.200
-632.551	27.824	-0.039	-0.033
-631.536	-103.351	-0.128	-0.030
-630.522	10.394	-0.149	0.114
-629.507	83.765	0.178	0.195
-628.492	-109.442	0.175	-0.037
-627.478	-43.298	-0.372	0.189
-626.463	-200.000	-0.096	0.478
-625.449	587.477	0.115	0.285
-624.434	-69.570	0.152	-0.059
-623.419	-120.100	0.241	-0.041
-622.405	15.526	-0.320	-0.252
-621.390	66.335	0.208	0.212
-620.376	-200.000	0.016	0.167
-619.361	800.000	0.046	-0.186
-618.346	59.922	0.136	0.135
-617.332	54.889	-0.127	-0.123
-616.317	-123.931	-0.404	0.064
-615.303	-70.323	0.090	-0.034
-614.288	134.023	-0.141	-0.183
-613.273	108.430	0.258	-0.308
-612.259	222.585	-0.195	-0.315
-611.244	-200.000	0.070	-0.372
-610.230	-200.000	0.057	-0.258
-609.215	78.132	-0.050	-0.054
-608.201	800.000	0.043	-0.183
-607.186	-36.498	0.266	0.143
-606.171	-200.000	0.017	-0.177
-605.157	-43.931	-0.525	-0.265
-604.142	-132.738	0.113	-0.014
-603.128	-110.840	-0.200	-0.041
-602.113	-144.425	-0.136	-0.013
-601.098	-25.546	0.101	0.060
-600.084	364.969	-0.036	-0.072
-599.069	37.513	-0.339	0.301
-598.055	-93.957	0.289	-0.080
-597.040	-200.000	0.017	-0.175
-596.025	367.668	0.176	-0.355
-595.011	-101.373	-0.204	-0.050
-593.996	-200.000	0.017	-0.281
-592.982	117.441	-0.134	-0.165
-591.967	494.402	-0.079	0.182
-590.952	-25.256	0.253	-0.150
-589.938	22.520	0.054	-0.044
-588.923	-200.000	0.033	-0.185
-587.909	-200.000	0.057	0.372
-586.894	-62.572	-0.257	-0.107
-585.879	-200.000	-0.009	0.210
-584.865	-72.276	0.281	-0.104
-583.850	109.500	-0.110	0.132
-582.836	-99.502	-0.208	-0.052
-581.821	-46.894	-0.099	-0.049
-580.806	-85.883	-0.462	0.143
-579.792	-130.162	0.209	-0.029
-578.777	43.519	-0.217	-0.199
-577.763	-104.304	-0.215	0.050
-576.748	-50.101	-0.119	0.057
-575.733	120.888	0.026	0.033
-574.719	-200.000	-0.012	-0.175
-573.704	-200.000	0.026	0.116
-572.690	501.884	0.126	-0.291
-571.675	46.652	0.152	-0.141
-570.661	144.971	0.169	0.226
-569.646	-146.551	0.269	0.023
-568.631	467.510	-0.063	-0.142
-567.617	458.724	0.017	-0.037
-566.602	-96.408	-0.204	-0.054
-565.588	84.021	0.090	0.098
-564.573	608.339	0.102	-0.254
-563.558	79.196	0.276	0.296
-562.544	3.497	0.136	0.099
-561.529	-93.647	-0.122	0.034
-560.515	33.658	-0.164	-0.142
-559.500	800.000	0.061	-0.188
-558.485	800.000	-0.062	0.224
-557.471	-35.142	-0.178	-0.097
-556.456	-151.993	-0.177	-0.013
-555.442	-123.871	-0.121	-0.019
-554.427	-112.718	0.192	-0.038
-553.412	-200.000	0.021	0.124
-552.398	86.118	0.235	-0.259
-551.383	25.648	0.109	0.091
-550.369	-200.000	0.060	-0.286
-549.354	-200.000	0.006	-0.419
-548.339	209.617	0.126	0.198
-547.325	305.577	-0.119	-0.221
-546.310	-180.116	-0.204	0.004
-545.296	-32.760	0.142	0.079
-544.281	-34.754	-0.167	-0.091
-543.266	-34.316	0.298	0.163
-542.252	-200.000	-0.005	0.189
-541.237	747.101	0.049	-0.132
-540.223	714.054	0.093	0.246
-539.208	-59.462	-0.305	0.131
-538.193	-19.462	-0.375	-0.232
-537.179	-139.556	-0.202	-0.022
-536.164	-93.010	-0.087	-0.024
-535.150	118.570	0.054	0.067
-534.135	201.574	0.128	0.196
-533.121	800.000	0.048	0.151
-532.106	800.000	0.059	-0.215
-531.091	-52.278	-0.096	0.045
-530.077	800.000	-0.082	0.277
-529.062	51.032	0.210	-0.199
-528.048	800.000	0.110	0.363
-527.033	-200.000	0.043	0.227
-526.018	-64.625	-0.363	-0.147
-525.004	51.866	0.090	0.086
-523.989	39.726	0.097	-0.087
-522.975	-66.309	-0.216	0.086
-521.960	128.490	0.098	-0.124
-520.945	800.000	-0.048	-0.183
-519.931	-33.993	0.331	-0.182
-518.916	-146.887	-0.093	0.008
-517.902	-200.000	0.100	-0.487
-516.887	-47.462	-0.211	0.102
-515.872	210.176	-0.155	-0.242
-514.858	60.304	-0.191	-0.189
-513.843	328.730	-0.051	-0.098
-512.829	446.801	-0.138	-0.303
-511.814	-61.296	0.129	0.054
-510.799	-103.296	-0.329	0.078
-509.785	800.000	-0.053	0.207
-508.770	213.861	0.144	-0.227
-507.756	-200.000	-0.048	-0.466
-506.741	-134.480	-0.089	-0.011
-505.726	55.155	0.189	-0.182
-504.712	234.890	-0.093	-0.154
-503.697	-128.553	0.230	-0.033
-502.683	130.786	-0.130	0.166
-501.668	-200.000	0.018	-0.289
-500.653	564.416	0.144	-0.349
-499.639	800.000	-0.039	-0.141
-498.624	107.746	0.167	0.199
-497.610	6.369	-0.216	0.160
-496.595	-148.687	0.177	0.014
-495.581	59.143	-0.230	0.226
-494.566	-11.270	-0.200	-0.131
-493.551	109.632	-0.057	-0.068
-492.537	800.000	0.116	0.352
-491.522	-108.846	-0.206	0.044
-490.508	-144.549	-0.082	0.008
-489.493	-140.692	0.308	0.032
-488.478	-55.668	-0.143	0.064
-487.464	800.000	-0.020	0.083
-486.449	-200.000	-0.035	0.262
-485.435	800.000	0.095	-0.381
-484.420	-153.371	0.333	0.023
-483.405	388.169	-0.068	-0.140
-482.391	-100.699	0.243	0.060
-481.376	-200.000	-0.021	0.397
-480.362	-21.323	-0.057	-0.035
-479.347	251.818	-0.037	0.063
-478.332	-200.000	-0.020	-0.448
-477.318	40.121	0.025	0.023
-476.303	123.181	0.038	-0.047
-475.289	-68.044	0.077	0.030
-474.274	-90.233	-0.377	0.109
-473.259	435.554	-0.050	-0.109
-472.245	800.000	-0.013	-0.040
-471.230	238.007	-0.139	0.230
-470.216	-200.000	-0.005	-0.150
-469.201	-107.662	-0.104	0.023
-468.186	800.000	-0.066	0.244
-467.172	454.257	0.146	0.323
-466.157	-74.864	-0.170	-0.061
-465.143	-200.000	-0.001	0.016
-464.128	108.049	-0.118	-0.140
-463.113	-200.000	0.022	0.165
-462.099	800.000	0.102	-0.416
-461.084	-146.932	0.678	0.058
-460.070	361.020	-0.010	0.019
-459.055	779.079	-0.168	-0.458
-458.040	638.328	0.024	-0.062
-457.026	319.932	-0.108	0.204
-456.011	-11.990	-0.226	-0.147
-454.997	157.301	-0.089	-0.123
-453.982	-200.000	0.000	-0.347
-452.968	-170.917	0.323	-0.011
-451.953	435.175	0.115	-0.250
-450.938	32.502	-0.087	-0.075
-449.924	-106.070	0.162	0.036
-448.909	800.000	-0.063	-0.233
-447.895	68.829	-0.142	-0.145
-446.880	-200.000	-0.006	-0.363
-445.865	-27.262	0.472	0.274
-444.851	236.908	-0.126	0.208
-443.836	-200.000	-0.011	0.216
-442.822	-200.000	0.040	-0.301
-441.807	-37.041	-0.029	-0.015
-440.792	455.395	-0.069	-0.153
-439.778	-39.446	-0.179	0.093
-438.763	-200.000	0.007	0.107
-437.749	-156.342	0.190	0.012
-436.734	178.654	0.244	0.355
-435.719	-67.943	0.301	-0.117
-434.705	-17.145	-0.124	-0.078
-433.690	27.266	0.249	-0.208
-432.676	800.000	-0.089	0.275
-431.661	215.346	-0.210	0.332
-430.646	594.436	0.076	0.186
-429.632	-78.520	-0.529	0.180
-428.617	55.907	-0.174	0.168
-427.603	-75.970	-0.060	0.021
-426.588	-200.000	-0.040	0.252
-425.573	-200.000	0.240	-0.000
-424.559	77.721	0.060	0.064
-423.544	233.539	0.097	-0.159
-422.530	800.000	-0.127	-0.449
-421.515	-29.684	-0.214	0.122
-420.500	-200.000	-0.001	0.163
-419.486	660.485	-0.091	0.232
-418.471	379.209	-0.036	-0.073
-417.457	-34.017	0.183	-0.100
-416.442	627.524	0.083	-0.208
-415.428	219.106	0.174	-0.277
-414.413	-24.251	-0.035	0.020
-413.398	-44.472	-0.225	0.112
-412.384	-63.452	-0.137	0.056
-411.369	-149.283	-0.539	-0.043
-410.355	-69.107	-0.125	0.048
-409.340	162.563	0.127	0.177
-408.325	800.000	0.122	0.338
-407.311	-78.486	-0.170	0.058
-406.296	-75.130	0.108	-0.038
-405.282	-5.755	0.154	0.105
-404.267	-57.125	0.116	-0.051
-403.252	-24.582	-0.176	-0.104
-402.238	420.152	0.064	0.136
-401.223	-14.020	0.233	-0.150
-400.209	-28.095	-0.077	-0.044
-399.194	-18.169	-0.089	0.055
-398.179	-200.000	0.072	0.537
-397.165	212.878	-0.107	0.168
-396.150	800.000	0.014	-0.060
-395.136	-200.000	-0.005	-0.186
-394.121	75.271	0.044	0.046
-393.106	-200.000	-0.021	0.108
-392.092	-73.638	0.188	0.068
-391.077	800.000	0.059	-0.256
-390.063	-88.044	0.079	-0.023
-389.048	63.380	-0.169	0.169
-388.033	-99.153	0.328	-0.082
-387.019	231.892	-0.132	-0.216
-386.004	58.646	-0.015	-0.015
-384.990	-163.980	-0.434	-0.020
-383.975	3.319	-0.176	0.128
-382.960	77.515	0.114	0.121
-381.946	45.943	-0.108	-0.099
-380.931	-9.993	0.229	-0.151
-379.917	114.257	-0.164	-0.199
-378.902	-87.869	0.173	0.052
-377.888	-68.072	-0.243	-0.094
-376.873	-190.975	0.218	-0.002
-375.858	-200.000	-0.005	-0.096
-374.844	37.124	0.256	0.225
-373.829	24.438	0.107	0.088
-372.815	15.190	-0.163	-0.127
-371.800	-200.000	-0.035	-0.206
-370.785	53.021	0.287	0.273
-369.771	112.785	0.027	0.033
-368.756	152.919	-0.068	-0.093
-367.742	623.813	-0.058	0.144
-366.727	-47.780	-0.308	0.148
-365.712	-4.273	-0.218	0.150
-364.698	-106.672	0.095	0.021
-363.683	-200.000	-0.036	0.330
-362.669	-62.866	0.274	-0.113
-361.654	-200.000	-0.007	-0.035
-360.639	-50.602	0.280	-0.131
-359.625	800.000	-0.069	0.191
-358.610	-59.137	-0.152	-0.065
-357.596	-74.775	0.063	0.022
-356.581	-103.744	-0.142	0.033
-355.566	-200.000	0.006	0.064
-354.552	370.416	-0.146	-0.293
-353.537	8.183	-0.122	0.091
-352.523	55.024	-0.141	-0.135
-351.508	181.855	0.041	-0.060
-350.493	28.093	-0.153	-0.128
-349.479	-28.015	0.240	-0.138
-348.464	-60.710	-0.279	0.117
-347.450	208.799	0.168	0.261
-346.435	-156.907	0.029	0.002
-345.420	-135.741	-0.131	-0.015
-344.406	-200.000	-0.087	-0.381
-343.391	-200.000	-0.034	0.297
-342.377	-63.179	-0.249	-0.102
-341.362	266.196	0.093	0.161
-340.348	-200.000	-0.018	0.543
-339.333	-31.557	-0.007	0.004
-338.318	145.063	0.063	-0.084
-337.304	82.249	-0.289	-0.311
-336.289	108.511	0.028	-0.033
-335.275	482.160	-0.039	-0.089
-334.260	-158.179	-0.226	-0.013
-333.245	8.210	-0.082	-0.061
-332.231	-121.528	0.198	0.033
-331.216	-5.149	0.250	-0.170
-330.202	-13.735	-0.149	0.096
-329.187	511.623	-0.036	0.083
-328.172	-166.110	-0.078	-0.003
-327.158	168.249	-0.142	-0.200
-326.143	-200.000	-0.056	-0.269
-325.129	203.678	-0.027	0.042
-324.114	-89.533	-0.107	-0.031
-323.099	352.017	-0.119	-0.233
-322.085	652.074	-0.046	-0.117
-321.070	-200.000	0.036	0.368
-320.056	357.377	0.066	0.131
-319.041	154.320	-0.191	0.260
-318.026	-200.000	-0.000	0.048
-317.012	-200.000	-0.040	0.525
-315.997	229.218	0.116	0.188
-314.983	-200.000	-0.001	-0.145
-313.968	433.739	-0.069	-0.148
-312.953	257.941	0.141	-0.241
-311.939	115.957	0.026	-0.031
-310.924	354.231	0.048	-0.094
-309.910	-58.310	0.171	0.074
-308.895	-8.054	0.338	0.226
-307.880	-68.453	0.074	0.029
-306.866	7.683	0.087	-0.065
-305.851	120.005	0.256	-0.314
-304.837	-200.000	-0.001	-0.196
-303.822	270.814	0.062	0.108
-302.807	-110.800	-0.131	-0.027
-301.793	-34.946	0.072	0.039
-300.778	-44.885	0.053	-0.026
-299.764	214.948	0.206	0.323
-298.749	-66.816	-0.376	0.147
-297.735	-200.000	-0.000	0.391
-296.720	346.280	-0.082	-0.159
-295.705	-88.015	-0.206	-0.061
-294.691	433.364	0.118	0.254
-293.676	-70.782	0.103	-0.039
-292.662	-139.881	0.241	0.025
-291.647	381.681	0.102	0.206
-290.632	-32.172	-0.225	-0.124
-289.618	-200.000	0.030	-0.208
-288.603	-200.000	-0.016	-0.215
-287.589	800.000	0.060	0.225
-286.574	-112.969	0.146	0.029
-285.559	147.469	-0.051	-0.068
-284.545	-200.000	-0.010	-0.224
-283.530	800.000	-0.016	-0.044
-282.516	-200.000	0.001	0.314
-281.501	-200.000	-0.023	0.305
-280.486	26.730	-0.078	0.065
-279.472	800.000	-0.054	-0.225
-278.457	-200.000	-0.017	-0.078
-277.443	-91.813	0.199	0.056
-276.428	-83.180	0.162	-0.051
-275.413	-68.998	-0.317	0.121
-274.399	-125.745	-0.027	-0.004
-273.384	634.156	-0.169	0.425
-272.370	414.160	0.039	0.082
-271.355	800.000	0.047	0.180
-270.340	-15.304	0.137	-0.087
-269.326	-97.008	-0.080	0.021
-268.311	800.000	0.085	0.265
-267.297	432.440	0.136	0.291
-266.282	679.322	0.091	0.233
-265.267	8.043	0.256	0.190
-264.253	226.158	0.142	-0.228
-263.238	800.000	0.065	-0.248
-262.224	-200.000	0.025	0.384
-261.209	70.829	-0.110	-0.113
-260.195	521.725	0.027	-0.063
-259.180	23.151	-0.076	0.061
-258.165	31.485	0.085	0.072
-257.151	11.520	-0.173	-0.131
-256.136	636.985	-0.077	0.193
-255.122	-21.125	-0.140	0.084
-254.107	207.759	-0.027	0.041
-253.092	713.031	-0.072	-0.188
-252.078	-3.727	-0.112	-0.077
-251.063	-82.033	-0.141	-0.045
-250.049	800.000	0.081	0.346
-249.034	389.632	-0.147	0.300
-248.019	331.564	0.060	0.115
-247.005	69.188	-0.185	0.188
-245.990	-200.000	-0.058	0.332
-244.976	-173.711	-0.074	0.002
-243.961	-200.000	0.061	0.284
-242.946	-200.000	-0.020	-0.413
-241.932	167.078	0.140	0.196
-240.917	13.570	0.182	0.140
-239.903	202.233	0.166	0.252
-238.888	-200.000	-0.037	0.280
-237.873	38.664	0.436	0.384
-236.859	-10.093	0.147	0.097
-235.844	-200.000	0.041	-0.209
-234.830	-95.266	0.124	-0.033
-233.815	151.052	-0.255	-0.342
-232.800	231.341	0.066	-0.106
-231.786	-200.000	0.015	-0.071
-230.771	-200.000	-0.001	0.144
-229.757	52.045	0.132	-0.124
-228.742	-200.000	0.046	-0.260
-227.727	-26.272	-0.099	0.057
-226.713	800.000	0.045	-0.158
-225.698	136.080	-0.067	-0.086
-224.684	-34.816	0.120	-0.065
-223.669	800.000	-0.074	0.237
-222.655	18.719	-0.149	-0.118
-221.640	800.000	-0.088	0.259
-220.625	-54.816	0.078	0.035
-219.611	431.607	0.094	-0.200
-218.596	-51.116	0.248	0.115
-217.582	460.948	0.098	-0.215
-216.567	-200.000	0.010	-0.283
-215.552	55.777	-0.132	0.127
-214.538	-32.313	0.144	0.079
-213.523	-140.272	-0.200	0.021
-212.509	265.582	0.103	-0.177
-211.494	67.714	0.042	0.043
-210.479	-200.000	-0.002	0.342
-209.465	241.302	0.106	-0.175
-208.450	349.416	0.154	0.300
-207.436	-200.000	-0.014	0.114
-206.421	-153.345	-0.154	-0.011
-205.406	24.078	0.066	-0.054
-204.392	-71.160	0.071	-0.026
-203.377	-8.238	0.143	-0.095
-202.363	197.944	0.124	-0.187
-201.348	-200.000	-0.018	-0.219
-200.333	-89.857	-0.194	-0.056
-199.319	78.340	-0.182	-0.192
-198.304	-124.524	0.026	-0.004
-197.290	-200.000	0.001	-0.076
-196.275	-200.000	0.014	-0.082
-195.260	47.713	-0.130	-0.119
-194.246	-114.622	-0.127	-0.024
-193.231	-200.000	-0.007	0.079
-192.217	175.425	-0.104	-0.149
-191.202	800.000	-0.069	-0.281
-190.187	98.337	0.177	-0.202
-189.173	131.015	0.168	0.213
-188.158	-200.000	0.027	-0.128
-187.144	-79.021	-0.039	0.013
-186.129	29.551	0.178	0.150
-185.114	-85.139	-0.330	0.102
-184.100	-0.198	0.210	0.147
-183.085	-130.590	-0.052	-0.007
-182.071	166.497	-0.134	0.187
-181.056	-200.000	-0.041	0.305
-180.042	551.721	-0.043	0.101
-179.027	800.000	0.074	-0.206
-178.012	-122.873	0.332	-0.053
-176.998	800.000	-0.036	0.142
-175.983	-17.501	0.117	-0.073
-174.969	-115.435	-0.118	-0.022
-173.954	278.527	-0.089	0.156
-172.939	800.000	0.046	0.143
-171.925	-11.217	-0.087	-0.056
-170.910	21.528	0.247	0.198
-169.896	14.536	0.170	0.131
-168.881	-56.045	-0.263	0.115
-167.866	800.000	0.030	0.104
-166.852	110.977	0.117	0.139
-165.837	105.011	0.316	0.367
-164.823	-79.722	0.296	-0.098
-163.808	28.630	-0.013	0.011
-162.793	10.890	0.198	-0.149
-161.779	372.587	-0.024	-0.047
-160.764	800.000	0.101	0.290
-159.750	241.892	0.077	-0.127
-158.735	-39.902	0.191	-0.098
-157.720	-133.298	0.075	0.009
-156.706	280.249	-0.165	-0.291
-155.691	-127.353	-0.161	0.023
-154.677	800.000	-0.015	0.050
-153.662	-102.435	0.184	0.043
-152.647	330.313	-0.214	-0.406
-151.633	-200.000	0.051	0.249
-150.618	392.762	-0.184	0.376
-149.604	92.842	0.210	0.234
-148.589	73.587	-0.084	0.086
-147.574	73.232	0.172	0.177
-146.560	-200.000	-0.026	-0.129
-145.545	-200.000	-0.004	0.029
-144.531	168.949	0.107	-0.150
-143.516	40.613	-0.196	0.173
-142.502	-200.000	-0.021	0.334
-141.487	45.689	0.092	-0.084
-140.472	-150.094	0.412	-0.031
-139.458	-72.238	-0.166	0.061
-138.443	27.835	0.145	0.120
-137.429	9.166	-0.338	0.251
-136.414	329.224	0.041	0.078
-135.399	-142.021	0.194	-0.019
-134.385	244.493	-0.114	-0.189
-133.370	-192.047	-0.231	0.002
-132.356	77.923	0.129	-0.135
-131.341	286.816	0.081	-0.144
-130.326	-9.596	-0.175	0.115
-129.312	-104.842	0.057	-0.013
-128.297	-89.893	0.158	-0.045
-127.283	237.385	0.158	-0.258
-126.268	-200.000	0.025	0.203
-125.253	800.000	0.173	0.521
-124.239	-117.831	-0.356	-0.063
-123.224	207.539	-0.155	0.238
-122.210	193.872	-0.196	0.292
-121.195	-59.863	0.176	0.074
-120.180	20.501	0.170	0.135
-119.166	308.387	0.139	0.256
-118.151	323.936	-0.084	0.158
-117.137	-10.764	-0.334	0.217
-116.122	-129.719	-0.280	0.038
-115.107	49.847	-0.197	0.182
-114.093	800.000	0.049	-0.175
-113.078	-58.514	-0.263	0.112
-112.064	-89.013	-0.085	-0.025
-111.049	-126.754	-0.080	-0.012
-110.034	104.406	-0.250	-0.289
-109.020	44.839	-0.071	0.064
-108.005	-117.014	0.189	-0.034
-106.991	228.613	-0.117	0.188
-105.976	-144.195	0.183	-0.017
-104.962	-18.574	-0.058	-0.035
-103.947	575.145	0.023	0.056
-102.932	-122.126	-0.227	0.037
-101.918	-75.026	0.138	0.048
-100.903	70.989	-0.010	0.011
-99.889	-19.193	0.167	-0.102
-98.874	169.609	-0.146	0.205
-97.859	-200.000	0.028	0.154
-96.845	119.740	0.441	-0.537
-95.830	119.195	0.238	0.289
-94.816	-102.208	-0.222	-0.052
-93.801	456.789	-0.085	-0.186
-92.786	-22.947	0.030	0.018
-91.772	-200.000	0.014	0.118
-90.757	800.000	-0.083	0.311
-89.743	702.422	0.095	0.245
-88.728	-153.892	-0.092	0.006
-87.713	368.996	-0.033	-0.067
-86.699	-100.088	-0.371	0.091
-85.684	-10.930	0.104	0.068
-84.670	800.000	-0.020	0.079
-83.655	-118.074	0.106	0.019
-82.640	5.123	0.158	0.114
-81.626	-37.876	0.042	0.022
-80.611	-180.245	0.128	0.003
-79.597	486.594	-0.067	-0.150
-78.582	-86.914	-0.097	0.029
-77.567	-110.874	0.104	0.021
-76.553	144.013	0.100	-0.131
-75.538	12.992	-0.255	0.193
-74.524	-120.211	0.076	0.013
-73.509	-200.000	0.027	-0.158
-72.494	124.561	-0.134	-0.165
-71.480	297.581	0.135	-0.243
-70.465	68.228	0.049	-0.049
-69.451	800.000	-0.078	0.236
-68.436	22.013	-0.269	0.216
-67.422	-200.000	0.065	0.350
-66.407	-98.840	-0.048	-0.012
-65.392	280.559	-0.022	-0.038
-64.378	-200.000	-0.026	0.161
-63.363	800.000	0.057	0.172
-62.349	-200.000	-0.023	0.106
-61.334	89.880	-0.830	-0.909
-60.319	-77.272	0.829	0.283
-59.305	522.048	-0.445	-1.024
-58.290	170.905	0.890	1.251
-57.276	789.371	0.714	1.923
-56.261	-200.000	107.137	584.066
-55.246	450.437	1472.225	3187.339
-54.232	147.253	2663.671	3516.663
-53.217	99.748	2289.699	2600.799
-52.203	38.493	1901.950	1663.094
-51.188	32.816	1690.067	1434.742
-50.173	30.173	1647.228	1378.696
-49.159	48.707	1700.593	1563.906
-48.144	49.159	1715.903	1581.343
-47.130	32.408	1673.407	1417.301
-46.115	29.681	1659.221	1384.832
-45.100	29.512	1654.387	1379.480
-44.086	29.564	1651.062	1377.038
-43.071	29.586	1648.387	1374.914
-42.057	29.436	1646.734	1372.366
-41.042	29.436	1644.164	1370.174
-40.027	29.544	1642.037	1369.144
-39.013	29.547	1639.721	1367.184
-37.998	29.382	1639.233	1365.497
-36.984	29.510	1637.475	1364.928
-35.969	29.668	1636.144	1364.930
-34.954	29.728	1634.250	1363.742
-33.940	29.570	1632.743	1361.260
-32.925	29.645	1631.148	1360.435
-31.911	29.592	1629.354	1358.490
-30.896	29.611	1627.780	1357.262
-29.881	29.609	1626.188	1355.867
-28.867	29.594	1624.079	1353.950
-27.852	29.549	1622.824	1352.520
-26.838	29.590	1621.014	1351.254
-25.823	29.575	1620.296	1350.491
-24.809	29.693	1618.653	1349.933
-23.794	29.658	1617.365	1348.546
-22.779	29.587	1615.910	1346.768
-21.765	29.552	1614.203	1345.031
-20.750	29.571	1612.887	1344.020
-19.736	29.621	1611.339	1343.044
-18.721	29.690	1609.887	1342.281
-17.706	29.681	1608.109	1340.682
-16.692	29.644	1606.677	1339.164
-15.677	29.565	1605.320	1337.407
-14.663	29.659	1603.925	1336.872
-13.648	29.633	1602.549	1335.486
-12.633	29.657	1600.702	1334.064
-11.619	29.562	1599.686	1332.483
-10.604	29.659	1597.856	1331.599
-9.590	29.710	1596.931	1331.144
-8.575	29.654	1595.586	1329.566
-7.560	29.715	1594.347	1328.919
-6.546	29.698	1593.380	1327.943
-5.531	29.585	1592.082	1325.997
-4.517	29.622	1591.262	1325.529
-3.502	29.659	1589.670	1324.414
-2.487	29.684	1587.776	1322.960
-1.473	29.479	1576.619	1312.155
-0.458	26.766	1557.599	1277.190
0.556	21.794	1559.003	1247.721
1.571	19.641	1582.410	1250.776
2.586	19.364	1595.600	1259.068
3.600	17.668	1542.962	1205.439
4.615	9.812	1432.532	1067.286
5.629	1.844	1367.401	968.203
6.644	0.215	1359.172	951.999
7.659	0.132	1357.927	950.517
8.673	0.047	1356.691	949.035
9.688	0.087	1354.960	947.990
10.702	-0.072	1351.597	944.554
11.717	3.684	1357.661	972.387
12.731	12.337	1371.457	1037.023
13.746	17.538	1377.735	1074.580
14.761	17.427	1376.167	1072.563
15.775	16.292	1373.510	1063.256
16.790	15.327	1371.098	1055.222
17.804	14.508	1368.742	1048.171
18.819	14.109	1367.772	1044.827
19.834	13.943	1366.204	1042.500
20.848	13.616	1365.151	1039.549
21.863	13.431	1363.669	1037.168
22.877	13.111	1363.001	1034.569
23.892	13.150	1362.218	1034.124
24.907	13.179	1361.011	1033.296
25.921	13.177	1359.900	1032.354
26.936	13.233	1358.675	1031.679
27.950	13.199	1358.257	1031.058
28.965	13.167	1357.356	1030.084
29.980	13.394	1356.266	1030.578
30.994	13.482	1355.087	1030.138
32.009	13.494	1354.235	1029.476
33.023	13.496	1353.387	1028.755
34.038	13.517	1351.958	1027.706
35.053	13.403	1351.316	1026.421
36.067	13.340	1349.923	1024.883
37.082	13.422	1349.148	1024.707
38.096	13.445	1347.882	1023.801
39.111	13.501	1347.414	1023.697
40.126	13.419	1346.544	1022.440
41.140	13.196	1345.909	1020.494
42.155	13.133	1345.857	1019.975
43.169	13.156	1345.441	1019.708
44.184	13.186	1344.972	1019.448
45.199	13.114	1345.240	1019.118
46.213	13.173	1344.195	1018.602
47.228	13.223	1343.060	1017.958
48.242	13.291	1341.557	1017.147
49.257	13.312	1340.597	1016.457
50.271	13.357	1338.953	1015.398
51.286	13.307	1337.831	1014.149
52.301	13.286	1336.517	1012.934
53.315	13.262	1335.553	1011.966
54.330	13.246	1334.638	1011.084
55.344	13.184	1332.966	1009.354
56.359	13.353	1331.884	1009.474
57.374	13.179	1331.295	1007.875
58.388	13.208	1330.484	1007.354
59.403	13.132	1330.045	1006.467
60.417	13.143	1329.292	1005.878
61.432	13.092	1328.329	1004.748
62.447	13.182	1327.132	1004.298
63.461	13.187	1325.769	1003.213
64.476	13.060	1325.100	1001.847
65.490	13.150	1323.590	1001.158
66.505	13.131	1322.112	999.837
67.520	13.085	1321.292	998.848
68.534	13.214	1320.025	998.585
69.549	13.197	1319.020	997.631
70.563	13.226	1317.564	996.620
71.578	13.103	1317.004	995.362
72.593	13.113	1316.015	994.588
73.607	12.947	1315.527	993.132
74.622	13.060	1314.169	992.700
75.636	13.032	1313.420	991.879
76.651	13.065	1312.706	991.449
77.666	13.130	1312.318	991.461
78.680	13.078	1312.240	991.002
79.695	13.099	1310.716	989.888
80.709	13.187	1309.739	989.589
81.724	13.175	1308.994	988.867
82.739	13.219	1308.484	988.658
83.753	13.188	1307.676	987.774
84.768	13.222	1306.391	986.920
85.782	13.355	1305.104	986.652
86.797	13.294	1303.683	985.127
87.812	13.272	1302.475	984.000
88.826	13.269	1301.548	983.194
89.841	13.285	1300.598	982.482
90.855	13.314	1299.572	981.792
91.870	13.314	1299.163	981.394
92.884	13.356	1297.963	980.650
93.899	13.358	1297.165	979.976
94.914	13.461	1296.107	979.700
95.928	13.536	1295.310	979.456
96.943	13.429	1294.428	978.065
97.957	13.239	1294.027	976.554
98.972	13.423	1292.491	976.393
99.987	13.421	1291.356	975.442
101.001	13.353	1290.603	974.382
102.016	13.324	1289.788	973.512
103.030	13.426	1288.890	973.347
104.045	13.378	1287.803	972.160
105.060	13.334	1286.237	970.633
106.074	13.301	1285.077	969.475
107.089	13.116	1284.191	967.639
108.103	13.168	1282.654	966.702
109.118	13.202	1281.660	966.063
110.133	13.184	1280.159	964.745
111.147	13.201	1278.758	963.701
112.162	13.180	1277.371	962.449
113.176	13.300	1276.453	962.366
114.191	13.263	1275.621	961.443
115.206	13.276	1274.679	960.723
116.220	13.209	1273.467	959.334
117.235	13.286	1272.081	958.653
118.249	13.238	1271.222	957.643
119.264	13.199	1269.703	956.189
120.279	13.312	1268.336	955.724
121.293	13.256	1267.849	954.952
122.308	13.212	1267.185	954.114
123.322	13.241	1266.273	953.510
124.337	13.259	1265.099	952.644
125.352	13.176	1263.976	951.236
126.366	13.119	1262.749	949.901
127.381	13.188	1261.623	949.367
128.395	13.208	1260.126	948.268
129.410	13.299	1259.731	948.412
130.424	13.263	1258.471	947.171
131.439	13.180	1258.289	946.474
132.454	13.319	1256.625	945.938
133.468	13.306	1255.598	945.005
134.483	13.308	1255.039	944.511
135.497	13.292	1254.243	943.738
136.512	13.307	1252.586	942.494
137.527	13.342	1251.292	941.634
138.541	13.324	1249.842	940.360
139.556	13.201	1248.923	938.886
140.570	13.276	1248.296	938.755
141.585	13.430	1246.565	938.244
142.600	13.489	1245.136	937.422
143.614	13.525	1244.758	937.258
144.629	13.537	1243.297	936.142
145.643	13.489	1242.586	935.254
146.658	13.385	1241.271	933.595
147.673	13.252	1240.124	931.899
148.687	13.336	1238.913	931.380
149.702	13.245	1237.592	929.792
150.716	13.297	1236.045	928.837
151.731	13.490	1234.334	928.551
152.746	13.398	1233.482	927.314
153.760	13.385	1232.657	926.538
154.775	13.433	1231.733	926.033
155.789	13.389	1230.567	924.826
156.804	13.496	1229.141	924.268
157.819	13.523	1228.410	923.788
158.833	13.626	1227.193	923.366
159.848	13.611	1226.854	922.944
160.862	13.591	1225.352	921.621
161.877	13.450	1224.139	919.849
162.892	13.483	1223.269	919.296
163.906	13.487	1222.345	918.540
164.921	13.525	1221.575	918.090
165.935	13.472	1221.023	917.302
166.950	13.618	1220.182	917.396
167.964	13.542	1219.615	916.472
168.979	13.478	1219.078	915.628
169.994	13.529	1217.978	915.005
171.008	13.563	1216.722	914.166
172.023	13.671	1216.155	914.257
173.037	13.662	1215.612	913.716
174.052	13.589	1214.757	912.595
175.067	13.592	1213.876	911.864
176.081	13.603	1212.313	910.674
177.096	13.521	1212.045	909.942
178.110	13.666	1210.177	909.255
179.125	13.766	1209.295	909.059
180.140	13.627	1208.290	907.461
181.154	13.680	1206.915	906.636
182.169	13.705	1205.944	905.965
183.183	13.703	1205.064	905.211
184.198	13.812	1203.422	904.491
185.213	13.856	1201.882	903.493
186.227	13.766	1200.945	902.220
187.242	13.957	1200.206	902.623
188.256	13.951	1199.155	901.719
189.271	13.890	1198.392	900.737
190.286	13.770	1197.407	899.265
191.300	13.654	1196.608	897.959
192.315	13.667	1195.587	897.185
193.329	13.658	1195.203	896.766
194.344	13.731	1194.636	896.659
195.359	13.756	1194.249	896.420
196.373	13.810	1193.659	896.190
197.388	13.899	1192.918	896.038
198.402	13.962	1192.291	895.825
199.417	13.960	1191.523	895.161
200.432	13.985	1190.630	894.545
201.446	14.083	1190.166	894.640
202.461	14.063	1189.103	893.658
203.475	14.112	1187.777	892.845
204.490	14.072	1186.659	891.710
205.504	14.095	1185.397	890.808
206.519	14.019	1184.328	889.516
207.534	14.096	1183.124	888.947
208.548	13.966	1182.473	887.684
209.563	14.140	1180.974	887.407
210.577	14.165	1180.996	887.478
211.592	14.044	1180.144	886.119
212.607	14.151	1178.951	885.710
213.621	14.154	1178.111	885.019
214.636	14.137	1177.654	884.505
215.650	14.244	1176.071	883.806
216.665	14.351	1175.120	883.580
217.680	14.181	1174.691	882.280
218.694	14.358	1173.528	882.267
219.709	14.270	1173.199	881.475
220.723	14.266	1172.480	880.836
221.738	14.371	1170.900	880.127
222.753	14.287	1170.888	879.596
223.767	14.367	1170.195	879.420
224.782	14.345	1169.631	878.803
225.796	14.311	1169.360	878.338
226.811	14.427	1167.910	877.785
227.826	14.276	1167.670	876.732
228.840	14.370	1166.608	876.352
229.855	14.426	1165.342	875.615
230.869	14.484	1164.850	875.473
231.884	14.467	1164.450	875.007
232.899	14.341	1163.758	873.748
233.913	14.376	1162.666	873.033
234.928	14.446	1161.649	872.561
235.942	14.274	1161.467	871.447
236.957	14.376	1160.553	871.215
237.972	14.501	1159.048	870.661
238.986	14.311	1159.516	869.942
240.001	14.332	1158.711	869.374
241.015	14.351	1157.512	868.493
242.030	14.485	1156.688	868.497
243.045	14.582	1155.773	868.237
244.059	14.491	1155.407	867.412
245.074	14.418	1154.660	866.395
246.088	14.551	1153.712	866.300
247.103	14.548	1152.820	865.536
248.117	14.741	1151.662	865.590
249.132	14.760	1151.028	865.138
250.147	14.752	1150.874	864.904
251.161	14.787	1149.902	864.278
252.176	14.822	1149.506	864.086
253.190	14.885	1148.796	863.800
254.205	14.920	1148.143	863.411
255.220	14.897	1147.645	862.842
256.234	14.960	1146.966	862.581
257.249	14.862	1146.565	861.700
258.263	14.999	1145.540	861.555
259.278	14.947	1144.832	860.679
260.293	14.945	1144.848	860.605
261.307	14.940	1144.031	859.890
262.322	15.068	1143.012	859.705
263.336	15.026	1142.704	859.180
264.351	15.123	1142.142	859.182
265.366	15.058	1141.179	858.047
266.380	15.044	1140.719	857.553
267.395	15.095	1139.537	856.850
268.409	15.092	1139.297	856.581
269.424	15.063	1138.498	855.752
270.439	15.037	1137.716	854.958
271.453	15.110	1136.940	854.672
272.468	15.029	1136.127	853.571
273.482	15.013	1135.589	853.009
274.497	15.185	1134.800	853.217
275.512	15.080	1134.076	852.065
276.526	15.112	1133.421	851.659
277.541	15.269	1132.549	851.725
278.555	15.022	1132.368	850.259
279.570	15.268	1130.973	850.384
280.585	15.258	1130.355	849.795
281.599	15.306	1129.293	849.163
282.614	15.276	1128.316	848.202
283.628	15.299	1127.501	847.633
284.643	15.203	1126.528	846.340
285.657	15.349	1125.936	846.560
286.672	15.298	1124.929	845.466
287.687	15.425	1124.014	845.348
288.701	15.334	1123.470	844.405
289.716	15.435	1122.226	843.901
290.730	15.368	1121.816	843.182
291.745	15.378	1121.472	842.897
292.760	15.379	1121.003	842.478
293.774	15.521	1120.078	842.419
294.789	15.508	1119.659	841.967
295.803	15.441	1119.122	841.152
296.818	15.493	1118.263	840.693
297.833	15.350	1117.545	839.360
298.847	15.573	1116.470	839.593
299.862	15.517	1115.595	838.582
300.876	15.508	1115.353	838.279
301.891	15.571	1114.408	837.809
302.906	15.475	1114.006	836.956
303.920	15.603	1113.184	836.905
304.935	15.663	1112.487	836.603
305.949	15.726	1111.892	836.394
306.964	15.744	1110.928	835.686
307.979	15.735	1110.148	834.979
308.993	15.706	1109.405	834.204
310.008	15.652	1108.826	833.425
311.022	15.726	1108.141	833.204
312.037	15.658	1107.731	832.487
313.052	15.735	1106.419	831.807
314.066	15.616	1105.545	830.489
315.081	15.593	1104.574	829.573
316.095	15.713	1103.931	829.607
317.110	15.631	1103.622	828.896
318.125	15.695	1102.083	827.985
319.139	15.618	1101.891	827.388
320.154	15.792	1101.203	827.652
321.168	15.664	1100.933	826.746
322.183	15.817	1100.137	826.828
323.197	15.682	1099.950	825.952
324.212	15.829	1098.370	825.413
325.227	15.712	1098.377	824.771
326.241	15.823	1097.666	824.708
327.256	15.788	1096.756	823.780
328.270	15.944	1095.378	823.434
329.285	15.941	1094.622	822.779
330.300	15.730	1094.115	821.294
331.314	15.955	1092.760	821.304
332.329	15.782	1092.393	820.112
333.343	15.886	1091.410	819.804
334.358	15.788	1091.027	818.971
335.373	15.976	1089.918	818.977
336.387	15.998	1089.099	818.400
337.402	16.003	1088.290	817.740
338.416	16.041	1087.714	817.422
339.431	16.007	1087.481	817.009
340.446	16.103	1086.751	816.851
341.460	16.085	1086.251	816.317
342.475	16.252	1084.741	815.916
343.489	16.217	1084.043	815.149
344.504	16.224	1083.374	814.610
345.519	16.257	1082.384	813.953
346.533	16.212	1081.885	813.288
347.548	16.281	1080.865	812.782
348.562	16.376	1080.289	812.736
349.577	16.255	1079.651	811.601
350.592	16.228	1078.599	810.607
351.606	16.207	1078.198	810.134
352.621	16.163	1077.371	809.229
353.635	16.295	1076.313	808.994
354.650	16.137	1076.000	807.933
355.665	16.267	1075.256	807.926
356.679	16.256	1074.881	807.519
357.694	16.340	1073.829	807.059
358.708	16.231	1073.608	806.298
359.723	16.324	1072.490	805.835
360.738	16.446	1071.647	805.712
361.752	16.385	1071.390	805.156
362.767	16.440	1070.888	804.970
363.781	16.411	1070.236	804.270
364.796	16.450	1069.834	804.081
365.810	16.423	1069.530	803.655
366.825	16.538	1068.590	803.423
367.840	16.604	1067.986	803.211
368.854	16.566	1067.536	802.619
369.869	16.625	1066.610	802.133
370.883	16.590	1065.827	801.307
371.898	16.644	1065.263	801.066
372.913	16.612	1064.591	800.338
373.927	16.673	1064.244	800.298
374.942	16.625	1063.754	799.631
375.956	16.731	1062.802	799.347
376.971	16.682	1062.355	798.709
377.986	16.760	1061.704	798.514
379.000	16.666	1061.461	797.819
380.015	16.735	1060.992	797.717
381.029	16.777	1060.277	797.311
382.044	16.868	1059.523	797.099
383.059	16.814	1058.868	796.281
384.073	16.905	1057.877	795.893
385.088	16.950	1057.008	795.382
386.102	16.892	1056.276	794.490
387.117	16.787	1055.054	793.009
388.132	16.760	1054.416	792.331
389.146	16.818	1053.796	792.068
390.161	16.766	1052.894	791.073
391.175	16.737	1052.102	790.276
392.190	16.810	1051.633	790.191
393.205	17.009	1050.502	790.202
394.219	17.004	1049.874	789.634
395.234	16.852	1049.272	788.405
396.248	16.821	1048.364	787.507
397.263	16.961	1047.007	787.070
398.278	17.015	1046.220	786.660
399.292	16.920	1045.624	785.700
400.307	16.952	1044.870	785.213
401.321	16.919	1044.518	784.725
402.336	16.941	1043.677	784.127
403.350	16.887	1043.224	783.465
404.365	16.995	1042.436	783.306
405.380	16.965	1041.529	782.416
406.394	17.051	1040.666	782.093
407.409	17.176	1039.851	781.987
408.423	17.137	1039.683	781.615
409.438	17.145	1038.876	780.973
410.453	17.143	1038.097	780.310
411.467	17.216	1037.861	780.399
412.482	17.196	1036.887	779.507
413.496	17.256	1036.106	779.125
414.511	17.310	1035.659	778.966
415.526	17.337	1035.320	778.768
416.540	17.387	1034.706	778.464
417.555	17.280	1034.325	777.621
418.569	17.388	1033.739	777.605
419.584	17.355	1033.338	777.086
420.599	17.322	1033.074	776.666
421.613	103.316	1322.564	1468.762
422.628	94.610	1364.709	1468.876
