DTS Sentinel unit serial number:	SN413079Multiplexer serial number:	ORYXHardware model number:	OX4-SRSoftware version number:	ORYX F/W v4.00 Oryx Data Collector v3.7.2.0data status	okinstallation	princeton_trtdifferential loss correction	single-endedforward channel	channel 2reverse channel	N/Adate	2019/09/10time	23:29:11forward acquisition time	60.00reverse acquisition time	0.00gamma	496.2192k internal	0.2329k external	0.2329temperature offset calibration	0.9946default loss term (dB/km)	0.3790temperature slope calibration	1.0000multiplexer offset coefficient	1.0000multiplexer slope coefficient	1.0000fibre end	0.00T internal ref (°C)	29.69T ext. ref 1 (°C)	-0.32T ext. ref 2 (°C)	23.08length (m)	temperature (°C)	Stokes	anti-Stokes-747.200	-126.528	-0.307	0.046
-746.185	-136.196	0.233	0.027
-745.171	231.955	0.144	0.238
-744.156	800.000	-0.095	0.287
-743.142	47.706	-0.108	0.102
-742.127	400.395	0.053	0.112
-741.112	47.432	0.237	0.222
-740.098	469.752	-0.103	-0.234
-739.083	-89.979	-0.181	-0.053
-738.069	800.000	0.022	0.074
-737.054	15.998	0.136	0.108
-736.039	289.636	0.079	0.144
-735.025	260.271	0.169	0.294
-734.010	-119.429	-0.385	0.067
-732.996	-99.322	-0.394	0.100
-731.981	-200.000	0.020	-0.131
-730.966	-141.942	-0.347	0.035
-729.952	-200.000	0.016	0.128
-728.937	257.107	-0.057	-0.098
-727.923	-15.348	-0.296	-0.190
-726.908	-200.000	-0.009	-0.150
-725.894	152.246	0.125	0.172
-724.879	-109.280	0.117	-0.025
-723.864	-190.307	0.209	-0.002
-722.850	-111.096	-0.428	0.088
-721.835	-87.793	-0.341	0.103
-720.821	-125.375	-0.454	-0.070
-719.806	-131.858	0.228	0.030
-718.791	800.000	0.054	-0.199
-717.777	-200.000	-0.003	0.314
-716.762	-40.179	-0.262	-0.137
-715.748	361.260	-0.107	0.217
-714.733	-200.000	-0.039	0.216
-713.718	563.267	-0.066	-0.160
-712.704	-200.000	-0.044	-0.263
-711.689	93.630	-0.283	-0.322
-710.675	187.363	-0.127	-0.190
-709.660	-200.000	0.002	-0.294
-708.645	800.000	-0.041	0.118
-707.631	-55.085	-0.358	0.162
-706.616	-200.000	-0.002	0.137
-705.602	483.062	-0.131	-0.300
-704.587	-73.522	-0.218	0.080
-703.572	102.560	0.154	-0.181
-702.558	-177.585	0.030	-0.001
-701.543	318.559	0.139	-0.266
-700.529	106.139	-0.156	-0.185
-699.514	-111.761	0.304	0.062
-698.499	-77.876	-0.232	0.080
-697.485	-10.135	0.264	-0.176
-696.470	63.449	0.206	0.208
-695.456	154.398	-0.198	-0.273
-694.441	305.999	0.047	-0.088
-693.426	-200.000	-0.028	0.126
-692.412	800.000	0.112	-0.470
-691.397	-85.032	0.352	-0.111
-690.383	41.506	0.114	-0.103
-689.368	-56.094	-0.473	-0.212
-688.354	-31.490	-0.341	0.193
-687.339	203.614	0.010	-0.015
-686.324	-142.274	-0.370	-0.037
-685.310	-53.455	0.140	-0.064
-684.295	199.479	-0.157	-0.243
-683.281	-200.000	0.022	-0.242
-682.266	714.894	0.108	0.288
-681.251	-95.817	0.088	0.023
-680.237	-168.429	-0.250	-0.010
-679.222	443.414	0.057	0.126
-678.208	-69.274	0.322	-0.124
-677.193	800.000	0.018	0.051
-676.178	637.549	0.047	0.120
-675.164	-109.965	0.236	-0.050
-674.149	207.899	-0.007	-0.011
-673.135	42.537	-0.175	-0.160
-672.120	741.741	0.075	-0.203
-671.105	-31.649	0.138	-0.078
-670.091	263.762	0.205	-0.357
-669.076	42.474	-0.161	0.147
-668.062	-162.062	-0.208	0.011
-667.047	800.000	-0.039	0.134
-666.032	37.987	-0.221	-0.197
-665.018	147.279	-0.112	0.151
-664.003	-78.746	-0.219	-0.075
-662.989	73.851	0.090	-0.095
-661.974	706.146	0.070	0.186
-660.959	-96.933	-0.163	-0.043
-659.945	586.777	-0.123	-0.305
-658.930	-3.885	0.174	0.121
-657.916	-200.000	-0.017	0.124
-656.901	62.959	-0.195	-0.196
-655.886	141.690	-0.126	0.167
-654.872	-200.000	-0.034	-0.401
-653.857	2.604	-0.147	-0.107
-652.843	-200.000	-0.007	-0.264
-651.828	-200.000	0.023	0.346
-650.814	-61.006	0.321	0.136
-649.799	246.699	-0.203	-0.344
-648.784	350.731	-0.108	0.215
-647.770	800.000	0.049	-0.212
-646.755	22.024	0.078	-0.064
-645.741	-200.000	-0.018	-0.109
-644.726	318.267	0.133	-0.252
-643.711	-200.000	-0.022	0.184
-642.697	-134.792	0.099	0.012
-641.682	142.580	0.320	-0.427
-640.668	800.000	-0.021	-0.085
-639.653	800.000	0.019	-0.076
-638.638	-12.018	-0.044	0.029
-637.624	800.000	-0.039	0.113
-636.609	133.668	0.127	0.165
-635.595	-36.960	0.165	0.089
-634.580	287.554	-0.211	-0.384
-633.565	-60.041	0.171	-0.073
-632.551	-122.001	-0.239	-0.039
-631.536	-168.291	-0.219	-0.008
-630.522	296.409	0.123	0.226
-629.507	-33.728	-0.322	0.178
-628.492	357.602	0.106	-0.212
-627.478	21.304	-0.199	-0.162
-626.463	135.746	-0.159	-0.208
-625.449	-76.404	-0.236	-0.083
-624.434	-119.403	-0.132	-0.023
-623.419	800.000	0.059	-0.217
-622.405	299.988	0.171	-0.316
-621.390	-97.842	-0.215	-0.056
-620.376	-200.000	0.022	-0.234
-619.361	-92.608	0.089	-0.025
-618.346	-200.000	0.009	-0.290
-617.332	-35.697	-0.206	-0.112
-616.317	183.795	-0.225	-0.333
-615.303	-43.831	-0.036	0.018
-614.288	-200.000	-0.005	0.177
-613.273	-73.277	-0.055	0.020
-612.259	800.000	-0.117	0.350
-611.244	-46.477	-0.267	-0.131
-610.230	162.274	0.100	0.141
-609.215	76.270	-0.312	0.331
-608.201	63.500	0.077	0.077
-607.186	-200.000	-0.061	0.299
-606.171	-200.000	-0.004	0.161
-605.157	80.969	-0.079	-0.086
-604.142	-76.716	0.194	-0.068
-603.128	-146.028	0.231	-0.020
-602.113	4.026	0.222	-0.162
-601.098	-173.974	0.211	-0.006
-600.084	112.277	0.124	-0.150
-599.069	-77.566	-0.069	0.024
-598.055	-17.406	-0.326	-0.206
-597.040	63.459	0.092	-0.092
-596.025	-200.000	0.015	-0.206
-595.011	-85.799	0.169	0.052
-593.996	110.517	-0.333	0.401
-592.982	92.076	0.224	-0.253
-591.967	-73.400	-0.292	0.107
-590.952	217.165	0.088	0.140
-589.938	111.820	-0.154	-0.187
-588.923	-125.872	0.180	0.027
-587.909	714.017	0.142	-0.376
-586.894	-76.259	-0.135	0.048
-585.879	-29.879	-0.333	0.190
-584.865	-151.449	0.190	-0.014
-583.850	-145.539	-0.214	-0.019
-582.836	35.920	-0.310	-0.273
-581.821	-42.627	-0.234	-0.119
-580.806	-200.000	0.015	0.278
-579.792	-110.253	0.229	-0.048
-578.777	-98.688	0.380	-0.097
-577.763	19.354	0.363	0.292
-576.748	40.503	-0.139	-0.125
-575.733	-143.486	0.257	-0.025
-574.719	800.000	0.100	-0.346
-573.704	54.936	0.080	0.077
-572.690	-197.140	0.231	0.001
-571.675	-70.020	-0.091	0.035
-570.661	-92.725	0.309	0.086
-569.646	800.000	0.059	-0.220
-568.631	-200.000	-0.035	-0.219
-567.617	0.835	0.117	-0.084
-566.602	800.000	0.018	0.071
-565.588	296.442	-0.070	-0.129
-564.573	-5.211	0.277	-0.191
-563.558	-146.980	0.112	-0.010
-562.544	-11.367	0.203	0.134
-561.529	-65.393	0.334	-0.134
-560.515	800.000	-0.165	0.468
-559.500	-157.443	-0.300	-0.018
-558.485	-172.600	0.075	0.002
-557.471	255.113	0.079	-0.136
-556.456	800.000	0.075	0.223
-555.442	162.178	-0.127	-0.178
-554.427	342.926	-0.117	-0.230
-553.412	346.307	-0.087	-0.172
-552.398	64.688	0.051	-0.052
-551.383	282.135	-0.081	-0.146
-550.369	66.715	0.155	-0.158
-549.354	340.576	0.111	-0.217
-548.339	-200.000	-0.023	-0.139
-547.325	-200.000	0.041	0.187
-546.310	65.865	-0.114	0.116
-545.296	800.000	-0.053	0.165
-544.281	199.399	-0.089	0.136
-543.266	213.058	-0.202	0.318
-542.252	-157.410	0.133	0.008
-541.237	-3.720	0.045	0.031
-540.223	-200.000	-0.045	-0.346
-539.208	800.000	0.040	0.147
-538.193	-83.591	0.281	0.090
-537.179	-21.300	0.144	-0.088
-536.164	189.586	0.193	0.289
-535.150	-58.611	0.194	-0.084
-534.135	94.244	0.184	0.208
-533.121	96.460	0.121	0.138
-532.106	-158.825	-0.473	-0.027
-531.091	2.769	-0.158	0.114
-530.077	690.548	0.095	-0.248
-529.062	54.989	0.160	0.154
-528.048	8.358	0.359	-0.269
-527.033	145.753	0.063	0.084
-526.018	800.000	-0.114	-0.414
-525.004	-44.804	-0.354	0.176
-523.989	77.683	-0.143	0.152
-522.975	800.000	-0.031	-0.121
-521.960	97.354	-0.255	0.292
-520.945	51.255	-0.107	0.102
-519.931	-200.000	-0.019	0.339
-518.916	800.000	0.077	-0.247
-517.902	-86.976	0.430	0.131
-516.887	677.141	-0.067	-0.174
-515.872	800.000	0.083	-0.342
-514.858	95.601	0.104	-0.118
-513.843	518.451	0.258	0.604
-512.829	-200.000	-0.113	-0.574
-511.814	-89.252	0.322	-0.095
-510.799	547.623	-0.061	0.145
-509.785	47.917	-0.170	0.159
-508.770	-125.569	-0.424	0.064
-507.756	800.000	0.139	-0.411
-506.741	-101.185	0.245	-0.060
-505.726	-200.000	0.047	0.292
-504.712	800.000	-0.088	0.296
-503.697	-200.000	-0.042	-0.270
-502.683	-143.053	0.061	0.006
-501.668	3.162	0.354	-0.257
-500.653	-12.211	0.163	0.107
-499.639	-85.027	-0.021	-0.007
-498.624	-200.000	0.015	0.183
-497.610	-56.234	-0.188	-0.083
-496.595	-2.088	0.247	0.173
-495.581	800.000	-0.116	0.371
-494.566	671.960	0.028	-0.072
-493.551	-61.462	-0.250	0.105
-492.537	-154.047	0.360	-0.024
-491.522	800.000	0.084	-0.259
-490.508	211.763	-0.108	0.170
-489.493	-200.000	0.010	-0.222
-488.478	120.930	0.073	-0.090
-487.464	-29.045	-0.398	-0.228
-486.449	-6.318	0.183	-0.124
-485.435	-6.193	-0.162	-0.110
-484.420	-200.000	-0.010	0.284
-483.405	-31.790	0.315	0.176
-482.391	800.000	0.081	0.273
-481.376	143.249	0.048	-0.064
-480.362	-46.906	-0.261	-0.127
-479.347	-200.000	0.027	0.139
-478.332	26.753	0.114	-0.095
-477.318	20.626	-0.225	0.182
-476.303	-130.194	0.159	-0.022
-475.289	-200.000	0.019	0.346
-474.274	224.500	0.120	0.193
-473.259	218.964	-0.124	-0.198
-472.245	-107.780	0.092	0.020
-471.230	-166.652	0.667	0.028
-470.216	791.841	0.142	-0.389
-469.201	-5.424	0.101	0.069
-468.186	68.079	-0.121	0.123
-467.172	-162.550	-0.525	-0.026
-466.157	-95.502	0.038	-0.010
-465.143	666.231	0.033	0.086
-464.128	-34.610	0.454	-0.247
-463.113	533.568	-0.065	-0.153
-462.099	-200.000	-0.028	0.278
-461.084	266.884	-0.029	0.051
-460.070	-200.000	-0.046	0.347
-459.055	-2.412	0.053	-0.037
-458.040	92.844	0.127	0.143
-457.026	597.984	0.076	0.186
-456.011	47.519	0.177	0.164
-454.997	-41.196	0.328	0.169
-453.982	-81.728	-0.325	-0.106
-452.968	-200.000	0.046	0.292
-451.953	-32.135	0.205	-0.114
-450.938	-71.393	0.286	-0.107
-449.924	-200.000	-0.050	0.492
-448.909	137.039	0.123	0.159
-447.895	800.000	0.080	-0.277
-446.880	-10.064	0.061	0.041
-445.865	391.320	-0.193	-0.398
-444.851	800.000	-0.070	0.270
-443.836	39.417	0.166	-0.148
-442.822	800.000	-0.093	0.274
-441.807	-124.818	-0.076	-0.012
-440.792	188.690	0.270	-0.403
-439.778	-200.000	0.057	-0.317
-438.763	351.940	-0.133	0.262
-437.749	225.869	-0.026	0.042
-436.734	-40.136	-0.158	0.082
-435.719	-145.816	0.035	-0.003
-434.705	78.891	0.096	0.102
-433.690	83.456	-0.057	-0.062
-432.676	305.128	0.030	0.055
-431.661	-9.518	-0.080	-0.053
-430.646	-134.506	-0.267	-0.032
-429.632	222.503	-0.164	0.263
-428.617	-194.360	0.352	-0.003
-427.603	-127.621	-0.276	0.040
-426.588	-147.801	-0.134	-0.011
-425.573	-197.407	0.557	0.003
-424.559	-65.028	-0.356	-0.143
-423.544	800.000	0.035	-0.110
-422.530	-85.245	0.064	0.020
-421.515	17.523	0.079	0.063
-420.500	-200.000	0.037	-0.198
-419.486	-0.194	-0.245	-0.173
-418.471	394.389	-0.019	0.040
-417.457	26.017	-0.104	0.087
-416.442	-200.000	0.023	-0.336
-415.428	42.776	0.207	0.187
-414.413	-77.920	0.209	0.072
-413.398	362.329	0.055	-0.109
-412.384	92.478	0.159	0.178
-411.369	113.306	-0.120	0.145
-410.355	40.811	-0.214	0.192
-409.340	86.759	0.204	0.224
-408.325	800.000	-0.121	0.422
-407.311	800.000	0.181	-0.572
-406.296	153.717	0.236	-0.322
-405.282	800.000	-0.072	-0.219
-404.267	-200.000	0.050	0.217
-403.252	391.537	0.053	0.110
-402.238	800.000	-0.014	-0.056
-401.223	-106.228	-0.388	-0.086
-400.209	177.880	-0.146	-0.212
-399.194	85.539	-0.118	0.129
-398.179	120.587	-0.094	-0.116
-397.165	-1.399	-0.102	-0.072
-396.150	800.000	-0.042	0.128
-395.136	800.000	0.178	0.552
-394.121	343.890	0.123	-0.239
-393.106	61.570	-0.098	-0.097
-392.092	12.927	-0.242	0.186
-391.077	-52.522	-0.076	-0.035
-390.063	176.479	-0.119	0.171
-389.048	-149.912	-0.284	-0.022
-388.033	-200.000	-0.022	-0.157
-387.019	-167.836	0.199	-0.008
-386.004	-147.536	0.179	-0.015
-384.990	-144.609	0.276	-0.025
-383.975	800.000	-0.023	0.097
-382.960	41.397	0.166	-0.150
-381.946	19.491	-0.351	0.280
-380.931	-118.361	0.186	0.033
-379.917	-187.251	-0.220	0.003
-378.902	-79.768	-0.234	-0.078
-377.888	-200.000	0.014	0.186
-376.873	-36.028	0.202	-0.108
-375.858	-157.861	0.139	-0.008
-374.844	-91.519	-0.023	0.006
-373.829	173.866	-0.128	0.184
-372.815	800.000	-0.067	-0.198
-371.800	-82.608	0.385	-0.124
-370.785	-89.508	0.256	-0.075
-369.771	145.591	-0.228	0.303
-368.756	-200.000	-0.027	-0.155
-367.742	170.517	-0.091	0.129
-366.727	54.409	0.216	0.206
-365.712	-188.365	0.178	0.002
-364.698	-58.324	0.070	-0.030
-363.683	-134.739	-0.279	-0.034
-362.669	200.974	-0.167	0.255
-361.654	140.160	-0.133	0.174
-360.639	-72.460	0.227	0.083
-359.625	118.212	0.211	0.258
-358.610	8.677	0.048	0.036
-357.596	-200.000	-0.242	-0.001
-356.581	800.000	-0.124	0.353
-355.566	118.659	0.262	-0.321
-354.552	-166.768	0.287	0.012
-353.537	24.851	-0.200	-0.164
-352.523	104.255	-0.112	0.131
-351.508	-83.194	-0.228	0.073
-350.493	-24.362	0.167	0.099
-349.479	460.690	0.061	-0.135
-348.464	-200.000	0.012	0.156
-347.450	132.574	-0.273	0.350
-346.435	588.037	0.050	-0.122
-345.420	-200.000	0.086	-0.374
-344.406	45.525	-0.112	-0.102
-343.391	-200.000	-0.001	0.131
-342.377	86.550	0.066	0.072
-341.362	-114.409	0.172	-0.033
-340.348	-100.279	0.245	-0.060
-339.333	105.019	-0.125	0.147
-338.318	123.925	-0.015	-0.019
-337.304	-119.471	-0.210	-0.036
-336.289	-196.345	-0.096	0.001
-335.275	-19.684	0.261	-0.160
-334.260	-17.393	-0.152	-0.095
-333.245	7.601	-0.204	0.151
-332.231	-10.484	-0.237	0.155
-331.216	-42.880	-0.205	0.103
-330.202	176.069	0.158	-0.228
-329.187	-18.759	-0.441	-0.272
-328.172	7.196	-0.086	0.064
-327.158	664.124	0.197	0.504
-326.143	-44.295	0.075	-0.037
-325.129	789.850	0.100	-0.272
-324.114	56.997	0.342	0.331
-323.099	-18.197	-0.111	-0.069
-322.085	-123.700	0.205	-0.032
-321.070	-99.449	-0.175	0.044
-320.056	-163.350	0.134	-0.006
-319.041	-153.612	0.161	-0.011
-318.026	306.722	0.065	0.119
-317.012	197.187	0.110	0.167
-315.997	-200.000	0.086	-0.387
-314.983	-108.734	0.131	-0.028
-313.968	-70.028	-0.078	-0.030
-312.953	195.824	-0.186	0.281
-311.939	-64.102	0.308	-0.124
-310.924	147.315	0.105	0.140
-309.910	-200.000	-0.005	-0.056
-308.895	-200.000	0.027	0.215
-307.880	179.546	-0.081	0.118
-306.866	126.332	0.070	0.088
-305.851	60.925	-0.091	0.089
-304.837	-79.849	-0.099	-0.033
-303.822	-73.346	-0.207	0.075
-302.807	366.423	-0.069	-0.138
-301.793	95.236	-0.156	-0.176
-300.778	-175.307	0.267	-0.007
-299.764	10.196	-0.191	0.143
-298.749	18.849	0.190	-0.150
-297.735	-192.045	-0.208	0.002
-296.720	130.810	0.372	0.473
-295.705	256.765	0.114	-0.193
-294.691	789.123	-0.074	0.201
-293.676	289.485	-0.109	-0.196
-292.662	-200.000	0.001	-0.370
-291.647	800.000	-0.028	0.112
-290.632	-52.972	0.231	0.105
-289.618	723.782	0.109	0.288
-288.603	-140.099	-0.221	-0.023
-287.589	-200.000	0.019	0.116
-286.574	-123.261	-0.399	0.063
-285.559	65.500	-0.125	0.125
-284.545	21.590	-0.132	-0.106
-283.530	182.860	0.121	0.176
-282.516	-200.000	-0.023	0.206
-281.501	-171.962	-0.246	0.008
-280.486	-33.205	0.178	-0.097
-279.472	-67.523	0.368	0.143
-278.457	-38.275	-0.248	-0.130
-277.443	-85.355	-0.201	0.062
-276.428	-97.227	0.064	-0.016
-275.413	-200.000	-0.015	0.146
-274.399	75.783	0.135	-0.141
-273.384	110.226	-0.122	-0.145
-272.370	111.310	0.314	-0.374
-271.355	-40.575	-0.209	0.107
-270.340	-73.344	-0.088	-0.032
-269.326	470.564	-0.048	0.106
-268.311	-22.875	0.155	0.093
-267.297	-71.258	0.418	0.155
-266.282	-1.228	0.324	-0.226
-265.267	95.547	0.143	-0.161
-264.253	429.274	0.051	-0.108
-263.238	-29.647	0.128	0.072
-262.224	-72.521	-0.327	-0.120
-261.209	-24.917	0.118	-0.069
-260.195	-53.101	-0.221	0.100
-259.180	-200.000	-0.024	-0.273
-258.165	23.138	-0.071	0.057
-257.151	-200.000	0.021	0.103
-256.136	-43.386	0.163	0.082
-255.122	800.000	-0.074	-0.208
-254.107	95.305	0.134	-0.151
-253.092	-200.000	-0.053	-0.254
-252.078	-200.000	-0.097	-0.439
-251.063	-40.532	-0.253	0.130
-250.049	-111.519	-0.455	0.091
-249.034	49.864	-0.110	-0.102
-248.019	-139.108	0.240	-0.026
-247.005	-51.359	-0.104	-0.048
-245.990	-79.852	0.139	0.046
-244.976	23.989	-0.166	0.135
-243.961	-42.799	-0.118	0.059
-242.946	-111.206	0.048	0.010
-241.932	5.070	-0.114	-0.083
-240.917	91.107	-0.225	0.250
-239.903	-48.645	-0.162	-0.077
-238.888	-61.767	0.288	-0.119
-237.873	-62.250	0.121	-0.050
-236.859	-58.469	-0.260	0.111
-235.844	-9.784	-0.221	-0.145
-234.830	-28.896	-0.238	-0.135
-233.815	-128.119	0.072	0.010
-232.800	-200.000	-0.034	-0.226
-231.786	184.937	-0.088	-0.128
-230.771	49.050	-0.150	0.139
-229.757	147.645	0.215	-0.286
-228.742	-57.579	-0.080	0.035
-227.727	-156.311	-0.242	-0.015
-226.713	19.475	-0.238	-0.189
-225.698	-86.281	-0.280	-0.085
-224.684	-128.845	0.213	-0.030
-223.669	-200.000	0.007	-0.294
-222.655	-66.871	-0.267	0.104
-221.640	281.409	-0.170	0.301
-220.625	32.010	0.174	0.148
-219.611	8.206	0.238	-0.177
-218.596	-157.190	0.217	-0.013
-217.582	-200.000	0.024	0.197
-216.567	473.887	0.063	-0.140
-215.552	17.442	0.252	-0.197
-214.538	800.000	0.047	-0.140
-213.523	-107.625	-0.281	0.060
-212.509	-61.781	-0.267	0.110
-211.494	-19.130	-0.117	0.072
-210.479	-200.000	-0.013	0.299
-209.465	-88.509	-0.160	0.047
-208.450	68.432	0.162	-0.163
-207.436	437.333	0.028	-0.061
-206.421	-105.074	0.335	0.076
-205.406	73.935	-0.130	0.135
-204.392	-200.000	-0.023	0.363
-203.377	-79.699	-0.179	-0.060
-202.363	-200.000	-0.030	-0.145
-201.348	800.000	-0.042	0.130
-200.333	118.315	0.151	0.183
-199.319	-200.000	0.017	0.132
-198.304	-42.770	-0.092	0.046
-197.290	-10.477	0.169	-0.110
-196.275	-99.980	-0.166	-0.041
-195.260	800.000	-0.057	0.156
-194.246	-137.997	-0.224	-0.025
-193.231	87.464	0.057	0.062
-192.217	41.389	0.196	-0.175
-191.202	-64.122	-0.017	0.007
-190.187	194.584	-0.199	0.298
-189.173	13.270	0.159	0.121
-188.158	-47.051	0.374	0.180
-187.144	-119.055	0.033	0.006
-186.129	-178.160	-0.149	0.003
-185.114	-99.112	-0.114	-0.028
-184.100	-90.827	0.114	0.032
-183.085	-8.654	-0.135	-0.089
-182.071	-32.691	-0.101	0.055
-181.056	-92.848	-0.163	-0.045
-180.042	204.246	-0.142	0.217
-179.027	-144.881	-0.046	-0.004
-178.012	-200.000	-0.060	-0.323
-176.998	800.000	-0.038	0.130
-175.983	-12.163	-0.325	-0.210
-174.969	-80.015	0.376	0.124
-173.954	192.844	0.063	0.093
-172.939	160.784	-0.053	0.072
-171.925	-200.000	0.552	0.000
-170.910	800.000	0.101	-0.294
-169.896	-148.721	-0.238	0.019
-168.881	493.079	0.020	0.046
-167.866	-4.869	-0.261	-0.177
-166.852	399.798	0.180	-0.372
-165.837	-2.751	-0.243	-0.167
-164.823	-200.000	-0.012	0.072
-163.808	-62.376	-0.170	0.070
-162.793	-5.976	0.301	0.202
-161.779	-154.351	-0.214	-0.014
-160.764	146.509	0.016	-0.021
-159.750	239.271	-0.050	0.082
-158.735	-200.000	0.061	-0.264
-157.720	-109.378	0.135	0.028
-156.706	-142.204	-0.240	-0.023
-155.691	36.881	-0.281	0.244
-154.677	104.504	0.019	-0.023
-153.662	-86.182	-0.199	-0.060
-152.647	-60.750	-0.176	0.073
-151.633	457.560	0.115	0.251
-150.618	327.902	-0.201	0.380
-149.604	-55.713	0.279	-0.123
-148.589	12.413	0.208	0.157
-147.574	-12.614	0.123	-0.079
-146.560	-1.192	0.184	-0.128
-145.545	402.740	-0.252	0.521
-144.531	587.916	0.070	0.169
-143.516	-200.000	0.010	0.400
-142.502	-200.000	-0.019	0.136
-141.487	-78.241	0.206	-0.070
-140.472	0.872	-0.069	0.049
-139.458	-110.173	0.294	0.060
-138.443	-200.000	0.016	-0.136
-137.429	30.883	0.244	0.206
-136.414	-32.645	0.103	-0.056
-135.399	216.976	0.039	0.061
-134.385	141.558	-0.238	-0.309
-133.370	800.000	-0.039	0.151
-132.356	-114.728	-0.319	-0.060
-131.341	-100.518	-0.141	-0.034
-130.326	177.857	0.050	0.071
-129.312	185.825	-0.077	0.112
-128.297	176.628	0.151	0.215
-127.283	38.140	-0.265	0.232
-126.268	-8.306	0.269	-0.178
-125.253	332.594	-0.126	0.239
-124.239	-1.697	0.235	-0.163
-123.224	-142.291	-0.213	0.021
-122.210	94.125	-0.071	-0.079
-121.195	-148.004	0.437	-0.036
-120.180	-200.000	-0.022	0.117
-119.166	-200.000	0.045	-0.345
-118.151	-200.000	-0.023	-0.227
-117.137	-56.380	0.114	-0.050
-116.122	738.117	0.086	0.227
-115.107	-18.016	-0.280	-0.172
-114.093	333.800	0.050	-0.095
-113.078	-53.084	-0.285	-0.129
-112.064	-0.563	-0.224	-0.156
-111.049	-143.836	0.252	-0.023
-110.034	-200.000	-0.018	0.170
-109.020	-81.182	-0.447	0.145
-108.005	121.553	-0.237	-0.291
-106.991	-16.065	0.190	-0.119
-105.976	-88.081	-0.235	0.069
-104.962	800.000	0.082	-0.241
-103.947	66.725	-0.238	0.237
-102.932	22.858	0.126	-0.102
-101.918	123.639	0.091	-0.112
-100.903	375.810	-0.140	-0.281
-99.889	-9.083	0.189	-0.124
-98.874	-119.975	-0.335	0.057
-97.859	800.000	0.059	0.215
-96.845	800.000	-0.029	0.123
-95.830	-200.000	0.024	0.433
-94.816	151.737	0.130	0.174
-93.801	-200.000	-0.041	-0.232
-92.786	-197.257	0.153	0.001
-91.772	800.000	0.003	-0.011
-90.757	91.146	-0.414	0.456
-89.743	800.000	0.031	-0.106
-88.728	172.786	-0.094	0.132
-87.713	800.000	0.086	0.340
-86.699	800.000	0.096	0.405
-85.684	-200.000	0.002	-0.036
-84.670	106.863	-0.273	0.318
-83.655	-126.535	0.402	-0.059
-82.640	27.963	0.114	-0.095
-81.626	-20.183	0.128	0.077
-80.611	-7.100	-0.095	0.063
-79.597	-28.201	0.116	0.066
-78.582	235.126	0.108	-0.175
-77.567	0.492	-0.098	0.069
-76.553	501.429	0.150	0.339
-75.538	171.904	0.106	0.149
-74.524	-134.336	0.036	-0.004
-73.509	-24.835	0.198	-0.115
-72.494	800.000	0.040	-0.118
-71.480	-200.000	0.004	0.349
-70.465	113.653	-0.169	0.201
-69.451	-85.070	0.152	-0.047
-68.436	-133.945	-0.219	-0.027
-67.422	-102.166	-0.250	-0.059
-66.407	-47.604	0.366	0.174
-65.392	-168.720	-0.268	-0.010
-64.378	-117.233	-0.099	0.018
-63.363	800.000	0.059	-0.230
-62.349	61.295	-0.168	0.164
-61.334	41.787	-1.065	-0.946
-60.319	92.478	0.535	0.591
-59.305	800.000	-0.228	-0.951
-58.290	573.129	0.603	1.441
-57.276	187.474	0.895	1.309
-56.261	-200.000	105.822	620.118
-55.246	518.138	1499.965	3441.502
-54.232	176.431	2699.979	3846.008
-53.217	105.968	2289.712	2656.577
-52.203	38.811	1897.429	1660.809
-51.188	32.821	1685.078	1429.660
-50.173	30.265	1641.822	1374.002
-49.159	49.840	1694.957	1566.207
-48.144	50.019	1710.308	1581.674
-47.130	32.456	1668.071	1412.270
-46.115	29.787	1653.518	1380.012
-45.100	29.663	1648.224	1374.612
-44.086	29.651	1646.170	1372.758
-43.071	29.634	1642.894	1369.841
-42.057	29.584	1640.721	1367.604
-41.042	29.581	1638.912	1366.020
-40.027	29.593	1637.076	1364.525
-39.013	29.597	1634.926	1362.709
-37.998	29.557	1633.559	1361.223
-36.984	29.588	1632.055	1360.143
-35.969	29.698	1630.857	1359.903
-34.954	29.853	1628.344	1358.890
-33.940	29.711	1627.331	1356.948
-32.925	29.779	1624.984	1355.438
-31.911	29.624	1624.089	1353.501
-30.896	29.645	1621.867	1351.746
-29.881	29.622	1620.891	1350.709
-28.867	29.535	1619.398	1348.779
-27.852	29.611	1617.715	1347.877
-26.838	29.678	1616.345	1347.175
-25.823	29.731	1614.889	1346.289
-24.809	29.764	1613.261	1345.122
-23.794	29.690	1612.359	1343.774
-22.779	29.752	1610.868	1342.929
-21.765	29.755	1608.640	1341.045
-20.750	29.661	1607.194	1339.105
-19.736	29.685	1606.033	1338.255
-18.721	29.726	1604.353	1337.103
-17.706	29.657	1602.937	1335.365
-16.692	29.650	1601.685	1334.224
-15.677	29.648	1600.119	1332.851
-14.663	29.699	1598.778	1332.047
-13.648	29.774	1597.430	1331.414
-12.633	29.706	1596.075	1329.739
-11.619	29.657	1594.431	1327.963
-10.604	29.773	1592.528	1327.158
-9.590	29.739	1591.540	1326.043
-8.575	29.798	1589.989	1325.116
-7.560	29.807	1589.130	1324.410
-6.546	29.726	1588.163	1322.976
-5.531	29.711	1587.454	1322.226
-4.517	29.670	1585.994	1320.662
-3.502	29.680	1585.220	1320.038
-2.487	29.818	1583.007	1319.125
-1.473	29.381	1571.221	1306.157
-0.458	26.384	1552.216	1269.305
0.556	20.627	1553.041	1237.957
1.571	18.318	1577.723	1240.804
2.586	18.042	1590.869	1249.014
3.600	16.352	1538.642	1195.947
4.615	8.721	1429.591	1060.705
5.629	1.216	1366.312	966.006
6.644	-0.193	1358.318	951.351
7.659	-0.374	1357.419	949.491
8.673	-0.363	1356.583	948.891
9.688	-0.361	1354.294	947.218
10.702	-0.577	1351.244	943.641
11.717	2.533	1357.175	967.359
12.731	11.551	1374.299	1036.947
13.746	18.848	1387.092	1093.097
14.761	20.764	1389.171	1106.829
15.775	21.073	1388.605	1108.247
16.790	21.075	1388.307	1107.922
17.804	21.045	1388.157	1107.516
18.819	21.299	1387.792	1108.740
19.834	21.419	1387.252	1108.966
20.848	21.417	1386.571	1108.313
21.863	21.426	1385.578	1107.476
22.877	21.508	1384.259	1106.845
23.892	21.469	1383.827	1106.158
24.907	21.424	1382.995	1105.108
25.921	21.448	1381.691	1104.119
26.936	21.542	1380.556	1103.705
27.950	21.469	1379.925	1102.645
28.965	21.432	1378.375	1101.074
29.980	21.489	1377.051	1100.281
30.994	21.523	1375.934	1099.506
32.009	21.472	1374.555	1097.987
33.023	21.462	1373.732	1097.165
34.038	21.431	1372.551	1095.933
35.053	21.458	1371.660	1095.292
36.067	21.429	1370.678	1094.229
37.082	21.458	1369.841	1093.645
38.096	21.454	1369.198	1093.009
39.111	21.392	1368.518	1091.987
40.126	21.424	1367.402	1091.196
41.140	21.516	1366.556	1091.001
42.155	21.428	1367.073	1090.766
43.169	21.460	1366.388	1090.324
44.184	21.475	1366.143	1090.125
45.199	21.468	1365.840	1089.744
46.213	21.473	1365.320	1089.266
47.228	21.384	1364.542	1087.994
48.242	21.448	1362.869	1086.962
49.257	21.441	1361.497	1085.723
50.271	21.474	1360.057	1084.685
51.286	21.467	1358.874	1083.602
52.301	21.337	1358.217	1082.176
53.315	21.432	1357.163	1081.828
54.330	21.494	1355.991	1081.185
55.344	21.545	1354.739	1080.406
56.359	21.446	1353.898	1079.029
57.374	21.403	1353.117	1078.043
58.388	21.517	1352.172	1077.902
59.403	21.383	1352.221	1077.018
60.417	21.518	1351.116	1076.873
61.432	21.364	1350.330	1075.206
62.447	21.477	1349.571	1075.199
63.461	21.423	1348.290	1073.752
64.476	21.517	1347.295	1073.441
65.490	21.492	1346.397	1072.478
66.505	21.489	1344.446	1070.810
67.520	21.475	1343.507	1069.881
68.534	21.562	1342.128	1069.222
69.549	21.576	1341.314	1068.565
70.563	21.581	1340.152	1067.575
71.578	21.515	1339.521	1066.572
72.593	21.536	1338.361	1065.682
73.607	21.571	1337.752	1065.318
74.622	21.513	1337.279	1064.491
75.636	21.516	1336.416	1063.733
76.651	21.563	1335.598	1063.268
77.666	21.414	1335.418	1062.127
78.680	21.512	1334.924	1062.235
79.695	21.521	1333.823	1061.322
80.709	21.578	1332.822	1060.773
81.724	21.483	1332.339	1059.722
82.739	21.628	1330.667	1059.178
83.753	21.568	1329.831	1058.056
84.768	21.433	1329.464	1056.851
85.782	21.476	1327.986	1055.846
86.797	21.468	1326.877	1054.819
87.812	21.493	1325.917	1054.115
88.826	21.508	1324.808	1053.229
89.841	21.477	1323.993	1052.301
90.855	21.470	1322.829	1051.244
91.870	21.492	1321.866	1050.515
92.884	21.550	1321.301	1050.321
93.899	21.624	1320.067	1049.689
94.914	21.586	1319.320	1048.779
95.928	21.498	1318.761	1047.714
96.943	21.606	1318.012	1047.669
97.957	21.655	1316.783	1046.897
98.972	21.563	1316.215	1045.801
99.987	21.585	1315.460	1045.240
101.001	21.504	1314.300	1043.743
102.016	21.561	1313.047	1042.995
103.030	21.478	1312.553	1042.015
104.045	21.631	1311.311	1041.847
105.060	21.551	1310.564	1040.689
106.074	21.593	1309.181	1039.745
107.089	21.503	1308.395	1038.495
108.103	21.582	1307.414	1038.096
109.118	21.640	1306.645	1037.737
110.133	21.592	1305.427	1036.388
111.147	21.600	1303.789	1035.045
112.162	21.618	1302.540	1034.067
113.176	21.592	1301.615	1033.090
114.191	21.598	1300.689	1032.300
115.206	21.634	1299.674	1031.613
116.220	21.590	1299.288	1030.960
117.235	21.728	1297.612	1030.346
118.249	21.554	1297.119	1028.844
119.264	21.663	1296.064	1028.557
120.279	21.650	1295.410	1027.871
121.293	21.646	1294.708	1027.199
122.308	21.707	1293.530	1026.527
123.322	21.779	1292.247	1025.841
124.337	21.723	1291.697	1024.987
125.352	21.676	1290.619	1023.765
126.366	21.639	1289.661	1022.697
127.381	21.711	1288.741	1022.302
128.395	21.725	1287.416	1021.237
129.410	21.775	1286.767	1020.924
130.424	21.688	1286.110	1019.809
131.439	21.619	1285.775	1019.052
132.454	21.685	1284.405	1018.257
133.468	21.683	1283.617	1017.531
134.483	21.703	1283.052	1017.111
135.497	21.640	1282.394	1016.135
136.512	21.609	1281.059	1014.804
137.527	21.684	1279.717	1014.087
138.541	21.611	1278.377	1012.510
139.556	21.656	1276.836	1011.464
140.570	21.665	1275.887	1010.672
141.585	21.688	1274.638	1009.727
142.600	21.596	1273.843	1008.479
143.614	21.558	1273.371	1007.794
144.629	21.659	1272.251	1007.403
145.643	21.615	1271.021	1006.086
146.658	21.564	1270.339	1005.162
147.673	21.624	1269.080	1004.425
148.687	21.611	1267.902	1003.327
149.702	21.636	1266.986	1002.659
150.716	21.558	1266.008	1001.348
151.731	21.647	1264.815	1000.822
152.746	21.590	1263.914	999.696
153.760	21.674	1262.288	998.803
154.775	21.756	1261.348	998.439
155.789	21.715	1260.827	997.705
156.804	21.720	1260.020	997.004
157.819	21.716	1259.209	996.251
158.833	21.750	1258.269	995.615
159.848	21.874	1257.378	995.525
160.862	21.664	1257.150	994.066
161.877	21.780	1255.603	993.410
162.892	21.810	1254.802	992.855
163.906	21.877	1254.078	992.578
164.921	21.750	1253.808	991.554
165.935	21.791	1252.917	990.994
166.950	21.758	1252.506	990.396
167.964	21.890	1251.206	990.023
168.979	21.859	1251.084	989.666
169.994	21.776	1250.721	988.822
171.008	21.832	1249.660	988.210
172.023	21.878	1248.782	987.693
173.037	21.895	1248.145	987.197
174.052	21.853	1247.567	986.412
175.067	21.797	1246.943	985.518
176.081	21.780	1245.812	984.444
177.096	21.810	1244.980	983.868
178.110	21.793	1244.001	982.908
179.125	21.892	1242.790	982.419
180.140	21.958	1241.532	981.709
181.154	21.890	1241.085	980.888
182.169	21.730	1239.918	978.987
183.183	21.841	1238.880	978.698
184.198	21.818	1238.005	977.793
185.213	21.901	1236.580	977.044
186.227	21.899	1236.286	976.714
187.242	21.928	1235.029	975.797
188.256	21.961	1233.991	975.073
189.271	21.932	1233.375	974.339
190.286	21.966	1232.142	973.465
191.300	21.926	1231.927	972.989
192.315	21.910	1231.724	972.653
193.329	21.857	1231.022	971.720
194.344	21.973	1230.609	971.947
195.359	22.001	1229.640	971.252
196.373	21.971	1229.515	970.903
197.388	21.806	1229.285	969.719
198.402	21.850	1229.117	969.744
199.417	21.844	1228.145	968.863
200.432	21.920	1227.308	968.537
201.446	21.876	1227.143	968.074
202.461	21.934	1226.238	967.594
203.475	21.852	1225.531	966.499
204.490	21.892	1224.135	965.533
205.504	21.911	1223.433	965.001
206.519	21.937	1222.865	964.609
207.534	21.981	1221.706	963.853
208.548	22.000	1220.665	963.051
209.563	21.996	1220.111	962.504
210.577	21.981	1219.087	961.529
211.592	21.990	1218.620	961.128
212.607	22.052	1217.461	960.466
213.621	22.113	1216.823	960.209
214.636	22.064	1215.800	959.052
215.650	21.957	1215.179	957.893
216.665	21.987	1214.425	957.375
217.680	22.056	1213.706	957.101
218.694	22.055	1212.879	956.358
219.709	21.951	1212.126	955.115
220.723	22.055	1211.544	955.136
221.738	22.062	1210.542	954.299
222.753	22.009	1209.518	953.119
223.767	22.086	1209.226	953.224
224.782	22.084	1208.837	952.825
225.796	22.100	1208.497	952.558
226.811	22.074	1207.754	951.745
227.826	22.115	1207.221	951.466
228.840	22.052	1206.581	950.532
229.855	22.054	1206.159	950.130
230.869	22.200	1204.790	949.757
231.884	22.188	1204.408	949.303
232.899	22.222	1203.207	948.460
233.913	22.036	1203.316	947.454
234.928	22.170	1202.848	947.726
235.942	22.215	1202.323	947.471
236.957	22.232	1201.298	946.673
237.972	22.231	1200.329	945.821
238.986	22.101	1199.606	944.468
240.001	22.189	1199.489	944.763
241.015	22.362	1198.353	944.713
242.030	22.249	1197.449	943.314
243.045	22.278	1196.950	942.990
244.059	22.287	1196.026	942.229
245.074	22.253	1195.637	941.653
246.088	22.434	1194.497	941.641
247.103	22.408	1193.631	940.736
248.117	22.375	1192.932	939.928
249.132	22.294	1192.410	939.002
250.147	22.256	1191.912	938.324
251.161	22.476	1190.599	938.380
252.176	22.470	1190.131	937.892
253.190	22.301	1189.926	936.751
254.205	22.324	1189.275	936.279
255.220	22.350	1188.673	935.858
256.234	22.386	1187.979	935.420
257.249	22.421	1187.118	934.845
258.263	22.423	1186.394	934.202
259.278	22.399	1185.933	933.628
260.293	22.381	1185.734	933.296
261.307	22.447	1184.629	932.691
262.322	22.398	1184.543	932.283
263.336	22.404	1184.258	932.007
264.351	22.389	1183.054	930.901
265.366	22.562	1182.218	931.072
266.380	22.446	1181.872	930.105
267.395	22.464	1180.898	929.349
268.409	22.401	1180.868	928.913
269.424	22.521	1179.812	928.636
270.439	22.517	1179.596	928.362
271.453	22.463	1178.808	927.374
272.468	22.404	1178.169	926.476
273.482	22.476	1177.168	925.987
274.497	22.374	1177.184	925.384
275.512	22.504	1176.445	925.403
276.526	22.510	1175.736	924.794
277.541	22.477	1174.567	923.618
278.555	22.574	1173.952	923.564
279.570	22.540	1173.100	922.632
280.585	22.531	1172.981	922.410
281.599	22.648	1171.449	921.735
282.614	22.560	1171.018	920.853
283.628	22.610	1170.010	920.240
284.643	22.566	1169.233	919.320
285.657	22.562	1168.512	918.652
286.672	22.661	1167.658	918.413
287.687	22.643	1166.500	917.329
288.701	22.632	1165.770	916.615
289.716	22.596	1165.666	916.266
290.730	22.671	1164.911	915.982
291.745	22.790	1163.908	915.729
292.760	22.584	1163.693	914.411
293.774	22.739	1162.909	914.518
294.789	22.814	1162.233	914.290
295.803	22.663	1162.170	913.378
296.818	22.770	1160.902	912.856
297.833	22.774	1160.401	912.402
298.847	22.722	1159.668	911.477
299.862	22.759	1159.152	911.180
300.876	22.733	1158.631	910.557
301.891	22.843	1158.193	910.700
302.906	22.809	1157.341	909.772
303.920	22.732	1156.334	908.505
304.935	22.805	1156.064	908.588
305.949	22.946	1154.999	908.396
306.964	22.905	1154.378	907.617
307.979	22.819	1153.953	906.760
308.993	22.838	1153.644	906.534
310.008	22.781	1153.079	905.718
311.022	22.807	1152.311	905.170
312.037	22.924	1151.029	904.681
313.052	22.904	1150.090	903.761
314.066	22.893	1149.179	902.906
315.081	22.832	1149.482	902.751
316.095	22.937	1148.010	902.051
317.110	22.932	1147.482	901.535
318.125	22.951	1147.042	901.204
319.139	22.845	1146.740	900.349
320.154	22.865	1146.174	899.924
321.168	22.898	1145.527	899.506
322.183	23.021	1144.623	899.343
323.197	23.015	1143.936	898.693
324.212	22.980	1143.348	897.973
325.227	23.027	1142.465	897.439
326.241	23.131	1141.971	897.497
327.256	23.035	1141.423	896.502
328.270	22.980	1140.698	895.573
329.285	22.981	1140.058	894.997
330.300	23.068	1138.992	894.521
331.314	23.000	1138.390	893.625
332.329	23.073	1137.504	893.220
333.343	23.067	1136.710	892.488
334.358	23.031	1136.225	891.845
335.373	23.202	1135.373	891.959
336.387	23.201	1134.761	891.393
337.402	23.167	1134.084	890.612
338.416	23.160	1133.141	889.757
339.431	23.155	1133.082	889.608
340.446	23.211	1132.222	889.136
341.460	23.168	1131.580	888.337
342.475	23.261	1130.538	887.908
343.489	23.141	1130.313	887.048
344.504	23.245	1128.964	886.434
345.519	23.282	1127.826	885.645
346.533	23.269	1127.418	885.181
347.548	23.274	1126.536	884.436
348.562	23.270	1125.972	883.897
349.577	23.268	1125.373	883.336
350.592	23.177	1124.600	882.198
351.606	23.121	1124.242	881.560
352.621	23.328	1123.614	882.019
353.635	23.291	1122.893	881.192
354.650	23.360	1122.113	880.846
355.665	23.378	1121.266	880.191
356.679	23.431	1120.683	879.920
357.694	23.429	1120.314	879.542
358.708	23.365	1119.675	878.647
359.723	23.361	1118.906	877.944
360.738	23.286	1118.200	876.942
361.752	23.258	1117.861	876.460
362.767	23.492	1117.401	877.180
363.781	23.422	1116.736	876.232
364.796	23.434	1116.459	875.997
365.810	23.390	1115.704	875.110
366.825	23.468	1114.768	874.683
367.840	23.654	1114.144	875.031
368.854	23.539	1113.901	874.201
369.869	23.499	1112.952	873.178
370.883	23.445	1112.425	872.424
371.898	23.560	1111.473	872.163
372.913	23.480	1111.118	871.414
373.927	23.480	1111.168	871.380
374.942	23.681	1110.035	871.397
375.956	23.646	1109.380	870.635
376.971	23.620	1109.102	870.213
377.986	23.607	1108.731	869.780
379.000	23.603	1108.222	869.285
380.015	23.653	1107.470	868.863
381.029	23.696	1106.363	868.126
382.044	23.582	1106.297	867.442
383.059	23.749	1105.457	867.524
384.073	23.640	1104.797	866.396
385.088	23.692	1104.020	865.964
386.102	23.672	1102.761	864.801
387.117	23.737	1101.720	864.226
388.132	23.709	1101.502	863.841
389.146	23.663	1100.503	862.756
390.161	23.770	1100.156	862.931
391.175	23.723	1099.041	861.752
392.190	23.677	1099.032	861.443
393.205	23.839	1097.746	861.146
394.219	23.891	1097.147	860.851
395.234	23.776	1096.407	859.640
396.248	23.750	1095.553	858.766
397.263	23.846	1094.576	858.390
398.278	23.916	1094.374	858.493
399.292	23.797	1093.794	857.385
400.307	23.860	1093.346	857.263
401.321	23.879	1092.474	856.597
402.336	23.925	1091.618	856.069
403.350	23.897	1090.765	855.193
404.365	23.917	1090.327	854.870
405.380	24.034	1089.415	854.638
406.394	23.958	1089.031	853.897
407.409	24.008	1088.439	853.596
408.423	24.032	1087.389	852.812
409.438	24.137	1086.463	852.514
410.453	24.059	1086.186	851.847
411.467	24.110	1085.188	851.234
412.482	24.066	1084.869	850.699
413.496	23.998	1083.921	849.555
414.511	23.920	1083.702	848.934
415.526	24.081	1082.887	848.989
416.540	24.102	1082.380	848.617
417.555	24.065	1082.042	848.099
418.569	24.129	1081.589	847.973
419.584	24.163	1081.375	847.896
420.599	24.033	1080.926	846.851
421.613	149.252	1400.174	1799.384
422.628	137.866	1446.696	1799.479
