DTS Sentinel unit serial number:	SN413079Multiplexer serial number:	ORYXHardware model number:	OX4-SRSoftware version number:	ORYX F/W v4.00 Oryx Data Collector v3.7.2.0data status	okinstallation	princeton_trtdifferential loss correction	single-endedforward channel	channel 2reverse channel	N/Adate	2019/09/18time	04:39:35forward acquisition time	60.00reverse acquisition time	0.00gamma	496.2192k internal	0.2348k external	0.2348temperature offset calibration	0.9984default loss term (dB/km)	0.3790temperature slope calibration	1.0000multiplexer offset coefficient	1.0000multiplexer slope coefficient	1.0000fibre end	0.00T internal ref (°C)	23.44T ext. ref 1 (°C)	0.19T ext. ref 2 (°C)	17.70length (m)	temperature (°C)	Stokes	anti-Stokes-747.200	-39.814	-0.267	0.139
-746.185	112.039	-0.177	0.214
-745.171	-73.520	0.100	-0.036
-744.156	147.937	-0.232	0.313
-743.142	-200.000	-0.017	0.183
-742.127	-60.101	-0.100	0.043
-741.112	334.084	0.170	-0.329
-740.098	88.684	-0.119	0.132
-739.083	169.556	-0.224	0.320
-738.069	-200.000	-0.026	0.142
-737.054	162.795	-0.024	0.033
-736.039	-200.000	-0.031	-0.505
-735.025	-103.631	-0.204	0.048
-734.010	449.447	0.022	0.048
-732.996	42.819	0.192	-0.175
-731.981	-113.102	0.141	0.028
-730.966	800.000	-0.049	0.143
-729.952	-152.015	-0.130	0.009
-728.937	-200.000	-0.040	0.251
-727.923	-110.524	-0.341	-0.070
-726.908	-200.000	-0.013	-0.179
-725.894	-159.734	-0.338	-0.019
-724.879	-151.085	-0.101	0.008
-723.864	800.000	-0.103	0.310
-722.850	20.418	0.243	0.196
-721.835	57.875	-0.068	0.066
-720.821	800.000	0.042	-0.168
-719.806	138.613	-0.212	-0.278
-718.791	-87.631	-0.261	-0.079
-717.777	-200.000	-0.001	0.031
-716.762	-7.482	0.136	-0.092
-715.748	-29.665	0.352	-0.201
-714.733	145.389	-0.019	-0.026
-713.718	735.543	-0.085	-0.228
-712.704	800.000	-0.042	-0.142
-711.689	239.538	-0.139	-0.231
-710.675	-87.699	0.153	-0.046
-709.660	557.300	0.065	-0.157
-708.645	-200.000	-0.007	0.285
-707.631	-131.249	0.280	-0.037
-706.616	-2.624	0.076	0.053
-705.602	-200.000	0.008	0.105
-704.587	800.000	0.080	0.232
-703.572	487.199	-0.049	0.111
-702.558	-123.204	-0.309	0.049
-701.543	-146.663	0.323	-0.028
-700.529	-73.276	-0.263	0.096
-699.514	-65.080	0.148	0.060
-698.499	-56.566	-0.010	0.004
-697.485	325.471	0.198	-0.378
-696.470	286.646	0.207	-0.372
-695.456	-60.006	-0.143	0.061
-694.441	-95.553	-0.108	0.029
-693.426	136.837	-0.183	0.239
-692.412	124.540	-0.229	0.287
-691.397	50.857	-0.138	0.130
-690.383	83.526	-0.188	-0.204
-689.368	59.614	-0.253	0.248
-688.354	456.698	-0.062	0.137
-687.339	-31.906	0.288	0.161
-686.324	800.000	-0.043	-0.128
-685.310	7.972	-0.400	0.299
-684.295	-200.000	-0.023	-0.102
-683.281	753.171	0.049	-0.132
-682.266	197.205	-0.136	-0.206
-681.251	60.041	0.145	0.143
-680.237	-115.556	0.260	0.049
-679.222	-200.000	-0.083	-0.527
-678.208	-84.545	0.207	0.065
-677.193	-194.391	-0.302	-0.002
-676.178	-4.428	-0.327	0.225
-675.164	-26.499	0.168	0.098
-674.149	54.692	-0.258	0.247
-673.135	165.769	-0.189	0.267
-672.120	800.000	0.035	-0.138
-671.105	-200.000	0.004	-0.032
-670.091	440.267	-0.128	-0.278
-669.076	6.935	-0.157	0.116
-668.062	-104.432	-0.140	0.032
-667.047	69.672	0.062	0.064
-666.032	-90.413	-0.374	-0.108
-665.018	8.454	-0.055	0.041
-664.003	729.718	-0.061	0.163
-662.989	98.081	0.072	0.083
-661.974	-47.702	0.192	-0.092
-660.959	-60.619	-0.364	0.154
-659.945	498.243	0.028	0.063
-658.930	-110.636	0.210	0.043
-657.916	-181.281	-0.112	-0.002
-656.901	-41.696	-0.212	0.108
-655.886	-11.366	-0.235	0.154
-654.872	-200.000	-0.083	-0.363
-653.857	-6.045	-0.133	-0.091
-652.843	-4.882	-0.244	-0.167
-651.828	-30.928	-0.148	-0.083
-650.814	-200.000	-0.047	0.214
-649.799	-44.959	-0.177	-0.088
-648.784	17.328	0.150	0.118
-647.770	-200.000	0.013	-0.297
-646.755	2.718	0.194	0.140
-645.741	60.363	0.156	-0.153
-644.726	800.000	-0.050	-0.203
-643.711	-200.000	-0.079	0.387
-642.697	-145.972	-0.139	-0.012
-641.682	800.000	-0.055	0.229
-640.668	-41.503	0.169	-0.087
-639.653	-22.439	0.129	0.077
-638.638	-7.496	-0.288	-0.194
-637.624	-94.905	0.141	0.038
-636.609	-160.629	-0.191	-0.010
-635.595	-72.018	-0.016	-0.006
-634.580	-41.035	-0.144	0.074
-633.565	800.000	0.045	-0.144
-632.551	780.898	0.106	-0.288
-631.536	800.000	0.071	0.224
-630.522	800.000	0.069	-0.231
-629.507	760.322	0.084	-0.227
-628.492	-0.635	-0.339	-0.239
-627.478	-31.129	0.098	0.055
-626.463	316.444	-0.117	-0.220
-625.449	266.168	0.060	0.104
-624.434	44.049	0.118	-0.107
-623.419	60.916	-0.318	-0.314
-622.405	14.801	-0.322	0.250
-621.390	57.125	0.101	0.098
-620.376	144.044	0.124	0.164
-619.361	-200.000	0.020	0.114
-618.346	-200.000	0.019	-0.362
-617.332	208.843	-0.112	-0.175
-616.317	333.329	-0.038	0.073
-615.303	231.369	-0.135	0.219
-614.288	800.000	-0.012	0.032
-613.273	800.000	-0.012	0.043
-612.259	-45.635	0.305	-0.150
-611.244	-75.912	-0.092	0.032
-610.230	800.000	-0.114	-0.481
-609.215	194.811	0.157	0.237
-608.201	-149.512	-0.141	0.011
-607.186	800.000	0.082	-0.301
-606.171	-200.000	-0.019	-0.166
-605.157	-94.525	0.012	-0.003
-604.142	330.230	-0.114	0.218
-603.128	206.235	0.087	-0.135
-602.113	30.926	0.103	-0.088
-601.098	-96.486	-0.199	0.052
-600.084	-200.000	0.007	0.036
-599.069	-55.566	-0.052	0.023
-598.055	50.972	0.238	0.224
-597.040	156.986	0.178	0.245
-596.025	797.099	-0.107	0.294
-595.011	-167.962	0.171	-0.007
-593.996	-86.815	0.292	0.089
-592.982	-153.681	-0.373	0.026
-591.967	-115.411	0.070	-0.013
-590.952	-117.647	0.460	-0.082
-589.938	258.775	0.065	0.111
-588.923	32.809	0.111	0.096
-587.909	-200.000	-0.004	0.093
-586.894	276.926	-0.207	-0.365
-585.879	-136.444	-0.332	0.038
-584.865	-200.000	0.005	0.168
-583.850	266.916	0.172	-0.299
-582.836	-92.996	-0.217	-0.060
-581.821	-60.520	-0.285	-0.120
-580.806	-36.651	-0.087	-0.047
-579.792	-25.340	0.329	0.193
-578.777	-27.389	-0.139	0.080
-577.763	104.266	-0.167	-0.195
-576.748	45.470	-0.245	-0.224
-575.733	-27.450	0.415	0.240
-574.719	800.000	-0.035	-0.149
-573.704	-185.147	-0.156	-0.002
-572.690	-62.451	0.307	-0.127
-571.675	57.348	-0.174	0.168
-570.661	173.277	-0.025	0.035
-569.646	-200.000	-0.018	0.491
-568.631	133.446	0.137	-0.176
-567.617	-104.341	-0.054	-0.012
-566.602	104.248	0.209	-0.244
-565.588	-115.878	0.287	-0.053
-564.573	-124.552	-0.167	-0.026
-563.558	1.870	-0.162	0.116
-562.544	83.082	0.109	-0.117
-561.529	203.154	0.097	-0.149
-560.515	-39.606	0.141	0.073
-559.500	327.898	0.035	-0.067
-558.485	-99.040	0.183	-0.046
-557.471	196.483	-0.136	0.205
-556.456	-63.057	0.393	-0.161
-555.442	-73.251	-0.164	0.060
-554.427	-200.000	0.007	0.063
-553.412	38.751	-0.203	0.180
-552.398	-200.000	-0.077	0.344
-551.383	151.079	0.175	0.236
-550.369	698.402	0.052	0.136
-549.354	800.000	-0.035	0.141
-548.339	751.571	0.156	0.416
-547.325	403.243	0.148	0.308
-546.310	51.126	-0.053	-0.050
-545.296	11.743	0.126	-0.096
-544.281	-200.000	0.002	-0.042
-543.266	-69.621	-0.155	0.059
-542.252	-200.000	0.051	0.327
-541.237	-125.839	0.203	0.030
-540.223	233.927	-0.233	-0.380
-539.208	-29.752	-0.321	0.182
-538.193	-89.353	0.071	-0.021
-537.179	-135.367	0.391	0.046
-536.164	49.976	-0.114	0.106
-535.150	-118.571	0.404	-0.071
-534.135	-200.000	-0.007	0.237
-533.121	-23.873	-0.211	-0.125
-532.106	-60.458	-0.468	0.197
-531.091	286.901	-0.056	0.101
-530.077	246.502	-0.060	0.100
-529.062	525.245	0.040	-0.094
-528.048	-163.245	-0.159	-0.008
-527.033	482.118	0.026	0.058
-526.018	314.745	-0.036	0.066
-525.004	-89.568	-0.222	0.065
-523.989	-71.013	0.130	-0.049
-522.975	232.039	-0.031	-0.050
-521.960	155.162	-0.279	-0.380
-520.945	-52.612	-0.232	-0.106
-519.931	800.000	0.084	-0.238
-518.916	-200.000	-0.019	0.114
-517.902	-55.597	-0.359	-0.159
-516.887	46.926	-0.050	0.046
-515.872	-59.118	-0.062	0.026
-514.858	-200.000	-0.051	-0.331
-513.843	-200.000	0.027	0.325
-512.829	24.537	-0.266	0.218
-511.814	-70.914	0.237	-0.088
-510.799	-200.000	-0.036	-0.204
-509.785	-200.000	0.034	0.197
-508.770	-0.304	0.194	0.136
-507.756	800.000	-0.061	0.182
-506.741	-86.708	0.274	-0.083
-505.726	-38.042	0.089	0.047
-504.712	-67.969	0.238	-0.092
-503.697	259.368	0.128	-0.219
-502.683	-200.000	0.018	0.168
-501.668	-142.766	0.046	-0.004
-500.653	-41.612	-0.340	0.173
-499.639	800.000	-0.086	-0.254
-498.624	-92.593	0.299	-0.083
-497.610	46.872	0.103	0.094
-496.595	221.406	0.091	-0.145
-495.581	800.000	0.140	-0.419
-494.566	-55.103	-0.161	0.072
-493.551	800.000	0.064	-0.198
-492.537	800.000	0.091	-0.265
-491.522	129.791	-0.156	-0.197
-490.508	-200.000	0.027	-0.172
-489.493	-200.000	0.027	0.202
-488.478	-200.000	-0.087	0.409
-487.464	800.000	0.043	-0.168
-486.449	-200.000	-0.016	-0.308
-485.435	179.538	0.139	-0.201
-484.420	224.278	-0.073	0.117
-483.405	-113.505	-0.146	0.028
-482.391	-45.994	-0.195	-0.095
-481.376	47.059	0.216	-0.199
-480.362	86.516	0.163	0.177
-479.347	69.055	0.086	0.087
-478.332	258.133	0.142	-0.242
-477.318	350.114	-0.075	-0.147
-476.303	20.518	0.057	-0.046
-475.289	800.000	-0.069	0.298
-474.274	800.000	-0.109	0.421
-473.259	-22.706	0.095	-0.057
-472.245	-195.771	-0.194	-0.001
-471.230	480.566	0.023	-0.052
-470.216	766.582	0.033	-0.090
-469.201	-37.160	-0.097	-0.051
-468.186	111.333	0.234	0.279
-467.172	-19.710	0.244	-0.149
-466.157	-26.248	0.064	-0.037
-465.143	12.964	-0.112	-0.086
-464.128	-73.169	0.190	0.069
-463.113	-39.026	-0.278	-0.144
-462.099	90.145	-0.140	-0.155
-461.084	596.662	-0.071	-0.174
-460.070	-31.494	-0.162	-0.090
-459.055	-200.000	-0.037	-0.347
-458.040	556.905	-0.111	0.265
-457.026	35.630	-0.293	-0.254
-456.011	62.387	-0.347	-0.342
-454.997	-200.000	0.020	-0.158
-453.982	-49.950	0.219	-0.103
-452.968	-184.504	0.221	-0.004
-451.953	-200.000	-0.014	0.353
-450.938	-164.261	0.147	0.007
-449.924	382.266	0.101	-0.205
-448.909	124.777	-0.119	0.148
-447.895	228.225	-0.145	-0.233
-446.880	124.601	0.223	0.277
-445.865	800.000	-0.107	0.308
-444.851	185.424	-0.009	0.014
-443.836	-200.000	-0.032	-0.450
-442.822	-66.858	-0.220	-0.086
-441.807	-109.340	0.213	0.045
-440.792	637.304	-0.051	0.127
-439.778	272.939	0.115	0.201
-438.763	45.792	-0.188	0.172
-437.749	92.149	0.076	-0.085
-436.734	800.000	-0.149	-0.516
-435.719	-200.000	0.050	0.266
-434.705	800.000	-0.057	0.175
-433.690	-38.631	-0.049	0.026
-432.676	-26.967	-0.233	-0.134
-431.661	-200.000	-0.004	-0.336
-430.646	-72.211	-0.052	0.019
-429.632	-54.442	-0.147	-0.066
-428.617	157.253	-0.034	-0.047
-427.603	105.669	0.126	0.146
-426.588	44.022	-0.172	-0.156
-425.573	-200.000	-0.009	-0.055
-424.559	800.000	-0.017	-0.060
-423.544	23.048	0.031	0.025
-422.530	132.891	-0.220	0.280
-421.515	68.591	-0.150	-0.152
-420.500	-56.992	0.101	-0.044
-419.486	-200.000	0.024	0.207
-418.471	800.000	0.122	0.510
-417.457	163.839	0.063	0.088
-416.442	-62.383	0.066	0.027
-415.428	800.000	-0.076	-0.312
-414.413	-9.062	-0.029	0.019
-413.398	-144.057	-0.432	0.040
-412.384	-140.404	-0.255	-0.026
-411.369	457.861	0.095	-0.209
-410.355	-200.000	-0.026	-0.117
-409.340	43.527	0.128	0.115
-408.325	800.000	0.006	0.022
-407.311	-168.939	-0.282	-0.010
-406.296	-200.000	0.042	-0.196
-405.282	-23.626	-0.360	-0.213
-404.267	90.046	0.222	0.245
-403.252	-122.591	0.212	0.034
-402.238	28.556	-0.192	0.160
-401.223	800.000	0.057	0.206
-400.209	-131.916	-0.480	0.062
-399.194	-98.465	0.227	0.057
-398.179	-139.948	0.356	0.037
-397.165	-122.469	-0.374	-0.060
-396.150	-9.696	0.298	-0.196
-395.136	300.513	-0.151	0.274
-394.121	800.000	0.058	-0.159
-393.106	357.358	0.043	-0.084
-392.092	313.824	0.168	-0.312
-391.077	800.000	-0.073	-0.216
-390.063	261.212	-0.068	0.116
-389.048	-200.000	0.023	0.472
-388.033	223.923	0.125	-0.199
-387.019	376.745	-0.021	-0.042
-386.004	-36.660	-0.129	0.068
-384.990	-75.328	-0.208	-0.073
-383.975	190.759	0.269	0.398
-382.960	-200.000	0.022	-0.307
-381.946	7.659	-0.318	-0.235
-380.931	31.662	0.051	0.044
-379.917	-107.264	-0.019	0.004
-378.902	-2.496	-0.244	-0.168
-377.888	-28.316	-0.273	-0.155
-376.873	-32.863	-0.174	-0.095
-375.858	-79.687	0.280	-0.093
-374.844	-88.505	-0.277	0.081
-373.829	127.868	-0.171	-0.214
-372.815	169.589	0.101	0.142
-371.800	-141.894	-0.170	-0.017
-370.785	35.787	0.219	-0.189
-369.771	7.842	0.328	-0.242
-368.756	-190.533	0.297	-0.003
-367.742	800.000	0.076	-0.250
-366.727	800.000	-0.075	-0.218
-365.712	278.481	-0.083	0.145
-364.698	-200.000	0.008	-0.181
-363.683	209.172	-0.099	-0.153
-362.669	25.145	-0.268	-0.219
-361.654	-51.309	0.050	0.023
-360.639	-68.998	0.194	0.073
-359.625	-63.573	-0.179	-0.072
-358.610	-37.723	-0.360	0.189
-357.596	35.997	-0.175	-0.152
-356.581	-200.000	-0.001	-0.246
-355.566	-117.967	0.176	-0.031
-354.552	-10.422	-0.145	-0.094
-353.537	356.648	0.056	-0.109
-352.523	-144.369	-0.084	0.008
-351.508	-188.941	0.276	0.003
-350.493	325.242	0.075	0.142
-349.479	-94.766	0.227	-0.061
-348.464	-12.070	0.216	-0.139
-347.450	209.355	0.178	-0.274
-346.435	-58.276	0.164	0.070
-345.420	-136.711	0.181	-0.021
-344.406	350.774	-0.195	0.380
-343.391	-1.491	0.496	0.344
-342.377	-140.531	0.085	-0.009
-341.362	122.613	0.162	0.199
-340.348	-130.630	-0.250	-0.033
-339.333	54.847	0.026	-0.025
-338.318	17.983	0.036	0.028
-337.304	800.000	-0.089	0.346
-336.289	721.891	-0.029	0.076
-335.275	-94.821	-0.534	0.142
-334.260	81.147	-0.142	-0.151
-333.245	432.011	-0.167	0.356
-332.231	-16.810	-0.039	-0.024
-331.216	119.736	0.129	0.158
-330.202	-111.952	0.293	-0.058
-329.187	-106.681	-0.100	0.022
-328.172	-31.900	0.385	0.212
-327.158	-41.110	-0.286	-0.145
-326.143	800.000	0.068	0.189
-325.129	-89.640	0.284	-0.082
-324.114	-123.829	-0.261	0.040
-323.099	-89.194	0.117	0.034
-322.085	-43.866	0.270	0.133
-321.070	582.273	-0.170	0.409
-320.056	-96.575	0.273	0.071
-319.041	-61.324	0.019	-0.008
-318.026	110.044	0.134	-0.158
-317.012	27.608	0.105	-0.087
-315.997	105.654	0.191	0.222
-314.983	800.000	0.076	-0.222
-313.968	800.000	0.108	0.402
-312.953	-58.647	0.308	0.131
-311.939	-107.922	-0.289	0.062
-310.924	653.483	0.064	-0.161
-309.910	-80.290	-0.123	0.040
-308.895	145.075	-0.028	0.037
-307.880	800.000	0.053	-0.207
-306.866	800.000	-0.076	0.250
-305.851	305.524	-0.043	-0.078
-304.837	-136.178	0.222	0.026
-303.822	-85.963	0.334	0.102
-302.807	157.344	0.202	-0.275
-301.793	176.460	-0.155	-0.222
-300.778	-22.015	-0.312	-0.186
-299.764	-184.627	-0.125	-0.002
-298.749	-117.964	-0.117	-0.021
-297.735	800.000	0.061	0.249
-296.720	-200.000	-0.009	0.053
-295.705	65.093	0.235	0.233
-294.691	-200.000	0.000	-0.036
-293.676	-132.376	-0.113	0.014
-292.662	-163.486	-0.357	0.017
-291.647	16.003	-0.383	-0.296
-290.632	47.426	0.244	0.223
-289.618	-112.836	-0.319	-0.062
-288.603	-91.482	0.055	0.015
-287.589	378.367	-0.099	0.199
-286.574	49.799	0.095	-0.088
-285.559	7.258	0.100	0.073
-284.545	102.405	-0.077	-0.089
-283.530	250.433	0.306	0.509
-282.516	539.949	-0.153	0.356
-281.501	-154.917	0.385	0.025
-280.486	153.629	-0.193	-0.259
-279.472	800.000	0.069	-0.267
-278.457	67.168	0.096	-0.096
-277.443	-40.381	0.166	-0.085
-276.428	-62.760	-0.234	0.095
-275.413	-200.000	-0.007	0.106
-274.399	-32.964	0.264	0.144
-273.384	108.317	-0.152	-0.177
-272.370	800.000	-0.047	-0.183
-271.355	800.000	0.080	-0.242
-270.340	722.134	0.086	-0.225
-269.326	77.581	0.179	0.187
-268.311	-200.000	0.024	-0.183
-267.297	-164.131	-0.233	-0.011
-266.282	800.000	0.064	0.189
-265.267	-96.066	-0.278	-0.072
-264.253	141.055	0.193	0.250
-263.238	-36.435	0.167	-0.088
-262.224	-173.598	0.157	0.005
-261.209	-200.000	0.036	0.362
-260.195	-200.000	0.008	0.186
-259.180	-70.070	0.175	-0.065
-258.165	30.380	-0.091	0.076
-257.151	146.758	-0.245	0.322
-256.136	-33.710	-0.349	0.189
-255.122	-200.000	0.018	-0.201
-254.107	773.258	-0.149	-0.399
-253.092	733.589	0.131	-0.344
-252.078	-200.000	0.016	0.267
-251.063	69.190	-0.123	0.124
-250.049	102.345	-0.080	0.091
-249.034	-51.937	0.433	0.197
-248.019	-77.024	-0.076	0.026
-247.005	-1.563	0.354	-0.245
-245.990	466.170	0.028	0.061
-244.976	123.629	-0.063	-0.077
-243.961	506.018	-0.209	0.475
-242.946	303.603	-0.111	-0.202
-241.932	107.455	-0.095	0.111
-240.917	-168.324	0.084	-0.003
-239.903	335.877	-0.129	0.246
-238.888	-109.146	-0.428	0.089
-237.873	-75.276	-0.133	-0.046
-236.859	-93.485	0.076	0.021
-235.844	21.916	-0.142	0.113
-234.830	-48.621	0.059	0.028
-233.815	800.000	0.085	-0.252
-232.800	-14.583	0.265	-0.167
-231.786	487.215	0.115	-0.257
-230.771	-74.262	-0.273	0.097
-229.757	227.174	0.165	-0.263
-228.742	107.439	-0.043	-0.050
-227.727	-200.000	0.047	0.209
-226.713	-200.000	0.018	-0.318
-225.698	-8.927	0.259	-0.170
-224.684	142.385	0.221	-0.287
-223.669	-14.450	-0.046	0.029
-222.655	369.825	0.042	-0.082
-221.640	-91.536	0.445	0.124
-220.625	203.695	0.074	-0.112
-219.611	31.046	-0.164	-0.138
-218.596	-200.000	-0.024	0.363
-217.582	565.279	0.080	-0.191
-216.567	-175.745	-0.357	-0.009
-215.552	-200.000	0.008	-0.098
-214.538	139.974	0.211	0.272
-213.523	56.947	0.114	0.109
-212.509	104.293	0.240	0.276
-211.494	-39.108	0.084	0.043
-210.479	-200.000	-0.000	-0.193
-209.465	284.513	0.104	0.183
-208.450	-4.346	0.295	-0.200
-207.436	20.850	-0.040	0.032
-206.421	-3.593	0.186	-0.127
-205.406	2.553	0.245	0.174
-204.392	-116.632	0.021	-0.004
-203.377	-146.921	-0.268	-0.023
-202.363	800.000	-0.023	0.084
-201.348	312.270	0.014	0.026
-200.333	-162.648	0.129	0.006
-199.319	-131.834	0.325	0.042
-198.304	-91.704	0.082	0.023
-197.290	-97.159	-0.320	0.082
-196.275	800.000	0.092	-0.383
-195.260	-56.761	0.231	0.100
-194.246	-200.000	-0.005	-0.168
-193.231	-200.000	0.024	0.242
-192.217	-86.103	0.126	0.038
-191.202	79.035	-0.123	0.129
-190.187	-34.976	0.087	-0.046
-189.173	-45.115	-0.127	0.062
-188.158	20.150	-0.249	0.196
-187.144	-113.720	-0.206	0.039
-186.129	-115.032	-0.229	-0.043
-185.114	226.419	0.146	0.232
-184.100	-106.782	0.030	-0.006
-183.085	80.597	-0.302	0.318
-182.071	-200.000	-0.024	0.369
-181.056	116.610	-0.360	0.431
-180.042	238.833	-0.194	-0.314
-179.027	-37.419	0.094	0.049
-178.012	-175.677	-0.139	0.004
-176.998	67.356	0.189	-0.188
-175.983	-22.124	0.078	0.046
-174.969	50.674	-0.164	-0.152
-173.954	165.700	0.133	0.184
-172.939	-124.387	0.199	-0.030
-171.925	-200.000	-0.022	-0.153
-170.910	-200.000	0.006	-0.053
-169.896	-64.062	-0.198	-0.079
-168.881	65.611	0.327	-0.323
-167.866	12.154	0.028	-0.021
-166.852	-66.168	-0.227	0.089
-165.837	74.755	0.085	0.088
-164.823	34.117	-0.189	0.161
-163.808	-122.040	-0.272	0.044
-162.793	-168.651	0.236	0.009
-161.779	-67.626	0.253	-0.097
-160.764	800.000	0.031	-0.126
-159.750	-200.000	-0.081	-0.370
-158.735	800.000	-0.080	0.237
-157.720	112.711	-0.280	0.331
-156.706	-19.944	0.164	-0.099
-155.691	289.419	-0.103	0.183
-154.677	-200.000	0.099	-0.000
-153.662	-88.827	0.177	0.051
-152.647	-78.099	-0.269	0.090
-151.633	-136.180	0.234	-0.027
-150.618	-200.000	-0.004	0.241
-149.604	294.406	-0.053	0.094
-148.589	168.283	0.126	-0.175
-147.574	-65.191	-0.219	0.086
-146.560	5.392	-0.267	0.192
-145.545	257.612	0.098	0.164
-144.531	473.003	0.016	0.035
-143.516	391.114	-0.035	0.070
-142.502	800.000	-0.045	-0.133
-141.487	-169.678	-0.052	-0.002
-140.472	97.041	0.301	-0.336
-139.458	-3.179	0.228	-0.155
-138.443	-200.000	-0.060	-0.277
-137.429	-117.954	-0.229	-0.040
-136.414	28.808	0.044	0.036
-135.399	800.000	-0.093	0.309
-134.385	-116.684	0.264	-0.047
-133.370	-40.591	-0.137	0.069
-132.356	308.412	-0.042	-0.076
-131.341	-82.882	0.144	-0.045
-130.326	-18.282	-0.143	0.087
-129.312	148.386	-0.078	0.103
-128.297	144.680	0.177	-0.231
-127.283	104.597	0.141	0.162
-126.268	67.124	0.316	-0.314
-125.253	142.045	-0.069	-0.090
-124.239	-55.524	-0.047	-0.021
-123.224	-59.943	0.220	0.092
-122.210	14.175	-0.097	0.074
-121.195	-200.000	-0.005	0.334
-120.180	800.000	0.079	-0.283
-119.166	-86.360	0.138	-0.041
-118.151	-146.564	-0.397	0.034
-117.137	800.000	0.065	0.178
-116.122	-153.919	-0.248	0.016
-115.107	-89.157	0.073	0.021
-114.093	360.625	0.129	-0.251
-113.078	1.748	0.041	0.029
-112.064	228.324	-0.197	0.313
-111.049	277.883	-0.225	-0.390
-110.034	683.531	-0.076	-0.194
-109.020	-13.907	0.132	0.083
-108.005	800.000	-0.056	0.172
-106.991	187.856	0.253	-0.368
-105.976	38.142	0.135	-0.117
-104.962	231.105	0.245	0.391
-103.947	232.206	-0.149	-0.239
-102.932	-25.552	-0.255	-0.147
-101.918	-200.000	-0.003	-0.066
-100.903	334.560	-0.080	-0.151
-99.889	-143.787	0.154	-0.014
-98.874	129.325	0.145	-0.180
-97.859	-62.322	-0.178	-0.072
-96.845	-56.902	0.380	-0.163
-95.830	638.187	-0.021	-0.053
-94.816	-130.272	0.246	-0.033
-93.801	-75.257	0.055	-0.019
-92.786	510.868	-0.080	-0.180
-91.772	686.886	-0.062	0.159
-90.757	-200.000	0.005	0.192
-89.743	88.927	-0.161	0.175
-88.728	70.157	-0.065	0.065
-87.713	-57.792	0.070	0.030
-86.699	23.156	0.213	0.171
-85.684	800.000	0.089	-0.344
-84.670	-39.931	-0.074	0.037
-83.655	-56.665	0.325	0.140
-82.640	800.000	0.041	-0.128
-81.626	102.521	-0.095	0.109
-80.611	800.000	0.049	-0.148
-79.597	800.000	0.071	0.289
-78.582	148.999	-0.194	-0.255
-77.567	-97.620	0.317	0.080
-76.553	250.275	0.063	0.104
-75.538	-42.872	-0.057	-0.028
-74.524	181.675	0.040	-0.057
-73.509	48.141	-0.196	-0.179
-72.494	-107.273	0.534	0.114
-71.480	141.562	0.309	0.398
-70.465	465.178	0.139	0.302
-69.451	-200.000	-0.003	-0.287
-68.436	249.263	0.311	0.513
-67.422	328.116	-0.065	0.122
-66.407	118.561	0.089	-0.107
-65.392	125.987	0.122	0.150
-64.378	-200.000	0.066	-0.612
-63.363	348.000	0.143	-0.274
-62.349	261.933	-0.152	-0.256
-61.334	8.195	-1.183	-0.864
-60.319	-33.393	0.676	0.364
-59.305	-200.000	-0.340	-1.460
-58.290	113.819	1.101	1.302
-57.276	-200.000	0.421	1.806
-56.261	-200.000	124.214	645.729
-55.246	417.568	1563.578	3247.815
-54.232	143.110	2732.609	3534.396
-53.217	90.445	2305.222	2508.677
-52.203	32.620	1914.951	1609.844
-51.188	26.472	1710.460	1390.788
-50.173	24.288	1671.959	1342.997
-49.159	45.443	1740.843	1562.071
-48.144	43.418	1752.296	1556.704
-47.130	26.029	1703.433	1381.460
-46.115	23.572	1688.436	1350.565
-45.100	23.304	1683.812	1344.781
-44.086	23.368	1681.021	1342.983
-43.071	23.286	1678.913	1340.621
-42.057	23.304	1676.870	1339.076
-41.042	23.303	1674.368	1337.017
-40.027	23.319	1672.808	1335.838
-39.013	23.319	1670.698	1334.104
-37.998	23.324	1669.237	1332.921
-36.984	23.378	1667.847	1332.161
-35.969	23.482	1666.267	1331.629
-34.954	23.443	1664.903	1330.197
-33.940	23.458	1663.026	1328.750
-32.925	23.426	1661.503	1327.243
-31.911	23.429	1659.860	1325.903
-30.896	23.463	1657.688	1324.371
-29.881	23.461	1656.668	1323.484
-28.867	23.403	1654.920	1321.602
-27.852	23.391	1653.636	1320.439
-26.838	23.427	1651.988	1319.333
-25.823	23.355	1650.721	1317.735
-24.809	23.483	1649.365	1317.552
-23.794	23.476	1647.855	1316.243
-22.779	23.487	1646.165	1314.922
-21.765	23.426	1645.040	1313.517
-20.750	23.447	1642.798	1311.836
-19.736	23.509	1641.779	1311.426
-18.721	23.483	1639.983	1309.749
-17.706	23.468	1638.724	1308.579
-16.692	23.386	1637.483	1306.932
-15.677	23.423	1636.149	1306.085
-14.663	23.435	1635.001	1305.210
-13.648	23.403	1633.593	1303.798
-12.633	23.481	1631.937	1302.994
-11.619	23.508	1629.969	1301.571
-10.604	23.539	1628.968	1300.949
-9.590	23.476	1627.726	1299.441
-8.575	23.472	1626.388	1298.295
-7.560	23.393	1625.621	1297.051
-6.546	23.556	1624.038	1296.931
-5.531	23.484	1622.898	1295.439
-4.517	23.386	1622.174	1294.098
-3.502	23.449	1620.572	1293.224
-2.487	23.454	1619.029	1291.981
-1.473	23.087	1606.650	1279.398
-0.458	20.292	1587.492	1244.080
0.556	15.505	1589.118	1214.624
1.571	13.362	1613.936	1217.725
2.586	13.198	1626.535	1225.902
3.600	12.269	1572.185	1178.169
4.615	6.830	1464.158	1060.684
5.629	1.309	1405.011	982.104
6.644	0.226	1398.002	970.143
7.659	0.127	1397.078	968.775
8.673	0.143	1396.190	968.179
9.688	0.254	1393.199	966.733
10.702	0.087	1390.065	963.403
11.717	2.869	1393.748	983.712
12.731	9.724	1404.450	1035.314
13.746	15.220	1413.103	1077.013
14.761	16.794	1414.449	1088.059
15.775	16.242	1412.255	1082.739
16.790	15.271	1409.821	1074.556
17.804	14.481	1407.535	1067.660
18.819	14.099	1406.368	1064.234
19.834	13.896	1405.069	1061.859
20.848	13.506	1404.133	1058.568
21.863	13.405	1402.226	1056.392
22.877	13.273	1401.109	1054.613
23.892	13.255	1400.052	1053.607
24.907	13.166	1399.418	1052.474
25.921	13.152	1398.789	1051.816
26.936	13.250	1397.445	1051.336
27.950	13.345	1396.709	1051.294
28.965	13.252	1395.202	1049.476
29.980	13.288	1394.937	1049.410
30.994	13.409	1394.053	1049.422
32.009	13.455	1393.071	1048.877
33.023	13.362	1391.586	1047.083
34.038	13.376	1390.288	1046.099
35.053	13.290	1389.052	1044.532
36.067	13.362	1388.008	1044.112
37.082	13.395	1387.087	1043.536
38.096	13.405	1385.471	1042.289
39.111	13.373	1385.289	1041.859
40.126	13.280	1384.392	1040.505
41.140	13.232	1383.210	1039.226
42.155	13.294	1382.736	1039.168
43.169	13.122	1383.167	1038.314
44.184	13.232	1382.762	1038.612
45.199	13.188	1382.227	1037.839
46.213	13.233	1381.193	1037.254
47.228	13.315	1380.263	1036.983
48.242	13.305	1378.673	1035.629
49.257	13.258	1377.439	1034.319
50.271	13.327	1375.892	1033.495
51.286	13.261	1374.835	1032.198
52.301	13.328	1373.467	1031.500
53.315	13.181	1372.541	1029.795
54.330	13.294	1371.120	1029.339
55.344	13.278	1370.128	1028.407
56.359	13.208	1369.450	1027.374
57.374	13.259	1368.143	1026.616
58.388	13.116	1367.492	1025.150
59.403	13.082	1366.826	1024.347
60.417	13.183	1365.799	1024.112
61.432	13.135	1365.166	1023.254
62.447	13.071	1364.082	1021.953
63.461	13.125	1362.958	1021.352
64.476	13.092	1361.769	1020.172
65.490	13.000	1360.851	1018.822
66.505	13.186	1358.586	1018.181
67.520	13.161	1357.537	1017.154
68.534	13.163	1356.524	1016.316
69.549	13.075	1355.576	1014.978
70.563	13.161	1354.501	1014.609
71.578	13.118	1353.081	1013.190
72.593	13.075	1352.188	1012.167
73.607	13.025	1351.371	1011.160
74.622	13.126	1350.404	1010.968
75.636	13.046	1350.185	1010.223
76.651	13.025	1349.104	1009.197
77.666	13.012	1348.703	1008.727
78.680	13.126	1347.888	1008.724
79.695	13.096	1346.880	1007.700
80.709	13.135	1345.860	1007.086
81.724	13.039	1345.758	1006.333
82.739	13.034	1344.722	1005.441
83.753	13.183	1343.478	1005.325
84.768	13.299	1342.104	1004.917
85.782	13.316	1341.205	1004.258
86.797	13.326	1339.814	1003.185
87.812	13.264	1338.320	1001.601
88.826	13.246	1337.164	1000.543
89.841	13.292	1336.175	999.990
90.855	13.277	1335.286	999.149
91.870	13.400	1334.262	999.034
92.884	13.437	1333.284	998.439
93.899	13.396	1332.765	997.714
94.914	13.522	1331.546	997.472
95.928	13.385	1331.034	996.175
96.943	13.524	1329.540	995.806
97.957	13.312	1329.424	994.356
98.972	13.375	1328.138	993.685
99.987	13.381	1326.766	992.605
101.001	13.422	1326.137	992.294
102.016	13.393	1324.770	991.010
103.030	13.418	1324.070	990.546
104.045	13.286	1323.233	989.040
105.060	13.326	1322.232	988.447
106.074	13.387	1320.658	987.546
107.089	13.203	1319.518	985.511
108.103	13.095	1318.172	983.772
109.118	13.188	1316.409	982.924
110.133	13.282	1314.919	982.284
111.147	13.266	1313.703	981.193
112.162	13.241	1312.469	980.034
113.176	13.264	1311.595	979.435
114.191	13.333	1310.424	978.878
115.206	13.338	1309.208	977.914
116.220	13.224	1308.382	976.536
117.235	13.304	1307.482	976.254
118.249	13.269	1306.429	975.173
119.264	13.358	1304.657	974.291
120.279	13.199	1304.017	972.790
121.293	13.231	1302.794	971.978
122.308	13.272	1301.737	971.345
123.322	13.194	1300.907	970.181
124.337	13.131	1300.180	969.181
125.352	13.205	1298.463	968.254
126.366	13.222	1297.197	967.321
127.381	13.231	1296.481	966.756
128.395	13.216	1295.235	965.651
129.410	13.191	1294.596	964.946
130.424	13.251	1293.513	964.402
131.439	13.247	1292.408	963.467
132.454	13.293	1291.338	962.855
133.468	13.294	1290.756	962.342
134.483	13.228	1289.547	960.972
135.497	13.224	1288.885	960.368
136.512	13.291	1287.231	959.439
137.527	13.277	1285.611	958.067
138.541	13.309	1284.109	957.045
139.556	13.259	1282.970	955.823
140.570	13.360	1281.902	955.527
141.585	13.373	1280.863	954.745
142.600	13.324	1279.599	953.434
143.614	13.453	1279.044	953.683
144.629	13.422	1277.581	952.330
145.643	13.450	1276.166	951.348
146.658	13.355	1275.252	950.039
147.673	13.414	1273.856	949.252
148.687	13.348	1272.856	948.047
149.702	13.395	1271.277	947.055
150.716	13.392	1269.742	945.808
151.731	13.313	1268.803	944.577
152.746	13.370	1267.555	943.886
153.760	13.334	1266.786	943.026
154.775	13.490	1265.695	943.020
155.789	13.507	1263.973	941.750
156.804	13.554	1263.269	941.408
157.819	13.603	1261.923	940.602
158.833	13.642	1261.251	940.239
159.848	13.661	1260.437	939.657
160.862	13.555	1259.033	937.928
161.877	13.556	1258.123	937.171
162.892	13.527	1256.944	936.044
163.906	13.448	1256.345	935.071
164.921	13.434	1255.722	934.443
165.935	13.526	1254.285	933.814
166.950	13.518	1253.758	933.292
167.964	13.710	1252.872	933.631
168.979	13.590	1252.537	932.622
169.994	13.603	1251.607	931.919
171.008	13.514	1250.974	930.869
172.023	13.560	1249.860	930.215
173.037	13.687	1249.078	930.261
174.052	13.638	1248.293	929.320
175.067	13.619	1246.822	928.035
176.081	13.596	1246.200	927.365
177.096	13.643	1245.024	926.668
178.110	13.739	1243.815	926.224
179.125	13.715	1242.658	925.143
180.140	13.648	1241.788	924.043
181.154	13.783	1240.252	923.570
182.169	13.784	1238.827	922.432
183.183	13.880	1237.649	922.007
184.198	13.817	1236.767	920.920
185.213	13.901	1235.745	920.539
186.227	13.918	1234.600	919.700
187.242	13.882	1233.585	918.665
188.256	14.025	1232.476	918.550
189.271	13.961	1231.639	917.492
190.286	13.844	1230.481	915.898
191.300	13.768	1229.977	915.023
192.315	13.760	1229.138	914.274
193.329	13.828	1228.540	914.125
194.344	13.716	1227.919	912.962
195.359	13.857	1226.995	912.971
196.373	13.847	1226.403	912.396
197.388	13.956	1226.071	912.667
198.402	13.951	1225.808	912.363
199.417	13.982	1224.687	911.620
200.432	14.081	1223.779	911.404
201.446	14.081	1223.315	910.980
202.461	14.194	1221.769	910.363
203.475	14.217	1221.095	909.905
204.490	14.161	1219.981	908.689
205.504	14.165	1218.550	907.567
206.519	14.183	1217.290	906.644
207.534	14.100	1216.499	905.523
208.548	13.944	1215.782	904.062
209.563	14.109	1214.760	904.120
210.577	14.144	1213.603	903.367
211.592	14.131	1212.650	902.507
212.607	14.181	1212.049	902.254
213.621	14.240	1210.930	901.660
214.636	14.213	1210.392	901.033
215.650	14.227	1209.196	900.141
216.665	14.235	1208.343	899.468
217.680	14.362	1207.051	899.114
218.694	14.304	1206.683	898.444
219.709	14.363	1205.676	897.935
220.723	14.385	1204.791	897.316
221.738	14.257	1204.234	896.128
222.753	14.338	1203.591	896.007
223.767	14.277	1202.957	895.131
224.782	14.408	1202.106	895.119
225.796	14.407	1201.844	894.839
226.811	14.428	1200.736	894.049
227.826	14.470	1199.817	893.509
228.840	14.392	1199.278	892.614
229.855	14.428	1198.678	892.280
230.869	14.490	1197.652	891.770
231.884	14.548	1196.310	890.999
232.899	14.451	1195.921	890.115
233.913	14.429	1195.245	889.417
234.928	14.352	1194.402	888.295
235.942	14.378	1193.506	887.690
236.957	14.500	1192.795	887.732
237.972	14.453	1192.138	886.915
238.986	14.415	1191.524	886.180
240.001	14.497	1190.868	886.048
241.015	14.524	1189.800	885.318
242.030	14.475	1189.016	884.398
243.045	14.607	1187.980	884.247
244.059	14.546	1187.340	883.371
245.074	14.594	1186.433	882.873
246.088	14.676	1185.726	882.699
247.103	14.688	1184.795	881.992
248.117	14.726	1184.076	881.581
249.132	14.668	1183.478	880.750
250.147	14.771	1182.753	880.674
251.161	14.809	1181.746	880.048
252.176	14.776	1181.210	879.400
253.190	14.831	1180.774	879.283
254.205	14.999	1179.834	879.391
255.220	14.986	1179.459	878.965
256.234	14.960	1179.125	878.501
257.249	15.044	1178.002	878.029
258.263	14.928	1177.237	876.773
259.278	15.021	1176.730	876.804
260.293	14.969	1176.404	876.209
261.307	15.018	1175.297	875.564
262.322	14.987	1174.748	874.916
263.336	15.004	1174.192	874.513
264.351	15.050	1173.673	874.289
265.366	15.225	1172.592	874.320
266.380	15.147	1171.732	873.197
267.395	15.078	1171.541	872.614
268.409	15.113	1170.459	871.916
269.424	14.991	1170.019	870.874
270.439	15.100	1169.173	870.736
271.453	15.121	1168.170	870.022
272.468	15.049	1167.579	869.129
273.482	15.171	1166.293	868.730
274.497	15.127	1166.159	868.323
275.512	15.091	1165.425	867.513
276.526	15.182	1164.638	867.319
277.541	15.031	1163.855	865.880
278.555	15.250	1162.892	866.221
279.570	15.259	1162.272	865.726
280.585	15.329	1161.012	865.071
281.599	15.301	1160.616	864.556
282.614	15.243	1159.554	863.392
283.628	15.308	1158.455	862.829
284.643	15.441	1157.426	862.674
285.657	15.434	1156.490	861.860
286.672	15.295	1155.901	860.633
287.687	15.319	1154.874	859.915
288.701	15.376	1154.273	859.684
289.716	15.332	1153.588	858.875
290.730	15.368	1152.829	858.418
291.745	15.369	1151.899	857.652
292.760	15.448	1151.341	857.566
293.774	15.528	1151.186	857.781
294.789	15.446	1150.580	856.837
295.803	15.505	1149.583	856.316
296.818	15.431	1149.436	855.756
297.833	15.578	1147.700	855.134
298.847	15.410	1147.184	853.823
299.862	15.535	1146.185	853.639
300.876	15.494	1146.158	853.333
301.891	15.584	1145.157	852.970
302.906	15.622	1144.131	852.323
303.920	15.653	1143.748	852.119
304.935	15.781	1142.963	852.106
305.949	15.748	1142.607	851.599
306.964	15.739	1141.953	850.989
307.979	15.700	1141.059	850.052
308.993	15.695	1140.774	849.740
310.008	15.660	1139.746	848.723
311.022	15.815	1138.560	848.547
312.037	15.825	1137.763	847.927
313.052	15.868	1136.527	847.147
314.066	15.701	1135.632	845.566
315.081	15.708	1134.991	845.047
316.095	15.825	1134.014	844.835
317.110	15.779	1133.238	843.951
318.125	15.718	1132.466	842.995
319.139	15.808	1132.298	843.245
320.154	15.763	1131.543	842.385
321.168	15.754	1131.138	841.962
322.183	15.846	1130.109	841.581
323.197	15.698	1130.004	840.691
324.212	15.764	1129.208	840.353
325.227	15.930	1128.294	840.428
326.241	15.770	1127.771	839.162
327.256	15.902	1126.843	839.060
328.270	15.881	1125.929	838.198
329.285	15.799	1125.141	837.130
330.300	15.903	1124.044	836.756
331.314	15.725	1123.738	835.568
332.329	15.813	1122.210	834.796
333.343	15.891	1121.622	834.670
334.358	15.935	1120.306	833.839
335.373	15.954	1120.128	833.724
336.387	16.024	1119.098	833.231
337.402	16.032	1118.594	832.820
338.416	16.084	1117.587	832.255
339.431	16.060	1116.936	831.577
340.446	16.104	1116.049	831.061
341.460	16.091	1115.452	830.476
342.475	16.229	1114.580	830.437
343.489	16.136	1113.864	829.368
344.504	16.166	1112.922	828.741
345.519	16.165	1112.390	828.270
346.533	16.267	1111.401	827.959
347.548	16.306	1110.400	827.333
348.562	16.248	1109.790	826.517
349.577	16.234	1108.973	825.767
350.592	16.256	1108.211	825.234
351.606	16.145	1107.837	824.340
352.621	16.165	1107.093	823.812
353.635	16.150	1106.739	823.404
354.650	16.299	1105.592	823.204
355.665	16.254	1104.894	822.392
356.679	16.342	1104.077	822.138
357.694	16.373	1103.563	821.838
358.708	16.369	1103.012	821.334
359.723	16.423	1101.835	820.647
360.738	16.348	1101.707	820.115
361.752	16.419	1100.790	819.705
362.767	16.432	1100.581	819.540
363.781	16.533	1099.560	819.196
364.796	16.539	1099.180	818.870
365.810	16.543	1098.530	818.332
366.825	16.647	1097.259	817.813
367.840	16.623	1097.327	817.677
368.854	16.677	1096.627	817.341
369.869	16.682	1095.771	816.658
370.883	16.635	1094.968	815.758
371.898	16.633	1094.106	815.034
372.913	16.617	1093.537	814.462
373.927	16.632	1093.552	814.475
374.942	16.531	1092.843	813.389
375.956	16.735	1092.007	813.676
376.971	16.751	1091.588	813.364
377.986	16.653	1090.955	812.351
379.000	16.771	1090.213	812.295
380.015	16.812	1089.834	812.135
381.029	16.873	1088.892	811.653
382.044	16.823	1088.071	810.732
383.059	16.961	1087.582	810.953
384.073	16.893	1086.918	810.062
385.088	16.899	1086.040	809.365
386.102	16.824	1085.310	808.392
387.117	16.935	1083.823	807.743
388.132	16.876	1083.269	806.976
389.146	16.821	1082.404	806.000
390.161	16.777	1082.109	805.498
391.175	16.826	1080.950	804.798
392.190	16.936	1079.905	804.470
393.205	17.031	1079.308	804.408
394.219	17.022	1078.755	803.877
395.234	16.989	1078.027	803.112
396.248	16.965	1076.525	801.806
397.263	17.004	1075.641	801.260
398.278	16.943	1074.874	800.329
399.292	16.921	1074.632	799.978
400.307	17.004	1073.621	799.543
401.321	17.020	1073.230	799.258
402.336	17.054	1072.112	798.516
403.350	17.031	1071.697	798.026
404.365	17.049	1070.918	797.461
405.380	17.071	1070.027	796.830
406.394	17.023	1069.716	796.301
407.409	17.144	1068.646	796.002
408.423	17.210	1067.917	795.696
409.438	17.223	1067.474	795.358
410.453	17.145	1067.016	794.583
411.467	17.272	1066.183	794.485
412.482	17.420	1065.137	794.328
413.496	17.377	1064.464	793.554
414.511	17.273	1063.974	792.635
415.526	17.463	1063.738	793.273
416.540	17.481	1063.301	792.961
417.555	17.393	1062.642	791.988
418.569	17.376	1062.084	791.422
419.584	17.321	1061.265	790.490
420.599	17.514	1060.964	791.092
421.613	107.746	1331.146	1487.137
422.628	99.458	1370.468	1487.207
