DTS Sentinel unit serial number:	SN413079Multiplexer serial number:	ORYXHardware model number:	OX4-SRSoftware version number:	ORYX F/W v4.00 Oryx Data Collector v3.7.2.0data status	okinstallation	princeton_trtdifferential loss correction	single-endedforward channel	channel 2reverse channel	N/Adate	2019/09/11time	21:33:11forward acquisition time	60.00reverse acquisition time	0.00gamma	496.2192k internal	0.2324k external	0.2324temperature offset calibration	1.0070default loss term (dB/km)	0.3790temperature slope calibration	1.0000multiplexer offset coefficient	1.0000multiplexer slope coefficient	1.0000fibre end	0.00T internal ref (°C)	35.95T ext. ref 1 (°C)	1.65T ext. ref 2 (°C)	29.92length (m)	temperature (°C)	Stokes	anti-Stokes-747.200	151.317	-0.056	0.077
-746.185	85.826	0.111	0.123
-745.171	-39.062	0.110	0.059
-744.156	239.384	0.103	0.174
-743.142	356.428	-0.102	-0.205
-742.127	182.076	-0.077	0.115
-741.112	20.466	0.142	-0.116
-740.098	234.132	-0.322	0.536
-739.083	-68.705	0.202	0.079
-738.069	-200.000	-0.059	0.287
-737.054	-96.179	0.218	0.058
-736.039	377.512	-0.046	0.096
-735.025	-200.000	0.013	0.106
-734.010	4.603	-0.130	-0.096
-732.996	800.000	-0.033	-0.114
-731.981	-200.000	-0.003	0.020
-730.966	800.000	0.069	-0.264
-729.952	800.000	-0.143	-0.412
-728.937	179.345	0.136	0.201
-727.923	398.813	0.042	-0.088
-726.908	800.000	-0.052	0.157
-725.894	300.868	0.052	-0.097
-724.879	-200.000	0.011	0.366
-723.864	253.865	-0.135	-0.232
-722.850	648.452	0.048	-0.123
-721.835	20.968	-0.266	-0.218
-720.821	113.282	-0.110	0.134
-719.806	51.496	0.159	-0.152
-718.791	-126.243	0.158	-0.024
-717.777	98.917	0.084	-0.098
-716.762	330.921	0.035	0.068
-715.748	669.653	0.126	0.329
-714.733	353.439	-0.127	0.254
-713.718	-30.617	0.031	0.018
-712.704	-37.122	0.133	0.072
-711.689	-40.497	-0.123	0.065
-710.675	545.818	0.068	0.163
-709.660	15.012	-0.208	-0.164
-708.645	-200.000	0.007	-0.093
-707.631	470.859	-0.094	0.212
-706.616	-193.028	0.333	0.003
-705.602	186.489	0.078	0.116
-704.587	-84.619	0.318	-0.101
-703.572	399.721	-0.036	-0.076
-702.558	-90.114	-0.020	0.006
-701.543	73.237	-0.082	0.086
-700.529	-3.613	0.031	0.022
-699.514	72.600	-0.132	-0.139
-698.499	32.479	0.177	0.154
-697.485	103.887	0.135	0.160
-696.470	83.242	0.079	0.087
-695.456	-200.000	-0.052	-0.401
-694.441	-45.392	0.169	0.084
-693.426	-176.854	-0.379	0.010
-692.412	-200.000	-0.003	-0.027
-691.397	229.277	-0.042	0.069
-690.383	211.624	-0.202	0.320
-689.368	17.784	0.081	-0.065
-688.354	-48.989	-0.253	0.122
-687.339	-198.723	0.136	0.001
-686.324	-122.479	0.416	-0.068
-685.310	83.066	-0.113	0.124
-684.295	69.158	-0.283	0.293
-683.281	77.534	-0.210	-0.225
-682.266	-79.947	0.287	0.097
-681.251	158.163	-0.221	0.308
-680.237	-23.184	-0.179	0.108
-679.222	-52.474	-0.134	0.062
-678.208	-103.172	0.271	-0.065
-677.193	51.881	-0.218	0.209
-676.178	214.223	-0.019	0.031
-675.164	-112.612	-0.490	0.098
-674.149	-56.229	-0.267	0.120
-673.135	-69.088	-0.226	-0.088
-672.120	235.982	0.115	0.191
-671.105	-200.000	-0.006	-0.154
-670.091	110.319	0.236	-0.285
-669.076	-125.510	-0.247	0.038
-668.062	-128.207	0.031	0.004
-667.047	182.037	-0.085	-0.126
-666.032	-200.000	0.010	0.156
-665.018	-111.963	-0.155	0.031
-664.003	-40.485	-0.148	0.077
-662.989	-200.000	0.050	-0.427
-661.974	2.774	0.138	-0.101
-660.959	-127.830	-0.156	0.023
-659.945	-72.720	0.311	-0.115
-658.930	68.059	0.177	-0.182
-657.916	43.676	-0.199	-0.184
-656.901	-200.000	-0.058	-0.305
-655.886	-200.000	-0.033	0.231
-654.872	-200.000	0.073	0.483
-653.857	-89.884	0.072	-0.021
-652.843	759.225	0.140	-0.381
-651.828	-163.856	-0.496	0.023
-650.814	641.900	0.162	0.416
-649.799	-200.000	0.011	0.096
-648.784	-62.073	0.231	0.097
-647.770	-41.028	-0.075	-0.039
-646.755	800.000	0.059	0.189
-645.741	-160.328	0.151	0.008
-644.726	-68.123	-0.188	0.074
-643.711	32.474	-0.098	-0.085
-642.697	-165.579	-0.044	-0.002
-641.682	203.609	-0.172	-0.268
-640.668	665.061	-0.066	0.170
-639.653	55.594	0.031	-0.030
-638.638	-23.476	-0.307	-0.185
-637.624	-152.883	0.123	-0.009
-636.609	468.291	-0.108	-0.243
-635.595	4.600	-0.283	-0.209
-634.580	-200.000	-0.010	0.128
-633.565	-169.062	0.147	0.006
-632.551	27.563	0.104	0.088
-631.536	800.000	-0.003	-0.009
-630.522	-136.005	0.266	0.031
-629.507	46.516	-0.172	0.160
-628.492	-74.472	0.208	0.075
-627.478	-20.253	-0.198	-0.123
-626.463	-99.526	-0.201	0.051
-625.449	157.017	-0.147	0.204
-624.434	-52.891	0.175	0.081
-623.419	538.032	-0.065	0.154
-622.405	-110.137	0.115	-0.024
-621.390	239.417	0.154	-0.257
-620.376	155.990	-0.215	0.298
-619.361	-110.119	0.039	0.008
-618.346	-148.221	-0.161	0.013
-617.332	-200.000	0.026	0.177
-616.317	-80.634	-0.066	-0.022
-615.303	-200.000	-0.068	0.346
-614.288	25.654	-0.112	-0.093
-613.273	793.470	-0.046	0.128
-612.259	800.000	-0.069	0.198
-611.244	800.000	-0.125	0.403
-610.230	-51.288	-0.146	0.069
-609.215	-200.000	-0.042	0.364
-608.201	-200.000	-0.008	0.244
-607.186	-5.514	-0.123	0.085
-606.171	800.000	0.066	-0.251
-605.157	-84.065	-0.350	-0.111
-604.142	-37.344	-0.382	0.205
-603.128	25.327	0.022	0.018
-602.113	-72.080	0.169	-0.063
-601.098	666.330	-0.045	-0.116
-600.084	-26.682	0.195	-0.115
-599.069	417.017	0.096	-0.205
-598.055	297.976	-0.048	-0.088
-597.040	-200.000	-0.030	0.164
-596.025	-77.702	0.121	0.042
-595.011	800.000	0.057	0.188
-593.996	-200.000	0.013	-0.080
-592.982	-126.920	-0.507	0.075
-591.967	81.266	0.213	0.230
-590.952	-4.393	0.279	0.194
-589.938	800.000	0.032	-0.124
-588.923	-91.869	0.179	-0.051
-587.909	501.656	-0.032	-0.075
-586.894	-8.163	0.080	-0.054
-585.879	800.000	-0.101	0.309
-584.865	-174.621	-0.269	-0.008
-583.850	-200.000	0.020	-0.281
-582.836	-72.172	0.257	0.096
-581.821	139.595	-0.094	0.124
-580.806	27.991	0.091	0.077
-579.792	115.162	-0.061	-0.075
-578.777	429.401	0.046	0.100
-577.763	-120.125	0.086	0.015
-576.748	-189.825	-0.237	0.003
-575.733	800.000	0.105	-0.330
-574.719	8.815	0.173	0.131
-573.704	23.836	-0.231	-0.191
-572.690	-135.663	0.347	0.041
-571.675	180.593	0.188	0.276
-570.661	-200.000	0.308	-0.001
-569.646	-200.000	-0.013	-0.392
-568.631	-200.000	-0.061	0.285
-567.617	353.456	0.078	-0.154
-566.602	-112.337	-0.173	-0.035
-565.588	127.696	0.037	0.047
-564.573	96.146	0.161	-0.185
-563.558	-65.076	-0.249	-0.101
-562.544	800.000	0.043	0.121
-561.529	-43.165	0.254	-0.129
-560.515	-200.000	0.029	-0.307
-559.500	65.430	0.309	-0.313
-558.485	-136.669	-0.093	-0.011
-557.471	-67.926	0.134	0.052
-556.456	-92.023	-0.409	-0.116
-555.442	135.958	0.157	-0.205
-554.427	10.591	0.138	-0.105
-553.412	-67.929	-0.040	0.016
-552.398	-81.458	-0.310	-0.102
-551.383	-200.000	0.024	-0.393
-550.369	3.828	0.371	0.271
-549.354	270.497	-0.138	0.243
-548.339	-74.860	-0.140	-0.050
-547.325	461.681	-0.114	0.256
-546.310	-200.000	-0.080	0.430
-545.296	47.290	0.075	-0.070
-544.281	-169.283	-0.358	0.013
-543.266	-109.766	-0.319	-0.067
-542.252	41.540	0.197	0.179
-541.237	40.981	0.269	-0.243
-540.223	-111.953	0.447	0.090
-539.208	186.007	0.101	-0.151
-538.193	320.885	-0.200	0.381
-537.179	800.000	0.078	-0.227
-536.164	800.000	-0.078	-0.223
-535.150	800.000	-0.027	0.116
-534.135	800.000	-0.060	0.235
-533.121	226.313	0.163	0.264
-532.106	-200.000	-0.036	-0.236
-531.091	-122.245	-0.236	0.039
-530.077	-8.926	-0.305	-0.204
-529.062	-200.000	-0.023	-0.125
-528.048	800.000	-0.026	-0.099
-527.033	-65.623	0.367	-0.147
-526.018	64.829	0.213	-0.215
-525.004	-158.140	-0.377	0.022
-523.989	-25.804	0.147	0.087
-522.975	800.000	0.126	0.404
-521.960	180.537	-0.034	-0.050
-520.945	-39.160	0.271	0.143
-519.931	-9.279	0.179	0.120
-518.916	-184.536	-0.084	0.001
-517.902	7.480	-0.185	-0.139
-516.887	800.000	-0.053	-0.149
-515.872	-148.791	0.194	0.016
-514.858	-110.218	-0.196	0.041
-513.843	65.116	-0.226	0.229
-512.829	87.635	-0.327	0.363
-511.814	112.322	0.083	0.101
-510.799	-108.866	0.226	0.048
-509.785	-28.616	0.042	-0.024
-508.770	244.766	0.029	-0.048
-507.756	-160.252	0.346	0.019
-506.741	550.552	-0.080	-0.192
-505.726	-76.188	0.399	-0.141
-504.712	-89.385	0.119	-0.035
-503.697	53.584	-0.131	-0.126
-502.683	272.323	-0.085	-0.149
-501.668	77.308	0.136	0.144
-500.653	-163.805	0.123	-0.006
-499.639	81.771	-0.182	-0.197
-498.624	92.795	0.153	0.172
-497.610	-34.557	-0.081	-0.044
-496.595	159.336	0.110	0.152
-495.581	-200.000	0.020	-0.297
-494.566	-69.780	-0.072	0.027
-493.551	125.827	-0.040	-0.051
-492.537	-8.597	-0.076	-0.051
-491.522	280.064	0.096	0.171
-490.508	-150.728	-0.091	-0.007
-489.493	-84.156	-0.150	-0.047
-488.478	263.684	-0.218	-0.379
-487.464	41.133	0.056	-0.050
-486.449	-12.436	-0.270	0.176
-485.435	-49.166	0.239	0.114
-484.420	-116.340	0.354	0.065
-483.405	276.729	0.137	-0.244
-482.391	-200.000	-0.019	-0.096
-481.376	124.040	0.084	0.105
-480.362	-93.037	-0.382	-0.106
-479.347	7.855	0.111	0.083
-478.332	372.272	0.223	-0.453
-477.318	83.928	0.250	-0.272
-476.303	-185.655	-0.041	0.001
-475.289	-50.220	0.480	-0.227
-474.274	-148.764	0.225	-0.018
-473.259	800.000	-0.151	0.472
-472.245	11.603	0.158	-0.121
-471.230	158.363	0.144	0.200
-470.216	72.668	0.139	0.145
-469.201	-43.981	0.355	-0.178
-468.186	630.675	0.058	0.147
-467.172	91.968	0.242	-0.272
-466.157	139.188	-0.120	-0.157
-465.143	-10.618	0.264	-0.175
-464.128	-49.970	0.138	0.065
-463.113	-64.875	-0.205	-0.083
-462.099	136.601	0.305	-0.397
-461.084	-200.000	0.002	0.008
-460.070	-60.480	0.139	-0.059
-459.055	-200.000	-0.010	-0.213
-458.040	-84.348	0.370	0.117
-457.026	-200.000	-0.038	-0.167
-456.011	-124.018	-0.094	-0.015
-454.997	28.801	-0.309	0.261
-453.982	-59.952	0.268	0.114
-452.968	-200.000	-0.044	-0.238
-451.953	184.155	-0.168	-0.248
-450.938	201.866	0.127	0.195
-449.924	29.104	-0.095	0.080
-448.909	-67.490	0.163	0.064
-447.895	109.343	-0.046	0.055
-446.880	2.821	-0.230	0.166
-445.865	-74.541	0.222	0.080
-444.851	-170.297	-0.079	-0.003
-443.836	151.094	-0.084	-0.114
-442.822	37.031	0.034	-0.030
-441.807	-200.000	0.000	0.240
-440.792	-56.524	-0.188	0.083
-439.778	2.011	-0.132	-0.095
-438.763	-55.850	0.202	0.090
-437.749	109.982	-0.179	-0.214
-436.734	324.751	0.036	-0.068
-435.719	79.892	-0.146	-0.157
-434.705	107.239	-0.062	-0.073
-433.690	-39.557	-0.148	-0.077
-432.676	-72.790	-0.050	0.018
-431.661	-131.096	-0.290	0.039
-430.646	291.898	0.077	-0.140
-429.632	800.000	-0.070	-0.214
-428.617	-124.683	-0.296	-0.046
-427.603	-127.837	0.337	-0.048
-426.588	-172.508	0.156	0.005
-425.573	-200.000	0.058	-0.390
-424.559	-200.000	0.005	-0.050
-423.544	-176.366	-0.012	0.000
-422.530	-200.000	-0.037	-0.279
-421.515	-127.405	0.137	0.020
-420.500	265.977	-0.056	0.098
-419.486	-200.000	0.072	0.370
-418.471	179.170	-0.126	-0.183
-417.457	-158.677	0.326	-0.019
-416.442	-63.485	-0.030	-0.012
-415.428	-98.651	-0.518	-0.132
-414.413	-200.000	0.001	-0.343
-413.398	-200.000	0.010	-0.185
-412.384	618.795	-0.030	-0.076
-411.369	20.006	-0.038	0.030
-410.355	527.383	-0.125	-0.293
-409.340	699.444	0.107	-0.281
-408.325	204.137	-0.069	0.107
-407.311	313.030	0.036	0.068
-406.296	6.022	-0.227	0.168
-405.282	175.849	0.128	0.186
-404.267	-20.236	0.107	-0.066
-403.252	-78.261	0.056	-0.019
-402.238	-125.641	0.309	0.047
-401.223	-54.747	0.098	0.044
-400.209	-101.300	-0.171	0.042
-399.194	254.762	0.024	0.040
-398.179	159.686	0.166	-0.230
-397.165	12.020	0.209	0.160
-396.150	57.130	-0.102	-0.099
-395.136	-200.000	0.029	0.400
-394.121	132.011	-0.015	-0.019
-393.106	486.092	0.130	-0.296
-392.092	339.200	0.132	0.256
-391.077	-31.143	0.106	0.059
-390.063	-87.365	-0.177	0.053
-389.048	-114.486	-0.245	-0.047
-388.033	-200.000	-0.027	0.128
-387.019	66.785	0.025	-0.025
-386.004	-65.235	0.296	0.119
-384.990	-200.000	-0.008	-0.132
-383.975	-200.000	0.022	0.181
-382.960	224.611	0.107	-0.172
-381.946	488.493	-0.042	-0.096
-380.931	-194.902	0.118	0.001
-379.917	-91.282	0.279	0.079
-378.902	144.165	0.045	0.060
-377.888	-61.334	0.077	-0.032
-376.873	-79.767	-0.007	-0.003
-375.858	-145.928	0.413	-0.036
-374.844	46.392	0.187	-0.173
-373.829	800.000	0.035	-0.105
-372.815	-83.084	-0.246	0.079
-371.800	234.583	-0.174	-0.286
-370.785	258.742	-0.054	-0.093
-369.771	-38.420	0.190	-0.100
-368.756	-51.653	0.096	-0.045
-367.742	800.000	0.063	-0.223
-366.727	-200.000	-0.010	-0.237
-365.712	-200.000	-0.087	0.407
-364.698	-200.000	-0.012	0.284
-363.683	-200.000	-0.030	0.176
-362.669	800.000	0.029	-0.092
-361.654	154.338	-0.134	0.182
-360.639	-153.891	0.235	-0.016
-359.625	-101.891	-0.646	-0.155
-358.610	-131.910	-0.145	0.019
-357.596	51.709	0.056	-0.053
-356.581	-192.570	0.276	0.003
-355.566	525.782	0.081	-0.190
-354.552	77.810	0.174	0.184
-353.537	-92.918	-0.306	-0.085
-352.523	71.488	-0.067	-0.069
-351.508	-54.169	0.024	0.011
-350.493	-200.000	0.010	-0.111
-349.479	676.460	0.136	0.350
-348.464	9.703	0.059	-0.044
-347.450	253.603	0.080	0.136
-346.435	44.040	0.314	0.286
-345.420	656.464	-0.123	0.313
-344.406	-46.209	-0.213	-0.104
-343.391	505.122	-0.093	-0.215
-342.377	-200.000	-0.024	-0.185
-341.362	800.000	-0.039	-0.112
-340.348	-187.218	-0.177	0.002
-339.333	132.300	0.117	0.150
-338.318	-200.000	0.085	0.413
-337.304	-137.400	-0.375	-0.042
-336.289	179.584	0.213	0.311
-335.275	16.502	-0.299	-0.235
-334.260	-8.911	0.251	0.167
-333.245	385.618	0.116	0.239
-332.231	-80.966	-0.137	-0.045
-331.216	389.150	0.029	-0.059
-330.202	-93.855	0.324	-0.089
-329.187	-40.652	-0.138	0.071
-328.172	-101.157	-0.158	0.038
-327.158	256.873	0.149	-0.254
-326.143	595.293	0.046	-0.113
-325.129	-85.806	-0.161	-0.050
-324.114	800.000	-0.091	-0.297
-323.099	317.269	0.206	-0.388
-322.085	188.546	-0.056	-0.083
-321.070	17.718	0.177	0.140
-320.056	10.791	-0.200	0.151
-319.041	160.873	-0.070	-0.097
-318.026	20.927	-0.128	0.103
-317.012	717.718	-0.036	-0.094
-315.997	-41.687	-0.243	0.124
-314.983	52.658	0.082	-0.078
-313.968	-200.000	0.026	-0.159
-312.953	91.609	-0.217	0.242
-311.939	-200.000	0.046	0.312
-310.924	30.146	0.078	0.066
-309.910	-200.000	0.002	0.303
-308.895	800.000	0.106	0.405
-307.880	-97.462	0.185	0.048
-306.866	-200.000	-0.032	-0.206
-305.851	-200.000	0.029	-0.195
-304.837	630.813	-0.070	-0.175
-303.822	-200.000	0.023	-0.112
-302.807	-97.222	0.251	0.065
-301.793	27.025	-0.197	0.164
-300.778	800.000	0.064	0.237
-299.764	-128.901	-0.312	0.043
-298.749	689.907	-0.170	0.442
-297.735	-90.267	-0.189	-0.055
-296.720	23.323	0.118	0.096
-295.705	113.625	0.219	0.264
-294.691	-71.811	-0.259	-0.096
-293.676	98.552	-0.227	-0.259
-292.662	-73.559	-0.339	0.123
-291.647	800.000	0.098	0.277
-290.632	800.000	0.071	0.240
-289.618	-14.433	-0.144	-0.092
-288.603	-108.238	-0.099	-0.021
-287.589	-65.149	0.148	-0.059
-286.574	551.657	0.143	0.339
-285.559	-71.358	-0.274	0.102
-284.545	-77.115	-0.483	-0.167
-283.530	-76.104	-0.434	0.152
-282.516	196.829	0.177	0.267
-281.501	-60.959	-0.175	0.073
-280.486	-200.000	0.035	-0.376
-279.472	-7.096	-0.099	-0.066
-278.457	-105.545	-0.652	0.147
-277.443	-17.726	-0.159	0.099
-276.428	-96.239	0.289	0.076
-275.413	-59.721	-0.241	-0.102
-274.399	-30.460	0.199	0.112
-273.384	15.892	-0.202	-0.157
-272.370	6.332	0.365	-0.269
-271.355	359.140	-0.099	-0.195
-270.340	-200.000	0.025	-0.249
-269.326	-63.666	0.363	0.147
-268.311	48.939	0.082	-0.076
-267.297	-200.000	0.020	-0.179
-266.282	-147.024	0.204	-0.017
-265.267	-65.254	0.250	0.100
-264.253	-200.000	-0.051	0.407
-263.238	800.000	0.051	-0.179
-262.224	-200.000	0.018	-0.184
-261.209	-74.762	-0.258	0.092
-260.195	151.871	-0.034	-0.046
-259.180	217.055	0.102	0.162
-258.165	-175.497	-0.120	-0.003
-257.151	24.204	-0.178	-0.145
-256.136	26.154	0.218	0.181
-255.122	429.709	-0.079	0.169
-254.107	-150.739	-0.189	-0.014
-253.092	75.838	0.059	0.061
-252.078	-153.914	-0.030	-0.002
-251.063	147.084	0.078	0.104
-250.049	-118.974	-0.181	0.031
-249.034	-27.033	-0.374	0.216
-248.019	-200.000	0.003	0.299
-247.005	37.435	-0.214	0.188
-245.990	-52.744	0.184	-0.084
-244.976	268.356	-0.029	0.050
-243.961	7.017	-0.251	-0.185
-242.946	-162.615	-0.097	-0.005
-241.932	800.000	-0.091	-0.393
-240.917	-200.000	-0.029	-0.238
-239.903	-172.113	0.384	-0.012
-238.888	-139.720	-0.229	0.024
-237.873	674.199	-0.065	0.168
-236.859	221.573	-0.031	0.049
-235.844	-200.000	0.024	-0.271
-234.830	118.872	0.039	0.048
-233.815	66.602	0.164	0.165
-232.800	-13.954	0.044	-0.028
-231.786	120.137	0.164	0.202
-230.771	440.459	-0.064	0.139
-229.757	-200.000	-0.025	-0.207
-228.742	47.602	-0.055	-0.050
-227.727	16.035	-0.057	-0.044
-226.713	-176.510	0.092	-0.002
-225.698	46.997	0.110	-0.101
-224.684	206.882	0.059	-0.090
-223.669	42.787	-0.167	0.150
-222.655	-141.138	-0.338	0.034
-221.640	-110.417	0.464	0.095
-220.625	168.482	0.171	0.241
-219.611	64.570	-0.235	-0.234
-218.596	-200.000	-0.014	0.073
-217.582	-125.755	-0.376	0.056
-216.567	20.029	0.014	-0.012
-215.552	-20.777	0.391	-0.237
-214.538	210.918	0.097	-0.151
-213.523	-200.000	-0.041	0.222
-212.509	197.337	0.096	0.145
-211.494	98.329	-0.172	0.196
-210.479	-200.000	0.034	-0.198
-209.465	-162.607	0.115	-0.006
-208.450	-3.843	0.143	-0.098
-207.436	-200.000	-0.004	-0.333
-206.421	-200.000	-0.029	-0.202
-205.406	-200.000	0.074	-0.481
-204.392	-47.072	0.204	-0.099
-203.377	231.514	-0.254	0.411
-202.363	21.047	0.161	-0.129
-201.348	-75.906	0.226	0.079
-200.333	-185.372	0.089	0.001
-199.319	53.138	0.266	-0.251
-198.304	-85.535	-0.338	0.104
-197.290	-14.402	-0.446	-0.284
-196.275	-1.663	0.228	0.159
-195.260	-200.000	-0.003	0.318
-194.246	800.000	0.022	0.077
-193.231	-46.366	-0.355	0.173
-192.217	203.408	0.042	-0.064
-191.202	-169.715	-0.344	-0.012
-190.187	-74.086	-0.279	0.100
-189.173	800.000	0.035	-0.111
-188.158	-118.577	-0.109	-0.019
-187.144	331.576	0.136	0.259
-186.129	-70.680	-0.157	-0.059
-185.114	-25.922	0.280	-0.163
-184.100	25.082	-0.166	-0.136
-183.085	-18.830	0.227	-0.140
-182.071	-137.072	0.135	-0.015
-181.056	-74.959	0.489	0.173
-180.042	92.097	-0.252	-0.281
-179.027	-200.000	-0.004	-0.181
-178.012	79.269	0.116	0.123
-176.998	800.000	0.021	-0.089
-175.983	-200.000	0.006	0.188
-174.969	42.933	0.060	-0.054
-173.954	-113.449	-0.044	0.008
-172.939	-200.000	0.011	0.107
-171.925	17.676	0.062	0.049
-170.910	68.697	0.161	0.163
-169.896	33.786	-0.254	0.218
-168.881	-49.075	-0.121	-0.057
-167.866	483.743	0.052	-0.118
-166.852	285.584	-0.043	-0.076
-165.837	-124.703	0.224	0.034
-164.823	-200.000	-0.333	-0.001
-163.808	480.539	-0.080	0.179
-162.793	-192.876	-0.527	-0.005
-161.779	-141.353	0.261	0.026
-160.764	-55.317	0.251	0.111
-159.750	-200.000	0.017	-0.080
-158.735	800.000	0.049	-0.148
-157.720	203.048	0.248	0.378
-156.706	-200.000	-0.030	-0.245
-155.691	-200.000	0.035	0.519
-154.677	-200.000	-0.025	-0.287
-153.662	-200.000	0.063	-0.328
-152.647	-129.170	-0.180	0.025
-151.633	-53.237	-0.089	0.040
-150.618	316.125	0.107	0.198
-149.604	-134.267	0.094	-0.011
-148.589	-92.601	0.228	-0.063
-147.574	800.000	-0.036	0.121
-146.560	-200.000	0.292	-0.001
-145.545	800.000	0.110	-0.378
-144.531	115.968	0.340	-0.410
-143.516	271.954	-0.143	-0.248
-142.502	-62.524	0.240	-0.098
-141.487	47.976	0.167	-0.154
-140.472	144.290	0.125	0.165
-139.458	-17.281	0.254	-0.157
-138.443	800.000	-0.060	-0.168
-137.429	163.840	0.097	0.134
-136.414	-200.000	0.060	0.282
-135.399	-109.365	0.121	-0.025
-134.385	283.340	-0.215	0.381
-133.370	538.584	0.040	-0.094
-132.356	800.000	0.103	-0.363
-131.341	-146.669	-0.242	0.021
-130.326	800.000	0.112	0.356
-129.312	800.000	0.012	-0.033
-128.297	-200.000	-0.030	0.169
-127.283	178.503	-0.064	0.092
-126.268	113.421	0.168	-0.201
-125.253	-14.961	0.344	0.218
-124.239	-124.903	0.090	0.014
-123.224	-9.472	-0.171	-0.113
-122.210	275.170	-0.056	0.098
-121.195	-1.046	0.338	0.236
-120.180	-28.686	-0.082	-0.046
-119.166	-49.828	0.282	0.132
-118.151	-130.148	0.309	-0.041
-117.137	800.000	0.072	0.252
-116.122	-34.171	0.127	0.069
-115.107	75.391	0.055	0.057
-114.093	295.838	0.174	0.314
-113.078	380.415	0.243	0.491
-112.064	170.694	0.161	-0.227
-111.049	800.000	0.040	-0.139
-110.034	32.573	-0.189	0.161
-109.020	221.394	0.037	0.058
-108.005	-200.000	0.004	0.147
-106.991	800.000	-0.067	-0.195
-105.976	21.683	0.150	-0.120
-104.962	-65.509	-0.133	0.053
-103.947	79.596	0.131	0.138
-102.932	207.068	0.145	-0.222
-101.918	705.238	-0.038	0.099
-100.903	49.035	-0.393	-0.364
-99.889	800.000	0.108	0.375
-98.874	-141.099	-0.447	0.045
-97.859	-200.000	0.038	-0.247
-96.845	-76.121	-0.137	0.047
-95.830	-200.000	0.011	-0.308
-94.816	-67.806	-0.093	0.036
-93.801	45.645	-0.197	0.179
-92.786	-61.157	-0.194	0.080
-91.772	-155.540	-0.101	0.006
-90.757	492.419	0.052	-0.118
-89.743	-118.606	0.184	-0.032
-88.728	-35.894	0.054	0.029
-87.713	-29.297	0.474	-0.267
-86.699	335.534	-0.006	-0.012
-85.684	-200.000	0.043	-0.208
-84.670	280.424	-0.048	0.084
-83.655	134.511	0.025	-0.032
-82.640	-200.000	-0.011	0.108
-81.626	-160.086	0.117	0.006
-80.611	31.017	0.075	-0.064
-79.597	-37.094	-0.276	0.145
-78.582	347.744	-0.118	0.229
-77.567	-200.000	-0.042	0.235
-76.553	-45.988	0.339	-0.164
-75.538	-19.775	0.307	0.187
-74.524	-30.080	0.235	-0.131
-73.509	-200.000	0.002	0.095
-72.494	800.000	-0.086	0.283
-71.480	-19.368	-0.142	0.086
-70.465	120.602	-0.130	-0.158
-69.451	147.150	0.110	0.146
-68.436	-200.000	0.015	0.338
-67.422	-94.080	0.011	-0.003
-66.407	249.852	0.114	-0.189
-65.392	-120.268	0.336	0.056
-64.378	152.928	-0.085	0.114
-63.363	3.826	0.218	0.157
-62.349	-123.784	-0.069	0.011
-61.334	23.744	-1.263	-1.022
-60.319	39.447	0.462	0.406
-59.305	-200.000	-0.033	-0.962
-58.290	800.000	0.376	1.141
-57.276	651.010	0.552	1.389
-56.261	-200.000	92.935	561.738
-55.246	564.451	1364.554	3248.470
-54.232	154.772	2581.271	3484.855
-53.217	112.101	2287.449	2715.838
-52.203	45.832	1906.613	1732.143
-51.188	39.348	1694.183	1490.209
-50.173	36.458	1649.715	1429.687
-49.159	53.973	1697.233	1602.599
-48.144	57.654	1715.401	1647.259
-47.130	39.060	1671.780	1468.118
-46.115	36.053	1656.766	1432.557
-45.100	35.875	1651.692	1426.798
-44.086	35.853	1648.934	1424.191
-43.071	35.749	1646.610	1421.359
-42.057	35.745	1644.261	1419.250
-41.042	35.837	1642.268	1418.151
-40.027	35.834	1640.383	1416.447
-39.013	35.764	1638.655	1414.380
-37.998	35.811	1636.948	1413.195
-36.984	35.843	1635.671	1412.273
-35.969	35.965	1634.286	1411.911
-34.954	36.019	1632.673	1410.862
-33.940	35.940	1631.101	1408.868
-32.925	35.920	1629.009	1406.856
-31.911	35.913	1627.425	1405.384
-30.896	35.962	1625.829	1404.304
-29.881	35.961	1623.669	1402.377
-28.867	36.006	1622.029	1401.237
-27.852	35.922	1621.307	1399.947
-26.838	36.052	1619.237	1399.045
-25.823	35.938	1618.475	1397.501
-24.809	36.026	1616.723	1396.572
-23.794	35.984	1615.760	1395.383
-22.779	36.005	1613.752	1393.746
-21.765	36.122	1611.317	1392.431
-20.750	35.938	1610.317	1390.183
-19.736	35.981	1609.269	1389.533
-18.721	36.004	1607.203	1387.861
-17.706	36.104	1605.380	1386.952
-16.692	35.965	1604.527	1385.159
-15.677	36.035	1602.869	1384.179
-14.663	35.963	1601.771	1382.656
-13.648	36.006	1600.679	1381.965
-12.633	35.890	1598.783	1379.447
-11.619	35.932	1597.282	1378.398
-10.604	36.022	1595.698	1377.617
-9.590	35.896	1594.953	1376.018
-8.575	35.881	1593.614	1374.704
-7.560	35.908	1592.219	1373.634
-6.546	35.962	1591.108	1373.009
-5.531	36.013	1589.818	1372.202
-4.517	35.946	1589.004	1370.972
-3.502	35.913	1587.739	1369.587
-2.487	36.035	1586.011	1368.911
-1.473	35.734	1574.401	1356.712
-0.458	33.005	1554.591	1320.545
0.556	29.251	1554.432	1287.038
1.571	26.603	1578.819	1288.304
2.586	26.260	1592.978	1297.276
3.600	23.410	1540.480	1234.590
4.615	13.220	1427.744	1078.007
5.629	3.637	1358.700	966.051
6.644	1.779	1349.763	948.056
7.659	1.673	1348.368	946.337
8.673	1.597	1346.992	944.813
9.688	1.562	1345.125	943.203
10.702	1.261	1342.478	939.404
11.717	4.958	1349.580	967.262
12.731	15.392	1369.410	1046.798
13.746	23.705	1383.074	1109.305
14.761	25.613	1385.648	1123.199
15.775	25.937	1385.397	1124.914
16.790	25.999	1384.530	1124.498
17.804	26.006	1384.154	1124.136
18.819	26.199	1383.908	1125.040
19.834	26.341	1383.101	1125.171
20.848	26.410	1382.524	1125.031
21.863	26.385	1381.771	1124.162
22.877	26.419	1380.807	1123.487
23.892	26.225	1380.322	1121.790
24.907	26.383	1379.168	1121.736
25.921	26.263	1378.255	1120.150
26.936	26.395	1377.237	1120.036
27.950	26.415	1376.363	1119.352
28.965	26.264	1375.358	1117.502
29.980	26.352	1373.823	1116.703
30.994	26.287	1372.423	1115.059
32.009	26.322	1371.301	1114.269
33.023	26.368	1370.163	1113.527
34.038	26.339	1369.316	1112.564
35.053	26.335	1368.389	1111.687
36.067	26.316	1367.168	1110.482
37.082	26.243	1366.083	1109.053
38.096	26.269	1365.579	1108.704
39.111	26.349	1364.522	1108.240
40.126	26.279	1364.016	1107.302
41.140	26.315	1363.446	1106.958
42.155	26.362	1363.256	1106.993
43.169	26.324	1363.128	1106.559
44.184	26.348	1362.541	1106.131
45.199	26.284	1362.248	1105.407
46.213	26.334	1361.628	1105.112
47.228	26.333	1360.531	1104.118
48.242	26.382	1359.395	1103.395
49.257	26.494	1357.773	1102.665
50.271	26.360	1356.354	1100.601
51.286	26.427	1355.241	1100.008
52.301	26.307	1354.351	1098.460
53.315	26.247	1353.636	1097.413
54.330	26.358	1352.710	1097.244
55.344	26.347	1351.489	1096.086
56.359	26.261	1350.138	1094.373
57.374	26.296	1349.781	1094.200
58.388	26.250	1349.396	1093.512
59.403	26.308	1348.917	1093.377
60.417	26.280	1348.260	1092.577
61.432	26.351	1346.887	1091.799
62.447	26.232	1346.418	1090.603
63.461	26.182	1345.584	1089.531
64.476	26.263	1344.436	1088.993
65.490	26.310	1342.998	1088.012
66.505	26.478	1341.003	1087.310
67.520	26.407	1340.097	1086.052
68.534	26.373	1339.163	1084.999
69.549	26.299	1338.561	1083.970
70.563	26.409	1337.514	1083.683
71.578	26.343	1336.465	1082.342
72.593	26.292	1335.951	1081.526
73.607	26.262	1335.390	1080.798
74.622	26.385	1333.818	1080.163
75.636	26.350	1333.541	1079.636
76.651	26.321	1333.198	1079.088
77.666	26.373	1332.657	1078.864
78.680	26.284	1332.189	1077.858
79.695	26.229	1331.205	1076.640
80.709	26.363	1330.715	1076.948
81.724	26.347	1329.246	1075.567
82.739	26.330	1328.393	1074.685
83.753	26.365	1327.455	1074.037
84.768	26.346	1326.332	1072.922
85.782	26.448	1325.077	1072.417
86.797	26.371	1324.111	1071.082
87.812	26.370	1323.121	1070.180
88.826	26.359	1322.065	1069.164
89.841	26.395	1321.042	1068.458
90.855	26.419	1319.675	1067.399
91.870	26.401	1318.827	1066.510
92.884	26.378	1318.422	1065.952
93.899	26.406	1317.587	1065.352
94.914	26.388	1316.912	1064.605
95.928	26.443	1316.085	1064.167
96.943	26.356	1315.633	1063.191
97.957	26.404	1314.592	1062.541
98.972	26.412	1313.481	1061.594
99.987	26.234	1312.943	1060.022
101.001	26.387	1311.942	1060.018
102.016	26.405	1311.038	1059.299
103.030	26.404	1309.931	1058.303
104.045	26.335	1309.561	1057.508
105.060	26.430	1308.015	1056.719
106.074	26.560	1307.025	1056.587
107.089	26.482	1306.199	1055.370
108.103	26.443	1305.034	1054.106
109.118	26.552	1304.131	1053.922
110.133	26.443	1303.121	1052.376
111.147	26.456	1302.492	1051.854
112.162	26.496	1300.873	1050.683
113.176	26.560	1299.972	1050.235
114.191	26.573	1299.017	1049.443
115.206	26.569	1297.935	1048.453
116.220	26.575	1296.544	1047.273
117.235	26.555	1295.562	1046.274
118.249	26.495	1295.236	1045.571
119.264	26.517	1294.094	1044.680
120.279	26.413	1293.610	1043.598
121.293	26.547	1292.594	1043.460
122.308	26.501	1292.552	1043.067
123.322	26.457	1291.716	1042.046
124.337	26.504	1290.944	1041.605
125.352	26.590	1289.727	1041.026
126.366	26.519	1288.957	1039.900
127.381	26.567	1288.101	1039.396
128.395	26.519	1287.037	1038.166
129.410	26.482	1286.309	1037.275
130.424	26.536	1285.494	1036.840
131.439	26.559	1284.370	1035.969
132.454	26.604	1283.703	1035.600
133.468	26.520	1283.531	1034.889
134.483	26.440	1283.191	1034.068
135.497	26.552	1281.518	1033.264
136.512	26.524	1280.433	1032.140
137.527	26.588	1279.789	1031.894
138.541	26.609	1278.043	1030.511
139.556	26.605	1276.940	1029.511
140.570	26.510	1276.164	1028.256
141.585	26.543	1275.281	1027.637
142.600	26.556	1273.902	1026.511
143.614	26.548	1273.385	1025.960
144.629	26.502	1272.477	1024.875
145.643	26.461	1271.480	1023.752
146.658	26.399	1270.612	1022.607
147.673	26.360	1269.454	1021.365
148.687	26.560	1267.805	1021.075
149.702	26.403	1267.223	1019.635
150.716	26.418	1266.194	1018.800
151.731	26.494	1265.286	1018.406
152.746	26.534	1264.215	1017.679
153.760	26.562	1263.156	1016.894
154.775	26.490	1262.696	1016.028
155.789	26.547	1261.495	1015.294
156.804	26.495	1260.608	1014.199
157.819	26.543	1259.961	1013.854
158.833	26.528	1259.241	1013.106
159.848	26.414	1258.440	1011.733
160.862	26.575	1257.485	1011.776
161.877	26.554	1256.387	1010.682
162.892	26.622	1255.403	1010.181
163.906	26.548	1255.481	1009.741
164.921	26.568	1254.247	1008.773
165.935	26.512	1253.901	1008.090
166.950	26.626	1253.142	1008.028
167.964	26.654	1252.559	1007.628
168.979	26.630	1251.932	1006.900
169.994	26.627	1251.949	1006.807
171.008	26.634	1250.925	1005.930
172.023	26.636	1250.019	1005.124
173.037	26.589	1249.511	1004.367
174.052	26.634	1248.626	1003.816
175.067	26.682	1247.656	1003.217
176.081	26.661	1247.077	1002.547
177.096	26.648	1246.380	1001.824
178.110	26.599	1245.310	1000.603
179.125	26.685	1243.985	999.924
180.140	26.727	1242.976	999.260
181.154	26.678	1242.156	998.238
182.169	26.552	1241.157	996.656
183.183	26.557	1240.517	996.079
184.198	26.712	1239.028	995.649
185.213	26.772	1238.159	995.191
186.227	26.728	1237.293	994.164
187.242	26.781	1236.409	993.656
188.256	26.896	1235.357	993.355
189.271	26.717	1234.571	991.657
190.286	26.727	1234.417	991.500
191.300	26.708	1233.958	990.938
192.315	26.732	1232.964	990.184
193.329	26.746	1232.819	990.053
194.344	26.738	1232.356	989.551
195.359	26.894	1231.433	989.576
196.373	26.614	1231.462	987.981
197.388	26.649	1231.238	987.905
198.402	26.690	1230.627	987.553
199.417	26.660	1230.442	987.155
200.432	26.760	1229.061	986.503
201.446	26.685	1228.836	985.829
202.461	26.602	1228.272	984.837
203.475	26.771	1227.379	984.949
204.490	26.762	1226.108	983.792
205.504	26.700	1225.124	982.579
206.519	26.860	1224.233	982.650
207.534	26.780	1223.668	981.674
208.548	26.778	1222.522	980.656
209.563	26.781	1221.878	980.071
210.577	26.763	1220.965	979.153
211.592	26.842	1220.576	979.183
212.607	26.941	1219.268	978.577
213.621	26.803	1218.870	977.428
214.636	26.811	1217.926	976.626
215.650	26.796	1217.314	975.972
216.665	26.787	1216.090	974.852
217.680	26.781	1215.441	974.216
218.694	26.823	1214.678	973.745
219.709	26.886	1214.128	973.555
220.723	26.901	1213.476	973.028
221.738	26.849	1212.322	971.734
222.753	26.768	1211.828	970.821
223.767	26.886	1211.313	970.952
224.782	27.005	1210.537	970.880
225.796	26.842	1210.339	969.765
226.811	26.935	1209.624	969.602
227.826	26.821	1209.208	968.578
228.840	26.908	1208.724	968.569
229.855	26.938	1207.680	967.802
230.869	26.861	1207.261	966.971
231.884	26.944	1206.253	966.524
232.899	26.921	1205.811	965.957
233.913	27.044	1205.014	965.887
234.928	27.029	1204.492	965.307
235.942	26.998	1204.117	964.754
236.957	26.975	1203.518	964.070
237.972	26.942	1202.822	963.249
238.986	27.060	1201.904	963.052
240.001	27.035	1201.372	962.411
241.015	27.104	1200.714	962.164
242.030	27.017	1200.038	961.077
243.045	27.128	1199.043	960.783
244.059	27.036	1198.467	959.747
245.074	27.040	1197.519	958.928
246.088	27.121	1196.802	958.693
247.103	27.243	1195.874	958.512
248.117	27.103	1195.225	957.166
249.132	27.069	1194.511	956.332
250.147	27.189	1193.893	956.387
251.161	27.227	1192.630	955.487
252.176	27.182	1192.076	954.723
253.190	27.146	1191.951	954.347
254.205	27.234	1190.856	953.851
255.220	27.136	1190.845	953.240
256.234	27.121	1190.185	952.551
257.249	27.224	1189.389	952.369
258.263	27.144	1189.055	951.600
259.278	27.272	1188.219	951.512
260.293	27.269	1187.784	951.066
261.307	27.318	1187.053	950.653
262.322	27.242	1186.514	949.743
263.336	27.238	1185.758	949.030
264.351	27.239	1185.323	948.605
265.366	27.247	1184.479	947.885
266.380	27.233	1184.026	947.367
267.395	27.218	1183.454	946.747
268.409	27.264	1182.839	946.410
269.424	27.155	1182.465	945.458
270.439	27.230	1182.106	945.481
271.453	27.283	1181.466	945.158
272.468	27.180	1180.110	943.458
273.482	27.212	1179.625	943.149
274.497	27.285	1179.435	943.295
275.512	27.427	1178.279	943.022
276.526	27.415	1177.907	942.581
277.541	27.304	1177.444	941.548
278.555	27.320	1176.585	940.861
279.570	27.364	1175.904	940.465
280.585	27.454	1174.889	940.030
281.599	27.288	1174.499	938.779
282.614	27.313	1173.813	938.276
283.628	27.435	1172.210	937.542
284.643	27.422	1171.603	936.907
285.657	27.452	1171.100	936.573
286.672	27.392	1170.314	935.555
287.687	27.340	1169.583	934.620
288.701	27.434	1168.979	934.540
289.716	27.442	1168.175	933.853
290.730	27.411	1167.680	933.215
291.745	27.516	1166.723	932.907
292.760	27.448	1166.229	932.082
293.774	27.509	1165.709	931.894
294.789	27.508	1165.365	931.531
295.803	27.470	1165.025	930.985
296.818	27.487	1164.394	930.486
297.833	27.596	1163.131	929.947
298.847	27.573	1162.620	929.342
299.862	27.694	1161.719	929.152
300.876	27.600	1160.963	927.988
301.891	27.517	1160.924	927.452
302.906	27.536	1159.742	926.522
303.920	27.668	1159.354	926.801
304.935	27.770	1158.786	926.783
305.949	27.735	1157.803	925.741
306.964	27.622	1157.693	924.996
307.979	27.715	1156.665	924.563
308.993	27.766	1156.043	924.245
310.008	27.759	1155.143	923.407
311.022	27.653	1154.664	922.405
312.037	27.706	1153.871	921.957
313.052	27.720	1152.783	921.080
314.066	27.701	1152.259	920.484
315.081	27.757	1151.525	920.095
316.095	27.728	1150.646	919.168
317.110	27.734	1150.382	918.904
318.125	27.780	1149.787	918.581
319.139	27.740	1149.094	917.744
320.154	27.702	1148.755	917.202
321.168	27.786	1148.274	917.159
322.183	27.767	1147.678	916.507
323.197	27.834	1146.899	916.138
324.212	27.847	1146.359	915.692
325.227	27.940	1145.756	915.597
326.241	27.881	1145.189	914.766
327.256	27.806	1144.777	913.977
328.270	27.823	1143.757	913.168
329.285	27.879	1142.707	912.532
330.300	27.890	1142.108	912.025
331.314	27.881	1141.522	911.433
332.329	27.949	1140.372	910.773
333.343	28.011	1139.526	910.324
334.358	28.028	1138.874	909.810
335.373	27.958	1138.559	909.125
336.387	27.882	1137.879	908.125
337.402	28.027	1136.974	908.042
338.416	27.993	1136.837	907.685
339.431	27.971	1136.198	906.987
340.446	27.992	1135.246	906.251
341.460	28.058	1134.829	906.165
342.475	28.011	1134.004	905.192
343.489	28.027	1132.987	904.381
344.504	28.058	1131.919	903.599
345.519	28.068	1131.385	903.145
346.533	28.115	1130.736	902.775
347.548	28.107	1129.644	901.785
348.562	28.209	1129.178	901.836
349.577	28.062	1128.578	900.552
350.592	27.999	1127.982	899.688
351.606	28.002	1127.063	898.890
352.621	27.977	1126.968	898.613
353.635	28.116	1125.872	898.343
354.650	28.207	1125.014	898.026
355.665	28.059	1125.078	897.268
356.679	28.191	1124.293	897.209
357.694	28.146	1123.988	896.669
358.708	28.170	1122.993	895.911
359.723	28.034	1122.416	894.709
360.738	28.163	1121.370	894.424
361.752	28.308	1120.687	894.511
362.767	28.400	1120.199	894.488
363.781	28.274	1120.147	893.754
364.796	28.329	1119.361	893.314
365.810	28.275	1118.552	892.327
366.825	28.262	1118.131	891.849
367.840	28.310	1117.524	891.521
368.854	28.391	1116.961	891.388
369.869	28.394	1116.304	890.797
370.883	28.443	1115.314	890.168
371.898	28.400	1114.749	889.428
372.913	28.344	1114.492	888.873
373.927	28.396	1113.821	888.513
374.942	28.435	1113.429	888.310
375.956	28.319	1113.444	887.682
376.971	28.471	1112.126	887.288
377.986	28.435	1111.504	886.536
379.000	28.393	1111.540	886.283
380.015	28.546	1110.713	886.287
381.029	28.444	1110.180	885.292
382.044	28.545	1109.197	884.915
383.059	28.419	1108.975	884.050
384.073	28.456	1108.272	883.592
385.088	28.610	1107.134	883.346
386.102	28.525	1106.282	882.181
387.117	28.588	1105.639	881.894
388.132	28.573	1104.856	881.117
389.146	28.536	1104.344	880.455
390.161	28.589	1103.622	880.056
391.175	28.469	1102.997	878.905
392.190	28.676	1102.005	879.025
393.205	28.543	1102.025	878.326
394.219	28.618	1101.007	877.799
395.234	28.681	1099.700	876.979
396.248	28.677	1099.223	876.501
397.263	28.650	1098.383	875.625
398.278	28.734	1097.466	875.219
399.292	28.800	1096.605	874.769
400.307	28.841	1096.592	874.873
401.321	28.732	1096.172	873.944
402.336	28.800	1095.653	873.774
403.350	28.761	1094.791	872.827
404.365	28.761	1094.350	872.399
405.380	28.778	1093.339	871.595
406.394	28.801	1092.844	871.232
407.409	28.946	1091.844	871.045
408.423	28.851	1091.066	869.895
409.438	28.858	1090.823	869.658
410.453	28.817	1089.915	868.664
411.467	28.940	1089.472	868.818
412.482	28.899	1088.696	867.928
413.496	28.911	1088.071	867.406
414.511	28.900	1087.697	866.981
415.526	28.938	1086.839	866.398
416.540	28.960	1086.505	866.161
417.555	28.941	1086.242	865.784
418.569	28.905	1085.655	865.071
419.584	28.982	1085.301	865.075
420.599	28.929	1084.972	864.487
421.613	101.051	1313.997	1436.797
422.628	94.155	1347.337	1436.900
