DTS Sentinel unit serial number:	SN413079Multiplexer serial number:	ORYXHardware model number:	OX4-SRSoftware version number:	ORYX F/W v4.00 Oryx Data Collector v3.7.2.0data status	okinstallation	princeton_trtdifferential loss correction	single-endedforward channel	channel 2reverse channel	N/Adate	2019/09/14time	19:19:35forward acquisition time	60.00reverse acquisition time	0.00gamma	496.2192k internal	0.2321k external	0.2321temperature offset calibration	1.0097default loss term (dB/km)	0.3790temperature slope calibration	1.0000multiplexer offset coefficient	1.0000multiplexer slope coefficient	1.0000fibre end	0.00T internal ref (°C)	35.06T ext. ref 1 (°C)	4.89T ext. ref 2 (°C)	29.09length (m)	temperature (°C)	Stokes	anti-Stokes-747.200	-67.331	-0.254	-0.101
-746.185	-200.000	-0.019	0.177
-745.171	-186.326	-0.132	0.002
-744.156	707.119	0.165	0.440
-743.142	140.098	-0.096	0.128
-742.127	294.485	-0.061	0.112
-741.112	-116.499	0.138	0.026
-740.098	8.799	0.304	0.232
-739.083	234.482	-0.137	0.228
-738.069	800.000	-0.070	0.212
-737.054	-20.134	0.253	0.157
-736.039	80.559	-0.261	0.284
-735.025	173.543	-0.174	-0.253
-734.010	9.121	0.116	-0.088
-732.996	220.888	0.116	-0.187
-731.981	540.752	-0.133	0.321
-730.966	-109.874	-0.264	0.056
-729.952	-42.996	-0.146	0.075
-728.937	30.029	-0.195	0.168
-727.923	606.336	0.097	0.245
-726.908	678.625	-0.085	0.223
-725.894	-99.513	-0.039	-0.010
-724.879	31.136	-0.360	-0.312
-723.864	-200.000	0.057	-0.333
-722.850	-188.583	0.130	0.002
-721.835	-52.894	-0.184	-0.086
-720.821	105.202	-0.272	0.324
-719.806	-171.816	0.234	-0.008
-718.791	-200.000	0.000	-0.266
-717.777	2.463	-0.203	0.148
-716.762	-200.000	-0.033	0.161
-715.748	20.343	0.149	-0.121
-714.733	172.396	-0.020	-0.030
-713.718	-72.017	0.047	-0.018
-712.704	-57.173	-0.444	-0.197
-711.689	-68.539	-0.268	-0.105
-710.675	-137.793	-0.261	-0.030
-709.660	450.459	0.106	0.235
-708.645	365.023	0.166	0.337
-707.631	293.050	0.033	-0.061
-706.616	-131.362	-0.495	0.066
-705.602	35.221	-0.193	0.171
-704.587	82.250	-0.152	-0.167
-703.572	249.475	0.158	0.271
-702.558	800.000	-0.058	0.200
-701.543	100.519	0.107	0.126
-700.529	800.000	-0.017	-0.055
-699.514	-78.381	0.031	0.011
-698.499	-121.771	0.062	0.010
-697.485	117.436	-0.100	-0.124
-696.470	8.988	0.175	0.133
-695.456	-139.754	-0.208	-0.022
-694.441	-113.940	0.170	0.033
-693.426	800.000	-0.087	-0.309
-692.412	-200.000	-0.072	-0.391
-691.397	77.716	0.074	0.079
-690.383	201.287	0.192	0.299
-689.368	247.666	0.037	-0.064
-688.354	800.000	0.046	0.140
-687.339	324.838	0.164	0.317
-686.324	-93.242	-0.103	0.029
-685.310	314.042	0.018	-0.034
-684.295	672.922	0.095	0.250
-683.281	276.809	0.089	-0.159
-682.266	308.280	0.074	-0.139
-681.251	32.733	0.127	-0.111
-680.237	800.000	-0.063	0.224
-679.222	-121.622	0.148	0.025
-678.208	-93.013	0.173	0.049
-677.193	-200.000	0.021	-0.247
-676.178	241.959	-0.089	-0.149
-675.164	150.893	0.122	0.167
-674.149	-172.333	-0.065	-0.002
-673.135	-42.748	-0.053	-0.027
-672.120	-53.837	-0.252	0.116
-671.105	-200.000	-0.030	-0.330
-670.091	-174.023	0.160	0.005
-669.076	800.000	0.102	-0.425
-668.062	800.000	-0.125	-0.375
-667.047	-200.000	-0.004	0.079
-666.032	-13.477	-0.095	0.062
-665.018	370.119	0.077	-0.158
-664.003	800.000	0.016	-0.055
-662.989	-45.478	0.102	0.051
-661.974	-108.991	-0.234	0.050
-660.959	-114.554	-0.139	0.027
-659.945	-200.000	0.083	-0.541
-658.930	-200.000	0.007	0.170
-657.916	-68.951	0.238	-0.093
-656.901	-200.000	0.014	0.090
-655.886	-169.813	0.196	-0.007
-654.872	537.066	0.041	0.097
-653.857	-13.068	-0.355	-0.233
-652.843	47.298	-0.197	0.185
-651.828	-58.641	0.148	0.065
-650.814	-200.000	0.021	-0.095
-649.799	-200.000	0.014	0.085
-648.784	-73.834	-0.423	0.155
-647.770	800.000	0.094	0.301
-646.755	-29.454	0.029	0.017
-645.741	-23.131	-0.190	-0.115
-644.726	-163.300	-0.413	-0.020
-643.711	315.623	-0.115	0.218
-642.697	148.957	-0.124	-0.169
-641.682	-43.521	-0.117	-0.060
-640.668	800.000	0.039	0.128
-639.653	71.442	0.175	0.183
-638.638	85.478	-0.327	-0.362
-637.624	-200.000	-0.006	0.070
-636.609	-54.465	0.250	-0.114
-635.595	148.152	-0.216	0.294
-634.580	-77.878	0.234	-0.081
-633.565	-57.754	-0.095	0.042
-632.551	-17.629	0.209	0.132
-631.536	56.404	-0.197	-0.193
-630.522	-2.373	0.325	0.229
-629.507	-200.000	-0.004	-0.442
-628.492	-90.195	-0.031	-0.009
-627.478	-86.290	-0.084	0.026
-626.463	175.927	0.026	-0.038
-625.449	-85.154	-0.029	0.009
-624.434	200.066	-0.153	0.236
-623.419	800.000	0.071	-0.264
-622.405	-88.510	-0.383	-0.115
-621.390	-200.000	-0.003	0.219
-620.376	-200.000	0.010	-0.050
-619.361	-134.371	-0.070	-0.009
-618.346	33.475	-0.098	0.085
-617.332	285.297	-0.051	-0.092
-616.317	395.942	0.021	0.045
-615.303	-19.424	0.088	0.055
-614.288	800.000	0.058	-0.242
-613.273	-125.535	-0.164	0.025
-612.259	55.811	0.175	-0.170
-611.244	-4.008	-0.123	0.086
-610.230	-156.817	0.192	-0.012
-609.215	24.411	-0.240	-0.199
-608.201	800.000	-0.124	-0.351
-607.186	197.446	-0.188	-0.289
-606.171	-200.000	-0.020	0.138
-605.157	230.038	-0.155	-0.254
-604.142	-99.142	-0.293	0.075
-603.128	-200.000	-0.008	-0.317
-602.113	-60.814	0.196	0.083
-601.098	62.801	-0.109	0.109
-600.084	-200.000	0.028	0.161
-599.069	239.990	-0.058	-0.097
-598.055	370.120	0.051	0.103
-597.040	-127.561	-0.066	-0.010
-596.025	149.023	0.163	-0.221
-595.011	-200.000	-0.004	0.047
-593.996	-71.173	0.117	0.044
-592.982	-200.000	-0.038	-0.247
-591.967	-97.256	0.177	-0.046
-590.952	-200.000	0.051	0.487
-589.938	23.566	-0.137	0.113
-588.923	493.016	0.046	0.106
-587.909	-45.691	0.115	0.057
-586.894	105.108	-0.161	-0.191
-585.879	-101.680	-0.080	-0.020
-584.865	-200.000	0.010	0.122
-583.850	-155.095	-0.144	0.009
-582.836	-30.746	-0.164	-0.093
-581.821	484.381	-0.119	-0.271
-580.806	800.000	-0.073	-0.210
-579.792	-200.000	0.048	-0.287
-578.777	-200.000	0.063	-0.313
-577.763	504.052	0.102	-0.237
-576.748	774.573	0.128	-0.351
-575.733	94.145	0.174	-0.198
-574.719	-6.796	0.077	0.052
-573.704	-118.052	-0.416	0.075
-572.690	413.027	-0.144	0.308
-571.675	342.174	-0.080	0.158
-570.661	266.747	0.058	0.102
-569.646	-134.982	0.082	0.010
-568.631	800.000	-0.064	0.204
-567.617	800.000	-0.050	0.215
-566.602	155.662	0.167	0.230
-565.588	-33.271	-0.204	0.114
-564.573	239.771	0.085	0.142
-563.558	-114.215	-0.160	-0.031
-562.544	-200.000	0.028	-0.530
-561.529	-193.329	-0.252	0.002
-560.515	-79.287	0.317	-0.108
-559.500	-139.092	0.318	-0.035
-558.485	367.408	-0.164	0.332
-557.471	181.490	0.091	0.135
-556.456	645.408	-0.101	-0.260
-555.442	136.339	0.179	-0.234
-554.427	73.858	0.237	0.249
-553.412	-79.187	-0.066	0.023
-552.398	-80.762	-0.068	-0.023
-551.383	-77.430	-0.260	0.090
-550.369	182.541	0.200	0.297
-549.354	123.525	0.063	0.080
-548.339	72.307	-0.152	0.158
-547.325	-200.000	0.058	0.330
-546.310	86.028	0.066	-0.073
-545.296	-116.419	0.047	0.009
-544.281	55.971	-0.137	0.133
-543.266	49.629	-0.038	-0.036
-542.252	-49.844	-0.034	0.016
-541.237	3.572	-0.073	-0.054
-540.223	-57.056	0.070	-0.031
-539.208	-200.000	-0.031	-0.146
-538.193	-166.003	-0.294	0.013
-537.179	-0.784	0.143	-0.102
-536.164	47.768	-0.317	0.296
-535.150	-69.042	0.170	-0.066
-534.135	-168.872	-0.291	-0.011
-533.121	-91.397	0.099	-0.028
-532.106	-200.000	0.026	0.369
-531.091	800.000	0.043	0.129
-530.077	-90.417	0.091	0.027
-529.062	-122.892	-0.238	0.038
-528.048	-200.000	-0.004	0.239
-527.033	-200.000	-0.020	-0.560
-526.018	13.028	-0.104	0.080
-525.004	-200.000	-0.032	-0.276
-523.989	-42.893	-0.335	0.170
-522.975	114.116	-0.013	-0.016
-521.960	-94.228	0.084	0.023
-520.945	-164.617	-0.156	0.007
-519.931	408.940	0.026	0.055
-518.916	-108.950	-0.151	-0.032
-517.902	57.896	-0.076	0.075
-516.887	800.000	-0.046	-0.136
-515.872	-110.820	0.055	0.011
-514.858	2.339	0.079	0.057
-513.843	85.132	0.174	0.192
-512.829	10.882	0.135	0.103
-511.814	-73.411	-0.153	0.056
-510.799	188.067	-0.133	-0.199
-509.785	-97.027	-0.252	0.066
-508.770	290.536	-0.124	0.225
-507.756	281.342	0.059	0.107
-506.741	15.878	-0.039	0.031
-505.726	800.000	0.061	-0.244
-504.712	249.292	-0.151	-0.257
-503.697	19.369	-0.162	0.130
-502.683	349.620	0.044	0.087
-501.668	-200.000	0.009	-0.136
-500.653	-200.000	-0.003	-0.184
-499.639	260.391	0.134	-0.231
-498.624	-12.832	0.155	0.101
-497.610	-78.136	0.171	0.059
-496.595	-112.029	-0.132	0.027
-495.581	54.724	-0.198	-0.191
-494.566	-5.376	0.179	0.123
-493.551	798.998	-0.038	-0.104
-492.537	-53.852	-0.087	0.040
-491.522	68.206	0.197	0.202
-490.508	765.077	-0.138	0.375
-489.493	143.142	0.118	0.157
-488.478	47.850	-0.372	0.348
-487.464	130.342	-0.156	-0.200
-486.449	331.001	0.340	-0.656
-485.435	-78.249	0.353	-0.121
-484.420	800.000	-0.055	-0.177
-483.405	610.398	-0.099	-0.247
-482.391	-200.000	-0.088	0.000
-481.376	8.623	0.323	0.244
-480.362	66.184	-0.247	-0.251
-479.347	-38.308	0.251	0.133
-478.332	-200.000	-0.026	0.113
-477.318	80.063	0.198	-0.213
-476.303	-122.671	-0.211	-0.034
-475.289	339.732	-0.137	-0.267
-474.274	-200.000	0.008	-0.293
-473.259	800.000	-0.027	-0.101
-472.245	-11.237	0.363	0.239
-471.230	-77.265	0.536	0.186
-470.216	-58.945	0.169	0.073
-469.201	-186.155	-0.284	0.004
-468.186	-200.000	-0.002	-0.222
-467.172	-200.000	0.042	-0.284
-466.157	-200.000	-0.026	0.317
-465.143	-160.233	-0.217	0.012
-464.128	-56.345	0.268	0.119
-463.113	-200.000	0.057	0.279
-462.099	81.488	0.178	0.192
-461.084	-10.680	-0.239	-0.158
-460.070	-33.762	-0.140	0.077
-459.055	800.000	0.027	0.119
-458.040	-139.881	-0.115	0.012
-457.026	251.498	-0.183	-0.311
-456.011	158.233	0.094	-0.130
-454.997	-100.119	-0.158	-0.039
-453.982	-112.385	0.119	0.024
-452.968	190.992	0.094	0.141
-451.953	618.788	0.083	-0.209
-450.938	-199.699	-0.116	-0.001
-449.924	-200.000	0.041	0.359
-448.909	-4.970	0.210	0.144
-447.895	36.023	0.136	-0.120
-446.880	-70.316	0.208	0.079
-445.865	-38.140	-0.319	0.169
-444.851	-200.000	0.002	-0.178
-443.836	-1.638	-0.349	0.246
-442.822	800.000	-0.006	0.023
-441.807	-163.213	0.204	0.010
-440.792	-121.169	0.101	0.017
-439.778	-14.087	-0.119	-0.076
-438.763	-84.482	-0.212	-0.067
-437.749	45.902	0.292	0.270
-436.734	800.000	-0.109	0.352
-435.719	-200.000	-0.038	0.341
-434.705	26.080	-0.078	0.065
-433.690	-16.239	0.338	0.215
-432.676	-90.001	-0.019	-0.005
-431.661	436.856	-0.057	-0.123
-430.646	583.351	0.107	-0.263
-429.632	-19.299	0.258	0.160
-428.617	-7.954	0.022	0.015
-427.603	203.799	-0.031	0.048
-426.588	-200.000	-0.045	0.415
-425.573	-200.000	-0.037	-0.460
-424.559	-122.746	0.401	0.065
-423.544	-200.000	-0.040	-0.207
-422.530	-178.001	-0.312	-0.007
-421.515	390.838	0.097	-0.201
-420.500	473.060	0.097	0.218
-419.486	610.821	0.080	0.201
-418.471	633.385	0.078	0.198
-417.457	249.930	0.123	-0.209
-416.442	-77.866	-0.302	0.104
-415.428	-200.000	0.004	0.290
-414.413	-163.567	-0.173	0.008
-413.398	-7.111	0.080	-0.054
-412.384	-198.590	-0.211	-0.001
-411.369	320.330	0.058	-0.110
-410.355	-37.434	0.317	0.169
-409.340	-117.907	-0.221	-0.039
-408.325	371.678	-0.156	-0.316
-407.311	-113.250	-0.140	0.028
-406.296	-9.840	0.123	0.082
-405.282	800.000	-0.082	-0.239
-404.267	365.765	-0.044	0.089
-403.252	-120.990	0.302	-0.051
-402.238	-200.000	0.011	-0.186
-401.223	800.000	0.051	-0.157
-400.209	-167.399	0.241	-0.010
-399.194	-69.483	-0.380	0.145
-398.179	66.402	0.078	-0.079
-397.165	15.270	0.243	0.190
-396.150	-1.320	0.242	0.171
-395.136	271.776	0.061	0.107
-394.121	86.756	-0.072	-0.080
-393.106	-112.723	0.035	-0.007
-392.092	-134.964	0.284	-0.034
-391.077	-70.972	-0.163	0.061
-390.063	86.801	0.157	-0.172
-389.048	266.569	-0.075	-0.131
-388.033	147.179	-0.174	-0.234
-387.019	-83.698	0.073	-0.023
-386.004	141.654	0.241	-0.318
-384.990	33.539	-0.151	-0.130
-383.975	-96.389	0.055	0.014
-382.960	-200.000	0.004	-0.045
-381.946	-116.982	0.371	-0.068
-380.931	22.848	0.116	0.095
-379.917	-165.346	0.305	0.013
-378.902	-120.469	-0.115	0.019
-377.888	-96.774	-0.115	0.030
-376.873	-88.251	-0.261	0.078
-375.858	65.102	-0.022	-0.022
-374.844	323.394	0.198	0.376
-373.829	100.221	-0.254	0.293
-372.815	8.771	-0.173	0.130
-371.800	0.198	-0.095	0.067
-370.785	-2.734	0.142	0.099
-369.771	-9.929	-0.142	0.094
-368.756	98.092	0.141	-0.162
-367.742	-180.223	0.120	-0.003
-366.727	-21.006	0.071	-0.043
-365.712	447.467	-0.129	0.283
-364.698	127.580	0.131	-0.166
-363.683	25.556	0.042	-0.034
-362.669	-94.979	-0.108	-0.029
-361.654	-5.447	0.147	-0.100
-360.639	-200.000	-0.010	-0.176
-359.625	-189.901	0.198	0.002
-358.610	-106.278	0.203	0.045
-357.596	259.593	0.045	0.077
-356.581	-180.061	-0.210	0.004
-355.566	211.637	0.095	0.149
-354.552	426.562	-0.125	-0.269
-353.537	-93.829	-0.293	-0.080
-352.523	-71.261	0.361	0.135
-351.508	-86.663	0.177	-0.054
-350.493	365.348	0.111	-0.223
-349.479	800.000	-0.077	-0.223
-348.464	587.690	-0.063	0.154
-347.450	-114.702	0.196	-0.037
-346.435	68.380	0.070	-0.071
-345.420	75.877	0.179	0.189
-344.406	-15.235	-0.143	0.091
-343.391	-11.181	-0.266	-0.174
-342.377	-58.869	0.270	-0.116
-341.362	187.084	-0.285	0.423
-340.348	142.926	-0.094	0.124
-339.333	-127.854	0.151	-0.022
-338.318	800.000	0.075	0.287
-337.304	14.426	-0.198	0.154
-336.289	-10.595	-0.095	0.063
-335.275	-200.000	0.016	-0.131
-334.260	-61.637	-0.250	0.105
-333.245	-11.987	-0.193	-0.126
-332.231	-200.000	-0.036	0.393
-331.216	800.000	-0.015	0.046
-330.202	800.000	-0.046	-0.149
-329.187	-148.094	-0.146	0.012
-328.172	-200.000	0.003	-0.339
-327.158	115.859	-0.193	-0.235
-326.143	-117.616	0.162	-0.029
-325.129	-18.205	0.140	-0.087
-324.114	-200.000	-0.042	0.196
-323.099	100.822	0.147	-0.169
-322.085	-106.508	-0.123	0.027
-321.070	800.000	-0.140	0.496
-320.056	-200.000	0.053	0.000
-319.041	9.686	-0.147	0.111
-318.026	603.259	-0.067	-0.166
-317.012	23.144	0.182	0.149
-315.997	-89.983	0.057	0.017
-314.983	-94.320	0.093	0.025
-313.968	-70.376	0.086	-0.032
-312.953	-119.934	0.145	0.025
-311.939	-200.000	-0.046	-0.448
-310.924	-91.892	0.059	0.017
-309.910	-6.469	0.358	0.242
-308.895	228.052	0.050	-0.082
-307.880	259.963	0.055	-0.095
-306.866	-100.036	0.178	0.044
-305.851	64.719	0.138	0.138
-304.837	-88.203	0.438	-0.130
-303.822	31.958	-0.137	-0.117
-302.807	-44.711	-0.091	-0.045
-301.793	-123.832	-0.478	0.075
-300.778	-77.606	-0.156	0.054
-299.764	-79.209	-0.070	-0.024
-298.749	-0.145	-0.173	0.123
-297.735	-103.976	0.199	-0.046
-296.720	-75.065	-0.159	-0.056
-295.705	332.899	0.047	-0.089
-294.691	23.996	0.243	-0.199
-293.676	-76.045	0.091	-0.032
-292.662	438.438	-0.231	0.500
-291.647	242.137	-0.134	0.222
-290.632	26.375	-0.074	0.062
-289.618	39.040	-0.170	-0.151
-288.603	110.922	0.103	0.124
-287.589	96.108	0.078	0.089
-286.574	-200.000	-0.022	-0.342
-285.559	247.084	-0.088	-0.147
-284.545	800.000	-0.075	-0.221
-283.530	148.015	-0.075	-0.100
-282.516	800.000	-0.034	-0.111
-281.501	166.478	0.164	-0.230
-280.486	800.000	0.131	-0.455
-279.472	-151.190	0.121	0.009
-278.457	-200.000	0.002	-0.070
-277.443	265.143	0.189	0.326
-276.428	101.968	0.100	-0.116
-275.413	-45.510	0.287	-0.141
-274.399	36.506	0.113	-0.099
-273.384	-14.571	-0.126	-0.081
-272.370	69.142	0.361	-0.368
-271.355	115.579	-0.195	-0.236
-270.340	800.000	-0.028	0.112
-269.326	-162.116	0.157	0.008
-268.311	-50.075	-0.079	-0.037
-267.297	135.718	0.060	0.077
-266.282	34.186	-0.181	0.157
-265.267	-52.096	0.145	0.067
-264.253	-200.000	-0.229	0.000
-263.238	47.304	-0.265	-0.245
-262.224	133.634	-0.222	-0.285
-261.209	239.096	-0.010	0.016
-260.195	-200.000	0.045	-0.565
-259.180	671.118	-0.137	-0.352
-258.165	800.000	-0.042	0.131
-257.151	686.277	0.113	-0.294
-256.136	160.177	0.078	0.107
-255.122	-200.000	-0.044	-0.362
-254.107	-83.264	0.189	0.060
-253.092	130.219	0.297	0.376
-252.078	-200.000	0.055	0.320
-251.063	-200.000	0.005	0.028
-250.049	-13.062	0.166	0.107
-249.034	-60.473	0.096	0.040
-248.019	800.000	-0.091	0.276
-247.005	549.470	0.117	0.279
-245.990	-136.230	0.150	-0.017
-244.976	-182.094	-0.364	0.007
-243.961	19.509	-0.296	-0.236
-242.946	-50.123	0.216	-0.102
-241.932	-12.336	-0.192	-0.124
-240.917	151.525	-0.152	-0.205
-239.903	12.919	-0.169	-0.129
-238.888	424.589	0.132	0.281
-237.873	800.000	0.088	0.326
-236.859	584.523	0.147	0.358
-235.844	-67.442	0.103	-0.040
-234.830	14.792	-0.163	0.126
-233.815	172.447	-0.152	-0.217
-232.800	-134.466	-0.218	0.026
-231.786	-200.000	0.038	0.177
-230.771	144.281	-0.019	0.025
-229.757	-200.000	-0.018	-0.446
-228.742	-11.878	0.123	-0.080
-227.727	-93.773	0.005	0.001
-226.713	-152.952	-0.123	-0.009
-225.698	800.000	0.080	-0.242
-224.684	-161.263	0.346	-0.018
-223.669	-96.868	0.264	0.069
-222.655	-134.679	-0.332	0.040
-221.640	-55.030	0.135	0.060
-220.625	-78.140	0.221	-0.075
-219.611	-200.000	0.068	-0.303
-218.596	28.499	0.180	0.151
-217.582	-200.000	-0.077	-0.425
-216.567	-200.000	-0.021	-0.202
-215.552	-127.347	-0.104	0.015
-214.538	800.000	0.058	0.243
-213.523	-200.000	-0.058	0.297
-212.509	-200.000	-0.006	-0.127
-211.494	-179.835	0.091	-0.002
-210.479	-200.000	-0.012	0.103
-209.465	-6.271	-0.066	-0.045
-208.450	-32.320	0.241	-0.133
-207.436	-200.000	-0.021	0.513
-206.421	-65.435	0.079	-0.032
-205.406	800.000	0.013	0.045
-204.392	348.523	0.174	-0.339
-203.377	180.271	-0.108	0.157
-202.363	2.718	-0.081	-0.058
-201.348	-85.148	0.085	-0.026
-200.333	385.257	0.023	0.047
-199.319	800.000	-0.097	0.280
-198.304	-200.000	-0.072	0.448
-197.290	184.868	-0.133	0.195
-196.275	-200.000	-0.030	-0.237
-195.260	-138.212	0.220	-0.024
-194.246	-200.000	-0.019	0.146
-193.231	-200.000	0.028	0.160
-192.217	-57.349	-0.436	0.189
-191.202	296.243	-0.094	0.170
-190.187	-45.617	-0.179	0.088
-189.173	-200.000	-0.016	-0.084
-188.158	258.605	-0.069	0.118
-187.144	178.668	-0.184	-0.266
-186.129	-50.397	0.346	0.162
-185.114	12.323	0.182	0.138
-184.100	-21.271	-0.034	0.020
-183.085	595.215	-0.051	-0.126
-182.071	-200.000	-0.004	0.137
-181.056	-200.000	-0.020	0.101
-180.042	13.062	-0.368	0.281
-179.027	-154.627	0.176	0.012
-178.012	66.537	-0.141	-0.142
-176.998	439.007	0.106	-0.229
-175.983	-200.000	-0.025	0.121
-174.969	-7.976	-0.072	0.048
-173.954	-200.000	-0.087	0.386
-172.939	-200.000	-0.023	-0.281
-171.925	50.786	0.196	-0.184
-170.910	18.103	0.232	0.183
-169.896	800.000	0.060	-0.239
-168.881	-134.531	-0.039	-0.005
-167.866	91.567	0.147	0.164
-166.852	-130.845	0.316	-0.042
-165.837	-100.835	-0.112	-0.027
-164.823	318.862	0.121	-0.226
-163.808	-123.603	0.308	-0.048
-162.793	144.439	-0.042	-0.056
-161.779	800.000	0.035	-0.099
-160.764	800.000	0.032	0.117
-159.750	-200.000	-0.025	0.179
-158.735	-115.590	0.121	-0.023
-157.720	-32.048	-0.189	0.105
-156.706	-200.000	-0.044	-0.244
-155.691	-200.000	0.014	0.192
-154.677	234.969	0.024	0.039
-153.662	-136.865	0.043	0.005
-152.647	12.628	0.169	-0.129
-151.633	-66.536	-0.128	-0.050
-150.618	93.922	-0.296	-0.332
-149.604	109.298	-0.053	-0.062
-148.589	15.033	0.209	0.161
-147.574	-142.583	0.103	-0.010
-146.560	47.264	-0.110	0.102
-145.545	293.999	0.105	0.190
-144.531	68.650	0.184	0.186
-143.516	139.695	-0.052	-0.067
-142.502	800.000	-0.022	0.091
-141.487	328.854	0.028	0.054
-140.472	28.403	-0.093	-0.078
-139.458	-130.581	0.173	-0.023
-138.443	-150.227	0.058	0.004
-137.429	176.846	0.312	0.448
-136.414	-82.900	-0.422	-0.134
-135.399	-38.673	0.441	0.230
-134.385	-112.524	-0.249	-0.049
-133.370	273.850	-0.049	0.086
-132.356	800.000	0.038	0.138
-131.341	302.362	-0.120	-0.219
-130.326	-200.000	-0.030	-0.302
-129.312	-121.034	-0.303	0.050
-128.297	123.955	-0.116	0.144
-127.283	-200.000	-0.026	0.172
-126.268	800.000	-0.078	0.294
-125.253	-111.934	0.202	0.040
-124.239	208.467	-0.257	0.397
-123.224	-200.000	0.050	0.257
-122.210	133.548	-0.196	0.250
-121.195	-10.573	0.131	-0.086
-120.180	-79.402	-0.259	-0.086
-119.166	-98.289	0.228	0.058
-118.151	757.571	-0.124	0.330
-117.137	-181.613	0.117	-0.002
-116.122	627.071	0.022	0.054
-115.107	-200.000	0.019	0.252
-114.093	-129.023	0.103	0.014
-113.078	220.694	-0.139	-0.220
-112.064	-162.070	-0.075	-0.004
-111.049	11.175	0.233	0.176
-110.034	488.081	0.107	0.241
-109.020	144.425	0.057	0.075
-108.005	115.796	-0.073	0.088
-106.991	69.186	0.133	-0.135
-105.976	-200.000	0.013	-0.153
-104.962	-143.520	0.243	0.023
-103.947	50.175	0.086	-0.080
-102.932	-200.000	0.008	0.094
-101.918	-51.951	0.186	0.085
-100.903	254.541	0.049	-0.082
-99.889	-109.306	-0.050	-0.010
-98.874	-146.760	0.268	-0.023
-97.859	-170.549	0.074	-0.003
-96.845	420.547	-0.026	0.055
-95.830	-49.031	0.139	-0.066
-94.816	800.000	0.067	0.222
-93.801	78.684	-0.083	0.087
-92.786	-45.084	-0.011	0.005
-91.772	-27.925	-0.222	-0.127
-90.757	-171.087	-0.190	0.006
-89.743	800.000	0.066	0.246
-88.728	16.798	-0.238	0.185
-87.713	-200.000	0.023	-0.196
-86.699	42.337	0.109	-0.097
-85.684	65.642	0.252	0.251
-84.670	78.693	0.076	-0.080
-83.655	-200.000	-0.019	0.085
-82.640	-162.638	0.157	-0.008
-81.626	-200.000	0.028	-0.199
-80.611	-175.982	-0.103	-0.003
-79.597	44.156	-0.164	-0.148
-78.582	800.000	0.025	-0.069
-77.567	-200.000	-0.019	-0.289
-76.553	-53.553	0.348	0.157
-75.538	-137.904	0.197	-0.022
-74.524	-42.108	-0.142	-0.071
-73.509	-29.283	0.056	0.031
-72.494	-102.998	-0.307	0.072
-71.480	-103.164	-0.242	-0.056
-70.465	-135.225	0.266	0.031
-69.451	301.734	0.099	-0.181
-68.436	800.000	0.025	0.092
-67.422	800.000	0.063	0.197
-66.407	800.000	0.092	0.288
-65.392	-154.248	0.592	-0.039
-64.378	7.162	-0.325	0.239
-63.363	20.232	-0.044	0.035
-62.349	-36.050	0.117	0.062
-61.334	170.978	-0.654	-0.923
-60.319	50.092	0.569	0.528
-59.305	-200.000	-0.134	-0.885
-58.290	156.196	0.663	0.900
-57.276	800.000	0.567	1.556
-56.261	-200.000	97.382	585.359
-55.246	671.284	1386.194	3533.464
-54.232	190.524	2596.404	3838.300
-53.217	119.027	2290.293	2785.532
-52.203	44.991	1905.615	1726.453
-51.188	38.475	1693.967	1485.403
-50.173	35.625	1649.202	1424.991
-49.159	53.115	1698.626	1599.683
-48.144	56.961	1716.255	1645.113
-47.130	38.140	1671.893	1463.304
-46.115	35.020	1657.644	1427.547
-45.100	34.881	1652.171	1421.748
-44.086	34.988	1649.189	1419.913
-43.071	34.922	1646.673	1417.208
-42.057	34.899	1644.456	1415.072
-41.042	35.028	1641.637	1413.538
-40.027	34.940	1640.497	1411.857
-39.013	35.052	1638.344	1410.771
-37.998	34.964	1636.658	1408.615
-36.984	34.940	1635.229	1407.155
-35.969	35.030	1633.721	1406.463
-34.954	35.128	1631.985	1405.627
-33.940	35.103	1630.214	1403.867
-32.925	35.053	1628.561	1402.018
-31.911	35.085	1626.649	1400.556
-30.896	35.137	1624.888	1399.358
-29.881	34.958	1623.922	1397.168
-28.867	35.160	1621.340	1396.360
-27.852	34.987	1620.670	1394.471
-26.838	35.054	1618.969	1393.441
-25.823	34.987	1617.812	1391.897
-24.809	35.084	1616.164	1391.134
-23.794	35.023	1615.005	1389.632
-22.779	35.138	1613.128	1388.802
-21.765	35.082	1611.293	1386.761
-20.750	35.141	1609.597	1385.671
-19.736	35.142	1608.456	1384.643
-18.721	35.121	1607.260	1383.402
-17.706	35.059	1605.865	1381.699
-16.692	35.003	1603.898	1379.549
-15.677	34.960	1602.941	1378.361
-14.663	35.076	1601.271	1377.710
-13.648	35.027	1599.877	1376.103
-12.633	35.123	1597.959	1375.089
-11.619	35.078	1596.652	1373.581
-10.604	35.153	1595.467	1373.043
-9.590	35.164	1593.981	1371.795
-8.575	35.115	1592.300	1369.941
-7.560	35.091	1591.638	1369.146
-6.546	35.024	1590.713	1367.813
-5.531	35.120	1589.241	1367.183
-4.517	35.108	1587.967	1365.947
-3.502	35.151	1586.799	1365.191
-2.487	35.231	1585.487	1364.578
-1.473	34.770	1573.795	1351.202
-0.458	31.633	1553.730	1311.979
0.556	28.126	1552.979	1276.317
1.571	25.491	1576.846	1277.122
2.586	24.811	1590.250	1282.991
3.600	21.849	1537.074	1219.418
4.615	13.251	1427.739	1076.802
5.629	6.067	1363.506	983.434
6.644	5.004	1354.891	970.522
7.659	4.861	1354.123	968.995
8.673	4.775	1352.799	967.426
9.688	4.921	1350.699	966.747
10.702	4.808	1348.689	964.523
11.717	7.886	1354.500	987.718
12.731	15.771	1368.468	1047.076
13.746	20.487	1375.748	1081.993
14.761	20.015	1373.936	1077.532
15.775	19.050	1370.778	1068.971
16.790	17.893	1368.400	1059.842
17.804	17.019	1366.082	1052.533
18.819	16.763	1365.078	1050.078
19.834	16.501	1363.158	1046.888
20.848	16.288	1362.148	1044.702
21.863	16.075	1360.682	1042.170
22.877	15.904	1359.646	1040.228
23.892	15.896	1358.593	1039.277
24.907	15.812	1358.077	1038.271
25.921	15.889	1357.037	1037.859
26.936	15.965	1355.748	1037.252
27.950	15.944	1355.167	1036.589
28.965	15.882	1354.583	1035.663
29.980	16.143	1352.849	1035.853
30.994	16.121	1352.026	1034.997
32.009	16.104	1351.340	1034.277
33.023	16.100	1349.934	1033.081
34.038	16.066	1348.301	1031.532
35.053	16.046	1347.037	1030.350
36.067	15.978	1346.249	1029.243
37.082	16.115	1344.987	1029.022
38.096	16.075	1343.945	1027.893
39.111	16.073	1343.728	1027.624
40.126	15.909	1342.925	1025.918
41.140	15.970	1341.565	1025.161
42.155	15.809	1341.185	1023.801
43.169	15.800	1340.895	1023.429
44.184	15.672	1340.669	1022.388
45.199	15.709	1340.261	1022.216
46.213	15.849	1339.794	1022.619
47.228	16.025	1338.971	1022.967
48.242	15.976	1337.650	1021.570
49.257	15.950	1336.057	1020.105
50.271	16.013	1334.405	1019.136
51.286	15.897	1333.869	1017.934
52.301	15.979	1332.365	1017.193
53.315	15.834	1331.290	1015.405
54.330	15.868	1330.074	1014.593
55.344	15.808	1328.642	1013.053
56.359	15.889	1327.410	1012.510
57.374	15.820	1326.917	1011.628
58.388	15.703	1325.994	1010.135
59.403	15.697	1325.873	1009.915
60.417	15.740	1324.610	1009.121
61.432	15.811	1323.517	1008.627
62.447	15.663	1322.407	1006.805
63.461	15.593	1321.975	1005.969
64.476	15.680	1320.536	1005.305
65.490	15.582	1319.261	1003.658
66.505	15.680	1317.911	1003.127
67.520	15.628	1316.885	1001.946
68.534	15.558	1315.890	1000.683
69.549	15.610	1314.958	1000.199
70.563	15.658	1313.456	999.249
71.578	15.528	1312.464	997.635
72.593	15.564	1311.341	996.910
73.607	15.471	1311.153	996.124
74.622	15.487	1309.956	995.223
75.636	15.541	1309.558	995.149
76.651	15.511	1308.811	994.321
77.666	15.460	1308.748	993.883
78.680	15.524	1307.656	993.343
79.695	15.549	1307.418	993.222
80.709	15.623	1306.353	992.760
81.724	15.712	1305.340	992.431
82.739	15.920	1304.418	992.865
83.753	15.836	1303.893	991.883
84.768	16.024	1302.719	992.012
85.782	16.044	1302.026	991.513
86.797	16.043	1300.437	990.207
87.812	15.974	1299.310	988.856
88.826	15.886	1298.419	987.578
89.841	15.932	1297.574	987.117
90.855	15.979	1296.645	986.600
91.870	16.047	1295.580	986.096
92.884	16.068	1294.477	985.292
93.899	16.141	1293.757	985.085
94.914	16.200	1292.979	984.752
95.928	16.158	1292.064	983.718
96.943	16.163	1291.365	983.128
97.957	16.021	1290.852	981.826
98.972	16.049	1289.548	980.912
99.987	15.953	1288.574	979.526
101.001	16.051	1287.767	979.393
102.016	16.110	1286.593	978.755
103.030	16.152	1285.360	977.976
104.045	16.000	1284.744	976.541
105.060	15.995	1283.373	975.381
106.074	15.869	1282.015	973.532
107.089	15.688	1280.840	971.508
108.103	15.759	1279.338	970.694
109.118	15.569	1278.728	969.049
110.133	15.660	1276.889	968.093
111.147	15.699	1275.674	967.313
112.162	15.712	1274.587	966.476
113.176	15.711	1273.515	965.576
114.191	15.817	1272.596	965.397
115.206	15.823	1271.076	964.194
116.220	15.877	1269.652	963.341
117.235	15.840	1268.808	962.403
118.249	15.784	1267.816	961.246
119.264	15.701	1266.978	960.047
120.279	15.687	1265.729	958.937
121.293	15.746	1264.749	958.449
122.308	15.665	1263.522	956.969
123.322	15.626	1262.386	955.803
124.337	15.611	1261.035	954.612
125.352	15.565	1260.458	953.829
126.366	15.720	1259.285	953.737
127.381	15.711	1257.829	952.501
128.395	15.602	1256.771	950.997
129.410	15.788	1256.133	951.485
130.424	15.694	1255.716	950.553
131.439	15.805	1254.588	950.242
132.454	15.968	1253.046	949.906
133.468	15.792	1252.969	948.772
134.483	15.868	1252.067	948.431
135.497	15.813	1251.314	947.468
136.512	15.795	1249.910	946.219
137.527	15.859	1248.300	945.280
138.541	15.902	1247.434	944.777
139.556	15.861	1246.222	943.549
140.570	15.944	1245.693	943.528
141.585	15.999	1244.240	942.654
142.600	16.137	1242.639	942.127
143.614	16.114	1242.269	941.638
144.629	16.129	1241.091	940.742
145.643	16.236	1239.442	940.004
146.658	15.919	1238.573	937.497
147.673	16.015	1236.868	936.659
148.687	15.948	1235.602	935.244
149.702	15.850	1234.177	933.542
150.716	15.893	1232.985	932.794
151.731	15.924	1232.230	932.310
152.746	15.928	1230.706	931.102
153.760	15.925	1230.118	930.553
154.775	16.016	1228.849	930.013
155.789	16.015	1227.829	929.158
156.804	16.148	1226.651	928.914
157.819	16.117	1225.749	927.980
158.833	16.123	1225.238	927.542
159.848	16.249	1224.090	927.285
160.862	16.034	1223.784	925.787
161.877	16.030	1221.920	924.274
162.892	16.031	1220.689	923.269
163.906	16.004	1220.045	922.553
164.921	16.071	1218.896	921.967
165.935	16.077	1218.045	921.275
166.950	16.043	1217.709	920.753
167.964	16.066	1217.195	920.408
168.979	16.024	1216.505	919.574
169.994	16.023	1215.698	918.880
171.008	16.141	1214.681	918.673
172.023	16.172	1214.116	918.332
173.037	16.277	1213.780	918.569
174.052	16.265	1212.257	917.269
175.067	16.108	1211.389	915.679
176.081	16.046	1210.378	914.496
177.096	15.932	1209.916	913.449
178.110	16.254	1208.151	913.777
179.125	16.155	1207.010	912.298
180.140	16.214	1206.032	911.799
181.154	16.251	1204.722	910.929
182.169	16.357	1203.558	910.539
183.183	16.382	1202.475	909.773
184.198	16.270	1201.393	908.274
185.213	16.302	1200.502	907.689
186.227	16.363	1199.961	907.529
187.242	16.355	1198.480	906.282
188.256	16.455	1197.509	906.008
189.271	16.472	1196.576	905.310
190.286	16.288	1195.399	903.358
191.300	16.094	1194.596	901.632
192.315	16.011	1194.152	900.776
193.329	15.979	1193.488	900.020
194.344	16.164	1192.276	900.013
195.359	16.149	1192.113	899.733
196.373	16.287	1191.826	900.170
197.388	16.336	1191.402	900.033
198.402	16.480	1190.663	900.165
199.417	16.589	1190.254	900.355
200.432	16.617	1189.267	899.676
201.446	16.712	1188.276	899.353
202.461	16.708	1187.346	898.549
203.475	16.665	1187.235	898.153
204.490	16.640	1185.634	896.730
205.504	16.518	1184.402	895.075
206.519	16.508	1182.916	893.819
207.534	16.497	1182.353	893.259
208.548	16.579	1180.889	892.505
209.563	16.569	1180.086	891.768
210.577	16.591	1179.322	891.229
211.592	16.701	1178.672	891.236
212.607	16.609	1178.054	890.203
213.621	16.813	1176.827	890.274
214.636	16.651	1176.259	888.913
215.650	16.725	1175.322	888.514
216.665	16.828	1174.013	887.985
217.680	16.848	1173.683	887.760
218.694	16.891	1173.069	887.445
219.709	16.859	1171.905	886.317
220.723	16.834	1171.452	885.764
221.738	16.835	1170.565	885.021
222.753	16.849	1169.635	884.311
223.767	16.876	1169.006	883.901
224.782	16.935	1168.475	883.729
225.796	16.944	1167.644	883.068
226.811	16.994	1167.050	882.801
227.826	16.832	1166.588	881.531
228.840	16.784	1165.746	880.567
229.855	16.938	1164.453	880.314
230.869	16.942	1163.674	879.666
231.884	16.883	1163.045	878.809
232.899	16.817	1162.107	877.678
233.913	16.773	1162.040	877.324
234.928	16.804	1161.060	876.664
235.942	16.768	1160.193	875.746
236.957	16.806	1159.453	875.308
237.972	16.954	1158.643	875.381
238.986	16.877	1157.878	874.328
240.001	16.800	1157.547	873.605
241.015	16.836	1156.650	873.037
242.030	17.011	1155.433	872.941
243.045	16.961	1154.831	872.151
244.059	16.947	1154.208	871.535
245.074	17.018	1153.120	870.999
246.088	17.026	1152.913	870.808
247.103	17.169	1151.428	870.339
248.117	17.203	1151.190	870.257
249.132	17.332	1150.561	870.366
250.147	17.378	1150.211	870.257
251.161	17.523	1148.804	869.858
252.176	17.443	1148.336	869.017
253.190	17.404	1148.061	868.532
254.205	17.493	1147.396	868.406
255.220	17.612	1146.782	868.471
256.234	17.511	1145.998	867.286
257.249	17.545	1145.445	866.966
258.263	17.527	1144.939	866.415
259.278	17.535	1144.279	865.881
260.293	17.609	1143.483	865.578
261.307	17.696	1142.987	865.564
262.322	17.607	1142.527	864.690
263.336	17.688	1141.884	864.535
264.351	17.644	1141.136	863.673
265.366	17.750	1140.679	863.788
266.380	17.759	1139.629	862.960
267.395	17.712	1138.672	861.919
268.409	17.600	1138.316	861.009
269.424	17.685	1137.345	860.629
270.439	17.638	1137.352	860.318
271.453	17.579	1136.664	859.425
272.468	17.532	1135.366	858.130
273.482	17.533	1134.938	857.738
274.497	17.512	1134.058	856.891
275.512	17.587	1133.337	856.645
276.526	17.567	1132.962	856.186
277.541	17.584	1131.679	855.229
278.555	17.632	1131.065	854.931
279.570	17.691	1130.499	854.720
280.585	17.857	1129.810	854.957
281.599	17.812	1128.993	854.036
282.614	17.813	1127.544	852.870
283.628	17.805	1126.567	852.015
284.643	17.805	1125.788	851.349
285.657	17.772	1125.426	850.839
286.672	17.844	1123.635	849.769
287.687	17.741	1123.339	848.953
288.701	17.788	1122.660	848.602
289.716	17.913	1121.653	848.385
290.730	17.938	1121.023	847.959
291.745	17.922	1120.364	847.302
292.760	17.883	1120.145	846.868
293.774	18.068	1119.287	847.064
294.789	18.079	1118.641	846.556
295.803	18.082	1118.005	846.012
296.818	18.017	1117.196	845.007
297.833	18.004	1116.443	844.294
298.847	17.816	1116.054	843.000
299.862	17.922	1114.851	842.537
300.876	18.038	1113.897	842.317
301.891	18.150	1113.561	842.540
302.906	18.039	1112.966	841.466
303.920	18.160	1112.336	841.511
304.935	18.297	1111.480	841.461
305.949	18.341	1110.885	841.153
306.964	18.225	1110.679	840.355
307.979	18.148	1110.082	839.452
308.993	18.246	1108.921	838.977
310.008	18.185	1108.250	838.096
311.022	18.342	1107.377	838.133
312.037	18.293	1106.371	837.055
313.052	18.190	1105.810	836.056
314.066	18.115	1104.726	834.795
315.081	18.071	1103.903	833.887
316.095	17.990	1103.162	832.855
317.110	18.105	1102.457	832.810
318.125	18.029	1101.690	831.790
319.139	18.140	1100.752	831.545
320.154	18.026	1100.030	830.372
321.168	18.126	1099.719	830.551
322.183	18.159	1099.095	830.164
323.197	18.167	1097.960	829.275
324.212	18.227	1097.440	829.100
325.227	18.199	1097.136	828.659
326.241	18.222	1096.419	828.157
327.256	18.226	1095.610	827.490
328.270	18.167	1094.922	826.612
329.285	18.178	1093.908	825.827
330.300	18.249	1092.568	825.083
331.314	18.261	1091.894	824.563
332.329	18.221	1090.931	823.566
333.343	18.243	1090.432	823.227
334.358	18.450	1089.392	823.363
335.373	18.467	1088.673	822.826
336.387	18.390	1088.208	822.031
337.402	18.478	1087.182	821.607
338.416	18.429	1086.729	820.956
339.431	18.534	1086.059	820.879
340.446	18.543	1085.801	820.657
341.460	18.593	1084.885	820.128
342.475	18.722	1084.157	820.122
343.489	18.760	1083.226	819.530
344.504	18.817	1082.214	818.961
345.519	18.808	1081.578	818.366
346.533	18.933	1080.842	818.330
347.548	18.826	1080.116	817.198
348.562	18.946	1079.072	816.909
349.577	18.714	1078.785	815.517
350.592	18.704	1077.678	814.560
351.606	18.632	1076.943	813.589
352.621	18.646	1076.005	812.877
353.635	18.523	1075.485	811.832
354.650	18.624	1075.037	811.896
355.665	18.583	1074.186	810.987
356.679	18.649	1073.606	810.790
357.694	18.653	1072.871	810.182
358.708	18.781	1072.410	810.369
359.723	18.716	1071.680	809.440
360.738	18.810	1071.009	809.301
361.752	18.801	1070.660	808.926
362.767	18.788	1070.131	808.392
363.781	18.972	1069.307	808.565
364.796	18.898	1069.238	808.090
365.810	18.970	1068.595	807.871
366.825	19.123	1067.684	807.830
367.840	19.041	1067.570	807.289
368.854	19.220	1066.599	807.323
369.869	19.179	1065.851	806.491
370.883	19.113	1065.314	805.704
371.898	19.033	1064.483	804.630
372.913	19.076	1063.866	804.296
373.927	19.096	1063.173	803.791
374.942	19.156	1062.997	803.871
375.956	19.166	1062.776	803.677
376.971	19.173	1061.597	802.748
377.986	19.314	1061.210	803.039
379.000	19.294	1060.831	802.592
380.015	19.207	1060.082	801.549
381.029	19.385	1059.681	802.001
382.044	19.315	1059.053	801.130
383.059	19.430	1057.718	800.580
384.073	19.487	1057.019	800.245
385.088	19.393	1056.492	799.342
386.102	19.443	1055.165	798.497
387.117	19.197	1054.446	796.747
388.132	19.234	1053.406	796.061
389.146	19.273	1053.213	796.024
390.161	19.360	1052.279	795.649
391.175	19.369	1051.132	794.753
392.190	19.365	1050.458	794.156
393.205	19.429	1050.155	794.150
394.219	19.490	1049.261	793.685
395.234	19.404	1048.387	792.556
396.248	19.317	1047.302	791.267
397.263	19.300	1046.380	790.421
398.278	19.309	1045.531	789.752
399.292	19.254	1044.833	788.904
400.307	19.270	1043.879	788.186
401.321	19.374	1043.531	788.331
402.336	19.154	1043.388	787.145
403.350	19.336	1042.445	787.198
404.365	19.403	1041.550	786.757
405.380	19.461	1040.525	786.176
406.394	19.370	1040.275	785.506
407.409	19.482	1039.666	785.486
408.423	19.641	1039.123	785.728
409.438	19.635	1038.397	785.081
410.453	19.592	1037.643	784.248
411.467	19.795	1036.658	784.356
412.482	19.851	1036.249	784.227
413.496	19.770	1035.513	783.238
414.511	19.761	1035.113	782.822
415.526	19.736	1035.050	782.594
416.540	19.914	1034.343	782.796
417.555	19.874	1033.963	782.257
418.569	19.819	1033.299	781.437
419.584	19.941	1032.371	781.215
420.599	19.882	1032.315	780.841
421.613	151.701	1399.907	1790.577
422.628	138.519	1453.483	1790.702
