DTS Sentinel unit serial number:	SN413079Multiplexer serial number:	ORYXHardware model number:	OX4-SRSoftware version number:	ORYX F/W v4.00 Oryx Data Collector v3.7.2.0data status	okinstallation	princeton_trtdifferential loss correction	single-endedforward channel	channel 2reverse channel	N/Adate	2019/09/12time	20:55:35forward acquisition time	60.00reverse acquisition time	0.00gamma	496.2192k internal	0.2328k external	0.2328temperature offset calibration	1.0161default loss term (dB/km)	0.3790temperature slope calibration	1.0000multiplexer offset coefficient	1.0000multiplexer slope coefficient	1.0000fibre end	0.00T internal ref (°C)	30.94T ext. ref 1 (°C)	3.59T ext. ref 2 (°C)	25.50length (m)	temperature (°C)	Stokes	anti-Stokes-747.200	112.439	0.047	0.057
-746.185	36.204	-0.118	-0.105
-745.171	47.368	-0.088	0.083
-744.156	-200.000	0.025	0.205
-743.142	358.529	-0.118	0.237
-742.127	-183.694	0.255	-0.004
-741.112	-132.923	-0.206	0.026
-740.098	12.748	0.170	-0.133
-739.083	284.987	0.071	-0.128
-738.069	-113.791	-0.220	0.043
-737.054	-200.000	0.007	0.107
-736.039	32.321	-0.163	-0.142
-735.025	-16.545	-0.119	-0.076
-734.010	79.699	-0.256	-0.277
-732.996	-16.936	-0.247	-0.157
-731.981	-200.000	0.020	-0.308
-730.966	-86.698	-0.583	0.180
-729.952	-55.710	-0.299	-0.135
-728.937	-49.912	-0.166	-0.079
-727.923	29.536	0.040	-0.034
-726.908	-71.039	0.098	-0.037
-725.894	27.578	-0.046	-0.039
-724.879	-28.523	-0.252	-0.147
-723.864	-68.363	-0.078	0.030
-722.850	-200.000	-0.033	-0.186
-721.835	-194.977	-0.241	-0.002
-720.821	121.746	0.135	-0.169
-719.806	-67.870	-0.229	0.090
-718.791	115.031	0.193	-0.237
-717.777	44.935	0.140	0.130
-716.762	-165.005	-0.308	-0.014
-715.748	7.669	0.336	-0.253
-714.733	-200.000	0.002	-0.531
-713.718	51.199	0.125	0.120
-712.704	21.498	0.105	0.086
-711.689	-116.058	0.111	-0.021
-710.675	-49.940	-0.281	0.134
-709.660	-200.000	-0.016	0.152
-708.645	75.043	0.234	-0.248
-707.631	778.895	-0.079	-0.217
-706.616	-200.000	-0.085	-0.403
-705.602	120.366	-0.177	0.221
-704.587	-200.000	-0.000	-0.330
-703.572	5.588	-0.429	0.319
-702.558	2.166	0.051	-0.037
-701.543	-136.049	0.208	-0.025
-700.529	169.461	-0.027	0.039
-699.514	-121.324	-0.595	-0.100
-698.499	-45.022	-0.276	0.138
-697.485	-100.486	-0.190	-0.047
-696.470	-200.000	0.054	-0.331
-695.456	181.299	-0.096	0.142
-694.441	630.462	-0.151	-0.384
-693.426	98.832	-0.075	-0.087
-692.412	-145.643	-0.068	0.006
-691.397	-112.256	-0.353	-0.071
-690.383	57.316	-0.270	0.265
-689.368	-2.768	-0.305	0.214
-688.354	-200.000	0.022	0.109
-687.339	383.228	0.109	0.226
-686.324	600.523	-0.080	-0.199
-685.310	-200.000	0.017	0.260
-684.295	477.802	0.063	0.143
-683.281	203.752	0.157	0.244
-682.266	659.658	-0.034	-0.088
-681.251	-200.000	0.001	0.337
-680.237	-70.182	-0.370	-0.141
-679.222	-200.000	-0.011	-0.194
-678.208	9.719	0.119	-0.091
-677.193	-28.272	-0.285	0.165
-676.178	-23.369	-0.298	0.180
-675.164	48.210	-0.206	-0.194
-674.149	-13.769	0.094	0.061
-673.135	-132.254	-0.134	0.017
-672.120	-61.265	-0.456	0.193
-671.105	478.082	0.134	-0.306
-670.091	-200.000	-0.022	-0.255
-669.076	-32.961	0.205	-0.114
-668.062	459.989	0.050	-0.113
-667.047	-94.663	0.156	-0.042
-666.032	187.359	0.226	-0.339
-665.018	800.000	0.018	0.072
-664.003	-200.000	-0.015	-0.401
-662.989	-63.701	-0.124	-0.051
-661.974	-200.000	0.017	-0.095
-660.959	-200.000	0.043	-0.196
-659.945	37.978	-0.150	0.134
-658.930	800.000	0.018	-0.066
-657.916	241.713	-0.092	-0.155
-656.901	-73.613	0.144	0.053
-655.886	-47.125	0.063	-0.031
-654.872	-118.381	0.303	0.054
-653.857	38.466	0.273	-0.244
-652.843	-68.971	0.137	-0.053
-651.828	447.807	-0.049	-0.108
-650.814	800.000	0.084	-0.318
-649.799	184.744	0.220	-0.328
-648.784	27.724	0.210	-0.178
-647.770	25.904	-0.157	-0.131
-646.755	9.376	-0.231	0.175
-645.741	-92.041	-0.077	0.022
-644.726	-65.055	0.408	-0.165
-643.711	69.297	-0.293	-0.303
-642.697	-200.000	0.015	-0.111
-641.682	-200.000	0.066	0.365
-640.668	-200.000	-0.025	-0.229
-639.653	453.646	0.102	0.227
-638.638	118.186	0.066	-0.082
-637.624	-77.319	0.249	-0.087
-636.609	-143.953	0.208	0.020
-635.595	-31.960	0.428	-0.241
-634.580	800.000	-0.026	-0.111
-633.565	-84.248	0.217	0.069
-632.551	800.000	0.075	0.294
-631.536	666.886	-0.066	-0.172
-630.522	-120.295	0.202	-0.034
-629.507	-200.000	0.035	0.246
-628.492	70.840	0.264	0.274
-627.478	-54.581	-0.199	0.090
-626.463	40.003	-0.440	-0.397
-625.449	342.775	0.161	-0.317
-624.434	-127.999	-0.026	0.004
-623.419	-145.869	-0.028	-0.003
-622.405	-96.657	-0.056	-0.015
-621.390	149.531	-0.009	0.012
-620.376	-69.637	-0.182	0.070
-619.361	-16.573	-0.110	0.070
-618.346	440.153	0.105	-0.231
-617.332	49.491	-0.159	-0.150
-616.317	76.033	-0.141	0.149
-615.303	800.000	-0.075	-0.265
-614.288	-200.000	-0.006	-0.191
-613.273	380.607	0.033	0.068
-612.259	-141.967	-0.103	-0.010
-611.244	800.000	-0.089	-0.340
-610.230	107.595	-0.176	-0.211
-609.215	20.460	-0.160	0.130
-608.201	219.406	-0.188	0.302
-607.186	-13.737	0.066	-0.043
-606.171	-23.369	0.010	-0.006
-605.157	-125.253	0.139	-0.021
-604.142	90.771	-0.305	0.343
-603.128	-96.041	-0.181	-0.048
-602.113	447.019	0.194	-0.428
-601.098	-54.997	0.221	-0.100
-600.084	138.133	0.138	0.181
-599.069	-200.000	-0.014	0.143
-598.055	-57.014	0.372	0.164
-597.040	-200.000	0.024	-0.111
-596.025	-57.146	-0.257	0.113
-595.011	-125.197	-0.138	-0.021
-593.996	800.000	-0.086	0.329
-592.982	-77.641	0.077	0.027
-591.967	-200.000	-0.008	0.302
-590.952	430.265	-0.148	0.320
-589.938	-192.477	-0.419	0.004
-588.923	-200.000	0.031	0.428
-587.909	-200.000	-0.001	0.185
-586.894	-84.717	-0.389	-0.123
-585.879	-64.321	0.439	-0.179
-584.865	-40.920	0.240	0.124
-583.850	235.035	0.143	-0.236
-582.836	800.000	-0.059	0.216
-581.821	141.359	0.042	-0.055
-580.806	-125.861	0.255	-0.039
-579.792	31.065	-0.195	0.168
-578.777	-2.668	-0.232	-0.163
-577.763	-200.000	-0.002	-0.198
-576.748	-166.229	-0.052	0.002
-575.733	254.574	-0.270	0.463
-574.719	-200.000	0.013	0.354
-573.704	228.980	-0.042	0.069
-572.690	-200.000	-0.065	-0.313
-571.675	20.603	0.205	0.166
-570.661	2.687	-0.294	0.213
-569.646	-200.000	0.021	-0.192
-568.631	443.579	-0.051	-0.113
-567.617	219.987	0.128	-0.205
-566.602	-49.653	0.220	-0.105
-565.588	27.031	-0.100	0.084
-564.573	259.266	-0.117	-0.203
-563.558	-200.000	-0.041	-0.271
-562.544	-200.000	-0.095	-0.513
-561.529	-133.125	0.249	0.032
-560.515	0.398	-0.105	-0.075
-559.500	127.301	-0.048	0.061
-558.485	-3.032	-0.189	0.132
-557.471	80.874	-0.129	-0.139
-556.456	547.941	0.094	-0.226
-555.442	772.504	0.049	0.133
-554.427	-55.752	0.130	-0.058
-553.412	5.016	-0.159	-0.117
-552.398	60.195	0.104	-0.103
-551.383	-8.468	-0.118	-0.079
-550.369	-30.003	0.177	0.101
-549.354	563.055	-0.106	0.258
-548.339	-200.000	0.004	0.034
-547.325	414.821	-0.104	0.221
-546.310	-14.433	0.121	-0.078
-545.296	245.027	-0.005	-0.008
-544.281	30.985	-0.173	0.148
-543.266	800.000	0.068	-0.236
-542.252	800.000	-0.078	0.323
-541.237	-15.807	-0.138	-0.088
-540.223	-141.720	0.096	-0.010
-539.208	-200.000	-0.071	0.361
-538.193	39.377	-0.023	0.021
-537.179	108.171	0.134	-0.159
-536.164	11.877	-0.241	-0.185
-535.150	-75.955	-0.206	0.073
-534.135	-200.000	0.037	-0.304
-533.121	-26.151	-0.211	0.124
-532.106	76.173	-0.114	0.121
-531.091	-123.093	-0.135	-0.022
-530.077	135.400	-0.156	0.202
-529.062	98.620	-0.143	0.164
-528.048	34.760	0.137	-0.120
-527.033	-13.896	0.204	0.132
-526.018	-147.101	-0.083	0.007
-525.004	-92.981	-0.016	-0.005
-523.989	-119.152	0.370	-0.065
-522.975	41.061	0.052	0.046
-521.960	-51.276	0.261	0.122
-520.945	-100.875	-0.067	0.017
-519.931	559.876	-0.124	-0.300
-518.916	-95.178	0.271	0.073
-517.902	105.442	0.035	0.041
-516.887	-130.785	-0.185	0.025
-515.872	-99.411	0.347	0.087
-514.858	-89.194	-0.212	0.063
-513.843	-95.558	-0.325	-0.087
-512.829	-200.000	-0.018	-0.084
-511.814	800.000	-0.089	0.257
-510.799	-200.000	0.007	-0.166
-509.785	-33.665	-0.266	-0.146
-508.770	3.850	-0.151	-0.110
-507.756	-182.017	-0.244	-0.005
-506.741	-52.275	-0.284	0.131
-505.726	-33.618	0.224	0.123
-504.712	-71.667	-0.382	-0.142
-503.697	-58.466	-0.106	-0.046
-502.683	132.823	0.137	-0.177
-501.668	800.000	-0.028	-0.106
-500.653	156.357	0.211	0.291
-499.639	-200.000	-0.003	0.119
-498.624	-200.000	-0.012	0.239
-497.610	-200.000	0.030	-0.164
-496.595	-58.113	0.352	0.153
-495.581	5.078	-0.152	-0.112
-494.566	-70.741	-0.310	-0.117
-493.551	53.657	-0.160	0.153
-492.537	-23.309	0.183	0.110
-491.522	-146.454	-0.237	-0.021
-490.508	-200.000	0.059	-0.383
-489.493	78.057	-0.054	0.058
-488.478	-70.431	-0.369	-0.139
-487.464	42.239	0.063	0.057
-486.449	-108.965	0.286	0.061
-485.435	584.367	-0.084	-0.205
-484.420	-7.403	0.217	-0.147
-483.405	-15.210	-0.173	0.110
-482.391	261.528	-0.193	-0.334
-481.376	-97.281	-0.197	-0.051
-480.362	-200.000	0.009	-0.138
-479.347	-143.447	0.132	0.013
-478.332	4.275	-0.189	-0.138
-477.318	28.822	-0.234	-0.197
-476.303	174.532	0.131	-0.189
-475.289	-32.973	0.174	-0.096
-474.274	48.057	0.072	-0.067
-473.259	-2.066	-0.113	-0.079
-472.245	800.000	-0.032	0.098
-471.230	-200.000	-0.005	-0.245
-470.216	800.000	-0.071	0.237
-469.201	-122.125	0.418	-0.068
-468.186	-200.000	-0.038	0.205
-467.172	-183.649	0.096	-0.002
-466.157	-200.000	-0.017	-0.288
-465.143	115.547	0.111	0.136
-464.128	-25.570	-0.267	0.157
-463.113	110.088	0.121	0.145
-462.099	-132.154	0.405	-0.052
-461.084	-184.327	-0.145	-0.002
-460.070	44.678	0.261	0.239
-459.055	-147.281	0.317	0.027
-458.040	35.346	-0.156	-0.136
-457.026	800.000	0.027	-0.086
-456.011	-200.000	-0.012	-0.084
-454.997	800.000	0.048	-0.181
-453.982	-87.604	-0.295	-0.089
-452.968	66.346	-0.057	-0.058
-451.953	-75.891	-0.096	-0.034
-450.938	36.571	0.193	-0.170
-449.924	-2.309	-0.015	0.011
-448.909	79.934	-0.184	0.197
-447.895	545.070	0.152	-0.363
-446.880	514.220	-0.077	0.180
-445.865	-92.622	-0.362	0.101
-444.851	-200.000	0.046	-0.251
-443.836	-148.573	-0.253	-0.021
-442.822	264.019	0.155	-0.268
-441.807	20.557	-0.024	0.019
-440.792	37.021	-0.154	0.136
-439.778	-97.324	-0.086	0.022
-438.763	378.105	0.136	0.277
-437.749	419.584	-0.045	-0.097
-436.734	-102.996	-0.258	-0.061
-435.719	-200.000	0.010	-0.361
-434.705	-93.347	-0.178	0.049
-433.690	336.334	0.106	-0.205
-432.676	33.351	0.309	0.267
-431.661	76.617	-0.143	-0.151
-430.646	23.153	-0.292	0.239
-429.632	800.000	0.095	0.331
-428.617	29.420	-0.133	-0.113
-427.603	800.000	-0.099	-0.295
-426.588	-36.169	0.233	-0.125
-425.573	38.770	-0.414	0.368
-424.559	-36.888	-0.104	0.056
-423.544	-200.000	0.001	-0.065
-422.530	-100.538	-0.303	-0.075
-421.515	209.774	-0.032	0.049
-420.500	-200.000	0.008	0.174
-419.486	-30.562	-0.169	0.095
-418.471	69.816	0.293	0.301
-417.457	-59.876	0.357	-0.152
-416.442	289.298	0.212	-0.382
-415.428	800.000	-0.095	-0.268
-414.413	800.000	-0.017	-0.066
-413.398	-110.500	-0.233	-0.048
-412.384	800.000	0.034	0.130
-411.369	-172.429	0.270	0.009
-410.355	-101.209	0.046	-0.011
-409.340	-150.594	0.075	-0.006
-408.325	250.347	-0.045	0.075
-407.311	800.000	-0.103	-0.292
-406.296	-35.374	0.241	-0.131
-405.282	-91.289	-0.121	0.034
-404.267	278.969	-0.158	-0.281
-403.252	348.110	0.053	0.104
-402.238	420.732	-0.117	0.249
-401.223	-200.000	0.022	0.152
-400.209	134.246	-0.160	-0.206
-399.194	-86.525	0.282	0.086
-398.179	-68.327	0.120	-0.046
-397.165	195.491	-0.183	-0.276
-396.150	273.613	0.064	-0.113
-395.136	-200.000	0.019	0.147
-394.121	358.437	0.187	0.372
-393.106	-200.000	-0.030	-0.198
-392.092	277.906	-0.149	-0.263
-391.077	36.981	0.221	0.194
-390.063	800.000	0.036	-0.130
-389.048	-200.000	-0.026	0.274
-388.033	-55.123	0.254	0.114
-387.019	-79.692	0.152	0.051
-386.004	54.468	-0.151	0.145
-384.990	-70.061	0.328	0.124
-383.975	-14.533	-0.278	0.178
-382.960	84.192	0.109	0.118
-381.946	-200.000	0.010	-0.187
-380.931	214.498	-0.130	0.204
-379.917	-123.079	0.560	0.089
-378.902	486.590	0.112	0.254
-377.888	-200.000	-0.033	-0.194
-376.873	31.384	-0.056	-0.048
-375.858	-85.910	-0.291	-0.089
-374.844	317.483	-0.047	-0.089
-373.829	-55.139	-0.129	0.058
-372.815	-144.177	0.149	0.014
-371.800	800.000	-0.031	-0.103
-370.785	800.000	-0.059	0.162
-369.771	-121.888	0.057	0.009
-368.756	202.085	-0.117	-0.180
-367.742	800.000	-0.033	-0.137
-366.727	322.011	-0.071	0.135
-365.712	-36.201	-0.154	-0.083
-364.698	-38.467	0.159	-0.083
-363.683	-15.912	0.266	-0.168
-362.669	20.619	-0.201	-0.161
-361.654	-200.000	0.027	0.415
-360.639	128.457	0.057	0.072
-359.625	-200.000	-0.016	0.206
-358.610	273.877	0.087	-0.153
-357.596	-122.727	0.149	-0.024
-356.581	800.000	-0.047	-0.193
-355.566	-38.924	0.284	0.148
-354.552	800.000	0.164	0.494
-353.537	-200.000	0.025	-0.133
-352.523	32.296	-0.134	0.115
-351.508	52.557	0.098	-0.093
-350.493	-76.970	0.317	0.110
-349.479	38.295	0.229	0.203
-348.464	179.182	0.228	-0.331
-347.450	800.000	0.074	-0.213
-346.435	1.418	-0.111	-0.079
-345.420	-5.174	-0.173	0.118
-344.406	766.988	0.020	0.054
-343.391	-200.000	0.061	-0.332
-342.377	181.398	-0.134	0.196
-341.362	375.610	-0.138	0.278
-340.348	-200.000	0.026	0.137
-339.333	156.366	0.135	0.184
-338.318	-200.000	0.022	0.198
-337.304	-44.580	-0.457	-0.227
-336.289	-200.000	0.006	0.109
-335.275	99.892	0.234	0.269
-334.260	17.228	-0.108	-0.085
-333.245	92.427	0.078	0.087
-332.231	-200.000	-0.012	-0.320
-331.216	-43.604	-0.249	-0.125
-330.202	800.000	0.062	-0.202
-329.187	643.924	-0.179	0.452
-328.172	25.074	0.206	-0.169
-327.158	218.877	0.203	-0.322
-326.143	-167.194	0.290	-0.012
-325.129	-200.000	-0.019	-0.378
-324.114	151.170	0.136	0.184
-323.099	303.671	0.112	0.205
-322.085	624.069	-0.097	-0.243
-321.070	-142.730	-0.152	0.015
-320.056	156.149	-0.122	0.167
-319.041	78.720	-0.234	0.248
-318.026	-112.521	0.179	-0.035
-317.012	800.000	0.013	-0.044
-315.997	344.447	0.019	0.038
-314.983	-94.058	0.219	0.059
-313.968	-80.658	0.009	-0.003
-312.953	-118.277	0.146	-0.026
-311.939	-3.850	-0.179	-0.123
-310.924	248.955	-0.112	-0.188
-309.910	-200.000	0.026	0.278
-308.895	-200.000	0.002	0.352
-307.880	-44.232	-0.414	0.206
-306.866	48.661	0.310	0.288
-305.851	-91.935	0.239	-0.067
-304.837	770.794	0.056	-0.150
-303.822	-200.000	-0.088	-0.478
-302.807	-200.000	0.019	0.212
-301.793	81.587	0.162	0.174
-300.778	-179.879	-0.097	0.002
-299.764	800.000	-0.025	0.069
-298.749	-108.223	-0.234	-0.050
-297.735	-152.719	-0.127	0.009
-296.720	800.000	-0.062	-0.182
-295.705	-200.000	0.005	-0.029
-294.691	-167.904	-0.256	-0.010
-293.676	187.828	0.160	0.237
-292.662	-80.982	0.240	0.079
-291.647	800.000	0.046	0.142
-290.632	-20.032	0.044	-0.027
-289.618	-144.012	-0.336	0.031
-288.603	-162.163	0.185	-0.009
-287.589	-65.219	0.127	-0.051
-286.574	67.700	0.146	-0.148
-285.559	-67.584	0.272	-0.106
-284.545	800.000	-0.045	-0.155
-283.530	-81.671	0.197	-0.064
-282.516	-66.851	-0.275	-0.108
-281.501	99.381	-0.392	0.449
-280.486	-200.000	0.063	-0.463
-279.472	155.396	-0.120	-0.163
-278.457	-149.586	-0.358	0.028
-277.443	-65.542	0.266	-0.106
-276.428	195.556	-0.038	-0.057
-275.413	-200.000	-0.047	-0.268
-274.399	14.102	-0.278	0.214
-273.384	800.000	-0.087	0.263
-272.370	183.241	0.197	0.288
-271.355	-134.508	-0.133	-0.016
-270.340	800.000	-0.026	-0.091
-269.326	-200.000	0.051	0.446
-268.311	-200.000	-0.006	-0.331
-267.297	800.000	-0.016	-0.055
-266.282	-49.519	0.442	-0.208
-265.267	40.124	-0.181	0.161
-264.253	-42.871	0.259	0.130
-263.238	-69.615	0.227	-0.086
-262.224	-41.755	-0.339	0.172
-261.209	-167.542	-0.205	-0.008
-260.195	126.626	-0.025	-0.031
-259.180	22.252	0.226	-0.182
-258.165	800.000	-0.067	0.228
-257.151	-43.823	0.138	-0.069
-256.136	175.583	0.070	0.100
-255.122	136.876	-0.116	-0.150
-254.107	-30.667	0.161	0.090
-253.092	800.000	-0.060	-0.183
-252.078	63.472	-0.061	0.061
-251.063	354.786	-0.042	-0.082
-250.049	54.882	-0.338	0.323
-249.034	800.000	0.046	0.137
-248.019	-35.613	-0.206	-0.111
-247.005	26.657	-0.058	0.048
-245.990	-115.063	-0.111	-0.021
-244.976	-171.973	0.150	0.005
-243.961	-200.000	0.008	0.083
-242.946	-11.434	0.206	0.134
-241.932	7.497	0.221	0.164
-240.917	468.909	0.165	0.366
-239.903	-122.051	0.243	-0.039
-238.888	800.000	-0.048	-0.131
-237.873	-107.021	0.248	-0.054
-236.859	32.818	0.150	0.129
-235.844	-35.194	0.175	-0.094
-234.830	-200.000	-0.020	0.172
-233.815	-95.065	0.063	-0.017
-232.800	120.673	0.147	0.180
-231.786	68.861	-0.080	-0.081
-230.771	17.406	-0.185	0.145
-229.757	-156.347	0.326	0.020
-228.742	93.360	0.232	-0.260
-227.727	-10.515	-0.272	0.178
-226.713	29.722	0.198	-0.167
-225.698	-200.000	-0.023	0.464
-224.684	-72.164	-0.277	-0.101
-223.669	-117.880	-0.321	0.057
-222.655	336.373	-0.103	-0.197
-221.640	-66.983	0.176	0.069
-220.625	-126.195	0.179	0.026
-219.611	800.000	0.046	-0.142
-218.596	-200.000	0.051	0.311
-217.582	230.327	0.108	-0.175
-216.567	800.000	-0.037	0.158
-215.552	-96.182	0.174	0.046
-214.538	-200.000	0.006	0.033
-213.523	26.074	0.281	-0.231
-212.509	603.762	0.067	-0.164
-211.494	660.867	0.062	0.158
-210.479	558.910	0.109	0.259
-209.465	24.632	0.190	0.155
-208.450	-34.243	0.044	-0.024
-207.436	425.718	0.136	0.290
-206.421	800.000	0.037	-0.119
-205.406	100.303	0.193	0.221
-204.392	-24.939	0.336	0.197
-203.377	-3.737	-0.196	0.134
-202.363	313.735	0.193	0.358
-201.348	-106.091	-0.132	0.029
-200.333	-62.202	0.111	-0.045
-199.319	0.056	0.261	-0.183
-198.304	245.338	0.052	-0.086
-197.290	180.691	-0.110	-0.160
-196.275	308.696	-0.135	-0.249
-195.260	143.396	-0.102	0.133
-194.246	549.378	-0.116	-0.274
-193.231	-14.623	-0.206	-0.131
-192.217	63.908	0.154	0.153
-191.202	63.527	0.227	0.225
-190.187	-31.622	0.164	-0.091
-189.173	-108.503	0.148	-0.031
-188.158	-200.000	0.012	-0.253
-187.144	-12.093	-0.254	0.164
-186.129	-77.608	0.247	0.084
-185.114	56.116	0.176	0.168
-184.100	-10.158	0.101	0.066
-183.085	-136.615	-0.142	0.016
-182.071	-200.000	-0.035	-0.161
-181.056	800.000	0.051	0.182
-180.042	-144.009	0.260	-0.024
-179.027	436.752	-0.053	-0.113
-178.012	-200.000	-0.092	-0.542
-176.998	-200.000	-0.062	0.308
-175.983	-75.703	0.036	0.013
-174.969	800.000	0.035	0.139
-173.954	108.766	-0.249	-0.294
-172.939	-126.648	-0.366	-0.053
-171.925	800.000	-0.081	0.228
-170.910	154.007	-0.118	-0.159
-169.896	-75.434	-0.091	0.032
-168.881	22.249	0.206	-0.166
-167.866	382.508	-0.100	-0.203
-166.852	-95.569	-0.362	-0.096
-165.837	24.808	-0.266	-0.217
-164.823	338.094	0.104	-0.199
-163.808	12.328	-0.163	0.124
-162.793	-197.724	0.174	-0.001
-161.779	-200.000	-0.001	0.136
-160.764	800.000	-0.069	-0.280
-159.750	-145.870	0.126	-0.011
-158.735	1.358	-0.124	0.087
-157.720	-148.913	-0.135	-0.011
-156.706	-200.000	-0.036	0.259
-155.691	-200.000	-0.019	0.457
-154.677	-76.591	0.089	0.031
-153.662	-200.000	0.033	-0.423
-152.647	137.677	-0.111	-0.143
-151.633	639.171	0.085	0.212
-150.618	800.000	0.068	0.222
-149.604	-200.000	0.000	-0.047
-148.589	136.132	-0.150	-0.192
-147.574	-200.000	-0.017	0.174
-146.560	-200.000	0.001	0.121
-145.545	191.700	0.036	0.054
-144.531	219.254	-0.139	-0.219
-143.516	-62.056	0.224	0.092
-142.502	-2.195	-0.137	0.095
-141.487	-41.899	-0.218	0.110
-140.472	80.170	-0.027	-0.029
-139.458	342.149	-0.125	0.240
-138.443	-200.000	0.012	0.141
-137.429	347.395	-0.017	0.032
-136.414	-112.069	0.207	-0.041
-135.399	336.444	0.116	-0.222
-134.385	-96.446	0.389	-0.101
-133.370	800.000	-0.081	-0.272
-132.356	-31.625	0.134	0.074
-131.341	-200.000	-0.036	-0.184
-130.326	-149.208	-0.373	-0.029
-129.312	-194.010	-0.319	-0.003
-128.297	-78.545	0.093	0.031
-127.283	-21.087	0.260	0.157
-126.268	800.000	0.117	0.335
-125.253	243.446	-0.137	-0.225
-124.239	-46.376	0.242	0.117
-123.224	101.596	-0.154	0.176
-122.210	-33.354	0.249	0.135
-121.195	81.511	-0.088	-0.094
-120.180	800.000	-0.093	-0.320
-119.166	592.812	-0.143	0.346
-118.151	104.639	-0.117	-0.135
-117.137	195.598	-0.274	-0.410
-116.122	800.000	-0.098	-0.294
-115.107	265.161	0.175	-0.299
-114.093	-54.773	-0.175	-0.078
-113.078	-157.945	-0.333	0.019
-112.064	252.930	0.165	-0.277
-111.049	32.895	-0.135	-0.115
-110.034	192.056	0.119	0.176
-109.020	-41.414	0.082	-0.042
-108.005	1.851	0.249	-0.177
-106.991	122.899	0.149	0.184
-105.976	-14.796	-0.253	-0.160
-104.962	-111.813	-0.217	-0.043
-103.947	-127.580	-0.412	0.059
-102.932	-124.607	-0.172	-0.026
-101.918	227.607	0.089	-0.142
-100.903	154.489	0.084	-0.114
-99.889	800.000	-0.044	0.180
-98.874	218.502	-0.033	0.052
-97.859	132.984	-0.128	0.163
-96.845	-200.000	-0.008	0.076
-95.830	319.759	-0.083	-0.154
-94.816	800.000	0.072	0.209
-93.801	800.000	0.062	0.175
-92.786	56.992	-0.280	-0.268
-91.772	-200.000	-0.052	-0.278
-90.757	-184.974	-0.129	0.002
-89.743	-200.000	-0.010	0.245
-88.728	-200.000	0.009	0.141
-87.713	143.232	0.054	0.071
-86.699	-118.006	-0.344	-0.060
-85.684	-150.174	0.115	0.009
-84.670	-144.711	-0.011	-0.001
-83.655	510.207	-0.094	-0.215
-82.640	-200.000	-0.086	-0.439
-81.626	-61.385	-0.098	-0.041
-80.611	-36.984	0.177	-0.093
-79.597	105.486	-0.147	-0.170
-78.582	236.164	0.087	0.142
-77.567	-12.085	-0.139	-0.089
-76.553	113.606	-0.095	-0.114
-75.538	-200.000	0.004	-0.028
-74.524	800.000	0.113	-0.319
-73.509	533.236	0.097	0.225
-72.494	63.245	-0.196	0.193
-71.480	-83.082	-0.250	0.079
-70.465	-69.380	0.127	-0.048
-69.451	-200.000	0.044	0.252
-68.436	-169.935	-0.205	-0.007
-67.422	-106.012	0.337	0.074
-66.407	-200.000	-0.034	-0.275
-65.392	800.000	-0.119	-0.403
-64.378	206.833	0.112	-0.171
-63.363	25.814	0.133	-0.109
-62.349	-107.722	-0.146	0.031
-61.334	41.334	-1.033	-0.917
-60.319	-40.179	0.478	0.244
-59.305	489.772	-0.502	-1.127
-58.290	-200.000	0.173	0.855
-57.276	800.000	0.584	1.590
-56.261	-200.000	101.742	589.392
-55.246	574.781	1413.724	3384.674
-54.232	191.193	2602.474	3842.095
-53.217	110.611	2263.971	2670.434
-52.203	40.081	1886.748	1663.262
-51.188	34.056	1677.568	1433.560
-50.173	31.530	1633.647	1377.402
-49.159	49.289	1684.174	1553.210
-48.144	50.796	1700.654	1579.618
-47.130	33.783	1660.365	1416.597
-46.115	31.098	1645.491	1383.967
-45.100	30.821	1641.050	1378.128
-44.086	30.952	1638.020	1376.495
-43.071	30.896	1635.467	1373.882
-42.057	30.801	1633.308	1371.316
-41.042	30.919	1631.033	1370.219
-40.027	30.830	1629.333	1368.082
-39.013	30.852	1627.237	1366.432
-37.998	30.864	1625.645	1365.123
-36.984	30.866	1624.895	1364.459
-35.969	30.977	1623.240	1363.828
-34.954	31.070	1621.418	1362.921
-33.940	30.931	1620.566	1361.137
-32.925	30.975	1618.228	1359.438
-31.911	30.947	1616.739	1357.932
-30.896	30.967	1614.583	1356.211
-29.881	30.879	1613.390	1354.514
-28.867	30.959	1611.380	1353.351
-27.852	30.896	1610.459	1352.067
-26.838	30.831	1609.218	1350.501
-25.823	30.973	1607.116	1349.711
-24.809	30.920	1606.465	1348.730
-23.794	30.916	1604.543	1347.032
-22.779	30.954	1602.836	1345.822
-21.765	30.934	1601.304	1344.334
-20.750	30.877	1599.919	1342.713
-19.736	30.962	1598.804	1342.336
-18.721	31.011	1596.835	1340.980
-17.706	30.986	1595.437	1339.573
-16.692	30.895	1594.265	1337.881
-15.677	30.958	1592.760	1337.014
-14.663	31.021	1591.588	1336.434
-13.648	31.042	1589.711	1334.953
-12.633	30.982	1588.520	1333.469
-11.619	30.821	1587.208	1331.163
-10.604	30.928	1585.363	1330.329
-9.590	30.928	1584.564	1329.608
-8.575	31.021	1583.012	1328.917
-7.560	31.028	1581.815	1327.910
-6.546	31.019	1580.882	1327.004
-5.531	30.915	1580.174	1325.620
-4.517	30.919	1578.603	1324.281
-3.502	30.932	1577.817	1323.660
-2.487	31.033	1576.200	1322.964
-1.473	30.592	1564.317	1309.831
-0.458	27.702	1545.147	1273.587
0.556	25.624	1545.198	1240.980
1.571	23.025	1568.621	1241.458
2.586	22.477	1581.343	1247.531
3.600	20.104	1528.406	1189.399
4.615	12.136	1420.431	1054.253
5.629	4.906	1358.225	963.426
6.644	3.575	1349.996	949.317
7.659	3.542	1348.900	948.260
8.673	3.636	1347.986	948.112
9.688	3.607	1346.066	946.497
10.702	3.423	1343.622	943.573
11.717	6.691	1349.240	967.494
12.731	15.360	1365.201	1032.415
13.746	22.661	1376.895	1086.322
14.761	24.313	1379.157	1098.191
15.775	24.113	1377.692	1095.695
16.790	23.485	1375.960	1090.363
17.804	23.122	1374.395	1086.798
18.819	22.886	1373.857	1084.822
19.834	22.972	1372.730	1084.367
20.848	22.936	1372.121	1083.568
21.863	22.900	1371.506	1082.766
22.877	22.800	1370.353	1081.147
23.892	22.807	1369.858	1080.702
24.907	22.843	1368.503	1079.762
25.921	22.845	1366.966	1078.466
26.936	22.783	1366.419	1077.559
27.950	22.771	1365.873	1076.959
28.965	22.986	1364.168	1076.830
29.980	22.941	1363.776	1076.153
30.994	23.013	1363.160	1076.007
32.009	23.077	1362.319	1075.642
33.023	23.107	1360.537	1074.320
34.038	22.958	1359.613	1072.588
35.053	22.920	1358.250	1071.189
36.067	22.965	1357.101	1070.458
37.082	22.808	1356.681	1069.084
38.096	22.986	1355.491	1069.131
39.111	22.997	1355.031	1068.741
40.126	22.865	1354.200	1067.193
41.140	22.612	1352.676	1064.365
42.155	22.350	1352.387	1062.463
43.169	22.291	1352.193	1061.863
44.184	22.289	1351.711	1061.374
45.199	22.363	1351.843	1061.831
46.213	22.659	1351.517	1063.266
47.228	22.729	1351.077	1063.253
48.242	22.803	1349.574	1062.420
49.257	22.805	1348.454	1061.453
50.271	22.872	1346.804	1060.466
51.286	22.788	1345.913	1059.166
52.301	22.853	1343.903	1057.877
53.315	22.586	1343.402	1055.794
54.330	22.580	1342.272	1054.775
55.344	22.492	1341.185	1053.303
56.359	22.457	1339.888	1051.981
57.374	22.427	1338.851	1050.891
58.388	22.387	1338.439	1050.236
59.403	22.251	1337.794	1048.831
60.417	22.205	1337.493	1048.225
61.432	22.231	1336.185	1047.262
62.447	22.141	1335.331	1045.965
63.461	22.103	1334.191	1044.756
64.476	22.057	1333.231	1043.634
65.490	22.093	1331.492	1042.397
66.505	22.037	1330.470	1041.172
67.520	22.171	1329.285	1040.949
68.534	22.036	1328.569	1039.494
69.549	22.145	1326.629	1038.525
70.563	21.968	1325.931	1036.846
71.578	21.905	1325.266	1035.858
72.593	21.729	1323.989	1033.730
73.607	21.832	1323.342	1033.745
74.622	21.803	1322.834	1033.084
75.636	21.849	1322.272	1032.825
76.651	21.953	1321.433	1032.688
77.666	22.024	1320.790	1032.514
78.680	21.999	1320.606	1032.129
79.695	21.980	1320.376	1031.747
80.709	22.169	1319.516	1032.095
81.724	22.248	1319.065	1032.117
82.739	22.363	1318.625	1032.356
83.753	22.690	1317.830	1033.558
84.768	22.854	1316.957	1033.743
85.782	22.996	1315.950	1033.689
86.797	23.120	1315.030	1033.598
87.812	22.962	1313.692	1031.537
88.826	22.924	1312.096	1029.968
89.841	22.955	1311.253	1029.399
90.855	23.102	1310.519	1029.583
91.870	23.074	1310.149	1029.038
92.884	23.199	1308.927	1028.713
93.899	23.159	1308.569	1028.110
94.914	23.233	1307.540	1027.638
95.928	23.214	1306.830	1026.880
96.943	23.164	1305.448	1025.415
97.957	23.151	1305.096	1024.974
98.972	22.960	1304.476	1023.290
99.987	22.944	1303.685	1022.488
101.001	22.999	1302.613	1021.874
102.016	22.976	1301.593	1020.849
103.030	22.954	1301.093	1020.237
104.045	22.997	1299.578	1019.207
105.060	22.758	1298.379	1016.801
106.074	22.451	1296.826	1013.727
107.089	22.273	1295.313	1011.434
108.103	22.062	1293.962	1009.077
109.118	22.024	1292.466	1007.604
110.133	22.054	1291.021	1006.559
111.147	22.049	1290.053	1005.689
112.162	22.198	1289.056	1005.670
113.176	22.228	1288.526	1005.342
114.191	22.272	1287.613	1004.793
115.206	22.300	1286.639	1004.102
116.220	22.306	1285.302	1003.003
117.235	22.286	1284.056	1001.827
118.249	22.062	1283.550	1000.068
119.264	21.907	1282.210	998.056
120.279	21.974	1281.590	997.869
121.293	21.952	1280.306	996.653
122.308	21.879	1279.142	995.243
123.322	21.795	1277.681	993.543
124.337	21.703	1277.462	992.763
125.352	21.791	1275.913	991.973
126.366	21.711	1274.796	990.560
127.381	21.679	1274.064	989.723
128.395	21.605	1273.098	988.468
129.410	21.606	1271.887	987.446
130.424	21.680	1271.662	987.600
131.439	21.888	1271.243	988.360
132.454	22.168	1270.386	989.184
133.468	22.212	1270.034	989.068
134.483	22.253	1269.368	988.697
135.497	22.247	1268.127	987.608
136.512	22.279	1267.214	986.985
137.527	22.290	1265.495	985.621
138.541	22.267	1264.481	984.617
139.556	22.355	1263.938	984.599
140.570	22.420	1263.629	984.638
141.585	22.646	1262.328	984.797
142.600	22.769	1261.457	984.715
143.614	23.044	1260.690	985.566
144.629	22.972	1259.927	984.478
145.643	22.873	1258.941	983.069
146.658	22.763	1257.316	981.102
147.673	22.790	1255.521	979.765
148.687	22.516	1255.557	978.188
149.702	22.277	1253.637	975.281
150.716	22.139	1251.809	973.006
151.731	22.001	1250.970	971.503
152.746	22.203	1249.910	971.709
153.760	22.360	1249.051	971.824
154.775	22.473	1248.102	971.626
155.789	22.476	1247.569	971.140
156.804	22.639	1246.076	970.788
157.819	22.586	1245.505	969.966
158.833	22.666	1244.815	969.782
159.848	22.785	1244.234	969.901
160.862	22.725	1243.406	968.838
161.877	22.512	1241.445	966.056
162.892	22.234	1239.894	963.245
163.906	22.050	1239.349	961.724
164.921	22.114	1238.088	961.013
165.935	22.136	1237.850	960.865
166.950	22.268	1237.332	961.095
167.964	22.355	1236.962	961.201
168.979	22.280	1236.005	959.960
169.994	22.304	1235.033	959.250
171.008	22.169	1234.010	957.639
172.023	22.402	1233.436	958.375
173.037	22.628	1233.535	959.599
174.052	22.745	1232.202	959.113
175.067	22.364	1231.150	956.143
176.081	22.002	1229.960	953.165
177.096	22.080	1228.792	952.600
178.110	22.179	1227.978	952.424
179.125	22.239	1227.231	952.080
180.140	22.536	1225.928	952.595
181.154	22.682	1225.441	952.919
182.169	22.640	1224.595	951.949
183.183	22.636	1223.617	951.083
184.198	22.885	1222.274	951.297
185.213	22.829	1221.259	950.121
186.227	22.811	1220.543	949.382
187.242	22.829	1219.668	948.717
188.256	22.915	1218.740	948.373
189.271	22.964	1217.761	947.790
190.286	22.857	1216.928	946.485
191.300	22.325	1216.179	942.967
192.315	22.198	1215.824	941.928
193.329	22.334	1214.441	941.503
194.344	22.219	1213.982	940.448
195.359	22.311	1213.127	940.192
196.373	22.189	1212.778	939.187
197.388	22.175	1212.653	938.932
198.402	22.695	1212.390	941.420
199.417	22.858	1212.594	942.366
200.432	22.982	1212.068	942.536
201.446	23.014	1211.549	942.218
202.461	23.228	1210.530	942.484
203.475	23.112	1209.065	940.640
204.490	22.777	1207.679	937.703
205.504	22.602	1206.617	935.863
206.519	22.525	1205.605	934.590
207.534	22.282	1203.821	931.839
208.548	22.290	1203.416	931.484
209.563	22.410	1202.370	931.226
210.577	22.401	1201.382	930.329
211.592	22.503	1200.938	930.445
212.607	22.941	1200.592	932.405
213.621	22.961	1200.104	932.046
214.636	22.725	1198.722	929.650
215.650	22.644	1198.136	928.685
216.665	22.943	1197.112	929.385
217.680	23.239	1196.640	930.493
218.694	23.194	1195.786	929.509
219.709	23.117	1194.630	928.126
220.723	23.059	1194.225	927.423
221.738	23.059	1193.300	926.619
222.753	22.912	1192.307	924.999
223.767	22.773	1191.926	923.894
224.782	23.005	1191.565	924.745
225.796	23.233	1191.096	925.493
226.811	23.200	1190.494	924.771
227.826	22.864	1189.687	922.305
228.840	22.769	1188.875	921.100
229.855	22.646	1187.923	919.637
230.869	22.653	1187.220	919.048
231.884	22.503	1186.616	917.718
232.899	22.497	1184.794	916.201
233.913	22.376	1183.872	914.774
234.928	22.349	1183.568	914.319
235.942	22.316	1182.605	913.325
236.957	22.133	1182.053	911.865
237.972	22.153	1181.242	911.265
238.986	22.278	1180.474	911.237
240.001	22.348	1179.979	911.136
241.015	22.381	1179.253	910.666
242.030	22.365	1178.558	909.966
243.045	22.702	1177.784	911.033
244.059	22.756	1177.298	910.851
245.074	22.785	1176.546	910.342
246.088	22.835	1176.050	910.132
247.103	22.963	1175.754	910.485
248.117	23.116	1175.321	910.854
249.132	23.491	1174.442	912.020
250.147	23.744	1174.452	913.249
251.161	23.860	1173.772	913.236
252.176	23.928	1173.150	913.023
253.190	23.972	1172.573	912.719
254.205	23.973	1172.049	912.231
255.220	24.128	1171.607	912.604
256.234	24.104	1171.047	911.964
257.249	24.020	1170.352	910.914
258.263	24.033	1169.542	910.265
259.278	23.904	1168.603	908.796
260.293	23.830	1168.587	908.324
261.307	24.057	1167.637	908.663
262.322	24.154	1166.920	908.524
263.336	24.075	1166.086	907.388
264.351	24.167	1165.634	907.425
265.366	24.005	1165.572	906.473
266.380	24.027	1164.798	905.903
267.395	23.949	1163.464	904.388
268.409	23.790	1163.108	903.224
269.424	23.677	1162.007	901.715
270.439	23.666	1161.732	901.367
271.453	23.755	1160.751	900.977
272.468	23.477	1159.834	898.774
273.482	23.397	1158.816	897.502
274.497	23.487	1158.346	897.514
275.512	23.474	1157.438	896.664
276.526	23.460	1156.874	896.076
277.541	23.485	1155.820	895.311
278.555	23.617	1155.403	895.574
279.570	23.740	1155.571	896.243
280.585	24.011	1154.776	896.916
281.599	23.878	1153.890	895.477
282.614	23.705	1152.607	893.532
283.628	23.595	1151.211	891.817
284.643	23.622	1150.161	891.062
285.657	23.536	1149.774	890.250
286.672	23.628	1148.334	889.520
287.687	23.576	1147.878	888.827
288.701	23.631	1147.279	888.557
289.716	23.625	1146.331	887.716
290.730	23.575	1145.646	886.857
291.745	23.598	1145.404	886.707
292.760	23.684	1144.419	886.293
293.774	23.799	1144.049	886.501
294.789	23.846	1144.229	886.798
295.803	23.908	1143.100	886.155
296.818	23.754	1141.883	884.364
297.833	23.608	1141.180	883.015
298.847	23.642	1140.393	882.501
299.862	23.530	1139.486	881.160
300.876	23.546	1139.382	881.085
301.891	23.717	1139.087	881.627
302.906	24.072	1138.405	882.782
303.920	24.127	1137.446	882.232
304.935	24.229	1137.228	882.488
305.949	24.236	1137.123	882.366
306.964	24.433	1136.166	882.518
307.979	24.182	1135.050	880.335
308.993	23.969	1134.416	878.711
310.008	24.134	1133.676	878.874
311.022	24.185	1133.052	878.565
312.037	24.092	1132.134	877.316
313.052	23.993	1130.882	875.783
314.066	23.822	1129.618	873.885
315.081	23.456	1128.500	871.146
316.095	23.375	1127.828	870.149
317.110	23.345	1127.247	869.481
318.125	23.496	1126.501	869.567
319.139	23.378	1126.041	868.557
320.154	23.346	1125.500	867.908
321.168	23.334	1124.585	867.067
322.183	23.380	1124.158	866.884
323.197	23.468	1123.721	866.899
324.212	23.609	1122.829	866.822
325.227	23.640	1122.615	866.735
326.241	23.584	1122.410	866.227
327.256	23.666	1120.782	865.293
328.270	23.470	1120.049	863.695
329.285	23.485	1119.110	862.969
330.300	23.613	1118.385	862.953
331.314	23.580	1117.344	861.915
332.329	23.663	1116.268	861.411
333.343	23.610	1115.482	860.473
334.358	23.851	1115.103	861.272
335.373	23.927	1115.157	861.602
336.387	24.006	1114.360	861.296
337.402	23.972	1113.618	860.481
338.416	24.252	1112.996	861.276
339.431	24.131	1112.703	860.389
340.446	24.332	1112.483	861.111
341.460	24.532	1111.650	861.355
342.475	24.586	1111.398	861.347
343.489	24.646	1110.218	860.647
344.504	24.792	1109.469	860.691
345.519	24.634	1108.759	859.302
346.533	24.812	1107.746	859.298
347.548	24.838	1107.105	858.846
348.562	24.719	1106.331	857.600
349.577	24.493	1104.751	855.218
350.592	24.239	1103.301	852.805
351.606	23.988	1102.956	851.263
352.621	23.723	1102.570	849.623
353.635	23.764	1101.622	849.010
354.650	23.676	1100.929	847.981
355.665	23.937	1100.193	848.586
356.679	24.089	1099.838	848.961
357.694	24.159	1099.268	848.780
358.708	24.206	1098.904	848.648
359.723	24.210	1098.091	847.966
360.738	24.171	1097.426	847.188
361.752	24.204	1096.918	846.881
362.767	24.101	1096.871	846.279
363.781	24.238	1096.062	846.231
364.796	24.597	1095.665	847.552
365.810	24.654	1095.858	847.898
366.825	24.896	1094.976	848.289
367.840	25.030	1094.700	848.631
368.854	25.047	1094.242	848.284
369.869	25.007	1093.381	847.350
370.883	24.884	1092.368	845.908
371.898	24.831	1091.191	844.674
372.913	24.783	1090.477	843.820
373.927	24.712	1090.188	843.184
374.942	24.841	1090.065	843.622
375.956	24.980	1088.796	843.222
376.971	24.785	1088.653	842.121
377.986	24.846	1087.967	841.800
379.000	25.015	1087.816	842.402
380.015	25.135	1087.551	842.689
381.029	25.260	1086.615	842.475
382.044	25.125	1086.055	841.334
383.059	25.148	1085.204	840.709
384.073	24.985	1084.217	839.103
385.088	25.151	1083.169	838.998
386.102	25.103	1082.734	838.363
387.117	24.872	1081.019	835.882
388.132	24.480	1080.087	833.256
389.146	24.572	1079.258	832.971
390.161	24.358	1078.636	831.422
391.175	24.378	1078.026	830.970
392.190	24.598	1077.696	831.665
393.205	24.940	1077.455	832.999
394.219	24.900	1076.528	832.022
395.234	24.744	1075.153	830.164
396.248	24.521	1074.152	828.279
397.263	24.397	1073.038	826.776
398.278	24.413	1072.588	826.429
399.292	24.526	1071.623	826.136
400.307	24.474	1071.119	825.434
401.321	24.343	1070.754	824.475
402.336	24.244	1069.283	822.808
403.350	24.248	1068.625	822.250
404.365	24.351	1068.581	822.616
405.380	24.534	1068.166	823.071
406.394	24.519	1067.549	822.450
407.409	24.913	1066.733	823.563
408.423	25.115	1066.582	824.304
409.438	25.171	1065.922	823.975
410.453	25.150	1065.222	823.268
411.467	25.280	1064.663	823.357
412.482	25.193	1063.812	822.230
413.496	25.341	1062.975	822.185
414.511	25.324	1062.987	822.042
415.526	25.403	1063.013	822.354
416.540	25.626	1062.289	822.741
417.555	25.600	1061.905	822.251
418.569	25.354	1060.837	820.230
419.584	25.154	1060.876	819.272
420.599	25.293	1059.541	818.803
421.613	155.046	1403.553	1794.997
422.628	142.512	1453.661	1795.080
