DTS Sentinel unit serial number:	SN413079Multiplexer serial number:	ORYXHardware model number:	OX4-SRSoftware version number:	ORYX F/W v4.00 Oryx Data Collector v3.7.2.0data status	okinstallation	princeton_trtdifferential loss correction	single-endedforward channel	channel 2reverse channel	N/Adate	2019/09/16time	02:03:34forward acquisition time	60.00reverse acquisition time	0.00gamma	496.2192k internal	0.2336k external	0.2336temperature offset calibration	0.9966default loss term (dB/km)	0.3790temperature slope calibration	1.0000multiplexer offset coefficient	1.0000multiplexer slope coefficient	1.0000fibre end	0.00T internal ref (°C)	27.48T ext. ref 1 (°C)	10.10T ext. ref 2 (°C)	22.37length (m)	temperature (°C)	Stokes	anti-Stokes-747.200	800.000	-0.026	-0.107
-746.185	-200.000	-0.001	0.367
-745.171	-200.000	0.090	0.403
-744.156	-200.000	0.002	0.429
-743.142	50.544	-0.153	0.146
-742.127	-55.772	-0.124	0.056
-741.112	3.840	-0.204	0.150
-740.098	81.960	-0.065	0.070
-739.083	129.889	-0.213	-0.273
-738.069	65.427	-0.296	0.300
-737.054	-200.000	-0.032	-0.191
-736.039	-200.000	-0.013	0.123
-735.025	-200.000	-0.016	-0.083
-734.010	-41.895	-0.184	-0.095
-732.996	-200.000	-0.074	-0.361
-731.981	420.763	-0.163	-0.350
-730.966	-165.755	-0.303	-0.013
-729.952	800.000	0.056	0.176
-728.937	-200.000	-0.023	0.368
-727.923	82.641	0.093	-0.101
-726.908	800.000	-0.091	0.272
-725.894	-33.379	-0.131	-0.073
-724.879	-91.596	-0.342	-0.098
-723.864	-200.000	0.073	-0.340
-722.850	-134.599	-0.080	0.010
-721.835	-124.894	-0.182	-0.028
-720.821	-170.880	0.193	0.007
-719.806	800.000	0.031	0.112
-718.791	-18.003	-0.299	-0.188
-717.777	-90.357	0.340	0.099
-716.762	-52.890	-0.396	-0.183
-715.748	127.492	0.228	0.290
-714.733	43.133	-0.245	0.224
-713.718	-118.318	-0.170	-0.030
-712.704	800.000	0.094	-0.270
-711.689	-200.000	-0.011	0.210
-710.675	800.000	-0.019	-0.060
-709.660	-85.701	-0.316	0.098
-708.645	51.948	-0.184	0.175
-707.631	118.827	-0.025	-0.031
-706.616	21.415	-0.139	0.113
-705.602	-20.365	-0.417	-0.258
-704.587	-200.000	0.102	-0.000
-703.572	92.856	-0.145	-0.164
-702.558	-66.516	0.193	0.077
-701.543	-178.215	-0.329	0.008
-700.529	48.963	-0.080	-0.076
-699.514	12.362	-0.246	-0.190
-698.499	428.394	-0.020	0.043
-697.485	178.941	0.084	-0.123
-696.470	304.354	0.077	0.143
-695.456	800.000	0.050	0.146
-694.441	800.000	0.084	-0.251
-693.426	636.245	-0.066	0.169
-692.412	-42.828	0.046	-0.024
-691.397	86.503	-0.305	-0.337
-690.383	-88.489	0.172	-0.052
-689.368	-200.000	0.042	0.341
-688.354	-27.639	0.145	0.084
-687.339	-75.136	-0.160	-0.057
-686.324	276.035	-0.085	-0.151
-685.310	39.925	0.126	0.113
-684.295	-42.899	0.392	-0.199
-683.281	-35.219	-0.211	-0.115
-682.266	-9.813	-0.113	-0.075
-681.251	-63.647	-0.305	0.126
-680.237	-158.106	0.102	-0.006
-679.222	232.458	0.081	-0.133
-678.208	327.546	-0.104	-0.200
-677.193	-105.331	-0.209	0.048
-676.178	-200.000	0.025	-0.365
-675.164	467.968	-0.139	0.312
-674.149	46.719	0.316	0.294
-673.135	-200.000	0.010	-0.303
-672.120	172.568	-0.247	-0.356
-671.105	-117.585	0.362	-0.066
-670.091	-47.303	-0.240	0.117
-669.076	-80.627	-0.160	-0.053
-668.062	800.000	-0.026	0.092
-667.047	-171.260	0.173	0.006
-666.032	-200.000	0.004	-0.112
-665.018	47.143	0.090	-0.084
-664.003	-112.706	-0.234	-0.047
-662.989	800.000	0.011	0.046
-661.974	800.000	-0.066	-0.193
-660.959	-149.606	-0.274	0.022
-659.945	-84.489	-0.172	-0.054
-658.930	7.982	0.119	-0.089
-657.916	212.118	0.086	0.136
-656.901	-200.000	-0.015	-0.075
-655.886	-112.930	-0.259	0.051
-654.872	36.856	-0.355	-0.314
-653.857	800.000	-0.087	-0.366
-652.843	286.048	0.075	0.135
-651.828	439.553	-0.123	-0.269
-650.814	800.000	0.013	0.037
-649.799	484.093	-0.156	0.356
-648.784	-53.181	0.093	-0.043
-647.770	-200.000	0.315	0.000
-646.755	-79.768	-0.219	0.074
-645.741	364.336	-0.059	-0.118
-644.726	-91.236	0.369	0.106
-643.711	293.632	0.230	-0.421
-642.697	-57.987	-0.121	0.053
-641.682	27.437	0.069	-0.058
-640.668	-85.641	-0.472	0.147
-639.653	-100.992	-0.079	-0.019
-638.638	-104.113	-0.206	0.048
-637.624	527.880	-0.106	0.250
-636.609	43.229	0.075	0.068
-635.595	-172.672	-0.153	-0.005
-634.580	-121.710	-0.291	0.048
-633.565	444.679	0.037	-0.081
-632.551	800.000	0.093	-0.279
-631.536	-164.424	-0.199	-0.009
-630.522	-200.000	-0.031	-0.234
-629.507	-65.293	0.290	-0.117
-628.492	-24.298	-0.081	0.048
-627.478	-179.393	-0.036	-0.001
-626.463	-136.891	-0.225	0.026
-625.449	800.000	-0.075	-0.277
-624.434	800.000	0.035	-0.140
-623.419	-65.081	0.183	0.074
-622.405	290.952	0.048	-0.088
-621.390	800.000	-0.100	-0.376
-620.376	-165.086	-0.168	0.007
-619.361	-180.282	0.187	-0.004
-618.346	-80.504	-0.090	0.030
-617.332	-22.788	0.141	0.085
-616.317	351.342	-0.139	-0.276
-615.303	-60.461	-0.128	0.054
-614.288	600.502	-0.034	-0.085
-613.273	100.909	-0.207	-0.241
-612.259	463.517	0.112	0.251
-611.244	-22.436	-0.169	-0.102
-610.230	-169.610	-0.260	-0.009
-609.215	84.028	-0.179	-0.196
-608.201	279.760	-0.049	0.087
-607.186	-161.936	-0.301	0.015
-606.171	-160.687	0.094	-0.005
-605.157	-86.487	-0.349	-0.107
-604.142	110.483	-0.142	-0.170
-603.128	524.759	0.032	-0.075
-602.113	127.991	-0.166	0.211
-601.098	-200.000	-0.009	0.134
-600.084	52.956	0.115	-0.110
-599.069	-116.534	0.342	-0.063
-598.055	-200.000	0.024	-0.144
-597.040	68.315	0.265	-0.271
-596.025	-200.000	-0.061	-0.357
-595.011	343.014	0.078	-0.153
-593.996	503.509	-0.126	0.290
-592.982	205.602	-0.123	0.190
-591.967	488.339	-0.093	0.213
-590.952	-86.040	0.153	0.047
-589.938	715.768	0.034	0.089
-588.923	4.789	0.316	-0.232
-587.909	-200.000	-0.006	-0.256
-586.894	800.000	0.035	-0.128
-585.879	41.431	-0.073	-0.066
-584.865	800.000	-0.077	-0.321
-583.850	-94.753	-0.211	-0.057
-582.836	185.166	0.106	-0.158
-581.821	92.021	-0.169	-0.189
-580.806	463.692	-0.206	0.460
-579.792	-57.325	-0.311	0.136
-578.777	146.695	-0.074	-0.099
-577.763	163.194	0.104	0.146
-576.748	19.024	-0.133	-0.106
-575.733	258.521	-0.165	-0.284
-574.719	54.316	0.081	-0.078
-573.704	69.684	-0.128	0.131
-572.690	105.391	0.278	-0.327
-571.675	-36.505	0.179	-0.096
-570.661	194.659	-0.118	-0.179
-569.646	-63.787	-0.074	0.030
-568.631	-200.000	-0.027	-0.134
-567.617	-3.750	0.131	-0.090
-566.602	240.216	-0.165	0.274
-565.588	495.881	0.096	-0.219
-564.573	75.136	0.068	-0.071
-563.558	-66.760	0.093	-0.037
-562.544	-129.091	0.404	-0.056
-561.529	479.411	-0.171	0.386
-560.515	800.000	-0.054	0.197
-559.500	-200.000	0.051	0.398
-558.485	17.884	-0.188	-0.149
-557.471	120.328	-0.121	-0.149
-556.456	103.996	0.196	0.230
-555.442	229.173	0.074	-0.121
-554.427	-122.044	-0.249	0.041
-553.412	-85.478	0.173	-0.054
-552.398	-200.000	0.011	-0.050
-551.383	-86.043	0.299	0.092
-550.369	-200.000	0.017	0.218
-549.354	10.961	0.055	0.042
-548.339	8.661	-0.187	0.141
-547.325	383.506	-0.059	0.120
-546.310	-65.365	-0.245	-0.098
-545.296	800.000	-0.064	0.185
-544.281	-200.000	0.035	0.256
-543.266	-87.807	0.215	-0.064
-542.252	61.958	-0.192	-0.191
-541.237	154.210	-0.078	0.107
-540.223	-27.185	0.304	-0.177
-539.208	25.191	0.128	0.106
-538.193	800.000	0.095	-0.376
-537.179	-25.184	0.412	-0.243
-536.164	-85.920	-0.117	0.036
-535.150	-200.000	-0.070	0.374
-534.135	-200.000	0.015	0.291
-533.121	-200.000	-0.012	-0.105
-532.106	-106.371	-0.074	0.017
-531.091	15.276	0.206	-0.161
-530.077	-200.000	0.043	-0.359
-529.062	425.417	-0.050	0.108
-528.048	244.130	-0.065	0.109
-527.033	64.229	0.211	-0.211
-526.018	800.000	-0.070	0.244
-525.004	-111.512	0.408	-0.083
-523.989	-89.081	-0.165	-0.049
-522.975	-63.542	0.147	0.060
-521.960	171.624	-0.107	0.153
-520.945	81.116	0.164	0.177
-519.931	105.795	-0.146	0.172
-518.916	-6.938	-0.228	-0.154
-517.902	125.480	-0.156	0.197
-516.887	-35.829	-0.183	0.099
-515.872	642.252	-0.079	-0.201
-514.858	-166.048	0.172	0.007
-513.843	-200.000	-0.035	0.329
-512.829	-200.000	0.025	0.128
-511.814	-132.354	-0.398	-0.051
-510.799	-52.647	0.063	0.029
-509.785	-53.036	0.353	0.162
-508.770	800.000	-0.052	0.157
-507.756	-57.284	-0.078	0.034
-506.741	227.319	0.139	-0.224
-505.726	68.442	-0.100	0.102
-504.712	90.130	0.139	0.154
-503.697	665.363	0.134	-0.346
-502.683	-56.694	-0.322	-0.142
-501.668	68.543	-0.220	-0.225
-500.653	100.496	-0.301	-0.347
-499.639	-80.179	0.291	0.097
-498.624	-39.845	-0.085	-0.044
-497.610	-109.654	0.115	-0.024
-496.595	3.352	0.182	0.132
-495.581	8.383	0.223	0.167
-494.566	577.711	0.090	-0.218
-493.551	-74.050	0.200	-0.072
-492.537	-61.417	0.109	-0.046
-491.522	142.716	0.031	-0.041
-490.508	-100.459	-0.166	0.041
-489.493	-95.022	0.301	0.081
-488.478	800.000	0.127	-0.421
-487.464	151.761	0.172	-0.233
-486.449	-65.677	-0.378	-0.150
-485.435	-85.646	-0.090	0.028
-484.420	173.537	-0.142	0.204
-483.405	-200.000	0.015	0.116
-482.391	-55.997	-0.494	-0.219
-481.376	-188.957	0.511	-0.006
-480.362	800.000	0.100	0.277
-479.347	-200.000	-0.068	-0.321
-478.332	-200.000	0.017	-0.242
-477.318	-51.387	0.082	-0.038
-476.303	-61.057	0.299	0.125
-475.289	-85.004	-0.635	-0.198
-474.274	199.268	0.115	-0.176
-473.259	103.716	-0.117	-0.137
-472.245	534.651	0.098	-0.231
-471.230	63.778	-0.165	-0.165
-470.216	51.837	0.205	0.193
-469.201	100.492	0.134	0.154
-468.186	-200.000	0.056	0.382
-467.172	688.362	-0.093	0.242
-466.157	46.294	-0.271	-0.249
-465.143	244.624	0.177	-0.296
-464.128	584.900	-0.087	0.212
-463.113	-61.170	-0.220	0.092
-462.099	390.189	-0.066	-0.136
-461.084	-200.000	0.009	0.130
-460.070	76.009	0.257	0.271
-459.055	-137.120	0.363	0.041
-458.040	99.558	0.281	0.323
-457.026	-147.258	0.303	-0.026
-456.011	53.556	0.078	0.074
-454.997	-131.138	-0.170	0.022
-453.982	-145.849	-0.305	0.027
-452.968	-188.434	-0.207	-0.003
-451.953	-130.397	0.330	-0.044
-450.938	-146.513	0.290	-0.025
-449.924	-73.972	-0.303	-0.109
-448.909	39.490	0.049	0.043
-447.895	-112.483	0.195	-0.039
-446.880	93.982	0.225	0.253
-445.865	114.314	-0.172	0.208
-444.851	-65.677	-0.331	-0.132
-443.836	-37.737	0.116	0.061
-442.822	-200.000	-0.004	0.037
-441.807	800.000	-0.184	-0.508
-440.792	-144.371	0.435	-0.040
-439.778	59.953	-0.268	-0.263
-438.763	82.445	0.128	0.138
-437.749	394.406	0.093	-0.193
-436.734	-200.000	-0.009	-0.046
-435.719	-110.318	0.186	-0.038
-434.705	800.000	0.006	0.021
-433.690	-200.000	-0.005	-0.174
-432.676	800.000	0.073	-0.304
-431.661	800.000	0.062	0.219
-430.646	-5.259	-0.224	0.153
-429.632	800.000	0.094	0.304
-428.617	-200.000	0.024	0.490
-427.603	-200.000	-0.050	0.264
-426.588	19.731	-0.012	-0.010
-425.573	76.096	0.112	-0.118
-424.559	-147.669	0.282	0.024
-423.544	-200.000	0.007	0.104
-422.530	56.941	-0.300	0.290
-421.515	-43.042	0.163	0.082
-420.500	63.874	-0.261	0.260
-419.486	-200.000	-0.062	-0.291
-418.471	-78.557	0.207	0.070
-417.457	-200.000	0.002	-0.151
-416.442	-9.222	0.168	-0.112
-415.428	-200.000	0.054	-0.320
-414.413	38.653	0.186	-0.165
-413.398	87.147	-0.202	-0.221
-412.384	-101.915	0.293	0.070
-411.369	317.421	-0.124	0.233
-410.355	800.000	-0.045	-0.173
-409.340	-198.004	0.119	-0.001
-408.325	-138.095	-0.118	0.013
-407.311	-184.035	0.190	0.003
-406.296	-200.000	0.019	0.087
-405.282	-33.811	-0.114	-0.063
-404.267	-68.185	0.299	-0.115
-403.252	-21.861	-0.204	0.123
-402.238	800.000	-0.069	0.198
-401.223	-96.595	0.095	-0.025
-400.209	58.900	0.239	0.233
-399.194	83.117	-0.216	0.233
-398.179	-200.000	0.029	-0.193
-397.165	-173.392	-0.087	-0.003
-396.150	252.308	-0.210	0.354
-395.136	39.953	0.102	0.091
-394.121	-149.589	-0.471	0.037
-393.106	800.000	0.075	-0.219
-392.092	-200.000	-0.019	-0.121
-391.077	300.209	0.167	0.305
-390.063	-140.543	0.352	-0.036
-389.048	-12.623	0.070	-0.045
-388.033	137.305	-0.052	0.067
-387.019	-70.183	0.398	-0.150
-386.004	-200.000	0.007	-0.260
-384.990	113.055	0.167	-0.201
-383.975	21.592	0.073	0.059
-382.960	-95.926	0.016	-0.004
-381.946	746.863	-0.089	0.237
-380.931	285.487	-0.042	-0.075
-379.917	59.906	0.057	-0.056
-378.902	-91.330	-0.144	-0.041
-377.888	-200.000	0.013	-0.167
-376.873	91.206	0.370	0.412
-375.858	22.614	-0.194	0.157
-374.844	800.000	-0.143	-0.413
-373.829	-135.857	-0.214	0.025
-372.815	154.495	-0.167	-0.228
-371.800	42.494	-0.251	0.226
-370.785	195.629	0.188	0.283
-369.771	-91.130	0.222	0.063
-368.756	-10.587	0.057	0.037
-367.742	-68.039	-0.361	0.139
-366.727	-131.805	-0.440	0.057
-365.712	40.546	0.070	0.063
-364.698	76.201	-0.213	-0.224
-363.683	17.276	-0.257	-0.202
-362.669	-200.000	-0.016	0.181
-361.654	800.000	-0.041	-0.149
-360.639	-144.906	0.301	-0.027
-359.625	88.966	0.105	0.116
-358.610	-200.000	0.019	0.110
-357.596	-151.777	-0.170	-0.012
-356.581	800.000	0.034	0.110
-355.566	-108.756	0.067	-0.014
-354.552	-104.404	-0.096	-0.022
-353.537	-200.000	0.020	0.228
-352.523	-200.000	0.010	-0.081
-351.508	-112.199	0.185	0.037
-350.493	107.723	-0.212	-0.249
-349.479	446.814	-0.073	-0.158
-348.464	209.026	0.065	-0.100
-347.450	-200.000	0.002	0.283
-346.435	-23.629	0.244	0.145
-345.420	83.212	0.094	0.102
-344.406	-200.000	0.012	0.343
-343.391	800.000	-0.078	0.245
-342.377	349.164	0.135	0.263
-341.362	-81.251	-0.144	0.047
-340.348	-200.000	-0.022	-0.166
-339.333	610.336	0.059	-0.147
-338.318	-127.277	-0.246	0.035
-337.304	613.506	-0.107	-0.265
-336.289	87.276	-0.172	0.188
-335.275	-127.246	-0.321	-0.046
-334.260	-200.000	-0.050	-0.271
-333.245	-92.678	0.161	0.045
-332.231	-87.127	-0.113	-0.034
-331.216	304.421	0.132	-0.242
-330.202	-92.580	-0.211	-0.059
-329.187	399.482	0.194	-0.402
-328.172	-67.265	0.289	-0.112
-327.158	800.000	0.059	0.167
-326.143	192.676	0.062	0.092
-325.129	-113.304	-0.143	0.028
-324.114	-200.000	0.020	0.338
-323.099	5.664	0.036	-0.026
-322.085	-155.333	-0.121	0.008
-321.070	652.540	0.082	-0.208
-320.056	800.000	-0.057	-0.165
-319.041	-94.588	0.559	0.150
-318.026	-63.865	-0.208	-0.084
-317.012	-55.692	-0.153	0.068
-315.997	631.624	-0.189	0.473
-314.983	-200.000	-0.005	-0.051
-313.968	-0.192	0.071	0.050
-312.953	108.530	-0.062	0.074
-311.939	-94.414	-0.036	0.010
-310.924	-79.868	-0.235	-0.078
-309.910	-200.000	0.080	0.496
-308.895	30.516	0.228	0.192
-307.880	800.000	-0.061	0.199
-306.866	294.770	0.086	0.156
-305.851	800.000	0.075	-0.230
-304.837	-80.099	-0.362	0.120
-303.822	-200.000	-0.029	0.227
-302.807	800.000	-0.035	0.137
-301.793	-21.642	-0.194	-0.117
-300.778	-41.700	-0.221	-0.112
-299.764	-69.770	-0.123	-0.047
-298.749	-200.000	0.002	-0.197
-297.735	-200.000	-0.037	-0.375
-296.720	-200.000	-0.003	-0.077
-295.705	62.824	-0.169	-0.167
-294.691	-29.703	0.265	-0.149
-293.676	-0.357	0.100	-0.070
-292.662	62.077	-0.137	-0.135
-291.647	800.000	-0.034	0.132
-290.632	305.610	0.105	0.193
-289.618	47.456	0.134	-0.123
-288.603	-109.210	-0.310	0.065
-287.589	800.000	0.025	-0.087
-286.574	257.896	0.165	0.281
-285.559	-200.000	-0.026	-0.291
-284.545	215.879	0.054	-0.085
-283.530	48.854	-0.374	-0.346
-282.516	-42.524	0.051	-0.026
-281.501	-97.058	0.182	0.047
-280.486	559.508	-0.138	-0.330
-279.472	-200.000	0.009	0.267
-278.457	-58.501	-0.123	0.053
-277.443	25.235	-0.113	-0.093
-276.428	261.549	-0.115	0.197
-275.413	-91.035	-0.353	0.100
-274.399	-200.000	-0.002	-0.270
-273.384	65.316	-0.211	0.211
-272.370	355.920	0.066	-0.130
-271.355	32.732	0.137	0.117
-270.340	126.325	0.196	-0.244
-269.326	-113.823	-0.350	-0.067
-268.311	-192.869	0.160	0.001
-267.297	-122.181	0.363	-0.059
-266.282	18.089	0.271	0.213
-265.267	-200.000	-0.006	0.124
-264.253	-37.259	0.271	-0.143
-263.238	71.607	0.137	0.141
-262.224	162.506	-0.089	-0.123
-261.209	-200.000	0.075	-0.406
-260.195	-102.830	-0.207	0.048
-259.180	94.254	-0.109	-0.122
-258.165	800.000	-0.028	0.096
-257.151	-200.000	-0.003	-0.148
-256.136	382.101	-0.138	-0.280
-255.122	161.087	-0.110	-0.151
-254.107	-200.000	0.002	-0.130
-253.092	146.777	0.185	0.245
-252.078	800.000	0.041	0.121
-251.063	-38.872	-0.230	-0.119
-250.049	-2.434	0.073	0.050
-249.034	-11.998	-0.225	0.146
-248.019	-23.689	-0.170	0.101
-247.005	41.975	-0.055	0.050
-245.990	-200.000	-0.046	0.199
-244.976	-45.554	0.300	0.146
-243.961	-64.108	-0.194	-0.078
-242.946	800.000	0.055	-0.194
-241.932	-200.000	-0.092	0.439
-240.917	-80.741	0.421	0.138
-239.903	-97.598	-0.204	0.052
-238.888	-31.777	-0.077	0.043
-237.873	-200.000	-0.067	0.354
-236.859	-107.365	0.405	-0.088
-235.844	36.410	-0.214	0.186
-234.830	-200.000	0.005	0.026
-233.815	-62.312	0.268	0.110
-232.800	94.913	0.128	0.144
-231.786	19.893	-0.211	0.168
-230.771	17.750	0.238	0.187
-229.757	-43.969	0.321	-0.159
-228.742	210.353	0.131	-0.202
-227.727	147.429	-0.163	0.216
-226.713	58.718	-0.073	-0.071
-225.698	800.000	-0.004	-0.014
-224.684	-55.474	-0.202	-0.089
-223.669	-58.783	0.058	-0.025
-222.655	193.618	0.221	0.329
-221.640	-126.316	0.422	0.062
-220.625	800.000	0.094	0.265
-219.611	800.000	0.090	-0.294
-218.596	279.712	-0.138	0.242
-217.582	800.000	-0.070	0.241
-216.567	-57.054	0.445	-0.193
-215.552	42.352	0.048	-0.043
-214.538	-172.147	0.050	-0.002
-213.523	-200.000	-0.022	-0.300
-212.509	150.834	-0.035	0.047
-211.494	595.017	0.058	-0.141
-210.479	154.345	0.128	0.173
-209.465	-145.045	0.225	0.020
-208.450	139.771	0.077	0.100
-207.436	-32.468	0.146	0.080
-206.421	-76.436	-0.193	0.067
-205.406	-110.980	0.017	0.004
-204.392	800.000	-0.142	-0.401
-203.377	-165.104	0.349	0.015
-202.363	-18.080	0.122	-0.075
-201.348	488.158	0.044	0.099
-200.333	104.580	-0.117	-0.135
-199.319	-33.305	-0.223	0.121
-198.304	175.924	-0.197	0.282
-197.290	-113.162	0.295	-0.057
-196.275	98.942	0.165	0.187
-195.260	63.617	-0.260	-0.256
-194.246	-107.065	-0.105	-0.023
-193.231	-52.430	-0.078	-0.035
-192.217	800.000	0.098	-0.273
-191.202	-92.883	-0.190	0.052
-190.187	427.785	-0.036	-0.077
-189.173	-200.000	-0.046	-0.247
-188.158	-1.605	0.266	0.184
-187.144	-27.110	0.100	0.057
-186.129	60.875	-0.161	-0.157
-185.114	800.000	0.064	-0.242
-184.100	-123.359	-0.032	-0.005
-183.085	700.662	-0.103	0.267
-182.071	-146.803	-0.106	-0.009
-181.056	-200.000	0.120	0.000
-180.042	-122.728	0.134	-0.021
-179.027	-98.907	0.117	0.029
-178.012	-76.084	-0.055	-0.019
-176.998	-80.001	-0.096	-0.032
-175.983	-151.070	0.373	-0.028
-174.969	5.950	-0.152	-0.111
-173.954	321.132	-0.107	-0.199
-172.939	-200.000	-0.073	-0.325
-171.925	-160.396	0.169	0.009
-170.910	-41.552	0.219	-0.111
-169.896	800.000	-0.014	0.056
-168.881	22.909	0.244	0.196
-167.866	-200.000	-0.022	0.340
-166.852	-200.000	0.002	0.255
-165.837	799.519	-0.058	0.157
-164.823	800.000	-0.084	0.269
-163.808	800.000	0.072	-0.212
-162.793	60.298	-0.274	-0.266
-161.779	800.000	0.016	0.044
-160.764	527.923	0.145	0.336
-159.750	-176.662	-0.220	0.006
-158.735	-117.076	-0.298	0.053
-157.720	-67.141	0.429	-0.166
-156.706	317.298	-0.128	0.238
-155.691	-26.422	-0.254	0.146
-154.677	-102.767	-0.375	0.088
-153.662	-156.308	0.206	0.013
-152.647	442.246	0.057	-0.123
-151.633	174.658	0.130	0.185
-150.618	35.554	-0.314	0.270
-149.604	-57.658	-0.263	0.113
-148.589	-20.742	-0.079	-0.048
-147.574	-75.333	0.502	0.176
-146.560	-72.141	-0.287	0.104
-145.545	-200.000	-0.021	-0.191
-144.531	84.651	0.149	-0.160
-143.516	-86.427	-0.225	-0.068
-142.502	60.329	-0.124	0.121
-141.487	-114.577	-0.322	0.061
-140.472	49.727	-0.235	-0.217
-139.458	-200.000	0.100	0.477
-138.443	-120.024	0.179	-0.030
-137.429	-131.951	-0.307	-0.039
-136.414	-39.531	0.217	0.111
-135.399	243.222	-0.117	-0.193
-134.385	-200.000	-0.003	0.593
-133.370	800.000	0.075	-0.298
-132.356	-42.092	0.289	-0.145
-131.341	-200.000	0.022	0.518
-130.326	167.152	0.081	-0.113
-129.312	-88.505	-0.266	-0.078
-128.297	-166.937	-0.197	-0.008
-127.283	-69.393	-0.133	-0.050
-126.268	129.191	-0.070	0.087
-125.253	-153.901	0.076	0.005
-124.239	-49.301	-0.266	-0.124
-123.224	-4.701	-0.110	0.075
-122.210	156.156	-0.188	0.254
-121.195	-64.265	0.147	-0.059
-120.180	-35.490	0.138	0.074
-119.166	-67.802	0.272	0.104
-118.151	-35.387	-0.329	-0.175
-117.137	-87.605	0.542	0.160
-116.122	298.852	-0.040	-0.072
-115.107	800.000	0.048	0.155
-114.093	326.791	-0.054	-0.102
-113.078	-200.000	-0.004	-0.190
-112.064	28.515	-0.119	0.099
-111.049	800.000	-0.111	-0.341
-110.034	201.247	0.180	0.272
-109.020	-61.748	0.145	-0.059
-108.005	-14.445	-0.028	0.018
-106.991	-200.000	0.032	-0.246
-105.976	-154.282	-0.246	0.016
-104.962	274.661	-0.194	0.336
-103.947	-105.219	0.096	0.021
-102.932	-200.000	0.012	0.166
-101.918	-200.000	-0.035	0.160
-100.903	-121.505	-0.320	-0.052
-99.889	-39.372	0.252	-0.129
-98.874	230.525	0.210	0.336
-97.859	800.000	-0.060	-0.180
-96.845	-85.631	0.172	-0.052
-95.830	197.578	0.127	-0.190
-94.816	425.509	-0.180	-0.381
-93.801	148.719	-0.207	0.274
-92.786	-134.407	-0.313	-0.038
-91.772	-47.423	-0.179	-0.085
-90.757	515.183	-0.148	0.338
-89.743	-200.000	-0.085	-0.380
-88.728	-118.200	-0.305	0.053
-87.713	-13.007	-0.332	0.211
-86.699	-93.455	-0.188	0.051
-85.684	735.618	0.105	0.275
-84.670	232.510	0.060	-0.097
-83.655	-35.017	0.414	-0.221
-82.640	224.475	0.198	-0.313
-81.626	-200.000	0.021	0.098
-80.611	-94.226	0.079	0.021
-79.597	113.891	-0.214	0.255
-78.582	-56.257	0.042	0.018
-77.567	800.000	0.047	0.170
-76.553	-156.691	-0.021	-0.001
-75.538	278.398	0.248	0.433
-74.524	-110.895	-0.117	0.024
-73.509	-38.627	0.422	0.218
-72.494	-67.049	-0.297	0.115
-71.480	46.308	-0.203	0.184
-70.465	-45.198	-0.217	-0.105
-69.451	800.000	0.060	0.194
-68.436	-7.616	-0.229	0.151
-67.422	57.686	-0.193	-0.185
-66.407	648.256	-0.089	0.222
-65.392	161.624	0.081	-0.111
-64.378	305.869	-0.054	0.098
-63.363	85.122	-0.097	0.104
-62.349	296.995	-0.065	-0.116
-61.334	117.227	-1.004	-1.207
-60.319	36.686	0.671	0.580
-59.305	734.294	-0.377	-0.988
-58.290	458.166	0.599	1.302
-57.276	197.220	0.995	1.485
-56.261	-200.000	112.483	639.225
-55.246	477.214	1498.765	3314.399
-54.232	147.774	2674.112	3524.143
-53.217	97.518	2285.717	2567.221
-52.203	36.427	1898.577	1637.272
-51.188	30.571	1691.192	1413.991
-50.173	28.172	1648.928	1360.782
-49.159	49.832	1703.218	1569.653
-48.144	48.745	1718.034	1575.046
-47.130	30.308	1676.375	1399.398
-46.115	27.520	1662.373	1366.768
-45.100	27.377	1657.569	1361.694
-44.086	27.303	1654.920	1358.915
-43.071	27.301	1652.433	1356.805
-42.057	27.289	1650.024	1354.680
-41.042	27.398	1647.988	1353.768
-40.027	27.313	1646.037	1351.476
-39.013	27.343	1644.214	1350.150
-37.998	27.282	1642.529	1348.261
-36.984	27.292	1641.321	1347.293
-35.969	27.391	1639.696	1346.638
-34.954	27.471	1638.463	1346.158
-33.940	27.432	1636.594	1344.283
-32.925	27.504	1634.296	1342.873
-31.911	27.493	1632.670	1341.406
-30.896	27.482	1630.241	1339.271
-29.881	27.456	1629.410	1338.350
-28.867	27.436	1627.918	1336.920
-27.852	27.516	1626.041	1335.917
-26.838	27.418	1624.664	1334.013
-25.823	27.504	1623.492	1333.626
-24.809	27.563	1622.127	1332.881
-23.794	27.491	1620.955	1331.339
-22.779	27.539	1619.246	1330.235
-21.765	27.495	1617.609	1328.516
-20.750	27.470	1616.159	1327.091
-19.736	27.435	1615.109	1325.921
-18.721	27.525	1613.547	1325.241
-17.706	27.503	1612.031	1323.786
-16.692	27.575	1610.164	1322.717
-15.677	27.517	1609.028	1321.314
-14.663	27.642	1607.305	1320.749
-13.648	27.631	1605.797	1319.382
-12.633	27.594	1604.441	1317.945
-11.619	27.560	1603.122	1316.567
-10.604	27.535	1601.637	1315.111
-9.590	27.544	1600.864	1314.489
-8.575	27.522	1599.656	1313.286
-7.560	27.557	1598.141	1312.243
-6.546	27.453	1597.194	1310.665
-5.531	27.545	1596.259	1310.506
-4.517	27.589	1594.481	1309.315
-3.502	27.549	1593.796	1308.410
-2.487	27.676	1591.909	1307.718
-1.473	27.377	1580.371	1296.061
-0.458	24.691	1561.891	1261.922
0.556	19.521	1563.636	1232.758
1.571	17.405	1588.107	1236.579
2.586	17.113	1601.012	1244.381
3.600	16.518	1549.724	1200.187
4.615	13.613	1450.685	1104.060
5.629	10.733	1395.703	1043.637
6.644	10.159	1388.529	1034.511
7.659	10.149	1387.037	1033.242
8.673	10.169	1386.272	1032.712
9.688	9.943	1384.428	1029.806
10.702	9.987	1380.611	1027.154
11.717	11.409	1382.786	1037.731
12.731	14.751	1388.647	1063.343
13.746	17.234	1392.432	1081.978
14.761	17.386	1391.923	1082.452
15.775	16.453	1389.543	1074.578
16.790	15.475	1386.580	1065.982
17.804	14.634	1384.256	1058.772
18.819	14.129	1383.204	1054.671
19.834	13.954	1381.053	1051.829
20.848	13.657	1380.305	1049.290
21.863	13.441	1378.880	1046.742
22.877	13.249	1377.733	1044.566
23.892	13.208	1376.316	1043.145
24.907	13.222	1375.755	1042.716
25.921	13.289	1374.932	1042.417
26.936	13.262	1374.452	1041.791
27.950	13.410	1372.695	1041.300
28.965	13.421	1371.624	1040.465
29.980	13.477	1370.684	1040.010
30.994	13.496	1369.473	1039.120
32.009	13.532	1368.645	1038.627
33.023	13.635	1367.140	1038.038
34.038	13.458	1365.844	1035.857
35.053	13.431	1364.625	1034.670
36.067	13.508	1363.536	1034.231
37.082	13.426	1362.764	1033.045
38.096	13.406	1361.771	1032.074
39.111	13.572	1360.304	1031.907
40.126	13.395	1360.221	1030.647
41.140	13.285	1359.068	1029.001
42.155	13.201	1358.894	1028.256
43.169	13.117	1358.997	1027.716
44.184	13.152	1358.171	1027.219
45.199	13.223	1357.643	1027.169
46.213	13.254	1356.982	1026.774
47.228	13.358	1355.840	1026.463
48.242	13.356	1354.913	1025.659
49.257	13.381	1353.055	1024.314
50.271	13.315	1352.042	1023.051
51.286	13.392	1350.627	1022.362
52.301	13.344	1349.518	1021.137
53.315	13.292	1348.198	1019.731
54.330	13.211	1347.525	1018.634
55.344	13.204	1346.392	1017.643
56.359	13.283	1345.357	1017.254
57.374	13.164	1344.108	1015.488
58.388	13.242	1342.833	1014.915
59.403	13.137	1342.876	1014.210
60.417	13.264	1341.906	1014.168
61.432	13.192	1341.102	1013.032
62.447	13.118	1340.426	1011.979
63.461	13.073	1339.241	1010.720
64.476	13.028	1338.273	1009.623
65.490	13.123	1336.911	1009.084
66.505	13.157	1335.190	1007.907
67.520	13.055	1334.245	1006.480
68.534	13.146	1333.159	1006.125
69.549	13.184	1332.486	1005.760
70.563	13.240	1330.720	1004.680
71.578	13.026	1329.960	1002.715
72.593	13.028	1329.167	1002.044
73.607	13.065	1328.314	1001.532
74.622	13.106	1327.758	1001.274
75.636	13.025	1327.217	1000.291
76.651	13.037	1326.185	999.494
77.666	13.036	1325.460	998.856
78.680	13.020	1325.409	998.632
79.695	13.100	1324.351	998.227
80.709	13.183	1323.590	998.070
81.724	13.057	1323.044	996.809
82.739	13.235	1321.460	996.598
83.753	13.375	1320.422	996.572
84.768	13.401	1319.816	996.184
85.782	13.387	1318.799	995.242
86.797	13.306	1317.361	993.580
87.812	13.331	1316.193	992.761
88.826	13.233	1315.743	991.747
89.841	13.356	1314.094	991.152
90.855	13.360	1313.163	990.389
91.870	13.467	1311.958	990.033
92.884	13.358	1311.748	989.137
93.899	13.421	1310.372	988.383
94.914	13.439	1310.095	988.195
95.928	13.466	1309.393	987.743
96.943	13.395	1308.356	986.450
97.957	13.443	1307.015	985.636
98.972	13.485	1305.782	984.868
99.987	13.377	1305.581	983.985
101.001	13.540	1303.272	983.129
102.016	13.411	1302.752	981.883
103.030	13.357	1302.195	981.058
104.045	13.410	1300.884	980.294
105.060	13.330	1299.526	978.713
106.074	13.244	1298.418	977.280
107.089	13.239	1296.951	976.063
108.103	13.237	1295.944	975.204
109.118	13.244	1294.575	974.129
110.133	13.271	1293.363	973.292
111.147	13.189	1292.134	971.801
112.162	13.361	1290.536	971.520
113.176	13.216	1289.677	969.939
114.191	13.216	1288.947	969.301
115.206	13.333	1287.542	968.844
116.220	13.199	1286.441	967.147
117.235	13.252	1285.165	966.412
118.249	13.233	1284.106	965.418
119.264	13.175	1282.792	964.010
120.279	13.192	1282.279	963.634
121.293	13.149	1281.093	962.408
122.308	13.296	1279.310	961.842
123.322	13.132	1279.019	960.584
124.337	13.120	1278.146	959.771
125.352	13.161	1276.442	958.642
126.366	13.163	1275.416	957.804
127.381	13.210	1274.574	957.358
128.395	13.038	1274.110	955.928
129.410	13.165	1272.305	955.222
130.424	13.267	1271.691	955.268
131.439	13.284	1270.661	954.508
132.454	13.241	1269.771	953.508
133.468	13.324	1268.726	953.114
134.483	13.290	1268.154	952.404
135.497	13.143	1267.552	951.024
136.512	13.180	1265.935	949.936
137.527	13.277	1264.872	949.615
138.541	13.293	1263.117	948.303
139.556	13.291	1261.683	947.135
140.570	13.425	1260.341	946.808
141.585	13.587	1258.965	946.615
142.600	13.421	1258.723	945.402
143.614	13.414	1257.611	944.444
144.629	13.539	1256.358	944.130
145.643	13.538	1255.138	943.124
146.658	13.449	1253.949	941.641
147.673	13.384	1252.819	940.340
148.687	13.307	1251.761	939.027
149.702	13.355	1249.916	937.829
150.716	13.304	1248.652	936.513
151.731	13.288	1247.545	935.506
152.746	13.370	1245.990	934.719
153.760	13.419	1244.965	934.146
154.775	13.529	1243.831	933.833
155.789	13.392	1243.226	932.522
156.804	13.483	1242.135	932.134
157.819	13.578	1241.240	931.914
158.833	13.649	1239.966	931.274
159.848	13.660	1239.106	930.606
160.862	13.628	1238.263	929.712
161.877	13.627	1237.049	928.716
162.892	13.487	1236.360	927.330
163.906	13.396	1235.424	926.036
164.921	13.449	1234.601	925.636
165.935	13.596	1233.324	925.417
166.950	13.552	1232.760	924.668
167.964	13.447	1232.256	923.623
168.979	13.579	1231.268	923.533
169.994	13.512	1230.417	922.441
171.008	13.640	1229.539	922.416
172.023	13.617	1228.945	921.760
173.037	13.665	1228.176	921.365
174.052	13.643	1227.543	920.691
175.067	13.606	1226.087	919.311
176.081	13.494	1225.464	918.141
177.096	13.590	1224.140	917.598
178.110	13.572	1223.555	916.981
179.125	13.694	1221.921	916.345
180.140	13.696	1220.538	915.242
181.154	13.778	1219.438	914.784
182.169	13.672	1218.314	913.281
183.183	13.675	1217.680	912.739
184.198	13.884	1215.853	912.437
185.213	13.754	1214.831	910.876
186.227	13.841	1213.765	910.473
187.242	13.949	1212.727	910.206
188.256	13.962	1212.024	909.668
189.271	13.908	1210.862	908.424
190.286	13.814	1209.976	907.164
191.300	13.661	1208.963	905.489
192.315	13.602	1208.346	904.620
193.329	13.634	1207.479	904.067
194.344	13.642	1206.981	903.658
195.359	13.733	1206.350	903.602
196.373	13.816	1205.894	903.635
197.388	13.790	1205.906	903.423
198.402	13.998	1204.912	903.726
199.417	14.052	1204.305	903.483
200.432	14.068	1203.532	902.914
201.446	14.180	1202.733	902.843
202.461	14.184	1201.697	902.004
203.475	14.212	1200.668	901.302
204.490	14.114	1199.452	899.782
205.504	14.109	1198.128	898.685
206.519	14.035	1197.168	897.481
207.534	13.998	1195.835	896.206
208.548	14.050	1195.188	895.923
209.563	14.059	1194.052	895.038
210.577	14.080	1193.131	894.381
211.592	14.163	1192.284	894.116
212.607	14.094	1191.533	893.103
213.621	14.167	1190.725	892.811
214.636	14.267	1189.513	892.358
215.650	14.369	1188.607	892.146
216.665	14.232	1188.264	891.077
217.680	14.252	1187.309	890.384
218.694	14.339	1186.439	890.119
219.709	14.381	1185.780	889.772
220.723	14.502	1184.803	889.603
221.738	14.311	1184.191	888.049
222.753	14.381	1183.458	887.791
223.767	14.392	1182.711	887.213
224.782	14.397	1182.140	886.734
225.796	14.499	1181.858	886.984
226.811	14.483	1180.599	885.880
227.826	14.449	1180.061	885.217
228.840	14.352	1179.598	884.272
229.855	14.342	1179.001	883.696
230.869	14.357	1178.192	883.089
231.884	14.314	1177.339	882.147
232.899	14.395	1176.055	881.532
233.913	14.350	1175.208	880.584
234.928	14.369	1174.556	880.113
235.942	14.461	1173.720	879.899
236.957	14.357	1173.205	878.886
237.972	14.264	1172.730	877.962
238.986	14.396	1171.975	878.013
240.001	14.425	1171.234	877.531
241.015	14.444	1170.191	876.774
242.030	14.524	1169.137	876.328
243.045	14.578	1168.565	876.106
244.059	14.545	1167.808	875.287
245.074	14.531	1167.031	874.552
246.088	14.542	1166.139	873.866
247.103	14.576	1165.521	873.500
248.117	14.651	1164.980	873.411
249.132	14.752	1164.342	873.387
250.147	14.820	1163.341	872.912
251.161	14.836	1162.846	872.547
252.176	14.847	1162.413	872.204
253.190	14.875	1161.637	871.687
254.205	14.891	1160.851	871.106
255.220	14.997	1160.437	871.271
256.234	14.893	1160.119	870.410
257.249	15.036	1158.648	869.976
258.263	15.012	1158.235	869.464
259.278	15.080	1157.442	869.144
260.293	15.024	1156.930	868.389
261.307	15.125	1156.140	868.243
262.322	15.039	1155.827	867.486
263.336	15.140	1155.032	867.337
264.351	15.032	1154.694	866.446
265.366	15.088	1154.371	866.420
266.380	15.111	1153.262	865.627
267.395	15.091	1152.071	864.557
268.409	15.056	1151.264	863.695
269.424	15.124	1150.871	863.670
270.439	15.111	1150.358	863.142
271.453	15.103	1149.643	862.489
272.468	15.054	1148.517	861.316
273.482	15.102	1147.707	860.879
274.497	15.062	1147.482	860.427
275.512	15.093	1146.745	859.957
276.526	15.121	1146.026	859.487
277.541	15.148	1145.002	858.784
278.555	15.252	1143.989	858.480
279.570	15.280	1143.693	858.321
280.585	15.361	1142.729	857.937
281.599	15.241	1142.092	856.769
282.614	15.370	1140.852	856.426
283.628	15.225	1139.908	854.900
284.643	15.259	1139.125	854.412
285.657	15.216	1138.397	853.571
286.672	15.388	1137.019	853.335
287.687	15.358	1136.206	852.496
288.701	15.339	1135.440	851.751
289.716	15.346	1134.826	851.251
290.730	15.363	1134.146	850.751
291.745	15.453	1133.330	850.521
292.760	15.339	1133.026	849.639
293.774	15.389	1132.501	849.423
294.789	15.582	1131.541	849.605
295.803	15.518	1131.161	848.922
296.818	15.453	1130.362	847.918
297.833	15.413	1129.604	847.072
298.847	15.502	1128.665	846.741
299.862	15.511	1128.054	846.254
300.876	15.578	1127.273	845.930
301.891	15.598	1126.712	845.533
302.906	15.596	1126.051	844.952
303.920	15.635	1125.425	844.606
304.935	15.607	1125.128	844.166
305.949	15.607	1124.334	843.497
306.964	15.745	1123.694	843.637
307.979	15.727	1122.075	842.252
308.993	15.813	1121.687	842.320
310.008	15.757	1121.099	841.522
311.022	15.791	1120.250	840.980
312.037	15.834	1119.289	840.399
313.052	15.739	1118.806	839.489
314.066	15.749	1117.615	838.573
315.081	15.529	1117.097	837.013
316.095	15.636	1115.596	836.343
317.110	15.612	1115.434	836.029
318.125	15.722	1114.508	835.806
319.139	15.606	1114.401	835.077
320.154	15.669	1113.187	834.407
321.168	15.639	1112.564	833.720
322.183	15.749	1111.962	833.737
323.197	15.727	1111.376	833.117
324.212	15.651	1110.990	832.375
325.227	15.711	1110.197	832.005
326.241	15.904	1109.240	832.166
327.256	15.701	1108.595	830.607
328.270	15.818	1107.807	830.521
329.285	15.781	1107.018	829.673
330.300	15.696	1105.954	828.384
331.314	15.757	1104.663	827.646
332.329	15.793	1103.823	827.119
333.343	15.879	1102.732	826.651
334.358	15.905	1101.962	826.130
335.373	15.914	1101.739	825.930
336.387	15.929	1100.901	825.304
337.402	16.007	1099.728	824.733
338.416	15.874	1099.566	823.889
339.431	15.939	1098.737	823.514
340.446	16.027	1097.797	823.163
341.460	16.144	1097.347	823.326
342.475	16.105	1096.770	822.627
343.489	16.216	1095.503	822.147
344.504	16.254	1094.762	821.705
345.519	16.308	1093.818	821.183
346.533	16.305	1092.969	820.462
347.548	16.333	1092.517	820.183
348.562	16.366	1091.688	819.651
349.577	16.290	1090.941	818.647
350.592	16.095	1090.563	817.349
351.606	16.067	1089.408	816.274
352.621	16.121	1088.965	816.131
353.635	16.156	1088.083	815.565
354.650	16.191	1087.072	814.905
355.665	16.335	1086.264	814.921
356.679	16.241	1085.769	814.026
357.694	16.169	1085.350	813.291
358.708	16.253	1084.807	813.217
359.723	16.280	1084.295	812.893
360.738	16.206	1083.689	812.008
361.752	16.248	1083.323	811.864
362.767	16.452	1082.410	812.092
363.781	16.436	1081.581	811.321
364.796	16.363	1081.296	810.684
365.810	16.511	1080.480	810.710
366.825	16.577	1079.774	810.424
367.840	16.479	1079.706	809.830
368.854	16.521	1079.196	809.580
369.869	16.541	1078.536	809.108
370.883	16.657	1077.355	808.703
371.898	16.585	1076.242	807.455
372.913	16.602	1075.837	807.161
373.927	16.642	1075.545	807.059
374.942	16.660	1075.238	806.844
375.956	16.588	1074.697	806.022
376.971	16.624	1074.220	805.766
377.986	16.711	1073.391	805.489
379.000	16.843	1072.576	805.432
380.015	16.775	1072.266	804.803
381.029	16.889	1071.530	804.723
382.044	16.790	1070.950	803.744
383.059	16.862	1070.274	803.508
384.073	16.932	1069.267	803.011
385.088	16.748	1068.577	801.553
386.102	16.816	1067.468	800.969
387.117	16.906	1066.218	800.385
388.132	16.846	1065.674	799.624
389.146	16.722	1064.970	798.441
390.161	16.869	1064.109	798.417
391.175	16.804	1063.456	797.551
392.190	16.830	1062.959	797.229
393.205	16.945	1062.134	797.079
394.219	17.041	1060.826	796.482
395.234	16.828	1060.346	795.050
396.248	16.951	1059.320	794.787
397.263	16.876	1058.411	793.681
398.278	16.887	1058.091	793.422
399.292	16.677	1057.383	791.839
400.307	16.785	1056.463	791.588
401.321	16.829	1055.913	791.309
402.336	16.879	1055.332	791.040
403.350	16.839	1054.374	790.062
404.365	16.894	1053.798	789.819
405.380	17.059	1053.035	789.943
406.394	17.068	1052.005	789.142
407.409	17.090	1051.501	788.798
408.423	17.081	1051.033	788.334
409.438	17.245	1050.220	788.417
410.453	17.167	1049.334	787.321
411.467	17.308	1048.536	787.306
412.482	17.216	1048.343	786.662
413.496	17.249	1047.613	786.198
414.511	17.405	1046.477	785.999
415.526	17.408	1046.493	785.956
416.540	17.395	1046.224	785.625
417.555	17.436	1045.440	785.153
418.569	17.422	1045.214	784.849
419.584	17.208	1044.847	783.517
420.599	17.342	1044.121	783.523
421.613	104.836	1324.997	1476.381
422.628	96.320	1365.896	1476.460
