DTS Sentinel unit serial number:	SN413079Multiplexer serial number:	ORYXHardware model number:	OX4-SRSoftware version number:	ORYX F/W v4.00 Oryx Data Collector v3.7.2.0data status	okinstallation	princeton_trtdifferential loss correction	single-endedforward channel	channel 2reverse channel	N/Adate	2019/09/16time	22:43:34forward acquisition time	60.00reverse acquisition time	0.00gamma	496.2192k internal	0.2328k external	0.2328temperature offset calibration	0.9971default loss term (dB/km)	0.3790temperature slope calibration	1.0000multiplexer offset coefficient	1.0000multiplexer slope coefficient	1.0000fibre end	0.00T internal ref (°C)	30.62T ext. ref 1 (°C)	0.08T ext. ref 2 (°C)	24.24length (m)	temperature (°C)	Stokes	anti-Stokes-747.200	-153.520	-0.188	-0.013
-746.185	234.095	0.093	0.155
-745.171	14.408	-0.053	0.042
-744.156	-43.195	0.087	0.044
-743.142	-30.847	0.215	0.122
-742.127	146.993	-0.313	0.424
-741.112	-114.987	0.197	-0.038
-740.098	274.978	0.023	0.040
-739.083	-79.779	0.093	-0.032
-738.069	-2.562	0.243	0.171
-737.054	-138.947	-0.279	0.030
-736.039	-168.530	-0.443	0.017
-735.025	-200.000	-0.074	0.401
-734.010	615.315	-0.041	-0.103
-732.996	186.505	-0.302	-0.453
-731.981	-158.582	0.189	0.011
-730.966	18.566	-0.164	0.132
-729.952	121.148	0.083	-0.104
-728.937	431.871	-0.108	0.235
-727.923	152.931	-0.266	-0.366
-726.908	776.975	-0.061	-0.167
-725.894	22.691	-0.073	-0.060
-724.879	75.901	-0.076	0.081
-723.864	405.212	-0.148	-0.315
-722.850	137.006	0.074	0.097
-721.835	381.310	-0.176	-0.363
-720.821	-200.000	0.016	0.201
-719.806	237.306	0.048	-0.080
-718.791	99.418	0.172	-0.201
-717.777	129.514	-0.137	-0.177
-716.762	-70.221	-0.044	-0.017
-715.748	-200.000	-0.028	-0.194
-714.733	-50.198	0.039	-0.019
-713.718	-19.082	0.219	-0.137
-712.704	-26.920	0.250	0.147
-711.689	628.819	-0.088	-0.223
-710.675	176.757	0.055	-0.080
-709.660	165.559	-0.006	-0.008
-708.645	-43.833	0.244	0.123
-707.631	-111.586	-0.241	0.049
-706.616	189.261	-0.180	0.271
-705.602	25.390	0.252	-0.211
-704.587	435.924	0.020	0.045
-703.572	-200.000	-0.035	-0.203
-702.558	324.139	-0.060	-0.115
-701.543	288.462	-0.139	0.253
-700.529	54.879	-0.295	-0.287
-699.514	800.000	0.042	-0.174
-698.499	161.904	0.165	-0.232
-697.485	-129.558	-0.420	-0.058
-696.470	-200.000	0.001	-0.020
-695.456	-200.000	0.017	-0.253
-694.441	-132.762	0.184	0.024
-693.426	101.232	-0.295	-0.346
-692.412	-8.849	0.216	0.145
-691.397	-200.000	0.532	-0.000
-690.383	-54.325	0.108	-0.049
-689.368	243.572	0.171	-0.288
-688.354	275.057	0.143	0.255
-687.339	453.916	0.041	0.091
-686.324	-78.314	-0.170	0.058
-685.310	-95.865	0.118	0.032
-684.295	50.637	-0.112	-0.107
-683.281	-84.343	-0.249	-0.079
-682.266	-35.962	0.382	-0.207
-681.251	800.000	-0.108	0.314
-680.237	-0.118	-0.200	-0.143
-679.222	-100.070	-0.307	0.077
-678.208	1.918	-0.227	0.165
-677.193	-24.136	-0.109	-0.066
-676.178	718.933	0.054	0.145
-675.164	-12.188	-0.472	-0.311
-674.149	-200.000	0.014	-0.187
-673.135	-154.956	0.054	0.004
-672.120	-50.999	0.245	-0.115
-671.105	-151.422	-0.184	0.014
-670.091	-14.598	-0.076	-0.049
-669.076	800.000	0.033	-0.129
-668.062	272.530	0.141	-0.250
-667.047	456.854	0.023	0.052
-666.032	144.874	0.143	-0.192
-665.018	-76.651	-0.170	-0.060
-664.003	-146.973	-0.340	0.029
-662.989	-200.000	0.051	0.465
-661.974	-200.000	0.052	0.244
-660.959	42.139	-0.231	-0.211
-659.945	800.000	0.114	-0.375
-658.930	49.391	0.201	0.190
-657.916	33.705	0.066	0.057
-656.901	-95.400	-0.014	0.004
-655.886	-15.137	0.154	-0.099
-654.872	-102.400	-0.208	-0.050
-653.857	89.426	-0.270	-0.302
-652.843	-128.540	0.339	0.048
-651.828	382.801	-0.142	-0.294
-650.814	636.043	0.154	-0.392
-649.799	35.718	-0.364	-0.321
-648.784	-200.000	0.015	-0.128
-647.770	-5.648	0.240	-0.165
-646.755	-72.676	0.050	0.018
-645.741	-200.000	-0.011	-0.170
-644.726	-200.000	-0.065	-0.596
-643.711	-200.000	-0.305	-0.001
-642.697	-200.000	0.056	0.355
-641.682	22.706	-0.404	0.332
-640.668	38.402	-0.191	-0.171
-639.653	632.412	0.151	-0.385
-638.638	-116.655	0.129	-0.024
-637.624	-161.826	-0.208	0.011
-636.609	-43.184	0.128	0.065
-635.595	-4.560	0.029	-0.020
-634.580	25.426	-0.252	0.210
-633.565	325.124	0.074	-0.142
-632.551	-200.000	0.032	0.233
-631.536	150.431	0.135	-0.184
-630.522	-200.000	-0.003	0.055
-629.507	-20.641	0.337	-0.207
-628.492	-12.247	0.131	0.086
-627.478	800.000	-0.010	-0.040
-626.463	-200.000	-0.014	-0.079
-625.449	800.000	0.059	0.224
-624.434	34.113	0.385	-0.336
-623.419	56.803	-0.189	0.185
-622.405	-107.295	-0.067	0.015
-621.390	-173.598	-0.052	-0.002
-620.376	800.000	-0.077	-0.264
-619.361	-105.544	-0.077	0.017
-618.346	800.000	0.038	-0.159
-617.332	-200.000	0.009	-0.049
-616.317	409.850	0.071	0.150
-615.303	-200.000	-0.065	0.304
-614.288	-127.074	0.373	-0.055
-613.273	78.312	0.225	0.241
-612.259	800.000	0.034	-0.121
-611.244	515.917	-0.171	0.401
-610.230	431.252	-0.043	-0.094
-609.215	154.767	-0.098	-0.135
-608.201	47.606	0.082	0.077
-607.186	800.000	-0.079	0.312
-606.171	369.009	0.259	0.525
-605.157	-44.335	0.192	0.096
-604.142	287.851	-0.106	0.193
-603.128	54.185	0.133	0.129
-602.113	800.000	0.014	-0.057
-601.098	-78.280	0.022	0.007
-600.084	11.085	-0.065	0.050
-599.069	-108.919	-0.299	-0.064
-598.055	800.000	-0.036	-0.113
-597.040	336.482	-0.089	-0.173
-596.025	-131.769	-0.291	0.038
-595.011	256.131	0.170	0.292
-593.996	52.899	0.070	-0.067
-592.982	-18.016	-0.195	0.122
-591.967	-61.946	0.110	0.046
-590.952	192.618	-0.182	0.275
-589.938	-22.431	-0.090	0.054
-588.923	387.410	0.007	-0.014
-587.909	91.739	0.120	0.135
-586.894	-154.975	0.402	-0.026
-585.879	-200.000	-0.008	-0.232
-584.865	-31.378	-0.271	0.153
-583.850	74.630	-0.105	0.111
-582.836	-9.767	0.141	-0.094
-581.821	800.000	0.060	-0.255
-580.806	800.000	-0.033	-0.131
-579.792	-113.511	0.210	-0.041
-578.777	-117.459	-0.309	0.056
-577.763	-111.762	-0.620	0.126
-576.748	800.000	0.071	-0.282
-575.733	144.814	0.045	0.060
-574.719	225.775	-0.103	-0.168
-573.704	650.633	0.039	-0.099
-572.690	78.480	-0.052	0.055
-571.675	-199.980	-0.151	-0.001
-570.661	-200.000	0.075	-0.419
-569.646	-176.338	-0.057	0.001
-568.631	79.178	-0.082	0.088
-567.617	800.000	-0.048	-0.175
-566.602	277.271	0.127	-0.226
-565.588	-96.681	-0.087	0.023
-564.573	-121.298	0.270	-0.045
-563.558	-173.567	-0.024	0.001
-562.544	-21.279	-0.188	0.115
-561.529	-200.000	-0.032	-0.202
-560.515	-104.112	0.033	-0.008
-559.500	89.378	-0.095	0.106
-558.485	-63.731	-0.403	0.165
-557.471	-200.000	0.030	-0.379
-556.456	-147.051	-0.209	-0.018
-555.442	197.427	-0.124	-0.190
-554.427	800.000	0.055	-0.202
-553.412	-78.916	-0.279	0.095
-552.398	-54.209	-0.096	-0.044
-551.383	68.444	-0.111	0.114
-550.369	-23.486	0.189	-0.114
-549.354	-100.457	0.262	0.065
-548.339	310.478	0.212	0.397
-547.325	-90.943	-0.103	0.030
-546.310	51.725	0.052	-0.049
-545.296	-112.439	-0.212	0.042
-544.281	-132.552	0.250	-0.032
-543.266	-39.679	-0.007	-0.003
-542.252	114.542	-0.112	0.136
-541.237	-48.844	0.381	-0.183
-540.223	-200.000	-0.040	-0.342
-539.208	-119.382	0.292	0.051
-538.193	-200.000	0.015	0.122
-537.179	-200.000	0.013	-0.065
-536.164	-105.659	-0.154	-0.035
-535.150	800.000	-0.077	0.217
-534.135	-200.000	-0.013	-0.369
-533.121	-200.000	0.044	-0.339
-532.106	212.774	-0.126	0.199
-531.091	17.380	-0.213	0.169
-530.077	30.570	-0.187	-0.160
-529.062	-146.511	-0.162	0.014
-528.048	64.161	0.267	0.268
-527.033	-99.405	-0.244	-0.061
-526.018	800.000	-0.056	0.215
-525.004	-98.215	0.165	-0.042
-523.989	-44.404	0.174	0.087
-522.975	-200.000	0.064	-0.347
-521.960	-132.642	0.289	-0.037
-520.945	800.000	-0.015	-0.043
-519.931	380.018	0.113	0.232
-518.916	60.693	0.145	0.144
-517.902	-200.000	-0.031	0.141
-516.887	414.364	-0.087	0.184
-515.872	-200.000	-0.017	0.143
-514.858	-144.619	0.155	-0.014
-513.843	-200.000	0.038	-0.220
-512.829	-104.951	0.141	0.032
-511.814	800.000	-0.128	-0.443
-510.799	4.311	-0.029	0.021
-509.785	530.663	-0.085	0.201
-508.770	-165.003	0.010	0.000
-507.756	-64.562	0.174	0.071
-506.741	-55.374	0.285	-0.128
-505.726	-72.866	-0.164	0.060
-504.712	189.870	-0.133	-0.200
-503.697	-200.000	0.014	0.088
-502.683	-153.341	-0.305	-0.021
-501.668	-108.374	-0.173	0.037
-500.653	533.170	-0.077	-0.181
-499.639	800.000	0.096	0.276
-498.624	-30.423	0.088	-0.050
-497.610	7.901	-0.246	-0.184
-496.595	555.065	0.031	-0.075
-495.581	273.196	-0.076	0.135
-494.566	-151.491	-0.517	0.038
-493.551	84.446	-0.060	0.066
-492.537	-109.840	-0.445	0.093
-491.522	800.000	-0.047	0.138
-490.508	-2.095	0.092	-0.065
-489.493	121.133	-0.074	0.092
-488.478	378.011	-0.151	0.308
-487.464	-131.323	0.170	-0.022
-486.449	-95.582	0.341	-0.091
-485.435	-200.000	0.022	-0.123
-484.420	18.112	-0.155	0.123
-483.405	124.294	-0.108	0.136
-482.391	37.692	-0.175	-0.155
-481.376	-163.593	0.332	-0.016
-480.362	-8.440	-0.013	-0.009
-479.347	107.226	0.038	0.045
-478.332	718.801	0.041	0.108
-477.318	-190.314	-0.265	-0.003
-476.303	800.000	-0.082	0.318
-475.289	196.147	-0.275	-0.418
-474.274	-126.927	-0.347	-0.051
-473.259	-92.665	0.319	-0.089
-472.245	649.236	-0.017	-0.043
-471.230	-120.366	0.324	0.055
-470.216	101.304	-0.256	0.297
-469.201	-111.985	0.303	0.061
-468.186	41.981	-0.076	-0.069
-467.172	-83.677	-0.141	0.045
-466.157	41.631	0.224	-0.202
-465.143	-36.219	-0.188	-0.101
-464.128	-60.390	0.164	0.069
-463.113	766.625	0.100	0.272
-462.099	-97.454	-0.288	-0.075
-461.084	42.551	0.131	0.119
-460.070	65.807	0.107	-0.108
-459.055	-200.000	0.001	0.199
-458.040	126.822	0.166	0.210
-457.026	2.387	-0.185	-0.133
-456.011	-139.687	-0.118	-0.012
-454.997	46.569	0.280	-0.259
-453.982	-200.000	0.023	0.137
-452.968	539.431	-0.068	0.160
-451.953	800.000	0.088	0.286
-450.938	-200.000	-0.017	0.104
-449.924	42.578	-0.267	0.242
-448.909	-46.750	0.218	-0.106
-447.895	-77.356	0.137	-0.047
-446.880	-116.971	-0.195	-0.036
-445.865	45.295	0.040	-0.036
-444.851	394.264	-0.065	-0.136
-443.836	610.768	-0.143	-0.356
-442.822	1.209	-0.329	-0.235
-441.807	81.583	-0.086	0.093
-440.792	-172.688	0.178	-0.006
-439.778	-200.000	-0.067	-0.560
-438.763	119.565	-0.052	0.064
-437.749	-98.928	-0.109	-0.027
-436.734	-155.010	0.153	-0.010
-435.719	-200.000	0.059	-0.467
-434.705	-41.424	-0.230	0.118
-433.690	67.540	0.036	0.037
-432.676	740.956	0.119	-0.319
-431.661	800.000	0.187	-0.562
-430.646	-200.000	0.009	0.084
-429.632	-78.791	0.153	0.052
-428.617	479.123	0.076	0.172
-427.603	-200.000	-0.021	0.237
-426.588	90.222	-0.132	0.146
-425.573	-200.000	0.020	0.314
-424.559	-156.247	-0.087	-0.005
-423.544	-200.000	0.015	0.203
-422.530	-200.000	-0.030	0.279
-421.515	419.428	-0.081	0.172
-420.500	16.035	0.205	-0.161
-419.486	147.768	0.060	0.081
-418.471	-130.762	-0.150	-0.020
-417.457	-119.711	0.193	-0.033
-416.442	63.543	-0.165	0.165
-415.428	-74.741	-0.216	-0.077
-414.413	-23.369	0.125	-0.075
-413.398	-79.505	0.278	-0.094
-412.384	214.101	-0.125	0.197
-411.369	-100.000	-0.154	-0.038
-410.355	-61.018	-0.166	0.070
-409.340	-49.079	-0.289	0.138
-408.325	800.000	-0.086	-0.256
-407.311	95.176	0.147	-0.166
-406.296	800.000	0.038	0.109
-405.282	127.787	-0.172	-0.217
-404.267	113.984	0.202	0.244
-403.252	-67.822	-0.140	0.054
-402.238	-200.000	-0.006	-0.094
-401.223	-84.313	0.411	0.129
-400.209	433.438	-0.086	-0.186
-399.194	-200.000	0.015	-0.158
-398.179	-200.000	-0.051	-0.256
-397.165	25.281	-0.122	0.101
-396.150	-68.472	0.197	-0.076
-395.136	79.423	-0.056	0.059
-394.121	342.426	-0.127	-0.246
-393.106	-200.000	-0.048	0.299
-392.092	84.227	-0.229	-0.249
-391.077	-98.011	-0.216	0.055
-390.063	-200.000	0.033	0.359
-389.048	-80.054	0.123	0.041
-388.033	18.742	0.060	0.048
-387.019	-148.532	-0.325	-0.026
-386.004	-118.715	0.197	-0.034
-384.990	430.316	0.070	-0.151
-383.975	57.788	0.249	-0.242
-382.960	-200.000	-0.011	0.222
-381.946	191.561	0.041	-0.061
-380.931	-165.791	-0.364	-0.016
-379.917	800.000	0.103	-0.304
-378.902	-27.622	0.267	0.154
-377.888	633.152	-0.041	-0.104
-376.873	-65.584	0.299	0.119
-375.858	-200.000	-0.052	0.339
-374.844	770.352	-0.136	0.369
-373.829	482.465	0.090	0.204
-372.815	-30.243	-0.166	-0.094
-371.800	240.474	-0.055	0.091
-370.785	-148.035	-0.376	-0.031
-369.771	-139.229	0.220	-0.024
-368.756	-139.270	0.320	0.034
-367.742	12.022	-0.206	0.157
-366.727	433.431	0.113	0.243
-365.712	-53.925	-0.095	-0.043
-364.698	-46.483	-0.164	0.080
-363.683	-200.000	-0.034	0.388
-362.669	536.041	-0.091	0.214
-361.654	268.615	-0.105	0.182
-360.639	-84.325	0.169	-0.053
-359.625	-97.060	0.077	0.020
-358.610	-102.111	0.204	-0.049
-357.596	109.849	0.079	0.094
-356.581	585.346	-0.077	-0.187
-355.566	133.911	0.188	-0.242
-354.552	277.055	-0.009	-0.016
-353.537	136.787	-0.273	0.354
-352.523	80.107	0.084	0.090
-351.508	38.724	0.218	0.193
-350.493	-130.200	0.263	0.036
-349.479	-200.000	-0.022	-0.285
-348.464	-200.000	0.003	-0.253
-347.450	800.000	-0.034	-0.138
-346.435	-76.733	0.285	0.099
-345.420	800.000	0.060	0.198
-344.406	631.677	-0.034	0.085
-343.391	-37.608	0.014	-0.007
-342.377	118.581	-0.207	-0.253
-341.362	21.712	0.194	-0.157
-340.348	-153.768	-0.063	-0.004
-339.333	-200.000	-0.018	-0.113
-338.318	112.340	0.141	0.169
-337.304	495.882	-0.042	-0.097
-336.289	800.000	0.086	0.313
-335.275	-128.912	-0.210	-0.029
-334.260	-142.627	0.296	0.029
-333.245	-200.000	-0.055	0.260
-332.231	-200.000	0.023	0.115
-331.216	51.509	0.310	-0.293
-330.202	22.377	0.180	-0.146
-329.187	52.744	0.277	-0.263
-328.172	501.105	-0.030	-0.069
-327.158	-67.813	0.045	0.018
-326.143	-66.781	0.151	-0.059
-325.129	203.791	-0.207	-0.318
-324.114	270.919	0.074	-0.129
-323.099	-5.664	0.156	0.106
-322.085	164.036	-0.175	0.245
-321.070	-137.171	-0.098	0.011
-320.056	265.377	-0.099	0.172
-319.041	332.403	0.207	0.396
-318.026	-98.877	-0.044	-0.011
-317.012	-62.253	0.413	-0.171
-315.997	-64.003	0.078	-0.031
-314.983	399.872	-0.148	0.308
-313.968	180.941	-0.171	0.249
-312.953	-113.552	-0.143	0.028
-311.939	-0.184	0.130	0.091
-310.924	-109.392	-0.350	-0.073
-309.910	-200.000	0.018	0.099
-308.895	-15.124	-0.146	0.092
-307.880	-200.000	0.027	-0.121
-306.866	229.271	-0.161	-0.261
-305.851	-59.522	-0.231	-0.098
-304.837	51.283	0.206	0.194
-303.822	75.433	0.050	-0.052
-302.807	283.275	0.114	-0.203
-301.793	800.000	-0.035	0.115
-300.778	800.000	0.062	-0.211
-299.764	128.983	0.112	-0.142
-298.749	195.278	-0.072	0.108
-297.735	-200.000	-0.013	0.182
-296.720	800.000	0.037	-0.113
-295.705	-172.171	0.130	0.004
-294.691	-45.432	-0.092	0.045
-293.676	-4.785	0.139	0.095
-292.662	800.000	-0.049	-0.169
-291.647	-200.000	0.023	0.244
-290.632	-200.000	0.008	-0.242
-289.618	23.819	0.236	-0.193
-288.603	-200.000	-0.010	-0.078
-287.589	-200.000	-0.035	-0.168
-286.574	-137.816	0.094	0.010
-285.559	-55.509	-0.217	-0.096
-284.545	60.239	-0.110	-0.108
-283.530	27.016	-0.047	-0.039
-282.516	261.885	0.132	0.226
-281.501	-129.685	-0.114	0.016
-280.486	268.535	-0.127	-0.221
-279.472	-200.000	-0.035	0.211
-278.457	61.929	-0.314	-0.310
-277.443	334.362	-0.118	0.226
-276.428	-200.000	-0.008	-0.281
-275.413	38.927	-0.074	0.066
-274.399	800.000	-0.052	0.151
-273.384	800.000	0.085	0.259
-272.370	-52.882	-0.209	-0.095
-271.355	55.476	0.093	-0.089
-270.340	71.186	0.195	0.200
-269.326	304.525	0.124	-0.228
-268.311	-35.477	0.244	-0.131
-267.297	30.323	0.052	-0.044
-266.282	-27.021	0.105	-0.061
-265.267	439.984	0.091	-0.196
-264.253	335.114	-0.091	-0.173
-263.238	472.122	-0.143	-0.319
-262.224	-119.575	-0.213	-0.036
-261.209	-29.206	0.203	0.115
-260.195	-32.275	0.032	-0.018
-259.180	85.233	0.116	0.125
-258.165	47.368	0.121	0.111
-257.151	-28.288	-0.298	0.170
-256.136	-188.916	0.092	0.001
-255.122	800.000	-0.060	0.171
-254.107	21.552	0.162	0.130
-253.092	-147.969	0.321	0.026
-252.078	-125.572	-0.436	-0.065
-251.063	800.000	0.038	-0.115
-250.049	-200.000	-0.004	-0.458
-249.034	-200.000	0.002	0.115
-248.019	-141.294	0.173	-0.017
-247.005	-107.543	0.068	0.015
-245.990	-200.000	0.016	0.077
-244.976	-200.000	-0.004	0.333
-243.961	-98.960	0.109	0.027
-242.946	-173.881	0.117	-0.003
-241.932	92.772	0.344	0.384
-240.917	-21.767	-0.275	-0.166
-239.903	31.187	0.235	0.199
-238.888	-36.130	0.228	0.122
-237.873	-200.000	0.009	-0.110
-236.859	113.907	0.043	0.051
-235.844	667.403	-0.066	0.167
-234.830	-8.620	0.286	-0.190
-233.815	284.197	0.162	0.288
-232.800	112.397	0.066	0.078
-231.786	26.992	-0.071	-0.059
-230.771	800.000	0.110	-0.359
-229.757	-1.449	0.152	-0.106
-228.742	80.466	0.075	0.080
-227.727	-200.000	-0.063	-0.298
-226.713	-56.520	0.128	0.056
-225.698	-87.475	-0.174	-0.052
-224.684	124.513	0.015	-0.018
-223.669	-117.987	0.169	-0.030
-222.655	-135.604	0.162	-0.019
-221.640	-122.328	0.263	0.042
-220.625	124.659	-0.135	-0.167
-219.611	-54.417	-0.456	-0.204
-218.596	43.138	-0.192	0.173
-217.582	-200.000	-0.043	0.212
-216.567	-87.011	-0.249	-0.075
-215.552	800.000	0.105	-0.359
-214.538	-200.000	0.072	0.350
-213.523	48.634	0.141	0.130
-212.509	255.033	-0.156	-0.264
-211.494	258.383	-0.127	-0.215
-210.479	-83.241	0.141	-0.045
-209.465	270.427	0.151	0.262
-208.450	-200.000	-0.062	-0.472
-207.436	-173.514	0.242	-0.007
-206.421	193.974	-0.171	-0.256
-205.406	349.468	-0.244	-0.474
-204.392	366.061	-0.042	-0.084
-203.377	-94.370	-0.103	0.028
-202.363	-163.675	-0.182	0.008
-201.348	-70.876	0.065	0.024
-200.333	250.571	0.098	-0.164
-199.319	-200.000	-0.015	0.118
-198.304	246.327	0.100	-0.166
-197.290	-200.000	-0.035	0.185
-196.275	10.261	0.091	-0.069
-195.260	35.591	-0.053	0.046
-194.246	-200.000	0.004	0.114
-193.231	73.834	0.157	0.162
-192.217	214.839	0.132	-0.206
-191.202	-200.000	-0.014	0.107
-190.187	64.230	-0.140	-0.139
-189.173	-56.703	0.180	0.079
-188.158	71.587	-0.128	0.131
-187.144	47.731	-0.208	-0.191
-186.129	-127.007	0.136	-0.020
-185.114	60.998	-0.122	-0.119
-184.100	-139.920	-0.223	0.023
-183.085	800.000	-0.064	-0.220
-182.071	-78.328	0.236	-0.080
-181.056	-200.000	-0.001	0.086
-180.042	32.549	-0.277	0.236
-179.027	46.636	0.445	0.407
-178.012	145.607	0.260	0.344
-176.998	-64.727	0.031	-0.012
-175.983	-96.401	0.386	-0.101
-174.969	-200.000	-0.008	-0.038
-173.954	554.672	-0.047	0.113
-172.939	144.625	-0.191	-0.251
-171.925	-89.468	0.105	-0.030
-170.910	130.109	0.072	-0.091
-169.896	-200.000	-0.004	0.287
-168.881	-126.728	0.042	0.006
-167.866	-130.454	-0.141	0.019
-166.852	-200.000	0.002	0.065
-165.837	-117.188	-0.082	0.015
-164.823	-200.000	-0.049	0.486
-163.808	-119.023	-0.285	-0.049
-162.793	-52.719	0.173	-0.079
-161.779	-136.211	0.161	0.019
-160.764	335.064	-0.190	0.362
-159.750	-72.331	0.152	-0.055
-158.735	-200.000	-0.041	-0.212
-157.720	271.544	0.193	-0.335
-156.706	44.879	-0.044	0.040
-155.691	-44.268	-0.150	-0.074
-154.677	-200.000	0.033	-0.237
-153.662	-200.000	-0.028	0.134
-152.647	800.000	-0.132	0.424
-151.633	50.172	0.135	0.125
-150.618	-52.904	0.193	0.088
-149.604	800.000	0.112	0.457
-148.589	535.640	0.094	-0.220
-147.574	57.927	0.320	-0.309
-146.560	27.210	0.298	0.246
-145.545	-12.673	0.487	0.312
-144.531	-200.000	0.005	0.215
-143.516	19.679	0.190	0.151
-142.502	50.598	0.265	-0.247
-141.487	43.739	-0.299	0.269
-140.472	-47.590	0.413	-0.197
-139.458	800.000	0.056	0.208
-138.443	-31.766	-0.128	-0.071
-137.429	-55.052	0.084	-0.037
-136.414	68.776	0.338	0.341
-135.399	-142.228	-0.394	-0.038
-134.385	539.602	-0.144	0.337
-133.370	-52.312	-0.101	0.046
-132.356	-51.489	0.333	-0.153
-131.341	85.475	-0.284	-0.307
-130.326	83.899	-0.262	-0.281
-129.312	176.159	0.120	0.171
-128.297	-102.249	0.289	0.068
-127.283	-108.959	0.171	0.036
-126.268	-200.000	0.009	-0.053
-125.253	-119.868	-0.216	-0.036
-124.239	41.325	-0.142	-0.126
-123.224	-4.968	-0.319	0.216
-122.210	760.335	-0.057	0.153
-121.195	-146.683	0.211	0.018
-120.180	-7.240	-0.156	0.104
-119.166	-112.670	-0.283	-0.055
-118.151	25.261	-0.120	0.098
-117.137	253.366	0.121	0.204
-116.122	-113.839	-0.221	-0.042
-115.107	-200.000	-0.004	-0.226
-114.093	-4.818	-0.182	0.123
-113.078	-39.130	-0.198	0.102
-112.064	-200.000	-0.007	-0.088
-111.049	418.168	-0.058	0.122
-110.034	-200.000	-0.063	0.572
-109.020	313.530	-0.053	0.098
-108.005	-117.920	0.323	-0.057
-106.991	26.594	-0.494	0.406
-105.976	149.515	0.139	0.185
-104.962	131.366	-0.175	0.222
-103.947	-34.892	-0.274	-0.147
-102.932	-131.965	0.348	-0.045
-101.918	-147.908	0.216	0.018
-100.903	92.845	0.241	-0.268
-99.889	800.000	-0.040	0.171
-98.874	-104.292	0.326	-0.074
-97.859	56.536	0.361	-0.345
-96.845	183.656	0.135	-0.197
-95.830	22.140	-0.324	0.260
-94.816	74.308	-0.097	0.100
-93.801	25.285	0.053	0.043
-92.786	170.762	-0.059	-0.084
-91.772	-8.584	0.307	0.202
-90.757	-58.821	-0.040	0.017
-89.743	680.997	0.114	0.292
-88.728	-84.273	0.203	-0.063
-87.713	480.590	-0.033	-0.072
-86.699	-200.000	0.001	0.037
-85.684	283.465	0.141	-0.250
-84.670	-200.000	-0.009	0.059
-83.655	537.302	0.060	-0.141
-82.640	-117.189	-0.446	-0.080
-81.626	-144.341	0.144	0.013
-80.611	141.788	0.117	0.153
-79.597	-16.183	0.401	-0.250
-78.582	800.000	0.027	0.108
-77.567	642.374	-0.071	0.177
-76.553	800.000	-0.091	-0.281
-75.538	800.000	-0.008	0.024
-74.524	-200.000	-0.038	-0.186
-73.509	108.099	0.210	0.246
-72.494	101.493	-0.132	0.151
-71.480	-200.000	0.055	0.235
-70.465	-154.984	-0.416	0.027
-69.451	217.399	0.042	0.065
-68.436	50.721	0.127	-0.118
-67.422	-200.000	0.003	0.043
-66.407	737.987	0.078	-0.205
-65.392	-110.201	0.296	0.061
-64.378	757.345	-0.078	-0.206
-63.363	-200.000	-0.058	0.288
-62.349	8.895	-0.255	0.189
-61.334	151.020	-0.801	-1.069
-60.319	10.551	0.619	0.463
-59.305	442.170	-0.517	-1.111
-58.290	800.000	0.367	1.297
-57.276	247.015	0.885	1.465
-56.261	-200.000	103.898	575.685
-55.246	478.763	1437.732	3193.571
-54.232	152.796	2622.020	3514.643
-53.217	102.584	2276.841	2611.847
-52.203	39.708	1895.469	1667.420
-51.188	33.941	1685.962	1439.541
-50.173	31.222	1642.680	1382.429
-49.159	49.837	1694.399	1566.367
-48.144	50.599	1710.248	1586.685
-47.130	33.388	1668.616	1420.355
-46.115	30.762	1654.088	1388.375
-45.100	30.540	1650.181	1383.390
-44.086	30.585	1647.199	1381.171
-43.071	30.420	1645.295	1378.295
-42.057	30.516	1642.024	1376.213
-41.042	30.526	1640.189	1374.693
-40.027	30.540	1638.540	1373.358
-39.013	30.447	1636.663	1371.047
-37.998	30.464	1634.833	1369.582
-36.984	30.469	1634.041	1368.903
-35.969	30.635	1632.447	1368.729
-34.954	30.688	1630.507	1367.440
-33.940	30.678	1628.633	1365.744
-32.925	30.697	1627.226	1364.645
-31.911	30.644	1625.811	1363.015
-30.896	30.639	1623.484	1360.978
-29.881	30.520	1622.440	1359.177
-28.867	30.617	1620.501	1358.206
-27.852	30.689	1618.437	1356.946
-26.838	30.630	1617.516	1355.691
-25.823	30.707	1616.001	1354.932
-24.809	30.633	1615.078	1353.562
-23.794	30.578	1613.566	1351.842
-22.779	30.652	1611.954	1350.978
-21.765	30.667	1610.062	1349.448
-20.750	30.588	1608.685	1347.667
-19.736	30.681	1607.306	1347.133
-18.721	30.658	1606.114	1345.914
-17.706	30.686	1604.096	1344.366
-16.692	30.609	1602.825	1342.696
-15.677	30.694	1601.184	1341.883
-14.663	30.734	1599.729	1340.893
-13.648	30.626	1598.895	1339.363
-12.633	30.655	1596.664	1337.653
-11.619	30.590	1596.044	1336.609
-10.604	30.708	1594.263	1335.916
-9.590	30.681	1592.901	1334.524
-8.575	30.568	1592.111	1333.005
-7.560	30.597	1590.755	1332.023
-6.546	30.665	1589.805	1331.662
-5.531	30.705	1588.379	1330.702
-4.517	30.624	1587.227	1329.102
-3.502	30.620	1586.486	1328.399
-2.487	30.758	1584.142	1327.369
-1.473	30.249	1572.953	1314.339
-0.458	27.288	1553.451	1277.231
0.556	21.815	1554.250	1244.839
1.571	19.351	1578.617	1246.448
2.586	18.865	1590.877	1252.475
3.600	17.164	1538.390	1199.050
4.615	9.494	1429.405	1063.518
5.629	1.753	1364.962	966.496
6.644	0.191	1356.285	950.417
7.659	0.053	1355.800	949.122
8.673	0.029	1354.448	947.940
9.688	0.056	1351.960	946.281
10.702	-0.193	1349.770	943.103
11.717	3.490	1355.353	970.118
12.731	11.985	1368.487	1033.197
13.746	17.306	1375.447	1071.995
14.761	17.180	1374.128	1070.078
15.775	16.206	1371.003	1061.430
16.790	15.146	1368.895	1053.041
17.804	14.389	1366.677	1046.487
18.819	14.059	1365.084	1043.106
19.834	13.780	1363.482	1040.041
20.848	13.535	1362.440	1037.618
21.863	13.307	1360.943	1034.964
22.877	13.158	1360.215	1033.386
23.892	13.085	1359.423	1032.234
24.907	13.122	1358.309	1031.530
25.921	13.212	1357.407	1031.313
26.936	13.216	1356.669	1030.688
27.950	13.238	1356.045	1030.258
28.965	13.187	1355.030	1029.078
29.980	13.322	1353.802	1028.896
30.994	13.306	1353.377	1028.378
32.009	13.443	1351.892	1028.015
33.023	13.360	1351.037	1026.754
34.038	13.362	1349.565	1025.557
35.053	13.301	1348.748	1024.472
36.067	13.380	1347.387	1023.835
37.082	13.197	1347.021	1022.330
38.096	13.307	1345.865	1022.046
39.111	13.225	1345.391	1021.089
40.126	13.236	1344.075	1020.065
41.140	13.247	1343.283	1019.443
42.155	13.143	1343.210	1018.660
43.169	13.212	1342.785	1018.672
44.184	13.175	1342.266	1017.960
45.199	13.066	1342.237	1017.176
46.213	13.226	1341.627	1017.609
47.228	13.250	1340.879	1017.097
48.242	13.233	1339.464	1015.832
49.257	13.146	1338.494	1014.472
50.271	13.234	1336.997	1013.785
51.286	13.258	1335.520	1012.722
52.301	13.265	1334.197	1011.670
53.315	13.162	1333.130	1010.147
54.330	13.176	1332.440	1009.620
55.344	13.179	1330.939	1008.407
56.359	13.217	1329.408	1007.389
57.374	13.160	1328.718	1006.434
58.388	13.137	1328.197	1005.811
59.403	13.018	1327.804	1004.697
60.417	13.027	1327.424	1004.377
61.432	13.041	1325.969	1003.272
62.447	13.032	1324.944	1002.350
63.461	13.025	1323.685	1001.266
64.476	12.937	1322.997	1000.124
65.490	12.978	1321.568	999.207
66.505	13.146	1319.598	998.645
67.520	13.118	1318.231	997.351
68.534	13.091	1317.871	996.831
69.549	13.044	1316.685	995.561
70.563	13.034	1315.639	994.621
71.578	13.032	1314.186	993.424
72.593	13.034	1313.289	992.666
73.607	12.876	1312.910	991.344
74.622	12.967	1311.906	991.044
75.636	13.044	1310.956	990.698
76.651	13.040	1310.363	990.144
77.666	12.814	1310.338	988.678
78.680	13.025	1308.883	988.758
79.695	12.969	1308.539	988.078
80.709	13.034	1307.597	987.669
81.724	13.112	1306.628	987.315
82.739	13.171	1306.170	987.232
83.753	13.165	1305.272	986.427
84.768	13.199	1304.296	985.810
85.782	13.253	1302.776	984.892
86.797	13.304	1301.438	984.097
87.812	13.220	1300.167	982.551
88.826	13.163	1299.285	981.459
89.841	13.206	1298.318	980.895
90.855	13.222	1297.373	980.190
91.870	13.310	1296.314	979.825
92.884	13.317	1295.757	979.359
93.899	13.196	1295.369	978.262
94.914	13.314	1294.562	978.265
95.928	13.323	1293.462	977.400
96.943	13.372	1292.134	976.602
97.957	13.236	1291.571	975.287
98.972	13.175	1290.546	974.068
99.987	13.302	1289.098	973.631
101.001	13.398	1288.167	973.409
102.016	13.266	1287.331	971.917
103.030	13.291	1286.717	971.514
104.045	13.318	1285.509	970.673
105.060	13.265	1284.531	969.538
106.074	13.101	1283.163	967.461
107.089	13.081	1282.061	966.427
108.103	13.110	1280.189	965.099
109.118	13.072	1279.241	964.078
110.133	13.153	1277.960	963.499
111.147	13.145	1276.905	962.571
112.162	13.169	1275.394	961.485
113.176	13.283	1274.396	961.311
114.191	13.262	1273.356	960.321
115.206	13.174	1272.311	958.940
116.220	13.161	1271.271	957.995
117.235	13.201	1270.131	957.281
118.249	13.220	1269.225	956.626
119.264	13.185	1268.071	955.469
120.279	13.177	1266.751	954.343
121.293	13.160	1265.882	953.503
122.308	13.165	1264.906	952.711
123.322	13.165	1263.840	951.826
124.337	13.054	1262.697	950.241
125.352	13.151	1261.560	949.862
126.366	13.099	1260.582	948.743
127.381	13.131	1259.730	948.197
128.395	13.140	1258.573	947.296
129.410	13.227	1257.636	947.008
130.424	13.202	1257.091	946.369
131.439	13.254	1255.921	945.704
132.454	13.198	1254.958	944.570
133.468	13.256	1254.066	944.148
134.483	13.238	1253.451	943.503
135.497	13.160	1252.524	942.272
136.512	13.217	1251.683	941.884
137.527	13.199	1249.802	940.282
138.541	13.180	1248.658	939.231
139.556	13.210	1247.718	938.612
140.570	13.387	1246.392	938.531
141.585	13.284	1245.246	937.002
142.600	13.408	1243.635	936.409
143.614	13.391	1242.909	935.685
144.629	13.407	1241.755	934.825
145.643	13.420	1240.435	933.821
146.658	13.331	1239.511	932.540
147.673	13.332	1238.070	931.378
148.687	13.260	1237.069	930.142
149.702	13.291	1235.901	929.354
150.716	13.381	1234.345	928.606
151.731	13.265	1233.225	927.028
152.746	13.284	1232.162	926.254
153.760	13.384	1230.978	925.842
154.775	13.393	1229.902	925.001
155.789	13.372	1228.885	924.037
156.804	13.485	1227.699	923.695
157.819	13.356	1227.211	922.529
158.833	13.582	1225.833	922.671
159.848	13.626	1224.741	922.011
160.862	13.471	1224.067	920.560
161.877	13.484	1222.640	919.476
162.892	13.427	1221.684	918.362
163.906	13.474	1220.871	917.929
164.921	13.384	1220.281	916.902
165.935	13.494	1219.190	916.613
166.950	13.550	1218.548	916.357
167.964	13.525	1217.857	915.619
168.979	13.416	1217.249	914.477
169.994	13.465	1216.574	914.162
171.008	13.474	1215.545	913.355
172.023	13.625	1214.648	913.433
173.037	13.663	1214.083	913.138
174.052	13.570	1213.202	911.883
175.067	13.537	1212.010	910.723
176.081	13.484	1210.803	909.447
177.096	13.539	1209.722	908.854
178.110	13.624	1209.239	908.880
179.125	13.547	1207.966	907.420
180.140	13.535	1206.516	906.186
181.154	13.667	1205.069	905.737
182.169	13.669	1204.185	905.006
183.183	13.647	1203.214	904.077
184.198	13.740	1201.681	903.351
185.213	13.652	1201.110	902.363
186.227	13.772	1199.846	901.987
187.242	13.824	1198.541	901.207
188.256	13.870	1197.295	900.440
189.271	13.828	1196.723	899.700
190.286	13.632	1196.076	898.076
191.300	13.533	1195.259	896.845
192.315	13.612	1194.517	896.639
193.329	13.558	1193.793	895.724
194.344	13.707	1192.683	895.615
195.359	13.590	1192.643	894.872
196.373	13.676	1192.121	894.868
197.388	13.797	1191.276	894.806
198.402	13.974	1190.694	895.245
199.417	13.908	1190.285	894.502
200.432	13.934	1189.448	893.935
201.446	14.090	1188.178	893.738
202.461	13.952	1187.853	892.675
203.475	14.087	1186.370	892.202
204.490	14.062	1185.208	891.115
205.504	14.033	1184.193	890.119
206.519	13.918	1183.214	888.688
207.534	14.056	1182.053	888.477
208.548	13.861	1181.268	886.769
209.563	13.929	1180.267	886.297
210.577	13.991	1179.827	886.220
211.592	14.051	1178.510	885.471
212.607	14.120	1177.731	885.174
213.621	14.143	1176.787	884.509
214.636	14.134	1175.822	883.662
215.650	14.090	1175.193	882.876
216.665	14.121	1174.066	882.116
217.680	14.244	1173.108	881.972
218.694	14.232	1172.475	881.353
219.709	14.300	1171.226	880.695
220.723	14.333	1170.646	880.356
221.738	14.249	1170.295	879.568
222.753	14.250	1169.189	878.665
223.767	14.185	1168.840	877.980
224.782	14.432	1168.173	878.708
225.796	14.371	1167.332	877.675
226.811	14.365	1166.713	877.101
227.826	14.329	1166.185	876.434
228.840	14.287	1165.244	875.428
229.855	14.350	1164.476	875.108
230.869	14.342	1163.664	874.375
231.884	14.256	1163.248	873.537
232.899	14.382	1162.099	873.257
233.913	14.363	1161.208	872.407
234.928	14.296	1160.732	871.625
235.942	14.161	1159.870	870.193
236.957	14.259	1159.746	870.536
237.972	14.283	1158.657	869.767
238.986	14.283	1157.903	869.125
240.001	14.359	1157.339	869.020
241.015	14.331	1156.473	868.146
242.030	14.338	1155.883	867.666
243.045	14.440	1155.078	867.516
244.059	14.527	1154.097	867.151
245.074	14.425	1153.255	865.915
246.088	14.437	1152.368	865.234
247.103	14.585	1151.649	865.383
248.117	14.720	1151.111	865.602
249.132	14.652	1150.264	864.537
250.147	14.721	1149.450	864.205
251.161	14.764	1148.685	863.778
252.176	14.907	1148.078	863.981
253.190	14.850	1147.633	863.275
254.205	14.809	1147.059	862.558
255.220	14.837	1146.372	862.110
256.234	14.996	1145.412	862.128
257.249	14.938	1145.103	861.524
258.263	15.003	1144.359	861.220
259.278	14.892	1143.933	860.256
260.293	14.882	1143.406	859.729
261.307	14.999	1142.365	859.471
262.322	14.959	1141.918	858.854
263.336	14.967	1141.517	858.516
264.351	14.920	1141.042	857.842
265.366	14.966	1140.156	857.334
266.380	14.998	1139.431	856.879
267.395	15.085	1138.552	856.587
268.409	15.067	1137.590	855.694
269.424	15.033	1137.216	855.168
270.439	14.974	1136.921	854.568
271.453	15.026	1136.104	854.145
272.468	15.020	1134.912	853.142
273.482	14.997	1134.112	852.347
274.497	15.015	1133.520	851.918
275.512	15.086	1133.348	852.076
276.526	14.997	1132.400	850.832
277.541	15.131	1131.046	850.422
278.555	15.007	1130.740	849.488
279.570	15.129	1130.123	849.566
280.585	15.185	1129.381	849.216
281.599	15.164	1128.555	848.416
282.614	15.196	1127.462	847.677
283.628	15.011	1126.750	846.135
284.643	15.232	1125.351	846.125
285.657	15.246	1124.522	845.497
286.672	15.303	1123.690	845.085
287.687	15.267	1123.032	844.334
288.701	15.191	1122.434	843.427
289.716	15.260	1121.447	842.957
290.730	15.177	1121.196	842.278
291.745	15.277	1120.359	842.075
292.760	15.398	1119.199	841.738
293.774	15.352	1118.596	840.979
294.789	15.473	1118.179	841.195
295.803	15.347	1117.872	840.260
296.818	15.438	1116.885	839.901
297.833	15.393	1116.074	838.990
298.847	15.470	1114.876	838.400
299.862	15.508	1114.225	838.026
300.876	15.449	1113.747	837.296
301.891	15.517	1112.874	836.906
302.906	15.391	1113.087	836.364
303.920	15.512	1111.859	835.971
304.935	15.611	1111.202	835.893
305.949	15.731	1110.259	835.709
306.964	15.636	1109.543	834.620
307.979	15.690	1109.191	834.552
308.993	15.616	1108.380	833.501
310.008	15.698	1107.374	833.078
311.022	15.684	1106.743	832.458
312.037	15.669	1105.982	831.740
313.052	15.566	1105.205	830.572
314.066	15.550	1104.206	829.671
315.081	15.611	1103.398	829.287
316.095	15.622	1102.265	828.418
317.110	15.582	1101.994	827.945
318.125	15.748	1100.961	827.913
319.139	15.606	1100.420	826.732
320.154	15.689	1099.430	826.323
321.168	15.592	1099.132	825.550
322.183	15.694	1098.640	825.608
323.197	15.685	1098.091	825.079
324.212	15.711	1097.266	824.513
325.227	15.698	1096.568	823.855
326.241	15.733	1095.982	823.510
327.256	15.676	1095.174	822.550
328.270	15.665	1094.164	821.668
329.285	15.768	1093.033	821.249
330.300	15.827	1092.453	821.025
331.314	15.807	1091.838	820.393
332.329	15.780	1090.486	819.177
333.343	15.752	1090.088	818.668
334.358	15.873	1089.047	818.401
335.373	15.842	1088.595	817.837
336.387	15.817	1087.805	817.050
337.402	15.879	1086.889	816.591
338.416	15.883	1086.000	815.873
339.431	15.957	1085.658	815.901
340.446	16.029	1085.164	815.807
341.460	16.128	1084.248	815.522
342.475	16.089	1083.525	814.721
343.489	16.083	1082.570	813.899
344.504	16.224	1081.738	813.884
345.519	16.224	1081.167	813.381
346.533	16.105	1080.297	812.082
347.548	16.262	1079.232	811.965
348.562	16.202	1078.748	811.241
349.577	16.164	1078.067	810.474
350.592	16.190	1077.128	809.819
351.606	16.119	1076.523	808.951
352.621	16.124	1075.900	808.437
353.635	16.221	1075.173	808.284
354.650	16.206	1074.502	807.635
355.665	16.112	1074.094	806.810
356.679	16.073	1073.673	806.233
357.694	16.193	1072.581	805.918
358.708	16.181	1072.380	805.636
359.723	16.283	1071.555	805.434
360.738	16.354	1070.617	804.992
361.752	16.262	1070.067	804.073
362.767	16.152	1070.153	803.542
363.781	16.314	1069.146	803.483
364.796	16.340	1068.572	803.106
365.810	16.450	1068.178	803.262
366.825	16.384	1067.290	802.210
367.840	16.379	1067.264	802.096
368.854	16.541	1066.467	802.194
369.869	16.539	1065.523	801.404
370.883	16.453	1064.674	800.286
371.898	16.589	1063.524	799.995
372.913	16.556	1063.281	799.582
373.927	16.549	1062.810	799.126
374.942	16.518	1062.636	798.777
375.956	16.565	1061.731	798.249
376.971	16.592	1061.240	797.939
377.986	16.567	1060.785	797.405
379.000	16.709	1059.948	797.376
380.015	16.773	1059.481	797.257
381.029	16.794	1058.693	796.689
382.044	16.678	1058.158	795.673
383.059	16.854	1056.935	795.506
384.073	16.776	1056.404	794.671
385.088	16.918	1055.498	794.584
386.102	16.771	1054.760	793.269
387.117	16.851	1053.922	792.946
388.132	16.719	1053.089	791.631
389.146	16.751	1052.031	790.918
390.161	16.634	1051.733	790.076
391.175	16.869	1050.765	790.372
392.190	16.723	1049.904	788.978
393.205	16.893	1049.037	789.046
394.219	16.919	1048.273	788.523
395.234	16.891	1047.675	787.874
396.248	16.817	1046.859	786.848
397.263	16.886	1046.031	786.472
398.278	16.798	1045.061	785.266
399.292	16.726	1044.586	784.509
400.307	16.787	1043.866	784.179
401.321	16.857	1043.080	783.843
402.336	16.881	1042.283	783.285
403.350	16.828	1042.111	782.843
404.365	16.855	1041.298	782.288
405.380	16.878	1040.401	781.650
406.394	16.896	1040.010	781.372
407.409	16.953	1039.215	780.965
408.423	17.064	1038.334	780.747
409.438	17.050	1037.722	780.150
410.453	17.156	1037.044	780.061
411.467	17.109	1036.702	779.516
412.482	17.149	1035.914	779.041
413.496	17.155	1035.202	778.461
414.511	17.167	1034.503	777.923
415.526	17.186	1034.279	777.774
416.540	17.303	1033.571	777.709
417.555	17.347	1032.945	777.366
418.569	17.248	1032.744	776.698
419.584	17.244	1032.263	776.246
420.599	17.322	1031.688	776.103
421.613	102.899	1321.828	1466.710
422.628	94.187	1364.059	1466.801
