DTS Sentinel unit serial number:	SN413079Multiplexer serial number:	ORYXHardware model number:	OX4-SRSoftware version number:	ORYX F/W v4.00 Oryx Data Collector v3.7.2.0data status	okinstallation	princeton_trtdifferential loss correction	single-endedforward channel	channel 2reverse channel	N/Adate	2019/09/16time	18:59:35forward acquisition time	60.00reverse acquisition time	0.00gamma	496.2192k internal	0.2323k external	0.2323temperature offset calibration	0.9964default loss term (dB/km)	0.3790temperature slope calibration	1.0000multiplexer offset coefficient	1.0000multiplexer slope coefficient	1.0000fibre end	0.00T internal ref (°C)	35.62T ext. ref 1 (°C)	0.07T ext. ref 2 (°C)	28.84length (m)	temperature (°C)	Stokes	anti-Stokes-747.200	-40.361	0.246	-0.129
-746.185	-200.000	0.002	0.238
-745.171	-76.308	-0.314	0.112
-744.156	374.843	0.163	0.335
-743.142	211.695	0.021	0.033
-742.127	-200.000	0.019	0.243
-741.112	49.584	-0.132	0.125
-740.098	-142.696	-0.339	0.033
-739.083	-197.332	0.027	-0.000
-738.069	36.641	0.264	0.235
-737.054	44.670	-0.251	-0.233
-736.039	732.751	0.039	-0.107
-735.025	104.659	-0.134	-0.160
-734.010	-55.018	-0.292	-0.133
-732.996	58.776	0.062	0.061
-731.981	-158.909	0.258	-0.015
-730.966	413.025	0.104	-0.224
-729.952	158.554	-0.113	-0.158
-728.937	472.139	-0.054	0.122
-727.923	800.000	0.018	0.062
-726.908	-112.412	-0.245	0.050
-725.894	-128.205	-0.152	-0.022
-724.879	800.000	-0.065	0.193
-723.864	270.527	0.176	-0.312
-722.850	119.784	-0.089	0.111
-721.835	226.741	-0.095	0.155
-720.821	-200.000	0.004	-0.161
-719.806	226.262	-0.085	0.139
-718.791	2.769	-0.164	0.120
-717.777	-98.233	-0.121	-0.031
-716.762	502.429	0.130	0.302
-715.748	-118.946	-0.239	-0.042
-714.733	-200.000	-0.009	-0.090
-713.718	-200.000	0.001	-0.125
-712.704	-200.000	-0.021	-0.196
-711.689	-77.578	0.121	0.042
-710.675	-111.477	-0.395	-0.081
-709.660	116.823	-0.050	0.062
-708.645	800.000	-0.063	-0.263
-707.631	-200.000	0.001	-0.355
-706.616	150.476	-0.255	-0.349
-705.602	-118.930	-0.169	-0.030
-704.587	-155.509	-0.408	-0.027
-703.572	-74.969	0.111	0.040
-702.558	-75.528	0.303	-0.109
-701.543	-35.449	0.334	-0.183
-700.529	-200.000	0.004	0.223
-699.514	260.286	0.208	-0.362
-698.499	-200.000	-0.003	-0.377
-697.485	-97.206	-0.152	0.040
-696.470	-63.959	0.293	-0.121
-695.456	-200.000	0.004	-0.383
-694.441	-137.871	-0.109	-0.012
-693.426	-32.187	0.319	0.180
-692.412	-6.944	-0.274	0.187
-691.397	235.626	-0.234	-0.389
-690.383	316.280	0.060	0.115
-689.368	304.766	-0.168	-0.315
-688.354	-18.342	-0.127	0.080
-687.339	41.622	0.161	0.147
-686.324	-20.367	0.092	-0.057
-685.310	-7.656	-0.207	-0.141
-684.295	21.992	-0.083	0.068
-683.281	766.064	0.098	-0.268
-682.266	-182.403	0.097	-0.002
-681.251	-66.323	-0.133	0.053
-680.237	224.775	0.072	0.118
-679.222	-200.000	-0.013	-0.081
-678.208	49.348	0.169	-0.160
-677.193	-66.743	0.138	-0.055
-676.178	394.483	-0.023	0.049
-675.164	-83.188	-0.151	-0.049
-674.149	-200.000	-0.041	0.211
-673.135	-82.044	-0.201	-0.066
-672.120	433.689	-0.153	-0.335
-671.105	276.386	0.048	0.085
-670.091	-200.000	0.015	-0.459
-669.076	-50.805	0.480	-0.227
-668.062	247.891	-0.094	-0.159
-667.047	-102.693	0.022	-0.005
-666.032	-69.846	-0.115	-0.044
-665.018	116.665	0.122	-0.151
-664.003	152.699	0.240	-0.330
-662.989	433.250	-0.124	-0.270
-661.974	-4.632	-0.102	-0.071
-660.959	8.240	-0.110	0.084
-659.945	12.936	-0.125	0.097
-658.930	483.800	-0.113	0.258
-657.916	-37.330	-0.133	-0.071
-656.901	800.000	0.030	-0.110
-655.886	-94.909	-0.170	-0.046
-654.872	-162.027	-0.609	0.031
-653.857	-74.393	0.145	-0.053
-652.843	129.979	-0.082	-0.105
-651.828	108.121	-0.287	-0.344
-650.814	800.000	0.059	-0.226
-649.799	-200.000	-0.023	0.182
-648.784	-128.819	0.140	-0.020
-647.770	-151.193	-0.130	-0.010
-646.755	66.605	-0.116	-0.119
-645.741	-200.000	-0.010	0.183
-644.726	-44.466	-0.193	0.097
-643.711	26.949	0.083	0.070
-642.697	800.000	-0.113	0.420
-641.682	83.910	-0.163	-0.179
-640.668	98.757	0.144	-0.167
-639.653	361.279	-0.138	0.278
-638.638	22.536	-0.273	-0.225
-637.624	21.776	0.072	0.059
-636.609	172.531	-0.107	-0.156
-635.595	79.144	-0.187	-0.202
-634.580	55.686	0.254	-0.248
-633.565	-15.073	-0.216	0.139
-632.551	32.937	-0.298	0.259
-631.536	-179.045	0.235	0.005
-630.522	-45.061	0.074	0.037
-629.507	522.636	0.112	0.264
-628.492	-60.114	0.032	-0.014
-627.478	-107.143	0.322	0.071
-626.463	-28.966	-0.183	-0.106
-625.449	-3.932	-0.302	0.210
-624.434	-78.075	-0.244	0.085
-623.419	-160.906	0.173	0.009
-622.405	-75.142	-0.405	0.146
-621.390	-32.543	0.077	0.043
-620.376	800.000	0.053	0.180
-619.361	-193.919	0.179	-0.002
-618.346	-64.847	-0.267	0.109
-617.332	715.694	-0.080	0.214
-616.317	-13.541	-0.026	0.017
-615.303	49.943	0.043	-0.041
-614.288	69.361	-0.282	0.292
-613.273	475.739	-0.057	-0.128
-612.259	-132.452	-0.130	-0.017
-611.244	99.133	-0.166	-0.192
-610.230	-15.499	-0.079	-0.050
-609.215	-30.339	-0.319	0.182
-608.201	129.605	0.101	-0.129
-607.186	7.009	0.260	-0.195
-606.171	-179.250	-0.278	-0.006
-605.157	-200.000	-0.039	-0.222
-604.142	-35.854	-0.365	-0.199
-603.128	-45.277	0.363	-0.181
-602.113	172.338	-0.091	0.131
-601.098	371.397	-0.015	-0.030
-600.084	-142.278	-0.616	0.061
-599.069	-42.633	0.050	0.025
-598.055	319.936	0.128	-0.244
-597.040	800.000	0.068	0.285
-596.025	-121.458	-0.179	-0.030
-595.011	138.118	0.074	-0.097
-593.996	-76.797	0.390	-0.137
-592.982	484.684	-0.050	0.113
-591.967	-200.000	0.022	-0.222
-590.952	225.130	-0.110	0.179
-589.938	-61.224	0.287	-0.122
-588.923	-90.365	0.368	0.107
-587.909	261.958	-0.197	0.343
-586.894	-143.898	-0.450	-0.043
-585.879	-2.974	-0.038	-0.026
-584.865	800.000	0.127	0.419
-583.850	800.000	0.032	-0.090
-582.836	298.278	-0.137	-0.253
-581.821	206.426	0.153	-0.239
-580.806	-2.588	0.178	-0.125
-579.792	30.765	-0.262	0.225
-578.777	24.037	-0.134	0.111
-577.763	-40.195	0.095	-0.050
-576.748	2.469	0.091	-0.066
-575.733	-113.798	-0.350	0.068
-574.719	-200.000	0.060	0.275
-573.704	-122.687	-0.331	-0.054
-572.690	343.208	0.140	-0.276
-571.675	122.692	0.061	-0.076
-570.661	29.012	-0.113	0.096
-569.646	45.038	-0.229	0.212
-568.631	-200.000	0.021	0.548
-567.617	-32.296	0.110	-0.061
-566.602	150.282	-0.252	-0.343
-565.588	386.365	-0.058	0.120
-564.573	-200.000	-0.001	-0.198
-563.558	609.996	-0.050	0.125
-562.544	-200.000	0.048	-0.331
-561.529	-128.590	0.223	0.032
-560.515	144.389	-0.083	-0.112
-559.500	155.368	0.064	0.088
-558.485	-66.316	-0.179	0.071
-557.471	97.654	0.187	-0.215
-556.456	225.018	-0.134	0.217
-555.442	113.589	0.109	0.133
-554.427	-45.456	0.092	-0.046
-553.412	-79.854	-0.222	-0.075
-552.398	-68.524	-0.264	0.103
-551.383	800.000	-0.036	0.141
-550.369	-85.620	0.243	0.076
-549.354	2.830	0.259	-0.188
-548.339	777.951	-0.094	0.257
-547.325	-200.000	0.015	0.356
-546.310	-21.933	-0.303	0.184
-545.296	35.696	0.173	-0.152
-544.281	-42.962	-0.123	0.063
-543.266	800.000	-0.078	-0.237
-542.252	-80.886	0.131	0.043
-541.237	42.004	-0.202	0.183
-540.223	228.214	-0.199	-0.324
-539.208	61.772	0.198	-0.197
-538.193	-200.000	-0.087	0.401
-537.179	591.420	-0.068	-0.167
-536.164	800.000	-0.082	-0.243
-535.150	-200.000	-0.021	0.157
-534.135	109.565	-0.047	0.056
-533.121	614.695	-0.050	0.125
-532.106	-200.000	-0.002	-0.148
-531.091	-200.000	-0.061	0.273
-530.077	126.392	0.089	0.112
-529.062	60.420	0.134	0.133
-528.048	-200.000	0.199	-0.000
-527.033	800.000	-0.035	-0.148
-526.018	-115.464	-0.447	0.084
-525.004	-200.000	-0.021	0.096
-523.989	276.610	0.124	0.221
-522.975	408.418	-0.068	-0.144
-521.960	540.386	-0.016	0.039
-520.945	107.221	-0.142	-0.169
-519.931	31.083	0.175	0.150
-518.916	580.178	-0.148	-0.363
-517.902	-106.404	0.231	0.052
-516.887	800.000	-0.034	0.147
-515.872	-40.375	0.158	-0.082
-514.858	-200.000	-0.064	0.355
-513.843	-200.000	-0.000	-0.008
-512.829	-200.000	-0.035	0.262
-511.814	162.137	-0.172	-0.241
-510.799	-200.000	-0.028	-0.472
-509.785	800.000	0.061	0.245
-508.770	800.000	0.110	-0.304
-507.756	-200.000	-0.011	-0.106
-506.741	-116.034	-0.160	0.030
-505.726	143.220	-0.098	-0.130
-504.712	800.000	0.079	0.247
-503.697	106.497	0.177	-0.210
-502.683	-92.109	0.174	-0.049
-501.668	-113.544	0.181	-0.035
-500.653	702.478	-0.170	0.448
-499.639	134.185	-0.097	-0.126
-498.624	800.000	0.045	0.125
-497.610	95.643	-0.265	-0.303
-496.595	-9.208	0.290	-0.194
-495.581	-109.876	-0.143	-0.030
-494.566	-159.123	-0.331	0.019
-493.551	187.664	0.115	-0.172
-492.537	206.811	-0.136	-0.212
-491.522	99.509	0.138	0.159
-490.508	-33.464	0.125	-0.069
-489.493	332.097	-0.095	-0.184
-488.478	800.000	0.099	-0.283
-487.464	-200.000	0.026	-0.160
-486.449	800.000	0.014	-0.047
-485.435	-134.974	-0.312	0.038
-484.420	-125.754	0.186	-0.028
-483.405	-58.974	0.182	-0.079
-482.391	-34.617	-0.121	-0.066
-481.376	-200.000	-0.008	-0.202
-480.362	-102.421	0.202	-0.048
-479.347	44.422	0.172	-0.158
-478.332	-200.000	-0.018	-0.175
-477.318	-13.801	0.128	-0.083
-476.303	800.000	0.135	-0.429
-475.289	-32.025	0.061	0.034
-474.274	-91.973	-0.028	0.008
-473.259	-100.475	-0.127	0.031
-472.245	-5.677	-0.079	0.054
-471.230	391.926	-0.199	-0.413
-470.216	-148.123	-0.117	0.010
-469.201	25.316	-0.204	-0.169
-468.186	354.157	-0.046	-0.090
-467.172	-67.980	-0.193	-0.075
-466.157	-26.027	-0.316	-0.185
-465.143	414.416	0.196	-0.418
-464.128	399.518	0.131	0.274
-463.113	-25.293	-0.438	0.259
-462.099	-200.000	-0.024	0.161
-461.084	-78.146	0.206	0.071
-460.070	43.254	0.138	0.126
-459.055	0.959	-0.104	-0.074
-458.040	800.000	0.038	-0.121
-457.026	-103.472	0.280	0.066
-456.011	92.193	-0.064	-0.072
-454.997	726.859	-0.063	-0.169
-453.982	-168.797	-0.209	0.008
-452.968	606.508	0.132	0.328
-451.953	303.880	-0.130	0.240
-450.938	-200.000	-0.030	-0.288
-449.924	210.912	0.234	-0.367
-448.909	-64.114	-0.228	0.093
-447.895	-172.097	-0.243	-0.008
-446.880	-200.000	-0.067	-0.491
-445.865	-132.321	0.080	0.010
-444.851	-200.000	-0.013	0.087
-443.836	-200.000	-0.054	-0.429
-442.822	-200.000	-0.025	0.358
-441.807	-33.340	-0.099	-0.055
-440.792	-132.409	-0.294	0.038
-439.778	800.000	-0.066	0.253
-438.763	656.726	0.046	0.117
-437.749	-182.601	0.210	-0.004
-436.734	362.403	-0.046	-0.092
-435.719	-108.658	-0.097	0.021
-434.705	60.990	0.229	0.226
-433.690	-39.045	0.151	-0.079
-432.676	369.302	-0.027	0.054
-431.661	535.455	-0.108	0.256
-430.646	-23.299	-0.052	-0.031
-429.632	469.860	0.066	0.149
-428.617	88.614	0.225	0.249
-427.603	-97.761	0.241	0.062
-426.588	800.000	-0.066	0.213
-425.573	-10.390	0.221	-0.146
-424.559	-14.664	-0.143	-0.092
-423.544	-96.629	-0.139	0.037
-422.530	800.000	0.030	-0.113
-421.515	-200.000	0.026	0.161
-420.500	13.171	-0.198	0.153
-419.486	618.037	0.100	0.251
-418.471	-200.000	-0.014	0.321
-417.457	-41.755	0.169	-0.086
-416.442	-117.552	-0.102	-0.018
-415.428	-112.245	0.254	0.051
-414.413	-36.651	0.151	-0.081
-413.398	5.969	0.100	-0.074
-412.384	-44.731	-0.145	0.072
-411.369	-135.205	0.369	-0.044
-410.355	63.208	0.175	0.175
-409.340	-200.000	0.011	0.210
-408.325	161.469	-0.164	0.229
-407.311	-63.974	-0.172	0.070
-406.296	70.662	-0.087	0.089
-405.282	-175.601	0.243	0.007
-404.267	97.921	-0.186	0.213
-403.252	-38.775	0.214	-0.112
-402.238	-12.089	-0.361	-0.236
-401.223	-82.311	-0.142	-0.046
-400.209	800.000	-0.052	0.212
-399.194	45.289	0.126	0.116
-398.179	-102.204	0.214	-0.051
-397.165	-159.533	-0.209	0.012
-396.150	-133.959	0.326	0.040
-395.136	-161.186	-0.126	0.007
-394.121	72.557	0.190	0.197
-393.106	-174.438	0.445	-0.013
-392.092	-104.831	0.234	0.054
-391.077	246.107	0.154	-0.259
-390.063	-139.802	0.304	0.032
-389.048	668.305	-0.045	0.116
-388.033	-108.065	0.077	-0.017
-387.019	235.880	-0.044	-0.073
-386.004	115.860	-0.190	-0.231
-384.990	-200.000	-0.021	0.098
-383.975	800.000	0.089	0.387
-382.960	-36.774	0.232	0.124
-381.946	414.476	0.071	0.150
-380.931	-105.153	-0.050	0.011
-379.917	-200.000	-0.023	-0.203
-378.902	-200.000	-0.043	-0.249
-377.888	800.000	-0.058	-0.191
-376.873	-57.960	-0.381	-0.166
-375.858	172.664	0.045	0.065
-374.844	-60.796	-0.153	-0.064
-373.829	343.042	0.228	-0.445
-372.815	714.669	-0.053	0.140
-371.800	315.818	-0.043	0.081
-370.785	158.330	-0.053	-0.073
-369.771	800.000	0.033	0.123
-368.756	179.740	-0.090	-0.132
-367.742	390.279	0.108	0.223
-366.727	64.273	-0.087	-0.088
-365.712	-102.025	0.029	0.007
-364.698	-200.000	-0.016	-0.085
-363.683	43.281	0.146	-0.133
-362.669	-200.000	0.053	-0.239
-361.654	800.000	0.025	0.101
-360.639	336.796	0.182	-0.352
-359.625	52.614	0.372	-0.353
-358.610	-200.000	-0.006	-0.067
-357.596	-35.644	-0.160	0.086
-356.581	22.511	-0.199	0.162
-355.566	74.793	-0.086	0.090
-354.552	71.456	0.136	-0.140
-353.537	800.000	-0.064	-0.251
-352.523	755.001	0.120	0.322
-351.508	-139.643	-0.413	0.044
-350.493	0.331	-0.105	-0.075
-349.479	398.080	-0.057	-0.118
-348.464	-65.717	0.289	0.115
-347.450	800.000	0.168	-0.489
-346.435	-52.275	0.054	-0.025
-345.420	-9.897	-0.149	-0.099
-344.406	27.873	0.083	0.070
-343.391	-200.000	-0.044	-0.204
-342.377	800.000	0.036	0.150
-341.362	-97.669	0.138	0.035
-340.348	-121.613	-0.204	-0.034
-339.333	-200.000	-0.011	-0.065
-338.318	90.307	0.146	-0.162
-337.304	442.861	0.060	-0.130
-336.289	800.000	-0.025	-0.096
-335.275	-117.586	0.360	0.064
-334.260	493.115	-0.141	-0.321
-333.245	-200.000	0.081	-0.479
-332.231	800.000	0.058	-0.160
-331.216	-170.516	0.215	-0.007
-330.202	-125.785	-0.106	0.016
-329.187	22.977	-0.151	0.123
-328.172	0.728	-0.033	0.024
-327.158	-170.630	0.143	-0.005
-326.143	173.171	-0.037	-0.053
-325.129	-200.000	-0.005	0.139
-324.114	-23.507	0.210	-0.125
-323.099	20.365	-0.092	-0.074
-322.085	-99.230	-0.189	0.047
-321.070	276.263	-0.211	-0.372
-320.056	-200.000	-0.027	0.137
-319.041	-71.763	0.098	0.036
-318.026	134.558	-0.028	-0.036
-317.012	-53.756	-0.234	-0.106
-315.997	17.840	0.144	-0.114
-314.983	-76.033	-0.246	0.086
-313.968	-93.653	0.362	0.099
-312.953	-76.243	-0.162	-0.057
-311.939	800.000	0.049	-0.145
-310.924	-66.718	0.137	-0.054
-309.910	-8.012	0.094	0.063
-308.895	800.000	-0.046	-0.135
-307.880	-64.882	-0.339	0.136
-306.866	-200.000	0.009	0.265
-305.851	135.377	0.154	-0.199
-304.837	30.686	-0.402	0.341
-303.822	800.000	0.051	0.200
-302.807	-200.000	0.034	-0.401
-301.793	800.000	0.028	0.120
-300.778	-200.000	-0.005	-0.136
-299.764	-35.831	0.246	-0.132
-298.749	-125.943	0.181	-0.027
-297.735	-200.000	-0.055	0.267
-296.720	636.900	-0.103	0.260
-295.705	2.046	0.093	-0.066
-294.691	11.537	-0.091	0.069
-293.676	292.508	-0.200	0.362
-292.662	-200.000	0.006	-0.179
-291.647	800.000	0.062	-0.254
-290.632	-144.170	0.192	0.018
-289.618	-115.657	-0.093	-0.017
-288.603	23.758	0.139	0.114
-287.589	85.641	0.261	-0.285
-286.574	402.303	0.100	0.209
-285.559	-80.197	-0.316	0.105
-284.545	-78.223	0.320	-0.109
-283.530	104.458	0.073	-0.085
-282.516	-60.732	0.060	-0.025
-281.501	-22.392	0.191	-0.114
-280.486	800.000	-0.051	0.144
-279.472	205.513	-0.169	0.260
-278.457	447.867	0.127	0.277
-277.443	-200.000	0.039	-0.237
-276.428	36.929	-0.085	-0.074
-275.413	-60.336	0.336	0.142
-274.399	502.994	-0.057	0.130
-273.384	-200.000	0.050	-0.276
-272.370	-28.974	0.208	-0.118
-271.355	-143.140	0.322	0.031
-270.340	-135.768	-0.200	-0.023
-269.326	-200.000	-0.076	0.332
-268.311	440.021	-0.079	-0.170
-267.297	76.556	0.133	-0.140
-266.282	800.000	-0.093	-0.333
-265.267	-88.227	0.140	-0.041
-264.253	-104.043	-0.146	0.034
-263.238	75.073	-0.226	0.236
-262.224	81.773	-0.292	0.313
-261.209	123.458	0.110	-0.137
-260.195	-87.781	0.118	0.035
-259.180	-148.209	-0.298	0.024
-258.165	-200.000	0.021	-0.241
-257.151	60.099	-0.112	0.110
-256.136	-200.000	-0.018	0.161
-255.122	500.778	0.093	0.212
-254.107	-109.777	-0.078	0.016
-253.092	-200.000	0.019	0.157
-252.078	-60.219	-0.232	0.098
-251.063	-200.000	-0.039	0.247
-250.049	-32.019	0.189	0.105
-249.034	-85.433	-0.097	0.030
-248.019	-50.040	0.246	0.115
-247.005	-147.521	0.220	-0.018
-245.990	41.157	-0.197	-0.176
-244.976	-110.464	-0.209	-0.043
-243.961	319.811	-0.178	-0.334
-242.946	800.000	0.046	0.139
-241.932	178.679	0.022	0.032
-240.917	-200.000	-0.010	-0.366
-239.903	-45.942	0.272	0.133
-238.888	800.000	0.020	0.067
-237.873	-89.886	-0.242	-0.070
-236.859	-162.733	0.055	-0.003
-235.844	800.000	-0.083	-0.293
-234.830	103.573	0.164	-0.190
-233.815	260.590	0.139	-0.237
-232.800	-90.765	-0.323	-0.092
-231.786	-182.270	0.224	0.004
-230.771	301.158	-0.246	0.449
-229.757	800.000	0.093	0.331
-228.742	-109.985	0.087	-0.018
-227.727	19.548	0.351	0.279
-226.713	-52.637	-0.119	-0.054
-225.698	151.561	-0.054	0.072
-224.684	800.000	0.070	-0.214
-223.669	156.517	0.175	0.239
-222.655	-179.960	-0.085	0.002
-221.640	-53.355	-0.296	0.134
-220.625	18.720	0.478	0.378
-219.611	800.000	-0.028	0.089
-218.596	-59.543	-0.062	0.026
-217.582	96.678	-0.069	0.079
-216.567	334.224	0.146	0.280
-215.552	-102.929	-0.214	0.050
-214.538	713.114	-0.056	-0.148
-213.523	154.254	0.099	0.134
-212.509	-200.000	-0.013	-0.064
-211.494	165.278	-0.097	-0.136
-210.479	-96.079	0.128	0.034
-209.465	14.658	-0.066	-0.051
-208.450	595.969	-0.118	0.288
-207.436	-113.872	0.074	-0.014
-206.421	168.337	0.028	0.040
-205.406	559.253	0.066	-0.158
-204.392	88.549	-0.062	-0.068
-203.377	-200.000	-0.025	0.436
-202.363	-138.188	0.283	0.031
-201.348	518.639	0.014	0.033
-200.333	-200.000	-0.023	0.134
-199.319	-61.669	-0.074	-0.031
-198.304	-84.238	-0.155	-0.049
-197.290	-119.362	0.311	-0.053
-196.275	221.491	0.120	0.191
-195.260	68.348	-0.084	0.085
-194.246	-200.000	0.073	0.360
-193.231	-140.825	0.310	0.032
-192.217	-15.632	0.204	0.129
-191.202	800.000	0.037	-0.121
-190.187	86.162	-0.431	-0.469
-189.173	800.000	0.045	-0.193
-188.158	-200.000	0.028	0.153
-187.144	-200.000	0.018	0.286
-186.129	77.998	0.091	0.096
-185.114	800.000	0.063	0.197
-184.100	45.258	0.076	-0.069
-183.085	31.192	-0.157	0.133
-182.071	37.239	0.187	-0.163
-181.056	150.180	0.137	-0.183
-180.042	23.813	0.129	-0.105
-179.027	239.050	0.178	-0.292
-178.012	-200.000	-0.059	-0.264
-176.998	-44.156	0.194	0.096
-175.983	-104.050	0.115	-0.026
-174.969	155.637	0.137	-0.186
-173.954	-200.000	-0.036	-0.204
-172.939	-200.000	-0.047	-0.206
-171.925	262.520	0.276	0.472
-170.910	49.836	-0.064	0.060
-169.896	170.250	0.184	-0.260
-168.881	-102.372	0.147	-0.035
-167.866	-200.000	-0.017	0.174
-166.852	96.450	-0.085	0.096
-165.837	27.704	-0.211	0.175
-164.823	-75.762	-0.132	0.046
-163.808	800.000	-0.090	0.295
-162.793	62.679	-0.108	-0.106
-161.779	-34.702	-0.229	-0.124
-160.764	-200.000	-0.027	-0.204
-159.750	-200.000	0.013	-0.119
-158.735	-54.841	-0.242	0.108
-157.720	-21.246	0.234	0.141
-156.706	-55.266	0.193	0.086
-155.691	-200.000	-0.015	0.072
-154.677	159.093	0.106	-0.145
-153.662	-57.306	0.205	-0.089
-152.647	-50.894	0.181	-0.084
-151.633	-87.554	0.284	0.085
-150.618	-1.972	0.193	0.134
-149.604	-105.732	-0.257	0.057
-148.589	800.000	-0.004	-0.015
-147.574	53.669	0.087	0.082
-146.560	-200.000	0.022	-0.477
-145.545	73.912	0.106	-0.110
-144.531	706.380	0.088	-0.230
-143.516	-200.000	-0.031	0.245
-142.502	-200.000	0.023	0.178
-141.487	16.067	0.086	-0.067
-140.472	265.195	-0.060	0.104
-139.458	-41.079	-0.095	-0.048
-138.443	-107.643	0.409	0.088
-137.429	-200.000	-0.091	-0.478
-136.414	357.282	0.030	0.058
-135.399	-5.024	0.115	-0.078
-134.385	296.850	-0.125	-0.226
-133.370	-200.000	-0.016	0.181
-132.356	800.000	0.087	0.287
-131.341	-35.001	-0.154	0.083
-130.326	-107.587	0.249	-0.054
-129.312	84.935	0.052	0.056
-128.297	324.194	-0.153	0.287
-127.283	-184.117	0.426	0.007
-126.268	-152.758	-0.362	-0.025
-125.253	97.958	-0.155	-0.176
-124.239	25.250	-0.117	-0.096
-123.224	800.000	0.024	0.101
-122.210	-38.233	0.191	0.100
-121.195	-51.865	0.297	0.136
-120.180	89.707	0.332	0.365
-119.166	778.968	-0.117	0.316
-118.151	354.615	0.137	-0.269
-117.137	-97.985	-0.327	-0.083
-116.122	-109.583	-0.162	0.034
-115.107	10.467	-0.187	0.140
-114.093	800.000	0.168	0.490
-113.078	413.418	-0.058	0.122
-112.064	68.404	-0.203	0.205
-111.049	180.869	0.179	0.259
-110.034	-80.075	-0.134	-0.044
-109.020	-200.000	-0.025	0.132
-108.005	-37.601	-0.074	0.039
-106.991	-42.601	0.174	-0.087
-105.976	119.439	0.197	0.241
-104.962	481.362	-0.155	0.346
-103.947	696.064	-0.097	0.250
-102.932	-99.493	0.241	-0.060
-101.918	800.000	0.042	0.163
-100.903	19.775	0.177	-0.140
-99.889	-200.000	0.056	-0.392
-98.874	-108.822	-0.208	-0.044
-97.859	-116.953	-0.231	0.042
-96.845	-100.717	0.333	0.081
-95.830	-77.421	0.124	0.042
-94.816	341.783	0.048	0.092
-93.801	-114.109	-0.194	0.037
-92.786	-144.788	0.368	0.033
-91.772	103.125	-0.054	0.063
-90.757	-74.511	-0.113	-0.040
-89.743	-200.000	0.001	0.128
-88.728	72.944	-0.123	0.127
-87.713	155.015	0.060	-0.082
-86.699	2.740	0.070	0.050
-85.684	-200.000	0.031	-0.167
-84.670	-200.000	-0.031	0.160
-83.655	-141.315	-0.276	0.028
-82.640	201.108	0.188	-0.285
-81.626	-114.798	-0.050	0.009
-80.611	782.728	0.118	0.317
-79.597	29.188	0.322	-0.269
-78.582	-4.730	-0.172	0.117
-77.567	150.485	-0.232	-0.310
-76.553	-103.157	0.241	0.056
-75.538	-126.465	-0.252	0.037
-74.524	800.000	-0.048	-0.141
-73.509	-200.000	-0.003	-0.099
-72.494	800.000	0.096	0.372
-71.480	-200.000	0.000	0.065
-70.465	114.159	-0.046	0.055
-69.451	23.254	-0.178	-0.144
-68.436	-58.383	0.265	-0.113
-67.422	100.097	-0.131	-0.149
-66.407	-200.000	0.086	0.447
-65.392	800.000	0.088	0.307
-64.378	87.740	0.178	0.194
-63.363	-25.779	-0.185	0.107
-62.349	-200.000	-0.008	0.178
-61.334	106.137	-0.827	-0.963
-60.319	401.038	0.250	0.516
-59.305	800.000	-0.229	-0.837
-58.290	5.977	0.959	0.698
-57.276	547.835	0.631	1.484
-56.261	-200.000	95.419	565.184
-55.246	556.957	1378.515	3265.400
-54.232	154.837	2579.774	3484.719
-53.217	110.159	2293.027	2705.749
-52.203	45.357	1909.995	1731.835
-51.188	38.976	1697.945	1491.237
-50.173	36.130	1653.316	1430.897
-49.159	52.743	1701.431	1597.978
-48.144	56.366	1719.235	1641.891
-47.130	38.764	1675.133	1469.380
-46.115	35.834	1660.024	1434.268
-45.100	35.500	1656.123	1428.359
-44.086	35.413	1653.274	1425.198
-43.071	35.524	1650.471	1423.552
-42.057	35.484	1648.138	1421.182
-41.042	35.533	1645.928	1419.582
-40.027	35.486	1643.991	1417.508
-39.013	35.580	1641.836	1416.293
-37.998	35.523	1640.467	1414.634
-36.984	35.517	1639.356	1413.571
-35.969	35.560	1637.555	1412.282
-34.954	35.734	1635.471	1411.707
-33.940	35.599	1634.414	1409.748
-32.925	35.526	1632.818	1407.780
-31.911	35.635	1630.601	1406.613
-30.896	35.593	1629.034	1404.894
-29.881	35.545	1627.911	1403.520
-28.867	35.575	1625.866	1401.921
-27.852	35.601	1624.185	1400.604
-26.838	35.663	1622.569	1399.608
-25.823	35.605	1621.727	1398.400
-24.809	35.669	1620.490	1397.749
-23.794	35.711	1618.732	1396.477
-22.779	35.639	1617.230	1394.604
-21.765	35.578	1615.746	1392.826
-20.750	35.692	1613.384	1391.566
-19.736	35.705	1612.489	1390.830
-18.721	35.653	1611.161	1389.254
-17.706	35.660	1609.329	1387.668
-16.692	35.605	1608.039	1386.108
-15.677	35.664	1606.258	1384.942
-14.663	35.694	1604.743	1383.791
-13.648	35.698	1603.509	1382.703
-12.633	35.705	1602.224	1381.594
-11.619	35.727	1600.272	1380.012
-10.604	35.658	1599.220	1378.552
-9.590	35.739	1597.647	1377.723
-8.575	35.582	1596.990	1375.979
-7.560	35.620	1595.681	1375.068
-6.546	35.657	1594.214	1374.010
-5.531	35.596	1593.246	1372.689
-4.517	35.630	1592.301	1372.064
-3.502	35.647	1591.023	1371.025
-2.487	35.721	1589.483	1370.177
-1.473	35.231	1577.544	1356.364
-0.458	32.005	1556.525	1315.666
0.556	25.851	1555.610	1278.160
1.571	23.118	1578.177	1276.892
2.586	22.377	1591.603	1282.239
3.600	20.206	1539.620	1224.940
4.615	11.410	1428.343	1078.419
5.629	2.282	1358.586	968.066
6.644	0.258	1349.952	949.083
7.659	0.150	1347.852	946.844
8.673	-0.027	1347.413	945.339
9.688	-0.090	1345.745	943.691
10.702	-0.174	1342.843	941.046
11.717	3.884	1349.450	971.106
12.731	12.966	1364.436	1039.249
13.746	18.130	1370.225	1076.149
14.761	17.321	1367.735	1069.015
15.775	16.314	1364.854	1060.345
16.790	15.162	1362.283	1051.033
17.804	14.356	1359.455	1043.709
18.819	14.009	1358.807	1040.948
19.834	13.782	1356.834	1037.923
20.848	13.485	1356.065	1035.384
21.863	13.299	1354.584	1033.000
22.877	13.070	1353.458	1030.624
23.892	12.982	1352.559	1029.295
24.907	13.030	1351.872	1028.980
25.921	13.149	1350.754	1028.781
26.936	13.125	1349.815	1027.823
27.950	13.095	1348.688	1026.692
28.965	13.130	1348.007	1026.299
29.980	13.244	1347.210	1026.306
30.994	13.311	1345.994	1025.705
32.009	13.374	1345.094	1025.319
33.023	13.328	1344.291	1024.331
34.038	13.251	1343.324	1023.027
35.053	13.206	1341.969	1021.629
36.067	13.268	1340.943	1021.138
37.082	13.227	1340.288	1020.297
38.096	13.287	1339.201	1019.747
39.111	13.274	1338.389	1018.960
40.126	13.138	1337.791	1017.579
41.140	13.078	1336.187	1015.900
42.155	13.055	1335.817	1015.384
43.169	13.045	1336.117	1015.463
44.184	13.090	1335.549	1015.218
45.199	13.013	1335.431	1014.562
46.213	13.152	1334.187	1014.385
47.228	13.115	1333.820	1013.785
48.242	13.124	1332.968	1013.105
49.257	13.133	1331.309	1011.811
50.271	13.189	1329.803	1010.917
51.286	13.201	1328.486	1009.904
52.301	13.214	1327.028	1008.786
53.315	13.118	1325.961	1007.294
54.330	13.135	1325.233	1006.758
55.344	13.110	1323.851	1005.470
56.359	13.101	1322.994	1004.674
57.374	13.073	1322.205	1003.814
58.388	13.047	1321.714	1003.192
59.403	13.055	1321.154	1002.732
60.417	13.003	1320.403	1001.753
61.432	12.990	1319.552	1000.939
62.447	12.994	1318.367	999.977
63.461	12.874	1317.036	998.156
64.476	13.035	1315.913	998.189
65.490	12.870	1315.256	996.605
66.505	12.931	1313.489	995.547
67.520	13.006	1312.433	995.107
68.534	13.031	1311.115	994.174
69.549	13.144	1309.565	993.590
70.563	13.004	1309.111	992.316
71.578	12.943	1308.004	991.023
72.593	12.908	1306.797	989.809
73.607	12.874	1306.134	989.015
74.622	12.875	1305.316	988.313
75.636	12.919	1304.338	987.748
76.651	12.958	1303.440	987.216
77.666	12.970	1302.827	986.739
78.680	12.891	1302.719	986.097
79.695	12.971	1301.612	985.650
80.709	12.892	1301.217	984.789
81.724	13.055	1300.096	984.827
82.739	13.091	1298.995	984.121
83.753	13.057	1298.702	983.608
84.768	13.232	1297.094	983.345
85.782	13.257	1296.218	982.741
86.797	13.224	1294.645	981.269
87.812	13.197	1293.430	980.101
88.826	13.113	1292.717	978.972
89.841	13.107	1291.216	977.714
90.855	13.211	1290.361	977.599
91.870	13.242	1289.886	977.336
92.884	13.293	1288.931	976.827
93.899	13.329	1287.688	976.007
94.914	13.350	1287.430	975.853
95.928	13.425	1286.252	975.311
96.943	13.278	1285.593	973.864
97.957	13.291	1284.605	973.105
98.972	13.227	1283.652	971.918
99.987	13.245	1282.814	971.307
101.001	13.230	1282.305	970.746
102.016	13.266	1281.101	969.959
103.030	13.293	1279.814	969.059
104.045	13.262	1279.320	968.414
105.060	13.261	1278.248	967.515
106.074	13.068	1277.041	965.384
107.089	13.002	1276.213	964.290
108.103	12.967	1274.687	962.847
109.118	13.011	1273.358	962.011
110.133	13.062	1271.953	961.161
111.147	12.983	1270.755	959.714
112.162	13.078	1268.938	958.808
113.176	13.165	1268.208	958.678
114.191	13.203	1267.162	958.021
115.206	13.151	1266.142	956.866
116.220	13.127	1265.143	955.885
117.235	13.221	1263.767	955.304
118.249	13.094	1262.742	953.714
119.264	13.153	1261.710	953.189
120.279	13.096	1260.978	952.225
121.293	13.172	1259.461	951.432
122.308	13.126	1258.408	950.289
123.322	13.047	1257.486	949.050
124.337	13.025	1256.449	948.061
125.352	13.071	1255.375	947.428
126.366	13.082	1254.232	946.546
127.381	12.959	1253.427	945.152
128.395	13.080	1252.167	944.808
129.410	13.123	1251.205	944.243
130.424	13.067	1250.807	943.542
131.439	13.071	1249.757	942.685
132.454	13.201	1248.631	942.496
133.468	13.196	1247.839	941.786
134.483	13.206	1247.022	941.145
135.497	13.222	1246.097	940.453
136.512	13.222	1244.559	939.209
137.527	13.182	1243.358	937.996
138.541	13.167	1242.592	937.246
139.556	13.268	1240.516	936.168
140.570	13.241	1239.493	935.166
141.585	13.337	1238.682	935.009
142.600	13.266	1237.730	933.809
143.614	13.322	1236.811	933.351
144.629	13.314	1235.756	932.427
145.643	13.331	1234.468	931.466
146.658	13.229	1233.079	929.764
147.673	13.348	1231.374	929.061
148.687	13.237	1230.558	927.740
149.702	13.166	1229.147	926.199
150.716	13.163	1228.038	925.266
151.731	13.143	1227.144	924.395
152.746	13.287	1225.202	923.657
153.760	13.336	1224.154	923.058
154.775	13.285	1223.567	922.248
155.789	13.223	1222.695	921.167
156.804	13.331	1221.576	920.840
157.819	13.242	1220.650	919.569
158.833	13.428	1219.418	919.590
159.848	13.513	1218.513	919.296
160.862	13.427	1217.578	918.032
161.877	13.403	1216.306	916.865
162.892	13.359	1215.580	915.991
163.906	13.324	1214.677	915.034
164.921	13.303	1213.780	914.164
165.935	13.404	1212.742	913.855
166.950	13.422	1211.849	913.201
167.964	13.416	1211.410	912.757
168.979	13.369	1210.363	911.631
169.994	13.448	1209.785	911.549
171.008	13.354	1209.231	910.531
172.023	13.481	1208.092	910.292
173.037	13.553	1207.505	910.165
174.052	13.579	1206.110	909.178
175.067	13.376	1205.479	907.505
176.081	13.469	1204.470	907.176
177.096	13.463	1203.358	906.226
178.110	13.528	1202.361	905.749
179.125	13.441	1201.392	904.465
180.140	13.495	1200.013	903.642
181.154	13.515	1198.583	902.593
182.169	13.534	1197.659	901.921
183.183	13.604	1196.604	901.429
184.198	13.689	1195.143	900.712
185.213	13.586	1194.208	899.367
186.227	13.652	1192.937	898.686
187.242	13.637	1192.069	897.872
188.256	13.743	1191.296	897.786
189.271	13.816	1189.992	897.120
190.286	13.631	1189.024	895.310
191.300	13.395	1188.676	893.694
192.315	13.459	1187.799	893.299
193.329	13.568	1186.784	893.048
194.344	13.498	1186.330	892.246
195.359	13.564	1185.843	892.160
196.373	13.668	1184.910	891.937
197.388	13.784	1184.433	892.122
198.402	13.739	1184.682	891.989
199.417	13.787	1183.860	891.549
200.432	13.856	1182.590	890.884
201.446	13.773	1182.502	890.296
202.461	13.975	1180.794	890.008
203.475	14.069	1179.800	889.685
204.490	14.026	1178.545	888.430
205.504	14.012	1177.363	887.385
206.519	13.923	1176.627	886.278
207.534	13.856	1175.213	884.776
208.548	13.851	1174.568	884.189
209.563	13.929	1173.736	883.900
210.577	13.923	1172.868	883.133
211.592	13.950	1172.258	882.740
212.607	14.047	1171.189	882.371
213.621	14.006	1170.221	881.347
214.636	13.913	1169.496	880.231
215.650	14.167	1168.180	880.506
216.665	14.057	1167.981	879.695
217.680	14.103	1166.862	879.018
218.694	14.087	1165.766	878.034
219.709	14.153	1165.178	877.858
220.723	14.164	1164.701	877.480
221.738	14.094	1163.858	876.397
222.753	14.082	1163.396	875.908
223.767	14.121	1162.763	875.563
224.782	14.158	1161.919	875.042
225.796	14.269	1161.374	875.140
226.811	14.202	1160.526	874.069
227.826	14.197	1159.511	873.199
228.840	14.309	1158.966	873.301
229.855	14.213	1158.303	872.220
230.869	14.153	1157.838	871.480
231.884	14.214	1156.571	870.769
232.899	14.303	1155.511	870.358
233.913	14.127	1155.468	869.331
234.928	14.269	1154.277	869.096
235.942	14.249	1153.712	868.491
236.957	14.143	1153.420	867.642
237.972	14.192	1152.385	867.043
238.986	14.129	1151.978	866.330
240.001	14.266	1150.894	866.153
241.015	14.217	1150.139	865.251
242.030	14.283	1149.391	864.955
243.045	14.354	1148.353	864.465
244.059	14.443	1147.703	864.362
245.074	14.448	1147.011	863.791
246.088	14.455	1145.981	862.975
247.103	14.496	1145.399	862.671
248.117	14.456	1144.651	861.825
249.132	14.609	1143.772	861.875
250.147	14.581	1143.231	861.247
251.161	14.594	1142.624	860.781
252.176	14.770	1141.633	860.866
253.190	14.719	1141.349	860.313
254.205	14.755	1140.920	860.099
255.220	14.740	1140.455	859.595
256.234	14.790	1139.868	859.335
257.249	14.719	1139.289	858.456
258.263	14.853	1138.078	858.155
259.278	14.817	1137.238	857.264
260.293	14.824	1137.017	857.054
261.307	14.863	1136.219	856.576
262.322	14.973	1135.610	856.606
263.336	14.827	1135.278	855.534
264.351	14.892	1134.509	855.213
265.366	14.953	1133.870	854.963
266.380	14.978	1132.942	854.317
267.395	15.031	1132.330	854.049
268.409	14.931	1131.938	853.168
269.424	14.955	1131.153	852.624
270.439	15.029	1130.085	852.121
271.453	14.912	1129.798	851.233
272.468	14.921	1128.654	850.341
273.482	14.980	1128.098	850.147
274.497	14.986	1127.356	849.541
275.512	14.967	1126.868	849.006
276.526	15.000	1125.990	848.435
277.541	14.919	1125.394	847.502
278.555	15.099	1124.712	847.824
279.570	14.938	1124.272	846.604
280.585	15.124	1122.950	846.469
281.599	15.163	1122.140	845.984
282.614	15.056	1121.382	844.797
283.628	14.985	1120.255	843.518
284.643	15.058	1119.169	842.990
285.657	15.120	1118.299	842.574
286.672	15.119	1117.340	841.771
287.687	15.091	1116.787	841.141
288.701	15.144	1115.981	840.722
289.716	15.161	1115.387	840.287
290.730	15.197	1114.741	839.908
291.745	15.192	1113.964	839.222
292.760	15.230	1113.032	838.634
293.774	15.314	1112.468	838.554
294.789	15.282	1112.322	838.211
295.803	15.383	1110.954	837.614
296.818	15.293	1110.739	836.925
297.833	15.221	1109.984	835.924
298.847	15.288	1108.949	835.404
299.862	15.348	1108.118	835.001
300.876	15.359	1107.623	834.611
301.891	15.484	1107.107	834.768
302.906	15.331	1106.846	833.737
303.920	15.418	1105.470	833.061
304.935	15.407	1105.268	832.781
305.949	15.486	1104.387	832.434
306.964	15.557	1103.312	831.900
307.979	15.469	1102.864	831.053
308.993	15.508	1101.829	830.392
310.008	15.484	1101.490	829.946
311.022	15.633	1100.640	829.966
312.037	15.553	1099.818	828.880
313.052	15.538	1098.808	827.974
314.066	15.659	1097.453	827.473
315.081	15.551	1097.173	826.658
316.095	15.533	1096.545	826.022
317.110	15.525	1095.813	825.357
318.125	15.615	1095.071	825.169
319.139	15.430	1094.565	823.805
320.154	15.481	1094.243	823.742
321.168	15.545	1093.351	823.309
322.183	15.511	1092.909	822.738
323.197	15.561	1092.424	822.546
324.212	15.607	1091.291	821.843
325.227	15.583	1090.782	821.270
326.241	15.668	1089.916	820.962
327.256	15.678	1089.424	820.567
328.270	15.624	1088.638	819.637
329.285	15.627	1087.580	818.784
330.300	15.752	1086.672	818.638
331.314	15.654	1085.884	817.494
332.329	15.681	1084.913	816.824
333.343	15.752	1083.977	816.390
334.358	15.732	1083.308	815.719
335.373	15.762	1082.639	815.287
336.387	15.820	1081.667	814.762
337.402	15.863	1081.094	814.467
338.416	15.792	1080.776	813.814
339.431	15.865	1079.886	813.423
340.446	15.870	1079.237	812.883
341.460	16.020	1078.792	813.204
342.475	16.008	1077.824	812.345
343.489	16.031	1077.028	811.784
344.504	16.032	1075.765	810.763
345.519	16.116	1075.277	810.726
346.533	16.175	1074.360	810.250
347.548	16.140	1073.789	809.579
348.562	16.019	1073.319	808.570
349.577	16.099	1072.379	808.173
350.592	16.023	1071.561	807.122
351.606	15.979	1071.106	806.498
352.621	16.018	1070.111	805.866
353.635	16.025	1069.518	805.379
354.650	15.969	1068.914	804.588
355.665	16.108	1067.879	804.399
356.679	16.244	1067.394	804.611
357.694	16.087	1066.973	803.474
358.708	16.175	1066.299	803.314
359.723	16.118	1065.258	802.190
360.738	16.215	1065.136	802.485
361.752	16.264	1064.242	801.977
362.767	16.227	1064.036	801.573
363.781	16.104	1063.647	800.625
364.796	16.166	1062.933	800.311
365.810	16.292	1062.191	800.279
366.825	16.388	1061.395	800.061
367.840	16.392	1061.129	799.810
368.854	16.519	1060.528	799.887
369.869	16.416	1059.604	798.634
370.883	16.483	1058.359	797.942
371.898	16.448	1058.174	797.564
372.913	16.515	1057.494	797.299
373.927	16.449	1057.225	796.714
374.942	16.590	1056.662	796.882
375.956	16.440	1056.106	795.687
376.971	16.509	1055.432	795.435
377.986	16.590	1054.796	795.264
379.000	16.617	1054.422	795.040
380.015	16.640	1053.859	794.652
381.029	16.708	1053.029	794.275
382.044	16.749	1052.377	793.906
383.059	16.564	1052.003	792.684
384.073	16.633	1051.011	792.192
385.088	16.599	1049.919	791.140
386.102	16.690	1048.954	790.767
387.117	16.751	1047.936	790.216
388.132	16.733	1047.128	789.449
389.146	16.685	1046.528	788.704
390.161	16.704	1045.592	788.019
391.175	16.643	1045.079	787.279
392.190	16.632	1044.649	786.832
393.205	16.888	1043.620	787.179
394.219	16.741	1043.314	786.194
395.234	16.722	1042.299	785.273
396.248	16.847	1040.944	784.759
397.263	16.750	1040.068	783.584
398.278	16.658	1039.659	782.781
399.292	16.681	1038.951	782.285
400.307	16.640	1038.181	781.446
401.321	16.646	1037.526	780.912
402.336	16.889	1036.465	781.163
403.350	16.740	1035.648	779.790
404.365	16.919	1034.980	780.045
405.380	16.798	1034.969	779.407
406.394	16.862	1034.300	779.130
407.409	16.915	1033.351	778.588
408.423	17.007	1032.038	777.952
409.438	17.134	1031.419	777.999
410.453	17.171	1030.876	777.692
411.467	17.025	1030.755	776.862
412.482	17.127	1029.626	776.412
413.496	17.088	1029.107	775.769
414.511	17.093	1028.726	775.437
415.526	17.199	1027.713	775.090
416.540	17.256	1027.441	775.077
417.555	17.222	1026.855	774.411
418.569	17.240	1026.570	774.208
419.584	17.334	1025.814	773.997
420.599	17.186	1025.601	773.095
421.613	98.534	1311.262	1436.676
422.628	90.078	1352.867	1436.774
