DTS Sentinel unit serial number:	SN413079Multiplexer serial number:	ORYXHardware model number:	OX4-SRSoftware version number:	ORYX F/W v4.00 Oryx Data Collector v3.7.2.0data status	okinstallation	princeton_trtdifferential loss correction	single-endedforward channel	channel 2reverse channel	N/Adate	2019/09/14time	08:15:35forward acquisition time	60.00reverse acquisition time	0.00gamma	496.2192k internal	0.2333k external	0.2333temperature offset calibration	1.0125default loss term (dB/km)	0.3790temperature slope calibration	1.0000multiplexer offset coefficient	1.0000multiplexer slope coefficient	1.0000fibre end	0.00T internal ref (°C)	27.67T ext. ref 1 (°C)	3.60T ext. ref 2 (°C)	26.22length (m)	temperature (°C)	Stokes	anti-Stokes-747.200	-61.355	-0.236	0.100
-746.185	-200.000	-0.038	0.290
-745.171	721.286	-0.035	0.092
-744.156	586.329	0.131	0.323
-743.142	-69.495	0.276	-0.107
-742.127	-200.000	0.030	0.216
-741.112	-200.000	-0.023	-0.177
-740.098	78.833	-0.241	0.260
-739.083	36.611	-0.247	0.220
-738.069	19.840	-0.115	0.093
-737.054	-135.003	-0.202	0.024
-736.039	-167.905	-0.125	0.005
-735.025	-200.000	-0.014	0.249
-734.010	-65.794	-0.096	-0.038
-732.996	140.110	-0.181	-0.240
-731.981	-200.000	0.001	-0.003
-730.966	409.664	-0.137	0.292
-729.952	-94.596	-0.348	-0.095
-728.937	366.992	0.059	0.119
-727.923	-56.191	-0.397	-0.178
-726.908	125.355	-0.105	0.134
-725.894	492.348	-0.052	-0.119
-724.879	95.703	0.187	-0.215
-723.864	-98.815	-0.105	-0.027
-722.850	392.292	-0.184	-0.384
-721.835	-75.594	-0.262	-0.094
-720.821	-111.128	0.223	-0.046
-719.806	170.116	0.113	-0.162
-718.791	412.887	0.153	0.326
-717.777	-200.000	-0.019	-0.125
-716.762	60.993	-0.098	0.098
-715.748	28.161	0.138	-0.117
-714.733	-89.482	-0.034	-0.010
-713.718	-200.000	-0.010	-0.069
-712.704	800.000	0.066	0.248
-711.689	345.162	-0.079	0.157
-710.675	-98.896	0.049	-0.013
-709.660	249.120	0.177	0.301
-708.645	43.674	-0.219	-0.201
-707.631	24.776	-0.190	0.158
-706.616	-114.937	-0.060	0.012
-705.602	-109.765	0.251	0.053
-704.587	38.212	-0.035	0.031
-703.572	800.000	0.122	0.339
-702.558	417.718	-0.113	0.242
-701.543	-39.284	-0.223	-0.118
-700.529	473.876	-0.174	0.394
-699.514	-200.000	0.039	0.243
-698.499	-122.199	0.144	0.024
-697.485	-200.000	-0.007	-0.097
-696.470	-120.735	-0.118	-0.020
-695.456	-157.489	0.142	-0.009
-694.441	117.307	0.017	-0.020
-693.426	-40.991	-0.176	-0.091
-692.412	75.184	-0.162	-0.172
-691.397	-6.375	-0.166	0.114
-690.383	-52.919	0.050	-0.023
-689.368	5.290	-0.026	-0.020
-688.354	-200.000	-0.001	-0.032
-687.339	800.000	-0.021	-0.081
-686.324	-118.879	-0.126	-0.022
-685.310	-156.037	-0.341	-0.022
-684.295	688.858	0.144	0.378
-683.281	144.117	-0.207	-0.277
-682.266	740.756	0.024	0.064
-681.251	95.681	0.159	-0.182
-680.237	723.789	-0.048	0.128
-679.222	-200.000	0.039	-0.355
-678.208	-91.350	-0.271	0.078
-677.193	55.089	-0.023	0.022
-676.178	37.585	0.161	0.144
-675.164	-200.000	0.018	0.160
-674.149	800.000	0.037	0.154
-673.135	193.434	-0.102	-0.155
-672.120	-200.000	0.008	-0.078
-671.105	239.965	0.043	-0.072
-670.091	122.492	-0.098	-0.122
-669.076	-18.835	-0.217	0.135
-668.062	531.990	-0.029	-0.068
-667.047	-148.057	-0.346	-0.029
-666.032	175.045	-0.168	-0.244
-665.018	-186.603	0.039	-0.001
-664.003	800.000	-0.055	0.196
-662.989	309.735	0.066	0.124
-661.974	-135.654	-0.150	0.018
-660.959	800.000	-0.078	0.325
-659.945	-200.000	-0.070	0.309
-658.930	253.765	-0.087	-0.150
-657.916	523.009	0.117	0.276
-656.901	40.720	0.170	-0.154
-655.886	124.077	0.212	0.267
-654.872	338.354	-0.097	-0.189
-653.857	800.000	-0.103	-0.326
-652.843	-45.097	-0.345	-0.172
-651.828	-88.561	0.105	0.031
-650.814	220.451	0.116	0.187
-649.799	-200.000	-0.050	0.229
-648.784	692.032	0.050	0.132
-647.770	-191.483	0.306	0.003
-646.755	-200.000	-0.020	0.208
-645.741	-56.405	0.177	-0.079
-644.726	392.727	-0.091	0.190
-643.711	-101.463	0.177	-0.043
-642.697	-105.898	0.139	-0.031
-641.682	-122.427	0.292	-0.048
-640.668	32.374	0.030	0.026
-639.653	8.647	0.046	-0.035
-638.638	26.047	0.128	0.107
-637.624	47.937	0.085	-0.080
-636.609	-28.397	-0.066	0.038
-635.595	-200.000	-0.012	-0.357
-634.580	543.783	-0.059	-0.142
-633.565	-200.000	-0.023	0.255
-632.551	-17.322	0.149	0.094
-631.536	-174.719	-0.423	0.012
-630.522	-135.793	0.286	-0.034
-629.507	-70.628	-0.427	0.162
-628.492	50.166	-0.044	-0.042
-627.478	158.663	0.185	0.256
-626.463	-57.911	0.481	-0.210
-625.449	59.040	-0.098	0.096
-624.434	186.183	0.117	-0.174
-623.419	-146.348	0.246	-0.022
-622.405	6.189	-0.086	0.064
-621.390	241.062	-0.202	0.337
-620.376	275.000	0.146	0.259
-619.361	201.703	-0.085	0.131
-618.346	-200.000	0.019	0.158
-617.332	-154.940	-0.179	-0.012
-616.317	800.000	-0.035	-0.102
-615.303	5.260	-0.223	-0.164
-614.288	-200.000	-0.027	-0.124
-613.273	435.791	0.118	0.256
-612.259	338.230	0.107	-0.208
-611.244	376.101	0.129	-0.263
-610.230	63.725	-0.145	-0.146
-609.215	-52.627	-0.100	0.046
-608.201	800.000	0.025	-0.074
-607.186	28.040	-0.203	0.171
-606.171	666.068	-0.050	0.129
-605.157	1.791	0.206	-0.149
-604.142	236.356	0.162	0.268
-603.128	200.206	0.078	-0.120
-602.113	800.000	-0.033	-0.097
-601.098	-200.000	-0.009	-0.188
-600.084	-200.000	0.005	-0.063
-599.069	163.456	0.042	-0.059
-598.055	136.092	-0.260	0.339
-597.040	-196.769	-0.174	0.001
-596.025	72.875	0.176	0.184
-595.011	-159.827	-0.441	-0.024
-593.996	800.000	-0.026	-0.101
-592.982	440.227	-0.038	-0.082
-591.967	-90.957	0.307	0.088
-590.952	234.224	-0.136	0.224
-589.938	72.905	0.095	0.100
-588.923	-55.481	-0.231	-0.103
-587.909	10.684	0.067	0.051
-586.894	123.108	-0.164	-0.205
-585.879	-37.523	0.300	-0.160
-584.865	800.000	-0.038	0.115
-583.850	303.318	-0.128	-0.238
-582.836	-200.000	0.016	0.191
-581.821	800.000	0.050	-0.158
-580.806	60.482	-0.161	-0.159
-579.792	-121.483	0.320	0.053
-578.777	-26.696	0.143	-0.084
-577.763	800.000	-0.058	0.160
-576.748	359.933	0.192	-0.385
-575.733	-200.000	0.003	-0.017
-574.719	-200.000	0.010	0.080
-573.704	-200.000	-0.102	-0.463
-572.690	696.960	0.107	-0.280
-571.675	-26.889	-0.037	-0.021
-570.661	114.002	-0.099	0.120
-569.646	-200.000	-0.052	-0.310
-568.631	-200.000	0.042	0.452
-567.617	720.951	-0.082	-0.219
-566.602	506.038	0.180	-0.416
-565.588	-200.000	-0.014	0.212
-564.573	768.770	-0.054	0.148
-563.558	-22.220	0.190	-0.115
-562.544	-98.164	0.099	-0.025
-561.529	-200.000	-0.026	0.115
-560.515	242.503	-0.037	0.062
-559.500	-164.775	-0.568	-0.026
-558.485	-9.720	0.296	-0.197
-557.471	-131.767	-0.247	0.032
-556.456	-111.622	-0.303	0.061
-555.442	-154.841	-0.097	0.006
-554.427	14.281	-0.366	0.285
-553.412	71.727	-0.176	0.182
-552.398	442.006	-0.176	-0.385
-551.383	207.288	0.141	0.219
-550.369	13.877	0.138	-0.107
-549.354	800.000	-0.031	0.133
-548.339	-123.296	0.277	0.044
-547.325	-78.631	0.212	-0.072
-546.310	54.153	-0.154	-0.148
-545.296	117.739	0.136	0.167
-544.281	-19.395	0.184	0.114
-543.266	166.143	0.068	0.097
-542.252	800.000	0.116	0.407
-541.237	-200.000	0.011	0.168
-540.223	800.000	-0.059	-0.177
-539.208	-152.084	0.223	-0.016
-538.193	-67.031	0.362	-0.142
-537.179	627.045	-0.033	-0.083
-536.164	800.000	-0.043	0.154
-535.150	101.564	-0.075	0.087
-534.135	-66.863	-0.069	-0.027
-533.121	-200.000	0.047	-0.258
-532.106	223.872	-0.063	0.101
-531.091	-200.000	0.012	0.112
-530.077	-99.485	0.112	0.028
-529.062	-200.000	-0.002	-0.015
-528.048	0.584	0.317	-0.226
-527.033	-200.000	0.010	-0.144
-526.018	-187.428	0.269	-0.004
-525.004	800.000	0.003	0.015
-523.989	800.000	0.044	0.184
-522.975	-55.887	0.071	0.032
-521.960	59.810	0.155	0.152
-520.945	-56.552	0.126	-0.056
-519.931	98.113	-0.231	0.266
-518.916	49.306	0.188	-0.176
-517.902	-99.419	-0.289	-0.073
-516.887	10.440	-0.154	-0.117
-515.872	-102.464	0.108	-0.026
-514.858	108.134	-0.161	-0.191
-513.843	260.059	0.223	0.383
-512.829	3.049	-0.189	0.137
-511.814	422.463	-0.053	0.114
-510.799	-200.000	0.001	-0.126
-509.785	-34.220	-0.048	-0.026
-508.770	296.119	-0.102	-0.186
-507.756	-61.722	-0.055	-0.023
-506.741	800.000	-0.042	-0.160
-505.726	435.847	-0.100	-0.216
-504.712	-200.000	-0.018	0.227
-503.697	616.984	-0.080	-0.201
-502.683	-42.940	0.205	0.104
-501.668	61.372	-0.053	-0.053
-500.653	-140.955	0.117	0.012
-499.639	-15.932	0.266	0.168
-498.624	-119.284	-0.075	0.013
-497.610	1.341	0.143	0.102
-496.595	149.453	-0.171	-0.230
-495.581	800.000	-0.077	-0.259
-494.566	-117.825	-0.036	0.006
-493.551	-21.164	-0.104	0.063
-492.537	-200.000	-0.021	0.132
-491.522	-85.329	-0.177	-0.055
-490.508	800.000	-0.026	-0.076
-489.493	-147.818	0.157	0.013
-488.478	-45.102	0.159	0.079
-487.464	786.963	0.070	-0.191
-486.449	-96.561	0.139	0.036
-485.435	535.479	0.099	-0.234
-484.420	-167.180	-0.030	0.001
-483.405	49.480	0.187	0.175
-482.391	256.842	0.088	-0.151
-481.376	-200.000	0.009	-0.221
-480.362	453.089	0.026	-0.058
-479.347	597.894	0.202	0.498
-478.332	800.000	0.133	-0.502
-477.318	-200.000	-0.032	-0.178
-476.303	32.869	-0.289	0.249
-475.289	-81.472	-0.038	0.013
-474.274	800.000	0.059	0.195
-473.259	800.000	0.096	-0.372
-472.245	-200.000	-0.019	-0.105
-471.230	116.434	0.179	0.219
-470.216	-28.863	-0.278	0.159
-469.201	355.106	-0.229	0.453
-468.186	-107.820	-0.314	-0.068
-467.172	-86.114	-0.214	-0.066
-466.157	270.115	0.023	-0.039
-465.143	-200.000	-0.057	0.389
-464.128	800.000	0.019	0.069
-463.113	7.473	0.039	0.029
-462.099	-87.489	0.065	-0.020
-461.084	-200.000	-0.014	-0.098
-460.070	-102.918	-0.253	0.060
-459.055	162.499	0.084	-0.118
-458.040	-65.806	-0.359	-0.143
-457.026	634.338	0.079	0.200
-456.011	-115.910	-0.280	0.052
-454.997	-200.000	-0.041	0.402
-453.982	-69.386	-0.106	0.040
-452.968	-200.000	0.042	0.243
-451.953	-200.000	-0.050	0.242
-450.938	350.465	0.083	-0.164
-449.924	41.313	-0.053	0.047
-448.909	99.503	0.218	-0.250
-447.895	-135.644	-0.138	-0.016
-446.880	-200.000	-0.016	-0.148
-445.865	166.638	0.163	-0.230
-444.851	800.000	0.138	0.393
-443.836	124.033	-0.249	0.311
-442.822	-71.408	0.156	0.058
-441.807	-200.000	-0.020	0.095
-440.792	-188.975	0.220	0.003
-439.778	-141.557	0.197	0.020
-438.763	-82.525	0.344	0.111
-437.749	421.561	-0.138	-0.293
-436.734	-2.169	-0.248	0.173
-435.719	138.630	0.052	0.068
-434.705	6.265	-0.272	-0.201
-433.690	65.982	0.034	-0.034
-432.676	320.738	-0.108	0.204
-431.661	-153.205	0.244	0.017
-430.646	105.423	-0.181	-0.212
-429.632	25.201	0.099	-0.081
-428.617	23.061	0.249	0.203
-427.603	-200.000	-0.074	0.358
-426.588	-123.110	-0.309	-0.049
-425.573	800.000	-0.044	-0.178
-424.559	-149.870	0.021	0.002
-423.544	800.000	-0.089	0.279
-422.530	397.267	-0.102	0.213
-421.515	645.313	0.027	0.069
-420.500	-200.000	-0.031	-0.276
-419.486	-200.000	0.005	-0.182
-418.471	-44.255	-0.043	0.021
-417.457	17.122	-0.027	-0.021
-416.442	291.881	-0.183	0.330
-415.428	79.006	-0.187	0.199
-414.413	-128.086	0.225	0.032
-413.398	-153.254	-0.376	-0.026
-412.384	-20.815	0.133	0.081
-411.369	163.412	0.207	-0.289
-410.355	173.217	0.090	0.129
-409.340	19.677	0.231	-0.184
-408.325	385.550	-0.118	-0.242
-407.311	800.000	0.020	0.084
-406.296	-25.816	-0.239	-0.140
-405.282	-102.570	0.069	-0.016
-404.267	29.253	0.075	0.063
-403.252	-200.000	-0.053	-0.253
-402.238	92.683	-0.149	-0.167
-401.223	29.558	0.100	0.084
-400.209	371.176	0.109	0.219
-399.194	28.282	-0.165	0.138
-398.179	354.896	0.080	0.158
-397.165	162.272	-0.121	0.169
-396.150	-28.400	-0.204	-0.117
-395.136	0.826	0.364	0.258
-394.121	-98.753	-0.405	0.102
-393.106	66.664	0.029	-0.029
-392.092	-97.663	-0.295	0.076
-391.077	800.000	-0.058	0.214
-390.063	198.316	-0.036	0.054
-389.048	-200.000	-0.032	-0.212
-388.033	128.821	0.092	-0.116
-387.019	592.212	-0.129	0.315
-386.004	800.000	0.035	0.101
-384.990	401.969	0.018	0.038
-383.975	30.901	0.095	0.081
-382.960	-59.010	-0.141	-0.060
-381.946	-86.034	0.199	-0.061
-380.931	629.887	-0.072	0.181
-379.917	25.947	0.156	0.129
-378.902	-200.000	-0.053	-0.371
-377.888	-200.000	0.044	0.246
-376.873	800.000	-0.053	-0.153
-375.858	-147.288	-0.204	0.017
-374.844	-200.000	0.027	-0.190
-373.829	-14.142	0.066	0.042
-372.815	-127.572	0.126	0.018
-371.800	112.861	-0.141	-0.169
-370.785	689.091	-0.140	0.364
-369.771	-76.883	-0.175	0.061
-368.756	-200.000	0.033	0.161
-367.742	-200.000	0.064	-0.285
-366.727	47.824	0.127	0.117
-365.712	-105.844	-0.350	0.078
-364.698	-24.588	0.347	-0.204
-363.683	98.506	0.127	0.145
-362.669	580.525	-0.029	0.071
-361.654	-130.401	-0.137	0.018
-360.639	800.000	-0.010	-0.034
-359.625	13.648	-0.193	0.149
-358.610	-200.000	0.020	0.163
-357.596	-43.555	-0.189	0.094
-356.581	107.054	-0.059	-0.070
-355.566	85.673	0.077	-0.084
-354.552	-59.795	-0.103	0.044
-353.537	313.071	-0.172	-0.320
-352.523	85.738	0.067	0.073
-351.508	-42.805	0.028	0.014
-350.493	-200.000	-0.057	-0.290
-349.479	-92.453	-0.106	0.030
-348.464	-200.000	-0.037	0.184
-347.450	-36.375	0.193	-0.103
-346.435	330.393	-0.110	-0.210
-345.420	434.524	0.090	-0.193
-344.406	-56.592	0.367	0.161
-343.391	800.000	0.082	-0.250
-342.377	800.000	0.068	0.239
-341.362	53.314	0.187	0.177
-340.348	-102.674	-0.243	-0.057
-339.333	17.841	0.226	0.178
-338.318	-118.567	0.302	0.053
-337.304	3.005	-0.165	0.119
-336.289	-54.744	-0.144	0.064
-335.275	126.106	-0.176	0.220
-334.260	203.902	0.054	0.083
-333.245	-78.390	0.357	0.121
-332.231	-81.896	0.388	-0.126
-331.216	-35.801	0.127	-0.068
-330.202	698.579	-0.072	-0.187
-329.187	119.525	0.111	0.136
-328.172	-200.000	0.103	-0.532
-327.158	800.000	-0.015	-0.059
-326.143	-200.000	-0.019	0.252
-325.129	-36.624	0.152	-0.081
-324.114	-65.163	-0.062	-0.025
-323.099	-22.575	-0.179	0.107
-322.085	800.000	-0.086	-0.340
-321.070	118.430	0.098	-0.120
-320.056	-200.000	-0.028	0.165
-319.041	729.740	0.036	0.094
-318.026	-47.141	0.128	-0.062
-317.012	-15.518	-0.251	-0.159
-315.997	-200.000	-0.019	0.216
-314.983	79.858	-0.159	0.169
-313.968	-200.000	-0.023	0.229
-312.953	-200.000	0.011	0.070
-311.939	-78.336	0.445	-0.151
-310.924	-200.000	-0.050	-0.235
-309.910	800.000	-0.084	0.352
-308.895	-45.058	0.336	0.165
-307.880	289.799	-0.044	-0.078
-306.866	90.569	-0.389	-0.431
-305.851	-27.136	-0.471	0.271
-304.837	-200.000	-0.005	-0.069
-303.822	487.446	0.101	-0.228
-302.807	71.788	-0.091	0.094
-301.793	219.725	0.264	-0.417
-300.778	98.196	0.082	-0.093
-299.764	88.808	-0.059	0.065
-298.749	3.810	0.135	-0.097
-297.735	-69.730	-0.170	0.064
-296.720	132.332	-0.108	-0.137
-295.705	15.610	-0.242	0.188
-294.691	-184.227	-0.266	-0.004
-293.676	204.976	0.090	0.138
-292.662	129.288	-0.120	-0.151
-291.647	343.525	-0.231	-0.447
-290.632	196.359	0.064	-0.097
-289.618	-111.443	-0.283	-0.057
-288.603	-39.747	0.272	0.141
-287.589	189.903	-0.149	-0.221
-286.574	150.375	0.114	-0.152
-285.559	229.325	0.122	-0.197
-284.545	287.796	-0.098	-0.176
-283.530	-55.839	-0.157	0.069
-282.516	13.700	0.198	-0.152
-281.501	105.061	0.094	-0.110
-280.486	175.703	-0.149	-0.214
-279.472	-116.213	-0.134	-0.024
-278.457	800.000	0.107	-0.297
-277.443	800.000	-0.040	-0.130
-276.428	-30.505	0.238	-0.133
-275.413	-75.709	-0.206	-0.072
-274.399	25.000	0.094	-0.077
-273.384	800.000	0.050	0.186
-272.370	-200.000	0.003	-0.103
-271.355	800.000	0.078	-0.235
-270.340	79.997	0.334	0.354
-269.326	-76.571	0.131	0.045
-268.311	800.000	-0.080	0.333
-267.297	28.412	-0.160	0.134
-266.282	-169.901	0.116	0.004
-265.267	-35.227	-0.173	0.093
-264.253	568.008	0.082	-0.197
-263.238	10.710	-0.261	0.196
-262.224	11.071	0.250	0.189
-261.209	-43.208	0.312	-0.156
-260.195	176.846	-0.177	-0.253
-259.180	126.452	0.164	0.204
-258.165	-200.000	-0.037	0.310
-257.151	-127.576	0.138	-0.020
-256.136	-26.939	0.199	-0.115
-255.122	4.577	0.080	-0.058
-254.107	-26.797	-0.233	0.134
-253.092	255.540	0.040	-0.067
-252.078	800.000	0.119	0.353
-251.063	-29.707	-0.410	0.231
-250.049	86.868	-0.262	-0.286
-249.034	39.628	-0.025	-0.022
-248.019	-200.000	0.065	-0.339
-247.005	-200.000	0.051	-0.347
-245.990	800.000	0.064	-0.199
-244.976	-200.000	0.021	-0.092
-243.961	-200.000	0.003	-0.153
-242.946	-166.986	-0.272	-0.011
-241.932	800.000	0.099	0.340
-240.917	290.542	-0.090	0.162
-239.903	247.648	-0.148	0.247
-238.888	-132.374	0.106	-0.013
-237.873	407.598	0.075	0.156
-236.859	52.428	-0.096	-0.091
-235.844	800.000	-0.057	-0.213
-234.830	-200.000	0.003	-0.228
-233.815	44.573	-0.150	0.136
-232.800	-200.000	-0.015	0.183
-231.786	123.348	0.180	-0.222
-230.771	-200.000	-0.001	0.046
-229.757	141.399	0.099	-0.129
-228.742	50.477	0.085	0.079
-227.727	30.815	0.124	0.105
-226.713	422.646	-0.023	-0.048
-225.698	790.583	-0.093	-0.251
-224.684	-7.543	0.121	0.081
-223.669	155.237	0.089	0.121
-222.655	-171.844	-0.428	-0.014
-221.640	211.077	0.079	-0.123
-220.625	62.669	-0.315	0.310
-219.611	116.413	0.109	0.132
-218.596	-71.094	0.275	-0.102
-217.582	62.138	0.128	-0.126
-216.567	-86.301	0.059	0.018
-215.552	84.316	0.127	-0.137
-214.538	571.673	-0.071	0.170
-213.523	-136.180	0.283	-0.033
-212.509	352.173	-0.133	-0.260
-211.494	-200.000	-0.011	0.334
-210.479	4.232	0.022	-0.016
-209.465	374.349	0.036	0.073
-208.450	-200.000	0.040	-0.257
-207.436	-149.717	0.154	-0.012
-206.421	-200.000	0.004	0.163
-205.406	11.891	-0.133	-0.101
-204.392	-20.779	0.276	0.167
-203.377	-200.000	0.017	0.316
-202.363	329.543	0.184	0.348
-201.348	-74.678	0.056	-0.020
-200.333	800.000	0.038	0.152
-199.319	-60.813	-0.148	-0.062
-198.304	-60.266	0.312	0.131
-197.290	-45.463	-0.093	-0.045
-196.275	48.851	0.057	-0.053
-195.260	-200.000	0.002	-0.242
-194.246	-200.000	0.002	-0.060
-193.231	162.345	-0.070	-0.096
-192.217	800.000	-0.041	-0.172
-191.202	-49.703	-0.253	-0.119
-190.187	800.000	0.066	-0.185
-189.173	-76.701	-0.152	0.053
-188.158	25.406	0.106	0.087
-187.144	-116.883	0.391	-0.070
-186.129	162.897	-0.228	-0.315
-185.114	108.868	0.201	0.237
-184.100	177.883	0.171	0.245
-183.085	-200.000	0.008	-0.182
-182.071	-200.000	-0.004	0.090
-181.056	18.977	0.210	0.165
-180.042	54.582	-0.162	-0.153
-179.027	37.342	0.084	0.073
-178.012	18.552	-0.301	-0.237
-176.998	636.114	-0.059	0.148
-175.983	-122.954	-0.126	0.020
-174.969	11.092	0.080	-0.060
-173.954	-121.289	0.224	-0.037
-172.939	553.685	0.046	-0.110
-171.925	84.439	0.065	0.070
-170.910	173.786	-0.227	0.322
-169.896	221.364	-0.101	0.160
-168.881	-156.518	-0.167	0.010
-167.866	-80.626	0.244	-0.080
-166.852	95.727	-0.317	-0.355
-165.837	-41.980	-0.157	-0.079
-164.823	-100.074	-0.469	-0.115
-163.808	176.025	0.078	-0.111
-162.793	-200.000	0.017	-0.169
-161.779	-187.884	0.189	0.002
-160.764	800.000	-0.094	-0.342
-159.750	18.549	0.167	-0.131
-158.735	-169.766	-0.179	0.006
-157.720	800.000	0.064	0.265
-156.706	578.945	-0.083	-0.201
-155.691	616.572	0.082	0.202
-154.677	-4.473	-0.142	0.096
-153.662	-31.181	0.101	-0.056
-152.647	-50.971	-0.095	-0.044
-151.633	0.840	0.046	0.033
-150.618	-200.000	-0.018	-0.286
-149.604	-52.600	-0.338	-0.154
-148.589	-74.838	0.306	0.108
-147.574	398.444	0.115	0.236
-146.560	-88.811	0.182	0.053
-145.545	355.946	0.063	0.123
-144.531	-4.675	-0.196	0.133
-143.516	-200.000	0.041	0.326
-142.502	-132.462	0.122	-0.015
-141.487	-23.887	0.055	-0.032
-140.472	-41.045	0.274	0.139
-139.458	513.082	-0.170	-0.389
-138.443	-200.000	-0.031	0.159
-137.429	425.901	-0.209	0.443
-136.414	-200.000	0.090	0.440
-135.399	214.428	0.161	0.251
-134.385	30.049	0.196	-0.164
-133.370	-200.000	-0.055	0.240
-132.356	183.601	-0.099	-0.144
-131.341	-126.999	0.136	0.020
-130.326	-200.000	-0.038	-0.169
-129.312	-188.241	-0.247	-0.003
-128.297	113.385	0.100	0.119
-127.283	-59.074	-0.195	-0.083
-126.268	-78.938	0.216	-0.072
-125.253	-200.000	-0.027	-0.176
-124.239	-95.185	-0.115	0.030
-123.224	-131.682	0.167	-0.021
-122.210	-200.000	0.027	-0.194
-121.195	51.422	-0.074	0.069
-120.180	-161.674	0.032	0.002
-119.166	121.959	0.227	0.278
-118.151	-130.849	0.102	-0.013
-117.137	800.000	0.052	-0.156
-116.122	800.000	0.057	-0.175
-115.107	79.812	-0.142	-0.150
-114.093	-19.767	-0.116	0.070
-113.078	800.000	0.008	0.028
-112.064	-200.000	0.011	-0.051
-111.049	800.000	-0.103	-0.333
-110.034	163.324	0.184	-0.254
-109.020	-151.606	0.564	0.041
-108.005	-107.292	0.290	0.062
-106.991	65.240	-0.149	-0.148
-105.976	-10.587	0.066	0.043
-104.962	-200.000	-0.048	0.244
-103.947	473.916	0.081	-0.178
-102.932	-106.710	-0.118	-0.026
-101.918	-102.223	-0.158	-0.037
-100.903	375.111	0.067	0.134
-99.889	83.440	0.119	-0.127
-98.874	-61.147	0.269	0.111
-97.859	800.000	-0.110	0.425
-96.845	-12.579	0.147	0.094
-95.830	1.009	-0.093	-0.065
-94.816	98.002	0.106	0.119
-93.801	-200.000	-0.049	0.489
-92.786	-58.383	0.368	0.157
-91.772	49.463	0.075	-0.069
-90.757	-116.807	-0.371	-0.067
-89.743	-97.377	-0.101	-0.026
-88.728	-132.728	0.254	0.032
-87.713	-32.572	0.191	0.104
-86.699	-200.000	0.024	0.113
-85.684	251.332	0.095	0.159
-84.670	-27.621	0.178	0.101
-83.655	101.774	-0.084	-0.096
-82.640	41.965	0.063	0.056
-81.626	-200.000	-0.005	0.044
-80.611	194.880	0.078	-0.116
-79.597	-200.000	0.012	0.126
-78.582	8.367	-0.264	0.194
-77.567	800.000	0.175	-0.515
-76.553	-12.662	0.098	-0.062
-75.538	61.675	-0.018	0.018
-74.524	-200.000	-0.007	-0.174
-73.509	-78.083	0.140	0.047
-72.494	-30.399	0.278	-0.154
-71.480	93.915	0.179	-0.198
-70.465	-200.000	0.027	0.289
-69.451	-41.978	0.285	0.143
-68.436	708.123	-0.027	0.071
-67.422	-200.000	0.073	-0.436
-66.407	800.000	-0.100	0.408
-65.392	-101.385	0.195	-0.047
-64.378	-117.265	0.034	-0.006
-63.363	359.373	-0.066	0.130
-62.349	-103.605	-0.361	-0.083
-61.334	29.965	-1.123	-0.938
-60.319	-5.165	0.630	0.424
-59.305	535.468	-0.390	-0.906
-58.290	238.317	0.693	1.127
-57.276	511.874	0.827	1.885
-56.261	-200.000	110.413	612.132
-55.246	502.740	1527.202	3455.510
-54.232	173.692	2719.089	3841.394
-53.217	101.805	2308.597	2635.916
-52.203	37.127	1910.081	1655.046
-51.188	30.946	1696.727	1423.101
-50.173	28.312	1654.092	1367.648
-49.159	48.372	1710.558	1567.242
-48.144	47.915	1724.767	1576.734
-47.130	30.343	1681.156	1405.252
-46.115	27.833	1666.202	1373.838
-45.100	27.621	1661.363	1368.204
-44.086	27.626	1658.514	1365.838
-43.071	27.487	1656.373	1362.986
-42.057	27.509	1653.450	1360.684
-41.042	27.497	1651.853	1359.232
-40.027	27.597	1649.359	1357.869
-39.013	27.589	1647.395	1356.138
-37.998	27.477	1646.127	1354.210
-36.984	27.567	1644.455	1353.447
-35.969	27.543	1643.421	1352.363
-34.954	27.688	1641.569	1351.860
-33.940	27.670	1639.974	1350.361
-32.925	27.692	1638.230	1349.035
-31.911	27.653	1636.377	1347.163
-30.896	27.628	1634.781	1345.616
-29.881	27.552	1633.592	1344.025
-28.867	27.631	1631.504	1342.832
-27.852	27.561	1630.365	1341.329
-26.838	27.629	1628.790	1340.476
-25.823	27.621	1627.439	1339.258
-24.809	27.753	1625.586	1338.644
-23.794	27.649	1625.254	1337.555
-22.779	27.670	1623.401	1336.132
-21.765	27.700	1621.144	1334.441
-20.750	27.650	1620.066	1333.134
-19.736	27.780	1618.651	1332.864
-18.721	27.687	1617.800	1331.431
-17.706	27.703	1616.290	1330.256
-16.692	27.826	1614.024	1329.235
-15.677	27.747	1612.554	1327.396
-14.663	27.827	1611.625	1327.162
-13.648	27.753	1610.298	1325.476
-12.633	27.657	1608.663	1323.384
-11.619	27.676	1607.212	1322.270
-10.604	27.706	1605.773	1321.257
-9.590	27.754	1604.131	1320.196
-8.575	27.796	1602.929	1319.456
-7.560	27.827	1602.125	1318.969
-6.546	27.751	1600.814	1317.289
-5.531	27.670	1600.000	1315.981
-4.517	27.640	1598.798	1314.726
-3.502	27.684	1598.107	1314.420
-2.487	27.858	1595.996	1313.885
-1.473	27.838	1584.813	1304.487
-0.458	25.969	1567.405	1276.885
0.556	24.160	1570.948	1253.208
1.571	22.372	1596.077	1260.352
2.586	21.971	1609.091	1267.620
3.600	19.155	1552.176	1203.032
4.615	11.050	1441.459	1064.325
5.629	4.655	1380.736	979.234
6.644	3.629	1373.302	967.451
7.659	3.510	1372.135	965.798
8.673	3.622	1371.042	965.642
9.688	3.649	1368.850	964.185
10.702	3.499	1366.437	961.462
11.717	6.665	1372.451	985.408
12.731	14.546	1386.945	1045.291
13.746	19.813	1395.590	1084.835
14.761	20.339	1394.642	1087.299
15.775	19.581	1392.889	1081.093
16.790	18.644	1389.878	1072.805
17.804	17.912	1387.164	1066.047
18.819	17.518	1386.244	1062.787
19.834	17.276	1385.497	1060.609
20.848	17.126	1383.941	1058.392
21.863	16.939	1382.768	1056.236
22.877	16.744	1382.003	1054.340
23.892	16.769	1380.670	1053.388
24.907	16.634	1380.191	1052.092
25.921	16.722	1378.949	1051.596
26.936	16.632	1378.508	1050.609
27.950	16.735	1377.577	1050.447
28.965	16.831	1376.332	1049.998
29.980	16.936	1375.472	1049.900
30.994	17.021	1373.828	1049.076
32.009	17.095	1372.581	1048.490
33.023	16.910	1372.013	1046.818
34.038	16.987	1370.717	1046.214
35.053	16.931	1368.896	1044.387
36.067	16.883	1367.619	1043.023
37.082	16.997	1366.932	1043.110
38.096	16.905	1366.408	1042.052
39.111	16.975	1365.305	1041.547
40.126	16.864	1364.243	1039.963
41.140	16.602	1363.580	1037.761
42.155	16.605	1362.909	1037.173
43.169	16.593	1362.820	1036.945
44.184	16.604	1362.439	1036.631
45.199	16.567	1361.593	1035.668
46.213	16.603	1361.745	1035.909
47.228	16.745	1360.655	1035.861
48.242	16.901	1359.015	1035.473
49.257	16.795	1357.919	1033.896
50.271	16.794	1356.730	1032.897
51.286	16.877	1355.082	1032.053
52.301	16.895	1354.112	1031.335
53.315	16.789	1352.780	1029.586
54.330	16.660	1352.011	1028.126
55.344	16.661	1350.643	1027.001
56.359	16.666	1349.102	1025.764
57.374	16.606	1348.188	1024.615
58.388	16.589	1347.478	1023.883
59.403	16.534	1347.019	1023.111
60.417	16.650	1346.045	1022.982
61.432	16.592	1345.157	1021.867
62.447	16.349	1344.417	1019.749
63.461	16.480	1342.864	1019.272
64.476	16.415	1342.109	1018.218
65.490	16.405	1340.631	1016.944
66.505	16.421	1339.543	1016.124
67.520	16.439	1337.765	1014.794
68.534	16.468	1337.003	1014.300
69.549	16.482	1336.498	1013.910
70.563	16.355	1335.291	1012.143
71.578	16.415	1333.698	1011.206
72.593	16.281	1333.156	1009.906
73.607	16.356	1332.189	1009.530
74.622	16.274	1331.727	1008.601
75.636	16.260	1331.116	1007.965
76.651	16.359	1330.194	1007.768
77.666	16.305	1330.194	1007.359
78.680	16.447	1329.266	1007.412
79.695	16.436	1328.594	1006.748
80.709	16.478	1327.683	1006.217
81.724	16.653	1327.182	1006.792
82.739	16.697	1325.893	1005.987
83.753	16.736	1325.565	1005.883
84.768	16.857	1324.177	1005.458
85.782	16.911	1323.338	1005.049
86.797	16.916	1321.882	1003.884
87.812	16.688	1321.031	1001.800
88.826	16.823	1319.829	1001.597
89.841	16.831	1318.895	1000.848
90.855	16.827	1318.062	1000.103
91.870	16.939	1316.875	999.777
92.884	16.985	1315.776	999.126
93.899	17.073	1314.922	998.904
94.914	16.984	1314.381	997.879
95.928	17.046	1313.647	997.598
96.943	16.921	1312.627	996.001
97.957	17.002	1311.619	995.626
98.972	16.989	1310.719	994.777
99.987	16.910	1309.928	993.627
101.001	16.952	1308.465	992.677
102.016	16.921	1307.797	991.899
103.030	16.946	1306.800	991.199
104.045	16.889	1305.879	990.083
105.060	16.861	1304.528	988.807
106.074	16.723	1302.814	986.617
107.089	16.497	1301.261	984.036
108.103	16.435	1300.545	983.047
109.118	16.466	1299.055	982.015
110.133	16.499	1297.468	980.919
111.147	16.412	1296.198	979.370
112.162	16.561	1295.115	979.327
113.176	16.611	1293.991	978.681
114.191	16.559	1293.405	977.850
115.206	16.581	1292.156	976.944
116.220	16.554	1290.544	975.485
117.235	16.504	1289.595	974.393
118.249	16.579	1288.670	974.041
119.264	16.509	1287.129	972.384
120.279	16.482	1286.150	971.406
121.293	16.361	1285.195	969.906
122.308	16.327	1284.370	969.000
123.322	16.457	1282.964	968.596
124.337	16.387	1281.357	966.896
125.352	16.333	1280.721	966.023
126.366	16.377	1279.769	965.470
127.381	16.333	1278.443	964.134
128.395	16.411	1277.477	963.765
129.410	16.465	1276.561	963.295
130.424	16.480	1275.950	962.839
131.439	16.592	1275.105	962.752
132.454	16.657	1273.610	961.909
133.468	16.628	1273.166	961.322
134.483	16.707	1272.472	961.161
135.497	16.615	1271.241	959.626
136.512	16.704	1269.961	959.080
137.527	16.629	1268.807	957.698
138.541	16.632	1267.287	956.482
139.556	16.784	1266.135	956.389
140.570	16.730	1265.718	955.680
141.585	16.837	1264.339	955.162
142.600	16.948	1262.939	954.645
143.614	16.937	1262.629	954.261
144.629	16.938	1261.392	953.246
145.643	17.043	1259.815	952.560
146.658	16.830	1258.893	950.587
147.673	16.835	1257.158	949.221
148.687	16.794	1255.976	948.012
149.702	16.619	1254.740	946.016
150.716	16.554	1253.703	944.787
151.731	16.768	1252.043	944.649
152.746	16.772	1251.100	943.877
153.760	16.838	1249.691	943.095
154.775	16.848	1248.937	942.498
155.789	16.858	1248.284	941.977
156.804	16.884	1247.224	941.238
157.819	16.916	1246.310	940.642
158.833	17.017	1244.984	940.120
159.848	17.196	1243.842	940.166
160.862	17.123	1243.135	939.144
161.877	16.891	1241.760	936.741
162.892	16.741	1240.607	934.958
163.906	16.713	1240.087	934.333
164.921	16.778	1238.355	933.299
165.935	16.969	1237.611	933.708
166.950	16.920	1237.319	933.139
167.964	16.882	1236.542	932.259
168.979	16.863	1235.558	931.329
169.994	16.862	1235.168	930.949
171.008	16.948	1233.801	930.310
172.023	17.066	1233.330	930.516
173.037	17.127	1233.001	930.521
174.052	17.052	1231.846	929.156
175.067	16.940	1230.168	927.195
176.081	16.861	1229.347	926.066
177.096	16.925	1228.406	925.621
178.110	16.976	1227.538	925.164
179.125	16.923	1226.403	923.939
180.140	16.932	1224.962	922.819
181.154	17.007	1223.984	922.410
182.169	17.028	1223.021	921.715
183.183	17.122	1222.133	921.477
184.198	17.179	1220.566	920.519
185.213	17.114	1219.381	919.195
186.227	17.172	1218.415	918.698
187.242	17.316	1217.122	918.422
188.256	17.302	1216.593	917.861
189.271	17.271	1215.425	916.736
190.286	17.096	1214.355	914.903
191.300	16.829	1213.694	912.887
192.315	16.887	1213.014	912.608
193.329	16.783	1212.147	911.312
194.344	16.865	1211.638	911.291
195.359	16.897	1211.076	910.961
196.373	17.162	1210.498	911.869
197.388	17.170	1210.110	911.538
198.402	17.310	1210.025	912.144
199.417	17.442	1209.336	912.249
200.432	17.600	1208.308	912.242
201.446	17.554	1207.636	911.410
202.461	17.531	1206.833	910.595
203.475	17.539	1205.857	909.824
204.490	17.427	1204.392	908.040
205.504	17.450	1202.613	906.741
206.519	17.416	1201.796	905.866
207.534	17.387	1200.908	904.958
208.548	17.426	1199.939	904.358
209.563	17.318	1199.541	903.403
210.577	17.387	1197.992	902.525
211.592	17.538	1197.472	902.854
212.607	17.585	1196.367	902.190
213.621	17.620	1195.835	901.891
214.636	17.439	1194.733	900.023
215.650	17.539	1193.809	899.774
216.665	17.642	1193.164	899.754
217.680	17.661	1192.550	899.315
218.694	17.686	1191.746	898.755
219.709	17.674	1190.740	897.859
220.723	17.726	1189.665	897.243
221.738	17.701	1189.012	896.535
222.753	17.653	1188.184	895.580
223.767	17.670	1187.763	895.274
224.782	17.743	1187.031	895.025
225.796	17.915	1186.341	895.328
226.811	17.848	1185.532	894.286
227.826	17.754	1184.654	893.054
228.840	17.836	1183.525	892.552
229.855	17.766	1182.835	891.586
230.869	17.719	1181.795	890.479
231.884	17.624	1181.511	889.693
232.899	17.620	1180.734	889.007
233.913	17.558	1179.723	887.845
234.928	17.497	1179.127	886.996
235.942	17.568	1178.062	886.490
236.957	17.504	1177.397	885.574
237.972	17.609	1176.559	885.412
238.986	17.567	1175.996	884.693
240.001	17.541	1175.163	883.853
241.015	17.570	1174.384	883.341
242.030	17.674	1174.005	883.516
243.045	17.674	1173.015	882.691
244.059	17.774	1172.042	882.401
245.074	17.706	1171.723	881.727
246.088	17.798	1170.891	881.501
247.103	17.828	1170.005	880.909
248.117	17.943	1168.991	880.660
249.132	18.103	1168.610	881.121
250.147	18.266	1167.975	881.405
251.161	18.300	1167.393	881.062
252.176	18.275	1166.517	880.194
253.190	18.372	1166.281	880.436
254.205	18.409	1165.449	879.923
255.220	18.371	1165.083	879.372
256.234	18.380	1164.245	878.707
257.249	18.390	1163.716	878.283
258.263	18.499	1162.379	877.754
259.278	18.387	1162.325	877.061
260.293	18.554	1161.638	877.321
261.307	18.610	1160.955	877.013
262.322	18.442	1160.795	875.955
263.336	18.585	1159.819	875.873
264.351	18.622	1159.192	875.511
265.366	18.596	1158.452	874.743
266.380	18.623	1157.410	874.017
267.395	18.588	1156.665	873.195
268.409	18.337	1156.256	871.534
269.424	18.598	1154.968	871.811
270.439	18.421	1154.880	870.768
271.453	18.308	1154.300	869.681
272.468	18.351	1153.066	868.890
273.482	18.422	1151.888	868.289
274.497	18.505	1151.214	868.122
275.512	18.448	1151.191	867.741
276.526	18.318	1150.047	866.142
277.541	18.493	1149.269	866.364
278.555	18.483	1148.933	865.983
279.570	18.738	1147.764	866.315
280.585	18.798	1147.141	866.072
281.599	18.707	1146.441	865.008
282.614	18.624	1145.625	863.896
283.628	18.563	1144.209	862.443
284.643	18.555	1143.160	861.536
285.657	18.511	1142.695	860.888
286.672	18.587	1141.619	860.385
287.687	18.533	1140.506	859.202
288.701	18.526	1139.825	858.575
289.716	18.722	1138.869	858.759
290.730	18.711	1138.110	858.056
291.745	18.696	1137.460	857.416
292.760	18.670	1137.105	856.941
293.774	18.682	1136.555	856.511
294.789	18.741	1136.169	856.438
295.803	18.896	1135.222	856.424
296.818	18.742	1134.364	854.930
297.833	18.875	1133.638	854.971
298.847	18.760	1132.639	853.570
299.862	18.739	1132.063	852.958
300.876	18.811	1131.165	852.560
301.891	18.870	1130.827	852.526
302.906	18.911	1130.454	852.372
303.920	19.002	1129.638	852.132
304.935	19.135	1128.628	851.952
305.949	19.247	1128.018	851.970
306.964	19.162	1127.339	850.959
307.979	19.051	1126.782	849.917
308.993	18.984	1125.973	848.900
310.008	19.097	1125.293	848.872
311.022	19.101	1124.674	848.350
312.037	19.107	1123.630	847.513
313.052	19.009	1122.659	846.225
314.066	19.022	1121.481	845.328
315.081	18.951	1120.627	844.259
316.095	18.849	1120.009	843.220
317.110	18.793	1119.277	842.320
318.125	18.802	1118.955	842.048
319.139	18.921	1118.229	842.007
320.154	18.809	1117.516	840.851
321.168	18.830	1116.905	840.419
322.183	18.948	1116.472	840.595
323.197	18.980	1115.445	839.904
324.212	19.053	1114.872	839.751
325.227	18.998	1114.625	839.225
326.241	19.019	1114.057	838.825
327.256	18.982	1113.149	837.887
328.270	19.015	1111.870	837.012
329.285	19.018	1111.034	836.320
330.300	19.092	1109.965	835.802
331.314	19.085	1108.803	834.818
332.329	19.099	1108.098	834.285
333.343	19.040	1107.277	833.303
334.358	19.131	1106.569	833.138
335.373	19.189	1106.064	832.964
336.387	19.273	1105.160	832.615
337.402	19.239	1104.509	831.887
338.416	19.218	1104.016	831.343
339.431	19.419	1102.910	831.405
340.446	19.446	1102.866	831.426
341.460	19.456	1102.188	830.891
342.475	19.562	1101.065	830.481
343.489	19.533	1100.681	829.980
344.504	19.660	1099.612	829.707
345.519	19.661	1098.325	828.672
346.533	19.699	1097.983	828.522
347.548	19.647	1097.184	827.596
348.562	19.694	1096.300	827.082
349.577	19.651	1095.199	825.971
350.592	19.410	1094.550	824.256
351.606	19.380	1093.936	823.576
352.621	19.456	1093.075	823.219
353.635	19.376	1092.273	822.160
354.650	19.379	1091.921	821.837
355.665	19.473	1091.010	821.529
356.679	19.436	1090.939	821.226
357.694	19.491	1090.234	820.881
358.708	19.618	1088.998	820.481
359.723	19.684	1088.460	820.316
360.738	19.598	1088.189	819.636
361.752	19.583	1087.417	818.906
362.767	19.619	1086.902	818.620
363.781	19.638	1086.399	818.257
364.796	19.784	1085.912	818.509
365.810	19.800	1085.639	818.309
366.825	19.995	1084.573	818.352
367.840	20.026	1083.830	817.867
368.854	20.065	1083.669	817.855
369.869	19.955	1083.006	816.764
370.883	20.052	1081.723	816.182
371.898	19.915	1081.244	815.104
372.913	19.896	1080.977	814.740
373.927	19.986	1080.049	814.392
374.942	19.959	1079.840	814.033
375.956	20.058	1079.387	814.085
376.971	19.832	1078.691	812.428
377.986	20.129	1077.658	812.971
379.000	20.302	1077.169	813.342
380.015	20.217	1076.838	812.624
381.029	20.280	1076.326	812.460
382.044	20.144	1075.603	811.204
383.059	20.212	1074.780	810.830
384.073	20.177	1073.925	809.949
385.088	20.159	1073.186	809.237
386.102	20.191	1072.165	808.546
387.117	20.180	1071.180	807.679
388.132	20.120	1070.048	806.474
389.146	19.972	1069.350	805.190
390.161	20.040	1068.533	804.817
391.175	20.024	1068.117	804.360
392.190	20.158	1067.299	804.294
393.205	20.222	1066.444	803.877
394.219	20.232	1065.923	803.459
395.234	20.239	1064.528	802.369
396.248	20.192	1063.524	801.324
397.263	20.236	1062.522	800.699
398.278	20.097	1062.043	799.628
399.292	19.877	1061.727	798.301
400.307	20.110	1060.507	798.388
401.321	20.010	1060.118	797.566
402.336	19.885	1059.521	796.470
403.350	19.988	1058.868	796.384
404.365	20.097	1058.130	796.259
405.380	20.319	1057.232	796.531
406.394	20.182	1056.419	795.217
407.409	20.289	1056.161	795.447
408.423	20.448	1055.371	795.509
409.438	20.480	1054.701	795.077
410.453	20.616	1054.034	795.125
411.467	20.575	1053.517	794.480
412.482	20.583	1052.722	793.847
413.496	20.608	1052.229	793.518
414.511	20.588	1051.418	792.745
415.526	20.615	1051.314	792.722
416.540	20.680	1050.859	792.604
417.555	20.665	1050.407	792.124
418.569	20.715	1049.647	791.707
419.584	20.713	1049.165	791.265
420.599	20.546	1049.002	790.314
421.613	154.616	1403.259	1795.146
422.628	141.759	1454.815	1795.231
