DTS Sentinel unit serial number:	SN413079Multiplexer serial number:	ORYXHardware model number:	OX4-SRSoftware version number:	ORYX F/W v4.00 Oryx Data Collector v3.7.2.0data status	okinstallation	princeton_trtdifferential loss correction	single-endedforward channel	channel 2reverse channel	N/Adate	2019/09/15time	14:23:35forward acquisition time	60.00reverse acquisition time	0.00gamma	496.2192k internal	0.2299k external	0.2299temperature offset calibration	0.9992default loss term (dB/km)	0.3790temperature slope calibration	1.0000multiplexer offset coefficient	1.0000multiplexer slope coefficient	1.0000fibre end	0.00T internal ref (°C)	39.12T ext. ref 1 (°C)	4.96T ext. ref 2 (°C)	36.13length (m)	temperature (°C)	Stokes	anti-Stokes-747.200	31.842	-0.169	0.148
-746.185	17.514	0.260	-0.211
-745.171	96.226	0.161	0.188
-744.156	-200.000	0.044	0.328
-743.142	-12.373	-0.025	-0.017
-742.127	800.000	-0.136	0.473
-741.112	-67.619	-0.042	-0.017
-740.098	-200.000	-0.037	0.349
-739.083	82.189	0.234	-0.259
-738.069	-98.415	0.018	-0.005
-737.054	-3.791	0.056	-0.039
-736.039	-180.638	-0.390	0.008
-735.025	-53.320	0.195	-0.091
-734.010	285.236	0.092	-0.169
-732.996	306.414	0.109	-0.207
-731.981	800.000	0.035	-0.127
-730.966	-124.276	-0.259	-0.041
-729.952	800.000	0.027	0.101
-728.937	-108.609	-0.174	-0.038
-727.923	-81.468	-0.217	-0.073
-726.908	-33.330	-0.199	0.113
-725.894	-4.750	0.095	-0.067
-724.879	-18.179	-0.230	-0.147
-723.864	95.006	-0.078	0.090
-722.850	-200.000	-0.014	-0.270
-721.835	11.138	-0.173	0.135
-720.821	631.158	0.030	-0.078
-719.806	-200.000	-0.007	-0.038
-718.791	-99.482	-0.139	0.036
-717.777	-200.000	0.064	0.326
-716.762	-200.000	-0.050	0.360
-715.748	-71.054	-0.403	0.154
-714.733	25.622	0.128	0.109
-713.718	145.610	0.117	0.160
-712.704	92.020	-0.256	-0.294
-711.689	-33.286	0.037	-0.021
-710.675	-200.000	-0.025	-0.198
-709.660	-200.000	-0.016	-0.239
-708.645	800.000	0.072	-0.215
-707.631	141.012	-0.068	0.092
-706.616	-82.330	-0.379	0.125
-705.602	-200.000	-0.012	-0.101
-704.587	-43.511	0.370	0.190
-703.572	-200.000	-0.056	0.376
-702.558	-191.541	0.097	0.001
-701.543	3.616	-0.123	0.092
-700.529	16.937	0.097	-0.078
-699.514	-6.723	-0.238	-0.165
-698.499	-61.347	-0.283	-0.121
-697.485	-41.015	-0.221	0.116
-696.470	711.259	0.172	-0.463
-695.456	16.850	0.060	-0.048
-694.441	27.869	0.342	0.294
-693.426	-200.000	0.005	-0.074
-692.412	151.669	-0.054	0.075
-691.397	645.413	-0.030	0.078
-690.383	36.882	0.077	0.070
-689.368	-45.432	0.245	0.124
-688.354	194.628	-0.107	0.165
-687.339	-101.345	-0.387	-0.096
-686.324	-200.000	0.038	-0.465
-685.310	-107.719	0.669	-0.149
-684.295	-16.810	-0.103	-0.067
-683.281	428.849	0.138	0.305
-682.266	612.452	-0.116	-0.295
-681.251	800.000	-0.051	0.154
-680.237	-58.662	-0.180	-0.079
-679.222	-143.780	0.055	-0.005
-678.208	224.172	-0.064	0.106
-677.193	800.000	-0.054	-0.155
-676.178	-200.000	-0.034	0.436
-675.164	-144.972	-0.232	0.022
-674.149	800.000	0.054	0.238
-673.135	-200.000	0.028	-0.153
-672.120	538.456	-0.113	-0.274
-671.105	-125.251	-0.086	0.013
-670.091	-35.003	-0.088	-0.049
-669.076	420.004	0.097	-0.212
-668.062	357.569	0.116	-0.234
-667.047	571.410	-0.067	0.165
-666.032	-49.618	-0.324	0.157
-665.018	222.972	0.184	0.301
-664.003	309.264	0.178	0.338
-662.989	705.990	-0.075	-0.201
-661.974	-200.000	0.019	-0.155
-660.959	-200.000	-0.017	-0.306
-659.945	-47.801	-0.204	-0.101
-658.930	120.824	-0.065	0.082
-657.916	-104.370	-0.187	0.044
-656.901	-56.067	-0.113	0.051
-655.886	-114.817	0.188	-0.037
-654.872	-101.979	0.380	0.093
-653.857	800.000	-0.074	0.225
-652.843	183.403	0.096	0.144
-651.828	-100.149	0.266	-0.067
-650.814	34.910	-0.138	-0.123
-649.799	-0.538	-0.214	-0.155
-648.784	21.368	0.225	0.186
-647.770	77.969	0.067	-0.072
-646.755	-127.048	-0.260	-0.039
-645.741	181.329	0.047	0.070
-644.726	-200.000	0.035	-0.724
-643.711	800.000	0.062	0.253
-642.697	-40.946	-0.277	0.146
-641.682	-200.000	-0.009	-0.192
-640.668	144.588	-0.087	-0.118
-639.653	242.353	0.064	-0.109
-638.638	-20.727	-0.431	0.269
-637.624	243.831	0.185	0.316
-636.609	511.751	-0.008	0.018
-635.595	520.981	0.065	0.155
-634.580	800.000	-0.092	-0.392
-633.565	-127.859	-0.070	0.010
-632.551	199.036	-0.114	-0.177
-631.536	397.126	-0.041	0.086
-630.522	800.000	-0.044	-0.135
-629.507	-102.110	-0.208	-0.051
-628.492	-200.000	-0.021	-0.286
-627.478	-81.376	-0.057	0.019
-626.463	10.306	-0.087	0.068
-625.449	-200.000	-0.021	0.137
-624.434	579.460	0.046	0.113
-623.419	-200.000	-0.005	0.322
-622.405	-200.000	-0.001	-0.095
-621.390	-56.474	0.035	0.016
-620.376	-35.195	-0.215	-0.119
-619.361	-200.000	-0.017	-0.369
-618.346	195.749	0.155	-0.239
-617.332	15.225	-0.138	-0.110
-616.317	-27.369	-0.129	0.076
-615.303	-100.763	0.269	-0.067
-614.288	159.440	-0.012	0.017
-613.273	-112.159	-0.142	0.029
-612.259	-175.993	-0.193	-0.005
-611.244	-148.723	0.164	-0.014
-610.230	167.657	0.010	-0.015
-609.215	64.968	0.253	-0.259
-608.201	-200.000	0.011	0.231
-607.186	31.118	-0.357	-0.311
-606.171	-200.000	-0.004	-0.291
-605.157	373.611	0.074	-0.152
-604.142	-171.524	-0.198	0.007
-603.128	179.998	-0.178	0.264
-602.113	178.400	0.156	0.232
-601.098	105.339	0.244	0.292
-600.084	528.428	0.046	-0.111
-599.069	-200.000	-0.008	-0.338
-598.055	-200.000	0.065	-0.310
-597.040	429.017	-0.026	-0.056
-596.025	-200.000	-0.032	0.200
-595.011	-55.202	-0.274	-0.125
-593.996	74.234	-0.030	-0.032
-592.982	-32.508	0.071	0.040
-591.967	-59.930	0.062	-0.027
-590.952	130.365	-0.115	-0.149
-589.938	800.000	0.027	-0.120
-588.923	-200.000	-0.016	0.107
-587.909	-20.695	0.294	0.183
-586.894	-79.955	-0.099	0.034
-585.879	399.707	0.005	-0.011
-584.865	-113.343	-0.169	-0.034
-583.850	-147.304	0.279	0.024
-582.836	-200.000	-0.016	-0.291
-581.821	-22.297	0.281	-0.173
-580.806	-172.373	0.403	0.013
-579.792	800.000	0.041	-0.174
-578.777	490.998	0.097	-0.225
-577.763	324.646	-0.173	-0.335
-576.748	-13.095	-0.289	0.191
-575.733	-77.526	-0.368	-0.129
-574.719	-33.557	0.162	0.091
-573.704	217.935	-0.090	0.146
-572.690	-200.000	-0.053	-0.453
-571.675	44.541	0.148	0.137
-570.661	0.580	-0.048	0.035
-569.646	-47.895	0.104	0.051
-568.631	173.984	0.064	-0.093
-567.617	49.471	-0.121	-0.116
-566.602	136.321	-0.172	0.227
-565.588	101.834	0.073	-0.086
-564.573	-27.454	0.099	-0.058
-563.558	-200.000	-0.043	-0.305
-562.544	-134.969	-0.114	0.014
-561.529	-200.000	0.030	-0.184
-560.515	352.840	0.089	0.178
-559.500	-32.127	-0.036	-0.020
-558.485	-196.703	0.279	0.002
-557.471	175.492	0.033	-0.048
-556.456	-28.098	0.053	-0.031
-555.442	-107.136	-0.068	-0.015
-554.427	-98.882	0.200	-0.051
-553.412	-133.850	0.244	-0.031
-552.398	43.408	-0.307	-0.284
-551.383	14.960	0.293	-0.232
-550.369	560.026	-0.122	-0.298
-549.354	-81.938	0.148	-0.049
-548.339	800.000	0.046	0.145
-547.325	372.916	-0.055	-0.112
-546.310	102.455	0.040	0.048
-545.296	-78.418	-0.247	0.086
-544.281	75.184	-0.152	0.163
-543.266	-200.000	-0.043	0.240
-542.252	-200.000	0.015	0.140
-541.237	-94.375	-0.361	-0.100
-540.223	-200.000	-0.003	0.040
-539.208	112.952	-0.177	0.217
-538.193	61.547	-0.272	-0.274
-537.179	-200.000	-0.033	-0.352
-536.164	-118.964	0.127	0.023
-535.150	-131.383	-0.206	0.028
-534.135	92.349	0.072	0.082
-533.121	-200.000	-0.053	-0.280
-532.106	124.758	-0.145	0.185
-531.091	-200.000	-0.006	0.209
-530.077	-63.825	0.146	0.061
-529.062	95.554	0.147	-0.170
-528.048	-61.309	-0.193	-0.082
-527.033	354.674	-0.073	0.147
-526.018	515.831	0.054	0.128
-525.004	249.431	-0.132	-0.226
-523.989	-10.765	-0.270	-0.180
-522.975	311.830	0.057	0.109
-521.960	-56.572	0.075	-0.033
-520.945	87.403	0.106	0.118
-519.931	-200.000	-0.009	0.042
-518.916	203.469	0.077	-0.120
-517.902	-126.839	-0.270	0.040
-516.887	-125.196	0.217	-0.034
-515.872	19.800	-0.097	0.079
-514.858	-107.577	-0.280	0.062
-513.843	596.920	0.022	0.056
-512.829	49.018	-0.253	-0.240
-511.814	217.287	0.126	-0.203
-510.799	800.000	-0.020	-0.078
-509.785	681.172	-0.030	-0.078
-508.770	-200.000	-0.063	-0.370
-507.756	57.434	-0.202	-0.200
-506.741	800.000	-0.075	0.240
-505.726	-166.732	-0.084	0.004
-504.712	-200.000	0.038	0.254
-503.697	246.902	-0.123	-0.210
-502.683	-135.058	0.074	0.009
-501.668	145.536	-0.244	0.330
-500.653	643.395	-0.135	0.347
-499.639	-200.000	-0.011	-0.056
-498.624	-200.000	0.011	0.052
-497.610	121.106	-0.043	-0.054
-496.595	86.530	0.144	0.160
-495.581	-122.642	-0.178	-0.029
-494.566	-142.295	0.235	0.023
-493.551	320.321	0.041	0.079
-492.537	-99.148	0.099	0.025
-491.522	-50.804	-0.255	0.121
-490.508	85.631	-0.106	-0.118
-489.493	800.000	0.015	-0.054
-488.478	800.000	-0.032	0.126
-487.464	-47.446	-0.211	0.104
-486.449	60.700	-0.161	0.161
-485.435	-200.000	-0.054	-0.299
-484.420	-60.886	0.306	-0.131
-483.405	-200.000	-0.036	-0.288
-482.391	-66.910	0.250	-0.100
-481.376	-149.686	-0.305	0.024
-480.362	295.182	-0.090	-0.167
-479.347	-55.700	0.087	-0.040
-478.332	330.746	0.140	0.273
-477.318	800.000	-0.072	-0.276
-476.303	127.356	-0.218	0.280
-475.289	88.487	-0.115	0.129
-474.274	-80.586	-0.186	-0.062
-473.259	-156.811	-0.171	0.011
-472.245	-148.846	0.078	0.006
-471.230	-200.000	-0.007	-0.146
-470.216	-200.000	-0.044	-0.226
-469.201	-17.417	0.007	-0.004
-468.186	-61.506	0.235	0.100
-467.172	-200.000	0.019	0.353
-466.157	-200.000	-0.014	0.500
-465.143	6.153	0.289	0.217
-464.128	800.000	-0.091	0.307
-463.113	800.000	0.066	0.259
-462.099	-22.802	0.248	0.151
-461.084	-62.282	-0.039	-0.016
-460.070	222.822	-0.061	0.100
-459.055	-84.139	-0.077	-0.025
-458.040	-52.781	-0.182	0.085
-457.026	250.175	0.104	-0.178
-456.011	-94.142	-0.381	0.105
-454.997	800.000	0.104	0.297
-453.982	-200.000	0.006	0.121
-452.968	-153.836	-0.117	-0.008
-451.953	-188.055	-0.194	-0.003
-450.938	-17.238	-0.162	0.103
-449.924	-127.353	0.144	0.021
-448.909	515.076	-0.055	0.129
-447.895	-200.000	0.003	-0.135
-446.880	756.650	0.101	0.276
-445.865	667.176	-0.060	0.158
-444.851	-122.139	-0.276	0.046
-443.836	-91.696	0.149	-0.043
-442.822	62.579	0.222	-0.224
-441.807	-160.225	0.133	0.007
-440.792	-57.176	0.303	0.134
-439.778	-200.000	0.093	0.473
-438.763	198.707	0.078	0.120
-437.749	800.000	-0.052	-0.182
-436.734	-16.242	-0.182	-0.116
-435.719	-65.401	-0.071	0.029
-434.705	-150.637	0.279	0.021
-433.690	-18.854	0.059	0.037
-432.676	-113.306	0.439	-0.087
-431.661	66.960	0.071	0.073
-430.646	-30.855	0.142	0.081
-429.632	55.596	0.195	-0.191
-428.617	800.000	-0.058	-0.218
-427.603	137.346	0.087	-0.115
-426.588	-200.000	-0.023	0.300
-425.573	10.465	-0.198	0.152
-424.559	-200.000	-0.008	0.101
-423.544	46.907	0.193	-0.181
-422.530	-200.000	-0.013	-0.341
-421.515	-200.000	-0.009	0.059
-420.500	12.413	-0.432	-0.336
-419.486	-115.098	0.244	-0.047
-418.471	-61.440	0.264	0.112
-417.457	77.065	0.164	0.176
-416.442	-97.209	-0.116	-0.031
-415.428	442.802	-0.010	-0.023
-414.413	38.609	0.055	0.050
-413.398	-46.923	0.263	-0.129
-412.384	262.155	0.090	0.158
-411.369	297.290	-0.056	0.104
-410.355	-31.211	0.211	0.120
-409.340	-200.000	0.011	0.101
-408.325	800.000	0.043	-0.127
-407.311	-200.000	-0.101	0.513
-406.296	638.551	0.093	0.238
-405.282	31.154	-0.272	-0.235
-404.267	-60.861	0.175	-0.074
-403.252	-87.482	-0.301	-0.092
-402.238	-62.392	-0.185	0.077
-401.223	-68.936	0.158	-0.062
-400.209	75.284	0.146	-0.155
-399.194	788.221	-0.052	-0.145
-398.179	-200.000	-0.064	0.402
-397.165	136.655	0.209	0.274
-396.150	188.462	0.109	-0.164
-395.136	648.174	0.087	-0.224
-394.121	-200.000	0.084	-0.376
-393.106	682.115	-0.081	-0.213
-392.092	800.000	-0.114	0.331
-391.077	-86.987	-0.059	-0.018
-390.063	-200.000	-0.017	0.207
-389.048	-71.481	0.267	0.100
-388.033	260.175	0.053	-0.092
-387.019	-130.866	-0.077	-0.010
-386.004	532.721	-0.084	-0.201
-384.990	650.337	-0.037	-0.096
-383.975	-76.347	0.378	0.134
-382.960	-200.000	-0.029	-0.156
-381.946	259.155	0.077	0.134
-380.931	270.938	0.095	0.169
-379.917	-53.188	-0.350	0.162
-378.902	-18.418	-0.203	0.128
-377.888	24.155	-0.184	0.152
-376.873	7.490	0.186	0.140
-375.858	-71.929	-0.147	0.055
-374.844	22.287	0.135	-0.111
-373.829	235.180	-0.071	-0.119
-372.815	68.041	0.314	0.324
-371.800	800.000	-0.067	-0.267
-370.785	-89.605	0.321	-0.095
-369.771	-65.321	0.451	0.182
-368.756	-25.310	-0.216	-0.129
-367.742	-4.044	0.206	0.143
-366.727	-130.122	0.331	-0.045
-365.712	392.888	0.076	0.158
-364.698	29.211	-0.154	0.131
-363.683	800.000	-0.029	0.081
-362.669	-151.392	-0.417	0.031
-361.654	-200.000	-0.001	0.168
-360.639	-200.000	0.001	0.029
-359.625	800.000	0.051	0.148
-358.610	685.403	-0.078	0.206
-357.596	-200.000	-0.021	0.172
-356.581	-200.000	-0.016	0.253
-355.566	800.000	0.026	-0.103
-354.552	800.000	0.079	-0.222
-353.537	566.563	0.092	-0.225
-352.523	800.000	0.037	0.134
-351.508	-131.324	0.041	0.005
-350.493	-71.790	-0.185	0.069
-349.479	-200.000	0.025	0.119
-348.464	-68.406	-0.308	0.120
-347.450	192.796	-0.090	-0.136
-346.435	-66.871	0.133	-0.053
-345.420	800.000	-0.045	0.166
-344.406	-200.000	0.013	-0.179
-343.391	228.262	-0.128	0.210
-342.377	-6.021	-0.197	-0.135
-341.362	123.515	-0.255	-0.322
-340.348	800.000	-0.009	0.030
-339.333	59.964	-0.097	-0.097
-338.318	-19.723	0.094	-0.058
-337.304	-60.307	-0.179	0.077
-336.289	464.292	-0.038	-0.086
-335.275	184.176	-0.145	0.216
-334.260	60.354	-0.043	-0.043
-333.245	32.038	0.176	-0.152
-332.231	-48.486	0.284	0.137
-331.216	386.059	0.052	0.108
-330.202	178.812	0.230	-0.338
-329.187	-200.000	0.028	0.174
-328.172	-79.964	-0.143	-0.048
-327.158	58.053	-0.104	0.102
-326.143	-137.246	0.054	-0.006
-325.129	-31.115	0.256	-0.145
-324.114	231.845	0.134	0.221
-323.099	-28.623	0.130	0.075
-322.085	16.321	-0.141	0.112
-321.070	30.319	0.226	-0.194
-320.056	-70.832	-0.226	-0.085
-319.041	800.000	-0.010	0.043
-318.026	-200.000	-0.050	0.232
-317.012	58.420	0.079	-0.078
-315.997	562.043	-0.035	0.086
-314.983	311.131	0.140	0.263
-313.968	-9.042	0.166	0.111
-312.953	385.805	-0.033	-0.067
-311.939	-200.000	-0.012	0.059
-310.924	-161.348	0.356	0.018
-309.910	-111.694	-0.079	-0.016
-308.895	11.787	-0.259	-0.199
-307.880	-200.000	-0.033	0.336
-306.866	800.000	-0.088	0.304
-305.851	-72.082	-0.247	0.092
-304.837	118.660	0.083	-0.103
-303.822	-39.148	-0.273	-0.144
-302.807	800.000	-0.103	-0.429
-301.793	-4.897	0.070	0.049
-300.778	800.000	0.108	-0.470
-299.764	404.837	0.032	0.068
-298.749	36.012	-0.382	0.337
-297.735	800.000	-0.035	-0.108
-296.720	34.260	-0.065	0.057
-295.705	-50.215	0.122	0.058
-294.691	511.237	0.014	0.032
-293.676	-200.000	-0.014	0.279
-292.662	-117.999	0.235	0.042
-291.647	-46.575	-0.120	0.059
-290.632	800.000	0.016	0.062
-289.618	-56.512	0.082	0.036
-288.603	800.000	-0.080	-0.254
-287.589	-22.171	0.268	0.163
-286.574	20.762	-0.202	-0.164
-285.559	54.961	0.149	0.144
-284.545	579.779	-0.118	0.291
-283.530	-200.000	-0.002	-0.021
-282.516	390.426	-0.092	0.191
-281.501	-164.003	-0.102	-0.005
-280.486	-200.000	0.037	0.386
-279.472	-42.228	-0.069	-0.035
-278.457	-200.000	0.019	0.119
-277.443	800.000	-0.056	-0.185
-276.428	-164.948	0.120	-0.005
-275.413	-33.383	-0.073	0.041
-274.399	-165.929	0.134	0.006
-273.384	30.905	-0.288	0.247
-272.370	-20.960	0.067	0.041
-271.355	31.992	-0.066	0.057
-270.340	18.432	0.112	-0.090
-269.326	-101.665	-0.024	0.006
-268.311	31.255	-0.082	0.071
-267.297	-25.245	0.253	-0.150
-266.282	-63.174	0.142	-0.059
-265.267	-200.000	0.062	0.397
-264.253	-98.891	0.177	0.045
-263.238	-200.000	-0.245	0.001
-262.224	-200.000	-0.034	-0.317
-261.209	412.069	-0.042	-0.088
-260.195	37.397	0.316	-0.280
-259.180	562.630	0.051	-0.124
-258.165	-8.686	0.008	-0.005
-257.151	134.313	0.084	0.108
-256.136	-200.000	-0.007	-0.097
-255.122	-28.605	0.142	-0.082
-254.107	7.076	-0.049	0.037
-253.092	-200.000	0.023	0.116
-252.078	-118.313	0.137	0.024
-251.063	-200.000	0.033	0.275
-250.049	115.151	-0.080	0.097
-249.034	666.369	-0.093	-0.241
-248.019	500.059	0.114	-0.264
-247.005	30.729	0.123	-0.106
-245.990	-109.344	-0.060	-0.013
-244.976	-109.595	-0.373	0.079
-243.961	308.157	0.088	-0.164
-242.946	81.507	-0.187	0.202
-241.932	-123.163	0.183	-0.029
-240.917	18.570	0.272	-0.217
-239.903	39.911	0.120	-0.108
-238.888	-73.534	0.274	0.100
-237.873	-68.042	0.366	-0.143
-236.859	800.000	0.073	-0.320
-235.844	-35.028	0.344	-0.188
-234.830	-118.484	0.511	0.091
-233.815	-78.054	-0.402	-0.139
-232.800	-200.000	0.026	-0.187
-231.786	-32.574	-0.161	0.090
-230.771	-10.340	-0.165	0.109
-229.757	-64.884	0.121	0.049
-228.742	265.523	-0.124	-0.217
-227.727	-52.997	0.387	-0.178
-226.713	92.406	-0.195	-0.219
-225.698	8.286	-0.222	0.167
-224.684	-200.000	0.003	-0.154
-223.669	54.547	0.073	0.070
-222.655	101.534	0.140	0.163
-221.640	666.110	-0.137	0.354
-220.625	-6.815	-0.205	-0.139
-219.611	-200.000	-0.040	-0.189
-218.596	160.797	0.048	0.066
-217.582	727.696	0.064	-0.170
-216.567	67.927	0.064	-0.066
-215.552	-200.000	-0.008	-0.059
-214.538	590.463	0.050	0.122
-213.523	-136.577	-0.098	-0.011
-212.509	-200.000	-0.009	0.149
-211.494	-122.275	-0.298	-0.049
-210.479	192.784	0.214	0.323
-209.465	375.976	-0.114	0.233
-208.450	156.880	0.099	0.137
-207.436	-6.397	-0.077	-0.053
-206.421	-109.008	-0.288	-0.061
-205.406	-42.924	0.101	0.051
-204.392	34.116	-0.164	-0.143
-203.377	-200.000	0.053	-0.264
-202.363	-142.646	-0.123	0.012
-201.348	356.967	0.078	0.155
-200.333	-183.822	0.193	0.003
-199.319	-138.801	-0.064	-0.007
-198.304	800.000	0.211	-0.662
-197.290	-38.172	0.160	0.085
-196.275	42.743	-0.182	0.165
-195.260	423.962	-0.068	0.146
-194.246	-148.334	-0.379	0.031
-193.231	-195.762	0.159	0.001
-192.217	-0.129	0.165	-0.117
-191.202	150.337	-0.265	0.359
-190.187	-98.545	0.069	-0.017
-189.173	293.724	0.147	-0.267
-188.158	-200.000	0.035	-0.169
-187.144	-69.795	-0.342	-0.130
-186.129	800.000	0.123	-0.346
-185.114	-37.771	0.249	-0.132
-184.100	85.379	0.120	0.132
-183.085	195.742	0.110	0.167
-182.071	800.000	-0.031	-0.092
-181.056	363.904	-0.101	0.202
-180.042	628.689	0.101	0.254
-179.027	159.334	-0.109	-0.151
-178.012	-200.000	0.006	-0.141
-176.998	-200.000	0.057	-0.276
-175.983	127.569	0.167	0.211
-174.969	83.154	0.029	0.032
-173.954	0.819	0.064	-0.046
-172.939	-32.937	0.108	0.060
-171.925	-13.066	0.162	-0.105
-170.910	102.089	-0.110	0.128
-169.896	800.000	-0.024	-0.101
-168.881	428.199	0.048	-0.104
-167.866	-200.000	0.012	-0.226
-166.852	-200.000	0.042	0.288
-165.837	-105.475	-0.280	0.064
-164.823	-125.669	-0.088	0.013
-163.808	-79.564	0.273	0.092
-162.793	332.731	-0.058	-0.112
-161.779	5.310	0.140	0.103
-160.764	150.189	-0.094	0.127
-159.750	-200.000	-0.045	-0.203
-158.735	138.639	-0.045	0.059
-157.720	-200.000	-0.032	0.193
-156.706	-88.298	0.236	-0.071
-155.691	-109.686	0.165	0.035
-154.677	-200.000	0.039	-0.228
-153.662	-200.000	-0.003	0.071
-152.647	-200.000	-0.033	0.190
-151.633	208.842	0.024	0.037
-150.618	43.659	0.051	-0.047
-149.604	139.028	-0.169	0.222
-148.589	614.965	-0.067	-0.168
-147.574	78.276	0.145	0.154
-146.560	166.642	0.166	0.234
-145.545	-49.109	-0.101	0.048
-144.531	-61.852	0.130	0.054
-143.516	-49.873	0.139	0.066
-142.502	-74.862	-0.083	0.030
-141.487	800.000	0.023	0.087
-140.472	82.368	-0.195	0.211
-139.458	-200.000	0.037	-0.282
-138.443	-200.000	0.028	-0.178
-137.429	-89.247	0.121	-0.036
-136.414	-149.387	0.250	0.020
-135.399	121.152	-0.065	-0.081
-134.385	20.748	0.048	0.039
-133.370	83.980	-0.085	-0.092
-132.356	767.935	0.005	0.014
-131.341	63.833	0.220	-0.220
-130.326	-3.146	0.363	0.252
-129.312	28.489	0.232	0.195
-128.297	611.053	0.071	0.178
-127.283	378.297	-0.117	0.238
-126.268	373.984	-0.124	0.252
-125.253	57.005	-0.131	0.127
-124.239	-52.823	0.351	-0.161
-123.224	13.031	-0.153	0.118
-122.210	25.732	-0.098	-0.082
-121.195	-106.190	-0.153	-0.034
-120.180	187.519	0.060	0.089
-119.166	195.219	0.120	-0.181
-118.151	-20.829	0.149	0.091
-117.137	-25.921	0.191	0.112
-116.122	-71.642	-0.160	0.060
-115.107	6.519	0.192	0.142
-114.093	-52.672	0.125	0.057
-113.078	-122.376	0.260	-0.042
-112.064	543.839	-0.046	0.109
-111.049	-50.822	0.145	-0.068
-110.034	340.237	-0.090	0.176
-109.020	9.176	0.137	-0.103
-108.005	-200.000	0.017	-0.295
-106.991	-169.680	-0.152	-0.005
-105.976	800.000	0.101	-0.314
-104.962	800.000	-0.100	-0.349
-103.947	41.321	0.125	-0.113
-102.932	-52.350	0.133	0.061
-101.918	-29.658	-0.177	-0.100
-100.903	800.000	-0.030	0.112
-99.889	202.990	0.075	-0.115
-98.874	-200.000	-0.009	0.111
-97.859	-54.480	0.290	-0.131
-96.845	-5.549	-0.143	0.097
-95.830	-79.586	0.149	-0.050
-94.816	12.072	0.024	-0.019
-93.801	-148.664	0.211	-0.017
-92.786	220.952	0.143	-0.228
-91.772	-200.000	0.011	0.125
-90.757	129.563	-0.118	-0.150
-89.743	686.192	0.094	0.245
-88.728	60.209	-0.124	0.122
-87.713	-19.674	-0.236	-0.145
-86.699	-200.000	-0.030	0.449
-85.684	698.332	0.102	0.267
-84.670	-130.541	0.294	-0.039
-83.655	-110.232	0.201	0.042
-82.640	269.587	-0.064	-0.112
-81.626	-140.804	0.080	-0.008
-80.611	-200.000	-0.043	0.206
-79.597	-66.391	-0.237	-0.094
-78.582	436.979	-0.041	0.088
-77.567	312.963	-0.159	-0.298
-76.553	280.487	0.181	0.322
-75.538	800.000	0.121	0.362
-74.524	800.000	-0.146	-0.440
-73.509	689.843	-0.055	-0.143
-72.494	-200.000	0.018	-0.095
-71.480	800.000	0.029	-0.094
-70.465	-102.145	0.118	-0.028
-69.451	-200.000	0.009	-0.058
-68.436	-200.000	0.006	-0.038
-67.422	141.887	0.152	-0.200
-66.407	-200.000	0.025	-0.169
-65.392	800.000	-0.069	-0.215
-64.378	-200.000	-0.046	-0.315
-63.363	21.902	0.186	-0.151
-62.349	-26.513	0.151	0.088
-61.334	100.030	-0.604	-0.696
-60.319	-200.000	0.015	0.196
-59.305	800.000	0.276	-0.929
-58.290	408.557	0.389	0.818
-57.276	496.286	0.636	1.454
-56.261	-200.000	79.203	508.992
-55.246	560.103	1365.656	3276.600
-54.232	181.539	2603.138	3803.919
-53.217	116.340	2364.217	2877.832
-52.203	48.163	1971.469	1831.256
-51.188	42.391	1755.693	1585.343
-50.173	39.528	1709.912	1521.864
-49.159	53.906	1746.162	1666.364
-48.144	58.474	1764.197	1719.059
-47.130	42.340	1727.059	1558.836
-46.115	39.118	1713.458	1521.605
-45.100	39.001	1708.689	1516.405
-44.086	38.974	1706.443	1514.147
-43.071	39.048	1703.713	1512.233
-42.057	38.994	1701.216	1509.541
-41.042	39.038	1698.659	1507.548
-40.027	39.014	1697.105	1505.925
-39.013	39.029	1694.903	1504.032
-37.998	39.052	1693.451	1502.854
-36.984	39.068	1692.287	1501.887
-35.969	39.184	1690.518	1501.141
-34.954	39.176	1688.376	1499.118
-33.940	39.085	1686.992	1497.136
-32.925	39.136	1684.946	1495.654
-31.911	39.166	1683.493	1494.529
-30.896	39.159	1681.368	1492.533
-29.881	39.053	1679.916	1490.375
-28.867	39.121	1678.033	1489.167
-27.852	39.174	1676.366	1488.028
-26.838	39.258	1674.756	1487.173
-25.823	39.140	1673.762	1485.339
-24.809	39.176	1672.265	1484.222
-23.794	39.219	1670.671	1483.078
-22.779	39.181	1669.331	1481.545
-21.765	39.168	1667.708	1479.942
-20.750	39.015	1666.211	1477.403
-19.736	39.200	1664.596	1477.304
-18.721	39.061	1663.515	1475.245
-17.706	39.158	1661.537	1474.156
-16.692	39.096	1659.772	1472.067
-15.677	39.116	1658.567	1471.093
-14.663	39.118	1657.104	1469.752
-13.648	39.151	1655.598	1468.605
-12.633	39.071	1654.189	1466.702
-11.619	39.070	1652.600	1465.222
-10.604	39.130	1650.553	1463.796
-9.590	39.227	1649.033	1463.115
-8.575	39.165	1648.304	1461.946
-7.560	39.186	1647.225	1461.088
-6.546	39.140	1646.131	1459.721
-5.531	39.063	1645.011	1458.094
-4.517	39.044	1643.177	1456.268
-3.502	39.096	1642.015	1455.569
-2.487	39.131	1640.809	1454.700
-1.473	39.130	1629.798	1444.872
-0.458	36.942	1609.805	1411.185
0.556	31.694	1608.834	1375.105
1.571	28.731	1632.989	1373.508
2.586	27.683	1647.116	1377.361
3.600	24.422	1594.127	1309.050
4.615	14.965	1478.781	1149.554
5.629	6.662	1408.463	1040.247
6.644	5.163	1398.937	1023.300
7.659	4.857	1398.069	1020.566
8.673	4.879	1396.663	1019.592
9.688	4.942	1394.653	1018.448
10.702	4.697	1392.238	1014.994
11.717	8.610	1400.423	1046.508
12.731	16.894	1416.121	1112.736
13.746	20.217	1419.682	1137.259
14.761	18.396	1415.330	1121.761
15.775	17.144	1412.211	1111.004
16.790	15.998	1409.133	1100.997
17.804	15.173	1406.747	1093.651
18.819	14.772	1405.314	1089.829
19.834	14.515	1404.135	1087.141
20.848	14.196	1403.152	1084.204
21.863	13.949	1401.520	1081.244
22.877	13.919	1400.018	1079.790
23.892	13.803	1399.204	1078.313
24.907	13.735	1398.844	1077.503
25.921	13.777	1397.646	1076.755
26.936	13.820	1396.614	1076.144
27.950	13.914	1395.919	1076.122
28.965	13.940	1394.847	1075.366
29.980	13.995	1393.229	1074.382
30.994	14.080	1392.431	1074.220
32.009	14.056	1391.440	1073.205
33.023	14.172	1389.677	1072.499
34.038	14.006	1388.185	1070.182
35.053	14.029	1387.341	1069.588
36.067	13.991	1386.077	1068.271
37.082	14.007	1384.780	1067.285
38.096	14.061	1383.720	1066.718
39.111	14.126	1383.145	1066.594
40.126	13.954	1382.614	1064.992
41.140	13.835	1381.069	1062.941
42.155	13.819	1380.712	1062.474
43.169	13.790	1380.690	1062.172
44.184	13.648	1380.594	1061.100
45.199	13.793	1379.970	1061.455
46.213	13.802	1379.315	1060.915
47.228	13.878	1378.675	1060.813
48.242	13.932	1377.197	1059.926
49.257	13.915	1375.741	1058.606
50.271	13.868	1374.622	1057.346
51.286	13.945	1373.054	1056.537
52.301	13.966	1371.397	1055.303
53.315	13.918	1370.305	1054.065
54.330	13.745	1369.604	1052.338
55.344	13.754	1368.282	1051.284
56.359	13.785	1367.210	1050.562
57.374	13.677	1366.523	1049.257
58.388	13.698	1365.133	1048.233
59.403	13.759	1364.740	1048.223
60.417	13.691	1364.091	1047.201
61.432	13.630	1363.515	1046.280
62.447	13.564	1362.469	1044.970
63.461	13.638	1360.869	1044.120
64.476	13.607	1360.302	1043.394
65.490	13.550	1359.041	1041.975
66.505	13.646	1357.242	1041.107
67.520	13.594	1355.748	1039.542
68.534	13.678	1354.899	1039.325
69.549	13.674	1353.996	1038.518
70.563	13.617	1353.124	1037.401
71.578	13.591	1351.658	1036.025
72.593	13.516	1350.667	1034.703
73.607	13.484	1349.916	1033.836
74.622	13.575	1348.870	1033.509
75.636	13.519	1348.827	1033.035
76.651	13.470	1348.651	1032.507
77.666	13.561	1347.363	1031.995
78.680	13.561	1347.105	1031.707
79.695	13.595	1346.047	1031.018
80.709	13.659	1345.259	1030.720
81.724	13.732	1344.651	1030.618
82.739	13.681	1343.763	1029.526
83.753	13.790	1342.867	1029.427
84.768	13.963	1341.524	1029.378
85.782	13.922	1340.861	1028.526
86.797	13.977	1339.376	1027.633
87.812	14.037	1337.321	1026.339
88.826	13.932	1336.573	1025.020
89.841	13.885	1335.783	1024.035
90.855	13.999	1334.961	1024.022
91.870	13.996	1333.996	1023.172
92.884	14.003	1333.515	1022.754
93.899	13.912	1333.003	1021.708
94.914	13.966	1331.723	1020.973
95.928	14.097	1330.684	1020.885
96.943	13.985	1329.495	1019.196
97.957	13.937	1328.633	1018.151
98.972	13.965	1327.949	1017.713
99.987	13.957	1326.736	1016.640
101.001	14.018	1325.467	1015.951
102.016	13.946	1324.506	1014.687
103.030	13.988	1323.881	1014.377
104.045	14.039	1323.225	1014.092
105.060	13.917	1321.775	1012.147
106.074	13.788	1320.281	1010.130
107.089	13.766	1318.937	1008.880
108.103	13.577	1317.886	1006.836
109.118	13.681	1316.347	1006.201
110.133	13.725	1314.721	1005.138
111.147	13.726	1313.767	1004.328
112.162	13.812	1311.933	1003.353
113.176	13.726	1311.445	1002.370
114.191	13.884	1310.156	1002.251
115.206	13.780	1309.323	1000.901
116.220	13.737	1307.829	999.411
117.235	13.791	1306.578	998.689
118.249	13.810	1305.768	998.098
119.264	13.797	1304.340	996.837
120.279	13.718	1303.321	995.500
121.293	13.761	1302.262	994.862
122.308	13.659	1300.933	993.146
123.322	13.677	1300.433	992.786
124.337	13.674	1299.317	991.824
125.352	13.640	1298.119	990.622
126.366	13.618	1296.847	989.428
127.381	13.764	1295.698	989.334
128.395	13.701	1294.688	988.104
129.410	13.724	1294.099	987.703
130.424	13.728	1293.080	986.864
131.439	13.759	1292.028	986.154
132.454	13.800	1291.023	985.548
133.468	13.812	1290.250	984.940
134.483	13.849	1289.780	984.710
135.497	13.845	1288.849	983.893
136.512	13.932	1287.048	982.941
137.527	13.820	1286.083	981.455
138.541	13.887	1284.547	980.594
139.556	13.938	1283.069	979.681
140.570	14.007	1282.178	979.320
141.585	13.936	1281.239	978.096
142.600	14.013	1280.073	977.572
143.614	13.960	1279.561	976.783
144.629	14.138	1278.003	976.557
145.643	14.069	1276.815	975.153
146.658	14.066	1275.369	973.947
147.673	13.954	1273.862	972.054
148.687	13.936	1272.853	971.093
149.702	13.932	1271.418	969.892
150.716	13.883	1270.089	968.507
151.731	13.801	1269.130	967.207
152.746	13.878	1267.754	966.526
153.760	13.962	1266.286	965.804
154.775	14.018	1265.278	965.280
155.789	14.072	1264.614	964.999
156.804	14.045	1263.454	963.875
157.819	13.930	1263.212	962.935
158.833	14.125	1261.631	962.777
159.848	14.168	1260.544	962.107
160.862	14.177	1259.315	961.136
161.877	14.064	1258.446	959.737
162.892	13.970	1257.035	958.033
163.906	13.974	1256.282	957.398
164.921	13.975	1255.425	956.664
165.935	14.010	1254.541	956.111
166.950	14.028	1253.976	955.696
167.964	14.169	1252.957	955.649
168.979	14.038	1252.301	954.312
169.994	14.017	1251.676	953.626
171.008	14.212	1250.431	953.715
172.023	14.219	1249.963	953.314
173.037	14.195	1249.277	952.568
174.052	14.208	1248.088	951.647
175.067	14.184	1247.202	950.753
176.081	14.061	1246.063	949.098
177.096	14.050	1245.646	948.636
178.110	14.055	1244.257	947.521
179.125	14.177	1242.848	947.060
180.140	14.120	1241.716	945.790
181.154	14.151	1240.669	945.082
182.169	14.222	1238.874	944.037
183.183	14.241	1238.383	943.685
184.198	14.289	1236.837	942.694
185.213	14.251	1235.751	941.567
186.227	14.364	1234.456	941.137
187.242	14.353	1233.259	940.078
188.256	14.392	1232.571	939.691
189.271	14.439	1231.755	939.250
190.286	14.309	1230.202	937.255
191.300	14.024	1229.737	935.210
192.315	13.991	1228.896	934.307
193.329	14.075	1228.023	934.028
194.344	14.088	1227.840	933.882
195.359	14.218	1227.002	933.891
196.373	14.304	1226.668	934.036
197.388	14.399	1226.049	934.015
198.402	14.533	1225.477	934.245
199.417	14.584	1224.676	933.836
200.432	14.606	1223.552	933.021
201.446	14.583	1223.011	932.400
202.461	14.708	1222.071	932.295
203.475	14.609	1221.491	931.218
204.490	14.653	1219.672	929.998
205.504	14.576	1218.430	928.536
206.519	14.486	1217.706	927.403
207.534	14.465	1216.653	926.405
208.548	14.527	1215.457	925.755
209.563	14.512	1214.763	925.064
210.577	14.611	1213.568	924.619
211.592	14.555	1212.892	923.709
212.607	14.669	1211.930	923.525
213.621	14.695	1211.218	923.045
214.636	14.661	1210.380	922.136
215.650	14.580	1209.626	921.035
216.665	14.671	1208.452	920.561
217.680	14.821	1207.588	920.650
218.694	14.782	1206.531	919.546
219.709	14.841	1205.797	919.232
220.723	14.806	1205.184	918.487
221.738	14.763	1204.732	917.827
222.753	14.760	1203.808	917.028
223.767	14.810	1202.989	916.594
224.782	14.911	1202.177	916.448
225.796	14.873	1201.943	915.980
226.811	14.966	1200.484	915.297
227.826	14.947	1199.908	914.674
228.840	14.927	1199.470	914.149
229.855	14.891	1198.228	912.926
230.869	14.907	1197.416	912.314
231.884	14.937	1196.624	911.793
232.899	14.885	1196.019	910.967
233.913	14.851	1195.125	910.022
234.928	14.863	1194.396	909.447
235.942	14.866	1193.051	908.364
236.957	14.818	1192.741	907.783
237.972	14.842	1192.234	907.449
238.986	14.846	1191.533	906.858
240.001	14.845	1191.003	906.365
241.015	14.895	1189.890	905.713
242.030	14.916	1189.165	905.193
243.045	14.978	1188.439	904.897
244.059	15.012	1187.639	904.392
245.074	15.073	1186.258	903.588
246.088	14.978	1185.863	902.696
247.103	15.107	1185.161	902.776
248.117	15.201	1184.523	902.715
249.132	15.264	1183.695	902.343
250.147	15.255	1183.565	902.115
251.161	15.388	1182.183	901.697
252.176	15.343	1181.398	900.780
253.190	15.517	1180.861	901.222
254.205	15.509	1180.507	900.829
255.220	15.404	1180.319	900.045
256.234	15.613	1178.968	900.051
257.249	15.502	1178.040	898.669
258.263	15.491	1177.630	898.220
259.278	15.441	1177.084	897.459
260.293	15.425	1177.050	897.264
261.307	15.612	1175.552	897.044
262.322	15.573	1175.015	896.348
263.336	15.637	1174.414	896.148
264.351	15.629	1173.911	895.645
265.366	15.656	1173.000	895.015
266.380	15.572	1172.880	894.392
267.395	15.649	1171.718	893.840
268.409	15.570	1170.519	892.428
269.424	15.599	1170.225	892.278
270.439	15.602	1170.014	892.053
271.453	15.479	1169.307	890.781
272.468	15.584	1168.197	890.413
273.482	15.596	1166.975	889.469
274.497	15.550	1166.533	888.810
275.512	15.604	1165.817	888.469
276.526	15.618	1164.961	887.816
277.541	15.647	1164.477	887.520
278.555	15.545	1163.914	886.472
279.570	15.737	1163.216	886.873
280.585	15.801	1162.350	886.472
281.599	15.762	1161.332	885.413
282.614	15.731	1160.460	884.508
283.628	15.702	1159.195	883.312
284.643	15.624	1158.281	882.129
285.657	15.793	1157.167	882.088
286.672	15.720	1156.466	881.092
287.687	15.825	1155.299	880.675
288.701	15.652	1154.952	879.428
289.716	15.800	1153.954	879.365
290.730	15.731	1153.136	878.301
291.745	15.799	1152.675	878.227
292.760	15.840	1151.934	877.800
293.774	15.861	1151.606	877.582
294.789	15.967	1151.025	877.616
295.803	15.990	1150.198	877.025
296.818	15.932	1149.185	875.874
297.833	15.968	1148.380	875.369
298.847	15.903	1147.578	874.343
299.862	15.821	1147.157	873.521
300.876	15.885	1146.415	873.212
301.891	16.010	1145.246	872.889
302.906	16.049	1144.828	872.695
303.920	16.161	1144.223	872.735
304.935	16.219	1143.719	872.574
305.949	16.240	1142.762	871.877
306.964	16.255	1142.253	871.487
307.979	16.276	1141.075	870.623
308.993	16.200	1140.593	869.783
310.008	16.254	1139.730	869.329
311.022	16.219	1139.099	868.587
312.037	16.250	1138.368	868.115
313.052	16.243	1136.882	866.870
314.066	16.171	1136.252	865.940
315.081	16.149	1135.512	865.186
316.095	16.018	1134.975	864.028
317.110	16.032	1134.473	863.645
318.125	16.070	1133.551	863.062
319.139	16.155	1132.692	862.762
320.154	16.092	1132.011	861.849
321.168	16.091	1131.512	861.384
322.183	16.174	1130.813	861.203
323.197	16.137	1130.216	860.482
324.212	16.293	1129.430	860.603
325.227	16.177	1129.210	859.766
326.241	16.330	1128.189	859.695
327.256	16.202	1127.422	858.379
328.270	16.331	1126.445	858.217
329.285	16.142	1125.808	856.697
330.300	16.245	1124.646	856.260
331.314	16.315	1123.596	855.737
332.329	16.331	1122.909	855.218
333.343	16.371	1121.810	854.508
334.358	16.477	1120.915	854.289
335.373	16.445	1120.360	853.626
336.387	16.490	1119.358	853.014
337.402	16.494	1118.750	852.497
338.416	16.545	1118.234	852.285
339.431	16.503	1117.645	851.553
340.446	16.516	1117.038	851.077
341.460	16.493	1116.609	850.561
342.475	16.671	1114.944	850.110
343.489	16.668	1114.686	849.822
344.504	16.733	1113.359	849.061
345.519	16.739	1112.647	848.477
346.533	16.761	1112.197	848.165
347.548	16.847	1111.055	847.651
348.562	16.708	1110.311	846.315
349.577	16.735	1109.316	845.615
350.592	16.659	1108.823	844.784
351.606	16.594	1108.068	843.811
352.621	16.709	1107.100	843.573
353.635	16.612	1106.643	842.663
354.650	16.738	1105.659	842.467
355.665	16.720	1104.982	841.788
356.679	16.879	1104.503	842.140
357.694	16.799	1103.759	841.103
358.708	16.835	1103.455	840.972
359.723	16.770	1102.895	840.150
360.738	16.812	1102.006	839.606
361.752	16.823	1101.566	839.249
362.767	16.814	1100.914	838.634
363.781	16.790	1100.486	838.118
364.796	16.819	1099.952	837.777
365.810	16.969	1099.325	837.970
366.825	16.961	1098.413	837.158
367.840	17.087	1098.092	837.464
368.854	17.092	1097.604	837.039
369.869	17.155	1096.755	836.630
370.883	17.122	1095.777	835.645
371.898	17.113	1094.881	834.847
372.913	17.048	1094.398	834.083
373.927	17.018	1094.091	833.627
374.942	17.044	1093.691	833.379
375.956	17.151	1092.832	833.174
376.971	17.148	1092.309	832.688
377.986	17.262	1091.215	832.336
379.000	17.258	1091.203	832.238
380.015	17.251	1090.640	831.697
381.029	17.387	1089.777	831.630
382.044	17.360	1089.217	830.997
383.059	17.311	1088.489	830.131
384.073	17.380	1087.625	829.736
385.088	17.383	1086.844	829.080
386.102	17.351	1085.831	828.077
387.117	17.392	1084.546	827.225
388.132	17.207	1083.483	825.440
389.146	17.219	1083.181	825.199
390.161	17.317	1082.279	824.912
391.175	17.177	1081.534	823.595
392.190	17.306	1080.951	823.701
393.205	17.423	1080.266	823.674
394.219	17.371	1079.667	822.894
395.234	17.368	1078.598	821.988
396.248	17.329	1077.645	821.005
397.263	17.365	1076.514	820.240
398.278	17.334	1075.955	819.594
399.292	17.249	1075.093	818.457
400.307	17.246	1074.220	817.704
401.321	17.385	1073.749	817.940
402.336	17.251	1073.320	816.897
403.350	17.345	1072.284	816.488
404.365	17.384	1071.867	816.288
405.380	17.355	1070.872	815.316
406.394	17.421	1070.114	814.983
407.409	17.490	1069.387	814.688
408.423	17.575	1068.820	814.591
409.438	17.688	1068.116	814.525
410.453	17.631	1067.534	813.732
411.467	17.801	1066.510	813.694
412.482	17.726	1065.820	812.737
413.496	17.723	1065.073	812.079
414.511	17.769	1065.037	812.203
415.526	17.817	1064.586	812.014
416.540	17.795	1064.312	811.625
417.555	17.983	1063.220	811.617
418.569	17.819	1062.542	810.249
419.584	17.864	1062.480	810.343
420.599	17.910	1061.627	809.839
421.613	139.586	1392.827	1756.152
422.628	128.264	1441.111	1756.295
