DTS Sentinel unit serial number:	SN413079Multiplexer serial number:	ORYXHardware model number:	OX4-SRSoftware version number:	ORYX F/W v4.00 Oryx Data Collector v3.7.2.0data status	okinstallation	princeton_trtdifferential loss correction	single-endedforward channel	channel 2reverse channel	N/Adate	2019/09/16time	19:55:34forward acquisition time	60.00reverse acquisition time	0.00gamma	496.2192k internal	0.2326k external	0.2326temperature offset calibration	0.9965default loss term (dB/km)	0.3790temperature slope calibration	1.0000multiplexer offset coefficient	1.0000multiplexer slope coefficient	1.0000fibre end	0.00T internal ref (°C)	33.56T ext. ref 1 (°C)	0.09T ext. ref 2 (°C)	26.68length (m)	temperature (°C)	Stokes	anti-Stokes-747.200	45.269	0.199	0.185
-746.185	-200.000	-0.042	0.326
-745.171	-59.064	-0.088	0.038
-744.156	-104.459	-0.435	-0.102
-743.142	476.027	0.079	0.181
-742.127	-14.904	0.078	-0.051
-741.112	-113.485	0.395	0.078
-740.098	-43.973	-0.203	0.103
-739.083	-1.384	0.221	0.158
-738.069	-200.000	-0.029	0.349
-737.054	-46.905	0.239	-0.118
-736.039	30.473	-0.242	0.209
-735.025	-138.477	-0.202	-0.022
-734.010	-11.968	-0.219	-0.145
-732.996	254.761	0.045	0.077
-731.981	190.332	0.237	-0.358
-730.966	-200.000	-0.024	0.158
-729.952	116.630	-0.062	-0.076
-728.937	98.686	0.179	-0.208
-727.923	-200.000	0.015	-0.081
-726.908	78.848	-0.278	0.299
-725.894	-200.000	-0.001	-0.006
-724.879	-200.000	-0.043	0.447
-723.864	800.000	0.053	0.166
-722.850	-200.000	-0.055	-0.271
-721.835	800.000	-0.116	-0.346
-720.821	800.000	0.072	0.206
-719.806	344.881	0.126	0.248
-718.791	245.611	0.224	-0.380
-717.777	30.578	-0.095	0.082
-716.762	51.554	-0.161	0.154
-715.748	27.345	-0.208	0.176
-714.733	-200.000	0.005	-0.110
-713.718	171.338	-0.174	0.251
-712.704	84.475	0.098	-0.107
-711.689	242.177	-0.035	-0.059
-710.675	654.410	-0.096	0.248
-709.660	707.199	-0.076	-0.202
-708.645	-62.336	-0.270	-0.113
-707.631	149.523	-0.073	0.100
-706.616	-188.946	-0.210	0.003
-705.602	196.346	-0.078	0.119
-704.587	138.485	-0.024	0.032
-703.572	-83.655	-0.405	0.130
-702.558	800.000	0.063	-0.228
-701.543	260.284	0.099	-0.172
-700.529	-137.367	0.397	-0.045
-699.514	261.512	0.127	-0.221
-698.499	-117.423	0.071	0.013
-697.485	-17.712	-0.169	0.107
-696.470	90.768	-0.302	-0.340
-695.456	499.607	0.093	-0.215
-694.441	116.712	-0.109	0.135
-693.426	51.966	-0.080	-0.077
-692.412	320.528	0.003	-0.005
-691.397	44.424	-0.281	0.260
-690.383	-200.000	-0.404	0.001
-689.368	15.126	-0.404	-0.319
-688.354	701.102	-0.146	-0.387
-687.339	-101.883	-0.383	-0.093
-686.324	-31.810	-0.241	0.136
-685.310	-75.497	0.305	-0.109
-684.295	-156.463	-0.268	0.017
-683.281	-64.487	-0.367	-0.150
-682.266	800.000	-0.012	-0.037
-681.251	-200.000	-0.020	-0.321
-680.237	326.869	-0.089	0.172
-679.222	-76.957	-0.254	-0.089
-678.208	-6.153	-0.222	0.152
-677.193	-14.298	-0.132	0.086
-676.178	342.132	-0.052	0.103
-675.164	-200.000	0.004	0.030
-674.149	-76.636	-0.159	0.056
-673.135	-200.000	0.010	-0.260
-672.120	79.350	0.154	-0.166
-671.105	194.741	0.094	0.143
-670.091	-200.000	-0.016	0.079
-669.076	-30.774	0.341	0.194
-668.062	-200.000	0.041	-0.342
-667.047	32.231	-0.033	0.029
-666.032	-99.680	-0.234	0.059
-665.018	-10.920	-0.196	0.130
-664.003	-200.000	0.027	0.186
-662.989	800.000	0.102	0.349
-661.974	298.654	0.091	0.168
-660.959	-200.000	-0.001	0.005
-659.945	-16.909	0.188	0.119
-658.930	-150.769	-0.221	-0.017
-657.916	-200.000	-0.027	-0.544
-656.901	-73.874	-0.240	0.088
-655.886	-101.413	-0.474	-0.116
-654.872	69.169	-0.118	-0.122
-653.857	176.706	0.177	-0.259
-652.843	-39.810	0.154	-0.081
-651.828	30.364	0.229	-0.197
-650.814	-4.944	-0.025	-0.017
-649.799	-200.000	0.012	0.264
-648.784	94.871	0.097	0.111
-647.770	-20.222	-0.155	0.096
-646.755	-200.000	0.016	-0.075
-645.741	-200.000	-0.009	-0.324
-644.726	1.438	-0.102	-0.073
-643.711	-112.789	0.094	-0.019
-642.697	-200.000	-0.011	-0.065
-641.682	219.252	0.105	-0.168
-640.668	258.691	0.166	-0.288
-639.653	24.800	-0.029	0.024
-638.638	800.000	0.063	-0.260
-637.624	99.300	-0.185	0.215
-636.609	-200.000	-0.008	0.095
-635.595	-100.065	0.053	-0.013
-634.580	-75.213	-0.263	-0.094
-633.565	-72.007	-0.303	-0.113
-632.551	-10.332	0.056	0.037
-631.536	-98.139	0.114	-0.029
-630.522	800.000	-0.026	0.102
-629.507	197.298	0.087	0.133
-628.492	137.612	-0.025	0.033
-627.478	-200.000	0.030	-0.216
-626.463	-65.083	-0.156	-0.063
-625.449	-200.000	0.043	-0.379
-624.434	-40.076	0.063	0.033
-623.419	-200.000	-0.021	0.116
-622.405	59.036	0.183	-0.181
-621.390	-69.608	-0.244	0.094
-620.376	24.201	0.290	0.240
-619.361	125.935	0.142	-0.180
-618.346	-98.376	-0.067	0.017
-617.332	800.000	0.096	-0.280
-616.317	800.000	-0.083	0.313
-615.303	398.029	-0.052	0.108
-614.288	-101.287	0.047	0.011
-613.273	-21.297	0.090	0.055
-612.259	-73.530	0.158	-0.058
-611.244	76.107	-0.089	0.094
-610.230	-200.000	0.015	-0.245
-609.215	182.969	-0.072	-0.107
-608.201	781.697	-0.059	-0.162
-607.186	-79.321	-0.195	0.066
-606.171	46.885	0.161	-0.150
-605.157	61.123	-0.208	-0.207
-604.142	-200.000	0.010	-0.121
-603.128	-88.553	0.166	0.050
-602.113	800.000	-0.064	-0.233
-601.098	-200.000	0.014	0.064
-600.084	21.188	-0.249	-0.203
-599.069	-141.462	0.060	-0.006
-598.055	800.000	0.036	-0.141
-597.040	-34.832	-0.193	-0.106
-596.025	-157.007	-0.311	0.019
-595.011	244.715	0.019	-0.031
-593.996	61.085	-0.049	0.049
-592.982	-65.699	-0.105	-0.042
-591.967	177.107	-0.051	0.074
-590.952	44.283	-0.087	0.080
-589.938	16.854	-0.165	0.131
-588.923	188.435	0.114	0.171
-587.909	-33.818	-0.319	-0.176
-586.894	158.908	-0.156	0.217
-585.879	-11.871	0.266	0.175
-584.865	71.432	-0.044	0.045
-583.850	800.000	0.023	-0.075
-582.836	4.095	0.162	0.119
-581.821	222.187	-0.025	0.040
-580.806	-200.000	0.009	-0.130
-579.792	-113.534	-0.322	0.063
-578.777	406.627	-0.067	-0.141
-577.763	-200.000	0.014	-0.126
-576.748	-181.824	-0.145	-0.003
-575.733	-63.575	0.091	-0.037
-574.719	38.251	0.122	-0.109
-573.704	-65.778	0.104	-0.042
-572.690	-30.444	0.176	0.100
-571.675	-200.000	-0.004	0.021
-570.661	-49.878	0.173	0.082
-569.646	-91.140	-0.108	-0.031
-568.631	-27.934	0.109	-0.063
-567.617	736.695	0.138	0.371
-566.602	-42.795	-0.361	0.184
-565.588	-122.574	-0.125	-0.020
-564.573	-200.000	0.009	-0.117
-563.558	-200.000	-0.073	-0.547
-562.544	-200.000	-0.028	-0.133
-561.529	32.147	-0.203	-0.175
-560.515	209.010	-0.255	-0.399
-559.500	-130.191	0.187	-0.025
-558.485	-200.000	-0.012	-0.085
-557.471	-200.000	-0.079	-0.397
-556.456	-200.000	0.024	0.140
-555.442	-101.285	0.283	0.069
-554.427	386.394	-0.044	-0.092
-553.412	-200.000	-0.005	0.293
-552.398	800.000	-0.079	-0.231
-551.383	-63.824	-0.209	-0.086
-550.369	-121.361	0.138	-0.023
-549.354	51.967	0.090	-0.086
-548.339	186.327	-0.108	0.160
-547.325	130.273	0.039	0.050
-546.310	-140.087	0.338	0.036
-545.296	70.307	0.063	0.065
-544.281	131.125	0.109	0.140
-543.266	-131.732	-0.537	0.071
-542.252	196.124	-0.296	0.451
-541.237	378.932	-0.097	0.198
-540.223	21.357	-0.177	0.144
-539.208	-38.181	-0.112	0.059
-538.193	-19.055	0.096	-0.060
-537.179	-66.075	-0.238	-0.095
-536.164	1.907	-0.225	-0.162
-535.150	-17.642	-0.322	0.203
-534.135	45.137	0.181	0.167
-533.121	800.000	0.118	-0.419
-532.106	-50.743	0.114	-0.054
-531.091	-52.898	-0.310	-0.143
-530.077	-80.292	0.215	-0.072
-529.062	67.845	0.155	-0.158
-528.048	-53.527	-0.389	-0.178
-527.033	80.675	0.092	-0.100
-526.018	241.906	-0.170	0.284
-525.004	280.661	-0.083	0.149
-523.989	-184.938	0.054	-0.001
-522.975	-58.070	-0.178	0.077
-521.960	-200.000	-0.056	-0.247
-520.945	7.276	0.073	-0.055
-519.931	672.875	-0.074	-0.191
-518.916	244.491	0.131	0.220
-517.902	-150.203	0.055	-0.004
-516.887	-200.000	0.021	-0.334
-515.872	800.000	0.168	-0.600
-514.858	-200.000	-0.004	0.182
-513.843	-26.862	-0.319	-0.186
-512.829	-126.550	-0.399	0.059
-511.814	-64.794	0.236	0.095
-510.799	-67.603	0.188	0.074
-509.785	528.533	-0.100	-0.236
-508.770	419.691	-0.110	0.236
-507.756	-133.945	0.149	-0.019
-506.741	-168.866	-0.275	-0.010
-505.726	96.946	-0.127	-0.145
-504.712	583.446	-0.023	0.057
-503.697	-56.695	0.249	-0.110
-502.683	800.000	0.020	0.063
-501.668	171.442	-0.095	0.136
-500.653	273.789	-0.043	-0.077
-499.639	617.510	-0.038	0.096
-498.624	-179.637	0.208	0.005
-497.610	-52.627	0.037	-0.017
-496.595	-153.337	-0.349	-0.024
-495.581	336.403	-0.155	-0.301
-494.566	349.671	-0.095	0.188
-493.551	181.115	-0.132	0.194
-492.537	115.822	0.198	0.242
-491.522	598.679	0.113	0.280
-490.508	-155.888	0.113	-0.007
-489.493	-53.191	0.134	0.061
-488.478	113.808	0.086	-0.105
-487.464	-200.000	-0.012	-0.073
-486.449	24.300	0.260	-0.214
-485.435	158.808	-0.193	-0.268
-484.420	-38.885	0.208	0.109
-483.405	22.941	0.015	-0.012
-482.391	-200.000	-0.004	0.098
-481.376	-88.913	0.273	0.081
-480.362	89.566	0.174	-0.194
-479.347	-118.076	0.087	0.015
-478.332	202.513	0.096	0.148
-477.318	-19.660	0.112	0.069
-476.303	-159.937	0.086	-0.005
-475.289	-14.394	-0.059	0.038
-474.274	-185.790	-0.125	-0.002
-473.259	-22.252	-0.381	-0.230
-472.245	-48.474	-0.316	-0.152
-471.230	-200.000	-0.047	0.283
-470.216	99.491	-0.148	-0.170
-469.201	36.525	-0.116	-0.102
-468.186	-23.690	-0.262	-0.157
-467.172	628.369	0.032	0.082
-466.157	-21.041	0.222	-0.135
-465.143	-200.000	-0.022	-0.144
-464.128	-119.090	-0.037	0.006
-463.113	800.000	0.132	0.420
-462.099	349.413	0.120	0.237
-461.084	574.738	0.046	-0.112
-460.070	-137.894	0.182	-0.020
-459.055	800.000	-0.017	-0.055
-458.040	-3.385	-0.328	-0.228
-457.026	-200.000	0.012	-0.146
-456.011	-98.229	-0.369	0.095
-454.997	-200.000	0.008	-0.061
-453.982	-200.000	0.014	-0.277
-452.968	27.950	-0.147	-0.123
-451.953	-200.000	0.044	0.288
-450.938	-102.026	0.262	0.063
-449.924	-103.210	-0.233	0.055
-448.909	218.964	0.042	0.068
-447.895	800.000	0.061	0.177
-446.880	-200.000	-0.013	-0.258
-445.865	239.860	0.085	0.140
-444.851	-81.508	0.253	0.083
-443.836	-68.552	0.255	0.099
-442.822	768.364	0.076	-0.207
-441.807	317.297	-0.020	0.037
-440.792	800.000	-0.022	0.080
-439.778	-56.484	0.647	0.286
-438.763	157.797	-0.038	-0.052
-437.749	7.143	-0.236	-0.176
-436.734	45.116	0.073	0.067
-435.719	-200.000	0.038	0.301
-434.705	-200.000	0.074	0.350
-433.690	-200.000	-0.012	0.080
-432.676	-200.000	0.049	0.262
-431.661	310.375	-0.215	-0.400
-430.646	-149.824	0.091	-0.007
-429.632	-200.000	-0.000	-0.312
-428.617	115.401	0.156	-0.190
-427.603	-47.584	-0.114	0.055
-426.588	635.158	0.065	0.166
-425.573	-38.325	-0.241	-0.127
-424.559	187.745	-0.152	0.225
-423.544	-133.611	0.248	-0.031
-422.530	288.942	-0.160	-0.289
-421.515	-200.000	-0.003	0.044
-420.500	800.000	0.064	0.224
-419.486	71.168	-0.198	0.204
-418.471	800.000	-0.131	0.372
-417.457	-89.629	0.472	-0.138
-416.442	71.288	-0.078	-0.081
-415.428	-79.975	0.165	0.055
-414.413	584.512	0.057	-0.140
-413.398	776.562	-0.081	0.220
-412.384	-142.686	0.066	0.006
-411.369	317.079	-0.172	-0.324
-410.355	11.285	0.197	0.150
-409.340	-200.000	-0.027	-0.140
-408.325	27.010	0.112	-0.094
-407.311	155.979	0.073	0.100
-406.296	-49.571	0.126	0.060
-405.282	-200.000	-0.000	0.104
-404.267	800.000	-0.025	0.102
-403.252	-66.842	0.242	0.095
-402.238	-200.000	-0.004	0.302
-401.223	108.496	0.246	0.292
-400.209	-200.000	0.012	0.413
-399.194	-34.203	0.218	0.119
-398.179	-3.158	0.164	-0.114
-397.165	-94.951	-0.205	-0.055
-396.150	-200.000	0.017	-0.133
-395.136	800.000	-0.081	-0.230
-394.121	-200.000	0.062	0.334
-393.106	143.039	0.112	-0.149
-392.092	661.194	0.205	-0.525
-391.077	-200.000	0.026	0.219
-390.063	800.000	0.022	-0.068
-389.048	-31.160	0.152	0.085
-388.033	24.096	0.148	-0.122
-387.019	139.192	-0.137	-0.179
-386.004	116.699	-0.108	-0.132
-384.990	70.768	-0.104	-0.107
-383.975	-59.344	0.046	-0.020
-382.960	185.164	-0.167	0.247
-381.946	13.875	0.072	0.055
-380.931	-200.000	0.007	0.317
-379.917	413.183	-0.036	0.076
-378.902	-108.367	0.134	0.029
-377.888	64.590	-0.215	-0.216
-376.873	234.464	0.140	0.230
-375.858	-200.000	0.018	0.200
-374.844	800.000	-0.058	0.244
-373.829	780.861	0.067	0.183
-372.815	125.865	-0.080	-0.100
-371.800	-95.945	-0.212	0.056
-370.785	101.094	0.124	-0.143
-369.771	453.225	-0.121	-0.265
-368.756	-101.517	0.147	-0.036
-367.742	-200.000	0.007	-0.305
-366.727	-77.092	-0.091	0.032
-365.712	-29.289	-0.169	0.096
-364.698	-43.799	0.190	0.095
-363.683	300.491	0.067	-0.123
-362.669	167.124	0.201	0.283
-361.654	-106.305	0.317	0.070
-360.639	800.000	-0.026	0.102
-359.625	307.991	0.027	0.051
-358.610	0.671	-0.169	-0.120
-357.596	-41.144	-0.304	-0.156
-356.581	8.497	-0.219	0.164
-355.566	-200.000	0.037	0.297
-354.552	110.327	0.242	0.289
-353.537	663.079	-0.107	-0.274
-352.523	-200.000	0.060	0.294
-351.508	239.946	0.079	0.131
-350.493	800.000	-0.030	-0.092
-349.479	-65.556	-0.093	0.037
-348.464	-200.000	0.005	0.096
-347.450	677.837	0.025	0.066
-346.435	-151.513	0.337	0.025
-345.420	-186.558	-0.218	-0.003
-344.406	-200.000	-0.014	-0.233
-343.391	-200.000	0.069	0.317
-342.377	379.582	-0.024	0.049
-341.362	-53.993	-0.119	-0.054
-340.348	-96.235	-0.162	0.043
-339.333	-46.874	-0.050	0.024
-338.318	183.760	-0.083	-0.122
-337.304	-200.000	-0.001	0.025
-336.289	9.299	-0.055	0.041
-335.275	-162.579	-0.349	0.017
-334.260	-200.000	0.013	0.174
-333.245	231.307	-0.080	-0.130
-332.231	-200.000	0.016	0.113
-331.216	-155.514	-0.206	-0.013
-330.202	-56.732	-0.164	-0.072
-329.187	278.669	-0.060	-0.106
-328.172	-158.193	0.244	-0.014
-327.158	800.000	0.032	-0.122
-326.143	531.177	0.075	0.176
-325.129	694.397	-0.127	0.329
-324.114	229.051	-0.044	-0.071
-323.099	-56.006	0.234	0.104
-322.085	6.906	-0.523	0.387
-321.070	95.391	0.132	-0.149
-320.056	-200.000	-0.006	0.220
-319.041	187.025	-0.091	0.135
-318.026	800.000	-0.049	0.160
-317.012	800.000	0.097	-0.357
-315.997	-53.866	0.194	0.088
-314.983	37.227	-0.144	0.127
-313.968	800.000	-0.027	0.094
-312.953	-28.324	-0.127	0.073
-311.939	-140.520	0.453	-0.047
-310.924	47.267	0.189	0.174
-309.910	-24.992	0.227	-0.134
-308.895	-93.424	-0.201	-0.055
-307.880	-84.423	-0.179	-0.056
-306.866	-118.608	0.317	0.055
-305.851	-134.874	0.085	0.010
-304.837	53.817	-0.168	0.160
-303.822	-74.191	0.271	-0.097
-302.807	800.000	0.078	-0.318
-301.793	800.000	-0.074	0.264
-300.778	-68.695	0.175	-0.067
-299.764	-200.000	-0.010	0.184
-298.749	74.126	-0.196	-0.204
-297.735	75.382	0.206	-0.215
-296.720	542.732	0.125	-0.295
-295.705	800.000	-0.075	-0.268
-294.691	72.845	-0.093	0.097
-293.676	-103.452	-0.180	-0.042
-292.662	-152.747	-0.234	0.016
-291.647	800.000	0.022	0.070
-290.632	274.008	-0.020	0.035
-289.618	-200.000	-0.044	-0.349
-288.603	-200.000	0.023	0.144
-287.589	-171.231	0.269	-0.009
-286.574	-61.460	-0.127	-0.053
-285.559	-166.536	-0.224	0.009
-284.545	291.950	-0.208	-0.375
-283.530	141.694	0.107	-0.140
-282.516	800.000	0.037	-0.135
-281.501	-179.077	0.217	0.005
-280.486	36.722	0.190	-0.166
-279.472	-15.860	-0.223	-0.141
-278.457	-58.041	0.364	-0.157
-277.443	632.203	-0.040	-0.099
-276.428	-63.327	-0.103	0.042
-275.413	6.398	-0.203	-0.149
-274.399	-200.000	-0.047	0.238
-273.384	-128.141	0.070	0.010
-272.370	546.873	-0.037	0.087
-271.355	353.897	-0.055	0.107
-270.340	-200.000	-0.026	0.123
-269.326	-21.447	0.262	-0.158
-268.311	-137.103	-0.279	-0.032
-267.297	340.437	-0.110	-0.212
-266.282	-98.775	0.215	-0.054
-265.267	510.592	0.161	0.371
-264.253	-200.000	-0.015	-0.275
-263.238	-94.604	0.430	-0.116
-262.224	67.681	0.266	-0.269
-261.209	-134.445	-0.060	0.007
-260.195	79.389	-0.283	0.300
-259.180	-200.000	-0.015	0.172
-258.165	-125.281	0.430	0.065
-257.151	-142.182	-0.182	0.018
-256.136	168.975	0.096	0.136
-255.122	-130.848	0.242	0.032
-254.107	800.000	0.096	0.357
-253.092	-200.000	0.011	0.082
-252.078	-134.332	-0.351	0.043
-251.063	-129.799	0.031	0.004
-250.049	-200.000	0.019	0.128
-249.034	800.000	-0.045	-0.191
-248.019	271.371	0.114	0.199
-247.005	-115.992	-0.181	0.033
-245.990	-200.000	0.013	0.313
-244.976	-123.141	0.151	0.024
-243.961	385.478	-0.071	-0.144
-242.946	-72.245	0.192	0.071
-241.932	179.049	-0.064	0.093
-240.917	800.000	0.061	0.205
-239.903	-9.461	0.224	0.148
-238.888	-167.819	0.063	-0.002
-237.873	195.213	-0.146	0.220
-236.859	259.559	0.063	0.108
-235.844	-60.341	0.172	-0.072
-234.830	-50.960	-0.033	0.015
-233.815	-118.478	-0.155	0.027
-232.800	800.000	-0.116	0.335
-231.786	-102.212	0.155	0.037
-230.771	-82.271	0.295	0.095
-229.757	800.000	-0.077	0.300
-228.742	800.000	0.042	0.151
-227.727	-200.000	-0.022	-0.171
-226.713	53.344	-0.069	0.065
-225.698	-156.163	-0.309	-0.019
-224.684	212.249	-0.127	0.198
-223.669	-104.442	-0.073	0.017
-222.655	-200.000	-0.006	0.045
-221.640	331.234	0.120	0.229
-220.625	-117.495	0.307	-0.055
-219.611	-65.604	0.320	-0.127
-218.596	48.463	-0.150	0.139
-217.582	-110.225	0.071	-0.015
-216.567	-46.979	-0.284	-0.137
-215.552	749.252	0.050	0.134
-214.538	18.970	0.151	0.120
-213.523	-57.145	-0.075	-0.033
-212.509	-200.000	-0.012	-0.415
-211.494	148.902	0.215	-0.287
-210.479	-94.468	-0.384	-0.103
-209.465	800.000	-0.076	0.286
-208.450	-190.902	-0.294	-0.003
-207.436	-200.000	-0.033	0.399
-206.421	-188.695	0.214	-0.003
-205.406	-36.056	0.187	0.100
-204.392	-200.000	0.021	-0.384
-203.377	-0.697	0.157	-0.110
-202.363	-88.764	-0.123	-0.036
-201.348	164.785	0.050	0.069
-200.333	-200.000	0.004	-0.380
-199.319	-200.000	0.003	0.308
-198.304	178.371	-0.160	-0.231
-197.290	365.866	0.030	0.060
-196.275	500.286	0.071	-0.161
-195.260	-169.156	-0.195	0.007
-194.246	282.400	-0.074	-0.131
-193.231	800.000	-0.018	-0.060
-192.217	800.000	-0.011	0.046
-191.202	-17.375	-0.086	-0.053
-190.187	323.884	-0.121	-0.228
-189.173	-153.308	-0.249	-0.017
-188.158	62.313	-0.174	0.171
-187.144	-121.559	0.224	0.037
-186.129	-200.000	0.038	0.195
-185.114	-157.066	-0.213	0.013
-184.100	105.090	-0.208	-0.242
-183.085	95.153	0.173	-0.194
-182.071	-200.000	-0.001	0.250
-181.056	-84.322	-0.100	0.031
-180.042	-109.294	-0.143	0.030
-179.027	109.157	0.266	-0.314
-178.012	800.000	0.081	-0.234
-176.998	66.241	-0.262	0.263
-175.983	1.692	-0.032	-0.023
-174.969	-136.620	0.145	-0.017
-173.954	-29.882	0.185	-0.104
-172.939	-62.811	0.081	0.033
-171.925	-123.587	0.332	-0.052
-170.910	170.525	-0.077	-0.109
-169.896	46.370	0.131	-0.119
-168.881	479.420	0.084	-0.187
-167.866	800.000	0.044	0.178
-166.852	-69.789	0.133	0.050
-165.837	800.000	0.055	0.167
-164.823	-2.113	0.127	0.088
-163.808	-200.000	0.021	-0.216
-162.793	-48.607	0.231	0.109
-161.779	800.000	-0.100	0.349
-160.764	712.730	-0.097	-0.254
-159.750	11.284	0.121	-0.091
-158.735	-50.066	0.453	0.211
-157.720	-42.474	0.300	-0.151
-156.706	-200.000	-0.027	-0.276
-155.691	800.000	-0.097	0.297
-154.677	208.196	-0.019	-0.030
-153.662	800.000	0.044	-0.187
-152.647	23.420	-0.276	-0.224
-151.633	35.329	-0.078	-0.067
-150.618	-109.096	-0.056	-0.012
-149.604	-64.962	0.135	-0.054
-148.589	-97.421	0.177	0.045
-147.574	286.079	-0.090	-0.159
-146.560	185.386	-0.051	0.074
-145.545	-130.942	-0.065	-0.009
-144.531	162.327	-0.239	0.330
-143.516	-200.000	0.006	-0.121
-142.502	-141.822	0.166	-0.016
-141.487	220.326	0.071	-0.113
-140.472	40.083	0.308	0.273
-139.458	301.688	0.099	0.180
-138.443	800.000	0.052	0.222
-137.429	557.125	-0.075	0.178
-136.414	800.000	0.047	-0.174
-135.399	-4.544	-0.180	0.122
-134.385	-200.000	-0.060	-0.289
-133.370	55.310	0.108	-0.102
-132.356	222.367	-0.102	0.161
-131.341	-19.634	0.250	-0.153
-130.326	-73.716	0.205	-0.073
-129.312	-77.956	0.319	-0.108
-128.297	524.412	0.114	0.263
-127.283	-13.951	0.050	0.032
-126.268	-120.889	0.219	-0.036
-125.253	-200.000	-0.012	-0.106
-124.239	692.938	-0.084	-0.216
-123.224	-29.658	-0.203	0.114
-122.210	-80.708	0.158	-0.052
-121.195	-200.000	0.002	-0.137
-120.180	93.891	-0.119	0.133
-119.166	-200.000	0.082	-0.376
-118.151	-51.443	0.119	-0.055
-117.137	-200.000	0.052	0.411
-116.122	25.499	-0.188	-0.154
-115.107	223.495	-0.134	0.213
-114.093	268.028	0.046	0.079
-113.078	56.588	0.085	-0.081
-112.064	115.470	0.085	-0.102
-111.049	-137.632	0.044	-0.005
-110.034	-200.000	-0.001	-0.115
-109.020	575.595	0.121	-0.290
-108.005	-41.508	0.281	-0.142
-106.991	-69.772	-0.120	-0.045
-105.976	-86.022	0.346	-0.105
-104.962	-111.733	-0.083	-0.017
-103.947	733.391	-0.055	-0.146
-102.932	-45.885	0.388	-0.188
-101.918	-200.000	-0.022	-0.094
-100.903	116.838	0.194	-0.235
-99.889	410.872	0.084	0.176
-98.874	137.735	-0.143	0.184
-97.859	-5.117	0.122	0.082
-96.845	155.139	-0.049	-0.066
-95.830	15.704	-0.188	0.145
-94.816	106.255	0.079	0.093
-93.801	37.803	0.114	0.100
-92.786	-200.000	0.036	0.293
-91.772	-200.000	0.018	-0.177
-90.757	-41.801	0.310	-0.157
-89.743	-46.764	-0.365	0.176
-88.728	-200.000	-0.014	0.205
-87.713	-52.241	0.432	0.197
-86.699	-142.139	0.355	0.035
-85.684	39.071	-0.366	0.322
-84.670	47.253	0.207	-0.190
-83.655	427.050	-0.010	-0.021
-82.640	-151.261	0.025	-0.002
-81.626	-51.378	0.279	0.128
-80.611	21.095	-0.101	-0.080
-79.597	800.000	0.059	-0.188
-78.582	-82.097	-0.287	0.092
-77.567	-41.753	-0.349	-0.176
-76.553	309.971	-0.051	0.093
-75.538	800.000	0.040	-0.134
-74.524	-149.285	0.272	-0.021
-73.509	69.763	-0.046	0.046
-72.494	42.713	-0.160	-0.143
-71.480	74.055	-0.175	-0.180
-70.465	-200.000	0.012	0.250
-69.451	-168.082	-0.117	0.004
-68.436	152.786	-0.128	0.172
-67.422	54.474	0.116	-0.110
-66.407	-156.612	0.179	-0.011
-65.392	-55.588	-0.218	-0.096
-64.378	800.000	0.050	0.196
-63.363	-74.633	-0.425	-0.150
-62.349	-15.067	0.083	0.052
-61.334	20.004	-0.996	-0.789
-60.319	48.733	0.415	0.382
-59.305	-200.000	-0.089	-0.788
-58.290	442.849	0.515	1.108
-57.276	470.322	0.650	1.434
-56.261	-200.000	93.361	554.602
-55.246	551.100	1373.711	3236.362
-54.232	160.819	2553.008	3499.951
-53.217	107.046	2273.522	2651.285
-52.203	42.793	1898.299	1697.573
-51.188	36.815	1688.814	1465.122
-50.173	34.084	1644.386	1406.369
-49.159	51.430	1688.954	1574.643
-48.144	53.315	1705.528	1604.125
-47.130	36.426	1666.982	1443.051
-46.115	33.686	1652.827	1410.404
-45.100	33.471	1647.814	1404.475
-44.086	33.479	1644.938	1402.028
-43.071	33.413	1642.512	1399.419
-42.057	33.370	1640.314	1397.170
-41.042	33.441	1637.982	1395.658
-40.027	33.435	1635.890	1393.776
-39.013	33.417	1634.152	1392.106
-37.998	33.444	1632.735	1391.038
-36.984	33.364	1631.917	1389.701
-35.969	33.488	1630.110	1389.013
-34.954	33.660	1628.275	1388.656
-33.940	33.633	1626.481	1386.872
-32.925	33.565	1624.802	1384.892
-31.911	33.580	1623.263	1383.634
-30.896	33.580	1621.349	1381.947
-29.881	33.580	1619.620	1380.417
-28.867	33.551	1618.449	1379.154
-27.852	33.565	1616.410	1377.464
-26.838	33.518	1615.356	1376.169
-25.823	33.593	1613.794	1375.328
-24.809	33.664	1612.059	1374.312
-23.794	33.572	1610.705	1372.431
-22.779	33.598	1609.322	1371.387
-21.765	33.600	1607.952	1370.181
-20.750	33.492	1606.304	1367.941
-19.736	33.581	1604.492	1366.991
-18.721	33.595	1603.442	1366.143
-17.706	33.614	1601.630	1364.679
-16.692	33.525	1600.274	1362.831
-15.677	33.520	1599.089	1361.728
-14.663	33.572	1597.523	1360.715
-13.648	33.708	1595.750	1360.125
-12.633	33.565	1594.593	1358.065
-11.619	33.608	1593.619	1357.484
-10.604	33.612	1591.678	1355.808
-9.590	33.609	1590.465	1354.698
-8.575	33.522	1589.556	1353.250
-7.560	33.596	1587.721	1352.163
-6.546	33.616	1586.836	1351.500
-5.531	33.658	1585.647	1350.728
-4.517	33.536	1584.704	1349.007
-3.502	33.557	1583.895	1348.412
-2.487	33.612	1581.967	1347.109
-1.473	33.160	1569.888	1333.584
-0.458	29.858	1549.648	1293.304
0.556	23.977	1548.700	1257.502
1.571	21.259	1571.606	1256.466
2.586	20.805	1584.326	1263.235
3.600	18.957	1532.333	1208.693
4.615	10.718	1423.136	1068.459
5.629	2.063	1355.887	963.431
6.644	0.173	1346.948	945.142
7.659	0.101	1345.278	943.431
8.673	0.079	1344.793	942.872
9.688	-0.013	1342.927	940.902
10.702	-0.186	1340.196	937.828
11.717	3.699	1346.768	966.690
12.731	12.602	1360.835	1032.798
13.746	17.743	1366.722	1069.498
14.761	17.354	1364.389	1065.140
15.775	16.245	1362.098	1056.320
16.790	15.068	1359.620	1046.951
17.804	14.334	1357.008	1040.261
18.819	13.992	1355.852	1037.150
19.834	13.797	1354.084	1034.488
20.848	13.405	1353.426	1031.452
21.863	13.267	1351.932	1029.363
22.877	13.137	1350.602	1027.453
23.892	13.052	1349.640	1026.099
24.907	13.063	1349.143	1025.698
25.921	13.115	1347.927	1025.005
26.936	13.165	1347.125	1024.615
27.950	13.196	1346.170	1023.992
28.965	13.183	1345.498	1023.309
29.980	13.294	1344.267	1022.970
30.994	13.296	1343.253	1022.120
32.009	13.383	1342.358	1021.886
33.023	13.433	1340.944	1021.026
34.038	13.345	1340.212	1019.837
35.053	13.285	1339.048	1018.489
36.067	13.223	1338.130	1017.322
37.082	13.314	1337.471	1017.291
38.096	13.246	1336.829	1016.296
39.111	13.249	1335.827	1015.457
40.126	13.258	1335.055	1014.839
41.140	13.059	1334.192	1012.872
42.155	13.175	1333.212	1012.753
43.169	13.093	1333.692	1012.522
44.184	13.134	1333.310	1012.394
45.199	13.012	1333.284	1011.535
46.213	13.142	1332.002	1011.273
47.228	13.102	1331.390	1010.473
48.242	13.225	1330.070	1010.130
49.257	13.235	1328.701	1009.063
50.271	13.207	1327.408	1007.820
51.286	13.190	1326.007	1006.568
52.301	13.201	1324.624	1005.492
53.315	13.134	1323.626	1004.239
54.330	13.072	1322.764	1003.123
55.344	13.172	1320.855	1002.191
56.359	13.057	1320.270	1000.964
57.374	13.076	1319.492	1000.395
58.388	12.927	1319.396	999.334
59.403	13.056	1318.508	999.353
60.417	13.027	1317.313	998.181
61.432	13.083	1316.162	997.560
62.447	13.053	1315.536	996.817
63.461	12.961	1314.319	995.250
64.476	12.970	1313.522	994.614
65.490	13.026	1312.189	993.858
66.505	12.996	1310.634	992.409
67.520	13.017	1309.424	991.534
68.534	13.001	1308.528	990.667
69.549	12.989	1307.437	989.684
70.563	12.959	1306.427	988.654
71.578	12.936	1305.056	987.387
72.593	12.934	1304.369	986.767
73.607	12.829	1303.123	985.111
74.622	12.823	1302.908	984.825
75.636	12.915	1301.677	984.360
76.651	12.842	1301.440	983.658
77.666	12.857	1300.770	983.149
78.680	12.941	1300.011	982.989
79.695	12.936	1298.991	982.103
80.709	12.886	1298.636	981.448
81.724	13.002	1297.296	981.044
82.739	13.070	1297.306	981.365
83.753	13.206	1295.503	980.722
84.768	13.269	1294.630	980.351
85.782	13.267	1293.765	979.596
86.797	13.167	1291.984	977.570
87.812	13.192	1291.194	977.034
88.826	13.093	1290.129	975.557
89.841	13.239	1289.007	975.483
90.855	13.260	1287.657	974.495
91.870	13.280	1287.025	974.054
92.884	13.256	1286.451	973.390
93.899	13.313	1285.685	973.056
94.914	13.223	1284.844	971.806
95.928	13.274	1284.307	971.614
96.943	13.218	1283.063	970.260
97.957	13.243	1282.243	969.697
98.972	13.339	1280.978	969.218
99.987	13.288	1280.389	968.390
101.001	13.277	1279.089	967.255
102.016	13.194	1278.591	966.308
103.030	13.237	1277.969	966.007
104.045	13.245	1276.641	964.963
105.060	13.077	1275.278	962.865
106.074	13.157	1274.372	962.565
107.089	13.125	1272.807	961.113
108.103	12.997	1271.950	959.635
109.118	13.073	1270.303	958.745
110.133	13.047	1269.120	957.618
111.147	13.129	1267.566	956.835
112.162	13.152	1266.455	956.045
113.176	13.161	1265.193	955.059
114.191	13.141	1264.746	954.522
115.206	13.148	1263.585	953.605
116.220	13.169	1261.763	952.267
117.235	13.136	1261.010	951.421
118.249	13.054	1260.695	950.626
119.264	13.053	1259.684	949.775
120.279	13.085	1258.236	948.787
121.293	13.090	1257.361	948.069
122.308	13.164	1255.886	947.295
123.322	13.134	1255.018	946.388
124.337	13.149	1253.891	945.541
125.352	13.076	1253.354	944.631
126.366	12.976	1252.472	943.312
127.381	13.040	1251.176	942.620
128.395	13.122	1249.742	941.924
129.410	13.155	1249.196	941.614
130.424	13.149	1248.308	940.828
131.439	13.206	1246.886	939.997
132.454	13.253	1246.083	939.577
133.468	13.221	1245.210	938.655
134.483	13.135	1245.047	937.958
135.497	13.183	1243.667	937.107
136.512	13.194	1242.316	936.071
137.527	13.259	1241.124	935.459
138.541	13.248	1239.636	934.189
139.556	13.287	1238.385	933.386
140.570	13.285	1237.515	932.638
141.585	13.238	1236.712	931.685
142.600	13.349	1234.924	930.878
143.614	13.351	1234.346	930.375
144.629	13.435	1233.107	929.826
145.643	13.282	1232.324	928.295
146.658	13.291	1231.129	927.365
147.673	13.287	1229.405	925.961
148.687	13.265	1228.460	925.047
149.702	13.273	1227.095	923.979
150.716	13.209	1225.810	922.572
151.731	13.210	1224.184	921.273
152.746	13.320	1223.021	920.928
153.760	13.276	1222.162	919.956
154.775	13.366	1220.857	919.395
155.789	13.356	1220.047	918.649
156.804	13.457	1218.699	918.113
157.819	13.377	1217.886	916.971
158.833	13.431	1217.116	916.614
159.848	13.469	1216.283	916.114
160.862	13.486	1215.185	915.298
161.877	13.438	1213.854	913.950
162.892	13.334	1213.245	912.835
163.906	13.277	1212.220	911.670
164.921	13.368	1211.159	911.293
165.935	13.373	1210.241	910.548
166.950	13.391	1209.762	910.206
167.964	13.340	1209.119	909.366
168.979	13.471	1207.890	909.079
169.994	13.483	1206.979	908.378
171.008	13.523	1206.290	908.000
172.023	13.512	1205.878	907.546
173.037	13.490	1204.837	906.562
174.052	13.485	1204.282	906.040
175.067	13.523	1202.668	904.953
176.081	13.490	1201.536	903.841
177.096	13.431	1201.199	903.184
178.110	13.445	1200.216	902.441
179.125	13.515	1199.203	901.982
180.140	13.580	1197.725	901.141
181.154	13.544	1197.024	900.341
182.169	13.604	1195.570	899.491
183.183	13.546	1194.512	898.302
184.198	13.757	1192.828	898.097
185.213	13.705	1192.202	897.270
186.227	13.737	1190.876	896.362
187.242	13.715	1189.978	895.490
188.256	13.676	1189.117	894.551
189.271	13.818	1188.243	894.581
190.286	13.639	1187.089	892.670
191.300	13.587	1186.390	891.786
192.315	13.434	1185.984	890.576
193.329	13.512	1185.133	890.275
194.344	13.614	1184.521	890.289
195.359	13.678	1184.117	890.250
196.373	13.733	1183.201	889.774
197.388	13.735	1182.769	889.385
198.402	13.868	1182.457	889.784
199.417	13.915	1181.588	889.299
200.432	13.947	1180.908	888.883
201.446	13.944	1180.313	888.340
202.461	13.979	1179.186	887.601
203.475	13.934	1178.372	886.670
204.490	13.939	1176.850	885.474
205.504	13.891	1175.502	884.126
206.519	13.955	1174.490	883.622
207.534	13.938	1173.358	882.607
208.548	13.870	1172.321	881.387
209.563	13.877	1171.961	881.076
210.577	13.853	1171.094	880.217
211.592	14.063	1169.832	880.305
212.607	14.074	1168.927	879.602
213.621	14.063	1168.214	878.928
214.636	14.025	1167.722	878.280
215.650	14.100	1166.551	877.719
216.665	14.144	1165.063	876.753
217.680	14.177	1164.502	876.425
218.694	14.176	1163.763	875.787
219.709	14.218	1163.567	875.781
220.723	14.218	1162.750	875.091
221.738	14.120	1161.797	873.784
222.753	14.178	1161.250	873.598
223.767	14.206	1160.610	873.185
224.782	14.262	1159.932	872.894
225.796	14.359	1159.041	872.654
226.811	14.288	1158.607	871.876
227.826	14.269	1157.828	871.115
228.840	14.205	1157.320	870.318
229.855	14.308	1156.354	870.055
230.869	14.283	1155.482	869.193
231.884	14.250	1154.749	868.388
232.899	14.329	1153.678	867.918
233.913	14.082	1153.314	866.282
234.928	14.194	1152.544	866.208
235.942	14.225	1152.142	865.994
236.957	14.372	1150.689	865.589
237.972	14.292	1149.868	864.478
238.986	14.249	1149.646	864.013
240.001	14.365	1148.743	863.856
241.015	14.375	1148.085	863.340
242.030	14.268	1147.577	862.328
243.045	14.284	1146.925	861.841
244.059	14.413	1145.878	861.649
245.074	14.396	1144.749	860.636
246.088	14.464	1144.047	860.383
247.103	14.490	1143.254	859.843
248.117	14.490	1142.589	859.266
249.132	14.649	1142.201	859.717
250.147	14.652	1141.516	859.140
251.161	14.748	1140.713	858.955
252.176	14.659	1140.452	858.227
253.190	14.619	1139.776	857.434
254.205	14.746	1139.083	857.487
255.220	14.798	1138.358	857.134
256.234	14.811	1137.668	856.605
257.249	14.748	1136.736	855.506
258.263	14.777	1136.278	855.236
259.278	14.799	1135.981	855.049
260.293	14.863	1135.369	854.837
261.307	14.873	1134.801	854.385
262.322	14.969	1133.915	854.134
263.336	14.882	1133.355	853.193
264.351	14.906	1132.860	852.869
265.366	15.083	1131.961	853.016
266.380	14.911	1131.167	851.467
267.395	15.022	1130.402	851.379
268.409	14.809	1129.966	849.895
269.424	14.950	1129.122	849.897
270.439	14.896	1128.441	849.037
271.453	14.905	1127.799	848.524
272.468	14.949	1126.904	848.000
273.482	14.904	1126.316	847.254
274.497	14.827	1125.859	846.446
275.512	15.000	1124.834	846.477
276.526	15.024	1123.962	845.867
277.541	14.963	1123.521	845.149
278.555	14.890	1122.900	844.237
279.570	15.060	1122.415	844.658
280.585	15.171	1121.108	844.160
281.599	15.128	1119.945	842.992
282.614	15.086	1119.145	842.103
283.628	15.046	1118.313	841.204
284.643	15.100	1117.174	840.542
285.657	15.191	1116.208	840.198
286.672	15.149	1115.243	839.186
287.687	15.145	1114.452	838.500
288.701	15.122	1114.043	838.000
289.716	15.147	1113.048	837.303
290.730	15.144	1112.746	836.989
291.745	15.226	1111.470	836.361
292.760	15.254	1111.077	836.130
293.774	15.340	1110.532	836.077
294.789	15.323	1110.204	835.672
295.803	15.375	1109.147	835.062
296.818	15.317	1108.469	834.188
297.833	15.276	1107.719	833.345
298.847	15.484	1106.839	833.645
299.862	15.243	1106.136	831.845
300.876	15.367	1105.450	831.869
301.891	15.468	1104.742	831.761
302.906	15.524	1104.100	831.483
303.920	15.593	1103.295	831.147
304.935	15.570	1102.932	830.684
305.949	15.501	1102.160	829.690
306.964	15.497	1101.745	829.281
307.979	15.607	1101.226	829.363
308.993	15.528	1100.514	828.363
310.008	15.516	1099.559	827.512
311.022	15.611	1098.746	827.291
312.037	15.618	1098.105	826.773
313.052	15.595	1096.679	825.512
314.066	15.602	1095.970	824.938
315.081	15.387	1095.446	823.420
316.095	15.248	1095.193	822.474
317.110	15.558	1094.035	823.049
318.125	15.541	1093.306	822.343
319.139	15.481	1092.622	821.463
320.154	15.453	1092.062	820.831
321.168	15.625	1091.037	820.830
322.183	15.571	1090.678	820.227
323.197	15.542	1090.271	819.705
324.212	15.677	1089.382	819.623
325.227	15.679	1088.958	819.239
326.241	15.616	1088.687	818.656
327.256	15.689	1087.567	818.097
328.270	15.666	1086.390	817.028
329.285	15.641	1085.399	816.088
330.300	15.683	1084.798	815.769
331.314	15.679	1083.688	814.842
332.329	15.763	1082.878	814.565
333.343	15.609	1082.348	813.353
334.358	15.772	1081.379	813.341
335.373	15.713	1081.107	812.776
336.387	15.659	1079.975	811.595
337.402	15.822	1078.892	811.493
338.416	15.898	1078.454	811.458
339.431	15.939	1077.715	811.027
340.446	15.958	1077.186	810.652
341.460	16.026	1076.297	810.235
342.475	15.882	1075.961	809.220
343.489	16.012	1074.770	808.877
344.504	16.057	1073.953	808.407
345.519	16.095	1073.187	807.938
346.533	16.144	1072.352	807.473
347.548	16.215	1071.728	807.274
348.562	16.082	1070.825	805.888
349.577	16.148	1070.101	805.584
350.592	16.091	1069.259	804.609
351.606	16.093	1068.490	803.966
352.621	16.069	1068.147	803.524
353.635	15.934	1067.371	802.226
354.650	15.998	1066.886	802.093
355.665	16.118	1066.045	801.962
356.679	16.165	1065.365	801.602
357.694	16.194	1064.834	801.269
358.708	16.080	1064.290	800.250
359.723	16.153	1063.702	800.080
360.738	16.250	1062.671	799.695
361.752	16.298	1061.947	799.310
362.767	16.239	1061.462	798.595
363.781	16.171	1061.389	798.144
364.796	16.269	1060.540	797.899
365.810	16.350	1060.269	798.006
366.825	16.393	1059.506	797.565
367.840	16.403	1059.145	797.272
368.854	16.518	1058.505	797.260
369.869	16.477	1057.593	796.310
370.883	16.348	1056.891	795.105
371.898	16.470	1055.977	794.918
372.913	16.377	1055.708	794.210
373.927	16.511	1054.978	794.220
374.942	16.531	1054.498	793.883
375.956	16.530	1053.910	793.365
376.971	16.542	1053.455	793.006
377.986	16.533	1052.963	792.526
379.000	16.647	1052.408	792.572
380.015	16.546	1051.913	791.656
381.029	16.588	1051.233	791.269
382.044	16.755	1050.641	791.534
383.059	16.663	1049.633	790.277
384.073	16.608	1048.555	789.140
385.088	16.654	1048.381	789.152
386.102	16.751	1047.285	788.708
387.117	16.565	1046.271	787.011
388.132	16.538	1045.368	786.135
389.146	16.529	1044.609	785.451
390.161	16.692	1043.711	785.463
391.175	16.647	1043.003	784.654
392.190	16.662	1042.622	784.369
393.205	16.732	1042.139	784.257
394.219	16.818	1040.890	783.647
395.234	16.754	1040.093	782.683
396.248	16.807	1038.892	781.954
397.263	16.755	1037.809	780.830
398.278	16.772	1037.181	780.365
399.292	16.646	1036.867	779.480
400.307	16.719	1036.070	779.148
401.321	16.759	1035.354	778.725
402.336	16.777	1034.573	778.151
403.350	16.753	1034.000	777.544
404.365	16.864	1033.426	777.549
405.380	16.755	1033.015	776.674
406.394	16.965	1031.802	776.653
407.409	17.000	1031.110	776.226
408.423	16.948	1030.443	775.417
409.438	17.018	1030.084	775.398
410.453	17.051	1029.195	774.809
411.467	17.100	1028.642	774.550
412.482	17.196	1028.009	774.439
413.496	17.050	1027.299	773.172
414.511	17.143	1026.817	773.162
415.526	17.228	1026.362	773.139
416.540	17.292	1025.681	772.851
417.555	17.253	1025.499	772.467
418.569	17.237	1024.674	771.703
419.584	17.325	1024.349	771.792
420.599	17.286	1023.782	771.121
421.613	100.861	1316.014	1451.917
422.628	92.149	1358.571	1452.053
