DTS Sentinel unit serial number:	SN413079Multiplexer serial number:	ORYXHardware model number:	OX4-SRSoftware version number:	ORYX F/W v4.00 Oryx Data Collector v3.7.2.0data status	okinstallation	princeton_trtdifferential loss correction	single-endedforward channel	channel 2reverse channel	N/Adate	2019/09/11time	20:53:11forward acquisition time	60.00reverse acquisition time	0.00gamma	496.2192k internal	0.2322k external	0.2322temperature offset calibration	1.0058default loss term (dB/km)	0.3790temperature slope calibration	1.0000multiplexer offset coefficient	1.0000multiplexer slope coefficient	1.0000fibre end	0.00T internal ref (°C)	36.87T ext. ref 1 (°C)	1.51T ext. ref 2 (°C)	30.88length (m)	temperature (°C)	Stokes	anti-Stokes-747.200	36.744	-0.236	0.211
-746.185	206.471	-0.171	0.269
-745.171	203.590	0.018	-0.028
-744.156	49.435	0.113	0.108
-743.142	-102.425	-0.383	0.093
-742.127	191.410	0.109	0.166
-741.112	-118.178	-0.243	0.044
-740.098	307.150	0.029	-0.054
-739.083	-200.000	-0.024	0.261
-738.069	180.090	-0.213	0.315
-737.054	-83.953	0.380	0.122
-736.039	625.262	-0.114	-0.291
-735.025	-200.000	-0.033	0.256
-734.010	135.498	-0.147	0.193
-732.996	-97.686	-0.163	0.043
-731.981	296.151	-0.110	-0.204
-730.966	-167.185	0.353	0.014
-729.952	-200.000	-0.002	0.176
-728.937	-149.895	-0.121	0.010
-727.923	-183.222	-0.065	0.001
-726.908	160.055	0.134	0.189
-725.894	-63.322	-0.320	-0.133
-724.879	47.818	-0.100	-0.094
-723.864	4.193	-0.096	0.071
-722.850	8.271	0.203	0.154
-721.835	800.000	-0.110	-0.357
-720.821	-143.680	-0.327	0.031
-719.806	-106.326	0.378	-0.085
-718.791	-8.605	0.102	0.069
-717.777	-78.654	-0.291	0.101
-716.762	39.000	-0.186	-0.168
-715.748	-200.000	0.037	-0.228
-714.733	138.092	0.112	0.149
-713.718	-200.000	0.042	-0.223
-712.704	-200.000	-0.026	0.217
-711.689	522.463	-0.146	0.345
-710.675	126.695	-0.191	-0.244
-709.660	800.000	0.101	-0.291
-708.645	153.598	-0.162	0.224
-707.631	-121.067	-0.061	0.010
-706.616	-75.200	-0.036	-0.013
-705.602	52.501	-0.339	-0.326
-704.587	-65.049	0.093	0.038
-703.572	-200.000	-0.022	-0.198
-702.558	-102.482	0.207	-0.050
-701.543	137.920	0.185	0.244
-700.529	-108.358	-0.394	-0.086
-699.514	-12.008	0.012	-0.008
-698.499	193.687	0.151	0.230
-697.485	575.073	-0.141	0.348
-696.470	-99.210	-0.184	-0.047
-695.456	65.083	0.202	-0.206
-694.441	109.035	0.035	-0.042
-693.426	-145.716	-0.063	-0.006
-692.412	-103.351	0.350	-0.083
-691.397	800.000	-0.071	-0.270
-690.383	-200.000	0.039	0.273
-689.368	800.000	0.048	-0.187
-688.354	-118.061	-0.220	0.040
-687.339	-200.000	-0.011	-0.216
-686.324	-3.144	0.153	0.108
-685.310	-200.000	-0.036	-0.379
-684.295	-35.382	-0.190	-0.104
-683.281	27.078	-0.064	0.054
-682.266	63.529	-0.142	0.144
-681.251	-25.801	-0.175	-0.104
-680.237	-133.595	0.171	-0.022
-679.222	-167.087	-0.398	-0.016
-678.208	571.970	-0.175	0.429
-677.193	38.865	-0.123	0.110
-676.178	-200.000	0.035	-0.215
-675.164	-123.558	-0.096	0.015
-674.149	-200.000	0.013	0.227
-673.135	-58.849	0.138	0.060
-672.120	-88.620	-0.058	0.017
-671.105	189.153	0.204	-0.308
-670.091	-200.000	-0.052	0.256
-669.076	82.093	-0.243	0.265
-668.062	388.644	0.014	-0.030
-667.047	-7.195	-0.188	-0.129
-666.032	-39.538	0.394	-0.208
-665.018	81.179	0.077	-0.084
-664.003	38.096	0.263	-0.235
-662.989	13.768	0.131	-0.102
-661.974	115.327	0.138	0.169
-660.959	5.966	0.142	0.106
-659.945	-200.000	-0.062	0.416
-658.930	402.334	0.093	-0.197
-657.916	105.039	-0.170	0.202
-656.901	35.090	0.077	-0.068
-655.886	-25.038	0.122	0.073
-654.872	-200.000	-0.020	0.161
-653.857	-200.000	0.007	0.281
-652.843	129.779	0.105	0.135
-651.828	-57.638	-0.203	0.090
-650.814	-22.757	0.219	0.133
-649.799	-175.525	-0.155	-0.004
-648.784	339.006	0.041	-0.080
-647.770	800.000	-0.107	0.370
-646.755	-3.975	-0.200	0.139
-645.741	370.176	0.110	0.225
-644.726	-1.655	-0.248	-0.176
-643.711	-154.923	0.314	-0.021
-642.697	-111.392	-0.037	0.008
-641.682	-21.818	0.303	0.186
-640.668	-116.158	-0.162	-0.030
-639.653	198.363	0.138	0.212
-638.638	2.478	-0.226	0.165
-637.624	-28.840	-0.079	-0.046
-636.609	17.714	0.242	0.194
-635.595	-151.219	0.160	0.012
-634.580	-97.880	-0.231	-0.060
-633.565	5.241	-0.168	0.125
-632.551	-17.023	-0.157	-0.100
-631.536	-131.877	0.197	0.026
-630.522	-200.000	0.063	0.299
-629.507	-200.000	-0.030	0.200
-628.492	-65.559	-0.243	-0.098
-627.478	-200.000	0.006	-0.309
-626.463	-200.000	-0.003	-0.059
-625.449	102.954	-0.307	0.361
-624.434	-33.852	0.351	-0.195
-623.419	151.209	-0.101	-0.138
-622.405	96.949	0.240	-0.277
-621.390	-120.288	0.401	-0.069
-620.376	-200.000	0.007	0.102
-619.361	-200.000	-0.009	0.083
-618.346	-43.687	-0.065	-0.033
-617.332	-27.484	-0.276	-0.161
-616.317	-84.636	-0.427	-0.135
-615.303	87.900	0.233	0.260
-614.288	-200.000	-0.272	-0.000
-613.273	-72.964	-0.398	0.147
-612.259	22.689	0.339	0.279
-611.244	-182.706	-0.109	0.002
-610.230	32.925	0.170	-0.148
-609.215	102.909	-0.106	0.124
-608.201	-200.000	-0.004	0.113
-607.186	-200.000	0.003	-0.199
-606.171	751.474	-0.093	-0.251
-605.157	-28.451	-0.369	0.214
-604.142	-200.000	-0.022	-0.153
-603.128	800.000	0.088	-0.340
-602.113	-68.030	-0.159	0.062
-601.098	38.856	-0.212	-0.190
-600.084	-200.000	-0.006	0.468
-599.069	181.759	-0.080	-0.118
-598.055	800.000	0.103	0.363
-597.040	-200.000	0.023	0.219
-596.025	-138.270	0.247	-0.027
-595.011	-200.000	0.068	0.303
-593.996	253.431	-0.219	0.376
-592.982	-154.573	0.264	0.018
-591.967	800.000	-0.056	0.215
-590.952	-126.078	0.249	-0.038
-589.938	-199.661	-0.283	0.001
-588.923	552.559	-0.011	0.027
-587.909	16.207	-0.029	-0.023
-586.894	376.003	-0.051	0.104
-585.879	475.412	-0.026	-0.059
-584.865	-200.000	-0.007	-0.116
-583.850	264.969	-0.113	-0.198
-582.836	-200.000	0.021	0.222
-581.821	58.424	-0.170	-0.167
-580.806	-51.697	0.123	-0.058
-579.792	253.801	-0.138	0.237
-578.777	-28.116	-0.082	0.048
-577.763	108.671	0.098	0.117
-576.748	-23.352	-0.270	-0.163
-575.733	19.384	-0.153	-0.123
-574.719	-95.186	-0.074	0.020
-573.704	-105.036	-0.264	0.061
-572.690	-159.523	-0.293	0.016
-571.675	96.101	0.205	-0.235
-570.661	-180.691	0.277	0.006
-569.646	-26.537	-0.087	-0.051
-568.631	98.616	0.068	-0.079
-567.617	-84.880	0.187	0.059
-566.602	226.361	-0.096	-0.156
-565.588	-200.000	0.027	-0.134
-564.573	-65.748	-0.291	-0.117
-563.558	-197.109	0.157	0.001
-562.544	-200.000	0.069	0.307
-561.529	800.000	0.032	0.122
-560.515	-23.147	0.205	0.124
-559.500	203.975	-0.160	0.248
-558.485	-1.387	-0.119	0.084
-557.471	16.977	-0.115	0.091
-556.456	800.000	-0.070	0.308
-555.442	-200.000	-0.016	-0.147
-554.427	29.280	0.209	-0.178
-553.412	-115.399	0.380	-0.072
-552.398	-83.162	0.162	0.052
-551.383	63.876	0.089	-0.090
-550.369	-5.288	-0.177	0.122
-549.354	-165.616	0.280	-0.012
-548.339	800.000	0.041	0.133
-547.325	-200.000	0.006	0.092
-546.310	800.000	0.087	-0.279
-545.296	500.163	-0.153	-0.353
-544.281	302.428	-0.206	-0.383
-543.266	-39.196	0.289	0.152
-542.252	571.627	0.085	0.207
-541.237	249.704	-0.060	0.103
-540.223	-200.000	0.078	0.357
-539.208	-113.417	-0.125	-0.024
-538.193	221.093	0.052	0.083
-537.179	-56.754	-0.177	-0.078
-536.164	-54.829	0.348	0.158
-535.150	800.000	0.032	-0.097
-534.135	-114.823	0.180	0.034
-533.121	-141.725	-0.314	-0.032
-532.106	-200.000	-0.035	-0.166
-531.091	-200.000	-0.020	-0.321
-530.077	800.000	0.091	-0.310
-529.062	-200.000	0.030	-0.293
-528.048	800.000	0.041	0.123
-527.033	5.896	0.027	0.020
-526.018	800.000	0.007	0.026
-525.004	-200.000	0.005	0.221
-523.989	-10.882	-0.376	-0.249
-522.975	-27.233	-0.325	0.190
-521.960	-167.168	0.147	0.006
-520.945	-75.898	-0.392	0.139
-519.931	63.273	0.103	0.103
-518.916	-107.301	0.282	-0.062
-517.902	-53.529	-0.306	0.140
-516.887	403.911	0.138	0.291
-515.872	145.933	0.071	0.096
-514.858	650.534	0.018	0.045
-513.843	159.651	0.115	-0.161
-512.829	101.361	-0.249	0.291
-511.814	-157.468	-0.278	-0.017
-510.799	658.092	0.091	0.233
-509.785	119.209	-0.087	0.108
-508.770	-200.000	-0.041	-0.236
-507.756	-128.675	-0.392	-0.055
-506.741	-200.000	-0.001	-0.140
-505.726	101.722	-0.176	-0.205
-504.712	285.918	-0.069	-0.125
-503.697	-80.883	-0.279	-0.093
-502.683	800.000	0.033	0.110
-501.668	211.999	-0.070	0.111
-500.653	-200.000	-0.024	-0.255
-499.639	311.274	-0.081	-0.153
-498.624	58.847	0.228	-0.225
-497.610	-38.593	0.263	-0.139
-496.595	-98.796	0.279	0.071
-495.581	-94.757	0.206	-0.056
-494.566	-46.377	-0.174	0.086
-493.551	588.717	-0.046	0.115
-492.537	195.587	-0.168	0.256
-491.522	65.357	-0.186	0.188
-490.508	-143.657	0.205	-0.019
-489.493	704.529	0.099	-0.260
-488.478	-133.661	-0.037	0.005
-487.464	203.942	-0.051	0.079
-486.449	-58.424	-0.299	0.130
-485.435	-200.000	-0.007	-0.155
-484.420	31.434	0.115	0.098
-483.405	-6.398	-0.129	-0.088
-482.391	-200.000	-0.001	-0.186
-481.376	800.000	0.027	-0.094
-480.362	-59.641	-0.075	-0.032
-479.347	-139.626	-0.180	-0.019
-478.332	105.268	0.154	-0.182
-477.318	-200.000	-0.009	0.134
-476.303	-200.000	-0.018	-0.127
-475.289	304.084	-0.100	-0.185
-474.274	-24.823	-0.181	0.107
-473.259	-200.000	0.015	-0.090
-472.245	-105.462	-0.069	-0.016
-471.230	133.107	-0.052	0.067
-470.216	109.911	-0.198	0.237
-469.201	-98.719	-0.128	-0.033
-468.186	-200.000	0.010	0.166
-467.172	-81.948	-0.087	-0.028
-466.157	-200.000	-0.020	0.121
-465.143	-145.864	0.131	-0.012
-464.128	14.651	-0.276	0.216
-463.113	-93.738	0.314	-0.086
-462.099	112.420	0.057	0.069
-461.084	266.268	0.066	0.115
-460.070	-200.000	0.010	0.128
-459.055	-200.000	0.093	-0.435
-458.040	13.205	0.332	0.257
-457.026	330.336	0.126	-0.241
-456.011	-40.238	-0.197	-0.102
-454.997	226.359	-0.147	-0.238
-453.982	-46.612	0.064	0.031
-452.968	140.867	0.227	0.299
-451.953	-41.789	-0.338	-0.173
-450.938	-92.722	0.267	0.075
-449.924	-63.373	0.052	0.021
-448.909	223.950	-0.023	0.038
-447.895	272.391	-0.083	-0.147
-446.880	-22.337	0.122	0.074
-445.865	105.261	0.103	-0.122
-444.851	612.604	0.055	-0.138
-443.836	-185.265	-0.353	0.005
-442.822	-53.251	0.345	0.158
-441.807	-200.000	0.021	0.138
-440.792	51.948	-0.195	-0.185
-439.778	13.812	0.293	0.228
-438.763	86.534	-0.086	-0.094
-437.749	530.894	0.124	-0.292
-436.734	-131.844	-0.456	-0.060
-435.719	-95.762	0.148	0.040
-434.705	-200.000	-0.024	-0.197
-433.690	-200.000	0.074	0.333
-432.676	98.503	-0.105	0.121
-431.661	300.304	-0.041	0.076
-430.646	-200.000	0.034	-0.241
-429.632	-89.686	0.129	-0.038
-428.617	-37.286	0.236	0.126
-427.603	38.235	-0.216	0.192
-426.588	0.292	0.186	0.132
-425.573	-200.000	-0.006	-0.322
-424.559	-157.876	-0.363	0.021
-423.544	-200.000	-0.006	0.084
-422.530	583.477	-0.096	-0.235
-421.515	-72.502	0.174	-0.064
-420.500	800.000	0.072	-0.200
-419.486	800.000	-0.083	0.349
-418.471	800.000	0.031	-0.087
-417.457	-63.650	-0.366	0.150
-416.442	-124.846	-0.022	0.003
-415.428	11.003	-0.199	0.152
-414.413	67.720	0.216	-0.220
-413.398	-200.000	-0.018	0.144
-412.384	-200.000	-0.006	-0.158
-411.369	186.349	-0.056	-0.084
-410.355	299.159	-0.091	-0.168
-409.340	191.258	-0.147	-0.221
-408.325	-95.293	-0.087	-0.023
-407.311	515.588	-0.001	0.003
-406.296	-143.201	-0.044	-0.004
-405.282	-68.694	0.233	0.090
-404.267	-77.370	-0.191	-0.066
-403.252	-83.624	-0.211	-0.067
-402.238	800.000	-0.052	-0.190
-401.223	-105.297	-0.286	0.065
-400.209	33.530	-0.103	-0.089
-399.194	-200.000	0.043	-0.220
-398.179	-52.833	-0.100	-0.046
-397.165	-10.609	0.274	0.181
-396.150	66.194	0.062	-0.063
-395.136	95.892	-0.079	0.090
-394.121	-23.530	0.113	0.068
-393.106	-200.000	-0.040	0.465
-392.092	-24.040	0.172	0.103
-391.077	-47.514	-0.135	0.066
-390.063	-173.941	0.169	0.005
-389.048	-36.703	-0.172	0.092
-388.033	60.809	-0.172	0.170
-387.019	800.000	0.017	0.053
-386.004	-4.860	-0.124	-0.085
-384.990	156.249	-0.162	0.222
-383.975	321.227	-0.093	0.176
-382.960	672.252	-0.088	-0.228
-381.946	380.346	0.137	-0.280
-380.931	800.000	-0.104	-0.317
-379.917	-92.410	-0.324	-0.091
-378.902	50.774	0.032	-0.030
-377.888	-200.000	0.014	-0.276
-376.873	510.898	0.099	-0.229
-375.858	800.000	0.090	-0.380
-374.844	-200.000	0.001	-0.097
-373.829	184.249	-0.199	0.293
-372.815	575.198	0.114	0.276
-371.800	-134.084	-0.548	-0.067
-370.785	800.000	0.049	0.167
-369.771	-6.546	0.012	0.008
-368.756	-161.378	-0.222	-0.011
-367.742	112.474	-0.037	0.045
-366.727	335.321	-0.102	0.196
-365.712	127.815	-0.169	0.214
-364.698	-105.615	0.275	0.062
-363.683	-17.585	-0.135	0.084
-362.669	-200.000	-0.030	0.180
-361.654	800.000	-0.111	0.308
-360.639	242.229	-0.183	-0.305
-359.625	-161.980	-0.222	0.011
-358.610	-77.824	-0.252	-0.087
-357.596	54.924	-0.143	-0.137
-356.581	252.007	0.130	-0.220
-355.566	-84.165	-0.060	-0.019
-354.552	-31.365	0.189	0.106
-353.537	-200.000	-0.006	0.191
-352.523	-59.981	0.115	0.049
-351.508	7.836	-0.137	-0.102
-350.493	-200.000	0.043	-0.301
-349.479	299.954	-0.042	-0.077
-348.464	-138.933	-0.341	-0.037
-347.450	-200.000	-0.019	-0.162
-346.435	-143.538	-0.237	-0.022
-345.420	-200.000	0.014	0.111
-344.406	-102.552	0.479	-0.114
-343.391	-105.248	-0.365	-0.083
-342.377	-92.073	0.198	0.056
-341.362	800.000	0.060	0.207
-340.348	-35.829	0.106	-0.057
-339.333	-110.141	0.303	-0.063
-338.318	403.224	-0.086	-0.179
-337.304	800.000	0.030	-0.112
-336.289	-97.749	0.420	-0.108
-335.275	341.291	-0.083	-0.161
-334.260	-103.818	-0.287	0.067
-333.245	-4.699	0.259	-0.178
-332.231	498.706	0.044	-0.100
-331.216	102.406	-0.107	-0.125
-330.202	800.000	0.106	0.306
-329.187	-72.030	-0.120	-0.044
-328.172	319.554	-0.141	-0.266
-327.158	44.752	-0.189	0.173
-326.143	-84.806	-0.078	-0.024
-325.129	-94.583	0.192	-0.052
-324.114	-46.536	0.131	-0.064
-323.099	105.188	-0.143	-0.168
-322.085	-51.584	-0.225	-0.104
-321.070	94.947	0.249	-0.282
-320.056	119.415	0.102	-0.125
-319.041	-11.728	-0.225	-0.147
-318.026	90.454	0.052	0.058
-317.012	-200.000	0.002	0.011
-315.997	-134.091	0.100	0.012
-314.983	-62.684	0.477	0.197
-313.968	-57.457	0.086	-0.038
-312.953	800.000	-0.094	0.382
-311.939	5.463	-0.065	0.048
-310.924	-26.216	0.100	0.059
-309.910	24.088	-0.122	0.100
-308.895	-200.000	0.058	0.369
-307.880	-200.000	-0.003	0.277
-306.866	200.827	0.067	0.102
-305.851	-200.000	0.015	0.119
-304.837	-67.830	0.314	-0.122
-303.822	69.104	0.268	-0.274
-302.807	-129.490	0.545	-0.075
-301.793	-200.000	0.004	0.098
-300.778	112.400	-0.145	0.174
-299.764	678.874	0.148	-0.384
-298.749	-90.429	0.175	0.050
-297.735	470.926	-0.067	-0.149
-296.720	257.113	-0.072	-0.123
-295.705	-200.000	0.011	-0.285
-294.691	-171.553	0.115	-0.004
-293.676	85.109	-0.188	-0.205
-292.662	140.276	0.093	-0.122
-291.647	-114.887	0.113	-0.021
-290.632	-113.105	-0.287	0.056
-289.618	-200.000	0.003	0.053
-288.603	-17.194	0.196	0.123
-287.589	43.582	0.269	0.244
-286.574	-200.000	0.021	0.142
-285.559	58.641	0.205	-0.200
-284.545	-49.843	-0.052	-0.024
-283.530	83.158	0.232	0.251
-282.516	123.586	0.040	0.050
-281.501	543.824	-0.065	0.153
-280.486	294.708	0.114	0.207
-279.472	-200.000	0.019	0.096
-278.457	86.113	0.259	-0.283
-277.443	-12.214	-0.237	-0.154
-276.428	800.000	-0.056	-0.220
-275.413	-14.596	-0.136	-0.086
-274.399	-6.463	-0.107	0.072
-273.384	760.491	0.127	-0.342
-272.370	800.000	-0.051	0.208
-271.355	-87.571	-0.099	0.030
-270.340	-110.611	-0.368	0.076
-269.326	-23.064	0.122	-0.073
-268.311	-200.000	-0.032	-0.213
-267.297	343.300	0.112	0.217
-266.282	-29.787	-0.230	-0.130
-265.267	-59.789	-0.085	-0.036
-264.253	55.755	-0.185	-0.178
-263.238	136.146	-0.048	0.062
-262.224	205.489	0.079	-0.122
-261.209	37.334	0.149	-0.131
-260.195	-200.000	0.005	0.156
-259.180	-26.738	0.193	-0.112
-258.165	772.601	-0.058	-0.157
-257.151	263.460	-0.031	-0.053
-256.136	621.484	0.107	0.267
-255.122	-200.000	-0.002	-0.037
-254.107	-200.000	0.020	0.232
-253.092	181.973	0.048	0.069
-252.078	42.778	0.205	0.185
-251.063	376.625	-0.078	-0.157
-250.049	-169.555	-0.085	-0.003
-249.034	-104.604	0.157	-0.036
-248.019	-156.088	0.179	-0.011
-247.005	-108.009	-0.309	-0.066
-245.990	-140.646	0.216	0.022
-244.976	800.000	-0.056	-0.237
-243.961	-105.471	0.305	-0.069
-242.946	-169.218	0.215	-0.008
-241.932	451.462	-0.060	0.130
-240.917	495.546	-0.105	0.238
-239.903	115.836	0.193	-0.234
-238.888	-121.842	0.035	0.006
-237.873	111.267	0.131	0.157
-236.859	-78.904	0.125	-0.042
-235.844	-200.000	-0.029	-0.143
-234.830	9.602	-0.176	0.132
-233.815	143.756	0.265	0.349
-232.800	-111.986	0.363	-0.072
-231.786	-200.000	0.004	-0.191
-230.771	-200.000	-0.001	-0.236
-229.757	-13.581	0.437	-0.280
-228.742	-200.000	0.007	-0.278
-227.727	800.000	0.106	0.360
-226.713	232.857	0.222	0.362
-225.698	-127.801	0.221	0.031
-224.684	-82.602	-0.055	-0.018
-223.669	43.439	-0.092	0.083
-222.655	518.035	-0.068	0.158
-221.640	-79.618	-0.144	0.048
-220.625	-28.606	0.116	0.066
-219.611	-200.000	-0.008	0.066
-218.596	-200.000	-0.001	0.261
-217.582	-34.167	0.366	0.199
-216.567	-101.866	-0.207	-0.050
-215.552	11.699	0.270	-0.205
-214.538	800.000	0.024	0.093
-213.523	-200.000	-0.029	0.386
-212.509	39.998	0.092	0.082
-211.494	-43.363	0.171	-0.085
-210.479	-200.000	0.029	-0.197
-209.465	-119.211	-0.083	0.014
-208.450	73.098	0.085	-0.088
-207.436	-133.856	0.043	-0.005
-206.421	-200.000	0.009	0.062
-205.406	-58.854	-0.308	0.132
-204.392	41.753	0.118	-0.106
-203.377	177.500	0.167	-0.241
-202.363	-30.189	-0.146	0.082
-201.348	-82.797	0.230	0.074
-200.333	130.029	-0.016	0.020
-199.319	477.609	-0.086	0.192
-198.304	800.000	0.042	0.169
-197.290	800.000	-0.060	-0.205
-196.275	20.469	0.061	-0.049
-195.260	-200.000	0.057	0.288
-194.246	236.510	-0.092	0.150
-193.231	162.058	-0.056	0.077
-192.217	-19.302	0.206	-0.127
-191.202	-200.000	0.012	-0.092
-190.187	172.791	0.186	-0.264
-189.173	173.261	0.170	-0.243
-188.158	-23.718	-0.234	0.139
-187.144	11.649	-0.199	0.151
-186.129	-155.851	0.098	0.006
-185.114	-100.956	0.168	0.041
-184.100	12.927	-0.085	0.065
-183.085	72.824	-0.209	0.216
-182.071	-200.000	0.025	-0.137
-181.056	353.661	0.077	-0.151
-180.042	-200.000	0.023	0.136
-179.027	445.766	-0.083	0.180
-178.012	-98.244	-0.102	-0.026
-176.998	-200.000	0.020	-0.269
-175.983	-99.616	0.148	-0.037
-174.969	-9.571	0.217	0.143
-173.954	397.972	0.060	0.123
-172.939	103.998	0.220	-0.255
-171.925	-151.181	0.222	0.016
-170.910	-114.762	0.235	-0.044
-169.896	-93.678	0.304	-0.083
-168.881	64.461	0.065	-0.065
-167.866	-87.186	0.103	0.031
-166.852	-61.329	-0.205	0.085
-165.837	739.728	-0.067	-0.178
-164.823	-200.000	-0.024	0.460
-163.808	-200.000	0.039	-0.202
-162.793	-91.427	-0.360	-0.102
-161.779	594.233	0.136	-0.331
-160.764	-200.000	-0.027	-0.147
-159.750	-95.690	0.332	-0.088
-158.735	-117.350	-0.491	0.088
-157.720	800.000	0.120	0.377
-156.706	800.000	-0.048	0.158
-155.691	-200.000	0.019	0.196
-154.677	36.589	0.052	-0.045
-153.662	628.015	0.115	-0.287
-152.647	-200.000	-0.041	-0.226
-151.633	135.806	0.272	-0.350
-150.618	166.534	0.159	-0.223
-149.604	-94.290	0.227	0.061
-148.589	252.275	0.073	-0.123
-147.574	268.904	0.074	0.128
-146.560	42.669	-0.260	0.234
-145.545	428.143	-0.164	-0.350
-144.531	-200.000	-0.019	-0.160
-143.516	-200.000	-0.002	0.137
-142.502	-78.027	0.243	0.082
-141.487	-144.895	-0.135	-0.012
-140.472	34.670	0.118	-0.101
-139.458	-83.834	-0.193	-0.061
-138.443	-200.000	-0.020	-0.163
-137.429	-143.307	-0.200	0.019
-136.414	267.667	0.066	-0.114
-135.399	125.316	0.037	-0.046
-134.385	268.480	-0.084	-0.145
-133.370	-200.000	-0.038	0.312
-132.356	-144.594	-0.306	-0.028
-131.341	-30.046	0.081	-0.045
-130.326	549.785	-0.070	0.166
-129.312	800.000	0.025	0.101
-128.297	-70.936	-0.209	-0.078
-127.283	-200.000	-0.063	0.421
-126.268	-96.562	0.321	0.084
-125.253	214.891	0.203	-0.317
-124.239	800.000	-0.080	0.237
-123.224	-126.851	-0.251	-0.037
-122.210	450.464	0.059	0.128
-121.195	-129.410	-0.304	-0.042
-120.180	-159.901	0.158	-0.009
-119.166	53.367	-0.211	-0.200
-118.151	716.128	0.119	-0.311
-117.137	258.630	-0.153	0.260
-116.122	50.009	0.187	0.174
-115.107	80.539	-0.172	-0.182
-114.093	-30.911	-0.109	0.061
-113.078	-36.993	-0.095	0.050
-112.064	-153.321	-0.202	0.014
-111.049	-47.282	-0.037	-0.018
-110.034	-108.157	-0.245	0.052
-109.020	800.000	0.030	-0.090
-108.005	13.330	0.258	0.197
-106.991	-13.080	-0.062	-0.039
-105.976	-133.629	0.349	-0.043
-104.962	-51.713	0.333	0.153
-103.947	34.512	-0.400	0.344
-102.932	-151.198	0.146	0.011
-101.918	-43.310	-0.232	-0.116
-100.903	-200.000	-0.000	-0.058
-99.889	-200.000	0.029	-0.222
-98.874	-200.000	-0.023	0.318
-97.859	-132.982	-0.060	0.007
-96.845	325.940	0.005	0.010
-95.830	-200.000	0.074	0.510
-94.816	452.299	0.131	0.285
-93.801	-200.000	-0.018	-0.202
-92.786	71.339	-0.119	-0.122
-91.772	800.000	0.056	-0.188
-90.757	18.128	0.076	-0.059
-89.743	-128.654	0.105	-0.015
-88.728	701.435	-0.037	-0.097
-87.713	108.050	-0.154	0.181
-86.699	255.001	-0.150	-0.253
-85.684	-200.000	0.014	-0.149
-84.670	21.557	0.177	-0.142
-83.655	-109.860	0.114	0.023
-82.640	370.812	0.046	0.092
-81.626	-43.914	0.098	-0.048
-80.611	800.000	-0.116	-0.342
-79.597	-124.287	-0.273	-0.042
-78.582	155.462	0.033	0.044
-77.567	-200.000	-0.030	-0.175
-76.553	-82.276	-0.218	0.070
-75.538	-86.540	-0.291	0.088
-74.524	-116.256	0.232	0.042
-73.509	437.064	0.143	0.307
-72.494	-200.000	-0.392	-0.001
-71.480	-121.764	0.379	0.062
-70.465	-30.224	0.167	-0.093
-69.451	-129.984	0.102	-0.014
-68.436	-83.470	-0.084	-0.026
-67.422	-164.303	-0.150	-0.007
-66.407	330.867	-0.041	-0.078
-65.392	-53.944	-0.222	-0.099
-64.378	92.735	-0.207	0.230
-63.363	-89.372	-0.245	-0.071
-62.349	41.503	0.319	0.284
-61.334	31.001	-0.842	-0.710
-60.319	68.144	0.175	0.177
-59.305	800.000	-0.296	-0.861
-58.290	440.474	0.585	1.257
-57.276	497.623	0.687	1.555
-56.261	-200.000	89.658	526.472
-55.246	519.805	1366.505	3149.380
-54.232	153.443	2582.657	3477.442
-53.217	110.929	2296.825	2718.856
-52.203	46.565	1915.554	1748.139
-51.188	40.260	1706.768	1509.662
-50.173	37.391	1662.324	1448.938
-49.159	53.374	1708.771	1610.536
-48.144	56.988	1726.706	1654.673
-47.130	39.846	1684.739	1486.819
-46.115	36.968	1669.610	1451.891
-45.100	36.795	1664.125	1445.773
-44.086	36.754	1661.634	1443.244
-43.071	36.781	1658.733	1440.871
-42.057	36.697	1656.385	1438.149
-41.042	36.768	1654.582	1437.053
-40.027	36.722	1653.285	1435.530
-39.013	36.650	1651.054	1433.005
-37.998	36.606	1649.577	1431.337
-36.984	36.704	1647.810	1430.469
-35.969	36.877	1646.220	1430.310
-34.954	36.898	1644.616	1429.019
-33.940	36.958	1642.306	1427.397
-32.925	36.856	1640.946	1425.402
-31.911	36.899	1639.386	1424.308
-30.896	36.792	1637.676	1421.985
-29.881	36.867	1635.915	1420.946
-28.867	36.818	1634.198	1419.042
-27.852	36.862	1632.842	1418.127
-26.838	36.866	1631.533	1416.965
-25.823	36.938	1630.230	1416.306
-24.809	36.929	1628.995	1415.111
-23.794	36.982	1626.640	1413.392
-22.779	36.864	1625.446	1411.443
-21.765	36.888	1623.956	1410.268
-20.750	36.947	1622.357	1409.246
-19.736	36.951	1621.162	1408.184
-18.721	36.900	1619.909	1406.668
-17.706	36.999	1617.887	1405.579
-16.692	36.917	1616.647	1403.845
-15.677	36.866	1615.905	1402.776
-14.663	36.923	1613.919	1401.414
-13.648	36.842	1612.914	1399.899
-12.633	36.935	1611.353	1399.161
-11.619	36.924	1609.578	1397.483
-10.604	36.895	1608.345	1396.149
-9.590	36.928	1607.321	1395.444
-8.575	37.005	1605.250	1394.140
-7.560	36.925	1604.633	1392.975
-6.546	36.899	1603.382	1391.650
-5.531	36.905	1602.181	1390.589
-4.517	36.800	1601.541	1389.225
-3.502	36.870	1600.419	1388.705
-2.487	36.892	1598.858	1387.447
-1.473	36.596	1587.120	1375.104
-0.458	33.616	1567.026	1336.679
0.556	29.616	1566.607	1302.464
1.571	26.976	1590.341	1303.157
2.586	26.429	1604.011	1310.274
3.600	23.392	1551.189	1245.702
4.615	13.142	1437.678	1087.315
5.629	3.538	1367.744	973.937
6.644	1.737	1358.495	955.964
7.659	1.525	1357.415	953.790
8.673	1.451	1356.307	952.466
9.688	1.318	1354.558	950.321
10.702	1.217	1351.114	947.191
11.717	4.885	1359.148	975.743
12.731	15.259	1379.087	1055.607
13.746	23.683	1392.454	1119.077
14.761	25.354	1395.312	1131.815
15.775	25.728	1394.202	1133.169
16.790	25.777	1394.029	1133.232
17.804	25.753	1393.586	1132.626
18.819	25.924	1393.504	1133.535
19.834	26.040	1393.055	1133.796
20.848	26.101	1391.893	1133.131
21.863	26.111	1390.749	1132.164
22.877	26.100	1390.085	1131.452
23.892	26.123	1389.158	1130.741
24.907	26.137	1388.316	1130.043
25.921	26.193	1387.091	1129.298
26.936	26.062	1386.662	1128.034
27.950	26.112	1385.660	1127.428
28.965	26.154	1383.895	1126.155
29.980	26.111	1382.724	1124.833
30.994	26.102	1381.610	1123.772
32.009	26.169	1380.001	1122.783
33.023	26.132	1379.507	1122.047
34.038	26.209	1377.892	1121.114
35.053	26.131	1376.960	1119.771
36.067	26.020	1376.656	1118.737
37.082	26.151	1375.149	1118.226
38.096	26.066	1374.757	1117.285
39.111	26.111	1373.577	1116.501
40.126	26.127	1372.531	1115.654
41.140	26.101	1372.122	1115.060
42.155	26.159	1371.731	1115.006
43.169	26.128	1371.812	1114.777
44.184	26.032	1371.964	1114.210
45.199	26.025	1371.632	1113.800
46.213	26.147	1370.817	1113.792
47.228	26.109	1369.654	1112.514
48.242	26.048	1368.713	1111.275
49.257	26.053	1367.182	1109.968
50.271	26.111	1365.603	1108.944
51.286	26.108	1364.612	1108.021
52.301	26.128	1362.978	1106.719
53.315	26.073	1362.474	1105.871
54.330	26.080	1361.895	1105.350
55.344	26.080	1360.700	1104.279
56.359	26.069	1359.528	1103.164
57.374	26.111	1358.339	1102.361
58.388	26.041	1358.109	1101.648
59.403	26.120	1357.645	1101.657
60.417	26.046	1356.818	1100.434
61.432	26.052	1356.093	1099.786
62.447	26.077	1354.775	1098.771
63.461	26.002	1354.479	1097.978
64.476	26.045	1352.905	1096.867
65.490	26.064	1351.977	1096.131
66.505	26.156	1350.016	1095.005
67.520	26.014	1349.476	1093.606
68.534	26.097	1347.942	1092.774
69.549	26.182	1347.150	1092.545
70.563	26.204	1346.256	1091.861
71.578	26.152	1345.196	1090.590
72.593	26.208	1343.957	1089.828
73.607	26.078	1344.084	1089.046
74.622	26.040	1343.557	1088.293
75.636	26.148	1342.163	1087.717
76.651	26.098	1341.396	1086.702
77.666	26.072	1341.220	1086.303
78.680	26.022	1340.711	1085.495
79.695	26.125	1339.978	1085.428
80.709	26.124	1339.455	1084.897
81.724	26.127	1338.232	1083.834
82.739	26.071	1337.049	1082.440
83.753	26.093	1336.224	1081.811
84.768	26.077	1334.873	1080.526
85.782	26.059	1333.991	1079.607
86.797	26.124	1332.571	1078.750
87.812	26.121	1331.752	1077.977
88.826	26.147	1330.784	1077.251
89.841	26.197	1329.554	1076.457
90.855	26.150	1328.996	1075.632
91.870	26.172	1328.159	1074.987
92.884	26.119	1327.176	1073.785
93.899	26.167	1326.492	1073.419
94.914	26.060	1325.698	1072.046
95.928	26.140	1324.803	1071.704
96.943	26.078	1324.435	1070.943
97.957	26.099	1323.594	1070.293
98.972	26.129	1322.712	1069.659
99.987	26.120	1321.898	1068.856
101.001	26.182	1320.493	1067.994
102.016	26.168	1319.618	1067.108
103.030	26.155	1318.783	1066.264
104.045	26.154	1318.184	1065.677
105.060	26.093	1317.695	1064.827
106.074	26.224	1316.283	1064.362
107.089	26.225	1315.169	1063.373
108.103	26.114	1314.464	1062.055
109.118	26.186	1313.380	1061.512
110.133	26.268	1311.407	1060.304
111.147	26.302	1310.595	1059.755
112.162	26.271	1309.346	1058.467
113.176	26.220	1308.695	1057.547
114.191	26.216	1307.919	1056.804
115.206	26.278	1306.907	1056.258
116.220	26.237	1305.646	1054.906
117.235	26.180	1305.429	1054.303
118.249	26.115	1304.365	1052.970
119.264	26.274	1303.082	1052.767
120.279	26.163	1302.601	1051.638
121.293	26.272	1301.965	1051.666
122.308	26.263	1300.968	1050.717
123.322	26.417	1299.737	1050.525
124.337	26.370	1299.013	1049.572
125.352	26.360	1298.443	1048.965
126.366	26.211	1297.873	1047.547
127.381	26.237	1296.911	1046.829
128.395	26.267	1295.776	1045.991
129.410	26.274	1294.816	1045.164
130.424	26.208	1294.576	1044.494
131.439	26.256	1293.414	1043.745
132.454	26.292	1292.757	1043.330
133.468	26.297	1292.534	1043.088
134.483	26.338	1291.289	1042.224
135.497	26.295	1290.713	1041.420
136.512	26.374	1289.568	1040.857
137.527	26.407	1288.039	1039.723
138.541	26.219	1287.399	1038.034
139.556	26.298	1286.058	1037.313
140.570	26.283	1285.135	1036.395
141.585	26.272	1284.297	1035.563
142.600	26.216	1283.274	1034.325
143.614	26.320	1282.236	1033.994
144.629	26.170	1281.516	1032.463
145.643	26.208	1280.352	1031.652
146.658	26.210	1278.989	1030.469
147.673	26.267	1278.330	1030.175
148.687	26.229	1277.328	1029.060
149.702	26.186	1276.406	1027.983
150.716	26.241	1275.023	1027.090
151.731	26.171	1274.348	1026.057
152.746	26.246	1273.326	1025.570
153.760	26.347	1272.049	1025.024
154.775	26.215	1271.547	1023.778
155.789	26.249	1269.936	1022.583
156.804	26.216	1269.461	1021.925
157.819	26.191	1268.636	1021.026
158.833	26.281	1267.686	1020.678
159.848	26.268	1267.071	1020.023
160.862	26.327	1266.510	1019.810
161.877	26.382	1265.347	1019.098
162.892	26.360	1264.649	1018.319
163.906	26.386	1263.814	1017.704
164.921	26.365	1263.036	1016.871
165.935	26.377	1262.294	1016.249
166.950	26.374	1261.906	1015.832
167.964	26.390	1261.180	1015.245
168.979	26.405	1260.622	1014.790
169.994	26.437	1259.808	1014.224
171.008	26.424	1259.428	1013.759
172.023	26.395	1258.803	1013.000
173.037	26.413	1258.072	1012.422
174.052	26.469	1256.544	1011.418
175.067	26.446	1256.277	1010.986
176.081	26.388	1255.647	1010.065
177.096	26.398	1254.770	1009.325
178.110	26.301	1254.158	1008.201
179.125	26.471	1252.688	1007.879
180.140	26.405	1251.861	1006.758
181.154	26.353	1251.144	1005.802
182.169	26.358	1249.769	1004.636
183.183	26.435	1248.804	1004.197
184.198	26.494	1247.488	1003.380
185.213	26.336	1246.959	1001.991
186.227	26.490	1246.267	1002.194
187.242	26.421	1245.268	1000.925
188.256	26.473	1244.252	1000.305
189.271	26.558	1243.386	999.990
190.286	26.518	1242.750	999.169
191.300	26.501	1242.224	998.566
192.315	26.536	1241.773	998.307
193.329	26.381	1241.302	996.987
194.344	26.492	1240.555	996.906
195.359	26.511	1240.428	996.822
196.373	26.453	1239.994	996.065
197.388	26.487	1239.248	995.568
198.402	26.407	1238.932	994.783
199.417	26.364	1238.931	994.460
200.432	26.600	1237.916	994.851
201.446	26.421	1237.451	993.410
202.461	26.488	1236.198	992.682
203.475	26.571	1235.587	992.560
204.490	26.441	1234.880	991.192
205.504	26.443	1233.776	990.227
206.519	26.450	1232.856	989.439
207.534	26.501	1232.178	989.087
208.548	26.493	1231.353	988.294
209.563	26.543	1230.269	987.608
210.577	26.592	1229.773	987.388
211.592	26.654	1228.686	986.767
212.607	26.647	1227.939	986.041
213.621	26.595	1227.213	985.092
214.636	26.568	1226.512	984.293
215.650	26.634	1225.598	983.832
216.665	26.548	1224.723	982.576
217.680	26.534	1224.268	982.045
218.694	26.603	1223.026	981.339
219.709	26.715	1222.128	981.137
220.723	26.748	1221.369	980.619
221.738	26.562	1221.200	979.388
222.753	26.493	1220.283	978.193
223.767	26.547	1219.556	977.820
224.782	26.600	1219.155	977.696
225.796	26.666	1218.907	977.767
226.811	26.676	1218.300	977.250
227.826	26.725	1217.580	976.845
228.840	26.781	1216.639	976.307
229.855	26.702	1216.072	975.338
230.869	26.686	1215.508	974.715
231.884	26.728	1214.653	974.169
232.899	26.673	1214.341	973.536
233.913	26.701	1213.199	972.685
234.928	26.662	1212.926	972.171
235.942	26.724	1212.621	972.176
236.957	26.751	1211.741	971.526
237.972	26.635	1211.355	970.511
238.986	26.805	1210.251	970.452
240.001	26.777	1209.841	969.885
241.015	26.766	1209.009	969.075
242.030	26.723	1208.533	968.377
243.045	26.848	1207.459	968.097
244.059	26.900	1206.336	967.387
245.074	26.963	1205.829	967.233
246.088	26.814	1205.235	965.875
247.103	26.874	1204.253	965.322
248.117	26.769	1203.737	964.267
249.132	26.919	1203.054	964.430
250.147	26.906	1202.550	963.871
251.161	26.940	1201.608	963.214
252.176	26.833	1200.668	961.808
253.190	27.009	1199.867	962.014
254.205	26.978	1199.520	961.483
255.220	26.984	1198.617	960.706
256.234	26.955	1198.089	960.049
257.249	26.974	1197.803	959.833
258.263	26.950	1197.132	959.082
259.278	27.022	1196.919	959.210
260.293	27.026	1196.294	958.642
261.307	26.942	1195.904	957.804
262.322	27.032	1194.874	957.366
263.336	26.996	1194.123	956.492
264.351	27.002	1193.848	956.218
265.366	27.038	1192.873	955.540
266.380	27.112	1192.287	955.379
267.395	27.004	1191.932	954.442
268.409	27.032	1190.986	953.748
269.424	26.936	1190.957	953.132
270.439	27.056	1190.045	952.947
271.453	27.055	1189.696	952.580
272.468	26.970	1188.628	951.198
273.482	26.962	1187.933	950.515
274.497	27.089	1187.361	950.637
275.512	27.172	1186.834	950.566
276.526	27.051	1186.314	949.434
277.541	26.998	1185.758	948.624
278.555	27.085	1184.854	948.271
279.570	27.113	1184.025	947.668
280.585	27.165	1183.316	947.293
281.599	27.150	1182.229	946.257
282.614	27.148	1181.535	945.607
283.628	27.075	1180.890	944.630
284.643	27.204	1179.915	944.437
285.657	27.258	1179.031	943.925
286.672	27.225	1177.547	942.483
287.687	27.161	1177.593	942.106
288.701	27.171	1176.827	941.459
289.716	27.249	1176.193	941.272
290.730	27.171	1175.652	940.351
291.745	27.162	1174.985	939.693
292.760	27.310	1174.201	939.745
293.774	27.236	1174.206	939.282
294.789	27.269	1173.332	938.669
295.803	27.376	1172.479	938.460
296.818	27.353	1171.779	937.696
297.833	27.335	1171.348	937.174
298.847	27.384	1170.574	936.726
299.862	27.389	1169.950	936.169
300.876	27.316	1169.393	935.263
301.891	27.366	1168.554	934.767
302.906	27.336	1168.081	934.151
303.920	27.384	1167.417	933.784
304.935	27.401	1166.541	933.092
305.949	27.400	1166.147	932.688
306.964	27.348	1165.635	931.926
307.979	27.409	1165.082	931.715
308.993	27.392	1164.304	930.922
310.008	27.571	1163.143	930.828
311.022	27.499	1162.655	929.990
312.037	27.456	1161.917	929.097
313.052	27.497	1161.114	928.580
314.066	27.482	1159.973	927.511
315.081	27.393	1159.642	926.710
316.095	27.453	1159.266	926.631
317.110	27.489	1158.308	925.965
318.125	27.507	1157.904	925.653
319.139	27.506	1157.008	924.850
320.154	27.576	1156.331	924.583
321.168	27.574	1155.784	924.052
322.183	27.462	1155.451	923.137
323.197	27.566	1154.534	922.850
324.212	27.376	1154.708	921.947
325.227	27.492	1153.949	921.844
326.241	27.725	1152.935	922.129
327.256	27.740	1152.438	921.728
328.270	27.494	1151.777	919.876
329.285	27.704	1150.686	919.981
330.300	27.581	1150.278	918.954
331.314	27.633	1149.211	918.282
332.329	27.683	1148.289	917.715
333.343	27.757	1147.376	917.278
334.358	27.680	1146.710	916.277
335.373	27.748	1146.511	916.380
336.387	27.652	1145.951	915.368
337.402	27.758	1145.122	915.156
338.416	27.784	1144.402	914.630
339.431	27.780	1143.741	913.999
340.446	27.835	1143.165	913.735
341.460	27.710	1142.702	912.656
342.475	27.771	1141.609	912.007
343.489	27.851	1140.687	911.591
344.504	27.829	1139.832	910.716
345.519	27.791	1139.081	909.846
346.533	27.818	1138.280	909.264
347.548	27.704	1138.204	908.551
348.562	27.863	1137.030	908.325
349.577	27.865	1136.032	907.457
350.592	27.736	1135.339	906.186
351.606	27.712	1135.109	905.801
352.621	27.899	1134.251	905.962
353.635	27.833	1133.691	905.108
354.650	27.931	1132.951	904.922
355.665	28.048	1132.187	904.815
356.679	27.912	1131.750	903.711
357.694	27.937	1131.157	903.281
358.708	27.892	1130.572	902.513
359.723	27.868	1129.789	901.690
360.738	27.837	1129.317	901.080
361.752	27.977	1128.616	901.128
362.767	27.943	1127.922	900.330
363.781	28.076	1127.279	900.392
364.796	27.972	1127.135	899.682
365.810	27.912	1126.730	898.988
366.825	28.001	1125.947	898.719
367.840	28.210	1124.950	898.873
368.854	28.161	1124.791	898.425
369.869	28.176	1124.024	897.802
370.883	28.155	1123.196	896.959
371.898	28.090	1122.571	896.063
372.913	28.149	1122.081	895.881
373.927	28.043	1121.898	895.139
374.942	28.185	1121.083	895.103
375.956	28.224	1120.443	894.704
376.971	28.157	1120.254	894.145
377.986	28.170	1119.391	893.440
379.000	28.211	1118.911	893.179
380.015	28.234	1118.557	892.933
381.029	28.290	1118.025	892.697
382.044	28.243	1117.147	891.692
383.059	28.343	1116.531	891.607
384.073	28.359	1115.711	890.949
385.088	28.300	1114.872	889.916
386.102	28.339	1114.151	889.448
387.117	28.318	1113.092	888.424
388.132	28.266	1112.445	887.575
389.146	28.297	1111.995	887.291
390.161	28.310	1111.165	886.613
391.175	28.489	1109.919	886.403
392.190	28.401	1109.836	885.833
393.205	28.282	1109.071	884.569
394.219	28.357	1108.205	884.165
395.234	28.486	1107.263	883.954
396.248	28.391	1106.475	882.793
397.263	28.349	1106.155	882.255
398.278	28.449	1105.633	882.245
399.292	28.436	1104.794	881.434
400.307	28.367	1104.487	880.779
401.321	28.548	1103.297	880.618
402.336	28.544	1102.752	880.088
403.350	28.642	1102.103	879.960
404.365	28.561	1101.634	879.122
405.380	28.558	1101.135	878.632
406.394	28.613	1100.579	878.372
407.409	28.583	1099.272	877.109
408.423	28.621	1098.863	876.885
409.438	28.663	1098.252	876.522
410.453	28.635	1097.551	875.749
411.467	28.619	1097.028	875.181
412.482	28.675	1096.373	874.845
413.496	28.671	1095.313	873.905
414.511	28.551	1094.923	872.947
415.526	28.684	1094.296	873.002
416.540	28.708	1094.048	872.841
417.555	28.661	1093.730	872.287
418.569	28.686	1093.142	871.859
419.584	28.767	1092.501	871.653
420.599	28.801	1092.116	871.432
421.613	99.082	1313.642	1429.410
422.628	92.478	1345.882	1429.525
