DTS Sentinel unit serial number:	SN413079Multiplexer serial number:	ORYXHardware model number:	OX4-SRSoftware version number:	ORYX F/W v4.00 Oryx Data Collector v3.7.2.0data status	okinstallation	princeton_trtdifferential loss correction	single-endedforward channel	channel 2reverse channel	N/Adate	2019/09/16time	15:07:35forward acquisition time	60.00reverse acquisition time	0.00gamma	496.2192k internal	0.2299k external	0.2299temperature offset calibration	0.9939default loss term (dB/km)	0.3790temperature slope calibration	1.0000multiplexer offset coefficient	1.0000multiplexer slope coefficient	1.0000fibre end	0.00T internal ref (°C)	41.12T ext. ref 1 (°C)	14.51T ext. ref 2 (°C)	36.43length (m)	temperature (°C)	Stokes	anti-Stokes-747.200	-9.440	0.160	-0.109
-746.185	-200.000	0.000	0.194
-745.171	-103.724	0.167	0.040
-744.156	274.745	0.221	0.399
-743.142	90.855	-0.077	-0.088
-742.127	73.381	0.272	0.291
-741.112	35.842	0.300	-0.269
-740.098	-200.000	0.001	0.006
-739.083	800.000	-0.025	-0.080
-738.069	-200.000	0.058	0.332
-737.054	-124.847	0.297	-0.047
-736.039	0.778	0.075	-0.055
-735.025	-49.137	0.066	0.032
-734.010	-200.000	-0.025	-0.161
-732.996	-115.738	-0.106	-0.020
-731.981	58.919	0.234	0.234
-730.966	202.063	0.146	0.229
-729.952	141.649	-0.077	-0.104
-728.937	-200.000	-0.009	-0.255
-727.923	-131.429	-0.082	-0.011
-726.908	13.873	-0.098	-0.078
-725.894	17.460	-0.216	0.175
-724.879	330.985	0.177	-0.347
-723.864	-122.907	0.255	0.042
-722.850	-38.401	0.566	0.305
-721.835	-55.975	-0.198	-0.090
-720.821	563.378	-0.105	-0.259
-719.806	240.162	-0.076	-0.128
-718.791	-200.000	-0.001	-0.274
-717.777	160.575	-0.032	-0.046
-716.762	-150.915	-0.196	0.015
-715.748	-12.154	-0.178	-0.119
-714.733	-84.130	-0.214	0.069
-713.718	67.249	-0.131	-0.136
-712.704	125.528	0.116	-0.149
-711.689	-66.302	-0.257	-0.104
-710.675	177.741	-0.047	0.069
-709.660	112.650	0.273	0.337
-708.645	337.730	-0.120	0.237
-707.631	174.884	0.080	0.119
-706.616	-193.411	-0.190	-0.002
-705.602	205.899	-0.119	0.189
-704.587	233.925	-0.157	0.264
-703.572	13.739	0.109	0.086
-702.558	-152.947	0.065	-0.005
-701.543	-200.000	0.028	-0.473
-700.529	13.501	0.294	-0.232
-699.514	-118.417	-0.418	-0.075
-698.499	-117.251	-0.350	0.065
-697.485	-200.000	-0.043	-0.399
-696.470	-200.000	-0.067	-0.354
-695.456	-69.192	-0.217	0.085
-694.441	-182.048	0.265	-0.005
-693.426	-200.000	-0.036	-0.260
-692.412	-145.847	-0.222	-0.020
-691.397	-52.178	-0.105	-0.050
-690.383	-98.920	0.079	-0.021
-689.368	-200.000	-0.025	-0.121
-688.354	-47.102	-0.079	0.039
-687.339	800.000	-0.042	-0.162
-686.324	800.000	0.073	0.308
-685.310	26.271	-0.068	-0.058
-684.295	14.026	-0.056	-0.044
-683.281	-53.923	-0.226	-0.105
-682.266	21.997	-0.084	-0.070
-681.251	55.751	-0.243	-0.240
-680.237	-149.256	0.235	0.019
-679.222	800.000	-0.109	0.391
-678.208	19.039	-0.229	-0.187
-677.193	5.992	-0.062	-0.047
-676.178	134.959	-0.188	-0.249
-675.164	-46.393	0.365	-0.183
-674.149	-117.655	-0.039	0.007
-673.135	778.679	-0.032	0.090
-672.120	213.265	-0.152	-0.245
-671.105	439.081	0.025	-0.056
-670.091	91.493	0.086	0.099
-669.076	-18.584	0.112	-0.071
-668.062	-91.377	0.309	0.090
-667.047	21.719	-0.288	0.238
-666.032	-170.920	-0.182	0.006
-665.018	-2.419	-0.242	0.172
-664.003	-97.725	0.354	0.093
-662.989	-28.645	-0.259	-0.152
-661.974	33.812	0.129	-0.114
-660.959	-27.166	0.082	0.049
-659.945	800.000	-0.125	0.504
-658.930	27.142	-0.075	-0.064
-657.916	-36.518	0.212	0.116
-656.901	71.946	-0.092	0.097
-655.886	492.225	0.017	0.040
-654.872	93.623	-0.115	-0.133
-653.857	-200.000	-0.038	-0.172
-652.843	59.023	0.269	-0.269
-651.828	-200.000	-0.018	0.102
-650.814	221.478	-0.145	0.237
-649.799	435.824	-0.055	0.121
-648.784	-103.512	-0.150	-0.036
-647.770	-96.100	-0.243	-0.066
-646.755	194.799	-0.019	0.029
-645.741	-200.000	0.037	-0.338
-644.726	-11.798	0.104	0.069
-643.711	398.693	-0.079	-0.168
-642.697	-61.580	-0.238	-0.101
-641.682	270.545	-0.110	-0.197
-640.668	-200.000	0.005	-0.024
-639.653	-152.946	0.203	-0.015
-638.638	-61.240	-0.456	0.195
-637.624	800.000	0.067	-0.214
-636.609	-34.277	0.367	-0.205
-635.595	310.371	-0.046	-0.087
-634.580	800.000	-0.042	0.138
-633.565	60.252	0.045	0.045
-632.551	-200.000	-0.006	-0.239
-631.536	244.329	0.104	0.178
-630.522	-200.000	-0.020	0.218
-629.507	-4.107	-0.047	-0.033
-628.492	145.371	-0.066	0.090
-627.478	138.820	-0.129	0.172
-626.463	-124.922	-0.123	0.019
-625.449	282.777	-0.041	-0.075
-624.434	-9.591	-0.102	-0.069
-623.419	-5.062	-0.091	0.063
-622.405	-107.485	0.287	-0.064
-621.390	508.417	0.070	0.164
-620.376	270.257	0.205	-0.366
-619.361	-69.628	0.148	-0.057
-618.346	-96.425	-0.076	-0.020
-617.332	-55.490	0.299	0.136
-616.317	-6.054	-0.376	-0.261
-615.303	-200.000	-0.005	-0.197
-614.288	800.000	0.047	0.177
-613.273	18.138	-0.094	-0.076
-612.259	107.259	0.317	-0.383
-611.244	-200.000	-0.022	0.204
-610.230	13.773	-0.251	0.198
-609.215	-74.827	-0.184	0.067
-608.201	464.011	0.136	0.308
-607.186	-17.466	0.055	0.035
-606.171	600.153	0.178	-0.449
-605.157	-4.101	-0.277	0.195
-604.142	-16.651	0.187	-0.120
-603.128	-119.473	-0.076	0.013
-602.113	27.456	0.018	-0.015
-601.098	-56.930	-0.174	-0.078
-600.084	-72.099	0.390	0.147
-599.069	-105.684	-0.277	-0.064
-598.055	-200.000	0.077	-0.362
-597.040	-178.025	0.268	0.006
-596.025	310.558	0.140	0.265
-595.011	-128.516	-0.102	0.015
-593.996	77.702	-0.155	-0.167
-592.982	-153.918	0.194	-0.013
-591.967	-92.691	0.111	-0.031
-590.952	-200.000	-0.003	-0.064
-589.938	800.000	0.076	0.231
-588.923	-200.000	-0.029	0.177
-587.909	-200.000	0.105	0.537
-586.894	-78.050	-0.181	0.063
-585.879	16.239	0.127	0.102
-584.865	267.873	-0.029	-0.051
-583.850	-72.131	-0.293	0.110
-582.836	339.682	-0.027	-0.054
-581.821	163.254	-0.185	0.264
-580.806	800.000	-0.092	-0.300
-579.792	-143.067	0.268	-0.026
-578.777	-88.495	-0.180	-0.054
-577.763	-94.309	0.276	-0.076
-576.748	-200.000	-0.005	0.100
-575.733	-35.609	0.242	-0.133
-574.719	-112.008	-0.162	-0.033
-573.704	-24.170	-0.058	-0.035
-572.690	-69.585	0.297	-0.115
-571.675	126.535	0.078	0.100
-570.661	437.877	0.103	0.227
-569.646	-24.789	0.129	-0.078
-568.631	-200.000	-0.023	0.362
-567.617	63.665	-0.296	0.301
-566.602	33.724	0.158	0.139
-565.588	24.870	-0.242	-0.203
-564.573	267.080	-0.061	0.108
-563.558	-200.000	-0.004	-0.192
-562.544	46.128	-0.100	-0.093
-561.529	-200.000	0.002	-0.013
-560.515	-9.358	0.129	-0.087
-559.500	-42.155	-0.276	-0.143
-558.485	-101.739	0.111	0.027
-557.471	72.239	-0.316	0.333
-556.456	25.361	-0.124	0.104
-555.442	-200.000	-0.048	0.294
-554.427	-97.086	0.120	-0.032
-553.412	800.000	0.050	-0.198
-552.398	299.337	0.255	-0.475
-551.383	-140.144	0.160	0.017
-550.369	18.487	0.103	-0.083
-549.354	298.798	-0.015	-0.027
-548.339	800.000	-0.110	-0.413
-547.325	235.649	-0.272	-0.455
-546.310	800.000	-0.056	-0.159
-545.296	800.000	-0.126	0.421
-544.281	92.737	-0.020	-0.023
-543.266	-200.000	-0.003	0.057
-542.252	-33.389	-0.386	-0.216
-541.237	800.000	0.014	-0.061
-540.223	241.374	-0.091	-0.153
-539.208	177.822	0.130	-0.192
-538.193	107.706	-0.093	-0.112
-537.179	-56.666	-0.270	-0.121
-536.164	800.000	0.024	-0.078
-535.150	-97.511	-0.495	-0.130
-534.135	-73.303	0.114	0.042
-533.121	800.000	-0.018	-0.051
-532.106	14.523	0.236	-0.187
-531.091	-184.694	0.330	0.005
-530.077	17.640	0.512	0.412
-529.062	-114.958	0.261	-0.050
-528.048	-28.548	0.347	0.202
-527.033	476.764	-0.128	0.294
-526.018	-6.268	-0.192	-0.133
-525.004	-200.000	-0.030	0.263
-523.989	-90.899	0.198	0.058
-522.975	-38.774	-0.115	0.061
-521.960	800.000	-0.072	-0.289
-520.945	-200.000	0.039	-0.389
-519.931	-131.966	0.154	0.020
-518.916	-200.000	0.007	0.166
-517.902	800.000	-0.084	-0.254
-516.887	-200.000	0.029	0.000
-515.872	64.751	-0.123	0.126
-514.858	-200.000	-0.015	0.073
-513.843	-200.000	0.041	-0.296
-512.829	-122.260	0.181	-0.030
-511.814	-95.976	0.352	0.095
-510.799	-200.000	0.019	0.091
-509.785	182.496	0.282	0.421
-508.770	193.780	0.033	0.051
-507.756	-53.800	0.226	-0.104
-506.741	-200.000	-0.034	0.172
-505.726	42.534	-0.305	0.281
-504.712	96.277	-0.029	-0.034
-503.697	174.649	-0.117	-0.172
-502.683	-70.559	0.123	-0.047
-501.668	-200.000	-0.038	-0.205
-500.653	-124.550	-0.246	0.039
-499.639	-200.000	0.006	0.042
-498.624	-25.578	-0.239	0.143
-497.610	327.904	0.080	-0.156
-496.595	-87.686	0.149	0.045
-495.581	-163.722	-0.221	0.010
-494.566	-72.597	-0.200	0.075
-493.551	-50.966	-0.070	-0.033
-492.537	28.212	-0.210	0.179
-491.522	389.604	0.035	0.074
-490.508	618.738	0.138	0.351
-489.493	-146.430	0.243	0.021
-488.478	-103.171	-0.232	-0.055
-487.464	-16.293	-0.384	0.246
-486.449	-200.000	-0.049	0.234
-485.435	-165.270	0.008	-0.000
-484.420	-15.471	0.348	-0.224
-483.405	-139.728	-0.210	0.022
-482.391	-49.985	0.067	-0.032
-481.376	22.438	-0.245	-0.203
-480.362	271.745	0.092	-0.164
-479.347	-169.673	0.108	0.004
-478.332	-200.000	-0.020	0.140
-477.318	-154.238	-0.343	0.023
-476.303	-200.000	0.019	0.210
-475.289	632.605	-0.050	0.129
-474.274	-44.290	0.237	-0.120
-473.259	197.035	0.244	-0.375
-472.245	-122.980	0.224	0.036
-471.230	-88.611	-0.167	-0.050
-470.216	-200.000	0.036	0.172
-469.201	-200.000	-0.024	0.441
-468.186	-134.876	-0.204	0.025
-467.172	-127.544	-0.195	-0.029
-466.157	-111.962	0.239	0.049
-465.143	-124.661	-0.098	-0.015
-464.128	-23.319	-0.252	-0.153
-463.113	394.724	-0.044	0.094
-462.099	136.704	-0.077	0.101
-461.084	80.275	0.113	-0.122
-460.070	19.226	0.135	0.109
-459.055	762.879	-0.015	0.040
-458.040	800.000	-0.077	-0.335
-457.026	80.648	-0.067	-0.073
-456.011	-91.740	-0.064	-0.018
-454.997	-129.322	0.155	-0.022
-453.982	-156.687	-0.095	-0.006
-452.968	800.000	0.015	-0.049
-451.953	624.842	0.070	0.179
-450.938	257.167	0.086	0.149
-449.924	256.527	0.153	0.266
-448.909	12.282	-0.209	0.162
-447.895	-31.343	0.061	0.034
-446.880	304.508	0.277	0.519
-445.865	800.000	-0.056	-0.206
-444.851	-51.871	-0.112	0.053
-443.836	800.000	0.067	0.233
-442.822	-41.285	-0.341	-0.177
-441.807	-127.065	0.284	-0.042
-440.792	-131.494	-0.517	0.069
-439.778	-7.705	-0.064	0.043
-438.763	551.802	-0.039	0.095
-437.749	-200.000	0.034	0.402
-436.734	454.324	-0.177	-0.395
-435.719	287.383	-0.155	-0.282
-434.705	778.254	-0.070	0.192
-433.690	-200.000	0.000	-0.112
-432.676	-5.219	0.129	0.089
-431.661	-132.692	-0.052	-0.007
-430.646	220.835	-0.121	-0.196
-429.632	354.948	-0.058	-0.116
-428.617	-200.000	-0.030	-0.359
-427.603	344.170	-0.046	0.091
-426.588	-51.686	0.178	-0.083
-425.573	-180.015	0.111	0.002
-424.559	-73.108	-0.052	0.019
-423.544	-9.228	-0.140	-0.094
-422.530	77.966	0.080	-0.086
-421.515	2.794	-0.167	-0.122
-420.500	-22.990	0.203	0.123
-419.486	-124.655	-0.190	0.030
-418.471	-200.000	0.056	0.287
-417.457	-200.000	-0.036	0.289
-416.442	-26.008	0.143	0.084
-415.428	-141.904	-0.281	-0.028
-414.413	-43.997	0.097	0.049
-413.398	-2.030	0.083	0.058
-412.384	215.852	0.259	-0.414
-411.369	-187.544	-0.299	0.004
-410.355	-200.000	0.040	0.238
-409.340	-161.489	0.189	-0.010
-408.325	265.302	-0.158	-0.277
-407.311	-44.315	0.169	0.085
-406.296	-120.938	-0.013	-0.002
-405.282	-104.683	0.170	0.039
-404.267	800.000	-0.053	0.181
-403.252	-19.680	-0.204	0.127
-402.238	-200.000	-0.013	-0.071
-401.223	-200.000	0.354	0.001
-400.209	-25.691	-0.159	0.095
-399.194	-32.440	0.081	-0.046
-398.179	800.000	-0.078	0.291
-397.165	169.790	-0.131	-0.189
-396.150	-122.580	0.270	-0.044
-395.136	-36.657	0.202	0.109
-394.121	20.915	0.036	-0.029
-393.106	-62.957	0.196	0.081
-392.092	800.000	-0.065	0.247
-391.077	-97.850	-0.374	0.097
-390.063	662.620	0.018	-0.047
-389.048	142.921	-0.152	0.203
-388.033	-140.731	-0.243	-0.025
-387.019	253.180	-0.131	-0.225
-386.004	-200.000	-0.035	-0.241
-384.990	-140.996	-0.263	-0.027
-383.975	-200.000	-0.040	-0.205
-382.960	-45.767	-0.239	-0.119
-381.946	-200.000	-0.044	0.194
-380.931	-16.639	0.069	-0.044
-379.917	-200.000	0.012	-0.073
-378.902	89.250	0.064	-0.072
-377.888	-95.517	-0.411	-0.111
-376.873	-200.000	-0.038	-0.267
-375.858	-164.092	0.231	-0.011
-374.844	-200.000	0.012	0.093
-373.829	-10.818	-0.066	0.044
-372.815	800.000	0.067	-0.221
-371.800	800.000	0.070	-0.244
-370.785	75.523	-0.060	-0.063
-369.771	-200.000	0.027	0.318
-368.756	178.136	0.280	0.410
-367.742	-136.774	0.353	0.041
-366.727	-200.000	-0.071	0.405
-365.712	-43.015	-0.333	0.170
-364.698	-24.322	-0.319	-0.191
-363.683	32.214	0.103	0.090
-362.669	-25.155	-0.278	0.166
-361.654	-200.000	-0.053	-0.245
-360.639	800.000	0.027	0.074
-359.625	3.164	-0.119	-0.087
-358.610	-120.834	0.375	0.063
-357.596	305.473	0.159	0.297
-356.581	399.229	0.092	-0.194
-355.566	-155.074	-0.506	0.033
-354.552	-33.027	-0.232	-0.129
-353.537	623.746	-0.171	-0.434
-352.523	129.039	-0.079	0.102
-351.508	404.229	0.131	0.277
-350.493	-84.561	0.124	-0.039
-349.479	359.066	0.148	-0.297
-348.464	-200.000	0.068	-0.306
-347.450	-200.000	0.057	-0.253
-346.435	122.053	-0.162	0.203
-345.420	-51.261	-0.243	0.114
-344.406	63.319	0.068	0.069
-343.391	-48.140	-0.293	-0.142
-342.377	52.686	-0.310	-0.298
-341.362	-20.152	0.191	0.118
-340.348	800.000	0.173	-0.487
-339.333	389.317	-0.158	-0.329
-338.318	-46.257	0.219	-0.108
-337.304	165.410	0.188	0.267
-336.289	800.000	0.054	0.222
-335.275	-111.796	0.217	0.044
-334.260	-200.000	-0.052	-0.356
-333.245	-27.675	0.516	-0.301
-332.231	800.000	0.080	-0.271
-331.216	-154.144	0.294	0.020
-330.202	-114.600	-0.169	-0.032
-329.187	21.813	0.024	0.020
-328.172	305.046	-0.133	0.248
-327.158	66.040	-0.176	0.179
-326.143	-200.000	-0.029	-0.199
-325.129	59.713	0.193	0.191
-324.114	-57.828	-0.203	-0.089
-323.099	-14.187	0.080	0.052
-322.085	-200.000	0.051	-0.239
-321.070	315.924	-0.022	0.042
-320.056	-42.453	0.218	0.112
-319.041	-139.236	0.186	-0.020
-318.026	195.647	0.115	-0.175
-317.012	-200.000	-0.074	0.350
-315.997	-79.412	0.057	-0.019
-314.983	-186.217	0.177	-0.003
-313.968	13.466	0.116	-0.090
-312.953	-200.000	-0.009	0.423
-311.939	-80.234	0.114	0.038
-310.924	771.559	-0.053	-0.145
-309.910	-200.000	0.003	-0.275
-308.895	599.280	-0.080	-0.199
-307.880	-80.316	-0.052	0.018
-306.866	621.805	0.107	-0.270
-305.851	-110.229	0.151	-0.032
-304.837	294.286	0.085	0.156
-303.822	-123.343	-0.164	0.026
-302.807	38.853	0.198	0.178
-301.793	-16.046	0.149	0.095
-300.778	276.179	-0.079	0.141
-299.764	74.344	-0.124	0.131
-298.749	-87.440	-0.208	0.063
-297.735	-200.000	0.082	-0.451
-296.720	-190.546	-0.225	-0.002
-295.705	69.320	-0.160	0.165
-294.691	26.850	-0.463	-0.389
-293.676	-47.076	0.321	-0.157
-292.662	554.327	-0.072	0.173
-291.647	-22.356	0.147	0.089
-290.632	675.074	0.206	-0.537
-289.618	-50.356	0.179	-0.085
-288.603	-71.336	0.133	0.050
-287.589	295.773	-0.078	0.143
-286.574	270.386	0.148	0.261
-285.559	-83.240	-0.187	0.060
-284.545	335.243	0.192	0.373
-283.530	-91.463	0.132	-0.038
-282.516	-94.024	0.276	-0.076
-281.501	800.000	-0.087	0.322
-280.486	254.581	0.102	-0.174
-279.472	-200.000	0.007	-0.077
-278.457	27.099	-0.231	0.194
-277.443	-100.436	0.444	0.110
-276.428	213.966	0.138	-0.219
-275.413	348.087	-0.096	-0.190
-274.399	-123.884	-0.145	0.023
-273.384	-118.612	0.173	-0.031
-272.370	-138.948	-0.177	0.019
-271.355	17.726	-0.127	-0.101
-270.340	800.000	0.045	-0.153
-269.326	-200.000	0.001	0.096
-268.311	800.000	-0.038	0.165
-267.297	-32.127	-0.124	0.069
-266.282	40.860	-0.059	0.053
-265.267	774.083	0.033	-0.090
-264.253	-68.708	0.109	-0.042
-263.238	327.606	-0.113	0.217
-262.224	120.121	-0.088	0.109
-261.209	163.154	-0.058	0.081
-260.195	-42.889	-0.092	0.047
-259.180	-52.117	0.345	0.160
-258.165	-24.264	-0.314	0.188
-257.151	-161.494	-0.158	-0.008
-256.136	-139.699	-0.348	0.037
-255.122	269.916	-0.154	-0.271
-254.107	68.221	0.092	0.094
-253.092	56.547	0.173	-0.169
-252.078	222.194	0.139	-0.223
-251.063	-200.000	-0.008	-0.051
-250.049	-200.000	-0.053	0.266
-249.034	-8.641	-0.193	0.130
-248.019	-133.845	-0.251	0.031
-247.005	314.606	0.044	0.084
-245.990	-200.000	0.004	-0.127
-244.976	346.497	0.133	0.263
-243.961	43.082	0.056	-0.051
-242.946	800.000	0.046	-0.158
-241.932	-200.000	0.062	0.342
-240.917	-82.266	-0.255	-0.083
-239.903	-200.000	0.022	-0.294
-238.888	-40.732	0.264	-0.137
-237.873	-200.000	0.045	-0.324
-236.859	-107.917	-0.357	-0.078
-235.844	-25.363	-0.181	-0.107
-234.830	-148.206	0.339	-0.028
-233.815	82.149	0.326	0.354
-232.800	-168.139	0.339	-0.013
-231.786	-137.131	0.279	0.032
-230.771	-167.716	-0.292	-0.012
-229.757	-200.000	-0.036	0.217
-228.742	-29.854	-0.173	-0.098
-227.727	-191.601	0.154	-0.002
-226.713	-132.362	0.276	-0.036
-225.698	-200.000	0.064	-0.401
-224.684	-120.962	0.134	0.023
-223.669	-13.534	0.291	-0.188
-222.655	-124.499	-0.217	0.034
-221.640	-200.000	0.065	-0.396
-220.625	-8.964	0.117	0.078
-219.611	-131.884	-0.170	0.022
-218.596	155.130	0.119	0.164
-217.582	425.188	0.161	0.345
-216.567	-35.274	0.163	0.089
-215.552	434.660	0.125	-0.271
-214.538	178.046	0.080	0.116
-213.523	-50.830	-0.153	-0.072
-212.509	-200.000	-0.035	0.296
-211.494	800.000	0.076	0.318
-210.479	191.275	-0.043	-0.064
-209.465	-95.322	0.121	-0.033
-208.450	339.522	0.036	0.069
-207.436	88.417	-0.111	0.123
-206.421	120.271	-0.118	0.146
-205.406	-68.996	-0.127	-0.049
-204.392	-200.000	-0.074	0.326
-203.377	75.129	-0.213	0.224
-202.363	800.000	0.038	-0.127
-201.348	-136.219	0.248	-0.029
-200.333	-200.000	-0.040	0.369
-199.319	-41.328	0.132	0.068
-198.304	-200.000	0.010	-0.175
-197.290	201.756	-0.211	-0.325
-196.275	-166.329	0.127	-0.005
-195.260	625.909	-0.057	0.145
-194.246	31.694	-0.078	-0.067
-193.231	193.873	0.091	0.138
-192.217	36.768	-0.074	0.066
-191.202	-156.808	0.235	-0.014
-190.187	189.473	-0.080	-0.120
-189.173	-129.242	-0.258	0.036
-188.158	199.897	-0.113	-0.174
-187.144	151.641	-0.195	0.265
-186.129	-97.525	0.371	-0.096
-185.114	40.004	0.321	0.288
-184.100	-182.358	-0.417	0.008
-183.085	184.326	0.081	-0.120
-182.071	800.000	-0.045	0.160
-181.056	-4.882	0.259	0.178
-180.042	-200.000	0.061	0.284
-179.027	-200.000	-0.036	0.304
-178.012	70.648	-0.382	-0.395
-176.998	123.097	-0.138	-0.173
-175.983	377.426	0.074	0.150
-174.969	800.000	-0.024	0.102
-173.954	-200.000	-0.033	-0.222
-172.939	-28.999	0.062	-0.035
-171.925	-52.766	-0.127	-0.058
-170.910	800.000	0.061	-0.174
-169.896	-154.419	-0.193	0.013
-168.881	-133.510	-0.383	0.048
-167.866	-38.951	0.100	-0.052
-166.852	-200.000	-0.044	0.250
-165.837	-16.958	0.079	-0.050
-164.823	91.412	0.046	0.052
-163.808	-129.694	0.163	-0.022
-162.793	-69.679	0.395	-0.151
-161.779	-37.317	0.291	-0.155
-160.764	-200.000	-0.041	0.185
-159.750	352.442	-0.148	0.293
-158.735	-43.377	0.293	0.148
-157.720	304.943	0.124	-0.229
-156.706	539.452	-0.101	-0.239
-155.691	800.000	0.084	-0.235
-154.677	157.840	0.131	-0.181
-153.662	-111.663	0.293	-0.059
-152.647	72.296	-0.121	-0.126
-151.633	-120.862	-0.182	-0.031
-150.618	267.368	0.073	0.127
-149.604	-52.354	-0.126	-0.058
-148.589	17.167	0.128	-0.101
-147.574	-154.048	-0.230	-0.016
-146.560	-200.000	0.017	0.243
-145.545	9.910	0.375	-0.284
-144.531	800.000	-0.027	0.096
-143.516	300.514	0.182	0.334
-142.502	-200.000	-0.048	-0.366
-141.487	-112.924	-0.261	0.051
-140.472	-200.000	-0.016	-0.108
-139.458	-70.337	0.137	0.052
-138.443	-89.619	-0.077	-0.022
-137.429	-20.105	-0.209	0.128
-136.414	-184.961	-0.192	-0.003
-135.399	-62.345	0.169	0.070
-134.385	62.800	0.240	0.239
-133.370	-155.237	-0.018	-0.001
-132.356	-200.000	0.012	0.054
-131.341	-200.000	0.010	0.341
-130.326	-200.000	-0.032	-0.156
-129.312	120.607	0.121	-0.150
-128.297	11.996	-0.160	0.122
-127.283	-133.314	-0.118	0.015
-126.268	-73.015	0.177	0.065
-125.253	-111.667	-0.112	-0.023
-124.239	-200.000	0.055	0.244
-123.224	-66.373	-0.261	0.103
-122.210	109.285	-0.149	-0.177
-121.195	-166.886	0.141	-0.006
-120.180	698.195	-0.087	0.228
-119.166	-200.000	0.039	0.191
-118.151	198.575	0.183	-0.279
-117.137	49.899	0.184	0.173
-116.122	270.110	-0.064	-0.111
-115.107	-74.680	-0.132	-0.047
-114.093	61.796	-0.042	-0.042
-113.078	800.000	0.027	-0.094
-112.064	-63.521	0.163	0.067
-111.049	-130.429	0.153	-0.021
-110.034	-16.958	0.256	-0.161
-109.020	147.496	-0.140	-0.188
-108.005	800.000	0.048	0.192
-106.991	47.604	0.229	-0.213
-105.976	-200.000	0.006	0.108
-104.962	-200.000	-0.012	-0.083
-103.947	-99.711	0.167	0.042
-102.932	-86.278	-0.202	-0.062
-101.918	115.464	0.120	0.146
-100.903	-200.000	-0.043	0.211
-99.889	398.684	0.113	0.236
-98.874	441.116	0.050	-0.109
-97.859	-47.179	0.174	-0.085
-96.845	113.100	-0.165	0.199
-95.830	-46.256	-0.132	-0.064
-94.816	-100.475	-0.267	-0.066
-93.801	241.181	0.181	-0.301
-92.786	-93.883	0.417	0.114
-91.772	-200.000	0.027	0.183
-90.757	-91.560	-0.326	-0.093
-89.743	-41.563	-0.295	-0.151
-88.728	250.141	-0.134	-0.226
-87.713	-60.515	0.263	-0.111
-86.699	800.000	0.016	-0.063
-85.684	-133.958	0.413	-0.051
-84.670	1.423	0.176	-0.126
-83.655	-88.599	0.135	-0.040
-82.640	-24.057	-0.082	-0.048
-81.626	800.000	-0.037	0.148
-80.611	45.261	-0.139	-0.128
-79.597	-105.985	0.186	-0.042
-78.582	-127.892	0.202	0.029
-77.567	-200.000	-0.551	0.001
-76.553	-200.000	-0.026	0.284
-75.538	800.000	-0.061	-0.179
-74.524	-25.075	0.182	0.107
-73.509	-81.973	-0.191	-0.062
-72.494	800.000	-0.033	-0.132
-71.480	229.924	-0.077	-0.126
-70.465	-128.348	0.232	-0.033
-69.451	800.000	0.090	-0.304
-68.436	-200.000	0.012	-0.353
-67.422	302.789	0.217	0.399
-66.407	-77.646	-0.316	0.109
-65.392	545.028	0.127	0.302
-64.378	326.725	0.227	0.432
-63.363	137.989	-0.188	0.245
-62.349	73.675	-0.108	0.113
-61.334	-23.570	-0.814	-0.485
-60.319	-8.932	0.215	0.143
-59.305	800.000	-0.153	-0.627
-58.290	93.336	0.421	0.473
-57.276	800.000	0.452	1.530
-56.261	-200.000	77.149	522.712
-55.246	540.889	1311.475	3102.184
-54.232	148.796	2547.216	3419.398
-53.217	112.052	2348.276	2817.718
-52.203	50.495	1967.036	1847.290
-51.188	44.390	1756.536	1601.622
-50.173	41.570	1711.078	1538.418
-49.159	55.979	1745.994	1681.931
-48.144	61.143	1764.156	1739.403
-47.130	44.436	1727.958	1575.668
-46.115	41.135	1714.147	1537.570
-45.100	41.049	1709.462	1532.647
-44.086	40.942	1707.030	1529.582
-43.071	40.942	1704.383	1527.151
-42.057	40.935	1701.855	1524.773
-41.042	41.012	1699.691	1523.360
-40.027	40.944	1698.146	1521.394
-39.013	41.011	1695.973	1519.903
-37.998	40.950	1694.611	1518.156
-36.984	41.017	1692.592	1516.798
-35.969	41.103	1691.308	1516.240
-34.954	41.194	1689.655	1515.389
-33.940	41.091	1687.653	1512.756
-32.925	41.065	1686.051	1511.056
-31.911	41.158	1684.411	1510.236
-30.896	41.087	1682.563	1507.980
-29.881	41.131	1680.567	1506.466
-28.867	41.103	1678.762	1504.575
-27.852	41.128	1677.515	1503.588
-26.838	41.179	1676.516	1503.019
-25.823	41.183	1674.837	1501.484
-24.809	41.161	1673.585	1500.135
-23.794	41.190	1671.783	1498.679
-22.779	41.172	1670.540	1497.369
-21.765	41.126	1668.755	1495.367
-20.750	41.215	1667.110	1494.496
-19.736	41.155	1666.101	1493.081
-18.721	41.173	1664.451	1491.679
-17.706	41.235	1662.713	1490.530
-16.692	41.247	1660.666	1488.726
-15.677	41.080	1660.083	1486.895
-14.663	41.148	1658.532	1485.956
-13.648	41.098	1657.444	1484.545
-12.633	41.156	1655.509	1483.190
-11.619	41.040	1654.222	1481.112
-10.604	41.223	1652.170	1480.579
-9.590	41.148	1650.781	1478.712
-8.575	41.143	1649.337	1477.327
-7.560	41.090	1648.232	1475.882
-6.546	41.134	1647.157	1475.191
-5.531	41.180	1645.771	1474.233
-4.517	41.111	1644.327	1472.368
-3.502	41.039	1644.028	1471.507
-2.487	41.178	1642.269	1470.903
-1.473	40.895	1631.056	1458.726
-0.458	38.121	1610.030	1419.729
0.556	31.369	1607.981	1379.103
1.571	28.340	1630.750	1375.796
2.586	27.221	1644.128	1378.484
3.600	25.303	1594.425	1322.576
4.615	20.402	1489.318	1201.464
5.629	15.713	1424.724	1118.145
6.644	14.637	1415.575	1103.754
7.659	14.454	1414.157	1101.345
8.673	14.533	1413.094	1100.937
9.688	14.416	1411.461	1098.798
10.702	14.276	1408.009	1095.095
11.717	16.379	1412.349	1112.233
12.731	20.210	1419.350	1142.942
13.746	20.236	1416.691	1140.873
14.761	17.710	1410.881	1119.525
15.775	16.336	1407.433	1107.685
16.790	15.137	1405.123	1097.913
17.804	14.301	1402.596	1090.369
18.819	13.789	1400.807	1085.532
19.834	13.493	1399.303	1082.337
20.848	13.083	1398.670	1079.074
21.863	12.985	1396.890	1076.965
22.877	12.791	1395.720	1074.701
23.892	12.741	1394.543	1073.376
24.907	12.744	1394.086	1072.948
25.921	12.819	1392.472	1072.098
26.936	12.782	1392.062	1071.449
27.950	12.928	1391.111	1071.572
28.965	12.947	1389.895	1070.659
29.980	12.975	1388.483	1069.660
30.994	12.963	1387.627	1068.830
32.009	13.044	1386.550	1068.432
33.023	12.972	1385.093	1066.749
34.038	13.042	1383.362	1065.773
35.053	12.882	1382.512	1063.991
36.067	12.932	1381.202	1063.210
37.082	12.940	1380.069	1062.295
38.096	13.031	1378.809	1061.816
39.111	13.013	1377.933	1060.930
40.126	12.929	1377.542	1059.997
41.140	12.803	1376.521	1058.310
42.155	12.654	1376.479	1057.227
43.169	12.678	1376.376	1057.207
44.184	12.669	1375.872	1056.670
45.199	12.744	1375.268	1056.594
46.213	12.817	1374.318	1056.235
47.228	12.766	1373.634	1055.291
48.242	12.796	1372.648	1054.629
49.257	12.829	1370.990	1053.474
50.271	12.859	1369.667	1052.557
51.286	12.825	1368.239	1051.152
52.301	12.807	1366.682	1049.749
53.315	12.853	1365.818	1049.283
54.330	12.739	1364.966	1047.813
55.344	12.708	1363.326	1046.260
56.359	12.683	1362.391	1045.293
57.374	12.765	1361.040	1044.683
58.388	12.687	1360.689	1043.827
59.403	12.664	1360.473	1043.426
60.417	12.730	1359.450	1042.965
61.432	12.621	1358.199	1041.220
62.447	12.597	1357.432	1040.394
63.461	12.536	1356.234	1038.997
64.476	12.563	1355.107	1038.212
65.490	12.729	1353.535	1037.962
66.505	12.640	1352.403	1036.437
67.520	12.622	1351.077	1035.223
68.534	12.684	1349.970	1034.667
69.549	12.626	1349.054	1033.514
70.563	12.658	1347.793	1032.654
71.578	12.506	1347.043	1031.037
72.593	12.524	1345.825	1030.122
73.607	12.459	1345.616	1029.466
74.622	12.528	1344.377	1028.857
75.636	12.518	1343.832	1028.291
76.651	12.458	1343.238	1027.367
77.666	12.565	1342.338	1027.258
78.680	12.570	1342.097	1027.013
79.695	12.529	1341.369	1026.109
80.709	12.626	1340.238	1025.755
81.724	12.669	1339.905	1025.679
82.739	12.734	1338.774	1025.129
83.753	12.702	1338.160	1024.368
84.768	12.786	1336.910	1023.840
85.782	12.885	1335.584	1023.348
86.797	12.906	1334.206	1022.337
87.812	12.786	1332.938	1020.532
88.826	12.762	1332.153	1019.691
89.841	12.787	1330.870	1018.769
90.855	12.865	1329.407	1018.044
91.870	12.878	1328.505	1017.344
92.884	12.915	1327.832	1016.967
93.899	12.962	1326.923	1016.472
94.914	13.011	1325.825	1015.841
95.928	12.905	1325.564	1014.899
96.943	12.897	1324.569	1013.994
97.957	12.894	1323.749	1013.261
98.972	12.932	1322.357	1012.340
99.987	12.883	1321.468	1011.268
101.001	12.864	1320.305	1010.176
102.016	12.803	1319.261	1008.912
103.030	12.917	1318.481	1008.926
104.045	12.920	1317.421	1008.038
105.060	12.818	1316.141	1006.349
106.074	12.736	1314.808	1004.742
107.089	12.676	1313.906	1003.599
108.103	12.677	1312.043	1002.090
109.118	12.724	1310.791	1001.334
110.133	12.754	1309.320	1000.300
111.147	12.723	1307.646	998.745
112.162	12.760	1306.842	998.266
113.176	12.661	1306.094	997.009
114.191	12.689	1305.219	996.422
115.206	12.743	1303.612	995.432
116.220	12.674	1302.344	993.959
117.235	12.826	1301.193	993.909
118.249	12.703	1300.581	992.613
119.264	12.790	1298.722	991.630
120.279	12.751	1297.930	990.706
121.293	12.731	1296.920	989.725
122.308	12.816	1295.421	989.004
123.322	12.758	1294.392	987.785
124.337	12.622	1293.644	986.312
125.352	12.756	1292.121	985.866
126.366	12.602	1291.404	984.311
127.381	12.662	1290.110	983.594
128.395	12.798	1288.802	983.319
129.410	12.619	1288.606	982.015
130.424	12.699	1288.036	981.973
131.439	12.782	1286.584	981.275
132.454	12.803	1285.913	980.798
133.468	12.835	1284.739	980.007
134.483	12.804	1284.015	979.185
135.497	12.854	1282.900	978.545
136.512	12.815	1281.710	977.316
137.527	12.765	1280.459	975.982
138.541	12.852	1278.653	975.032
139.556	12.895	1277.357	974.216
140.570	12.959	1276.198	973.621
141.585	12.982	1275.365	973.034
142.600	12.966	1274.113	971.900
143.614	12.967	1273.409	971.284
144.629	13.062	1271.956	970.649
145.643	13.052	1270.607	969.473
146.658	13.021	1269.367	968.260
147.673	12.941	1268.157	966.779
148.687	12.971	1266.947	965.947
149.702	12.781	1265.643	963.760
150.716	12.813	1264.767	963.195
151.731	12.812	1263.187	961.900
152.746	12.818	1262.141	961.055
153.760	12.924	1260.584	960.400
154.775	12.970	1259.583	959.821
155.789	12.972	1258.553	958.960
156.804	12.981	1257.586	958.193
157.819	12.988	1256.315	957.176
158.833	13.074	1255.452	956.933
159.848	13.143	1254.459	956.495
160.862	13.088	1253.817	955.599
161.877	13.045	1252.154	954.000
162.892	12.936	1251.277	952.619
163.906	12.965	1250.643	952.221
164.921	12.923	1249.661	951.146
165.935	12.987	1248.517	950.557
166.950	13.018	1247.705	950.034
167.964	13.039	1247.464	949.889
168.979	13.097	1246.457	949.368
169.994	12.964	1246.026	948.193
171.008	13.081	1245.142	948.112
172.023	13.180	1244.086	947.791
173.037	13.196	1243.426	947.296
174.052	13.249	1242.543	946.840
175.067	13.037	1241.570	944.803
176.081	13.007	1240.305	943.583
177.096	13.046	1239.318	942.970
178.110	13.062	1238.620	942.452
179.125	13.166	1237.089	941.796
180.140	13.193	1235.660	940.775
181.154	13.111	1234.636	939.445
182.169	13.181	1233.119	938.609
183.183	13.340	1231.923	938.518
184.198	13.275	1230.927	937.307
185.213	13.298	1229.959	936.617
186.227	13.358	1228.705	935.919
187.242	13.373	1227.808	935.234
188.256	13.339	1226.516	933.977
189.271	13.296	1226.098	933.337
190.286	13.331	1224.695	932.382
191.300	13.155	1223.771	930.606
192.315	13.124	1222.831	929.630
193.329	13.142	1222.530	929.425
194.344	13.099	1221.778	928.528
195.359	13.199	1221.067	928.467
196.373	13.337	1220.139	928.453
197.388	13.290	1220.241	928.188
198.402	13.347	1220.159	928.358
199.417	13.536	1218.755	928.267
200.432	13.498	1217.816	927.261
201.446	13.472	1217.640	926.896
202.461	13.579	1216.453	926.512
203.475	13.558	1215.076	925.261
204.490	13.507	1214.118	924.167
205.504	13.528	1212.509	922.975
206.519	13.478	1211.681	921.988
207.534	13.482	1210.613	921.115
208.548	13.527	1209.778	920.650
209.563	13.421	1209.153	919.502
210.577	13.500	1207.905	918.913
211.592	13.646	1206.589	918.638
212.607	13.690	1205.940	918.304
213.621	13.567	1205.503	917.208
214.636	13.649	1204.531	916.845
215.650	13.695	1203.106	915.932
216.665	13.785	1202.058	915.552
217.680	13.722	1201.528	914.715
218.694	13.777	1200.609	914.237
219.709	13.722	1199.644	913.119
220.723	13.770	1198.995	912.811
221.738	13.771	1198.181	912.114
222.753	13.840	1197.575	911.954
223.767	13.917	1196.719	911.643
224.782	13.760	1196.378	910.442
225.796	13.868	1195.508	910.293
226.811	13.934	1195.359	910.457
227.826	13.837	1194.372	909.092
228.840	13.804	1193.705	908.328
229.855	13.694	1193.100	907.182
230.869	13.884	1191.922	907.246
231.884	13.726	1191.135	905.704
232.899	13.808	1190.271	905.414
233.913	13.920	1188.903	904.905
234.928	13.885	1188.518	904.337
235.942	13.846	1187.769	903.476
236.957	13.909	1187.080	903.217
237.972	13.808	1186.389	902.062
238.986	13.905	1185.497	901.832
240.001	13.754	1185.167	900.678
241.015	13.897	1184.268	900.695
242.030	13.852	1183.545	899.818
243.045	13.997	1182.239	899.533
244.059	14.025	1181.697	899.192
245.074	14.062	1180.741	898.585
246.088	14.060	1180.054	897.970
247.103	14.177	1178.577	897.397
248.117	14.137	1178.743	897.231
249.132	14.256	1177.682	896.982
250.147	14.204	1177.419	896.426
251.161	14.324	1176.443	896.246
252.176	14.299	1175.897	895.620
253.190	14.303	1175.129	894.977
254.205	14.303	1174.808	894.651
255.220	14.417	1173.762	894.390
256.234	14.383	1173.007	893.551
257.249	14.473	1172.241	893.371
258.263	14.479	1171.211	892.541
259.278	14.447	1170.956	892.094
260.293	14.547	1170.377	892.109
261.307	14.439	1170.298	891.392
262.322	14.456	1169.450	890.757
263.336	14.501	1168.860	890.472
264.351	14.650	1167.700	890.301
265.366	14.661	1167.003	889.749
266.380	14.607	1166.216	888.783
267.395	14.490	1165.497	887.535
268.409	14.468	1164.878	886.867
269.424	14.521	1164.402	886.708
270.439	14.572	1163.410	886.147
271.453	14.559	1162.993	885.680
272.468	14.503	1162.166	884.675
273.482	14.577	1160.996	884.097
274.497	14.534	1160.592	883.485
275.512	14.546	1160.081	883.080
276.526	14.533	1159.095	882.184
277.541	14.583	1158.116	881.626
278.555	14.514	1158.079	881.153
279.570	14.676	1156.821	880.974
280.585	14.685	1156.002	880.322
281.599	14.682	1154.805	879.314
282.614	14.641	1154.228	878.582
283.628	14.601	1153.214	877.521
284.643	14.696	1152.229	877.193
285.657	14.697	1151.416	876.504
286.672	14.644	1150.518	875.462
287.687	14.751	1149.502	875.173
288.701	14.710	1148.409	874.052
289.716	14.849	1147.639	874.111
290.730	14.723	1146.810	872.746
291.745	14.864	1146.687	873.309
292.760	14.845	1145.516	872.246
293.774	14.875	1145.140	872.035
294.789	14.958	1144.512	871.912
295.803	14.963	1143.933	871.423
296.818	14.826	1143.464	870.272
297.833	14.761	1142.392	869.043
298.847	14.863	1141.646	868.928
299.862	14.856	1140.931	868.270
300.876	14.936	1140.522	868.299
301.891	14.872	1140.073	867.548
302.906	15.040	1138.832	867.397
303.920	15.017	1138.400	866.871
304.935	15.043	1137.845	866.506
305.949	15.153	1137.155	866.477
306.964	15.124	1136.309	865.604
307.979	15.085	1135.542	864.742
308.993	15.138	1134.492	864.138
310.008	15.117	1133.891	863.497
311.022	15.122	1132.657	862.507
312.037	15.209	1132.175	862.508
313.052	15.113	1131.447	861.386
314.066	15.152	1130.558	860.831
315.081	15.097	1129.293	859.510
316.095	15.173	1128.603	859.300
317.110	15.143	1127.985	858.598
318.125	15.026	1127.788	857.775
319.139	15.077	1126.910	857.290
320.154	15.193	1125.585	856.802
321.168	15.097	1125.422	856.111
322.183	15.210	1124.581	855.972
323.197	15.246	1123.958	855.608
324.212	15.204	1123.609	855.052
325.227	15.195	1123.139	854.571
326.241	15.124	1122.645	853.757
327.256	15.337	1121.547	853.930
328.270	15.216	1120.609	852.527
329.285	15.152	1120.024	851.682
330.300	15.117	1119.039	850.679
331.314	15.169	1117.768	849.902
332.329	15.254	1116.631	849.393
333.343	15.343	1115.492	848.901
334.358	15.388	1114.870	848.578
335.373	15.321	1114.398	847.805
336.387	15.357	1113.713	847.390
337.402	15.419	1112.660	846.831
338.416	15.451	1112.201	846.568
339.431	15.435	1111.561	845.922
340.446	15.444	1111.546	845.883
341.460	15.518	1110.746	845.571
342.475	15.489	1109.687	844.543
343.489	15.661	1108.089	844.118
344.504	15.720	1107.304	843.739
345.519	15.655	1106.442	842.681
346.533	15.717	1105.839	842.461
347.548	15.678	1105.353	841.818
348.562	15.699	1104.263	841.021
349.577	15.686	1103.567	840.352
350.592	15.670	1103.067	839.814
351.606	15.632	1102.048	838.776
352.621	15.605	1101.488	838.142
353.635	15.646	1100.452	837.485
354.650	15.592	1099.946	836.754
355.665	15.627	1099.273	836.344
356.679	15.728	1098.399	836.104
357.694	15.751	1097.952	835.804
358.708	15.712	1097.193	834.959
359.723	15.693	1096.886	834.558
360.738	15.811	1095.913	834.329
361.752	15.760	1095.786	833.904
362.767	15.667	1095.251	832.965
363.781	15.817	1094.368	832.960
364.796	15.854	1093.892	832.711
365.810	15.911	1093.326	832.487
366.825	15.894	1092.634	831.802
367.840	16.039	1091.595	831.653
368.854	15.970	1091.550	831.206
369.869	16.050	1090.609	830.809
370.883	16.027	1090.195	830.309
371.898	15.969	1089.164	829.163
372.913	15.863	1088.777	828.271
373.927	16.081	1087.884	828.592
374.942	16.153	1087.461	828.552
375.956	16.059	1087.030	827.686
376.971	16.014	1086.236	826.788
377.986	16.070	1085.815	826.670
379.000	16.151	1085.554	826.796
380.015	16.258	1084.835	826.697
381.029	16.323	1083.456	825.894
382.044	16.298	1082.965	825.322
383.059	16.269	1082.244	824.557
384.073	16.303	1081.339	823.960
385.088	16.244	1080.566	823.011
386.102	16.238	1079.719	822.266
387.117	16.254	1078.611	821.428
388.132	16.275	1077.600	820.687
389.146	16.260	1076.665	819.830
390.161	16.195	1076.568	819.366
391.175	16.283	1075.693	819.055
392.190	16.251	1075.250	818.488
393.205	16.185	1074.396	817.448
394.219	16.373	1073.561	817.650
395.234	16.373	1072.340	816.649
396.248	16.248	1071.446	815.292
397.263	16.429	1070.203	815.144
398.278	16.235	1069.872	813.886
399.292	16.290	1069.370	813.695
400.307	16.353	1068.272	813.092
401.321	16.390	1067.564	812.660
402.336	16.408	1067.103	812.323
403.350	16.341	1066.299	811.319
404.365	16.371	1065.579	810.841
405.380	16.421	1065.118	810.660
406.394	16.400	1064.336	809.894
407.409	16.425	1063.456	809.271
408.423	16.448	1063.009	808.970
409.438	16.612	1062.234	809.090
410.453	16.647	1061.423	808.572
411.467	16.597	1060.716	807.720
412.482	16.672	1059.922	807.404
413.496	16.633	1059.462	806.793
414.511	16.628	1059.035	806.377
415.526	16.785	1058.497	806.643
416.540	16.634	1058.357	805.743
417.555	16.724	1057.256	805.261
418.569	16.615	1056.893	804.398
419.584	16.766	1056.431	804.693
420.599	16.739	1055.805	804.015
421.613	85.637	1296.427	1371.346
422.628	78.887	1331.499	1371.462
