DTS Sentinel unit serial number:	SN413079Multiplexer serial number:	ORYXHardware model number:	OX4-SRSoftware version number:	ORYX F/W v4.00 Oryx Data Collector v3.7.2.0data status	okinstallation	princeton_trtdifferential loss correction	single-endedforward channel	channel 2reverse channel	N/Adate	2019/09/14time	03:15:35forward acquisition time	60.00reverse acquisition time	0.00gamma	496.2192k internal	0.2337k external	0.2337temperature offset calibration	1.0124default loss term (dB/km)	0.3790temperature slope calibration	1.0000multiplexer offset coefficient	1.0000multiplexer slope coefficient	1.0000fibre end	0.00T internal ref (°C)	26.62T ext. ref 1 (°C)	3.26T ext. ref 2 (°C)	21.67length (m)	temperature (°C)	Stokes	anti-Stokes-747.200	-200.000	0.012	-0.313
-746.185	243.548	0.080	0.134
-745.171	-114.377	-0.045	-0.009
-744.156	169.199	-0.155	-0.222
-743.142	83.011	-0.180	0.197
-742.127	800.000	-0.092	0.299
-741.112	-120.628	0.106	0.018
-740.098	-156.244	0.049	0.003
-739.083	-26.979	-0.283	0.166
-738.069	97.759	-0.044	0.050
-737.054	-52.941	0.242	-0.112
-736.039	-141.504	-0.263	0.027
-735.025	-200.000	-0.071	0.401
-734.010	237.825	-0.083	-0.139
-732.996	-100.652	0.229	-0.057
-731.981	-200.000	-0.037	-0.218
-730.966	-200.000	0.021	0.269
-729.952	-103.287	0.339	-0.080
-728.937	-61.613	-0.116	0.049
-727.923	330.716	0.015	0.028
-726.908	-200.000	0.012	0.090
-725.894	19.539	-0.218	0.176
-724.879	-50.599	-0.326	-0.154
-723.864	82.997	-0.049	0.054
-722.850	800.000	0.061	-0.190
-721.835	-110.111	-0.225	-0.047
-720.821	-136.309	0.057	-0.007
-719.806	-138.903	-0.156	0.017
-718.791	196.897	-0.035	0.053
-717.777	-94.353	-0.188	0.052
-716.762	12.162	-0.114	-0.088
-715.748	-200.000	-0.018	-0.154
-714.733	-109.154	-0.169	-0.036
-713.718	46.525	-0.070	0.065
-712.704	-119.798	-0.306	0.053
-711.689	-200.000	-0.054	0.287
-710.675	324.123	0.121	-0.231
-709.660	18.466	0.251	-0.201
-708.645	714.827	-0.183	-0.487
-707.631	354.086	-0.058	0.116
-706.616	-140.898	-0.278	0.029
-705.602	136.679	0.155	-0.203
-704.587	10.576	-0.173	0.132
-703.572	-79.181	0.250	-0.085
-702.558	392.148	-0.033	-0.069
-701.543	-92.445	0.056	0.016
-700.529	32.960	0.032	0.028
-699.514	52.828	0.094	0.090
-698.499	81.539	-0.161	-0.175
-697.485	-117.198	-0.091	-0.016
-696.470	-23.817	0.027	0.016
-695.456	137.597	-0.040	-0.052
-694.441	-80.219	-0.151	0.051
-693.426	430.273	-0.009	-0.021
-692.412	800.000	0.106	-0.366
-691.397	-200.000	0.001	-0.274
-690.383	49.106	-0.135	0.127
-689.368	800.000	-0.031	0.136
-688.354	-30.366	0.107	0.061
-687.339	-85.087	0.035	-0.011
-686.324	-66.634	-0.264	0.105
-685.310	165.560	-0.118	-0.167
-684.295	40.225	-0.034	0.030
-683.281	213.345	-0.202	-0.320
-682.266	-112.224	-0.301	0.060
-681.251	-113.305	-0.343	-0.068
-680.237	-41.967	0.224	-0.115
-679.222	94.922	0.133	-0.151
-678.208	-68.900	0.182	-0.070
-677.193	-98.718	0.257	-0.065
-676.178	-38.166	0.105	-0.056
-675.164	93.466	0.176	-0.199
-674.149	-78.093	-0.093	0.032
-673.135	800.000	-0.006	-0.019
-672.120	-200.000	-0.013	0.204
-671.105	48.081	0.324	-0.303
-670.091	800.000	0.118	-0.392
-669.076	-181.041	-0.275	-0.006
-668.062	800.000	-0.053	-0.185
-667.047	-200.000	0.005	-0.066
-666.032	142.882	-0.209	-0.277
-665.018	536.170	-0.075	0.177
-664.003	69.315	0.081	0.084
-662.989	-73.742	-0.159	0.058
-661.974	633.212	-0.034	-0.087
-660.959	212.884	-0.125	0.198
-659.945	201.514	-0.132	-0.204
-658.930	-67.529	0.189	0.074
-657.916	55.413	0.130	0.125
-656.901	92.803	0.214	0.242
-655.886	-63.787	0.208	-0.085
-654.872	225.591	0.142	-0.230
-653.857	-68.468	-0.245	0.095
-652.843	12.069	0.099	-0.076
-651.828	-190.057	-0.210	0.002
-650.814	-200.000	-0.007	-0.256
-649.799	66.148	-0.112	0.114
-648.784	42.979	-0.220	-0.201
-647.770	344.906	-0.024	0.047
-646.755	-126.145	-0.197	-0.030
-645.741	-7.848	-0.112	-0.076
-644.726	306.390	0.041	0.077
-643.711	-138.778	-0.134	-0.015
-642.697	40.254	-0.029	-0.026
-641.682	26.221	0.292	0.244
-640.668	-127.212	-0.077	-0.011
-639.653	10.765	-0.267	-0.204
-638.638	-157.362	0.059	0.004
-637.624	-32.823	-0.092	-0.051
-636.609	206.727	-0.183	-0.285
-635.595	634.142	0.059	0.149
-634.580	119.050	0.201	0.248
-633.565	-175.883	-0.241	-0.006
-632.551	-89.285	0.038	-0.011
-631.536	778.731	0.122	-0.334
-630.522	46.559	0.115	-0.107
-629.507	223.523	-0.156	-0.251
-628.492	-124.338	0.385	-0.060
-627.478	-97.810	0.334	-0.086
-626.463	-146.754	0.151	-0.013
-625.449	-108.950	0.206	-0.044
-624.434	12.264	0.034	0.026
-623.419	-47.474	-0.108	-0.052
-622.405	133.356	-0.111	0.144
-621.390	188.127	-0.048	-0.071
-620.376	-0.761	-0.205	0.145
-619.361	-89.004	-0.101	0.030
-618.346	800.000	-0.097	-0.294
-617.332	-8.235	-0.206	-0.139
-616.317	-138.290	0.131	-0.014
-615.303	553.647	-0.042	-0.100
-614.288	-200.000	0.052	0.410
-613.273	244.497	-0.168	-0.283
-612.259	-9.838	0.449	-0.299
-611.244	800.000	-0.085	0.241
-610.230	-200.000	0.028	0.195
-609.215	-200.000	-0.007	-0.343
-608.201	-200.000	0.043	-0.243
-607.186	-108.475	0.270	-0.058
-606.171	-47.100	-0.269	0.131
-605.157	800.000	-0.028	0.102
-604.142	-200.000	-0.056	-0.360
-603.128	-15.020	0.208	0.133
-602.113	24.434	0.141	-0.116
-601.098	34.371	0.250	-0.218
-600.084	-110.538	0.101	0.021
-599.069	283.266	-0.135	0.243
-598.055	186.298	-0.066	0.098
-597.040	245.230	-0.052	-0.087
-596.025	-81.306	0.281	0.092
-595.011	-200.000	0.024	0.310
-593.996	-128.807	0.299	0.042
-592.982	17.718	-0.130	-0.103
-591.967	-30.591	-0.170	0.096
-590.952	529.707	0.116	-0.274
-589.938	5.613	-0.115	-0.085
-588.923	-55.146	-0.133	0.060
-587.909	-5.895	0.111	0.076
-586.894	-92.306	-0.247	-0.070
-585.879	-200.000	-0.002	-0.024
-584.865	158.190	-0.063	-0.088
-583.850	800.000	0.012	0.045
-582.836	-142.196	0.264	0.026
-581.821	-200.000	-0.084	-0.389
-580.806	-14.931	0.150	0.096
-579.792	-200.000	0.015	0.252
-578.777	4.350	-0.105	-0.077
-577.763	-156.586	0.665	-0.041
-576.748	61.546	0.270	-0.268
-575.733	-162.200	-0.253	-0.013
-574.719	36.881	0.089	0.078
-573.704	100.533	-0.261	-0.302
-572.690	-103.727	-0.238	-0.056
-571.675	112.691	0.239	0.288
-570.661	282.474	-0.075	-0.134
-569.646	48.830	0.079	-0.074
-568.631	60.062	-0.223	-0.219
-567.617	-94.196	-0.366	-0.100
-566.602	800.000	-0.024	-0.089
-565.588	-78.052	-0.284	0.097
-564.573	-200.000	-0.033	-0.216
-563.558	800.000	-0.017	-0.051
-562.544	-59.715	-0.065	0.028
-561.529	255.834	-0.127	-0.217
-560.515	800.000	-0.037	-0.156
-559.500	-200.000	-0.002	-0.193
-558.485	7.752	0.048	0.036
-557.471	103.262	-0.065	0.075
-556.456	56.169	0.167	-0.161
-555.442	525.851	0.090	-0.211
-554.427	800.000	-0.132	-0.391
-553.412	683.597	0.064	0.166
-552.398	463.963	0.090	0.201
-551.383	-87.368	0.186	0.056
-550.369	-117.720	0.131	-0.023
-549.354	40.204	0.141	-0.127
-548.339	-159.047	-0.251	-0.014
-547.325	-60.574	0.100	-0.042
-546.310	107.612	-0.157	-0.186
-545.296	-85.128	-0.313	0.098
-544.281	42.609	-0.242	0.220
-543.266	108.065	0.262	0.311
-542.252	58.902	0.031	-0.031
-541.237	-200.000	-0.024	0.277
-540.223	800.000	-0.044	-0.137
-539.208	-170.664	-0.198	0.007
-538.193	-78.142	0.209	0.072
-537.179	-200.000	0.033	-0.231
-536.164	-200.000	0.018	-0.297
-535.150	427.397	-0.100	0.214
-534.135	469.492	0.064	0.143
-533.121	-50.471	-0.262	-0.123
-532.106	800.000	-0.024	-0.074
-531.091	-60.873	-0.246	0.103
-530.077	172.861	-0.260	0.373
-529.062	164.436	-0.033	-0.046
-528.048	-85.181	-0.418	-0.130
-527.033	101.876	-0.127	0.148
-526.018	-200.000	-0.031	0.229
-525.004	57.670	-0.113	-0.110
-523.989	-200.000	-0.039	0.240
-522.975	14.662	0.175	0.136
-521.960	-8.977	0.167	0.111
-520.945	483.102	-0.009	-0.021
-519.931	-100.493	0.183	-0.045
-518.916	99.437	-0.329	-0.379
-517.902	123.804	0.080	-0.100
-516.887	1.255	-0.390	0.278
-515.872	61.642	0.329	0.326
-514.858	-200.000	0.044	0.247
-513.843	-88.292	-0.349	0.104
-512.829	526.838	-0.011	-0.026
-511.814	-182.481	0.388	0.007
-510.799	-124.760	-0.518	-0.080
-509.785	-151.852	-0.115	-0.008
-508.770	-200.000	-0.000	0.020
-507.756	-101.034	-0.076	-0.018
-506.741	-9.537	0.088	0.058
-505.726	800.000	-0.152	0.435
-504.712	268.187	0.117	0.204
-503.697	-147.368	0.415	0.035
-502.683	-200.000	0.037	0.326
-501.668	-127.426	0.367	-0.053
-500.653	92.653	0.143	-0.161
-499.639	12.660	0.110	0.085
-498.624	-43.260	-0.239	0.120
-497.610	-56.830	-0.132	-0.058
-496.595	800.000	0.051	-0.167
-495.581	-74.719	0.138	0.049
-494.566	-81.685	-0.100	-0.033
-493.551	800.000	-0.022	0.069
-492.537	-0.666	-0.153	-0.108
-491.522	-200.000	0.034	-0.180
-490.508	-99.866	-0.228	-0.057
-489.493	-71.494	0.125	0.046
-488.478	104.194	-0.047	0.055
-487.464	-87.400	-0.109	-0.033
-486.449	89.247	-0.161	-0.178
-485.435	633.425	0.029	0.074
-484.420	-125.289	-0.209	0.032
-483.405	74.901	-0.130	0.136
-482.391	-200.000	0.074	0.331
-481.376	-200.000	0.042	0.273
-480.362	95.785	-0.155	-0.176
-479.347	-52.093	-0.147	-0.068
-478.332	201.188	-0.188	0.288
-477.318	-126.632	-0.118	0.017
-476.303	-200.000	-0.006	-0.290
-475.289	-53.429	-0.194	0.088
-474.274	800.000	-0.039	0.143
-473.259	78.485	0.148	0.157
-472.245	-200.000	0.003	0.088
-471.230	128.947	0.224	0.284
-470.216	-170.935	0.233	-0.008
-469.201	-26.148	-0.218	0.127
-468.186	-81.698	0.195	0.063
-467.172	400.899	0.046	-0.096
-466.157	2.573	-0.220	0.158
-465.143	-67.891	-0.050	-0.019
-464.128	85.022	-0.069	-0.076
-463.113	-107.453	-0.197	0.043
-462.099	240.575	0.090	0.148
-461.084	127.999	0.083	0.104
-460.070	-20.392	0.171	-0.104
-459.055	-200.000	-0.005	0.076
-458.040	432.430	0.047	0.101
-457.026	-112.608	-0.084	0.017
-456.011	153.277	0.052	0.071
-454.997	-200.000	-0.027	-0.372
-453.982	-170.645	-0.182	-0.006
-452.968	14.948	-0.075	0.058
-451.953	-24.121	0.291	0.173
-450.938	57.607	0.157	0.153
-449.924	-26.591	-0.159	0.093
-448.909	-200.000	-0.011	-0.273
-447.895	-71.022	0.088	-0.033
-446.880	66.215	-0.218	-0.220
-445.865	-35.571	-0.338	0.182
-444.851	-5.147	-0.301	-0.205
-443.836	-35.217	0.196	-0.106
-442.822	77.613	0.082	0.087
-441.807	-200.000	0.020	0.227
-440.792	-15.041	0.068	0.043
-439.778	-31.018	-0.060	0.033
-438.763	-179.438	-0.298	0.007
-437.749	-91.506	-0.293	-0.083
-436.734	-151.701	0.317	0.023
-435.719	-82.671	-0.251	0.081
-434.705	-137.459	-0.074	0.008
-433.690	-181.538	0.285	-0.006
-432.676	-118.830	-0.119	-0.021
-431.661	141.441	0.004	0.005
-430.646	183.983	0.103	0.151
-429.632	-73.749	-0.151	-0.055
-428.617	249.428	-0.222	0.373
-427.603	104.236	-0.123	-0.143
-426.588	-153.833	-0.016	-0.001
-425.573	293.481	-0.174	0.315
-424.559	-62.856	0.100	0.041
-423.544	800.000	-0.014	0.041
-422.530	-88.101	0.176	-0.052
-421.515	38.920	0.186	0.165
-420.500	-170.359	-0.093	0.003
-419.486	436.756	-0.061	-0.131
-418.471	-200.000	0.011	0.097
-417.457	800.000	-0.095	0.277
-416.442	-50.628	-0.323	0.151
-415.428	1.398	-0.158	-0.112
-414.413	-30.251	-0.115	-0.064
-413.398	-69.300	0.219	0.083
-412.384	-190.456	-0.204	0.002
-411.369	800.000	0.027	-0.094
-410.355	21.615	-0.102	-0.082
-409.340	195.659	0.046	0.070
-408.325	568.281	0.067	-0.161
-407.311	112.591	0.185	0.222
-406.296	7.922	0.102	-0.076
-405.282	125.498	-0.043	0.054
-404.267	57.265	0.209	0.202
-403.252	304.589	0.345	-0.635
-402.238	60.508	-0.102	-0.100
-401.223	-106.706	0.045	-0.010
-400.209	8.879	-0.098	0.073
-399.194	-22.576	-0.182	0.109
-398.179	800.000	0.040	0.147
-397.165	68.837	-0.225	-0.229
-396.150	41.011	-0.455	0.407
-395.136	800.000	0.038	-0.130
-394.121	-200.000	0.034	0.283
-393.106	117.900	-0.131	-0.159
-392.092	-85.877	-0.085	0.026
-391.077	-97.898	-0.145	0.037
-390.063	-200.000	0.045	0.483
-389.048	-73.538	0.183	0.066
-388.033	-164.368	0.202	0.009
-387.019	-25.629	0.378	-0.221
-386.004	-141.103	-0.197	-0.020
-384.990	-62.358	-0.182	0.075
-383.975	131.747	-0.142	-0.181
-382.960	-23.120	0.010	0.006
-381.946	800.000	0.020	-0.083
-380.931	123.166	0.184	0.228
-379.917	-200.000	0.024	-0.339
-378.902	149.726	-0.150	-0.202
-377.888	-200.000	-0.036	-0.311
-376.873	800.000	-0.088	-0.284
-375.858	800.000	-0.109	0.400
-374.844	613.659	0.132	-0.327
-373.829	-60.432	0.129	0.054
-372.815	-173.315	0.223	-0.007
-371.800	-200.000	-0.023	-0.103
-370.785	30.814	-0.113	-0.096
-369.771	95.652	-0.168	-0.190
-368.756	502.664	0.126	-0.288
-367.742	-108.724	-0.240	-0.051
-366.727	-200.000	0.024	0.116
-365.712	-200.000	-0.011	0.144
-364.698	-68.597	-0.298	-0.114
-363.683	502.810	0.087	-0.198
-362.669	-50.817	0.194	-0.090
-361.654	-200.000	-0.014	-0.116
-360.639	-100.921	-0.132	0.032
-359.625	-53.250	0.300	-0.136
-358.610	-200.000	-0.041	-0.184
-357.596	13.946	-0.135	-0.104
-356.581	-85.569	-0.234	0.072
-355.566	134.914	-0.193	0.247
-354.552	170.324	0.043	0.061
-353.537	723.656	0.091	0.239
-352.523	-98.346	-0.174	0.044
-351.508	-159.603	-0.368	0.020
-350.493	633.654	0.035	-0.089
-349.479	68.552	-0.113	0.115
-348.464	-80.821	0.209	-0.069
-347.450	346.993	-0.042	-0.082
-346.435	88.002	0.200	0.220
-345.420	-111.476	-0.044	-0.009
-344.406	800.000	-0.090	-0.371
-343.391	-200.000	0.071	-0.491
-342.377	75.328	0.146	-0.153
-341.362	-93.381	0.084	-0.023
-340.348	-200.000	0.006	0.163
-339.333	800.000	0.103	-0.363
-338.318	-83.600	0.254	-0.080
-337.304	-200.000	-0.011	0.111
-336.289	58.205	0.024	-0.023
-335.275	241.955	-0.065	0.107
-334.260	-88.720	-0.318	0.093
-333.245	-88.753	-0.007	0.002
-332.231	132.954	0.109	0.139
-331.216	782.476	-0.045	0.121
-330.202	189.340	-0.085	-0.126
-329.187	36.765	0.226	0.197
-328.172	-154.324	-0.152	-0.010
-327.158	-113.600	0.264	-0.051
-326.143	279.819	-0.128	-0.225
-325.129	34.588	0.090	-0.078
-324.114	152.532	-0.073	-0.098
-323.099	800.000	0.043	-0.124
-322.085	-13.523	0.344	0.220
-321.070	-130.785	0.062	-0.008
-320.056	-200.000	-0.010	0.087
-319.041	-84.997	0.217	0.067
-318.026	-8.103	-0.125	0.083
-317.012	-59.289	0.365	0.155
-315.997	-129.509	0.233	0.032
-314.983	800.000	-0.064	-0.274
-313.968	-200.000	0.001	-0.089
-312.953	21.351	0.196	0.157
-311.939	-23.370	-0.284	0.168
-310.924	800.000	-0.051	0.153
-309.910	-129.950	-0.037	0.005
-308.895	432.237	-0.034	0.073
-307.880	-88.370	-0.348	0.103
-306.866	-94.418	0.321	-0.086
-305.851	-200.000	-0.075	-0.359
-304.837	800.000	0.137	-0.389
-303.822	800.000	-0.055	-0.171
-302.807	307.225	-0.035	-0.065
-301.793	-200.000	-0.033	0.210
-300.778	-200.000	-0.009	-0.057
-299.764	-200.000	-0.019	0.455
-298.749	-200.000	-0.013	-0.264
-297.735	-139.092	0.423	0.045
-296.720	30.120	0.301	0.253
-295.705	326.826	-0.133	0.251
-294.691	401.947	0.112	0.232
-293.676	-19.331	-0.211	-0.129
-292.662	198.255	0.178	-0.268
-291.647	-71.176	-0.176	-0.065
-290.632	-35.353	0.468	0.251
-289.618	-200.000	-0.009	-0.298
-288.603	275.238	0.164	-0.286
-287.589	84.479	0.209	0.225
-286.574	-38.308	0.364	0.190
-285.559	-82.088	0.114	0.037
-284.545	245.275	-0.184	0.304
-283.530	161.036	-0.047	0.065
-282.516	-200.000	0.018	-0.093
-281.501	-90.611	0.140	-0.040
-280.486	11.990	-0.215	-0.163
-279.472	30.351	0.058	-0.048
-278.457	-45.066	0.186	-0.091
-277.443	107.090	-0.144	-0.169
-276.428	-15.144	-0.535	-0.338
-275.413	-79.543	0.631	0.210
-274.399	5.461	0.121	0.088
-273.384	800.000	0.020	0.067
-272.370	-36.579	-0.196	0.104
-271.355	105.219	0.056	0.065
-270.340	-200.000	0.013	-0.066
-269.326	800.000	0.069	-0.260
-268.311	66.273	-0.203	-0.203
-267.297	800.000	0.066	-0.183
-266.282	-200.000	-0.044	0.250
-265.267	155.001	0.013	0.017
-264.253	67.678	-0.215	0.216
-263.238	378.581	-0.099	0.199
-262.224	-200.000	-0.017	0.088
-261.209	9.481	0.342	-0.255
-260.195	8.969	-0.083	0.062
-259.180	-200.000	0.004	-0.016
-258.165	-13.258	0.289	0.185
-257.151	95.977	-0.160	-0.180
-256.136	-75.345	0.194	0.068
-255.122	349.332	-0.094	-0.183
-254.107	800.000	-0.019	0.053
-253.092	-22.046	0.079	-0.048
-252.078	102.126	-0.177	0.203
-251.063	-100.331	-0.184	-0.045
-250.049	689.546	-0.080	-0.207
-249.034	-67.369	0.159	-0.061
-248.019	75.843	0.081	0.084
-247.005	234.039	0.086	-0.139
-245.990	9.197	-0.167	-0.124
-244.976	-23.782	0.322	-0.190
-243.961	-94.514	0.205	-0.055
-242.946	-125.164	0.020	-0.003
-241.932	316.491	0.160	-0.297
-240.917	-200.000	0.014	0.110
-239.903	-66.875	0.177	0.069
-238.888	416.013	0.095	0.200
-237.873	360.925	0.193	-0.381
-236.859	-200.000	0.070	0.363
-235.844	-200.000	-0.011	-0.173
-234.830	800.000	0.109	0.323
-233.815	-200.000	0.007	0.421
-232.800	-22.695	-0.175	0.104
-231.786	-118.670	0.154	0.027
-230.771	704.403	0.110	0.285
-229.757	434.555	-0.035	-0.075
-228.742	252.471	-0.107	0.179
-227.727	-4.056	-0.304	-0.207
-226.713	-66.675	0.188	-0.073
-225.698	-44.554	-0.053	-0.026
-224.684	-158.007	-0.207	0.012
-223.669	107.607	0.334	0.391
-222.655	34.071	-0.149	-0.128
-221.640	-81.453	0.378	0.122
-220.625	-125.728	0.231	-0.034
-219.611	-99.787	0.124	-0.031
-218.596	-15.304	-0.027	0.017
-217.582	-200.000	-0.086	-0.429
-216.567	-200.000	0.040	-0.217
-215.552	-156.586	0.032	-0.002
-214.538	94.467	-0.056	0.063
-213.523	-139.191	0.217	-0.023
-212.509	-148.409	-0.011	-0.001
-211.494	70.791	0.088	-0.090
-210.479	-200.000	-0.015	0.114
-209.465	432.015	-0.050	0.106
-208.450	-103.936	-0.082	-0.019
-207.436	-115.074	0.075	0.014
-206.421	-65.503	0.153	0.060
-205.406	487.457	-0.069	-0.154
-204.392	652.148	0.139	0.351
-203.377	-200.000	-0.081	-0.398
-202.363	501.943	0.063	0.143
-201.348	477.374	-0.151	0.335
-200.333	305.806	0.141	-0.258
-199.319	181.889	0.150	0.217
-198.304	-40.437	0.241	-0.123
-197.290	800.000	0.083	-0.241
-196.275	125.798	0.215	0.266
-195.260	327.028	0.106	-0.199
-194.246	211.932	0.213	-0.329
-193.231	-161.163	-0.308	-0.016
-192.217	-24.530	0.316	-0.185
-191.202	74.105	-0.308	0.318
-190.187	449.326	0.051	-0.110
-189.173	800.000	0.067	0.256
-188.158	-200.000	-0.005	-0.109
-187.144	50.947	-0.175	0.163
-186.129	85.177	-0.062	-0.067
-185.114	314.969	0.162	0.299
-184.100	-200.000	0.032	0.209
-183.085	-31.668	-0.219	0.121
-182.071	90.498	0.085	-0.093
-181.056	-99.676	0.264	0.065
-180.042	-4.400	0.166	0.113
-179.027	218.491	-0.082	0.129
-178.012	-92.401	-0.125	-0.035
-176.998	-55.483	-0.128	-0.056
-175.983	-150.425	-0.039	0.003
-174.969	-45.433	-0.188	0.092
-173.954	129.449	-0.102	0.128
-172.939	108.770	-0.183	-0.214
-171.925	800.000	-0.054	-0.169
-170.910	89.994	-0.077	0.085
-169.896	-140.890	0.213	0.022
-168.881	372.837	0.200	-0.400
-167.866	800.000	0.046	-0.189
-166.852	-25.164	-0.344	-0.200
-165.837	15.556	0.101	0.078
-164.823	104.219	-0.076	0.088
-163.808	800.000	0.020	0.083
-162.793	800.000	0.067	0.251
-161.779	-0.426	-0.246	0.171
-160.764	590.953	-0.051	-0.123
-159.750	121.131	-0.163	0.199
-158.735	800.000	0.041	0.164
-157.720	32.455	-0.339	-0.288
-156.706	-99.060	0.140	0.035
-155.691	192.902	0.133	0.197
-154.677	-86.782	0.389	-0.117
-153.662	-59.923	-0.270	0.113
-152.647	20.759	0.243	0.193
-151.633	-39.181	0.173	-0.089
-150.618	800.000	-0.039	-0.107
-149.604	-13.665	0.114	-0.072
-148.589	-133.322	0.129	-0.016
-147.574	-25.988	-0.326	0.188
-146.560	800.000	0.096	0.337
-145.545	47.671	0.168	-0.154
-144.531	-149.693	0.277	-0.021
-143.516	800.000	0.083	0.275
-142.502	-91.425	0.092	0.026
-141.487	-48.299	0.102	0.048
-140.472	-100.354	0.291	-0.071
-139.458	184.128	-0.269	-0.390
-138.443	-36.822	0.215	-0.113
-137.429	-200.000	-0.004	-0.225
-136.414	-104.537	0.479	-0.108
-135.399	-115.413	-0.166	-0.031
-134.385	-200.000	-0.019	-0.302
-133.370	-200.000	-0.013	-0.107
-132.356	-5.234	0.161	0.109
-131.341	-103.700	-0.046	0.011
-130.326	-200.000	0.030	-0.182
-129.312	-193.981	-0.235	0.002
-128.297	-200.000	-0.016	0.110
-127.283	-112.440	0.091	0.018
-126.268	363.435	-0.024	0.047
-125.253	800.000	0.068	0.186
-124.239	16.625	0.124	0.096
-123.224	115.544	0.245	0.293
-122.210	-200.000	0.005	0.424
-121.195	-33.104	-0.114	0.062
-120.180	169.856	0.049	0.068
-119.166	-151.008	0.133	-0.010
-118.151	349.315	0.034	-0.065
-117.137	171.172	-0.016	-0.023
-116.122	-17.949	0.326	-0.200
-115.107	247.634	-0.093	-0.155
-114.093	228.114	-0.088	0.140
-113.078	-102.304	-0.174	-0.041
-112.064	-200.000	0.052	0.346
-111.049	55.792	-0.119	0.113
-110.034	52.833	-0.022	0.021
-109.020	-107.924	0.095	0.020
-108.005	-107.733	0.129	0.028
-106.991	-159.103	-0.164	-0.009
-105.976	-68.720	0.154	0.058
-104.962	140.889	-0.221	0.286
-103.947	-2.205	0.326	-0.224
-102.932	39.540	0.187	-0.164
-101.918	5.013	0.114	0.082
-100.903	800.000	-0.043	0.157
-99.889	800.000	-0.037	0.152
-98.874	259.612	0.095	0.161
-97.859	-155.713	0.138	-0.009
-96.845	99.462	-0.190	-0.215
-95.830	-164.811	0.099	-0.004
-94.816	9.907	-0.257	-0.191
-93.801	152.923	0.131	-0.175
-92.786	28.472	0.117	0.097
-91.772	800.000	-0.014	0.039
-90.757	-200.000	0.006	-0.069
-89.743	221.169	-0.085	0.134
-88.728	1.963	0.049	0.035
-87.713	-38.474	-0.227	0.118
-86.699	-39.120	0.261	0.134
-85.684	140.395	-0.181	-0.234
-84.670	-33.363	-0.269	0.145
-83.655	165.992	0.238	0.329
-82.640	-2.929	0.494	-0.338
-81.626	-200.000	-0.028	-0.140
-80.611	-68.800	0.171	-0.065
-79.597	-200.000	-0.030	0.310
-78.582	-60.739	0.091	0.038
-77.567	-200.000	0.027	-0.240
-76.553	566.689	-0.116	-0.275
-75.538	-83.041	0.271	0.085
-74.524	-200.000	-0.080	0.649
-73.509	765.030	-0.059	-0.157
-72.494	-200.000	-0.008	-0.069
-71.480	-200.000	-0.022	-0.117
-70.465	-200.000	0.018	0.234
-69.451	800.000	-0.042	0.169
-68.436	139.530	-0.072	-0.093
-67.422	-43.659	-0.196	-0.097
-66.407	-16.604	0.208	-0.129
-65.392	116.180	0.077	0.092
-64.378	-92.628	0.077	0.021
-63.363	-64.019	-0.071	0.028
-62.349	-200.000	-0.091	0.521
-61.334	63.163	-1.409	-1.380
-60.319	88.015	0.550	0.596
-59.305	-200.000	-0.236	-1.038
-58.290	183.123	0.894	1.290
-57.276	549.853	0.606	1.420
-56.261	-200.000	116.361	648.705
-55.246	513.634	1537.699	3503.744
-54.232	174.615	2719.987	3844.380
-53.217	99.768	2299.843	2602.206
-52.203	35.725	1905.787	1636.362
-51.188	29.672	1696.824	1410.846
-50.173	27.336	1655.149	1358.718
-49.159	48.155	1711.745	1563.812
-48.144	46.699	1725.242	1565.040
-47.130	29.223	1683.258	1395.942
-46.115	26.711	1668.930	1365.110
-45.100	26.472	1664.287	1359.458
-44.086	26.546	1661.131	1357.384
-43.071	26.495	1658.896	1355.120
-42.057	26.418	1656.527	1352.553
-41.042	26.502	1654.073	1351.123
-40.027	26.490	1652.129	1349.395
-39.013	26.443	1650.422	1347.595
-37.998	26.427	1648.696	1346.012
-36.984	26.442	1647.651	1345.219
-35.969	26.547	1646.038	1344.627
-34.954	26.717	1644.391	1344.490
-33.940	26.669	1642.472	1342.517
-32.925	26.661	1640.985	1341.183
-31.911	26.590	1639.541	1339.425
-30.896	26.549	1637.524	1337.424
-29.881	26.560	1635.948	1336.161
-28.867	26.631	1634.370	1335.346
-27.852	26.700	1632.697	1334.434
-26.838	26.729	1631.003	1333.209
-25.823	26.724	1629.529	1331.915
-24.809	26.699	1628.607	1330.923
-23.794	26.658	1627.723	1329.851
-22.779	26.669	1625.552	1328.104
-21.765	26.529	1624.544	1326.199
-20.750	26.593	1622.437	1324.901
-19.736	26.670	1621.163	1324.365
-18.721	26.675	1619.755	1323.198
-17.706	26.633	1618.437	1321.763
-16.692	26.601	1616.869	1320.201
-15.677	26.652	1615.043	1319.027
-14.663	26.616	1614.545	1318.304
-13.648	26.718	1612.794	1317.565
-12.633	26.668	1611.370	1315.986
-11.619	26.594	1609.629	1313.972
-10.604	26.705	1607.709	1313.161
-9.590	26.721	1606.776	1312.464
-8.575	26.672	1605.318	1310.863
-7.560	26.784	1603.775	1310.365
-6.546	26.646	1603.183	1308.827
-5.531	26.608	1602.012	1307.546
-4.517	26.758	1600.333	1307.207
-3.502	26.597	1600.148	1305.842
-2.487	26.835	1597.087	1305.003
-1.473	26.374	1586.147	1292.721
-0.458	23.514	1567.290	1257.065
0.556	21.057	1569.047	1227.650
1.571	18.927	1593.535	1231.462
2.586	18.506	1606.110	1238.029
3.600	16.207	1550.774	1179.219
4.615	9.624	1442.193	1053.641
5.629	4.105	1383.972	976.310
6.644	3.244	1377.055	965.941
7.659	3.208	1375.530	964.560
8.673	3.244	1374.464	963.952
9.688	3.335	1372.231	962.873
10.702	3.258	1369.518	960.406
11.717	5.756	1374.347	979.322
12.731	12.934	1387.360	1033.637
13.746	18.984	1397.241	1078.978
14.761	20.302	1398.087	1087.802
15.775	19.679	1396.576	1082.630
16.790	18.759	1393.659	1074.514
17.804	17.994	1391.349	1067.860
18.819	17.526	1390.804	1064.425
19.834	17.363	1389.287	1062.151
20.848	17.165	1388.403	1060.148
21.863	16.900	1387.325	1057.575
22.877	16.792	1386.266	1056.000
23.892	16.882	1384.561	1055.167
24.907	16.861	1383.759	1054.331
25.921	16.875	1383.179	1053.884
26.936	16.925	1381.718	1052.990
27.950	17.008	1380.383	1052.396
28.965	16.958	1380.087	1051.763
29.980	17.024	1379.002	1051.253
30.994	17.140	1377.819	1050.975
32.009	17.211	1376.865	1050.594
33.023	17.097	1375.606	1048.840
34.038	17.158	1373.864	1047.791
35.053	17.036	1373.195	1046.436
36.067	17.017	1371.626	1045.035
37.082	17.001	1370.769	1044.186
38.096	17.005	1370.182	1043.676
39.111	17.114	1369.059	1043.399
40.126	17.095	1368.020	1042.396
41.140	16.780	1366.988	1039.585
42.155	16.678	1366.371	1038.397
43.169	16.638	1366.137	1037.881
44.184	16.618	1366.020	1037.579
45.199	16.666	1365.749	1037.577
46.213	16.781	1365.147	1037.728
47.228	16.870	1364.695	1037.842
48.242	16.976	1363.192	1037.256
49.257	16.865	1361.776	1035.404
50.271	16.984	1360.030	1034.713
51.286	16.983	1358.753	1033.642
52.301	16.910	1357.785	1032.374
53.315	16.840	1356.673	1031.011
54.330	16.749	1355.498	1029.469
55.344	16.770	1353.941	1028.327
56.359	16.705	1353.389	1027.420
57.374	16.671	1352.518	1026.465
58.388	16.674	1351.568	1025.669
59.403	16.580	1351.175	1024.713
60.417	16.637	1350.544	1024.485
61.432	16.489	1349.767	1022.909
62.447	16.485	1348.066	1021.507
63.461	16.442	1347.005	1020.353
64.476	16.418	1346.218	1019.525
65.490	16.385	1344.964	1018.283
66.505	16.485	1343.250	1017.497
67.520	16.438	1341.915	1016.112
68.534	16.562	1341.133	1016.178
69.549	16.503	1340.215	1015.036
70.563	16.395	1338.877	1013.288
71.578	16.456	1337.585	1012.586
72.593	16.358	1336.956	1011.428
73.607	16.389	1336.204	1010.961
74.622	16.388	1335.307	1010.184
75.636	16.409	1334.486	1009.599
76.651	16.332	1334.169	1008.809
77.666	16.370	1333.796	1008.667
78.680	16.498	1332.828	1008.610
79.695	16.503	1332.592	1008.372
80.709	16.521	1332.082	1008.000
81.724	16.714	1330.838	1008.119
82.739	16.682	1329.838	1007.081
83.753	16.846	1329.157	1007.452
84.768	16.995	1328.293	1007.595
85.782	17.130	1327.151	1007.443
86.797	17.207	1325.560	1006.602
87.812	16.975	1324.252	1004.145
88.826	17.007	1323.523	1003.691
89.841	16.913	1322.707	1002.428
90.855	16.974	1321.835	1002.041
91.870	17.027	1320.961	1001.600
92.884	17.110	1319.779	1001.104
93.899	17.100	1318.757	1000.184
94.914	17.021	1318.572	999.492
95.928	17.025	1317.805	998.844
96.943	17.079	1316.708	998.243
97.957	17.046	1315.865	997.318
98.972	17.050	1314.729	996.396
99.987	17.092	1313.670	995.752
101.001	17.013	1312.638	994.413
102.016	17.028	1311.700	993.707
103.030	17.054	1310.661	992.980
104.045	16.934	1310.190	991.834
105.060	17.001	1308.207	990.637
106.074	16.757	1306.807	988.068
107.089	16.589	1305.001	985.638
108.103	16.573	1303.645	984.432
109.118	16.547	1302.921	983.646
110.133	16.592	1301.912	983.056
111.147	16.619	1299.967	981.658
112.162	16.591	1298.593	980.373
113.176	16.728	1297.714	980.414
114.191	16.727	1297.024	979.800
115.206	16.696	1296.156	978.880
116.220	16.631	1294.965	977.520
117.235	16.662	1293.629	976.602
118.249	16.691	1292.279	975.666
119.264	16.622	1291.142	974.325
120.279	16.524	1290.261	973.007
121.293	16.557	1289.146	972.269
122.308	16.527	1288.175	971.280
123.322	16.389	1287.559	969.936
124.337	16.492	1285.737	969.068
125.352	16.511	1284.892	968.453
126.366	16.400	1284.113	967.150
127.381	16.449	1282.991	966.498
128.395	16.424	1282.021	965.538
129.410	16.467	1281.288	965.145
130.424	16.496	1280.418	964.570
131.439	16.516	1279.853	964.176
132.454	16.673	1278.759	964.158
133.468	16.682	1277.922	963.491
134.483	16.661	1277.435	962.922
135.497	16.727	1276.208	962.287
136.512	16.707	1274.779	961.012
137.527	16.808	1273.460	960.502
138.541	16.639	1272.293	958.583
139.556	16.785	1271.095	958.419
140.570	16.735	1270.500	957.602
141.585	16.939	1269.237	957.719
142.600	16.979	1268.061	956.974
143.614	17.082	1266.709	956.449
144.629	17.073	1265.910	955.707
145.643	16.995	1264.997	954.499
146.658	16.981	1263.273	953.036
147.673	16.805	1262.370	951.282
148.687	16.834	1260.794	950.171
149.702	16.777	1259.681	948.928
150.716	16.724	1258.471	947.633
151.731	16.788	1256.886	946.718
152.746	16.776	1255.743	945.707
153.760	16.831	1254.619	945.082
154.775	16.957	1254.157	945.350
155.789	16.962	1252.606	944.125
156.804	16.958	1252.034	943.591
157.819	17.046	1250.840	943.096
158.833	16.922	1250.159	941.809
159.848	17.179	1249.209	942.438
160.862	17.139	1248.321	941.460
161.877	16.851	1247.332	939.036
162.892	16.920	1245.672	938.086
163.906	16.690	1245.089	936.292
164.921	16.854	1244.225	936.466
165.935	16.956	1242.645	935.756
166.950	17.006	1242.079	935.523
167.964	16.853	1242.180	934.675
168.979	16.896	1241.570	934.372
169.994	16.995	1239.951	933.612
171.008	17.019	1239.185	933.085
172.023	17.095	1238.476	932.886
173.037	17.211	1237.968	933.059
174.052	17.125	1237.302	932.002
175.067	16.978	1235.648	929.866
176.081	16.898	1234.649	928.595
177.096	16.964	1233.835	928.263
178.110	16.920	1233.149	927.425
179.125	17.131	1231.357	927.145
180.140	17.061	1230.491	926.030
181.154	17.079	1229.632	925.399
182.169	17.270	1227.932	925.079
183.183	17.298	1227.106	924.526
184.198	17.230	1226.020	923.257
185.213	17.298	1224.630	922.495
186.227	17.282	1223.689	921.621
187.242	17.319	1222.815	921.083
188.256	17.439	1221.323	920.524
189.271	17.530	1220.977	920.676
190.286	17.312	1219.408	918.233
191.300	17.038	1218.078	915.672
192.315	16.900	1217.432	914.361
193.329	16.924	1217.343	914.343
194.344	16.915	1216.521	913.595
195.359	16.993	1216.137	913.649
196.373	17.142	1215.986	914.254
197.388	17.217	1215.473	914.189
198.402	17.383	1215.200	914.798
199.417	17.569	1214.169	914.937
200.432	17.629	1213.231	914.474
201.446	17.708	1212.581	914.328
202.461	17.702	1211.907	913.704
203.475	17.649	1210.620	912.373
204.490	17.658	1209.126	911.213
205.504	17.608	1207.283	909.474
206.519	17.540	1207.020	908.836
207.534	17.436	1205.973	907.411
208.548	17.418	1204.909	906.432
209.563	17.464	1204.245	906.099
210.577	17.403	1203.638	905.240
211.592	17.525	1202.403	904.879
212.607	17.655	1201.673	904.936
213.621	17.600	1200.939	904.014
214.636	17.638	1199.814	903.286
215.650	17.695	1198.430	902.470
216.665	17.706	1198.146	902.232
217.680	17.874	1197.311	902.413
218.694	17.832	1196.271	901.325
219.709	17.729	1196.098	900.572
220.723	17.771	1195.049	899.924
221.738	17.701	1194.207	898.840
222.753	17.705	1193.462	898.222
223.767	17.765	1192.928	898.058
224.782	17.897	1192.019	897.990
225.796	17.952	1191.724	897.976
226.811	17.936	1191.002	897.270
227.826	17.718	1190.249	895.475
228.840	17.800	1189.009	894.895
229.855	17.771	1188.436	894.230
230.869	17.780	1188.061	893.917
231.884	17.722	1186.994	892.732
232.899	17.582	1186.156	891.292
233.913	17.585	1185.334	890.611
234.928	17.665	1184.523	890.340
235.942	17.552	1183.442	888.856
236.957	17.617	1182.599	888.488
237.972	17.674	1182.433	888.579
238.986	17.589	1181.870	887.637
240.001	17.617	1180.995	887.045
241.015	17.681	1179.980	886.537
242.030	17.772	1179.259	886.389
243.045	17.747	1178.890	885.904
244.059	17.938	1177.533	885.798
245.074	17.936	1176.897	885.228
246.088	17.987	1176.052	884.779
247.103	18.100	1175.307	884.726
248.117	18.110	1174.736	884.271
249.132	18.214	1174.264	884.377
250.147	18.251	1173.584	883.974
251.161	18.384	1173.013	884.150
252.176	18.335	1172.426	883.378
253.190	18.484	1171.710	883.530
254.205	18.571	1171.037	883.393
255.220	18.616	1170.521	883.156
256.234	18.484	1170.030	882.031
257.249	18.544	1169.247	881.669
258.263	18.550	1168.611	881.145
259.278	18.525	1167.884	880.388
260.293	18.670	1167.156	880.506
261.307	18.680	1166.585	880.049
262.322	18.595	1166.257	879.288
263.336	18.713	1165.238	879.045
264.351	18.706	1164.692	878.519
265.366	18.674	1164.411	878.065
266.380	18.672	1163.244	877.101
267.395	18.651	1162.547	876.385
268.409	18.467	1161.854	874.849
269.424	18.475	1160.994	874.165
270.439	18.548	1160.676	874.220
271.453	18.413	1160.120	873.037
272.468	18.425	1158.734	871.974
273.482	18.464	1157.744	871.355
274.497	18.400	1157.633	870.869
275.512	18.499	1156.816	870.679
276.526	18.644	1155.391	870.263
277.541	18.476	1155.195	869.185
278.555	18.694	1154.430	869.639
279.570	18.748	1153.603	869.212
280.585	18.641	1153.439	868.471
281.599	18.823	1152.377	868.517
282.614	18.809	1150.664	867.075
283.628	18.807	1149.485	866.100
284.643	18.565	1149.296	864.662
285.657	18.630	1148.460	864.287
286.672	18.739	1147.120	863.750
287.687	18.717	1146.335	862.971
288.701	18.713	1146.032	862.646
289.716	18.724	1144.916	861.783
290.730	18.673	1144.665	861.261
291.745	18.769	1143.420	860.730
292.760	18.810	1142.741	860.350
293.774	18.850	1142.904	860.594
294.789	18.870	1141.868	859.841
295.803	18.967	1141.378	859.880
296.818	18.904	1140.408	858.757
297.833	18.849	1139.759	857.917
298.847	18.706	1139.242	856.739
299.862	18.828	1138.036	856.365
300.876	18.856	1137.540	856.058
301.891	18.863	1137.372	855.886
302.906	19.082	1136.279	856.079
303.920	19.034	1135.579	855.236
304.935	19.107	1135.123	855.182
305.949	19.310	1133.914	855.203
306.964	19.172	1133.685	854.270
307.979	19.171	1132.620	853.386
308.993	19.180	1131.944	852.848
310.008	19.274	1130.992	852.517
311.022	19.243	1130.531	851.942
312.037	19.262	1129.133	850.909
313.052	19.037	1128.720	849.409
314.066	18.936	1127.697	848.067
315.081	18.977	1126.429	847.240
316.095	19.005	1125.808	846.836
317.110	19.038	1124.887	846.228
318.125	19.062	1124.399	845.907
319.139	18.949	1123.794	844.819
320.154	19.011	1122.723	844.246
321.168	19.013	1122.156	843.755
322.183	18.874	1121.880	842.791
323.197	18.975	1121.260	842.746
324.212	19.094	1120.638	842.784
325.227	19.098	1120.065	842.301
326.241	19.155	1119.185	841.843
327.256	18.952	1118.803	840.486
328.270	18.998	1117.836	839.914
329.285	18.957	1116.749	838.819
330.300	19.152	1115.350	838.647
331.314	19.047	1114.777	837.630
332.329	19.093	1113.686	836.958
333.343	19.207	1112.878	836.831
334.358	19.261	1112.376	836.644
335.373	19.365	1111.497	836.414
336.387	19.383	1110.922	835.994
337.402	19.305	1110.090	834.913
338.416	19.455	1109.575	835.177
339.431	19.525	1108.599	834.710
340.446	19.647	1107.960	834.744
341.460	19.644	1107.379	834.218
342.475	19.788	1106.708	834.332
343.489	19.651	1106.375	833.347
344.504	19.866	1104.720	833.065
345.519	19.813	1104.165	832.314
346.533	19.725	1103.256	831.136
347.548	19.953	1102.671	831.716
348.562	19.834	1101.920	830.502
349.577	19.729	1100.878	829.143
350.592	19.541	1099.976	827.485
351.606	19.489	1099.403	826.734
352.621	19.407	1098.825	825.835
353.635	19.419	1098.504	825.577
354.650	19.336	1097.406	824.281
355.665	19.547	1096.235	824.338
356.679	19.586	1095.999	824.274
357.694	19.654	1095.797	824.370
358.708	19.661	1094.825	823.603
359.723	19.728	1094.294	823.449
360.738	19.756	1093.854	823.178
361.752	19.641	1093.189	822.056
362.767	19.624	1092.621	821.478
363.781	19.668	1092.109	821.227
364.796	19.714	1091.522	820.933
365.810	19.847	1090.879	821.007
366.825	20.007	1090.409	821.339
367.840	20.055	1090.188	821.328
368.854	20.166	1089.481	821.247
369.869	20.083	1088.506	820.050
370.883	20.096	1087.739	819.459
371.898	20.038	1086.713	818.342
372.913	19.914	1086.404	817.448
373.927	19.987	1086.155	817.535
374.942	20.116	1085.234	817.376
375.956	20.084	1084.947	816.940
376.971	20.177	1084.144	816.697
377.986	20.245	1083.190	816.227
379.000	20.194	1083.190	815.916
380.015	20.289	1082.669	815.897
381.029	20.348	1081.740	815.405
382.044	20.237	1081.489	814.620
383.059	20.314	1080.313	814.024
384.073	20.176	1079.769	812.896
385.088	20.349	1078.536	812.703
386.102	20.300	1077.971	811.976
387.117	20.389	1075.921	810.778
388.132	20.104	1075.489	809.050
389.146	20.034	1074.985	808.271
390.161	20.068	1074.385	807.906
391.175	20.214	1073.142	807.582
392.190	20.139	1072.833	806.930
393.205	20.369	1072.364	807.576
394.219	20.225	1071.654	806.301
395.234	20.214	1070.391	805.228
396.248	20.119	1069.104	803.746
397.263	20.194	1067.929	803.139
398.278	20.104	1067.384	802.240
399.292	20.101	1066.990	801.863
400.307	20.222	1065.868	801.505
401.321	20.040	1065.558	800.361
402.336	20.042	1064.918	799.820
403.350	19.957	1064.184	798.805
404.365	20.134	1063.431	798.984
405.380	20.206	1062.634	798.649
406.394	20.322	1061.758	798.451
407.409	20.330	1061.646	798.335
408.423	20.349	1060.857	797.755
409.438	20.453	1060.103	797.598
410.453	20.537	1059.067	797.132
411.467	20.628	1058.421	796.994
412.482	20.600	1057.891	796.393
413.496	20.639	1057.555	796.247
414.511	20.638	1056.955	795.722
415.526	20.808	1056.110	795.792
416.540	20.835	1056.013	795.772
417.555	20.847	1055.098	795.066
418.569	20.701	1054.686	794.019
419.584	20.765	1054.057	793.767
420.599	20.786	1053.848	793.636
421.613	155.601	1404.813	1798.703
422.628	142.805	1455.912	1798.770
