DTS Sentinel unit serial number:	SN413079Multiplexer serial number:	ORYXHardware model number:	OX4-SRSoftware version number:	ORYX F/W v4.00 Oryx Data Collector v3.7.2.0data status	okinstallation	princeton_trtdifferential loss correction	single-endedforward channel	channel 2reverse channel	N/Adate	2019/09/18time	03:43:35forward acquisition time	60.00reverse acquisition time	0.00gamma	496.2192k internal	0.2349k external	0.2349temperature offset calibration	0.9981default loss term (dB/km)	0.3790temperature slope calibration	1.0000multiplexer offset coefficient	1.0000multiplexer slope coefficient	1.0000fibre end	0.00T internal ref (°C)	22.94T ext. ref 1 (°C)	0.17T ext. ref 2 (°C)	18.06length (m)	temperature (°C)	Stokes	anti-Stokes-747.200	158.716	0.159	0.220
-746.185	87.408	0.100	0.110
-745.171	227.515	0.044	0.071
-744.156	-188.169	0.313	-0.004
-743.142	-200.000	0.000	-0.007
-742.127	-200.000	-0.040	0.488
-741.112	-74.909	0.220	0.079
-740.098	800.000	-0.035	0.102
-739.083	800.000	-0.055	0.164
-738.069	-36.041	-0.118	-0.064
-737.054	-44.615	-0.113	0.056
-736.039	122.397	-0.232	-0.290
-735.025	-200.000	0.013	0.376
-734.010	54.090	-0.095	-0.092
-732.996	-107.632	-0.170	0.037
-731.981	82.581	-0.243	-0.263
-730.966	-153.358	-0.213	0.015
-729.952	45.182	-0.196	-0.180
-728.937	-200.000	-0.072	0.433
-727.923	800.000	-0.029	0.093
-726.908	-50.714	-0.190	-0.089
-725.894	-38.148	-0.006	-0.003
-724.879	-28.849	-0.261	-0.150
-723.864	800.000	-0.022	0.094
-722.850	-164.557	0.094	0.004
-721.835	-200.000	0.034	-0.173
-720.821	-89.849	-0.379	0.111
-719.806	273.271	0.062	-0.109
-718.791	220.767	0.160	-0.256
-717.777	206.749	0.115	-0.179
-716.762	-200.000	0.017	-0.380
-715.748	19.608	-0.206	-0.166
-714.733	58.944	-0.174	0.171
-713.718	800.000	0.021	0.069
-712.704	800.000	-0.054	0.178
-711.689	800.000	0.028	0.117
-710.675	800.000	0.022	-0.072
-709.660	529.254	0.070	0.165
-708.645	-63.556	-0.366	0.150
-707.631	-60.579	-0.213	0.090
-706.616	-68.265	0.153	-0.059
-705.602	-193.047	-0.364	-0.003
-704.587	800.000	-0.052	-0.146
-703.572	-200.000	0.002	-0.285
-702.558	126.332	-0.072	-0.090
-701.543	-200.000	-0.055	-0.298
-700.529	-200.000	-0.078	-0.434
-699.514	-200.000	-0.072	0.413
-698.499	800.000	0.164	-0.499
-697.485	273.469	-0.130	-0.230
-696.470	170.096	0.035	-0.050
-695.456	-200.000	-0.368	0.000
-694.441	-121.683	-0.173	-0.029
-693.426	-200.000	-0.023	-0.182
-692.412	-112.073	-0.409	-0.082
-691.397	119.822	0.239	-0.296
-690.383	-102.686	0.271	-0.064
-689.368	-200.000	-0.034	0.440
-688.354	-200.000	0.059	-0.373
-687.339	800.000	0.022	0.092
-686.324	81.117	-0.190	-0.205
-685.310	-54.214	-0.375	-0.170
-684.295	721.672	-0.071	-0.187
-683.281	-200.000	0.032	-0.425
-682.266	25.427	0.156	-0.129
-681.251	-65.141	0.156	-0.063
-680.237	113.503	-0.218	-0.263
-679.222	-106.287	-0.266	-0.059
-678.208	-200.000	0.007	0.115
-677.193	163.687	0.051	-0.072
-676.178	-127.759	0.226	-0.033
-675.164	-200.000	0.031	0.201
-674.149	-23.414	-0.164	-0.098
-673.135	-181.183	0.234	0.005
-672.120	43.978	0.256	-0.233
-671.105	86.143	-0.170	0.187
-670.091	-34.516	-0.094	0.051
-669.076	58.771	0.126	0.123
-668.062	-152.969	-0.278	0.020
-667.047	4.333	0.110	-0.080
-666.032	-200.000	0.030	0.131
-665.018	-200.000	0.018	-0.129
-664.003	0.141	-0.046	-0.033
-662.989	14.471	-0.335	0.260
-661.974	216.269	-0.050	0.078
-660.959	-86.056	-0.080	0.025
-659.945	177.916	-0.078	0.113
-658.930	-61.088	-0.082	-0.034
-657.916	-42.245	0.296	-0.151
-656.901	380.478	0.068	-0.139
-655.886	-200.000	0.023	0.105
-654.872	-108.158	0.145	-0.031
-653.857	-55.629	-0.276	0.123
-652.843	22.354	-0.058	0.047
-651.828	-53.016	-0.205	-0.094
-650.814	658.289	-0.059	0.151
-649.799	-93.001	-0.445	0.124
-648.784	-77.565	0.099	0.034
-647.770	-200.000	-0.066	-0.389
-646.755	22.856	0.279	-0.227
-645.741	604.727	0.067	-0.165
-644.726	800.000	-0.111	-0.431
-643.711	-43.198	-0.084	0.043
-642.697	-19.693	-0.079	-0.049
-641.682	-85.241	0.342	-0.106
-640.668	-74.074	-0.309	-0.111
-639.653	-72.784	0.107	0.039
-638.638	278.446	-0.107	0.189
-637.624	608.015	-0.129	-0.319
-636.609	1.780	0.195	0.140
-635.595	53.067	0.115	0.109
-634.580	-116.389	0.201	-0.037
-633.565	391.487	-0.103	-0.213
-632.551	-78.860	-0.118	-0.040
-631.536	187.309	0.193	0.286
-630.522	-66.402	-0.102	-0.040
-629.507	49.146	-0.098	0.092
-628.492	800.000	-0.083	0.246
-627.478	32.147	0.183	-0.157
-626.463	421.988	-0.033	0.069
-625.449	-200.000	0.053	-0.330
-624.434	7.809	-0.263	0.196
-623.419	256.836	0.093	-0.158
-622.405	-153.024	-0.206	0.014
-621.390	-200.000	-0.017	-0.279
-620.376	800.000	-0.074	0.287
-619.361	220.643	-0.112	-0.179
-618.346	800.000	0.031	-0.107
-617.332	82.601	0.155	0.167
-616.317	-148.418	-0.406	0.033
-615.303	-91.792	-0.119	0.034
-614.288	791.451	-0.092	-0.252
-613.273	800.000	0.036	-0.135
-612.259	-36.027	-0.265	0.142
-611.244	265.244	-0.174	-0.301
-610.230	328.724	-0.053	0.102
-609.215	-106.715	0.028	-0.006
-608.201	-200.000	-0.062	-0.275
-607.186	104.956	0.075	-0.088
-606.171	36.824	0.025	-0.022
-605.157	184.339	0.050	0.074
-604.142	-161.537	0.282	-0.014
-603.128	800.000	-0.081	0.257
-602.113	-35.316	0.381	-0.206
-601.098	674.182	-0.080	0.206
-600.084	-200.000	0.006	0.133
-599.069	-200.000	-0.071	0.444
-598.055	32.157	0.040	-0.034
-597.040	543.811	0.133	-0.315
-596.025	317.820	-0.041	0.078
-595.011	-121.836	-0.368	-0.060
-593.996	106.528	0.129	0.151
-592.982	145.621	-0.137	-0.182
-591.967	63.156	0.212	-0.211
-590.952	800.000	-0.047	-0.150
-589.938	800.000	-0.056	-0.216
-588.923	-200.000	0.065	-0.357
-587.909	800.000	-0.023	0.083
-586.894	-82.510	-0.149	-0.048
-585.879	462.033	0.101	-0.224
-584.865	-128.392	-0.287	-0.041
-583.850	-200.000	0.001	-0.105
-582.836	-200.000	-0.045	0.329
-581.821	633.122	0.106	-0.267
-580.806	-11.082	-0.184	-0.120
-579.792	-56.966	-0.271	-0.119
-578.777	-200.000	0.038	-0.213
-577.763	-200.000	-0.029	0.183
-576.748	800.000	-0.050	0.144
-575.733	16.333	0.277	0.217
-574.719	109.055	0.123	0.146
-573.704	-59.962	0.188	0.080
-572.690	-10.433	0.272	0.179
-571.675	73.635	-0.090	0.093
-570.661	-107.474	-0.177	0.039
-569.646	-108.177	-0.062	-0.013
-568.631	-14.306	0.141	0.090
-567.617	621.935	0.077	-0.192
-566.602	800.000	0.021	0.060
-565.588	16.038	-0.219	0.171
-564.573	-10.455	0.506	0.333
-563.558	-70.836	-0.138	0.052
-562.544	800.000	-0.075	0.238
-561.529	800.000	0.063	0.183
-560.515	-200.000	0.033	0.210
-559.500	96.145	0.133	0.151
-558.485	-83.692	-0.135	-0.043
-557.471	800.000	0.135	-0.378
-556.456	-200.000	0.084	-0.000
-555.442	-34.508	-0.320	-0.174
-554.427	-99.890	0.106	-0.026
-553.412	-82.670	0.156	-0.050
-552.398	81.177	-0.053	-0.057
-551.383	35.347	0.138	-0.120
-550.369	-200.000	0.018	-0.092
-549.354	-121.716	0.086	-0.014
-548.339	28.488	0.140	-0.117
-547.325	1.252	0.172	0.122
-546.310	-200.000	0.029	-0.228
-545.296	227.116	-0.096	0.155
-544.281	28.936	0.206	0.173
-543.266	32.869	0.051	-0.044
-542.252	-13.663	-0.112	0.072
-541.237	58.099	-0.225	-0.218
-540.223	-53.490	-0.242	0.110
-539.208	800.000	0.079	0.219
-538.193	424.718	-0.104	0.222
-537.179	-102.136	-0.318	-0.076
-536.164	358.537	0.003	-0.007
-535.150	145.092	-0.234	-0.311
-534.135	299.876	-0.062	-0.113
-533.121	800.000	-0.078	0.327
-532.106	-43.371	-0.131	0.066
-531.091	-29.413	0.241	-0.137
-530.077	-200.000	-0.017	0.149
-529.062	659.166	-0.106	0.271
-528.048	-110.081	0.030	-0.006
-527.033	-139.956	-0.302	-0.032
-526.018	23.605	0.194	0.158
-525.004	104.138	0.164	0.191
-523.989	34.459	-0.444	0.384
-522.975	83.091	0.203	0.218
-521.960	653.722	0.096	-0.243
-520.945	798.459	-0.120	-0.326
-519.931	-78.547	-0.137	0.046
-518.916	-21.587	-0.317	0.191
-517.902	160.298	0.126	0.174
-516.887	-200.000	0.018	0.332
-515.872	50.780	0.139	-0.130
-514.858	800.000	-0.029	0.083
-513.843	-19.321	-0.394	-0.242
-512.829	666.232	-0.128	0.327
-511.814	-200.000	-0.016	-0.151
-510.799	586.620	-0.120	-0.292
-509.785	28.315	0.477	0.399
-508.770	-112.398	-0.343	-0.068
-507.756	-127.738	-0.249	0.036
-506.741	47.697	0.167	0.154
-505.726	-38.866	0.131	-0.068
-504.712	-103.873	0.171	0.039
-503.697	82.719	-0.155	-0.167
-502.683	367.754	0.207	-0.414
-501.668	-44.447	-0.005	-0.002
-500.653	50.292	0.312	0.291
-499.639	-200.000	-0.007	-0.133
-498.624	-200.000	-0.042	-0.417
-497.610	-200.000	0.047	-0.288
-496.595	800.000	-0.058	-0.210
-495.581	-108.769	-0.133	-0.028
-494.566	-200.000	0.015	-0.307
-493.551	-91.186	0.348	0.099
-492.537	454.690	0.012	-0.027
-491.522	623.403	0.049	-0.122
-490.508	70.813	-0.071	-0.073
-489.493	58.188	-0.085	-0.082
-488.478	-200.000	0.005	0.101
-487.464	-104.418	-0.061	-0.014
-486.449	106.457	0.212	0.248
-485.435	780.196	0.077	0.208
-484.420	-30.285	0.256	0.144
-483.405	769.633	-0.068	-0.182
-482.391	197.493	-0.051	-0.078
-481.376	-34.786	-0.079	-0.043
-480.362	13.280	-0.064	0.049
-479.347	135.088	-0.234	0.301
-478.332	-69.947	0.283	0.107
-477.318	-7.100	0.090	-0.061
-476.303	800.000	0.037	-0.150
-475.289	154.888	0.056	0.076
-474.274	52.210	-0.165	0.155
-473.259	-5.822	0.212	-0.143
-472.245	137.753	0.100	0.130
-471.230	-103.611	-0.214	0.050
-470.216	-13.364	-0.084	0.054
-469.201	-200.000	-0.042	0.244
-468.186	-160.442	0.224	0.012
-467.172	-0.468	0.182	-0.128
-466.157	-116.860	0.121	0.022
-465.143	702.925	-0.055	-0.143
-464.128	98.753	-0.178	-0.203
-463.113	-200.000	0.016	-0.251
-462.099	-14.049	-0.148	-0.095
-461.084	-200.000	0.006	-0.174
-460.070	800.000	-0.045	-0.150
-459.055	75.665	0.190	-0.199
-458.040	227.885	-0.060	-0.096
-457.026	-177.052	-0.118	0.003
-456.011	666.939	0.047	0.119
-454.997	60.422	-0.101	0.099
-453.982	-200.000	0.010	-0.216
-452.968	187.537	0.045	-0.066
-451.953	15.862	-0.058	0.045
-450.938	-34.826	-0.203	-0.110
-449.924	330.138	-0.086	0.163
-448.909	-125.578	0.531	0.080
-447.895	226.372	-0.216	-0.346
-446.880	-81.522	0.267	0.087
-445.865	170.114	0.136	-0.192
-444.851	133.616	0.072	-0.091
-443.836	-200.000	-0.051	0.247
-442.822	116.467	-0.073	0.089
-441.807	279.319	-0.176	0.310
-440.792	-200.000	-0.004	0.065
-439.778	800.000	0.039	0.138
-438.763	-117.439	0.287	-0.051
-437.749	800.000	0.024	-0.078
-436.734	33.241	-0.050	-0.043
-435.719	800.000	-0.070	-0.244
-434.705	84.126	-0.230	0.247
-433.690	135.264	-0.099	-0.127
-432.676	-39.563	0.178	-0.092
-431.661	-39.179	-0.166	-0.086
-430.646	-27.559	0.165	-0.095
-429.632	-131.303	-0.227	-0.030
-428.617	800.000	-0.021	0.077
-427.603	168.170	-0.128	-0.180
-426.588	64.729	-0.050	-0.050
-425.573	-99.450	-0.393	-0.097
-424.559	-1.301	-0.206	-0.144
-423.544	800.000	-0.115	-0.416
-422.530	-200.000	-0.022	-0.153
-421.515	-75.999	-0.135	-0.047
-420.500	42.687	0.181	0.162
-419.486	-47.069	0.324	0.156
-418.471	-132.546	0.348	-0.044
-417.457	-62.321	0.336	0.138
-416.442	-200.000	0.062	0.366
-415.428	172.129	-0.018	0.026
-414.413	130.100	0.087	0.110
-413.398	-4.990	0.383	-0.260
-412.384	32.586	-0.110	-0.094
-411.369	800.000	0.054	0.191
-410.355	-158.751	-0.115	0.006
-409.340	161.219	-0.296	0.408
-408.325	74.850	0.196	0.203
-407.311	-16.466	-0.251	-0.157
-406.296	800.000	0.063	-0.251
-405.282	800.000	-0.037	0.115
-404.267	11.808	0.200	0.151
-403.252	800.000	-0.044	0.175
-402.238	14.545	0.237	-0.182
-401.223	-158.591	-0.175	-0.010
-400.209	800.000	-0.024	0.066
-399.194	67.083	0.084	-0.084
-398.179	-118.248	-0.524	-0.092
-397.165	621.492	-0.125	-0.311
-396.150	43.659	0.192	-0.173
-395.136	37.706	0.338	-0.296
-394.121	-91.867	-0.074	0.021
-393.106	-200.000	0.084	0.488
-392.092	-69.691	0.275	0.103
-391.077	-200.000	-0.027	-0.237
-390.063	-107.899	-0.365	0.078
-389.048	17.001	0.064	0.050
-388.033	-125.200	0.296	-0.045
-387.019	-200.000	0.011	0.092
-386.004	28.063	-0.337	0.280
-384.990	800.000	0.062	0.191
-383.975	232.628	-0.164	0.266
-382.960	128.937	0.216	0.271
-381.946	230.498	0.130	0.210
-380.931	1.709	-0.153	0.108
-379.917	-200.000	0.024	-0.273
-378.902	-74.423	0.159	-0.056
-377.888	136.181	0.115	0.147
-376.873	800.000	-0.032	0.128
-375.858	613.656	0.005	0.012
-374.844	-32.120	-0.219	0.121
-373.829	313.097	0.180	0.333
-372.815	-87.460	0.320	0.095
-371.800	-200.000	-0.014	0.130
-370.785	-58.055	-0.021	0.009
-369.771	-3.294	0.104	0.072
-368.756	32.299	0.200	0.170
-367.742	-200.000	-0.070	-0.313
-366.727	-98.396	-0.206	0.052
-365.712	117.559	0.124	0.150
-364.698	26.016	0.423	0.348
-363.683	-44.340	0.184	0.090
-362.669	-200.000	-0.006	0.061
-361.654	-132.776	-0.133	0.017
-360.639	-122.087	-0.153	0.025
-359.625	-200.000	-0.018	-0.182
-358.610	-151.015	0.140	0.010
-357.596	147.440	-0.080	-0.106
-356.581	111.792	-0.050	0.059
-355.566	-95.003	-0.076	0.020
-354.552	-156.327	-0.114	0.007
-353.537	64.149	0.022	-0.022
-352.523	-200.000	-0.039	0.191
-351.508	85.915	-0.269	-0.291
-350.493	-200.000	0.050	-0.231
-349.479	-40.389	-0.347	-0.177
-348.464	-73.538	-0.139	0.050
-347.450	-27.414	0.121	0.069
-346.435	-58.589	0.118	-0.050
-345.420	-200.000	0.011	-0.143
-344.406	15.379	0.161	0.124
-343.391	-169.528	-0.320	-0.011
-342.377	259.684	0.106	0.180
-341.362	-200.000	-0.028	0.178
-340.348	160.727	0.144	-0.197
-339.333	-200.000	-0.001	0.239
-338.318	-200.000	-0.046	0.209
-337.304	83.285	0.058	0.063
-336.289	-108.202	0.133	-0.028
-335.275	-200.000	0.015	-0.126
-334.260	800.000	-0.075	0.238
-333.245	-67.066	0.117	-0.045
-332.231	-32.009	0.211	0.116
-331.216	195.706	0.101	-0.151
-330.202	324.654	-0.157	-0.295
-329.187	-200.000	0.069	0.336
-328.172	-93.307	0.291	0.079
-327.158	-126.625	-0.219	0.032
-326.143	122.613	-0.216	0.265
-325.129	-20.084	-0.469	0.284
-324.114	-121.156	0.297	-0.049
-323.099	-200.000	-0.027	0.125
-322.085	467.416	-0.079	-0.174
-321.070	-200.000	-0.003	-0.309
-320.056	-77.042	-0.211	-0.072
-319.041	-37.900	0.154	-0.080
-318.026	-200.000	-0.021	-0.285
-317.012	412.676	0.098	-0.204
-315.997	-96.707	0.280	-0.072
-314.983	329.784	0.097	0.183
-313.968	-38.010	0.077	-0.040
-312.953	-139.939	-0.134	-0.014
-311.939	-165.422	0.446	0.019
-310.924	367.045	-0.094	0.186
-309.910	333.019	0.019	0.035
-308.895	800.000	0.065	0.182
-307.880	387.309	0.173	0.352
-306.866	-65.826	-0.074	0.029
-305.851	67.416	-0.189	-0.190
-304.837	-200.000	-0.007	0.156
-303.822	-40.938	-0.175	0.089
-302.807	-200.000	-0.004	0.127
-301.793	174.999	0.193	-0.274
-300.778	234.465	0.069	-0.111
-299.764	-200.000	-0.044	0.264
-298.749	800.000	-0.068	0.225
-297.735	-132.483	-0.381	0.048
-296.720	800.000	0.081	-0.240
-295.705	-104.654	-0.211	0.048
-294.691	-109.573	-0.102	0.021
-293.676	800.000	0.009	-0.034
-292.662	123.682	-0.151	-0.186
-291.647	-29.106	-0.046	-0.026
-290.632	-141.488	-0.081	-0.008
-289.618	-200.000	-0.031	-0.227
-288.603	-200.000	0.040	-0.260
-287.589	-129.631	-0.353	-0.048
-286.574	-200.000	-0.031	0.377
-285.559	-93.588	-0.159	0.043
-284.545	54.831	0.207	-0.196
-283.530	-124.341	0.278	0.043
-282.516	-91.531	0.379	-0.106
-281.501	800.000	-0.099	0.339
-280.486	-75.451	0.321	-0.112
-279.472	-124.716	-0.189	0.029
-278.457	-200.000	-0.039	-0.368
-277.443	800.000	0.051	0.142
-276.428	-200.000	-0.033	0.165
-275.413	-200.000	-0.016	0.211
-274.399	800.000	0.062	-0.230
-273.384	25.678	-0.242	-0.198
-272.370	-3.106	0.195	0.134
-271.355	-200.000	0.004	-0.083
-270.340	-79.574	-0.248	0.082
-269.326	-15.394	0.252	0.158
-268.311	800.000	-0.062	0.219
-267.297	29.752	0.106	-0.089
-266.282	194.355	0.060	0.089
-265.267	-100.357	0.108	-0.026
-264.253	800.000	-0.037	0.125
-263.238	594.800	-0.063	0.152
-262.224	220.572	0.110	0.173
-261.209	80.491	0.089	-0.094
-260.195	297.920	0.075	0.134
-259.180	40.505	0.051	0.045
-258.165	601.778	-0.103	-0.251
-257.151	191.370	-0.135	0.198
-256.136	2.816	-0.152	0.108
-255.122	327.570	-0.151	-0.284
-254.107	-122.029	-0.176	-0.028
-253.092	24.529	-0.159	-0.129
-252.078	79.027	-0.071	-0.074
-251.063	-128.006	0.146	-0.020
-250.049	-160.019	-0.088	0.005
-249.034	-119.166	-0.105	-0.018
-248.019	-10.299	-0.041	-0.027
-247.005	70.570	0.076	0.077
-245.990	-18.294	-0.161	0.099
-244.976	146.262	-0.202	-0.266
-243.961	-68.004	-0.204	0.078
-242.946	-29.338	0.121	-0.068
-241.932	-90.141	0.241	0.069
-240.917	-55.504	0.143	0.063
-239.903	-36.100	-0.211	0.112
-238.888	-112.010	0.171	0.034
-237.873	376.157	-0.163	0.326
-236.859	-29.087	-0.099	0.055
-235.844	-112.926	0.330	0.064
-234.830	-12.266	-0.380	0.244
-233.815	-68.341	0.228	-0.087
-232.800	-67.661	0.524	-0.201
-231.786	-15.538	-0.050	-0.031
-230.771	-200.000	-0.053	-0.243
-229.757	-1.462	-0.056	0.039
-228.742	800.000	0.038	0.106
-227.727	-97.459	0.145	-0.037
-226.713	42.780	0.173	-0.154
-225.698	-130.772	0.058	-0.008
-224.684	800.000	0.093	-0.353
-223.669	-42.695	-0.451	-0.225
-222.655	-139.750	-0.254	0.026
-221.640	110.036	0.068	-0.079
-220.625	-172.122	0.151	0.005
-219.611	800.000	-0.067	0.264
-218.596	-200.000	-0.042	-0.396
-217.582	30.859	-0.064	-0.053
-216.567	44.405	-0.176	-0.158
-215.552	-200.000	0.007	-0.046
-214.538	-145.887	0.094	-0.008
-213.523	131.465	0.082	-0.103
-212.509	47.476	0.197	0.180
-211.494	-200.000	0.041	0.227
-210.479	553.651	-0.066	0.156
-209.465	-163.349	-0.147	-0.007
-208.450	-57.067	0.121	0.052
-207.436	-157.189	0.062	0.004
-206.421	-165.805	0.163	0.007
-205.406	-200.000	-0.015	-0.144
-204.392	-37.084	0.230	-0.121
-203.377	234.800	0.260	-0.420
-202.363	-77.751	0.222	0.075
-201.348	416.392	0.110	0.230
-200.333	-200.000	-0.017	0.278
-199.319	-72.554	0.089	0.032
-198.304	-95.979	0.160	0.042
-197.290	-174.483	0.178	0.005
-196.275	-29.649	-0.340	-0.190
-195.260	-76.752	-0.076	0.026
-194.246	-69.470	0.177	0.066
-193.231	-30.787	0.185	0.102
-192.217	477.347	0.079	-0.176
-191.202	90.456	-0.254	0.278
-190.187	-95.973	-0.325	0.084
-189.173	229.425	0.083	-0.133
-188.158	-97.276	0.255	0.065
-187.144	124.277	0.112	0.137
-186.129	-117.817	-0.488	0.086
-185.114	50.793	0.098	0.091
-184.100	72.460	-0.222	0.226
-183.085	694.976	0.110	-0.283
-182.071	-4.601	0.279	-0.188
-181.056	97.647	0.084	0.095
-180.042	-170.140	-0.378	0.013
-179.027	189.439	-0.119	-0.174
-178.012	595.955	-0.022	0.053
-176.998	-200.000	0.024	-0.351
-175.983	-126.854	0.270	-0.039
-174.969	22.532	-0.203	0.162
-173.954	749.724	-0.025	0.065
-172.939	571.758	0.063	-0.151
-171.925	-200.000	-0.004	0.424
-170.910	-2.712	-0.045	0.031
-169.896	-200.000	0.022	-0.442
-168.881	-200.000	0.054	-0.288
-167.866	325.619	0.093	-0.174
-166.852	303.567	0.077	-0.139
-165.837	25.376	-0.163	-0.132
-164.823	155.695	-0.047	-0.063
-163.808	800.000	0.073	0.260
-162.793	231.438	-0.060	0.096
-161.779	800.000	0.032	-0.102
-160.764	-89.646	-0.414	0.119
-159.750	-200.000	-0.215	-0.001
-158.735	-59.187	-0.117	0.049
-157.720	-24.002	0.115	-0.067
-156.706	-200.000	0.010	-0.140
-155.691	-133.535	0.406	-0.050
-154.677	-200.000	0.008	0.195
-153.662	800.000	0.018	0.070
-152.647	-65.646	0.155	0.060
-151.633	34.627	-0.094	-0.080
-150.618	74.591	0.367	0.376
-149.604	30.816	-0.200	-0.167
-148.589	-26.553	-0.130	-0.075
-147.574	-22.565	0.041	0.024
-146.560	-103.513	-0.281	0.064
-145.545	-45.795	-0.139	-0.067
-144.531	16.974	0.073	-0.056
-143.516	594.421	0.103	0.248
-142.502	800.000	0.066	0.221
-141.487	-38.577	0.141	-0.073
-140.472	800.000	-0.065	-0.197
-139.458	-200.000	-0.033	-0.153
-138.443	-105.878	0.313	-0.069
-137.429	9.250	0.235	0.173
-136.414	-56.084	-0.229	0.100
-135.399	-120.145	-0.275	-0.046
-134.385	224.208	-0.124	-0.195
-133.370	-38.217	0.153	0.079
-132.356	527.486	-0.142	-0.326
-131.341	101.787	0.111	-0.126
-130.326	161.722	-0.124	-0.170
-129.312	16.768	-0.097	-0.075
-128.297	-142.326	0.211	0.020
-127.283	-38.073	-0.150	-0.078
-126.268	67.623	-0.119	0.119
-125.253	13.589	0.144	0.109
-124.239	72.299	-0.140	0.142
-123.224	800.000	0.053	-0.181
-122.210	64.918	-0.118	-0.116
-121.195	265.895	0.156	0.266
-120.180	800.000	-0.021	-0.078
-119.166	-23.311	0.021	0.012
-118.151	254.746	-0.031	-0.052
-117.137	-200.000	0.016	-0.254
-116.122	31.263	0.121	0.101
-115.107	67.915	0.101	0.100
-114.093	100.762	0.092	-0.105
-113.078	192.879	0.122	0.180
-112.064	-97.304	0.371	-0.094
-111.049	416.360	-0.150	0.312
-110.034	125.590	-0.084	0.103
-109.020	88.176	0.109	0.118
-108.005	136.401	0.079	0.100
-106.991	-165.710	0.285	-0.012
-105.976	661.667	0.049	0.124
-104.962	800.000	-0.064	-0.172
-103.947	-200.000	0.019	0.181
-102.932	96.058	0.077	0.086
-101.918	-103.478	0.095	-0.022
-100.903	9.221	-0.096	-0.071
-99.889	-139.245	0.242	-0.025
-98.874	-200.000	0.077	0.400
-97.859	54.998	0.245	0.230
-96.845	792.993	-0.016	-0.042
-95.830	800.000	0.079	-0.229
-94.816	-74.833	0.452	-0.158
-93.801	95.593	-0.137	-0.152
-92.786	-112.314	0.169	-0.033
-91.772	17.147	-0.246	0.190
-90.757	265.938	0.115	0.195
-89.743	-200.000	0.009	-0.155
-88.728	61.020	-0.111	0.107
-87.713	-89.888	-0.223	0.063
-86.699	800.000	-0.073	-0.205
-85.684	-71.745	0.226	-0.082
-84.670	-200.000	0.025	0.217
-83.655	138.124	-0.145	-0.185
-82.640	800.000	-0.062	0.190
-81.626	-52.728	0.089	-0.040
-80.611	-57.876	-0.402	0.171
-79.597	-18.652	0.222	-0.135
-78.582	298.420	-0.184	0.330
-77.567	-118.560	0.119	0.020
-76.553	-129.008	-0.163	0.022
-75.538	212.944	-0.044	0.067
-74.524	73.642	-0.223	0.227
-73.509	18.437	0.163	-0.127
-72.494	77.515	0.275	-0.284
-71.480	54.321	-0.151	0.141
-70.465	-131.607	-0.359	-0.046
-69.451	173.286	0.132	-0.185
-68.436	-5.380	-0.293	0.196
-67.422	-58.104	0.376	0.159
-66.407	-89.077	-0.317	-0.091
-65.392	23.808	0.301	-0.241
-64.378	-200.000	0.057	-0.327
-63.363	74.132	-0.059	-0.061
-62.349	800.000	-0.094	0.309
-61.334	171.745	-0.783	-1.094
-60.319	84.827	0.674	0.717
-59.305	633.301	-0.468	-1.153
-58.290	249.835	0.909	1.499
-57.276	717.336	0.586	1.512
-56.261	-200.000	124.768	653.654
-55.246	414.630	1584.097	3279.267
-54.232	140.637	2754.459	3536.196
-53.217	89.919	2306.739	2504.536
-52.203	32.102	1911.662	1602.129
-51.188	25.953	1707.422	1383.871
-50.173	23.878	1668.839	1336.961
-49.159	45.966	1738.264	1563.225
-48.144	43.214	1749.985	1552.564
-47.130	25.623	1701.118	1376.024
-46.115	23.014	1685.524	1343.553
-45.100	22.877	1680.617	1338.548
-44.086	22.857	1678.113	1336.345
-43.071	22.827	1675.747	1334.184
-42.057	22.829	1673.409	1332.288
-41.042	22.803	1671.830	1330.779
-40.027	22.848	1669.888	1329.521
-39.013	22.764	1668.199	1327.494
-37.998	22.781	1666.339	1326.082
-36.984	22.848	1665.046	1325.507
-35.969	22.991	1663.305	1325.140
-34.954	22.944	1661.910	1323.626
-33.940	22.865	1660.354	1321.738
-32.925	22.933	1658.654	1320.845
-31.911	22.952	1656.483	1319.209
-30.896	22.830	1655.387	1317.368
-29.881	22.906	1654.222	1316.955
-28.867	22.898	1652.443	1315.427
-27.852	22.956	1650.998	1314.658
-26.838	22.911	1649.465	1313.052
-25.823	23.009	1648.236	1312.747
-24.809	22.965	1646.971	1311.362
-23.794	22.914	1645.673	1309.896
-22.779	22.958	1644.085	1308.911
-21.765	22.891	1642.728	1307.282
-20.750	22.961	1640.576	1306.035
-19.736	22.948	1639.914	1305.355
-18.721	22.887	1638.400	1303.651
-17.706	22.949	1636.689	1302.694
-16.692	23.011	1634.802	1301.595
-15.677	22.954	1633.858	1300.378
-14.663	22.983	1632.383	1299.359
-13.648	23.011	1631.398	1298.735
-12.633	23.050	1629.406	1297.381
-11.619	22.996	1627.403	1295.342
-10.604	23.061	1625.859	1294.535
-9.590	22.965	1625.346	1293.369
-8.575	22.974	1623.657	1292.040
-7.560	23.039	1622.452	1291.509
-6.546	23.002	1621.609	1290.518
-5.531	22.994	1620.032	1289.149
-4.517	22.946	1619.313	1288.174
-3.502	22.976	1618.260	1287.504
-2.487	23.117	1615.866	1286.579
-1.473	22.760	1604.452	1274.863
-0.458	20.168	1585.409	1241.153
0.556	15.384	1588.871	1213.631
1.571	13.455	1613.571	1218.210
2.586	13.321	1625.815	1226.350
3.600	12.420	1570.681	1178.199
4.615	6.672	1462.920	1058.793
5.629	1.284	1403.087	980.657
6.644	0.245	1396.229	969.096
7.659	0.211	1395.147	968.040
8.673	0.091	1394.394	966.657
9.688	0.153	1391.960	965.284
10.702	0.046	1388.402	962.051
11.717	2.658	1392.326	981.416
12.731	9.714	1402.681	1034.012
13.746	15.346	1411.098	1076.362
14.761	16.714	1412.743	1086.303
15.775	16.189	1410.759	1081.318
16.790	15.133	1408.446	1072.688
17.804	14.412	1405.831	1065.990
18.819	14.057	1404.335	1062.496
19.834	13.793	1403.412	1060.012
20.848	13.651	1401.806	1057.804
21.863	13.379	1400.422	1054.928
22.877	13.225	1399.562	1053.207
23.892	13.050	1398.521	1051.216
24.907	13.143	1397.628	1051.046
25.921	13.135	1397.039	1050.459
26.936	13.174	1395.754	1049.643
27.950	13.252	1394.536	1049.130
28.965	13.350	1393.896	1049.180
29.980	13.302	1393.272	1048.313
30.994	13.361	1392.206	1047.792
32.009	13.339	1391.138	1046.756
33.023	13.428	1389.412	1045.925
34.038	13.299	1388.472	1044.311
35.053	13.417	1386.707	1043.636
36.067	13.275	1386.553	1042.532
37.082	13.229	1385.478	1041.344
38.096	13.338	1384.179	1040.959
39.111	13.294	1383.880	1040.367
40.126	13.301	1382.680	1039.416
41.140	13.262	1381.498	1038.191
42.155	13.108	1381.759	1037.329
43.169	13.089	1381.509	1036.926
44.184	13.048	1381.366	1036.471
45.199	13.248	1380.273	1036.814
46.213	13.220	1380.239	1036.520
47.228	13.253	1378.230	1035.128
48.242	13.297	1377.458	1034.734
49.257	13.203	1375.916	1032.895
50.271	13.283	1374.263	1032.063
51.286	13.261	1373.321	1031.124
52.301	13.193	1372.003	1029.623
53.315	13.284	1370.322	1028.834
54.330	13.087	1370.201	1027.426
55.344	13.257	1368.511	1027.127
56.359	13.165	1367.472	1025.684
57.374	13.166	1366.676	1025.001
58.388	13.132	1365.791	1024.034
59.403	13.037	1365.711	1023.295
60.417	12.980	1365.170	1022.451
61.432	13.114	1363.823	1022.180
62.447	12.997	1362.544	1020.408
63.461	12.927	1361.375	1019.007
64.476	12.917	1360.959	1018.545
65.490	13.009	1359.342	1017.810
66.505	13.087	1357.408	1016.755
67.520	13.146	1356.057	1016.015
68.534	13.158	1355.077	1015.265
69.549	13.232	1353.680	1014.581
70.563	13.092	1352.559	1012.795
71.578	13.051	1352.292	1012.255
72.593	13.064	1351.089	1011.342
73.607	13.001	1350.251	1010.243
74.622	12.994	1349.460	1009.515
75.636	13.061	1348.291	1008.963
76.651	13.011	1347.892	1008.271
77.666	13.092	1346.841	1007.886
78.680	13.057	1346.930	1007.650
79.695	13.046	1345.737	1006.602
80.709	13.085	1344.758	1006.017
81.724	13.155	1344.056	1005.829
82.739	13.160	1343.092	1005.053
83.753	13.217	1342.356	1004.756
84.768	13.275	1340.910	1003.940
85.782	13.225	1339.736	1002.665
86.797	13.215	1338.477	1001.575
87.812	13.330	1336.610	1000.783
88.826	13.047	1336.411	998.837
89.841	13.308	1334.830	999.144
90.855	13.235	1333.532	997.642
91.870	13.481	1332.424	998.209
92.884	13.334	1332.367	997.191
93.899	13.191	1331.311	995.453
94.914	13.301	1330.384	995.331
95.928	13.329	1329.763	994.946
96.943	13.382	1328.732	994.410
97.957	13.376	1327.459	993.330
98.972	13.350	1326.632	992.470
99.987	13.300	1325.684	991.372
101.001	13.326	1324.627	990.649
102.016	13.258	1323.828	989.557
103.030	13.267	1322.975	988.885
104.045	13.346	1321.574	988.222
105.060	13.283	1320.595	987.029
106.074	13.195	1319.923	985.911
107.089	13.199	1318.125	984.505
108.103	13.138	1316.659	982.960
109.118	13.079	1315.883	981.945
110.133	13.218	1314.197	981.423
111.147	13.172	1313.022	980.186
112.162	13.186	1311.816	979.284
113.176	13.245	1310.620	978.651
114.191	13.297	1309.415	977.975
115.206	13.241	1308.360	976.768
116.220	13.271	1306.866	975.746
117.235	13.251	1305.750	974.710
118.249	13.307	1304.803	974.243
119.264	13.245	1303.431	972.766
120.279	13.227	1302.592	971.951
121.293	13.310	1301.288	971.377
122.308	13.213	1300.456	970.103
123.322	13.056	1299.892	968.676
124.337	13.266	1298.360	968.675
125.352	13.164	1297.843	967.611
126.366	13.088	1296.300	965.928
127.381	13.188	1295.290	965.677
128.395	13.173	1294.323	964.780
129.410	13.190	1292.873	963.711
130.424	13.248	1292.080	963.377
131.439	13.284	1291.071	962.749
132.454	13.263	1289.835	961.619
133.468	13.238	1289.323	961.006
134.483	13.265	1288.763	960.661
135.497	13.222	1287.533	959.411
136.512	13.215	1286.542	958.547
137.527	13.211	1284.926	957.235
138.541	13.194	1283.506	955.991
139.556	13.252	1282.619	955.584
140.570	13.333	1281.003	954.762
141.585	13.335	1279.877	953.852
142.600	13.287	1279.008	952.839
143.614	13.330	1278.030	952.273
144.629	13.409	1276.707	951.662
145.643	13.346	1275.647	950.424
146.658	13.364	1274.380	949.501
147.673	13.443	1273.058	948.885
148.687	13.291	1272.107	947.219
149.702	13.407	1270.423	946.547
150.716	13.357	1268.939	945.071
151.731	13.410	1268.362	944.860
152.746	13.418	1266.719	943.597
153.760	13.383	1265.837	942.656
154.775	13.526	1264.444	942.354
155.789	13.404	1263.769	941.074
156.804	13.515	1262.496	940.669
157.819	13.362	1261.810	939.208
158.833	13.518	1260.553	939.072
159.848	13.599	1259.346	938.549
160.862	13.648	1258.407	938.044
161.877	13.537	1257.253	936.474
162.892	13.450	1256.561	935.381
163.906	13.506	1255.219	934.616
164.921	13.499	1254.626	934.057
165.935	13.527	1253.701	933.443
166.950	13.639	1252.325	932.962
167.964	13.641	1251.886	932.563
168.979	13.584	1251.528	931.893
169.994	13.684	1250.453	931.576
171.008	13.517	1249.770	930.047
172.023	13.582	1249.148	929.864
173.037	13.736	1248.079	929.850
174.052	13.606	1247.255	928.426
175.067	13.580	1246.193	927.408
176.081	13.717	1245.284	927.413
177.096	13.577	1244.498	925.967
178.110	13.542	1243.450	924.907
179.125	13.542	1242.536	924.146
180.140	13.589	1240.809	923.041
181.154	13.696	1239.343	922.468
182.169	13.628	1238.795	921.596
183.183	13.787	1237.018	921.077
184.198	13.819	1236.037	920.445
185.213	13.704	1235.299	919.172
186.227	13.816	1234.085	918.808
187.242	13.878	1232.705	918.045
188.256	13.930	1231.694	917.498
189.271	13.780	1230.907	916.002
190.286	13.854	1229.781	915.492
191.300	13.564	1229.512	913.609
192.315	13.825	1228.179	913.979
193.329	13.767	1227.710	913.228
194.344	13.725	1226.848	912.273
195.359	13.770	1226.531	912.206
196.373	13.850	1225.517	911.808
197.388	13.906	1225.347	911.910
198.402	14.002	1224.651	911.837
199.417	14.025	1224.223	911.567
200.432	14.065	1223.275	910.995
201.446	13.955	1222.493	909.732
202.461	14.094	1221.113	909.388
203.475	14.010	1220.536	908.419
204.490	14.140	1218.516	907.541
205.504	14.013	1217.734	906.185
206.519	14.010	1216.428	905.116
207.534	14.045	1215.303	904.393
208.548	14.071	1214.354	903.748
209.563	14.007	1213.324	902.554
210.577	14.109	1212.860	902.684
211.592	14.210	1211.799	902.359
212.607	14.124	1211.248	901.401
213.621	14.156	1210.515	900.953
214.636	14.269	1208.994	900.351
215.650	14.155	1208.934	899.610
216.665	14.238	1207.655	899.026
217.680	14.209	1206.656	898.047
218.694	14.259	1205.492	897.371
219.709	14.318	1204.935	897.193
220.723	14.336	1204.024	896.534
221.738	14.288	1203.352	895.694
222.753	14.403	1202.313	895.460
223.767	14.305	1202.417	894.933
224.782	14.375	1201.208	894.332
225.796	14.418	1200.453	893.918
226.811	14.369	1199.769	893.068
227.826	14.491	1199.072	893.123
228.840	14.417	1198.517	892.234
229.855	14.382	1197.947	891.543
230.869	14.292	1197.229	890.451
231.884	14.349	1196.191	889.906
232.899	14.291	1195.458	888.969
233.913	14.494	1194.518	889.275
234.928	14.436	1193.830	888.375
235.942	14.390	1192.961	887.408
236.957	14.406	1192.547	887.102
237.972	14.494	1191.712	886.872
238.986	14.423	1190.749	885.699
240.001	14.423	1190.330	885.309
241.015	14.412	1189.314	884.417
242.030	14.347	1189.071	883.811
243.045	14.476	1187.952	883.586
244.059	14.555	1187.017	883.229
245.074	14.543	1186.297	882.552
246.088	14.550	1185.439	881.876
247.103	14.547	1184.787	881.297
248.117	14.652	1184.113	881.268
249.132	14.687	1183.055	880.591
250.147	14.650	1182.533	879.930
251.161	14.694	1181.798	879.534
252.176	14.742	1180.902	879.044
253.190	14.708	1180.629	878.583
254.205	14.741	1180.120	878.302
255.220	14.953	1179.203	878.652
256.234	14.945	1178.327	877.881
257.249	14.922	1177.715	877.229
258.263	14.964	1176.984	876.827
259.278	14.909	1176.635	876.200
260.293	14.897	1175.892	875.505
261.307	14.980	1175.246	875.381
262.322	15.054	1175.041	875.539
263.336	15.228	1173.600	875.299
264.351	15.027	1173.244	873.902
265.366	15.074	1172.668	873.641
266.380	15.104	1171.778	873.057
267.395	15.105	1171.101	872.483
268.409	15.084	1170.528	871.869
269.424	14.999	1170.184	871.092
270.439	15.050	1169.108	870.483
271.453	15.086	1168.263	869.962
272.468	15.027	1167.641	869.113
273.482	15.116	1166.608	868.733
274.497	15.114	1165.856	868.086
275.512	15.137	1165.242	867.669
276.526	15.020	1164.736	866.608
277.541	15.071	1163.908	866.180
278.555	15.114	1163.358	865.917
279.570	15.225	1162.417	865.714
280.585	15.260	1161.487	865.122
281.599	15.269	1160.426	864.305
282.614	15.292	1159.199	863.434
283.628	15.362	1158.189	862.966
284.643	15.240	1157.864	862.015
285.657	15.346	1156.912	861.778
286.672	15.240	1155.893	860.398
287.687	15.255	1155.081	859.796
288.701	15.300	1154.162	859.267
289.716	15.300	1153.568	858.747
290.730	15.480	1152.621	858.888
291.745	15.454	1151.561	857.887
292.760	15.579	1150.887	857.951
293.774	15.398	1150.673	856.790
294.789	15.547	1150.259	857.167
295.803	15.452	1149.735	856.216
296.818	15.457	1148.982	855.602
297.833	15.445	1148.109	854.815
298.847	15.371	1147.454	853.879
299.862	15.488	1146.318	853.550
300.876	15.534	1145.393	853.021
301.891	15.506	1145.192	852.652
302.906	15.668	1144.197	852.659
303.920	15.582	1143.713	851.787
304.935	15.637	1143.345	851.717
305.949	15.699	1142.493	851.317
306.964	15.640	1141.684	850.340
307.979	15.694	1141.259	850.226
308.993	15.621	1140.575	849.268
310.008	15.625	1139.314	848.275
311.022	15.746	1138.543	848.238
312.037	15.752	1137.735	847.591
313.052	15.674	1136.786	846.415
314.066	15.643	1135.877	845.510
315.081	15.814	1134.754	845.455
316.095	15.750	1134.247	844.682
317.110	15.673	1133.899	843.962
318.125	15.815	1133.008	843.938
319.139	15.596	1132.505	842.391
320.154	15.766	1131.538	842.445
321.168	15.709	1131.017	841.701
322.183	15.766	1130.006	841.158
323.197	15.745	1129.931	840.924
324.212	15.854	1129.025	840.719
325.227	15.842	1128.306	840.049
326.241	15.814	1128.133	839.704
327.256	15.929	1127.088	839.424
328.270	15.786	1126.434	838.155
329.285	15.804	1125.365	837.373
330.300	15.957	1123.633	836.773
331.314	15.904	1123.142	836.070
332.329	15.829	1122.176	834.900
333.343	15.910	1121.341	834.607
334.358	15.841	1120.567	833.615
335.373	15.960	1119.765	833.536
336.387	15.971	1119.307	833.174
337.402	16.045	1118.065	832.542
338.416	16.012	1117.815	832.119
339.431	16.073	1116.819	831.606
340.446	16.041	1116.145	830.873
341.460	16.065	1115.578	830.493
342.475	16.200	1114.822	830.524
343.489	16.185	1113.741	829.572
344.504	16.246	1112.540	828.902
345.519	16.125	1112.505	828.211
346.533	16.174	1111.464	827.602
347.548	16.365	1110.324	827.613
348.562	16.338	1109.691	826.938
349.577	16.239	1108.907	825.798
350.592	16.315	1108.238	825.597
351.606	16.286	1107.229	824.628
352.621	16.200	1106.643	823.699
353.635	16.224	1106.280	823.472
354.650	16.242	1105.451	822.874
355.665	16.237	1104.940	822.397
356.679	16.262	1104.160	821.863
357.694	16.426	1103.202	821.876
358.708	16.358	1102.779	821.157
359.723	16.365	1102.089	820.607
360.738	16.406	1101.642	820.396
361.752	16.411	1100.954	819.838
362.767	16.428	1100.556	819.551
363.781	16.408	1099.570	818.647
364.796	16.563	1099.132	819.001
365.810	16.504	1098.574	818.227
366.825	16.587	1097.935	818.080
367.840	16.579	1097.391	817.562
368.854	16.544	1097.128	817.125
369.869	16.663	1095.976	816.768
370.883	16.736	1094.635	816.051
371.898	16.607	1094.243	815.064
372.913	16.652	1093.611	814.736
373.927	16.669	1093.301	814.517
374.942	16.700	1092.744	814.176
375.956	16.720	1092.236	813.822
376.971	16.775	1091.391	813.385
377.986	16.732	1091.101	812.892
379.000	16.724	1090.418	812.274
380.015	16.778	1089.826	812.018
381.029	16.837	1089.583	812.049
382.044	16.841	1088.749	811.372
383.059	16.846	1087.679	810.528
384.073	16.811	1087.068	809.832
385.088	16.942	1086.044	809.624
386.102	16.918	1084.832	808.536
387.117	16.841	1084.221	807.640
388.132	16.704	1083.698	806.528
389.146	16.688	1082.580	805.548
390.161	16.960	1081.777	806.171
391.175	16.917	1081.227	805.487
392.190	16.901	1080.567	804.847
393.205	17.003	1080.170	804.965
394.219	16.924	1079.428	803.965
395.234	16.949	1078.030	802.971
396.248	16.935	1077.019	802.080
397.263	16.836	1076.538	801.184
398.278	17.005	1075.367	801.038
399.292	16.924	1074.619	800.031
400.307	16.999	1073.615	799.567
401.321	16.897	1073.394	798.851
402.336	16.996	1072.715	798.740
403.350	17.074	1071.608	798.210
404.365	16.958	1071.650	797.625
405.380	17.027	1070.605	797.104
406.394	17.135	1069.848	796.974
407.409	17.111	1069.237	796.337
408.423	17.122	1068.336	795.645
409.438	17.276	1067.665	795.799
410.453	17.197	1066.884	794.774
411.467	17.173	1066.170	794.061
412.482	17.202	1065.780	793.835
413.496	17.162	1065.277	793.202
414.511	17.393	1064.514	793.644
415.526	17.336	1063.879	792.836
416.540	17.291	1063.496	792.271
417.555	17.459	1062.715	792.401
418.569	17.401	1062.416	791.837
419.584	17.404	1062.111	791.552
420.599	17.472	1061.285	791.183
421.613	107.970	1331.613	1488.894
422.628	99.674	1370.948	1488.970
