DTS Sentinel unit serial number:	SN413079Multiplexer serial number:	ORYXHardware model number:	OX4-SRSoftware version number:	ORYX F/W v4.00 Oryx Data Collector v3.7.2.0data status	okinstallation	princeton_trtdifferential loss correction	single-endedforward channel	channel 2reverse channel	N/Adate	2019/09/15time	02:59:35forward acquisition time	60.00reverse acquisition time	0.00gamma	496.2192k internal	0.2326k external	0.2326temperature offset calibration	1.0035default loss term (dB/km)	0.3790temperature slope calibration	1.0000multiplexer offset coefficient	1.0000multiplexer slope coefficient	1.0000fibre end	0.00T internal ref (°C)	31.25T ext. ref 1 (°C)	4.59T ext. ref 2 (°C)	25.70length (m)	temperature (°C)	Stokes	anti-Stokes-747.200	60.177	-0.137	0.136
-746.185	800.000	-0.070	0.238
-745.171	33.990	-0.352	0.310
-744.156	101.118	-0.065	-0.076
-743.142	31.074	0.161	0.140
-742.127	499.683	0.098	-0.229
-741.112	-200.000	0.005	0.158
-740.098	-200.000	-0.000	0.172
-739.083	52.469	0.246	0.236
-738.069	800.000	0.123	0.436
-737.054	-200.000	0.030	-0.340
-736.039	370.602	-0.131	-0.268
-735.025	-28.823	0.132	-0.077
-734.010	14.909	-0.275	-0.217
-732.996	-113.887	-0.135	-0.026
-731.981	54.115	-0.074	0.072
-730.966	-200.000	0.055	-0.301
-729.952	-53.367	0.176	0.081
-728.937	41.917	0.161	0.147
-727.923	-53.915	-0.374	0.172
-726.908	306.622	0.048	0.091
-725.894	800.000	-0.014	0.051
-724.879	235.797	-0.196	-0.327
-723.864	-82.220	-0.217	-0.071
-722.850	116.150	-0.124	-0.152
-721.835	800.000	0.080	-0.231
-720.821	679.634	-0.065	0.171
-719.806	-117.872	-0.073	0.013
-718.791	-83.422	-0.123	-0.040
-717.777	-200.000	0.056	-0.316
-716.762	-34.282	-0.289	0.160
-715.748	-133.244	-0.416	0.053
-714.733	-200.000	-0.049	0.427
-713.718	26.790	0.103	0.087
-712.704	-200.000	0.020	-0.205
-711.689	17.580	0.060	-0.048
-710.675	-23.396	-0.130	-0.079
-709.660	88.971	0.357	-0.400
-708.645	-30.014	0.253	0.145
-707.631	523.184	0.040	-0.095
-706.616	-200.000	0.022	-0.324
-705.602	-200.000	0.008	0.113
-704.587	440.854	0.160	0.352
-703.572	-122.315	0.248	-0.041
-702.558	-114.288	-0.247	0.048
-701.543	152.619	0.131	0.180
-700.529	-169.662	-0.421	0.015
-699.514	312.696	0.172	-0.325
-698.499	800.000	-0.103	0.306
-697.485	-200.000	-0.027	-0.300
-696.470	-34.150	-0.175	0.097
-695.456	-45.543	0.243	-0.121
-694.441	58.416	0.106	0.105
-693.426	-200.000	-0.042	-0.215
-692.412	-158.041	-0.249	0.015
-691.397	267.581	0.067	-0.118
-690.383	77.277	0.227	-0.243
-689.368	-31.008	0.231	-0.131
-688.354	253.583	-0.160	-0.275
-687.339	-54.515	-0.192	0.087
-686.324	281.014	0.089	-0.161
-685.310	800.000	-0.089	0.368
-684.295	225.131	-0.207	-0.337
-683.281	800.000	-0.017	0.067
-682.266	60.288	-0.044	0.044
-681.251	1.624	-0.291	0.211
-680.237	-144.969	0.096	-0.009
-679.222	153.923	-0.232	0.320
-678.208	800.000	-0.076	0.231
-677.193	3.863	-0.082	-0.060
-676.178	291.407	0.074	0.136
-675.164	16.594	0.240	0.191
-674.149	-22.736	-0.282	0.172
-673.135	-200.000	0.039	-0.296
-672.120	-154.812	0.213	-0.014
-671.105	154.241	-0.200	-0.276
-670.091	-120.239	-0.219	0.038
-669.076	-200.000	-0.033	-0.334
-668.062	150.156	-0.065	0.089
-667.047	-200.000	-0.010	-0.073
-666.032	-200.000	-0.054	-0.286
-665.018	-200.000	0.022	-0.126
-664.003	773.585	-0.118	-0.325
-662.989	271.831	-0.065	0.115
-661.974	-175.074	-0.279	-0.008
-660.959	-134.250	0.354	-0.044
-659.945	-200.000	0.031	-0.224
-658.930	332.081	0.094	0.182
-657.916	62.046	-0.192	-0.192
-656.901	-127.364	0.301	0.044
-655.886	-117.903	-0.352	-0.063
-654.872	65.347	-0.240	-0.244
-653.857	-200.000	0.047	-0.237
-652.843	13.831	0.380	-0.297
-651.828	-61.904	0.275	-0.116
-650.814	109.861	0.169	0.204
-649.799	-57.639	0.256	0.113
-648.784	517.931	-0.192	0.452
-647.770	800.000	0.063	-0.213
-646.755	4.235	-0.289	-0.213
-645.741	184.719	-0.059	0.088
-644.726	298.212	0.112	0.206
-643.711	390.753	0.186	0.387
-642.697	49.383	-0.247	0.233
-641.682	147.213	-0.091	0.123
-640.668	-85.556	0.062	0.019
-639.653	-117.720	0.220	0.040
-638.638	-95.086	-0.425	0.115
-637.624	109.019	0.174	-0.209
-636.609	259.947	0.053	0.091
-635.595	-200.000	-0.026	0.181
-634.580	-200.000	0.015	0.188
-633.565	-200.000	0.011	0.286
-632.551	-85.547	0.350	0.109
-631.536	-200.000	-0.007	-0.099
-630.522	-139.453	0.214	-0.023
-629.507	-200.000	0.019	0.225
-628.492	-54.365	0.145	0.066
-627.478	-200.000	-0.016	0.329
-626.463	-7.230	-0.041	0.028
-625.449	245.601	0.143	-0.241
-624.434	-200.000	0.032	-0.287
-623.419	321.645	0.044	-0.085
-622.405	270.632	-0.064	-0.112
-621.390	-200.000	-0.010	-0.140
-620.376	-176.528	-0.144	-0.004
-619.361	-104.148	0.089	-0.021
-618.346	-200.000	0.048	-0.338
-617.332	-23.269	-0.112	0.067
-616.317	42.617	-0.326	-0.298
-615.303	-149.049	-0.107	0.009
-614.288	12.957	0.194	-0.151
-613.273	-71.966	-0.230	-0.086
-612.259	41.850	-0.023	-0.021
-611.244	529.915	0.041	0.097
-610.230	473.603	-0.049	0.110
-609.215	800.000	-0.051	-0.183
-608.201	534.982	-0.038	-0.091
-607.186	800.000	-0.036	0.153
-606.171	309.067	-0.136	0.256
-605.157	220.295	-0.072	-0.116
-604.142	67.489	0.044	0.045
-603.128	-66.051	0.063	-0.025
-602.113	-141.842	0.172	-0.017
-601.098	-160.264	0.205	-0.011
-600.084	-200.000	-0.002	0.086
-599.069	-86.479	0.144	0.044
-598.055	104.510	0.305	-0.360
-597.040	-159.822	-0.149	0.008
-596.025	-200.000	-0.008	0.326
-595.011	46.724	-0.074	-0.069
-593.996	-85.173	-0.180	-0.057
-592.982	450.638	-0.143	-0.316
-591.967	648.981	0.053	-0.137
-590.952	120.605	-0.063	-0.079
-589.938	-200.000	-0.005	-0.088
-588.923	-83.505	0.287	0.092
-587.909	155.443	0.199	-0.275
-586.894	778.539	-0.040	0.109
-585.879	-200.000	-0.025	0.246
-584.865	-161.058	-0.256	0.013
-583.850	-200.000	0.059	-0.284
-582.836	-53.460	-0.217	-0.100
-581.821	-74.706	0.353	0.127
-580.806	631.980	0.069	0.176
-579.792	-200.000	0.031	-0.169
-578.777	591.563	-0.133	-0.330
-577.763	-192.716	-0.502	-0.005
-576.748	-12.953	-0.069	0.045
-575.733	-98.075	-0.315	0.081
-574.719	-132.362	0.050	-0.006
-573.704	-21.683	0.115	-0.070
-572.690	15.563	-0.182	0.143
-571.675	70.601	-0.184	-0.190
-570.661	-200.000	-0.049	-0.266
-569.646	-118.892	0.317	0.056
-568.631	334.370	-0.124	-0.241
-567.617	-55.179	-0.279	-0.126
-566.602	-200.000	0.009	0.120
-565.588	-20.891	0.177	0.109
-564.573	416.275	0.055	0.118
-563.558	-200.000	0.024	-0.112
-562.544	-71.389	-0.317	-0.119
-561.529	-34.800	-0.422	0.231
-560.515	20.650	-0.238	0.193
-559.500	-65.467	-0.277	0.111
-558.485	572.870	0.205	-0.499
-557.471	-64.349	-0.042	0.017
-556.456	360.526	-0.097	-0.194
-555.442	234.707	0.120	0.199
-554.427	-146.408	-0.429	0.037
-553.412	-200.000	-0.046	0.542
-552.398	-77.017	-0.232	0.081
-551.383	-31.462	0.154	0.086
-550.369	-174.038	-0.316	0.009
-549.354	-49.078	-0.455	-0.218
-548.339	-13.232	-0.020	-0.013
-547.325	800.000	-0.074	-0.219
-546.310	-200.000	-0.009	-0.086
-545.296	800.000	-0.084	-0.265
-544.281	-69.773	-0.338	-0.129
-543.266	18.266	-0.276	-0.221
-542.252	-200.000	-0.069	-0.323
-541.237	-147.501	-0.111	0.009
-540.223	215.266	0.023	-0.037
-539.208	-200.000	0.020	0.127
-538.193	56.968	0.195	-0.190
-537.179	108.870	-0.081	0.097
-536.164	-46.126	0.223	-0.110
-535.150	-200.000	-0.023	-0.160
-534.135	800.000	-0.013	-0.043
-533.121	-33.160	0.220	0.122
-532.106	150.721	0.104	-0.142
-531.091	525.960	0.097	-0.228
-530.077	-48.137	0.287	0.138
-529.062	-180.504	-0.158	-0.003
-528.048	-19.128	0.158	-0.098
-527.033	90.098	-0.069	0.077
-526.018	-5.451	0.261	0.179
-525.004	634.363	0.114	0.290
-523.989	173.853	-0.202	-0.292
-522.975	291.001	-0.168	-0.306
-521.960	-200.000	-0.080	-0.386
-520.945	-200.000	0.028	-0.332
-519.931	-32.759	-0.101	0.056
-518.916	-81.894	0.224	0.073
-517.902	83.947	0.229	0.250
-516.887	800.000	0.049	-0.196
-515.872	551.846	0.078	0.187
-514.858	-200.000	0.011	0.112
-513.843	174.648	0.152	0.219
-512.829	800.000	0.144	-0.411
-511.814	-129.763	0.282	0.039
-510.799	-110.436	0.037	-0.008
-509.785	146.711	0.131	-0.176
-508.770	-200.000	0.042	-0.311
-507.756	-22.168	-0.146	-0.088
-506.741	74.661	-0.240	-0.252
-505.726	-66.921	0.298	0.118
-504.712	-41.587	-0.060	-0.031
-503.697	-200.000	0.013	-0.094
-502.683	-92.263	-0.325	0.091
-501.668	-200.000	0.038	0.254
-500.653	-200.000	0.021	0.179
-499.639	-32.001	-0.085	0.048
-498.624	-95.341	0.434	0.117
-497.610	-132.238	0.109	0.014
-496.595	178.103	0.073	0.106
-495.581	-200.000	0.027	0.175
-494.566	-33.955	-0.239	-0.131
-493.551	132.201	-0.159	-0.205
-492.537	-190.435	-0.314	0.003
-491.522	-140.310	0.355	0.037
-490.508	167.542	0.078	-0.110
-489.493	-200.000	0.021	-0.264
-488.478	-36.310	0.233	-0.125
-487.464	-87.260	0.122	0.037
-486.449	161.732	0.091	-0.127
-485.435	29.431	-0.100	-0.085
-484.420	72.885	-0.142	0.148
-483.405	-22.199	-0.170	-0.103
-482.391	150.842	0.262	0.356
-481.376	163.122	-0.069	-0.097
-480.362	-93.189	-0.134	0.037
-479.347	-77.515	-0.036	0.013
-478.332	-74.588	0.295	-0.106
-477.318	-20.798	0.333	0.204
-476.303	10.051	-0.082	0.063
-475.289	-200.000	0.003	0.029
-474.274	-104.563	0.159	0.037
-473.259	28.531	0.123	-0.103
-472.245	-37.187	0.189	0.101
-471.230	-130.406	0.090	0.012
-470.216	-105.162	0.224	0.051
-469.201	800.000	-0.028	0.086
-468.186	-45.016	0.259	-0.129
-467.172	800.000	-0.045	-0.184
-466.157	-165.157	0.077	-0.003
-465.143	285.318	-0.073	-0.130
-464.128	800.000	-0.089	-0.251
-463.113	37.910	-0.039	-0.035
-462.099	34.390	-0.187	0.163
-461.084	74.745	-0.188	-0.197
-460.070	381.497	0.174	-0.356
-459.055	800.000	-0.092	0.263
-458.040	-200.000	-0.001	-0.140
-457.026	-200.000	0.023	0.455
-456.011	-128.587	0.379	0.053
-454.997	69.272	-0.090	0.092
-453.982	-11.492	0.155	0.102
-452.968	-44.068	-0.138	-0.069
-451.953	-187.105	0.108	0.001
-450.938	779.408	-0.004	-0.011
-449.924	-139.227	-0.587	0.063
-448.909	18.025	0.226	0.180
-447.895	112.783	-0.096	-0.116
-446.880	-46.539	0.058	0.028
-445.865	-200.000	-0.041	0.450
-444.851	620.009	0.147	-0.368
-443.836	352.787	0.094	-0.186
-442.822	-200.000	0.019	-0.118
-441.807	64.584	0.244	0.245
-440.792	184.690	-0.089	-0.131
-439.778	-108.502	-0.277	0.059
-438.763	-200.000	0.029	-0.225
-437.749	-84.636	-0.244	-0.076
-436.734	-200.000	-0.012	0.094
-435.719	-152.992	-0.186	0.013
-434.705	-59.379	0.244	-0.105
-433.690	-85.336	-0.436	0.135
-432.676	-77.254	0.107	0.037
-431.661	107.720	-0.100	0.119
-430.646	-200.000	0.011	-0.190
-429.632	217.046	-0.173	-0.274
-428.617	-86.729	-0.353	0.108
-427.603	-200.000	0.058	-0.257
-426.588	-57.847	-0.114	0.050
-425.573	-200.000	0.019	-0.317
-424.559	101.056	-0.278	0.322
-423.544	265.991	0.091	-0.158
-422.530	800.000	-0.068	-0.251
-421.515	66.994	-0.284	-0.288
-420.500	-53.145	0.181	-0.083
-419.486	205.998	0.058	0.090
-418.471	-104.013	-0.343	-0.080
-417.457	286.886	0.030	0.054
-416.442	800.000	-0.047	0.175
-415.428	312.990	0.108	0.202
-414.413	-9.915	0.164	0.109
-413.398	-8.540	0.278	0.186
-412.384	-200.000	-0.071	-0.375
-411.369	800.000	0.072	-0.259
-410.355	-117.369	0.169	0.030
-409.340	-3.002	-0.212	-0.147
-408.325	-183.814	0.364	0.006
-407.311	62.887	0.036	0.035
-406.296	174.470	-0.140	0.202
-405.282	7.519	-0.181	0.135
-404.267	800.000	-0.025	0.074
-403.252	-173.730	0.140	0.004
-402.238	800.000	0.022	0.087
-401.223	342.912	0.138	-0.268
-400.209	38.871	-0.219	-0.195
-399.194	188.180	-0.170	0.253
-398.179	-200.000	0.003	0.103
-397.165	34.767	0.143	0.124
-396.150	-65.107	0.374	-0.150
-395.136	473.558	0.151	-0.339
-394.121	-93.655	-0.033	-0.009
-393.106	220.509	-0.134	0.214
-392.092	188.322	0.018	0.026
-391.077	-200.000	0.040	0.355
-390.063	27.751	0.254	0.213
-389.048	123.310	0.202	-0.252
-388.033	-121.820	0.334	0.055
-387.019	-1.234	0.332	0.233
-386.004	-2.396	0.040	-0.028
-384.990	-200.000	0.006	0.122
-383.975	563.060	0.171	0.412
-382.960	-135.647	0.080	0.009
-381.946	171.739	0.128	0.183
-380.931	-0.916	-0.345	-0.243
-379.917	94.537	0.059	-0.066
-378.902	-200.000	0.016	0.393
-377.888	231.544	-0.025	0.041
-376.873	-200.000	0.039	0.514
-375.858	23.626	0.039	-0.032
-374.844	-200.000	0.002	0.054
-373.829	348.485	0.053	0.105
-372.815	-122.675	0.194	0.031
-371.800	-16.765	0.097	-0.061
-370.785	-88.315	-0.079	-0.024
-369.771	-200.000	0.021	0.180
-368.756	-67.992	-0.194	-0.075
-367.742	-13.514	-0.207	0.133
-366.727	664.834	0.084	0.216
-365.712	92.228	0.103	-0.116
-364.698	-159.510	-0.029	0.002
-363.683	-99.888	0.131	0.032
-362.669	-103.039	-0.248	-0.059
-361.654	-21.687	0.087	0.053
-360.639	256.100	0.226	0.385
-359.625	-12.988	-0.043	-0.028
-358.610	696.353	0.123	0.320
-357.596	236.423	-0.110	-0.182
-356.581	489.217	0.110	-0.250
-355.566	388.651	0.087	-0.179
-354.552	800.000	0.067	0.254
-353.537	-49.664	-0.188	-0.089
-352.523	-95.421	0.066	0.018
-351.508	-200.000	0.007	-0.182
-350.493	106.516	0.125	-0.148
-349.479	800.000	-0.064	0.214
-348.464	313.756	0.105	-0.195
-347.450	130.494	-0.100	-0.127
-346.435	-74.908	0.137	0.049
-345.420	-30.262	0.105	-0.059
-344.406	298.694	0.162	-0.296
-343.391	-41.083	0.239	-0.122
-342.377	800.000	-0.055	0.223
-341.362	800.000	0.059	-0.168
-340.348	209.124	0.204	0.317
-339.333	294.799	-0.131	0.239
-338.318	-132.236	-0.174	0.022
-337.304	-175.134	-0.316	-0.009
-336.289	-66.190	-0.072	-0.029
-335.275	122.700	-0.205	-0.255
-334.260	-22.643	-0.371	0.222
-333.245	-200.000	0.014	-0.239
-332.231	107.628	0.222	-0.262
-331.216	23.592	0.242	0.198
-330.202	-200.000	0.033	0.241
-329.187	-28.171	0.334	-0.192
-328.172	-137.263	-0.187	-0.021
-327.158	-115.573	0.438	-0.082
-326.143	332.118	0.087	-0.167
-325.129	-200.000	0.022	0.224
-324.114	-200.000	0.059	0.352
-323.099	-17.019	-0.280	0.176
-322.085	162.993	0.062	-0.087
-321.070	716.115	-0.073	-0.193
-320.056	205.838	0.149	-0.230
-319.041	135.168	0.073	0.094
-318.026	-200.000	0.041	0.316
-317.012	261.479	-0.144	0.248
-315.997	-133.089	0.243	-0.031
-314.983	-200.000	0.011	-0.212
-313.968	-200.000	-0.034	0.181
-312.953	-33.674	-0.327	0.179
-311.939	-185.795	0.180	0.003
-310.924	-113.234	-0.194	-0.038
-309.910	-200.000	0.050	-0.288
-308.895	-49.433	-0.065	0.031
-307.880	211.613	0.108	-0.168
-306.866	4.877	-0.279	0.203
-305.851	-200.000	-0.014	-0.127
-304.837	-157.777	0.447	0.026
-303.822	-200.000	-0.023	-0.319
-302.807	-5.639	0.312	0.212
-301.793	171.991	0.100	-0.143
-300.778	-3.020	0.034	-0.024
-299.764	-157.042	-0.108	-0.007
-298.749	50.933	0.061	0.057
-297.735	-11.889	-0.286	0.186
-296.720	214.343	0.101	-0.159
-295.705	-161.368	0.200	-0.010
-294.691	800.000	-0.060	0.185
-293.676	120.694	0.090	-0.111
-292.662	166.251	-0.164	0.231
-291.647	-159.943	0.359	0.019
-290.632	226.702	-0.155	0.249
-289.618	-104.708	0.333	0.076
-288.603	63.780	-0.295	-0.293
-287.589	631.347	0.134	0.335
-286.574	153.364	0.099	-0.135
-285.559	-158.008	0.209	0.012
-284.545	-200.000	0.015	-0.259
-283.530	-186.488	0.083	0.001
-282.516	393.068	-0.105	-0.217
-281.501	800.000	0.078	-0.236
-280.486	800.000	0.055	0.212
-279.472	213.922	-0.238	-0.372
-278.457	138.056	-0.135	0.176
-277.443	-26.438	-0.241	-0.140
-276.428	486.368	0.097	-0.219
-275.413	36.459	-0.143	-0.125
-274.399	229.521	0.119	-0.192
-273.384	527.788	-0.067	-0.157
-272.370	268.034	0.136	-0.235
-271.355	-63.098	-0.160	0.065
-270.340	97.699	0.192	-0.218
-269.326	-193.237	-0.374	0.003
-268.311	-0.441	-0.058	-0.040
-267.297	256.391	-0.037	0.062
-266.282	-46.896	-0.131	-0.064
-265.267	800.000	0.087	0.264
-264.253	-200.000	0.028	0.320
-263.238	67.713	-0.142	-0.143
-262.224	-40.943	-0.126	0.065
-261.209	-42.206	0.079	-0.040
-260.195	679.748	0.132	-0.341
-259.180	-200.000	0.016	0.234
-258.165	30.139	0.095	-0.080
-257.151	-200.000	-0.022	0.114
-256.136	-74.165	0.257	0.092
-255.122	182.375	-0.150	-0.218
-254.107	-37.227	0.197	0.104
-253.092	-25.246	-0.040	-0.023
-252.078	596.666	-0.143	-0.350
-251.063	-52.447	0.175	-0.080
-250.049	-200.000	0.018	-0.100
-249.034	262.902	0.095	-0.163
-248.019	111.587	0.182	-0.217
-247.005	377.657	-0.100	-0.202
-245.990	330.893	0.125	-0.238
-244.976	15.487	-0.292	-0.227
-243.961	-131.616	-0.125	-0.016
-242.946	-200.000	0.011	-0.116
-241.932	61.218	-0.111	-0.109
-240.917	1.854	0.249	0.178
-239.903	-200.000	0.027	-0.200
-238.888	303.740	0.061	-0.112
-237.873	-52.980	0.278	0.126
-236.859	144.885	-0.203	0.268
-235.844	-134.193	0.332	0.040
-234.830	-200.000	0.026	0.222
-233.815	713.677	-0.173	0.452
-232.800	-200.000	-0.071	0.502
-231.786	-200.000	0.010	0.228
-230.771	-115.468	-0.320	-0.060
-229.757	92.152	-0.254	-0.283
-228.742	163.355	0.091	-0.127
-227.727	-200.000	0.008	0.322
-226.713	800.000	0.129	0.440
-225.698	-33.356	0.043	-0.023
-224.684	76.226	0.013	-0.014
-223.669	800.000	-0.055	-0.216
-222.655	-95.725	0.074	-0.020
-221.640	-28.333	-0.178	0.102
-220.625	-118.689	-0.288	0.050
-219.611	-21.998	0.103	0.062
-218.596	144.966	0.176	0.232
-217.582	113.123	-0.087	0.105
-216.567	547.576	-0.079	-0.187
-215.552	-0.913	-0.259	0.181
-214.538	-200.000	0.007	0.048
-213.523	-48.605	0.179	0.085
-212.509	317.746	0.104	0.195
-211.494	35.514	0.078	0.068
-210.479	273.021	-0.070	0.122
-209.465	-2.119	-0.062	0.043
-208.450	-200.000	-0.019	0.337
-207.436	-109.072	-0.283	0.060
-206.421	-144.402	0.045	-0.004
-205.406	-112.068	-0.039	-0.008
-204.392	-94.285	0.222	-0.060
-203.377	-125.970	-0.300	0.045
-202.363	-50.635	-0.126	0.059
-201.348	-200.000	0.014	-0.092
-200.333	-41.293	0.177	-0.090
-199.319	-200.000	-0.001	0.265
-198.304	-100.175	0.186	0.046
-197.290	94.223	0.289	-0.323
-196.275	-33.913	0.012	-0.007
-195.260	-65.378	-0.335	0.133
-194.246	-200.000	0.034	0.218
-193.231	107.169	0.198	-0.233
-192.217	-200.000	0.004	-0.393
-191.202	-200.000	0.002	0.177
-190.187	74.705	0.185	0.192
-189.173	-68.278	-0.255	0.098
-188.158	-200.000	-0.008	-0.163
-187.144	181.503	-0.158	0.229
-186.129	457.989	0.042	-0.093
-185.114	-200.000	-0.014	-0.092
-184.100	58.850	0.078	-0.076
-183.085	-147.274	-0.363	0.030
-182.071	-179.002	-0.207	-0.005
-181.056	800.000	0.037	0.143
-180.042	788.725	0.042	-0.114
-179.027	107.026	-0.050	-0.059
-178.012	32.968	0.287	-0.245
-176.998	800.000	-0.062	0.229
-175.983	418.039	-0.056	-0.118
-174.969	200.512	-0.102	-0.155
-173.954	-162.800	-0.308	0.015
-172.939	-101.311	0.111	0.027
-171.925	-89.822	0.212	-0.061
-170.910	-12.838	0.214	0.138
-169.896	-124.973	-0.149	0.023
-168.881	251.157	0.085	0.142
-167.866	-200.000	-0.050	0.218
-166.852	130.045	0.081	0.102
-165.837	385.718	-0.068	0.138
-164.823	-116.426	-0.096	-0.017
-163.808	230.831	0.141	-0.228
-162.793	562.380	0.074	0.175
-161.779	-200.000	-0.014	-0.166
-160.764	-114.996	-0.259	0.049
-159.750	41.214	-0.235	0.209
-158.735	800.000	-0.167	0.669
-157.720	-42.417	0.325	-0.163
-156.706	-200.000	-0.017	0.127
-155.691	-4.678	-0.130	0.088
-154.677	26.851	-0.152	-0.126
-153.662	-90.710	-0.168	0.048
-152.647	-108.446	-0.049	-0.010
-151.633	-111.405	-0.243	-0.049
-150.618	250.695	0.054	-0.091
-149.604	64.387	-0.143	-0.142
-148.589	800.000	-0.058	-0.181
-147.574	-117.461	-0.162	0.029
-146.560	480.120	0.063	-0.140
-145.545	-200.000	-0.048	0.219
-144.531	147.686	-0.163	0.217
-143.516	19.155	-0.158	0.125
-142.502	176.778	-0.124	-0.177
-141.487	109.592	-0.132	0.156
-140.472	-45.399	0.168	-0.082
-139.458	788.331	-0.049	-0.132
-138.443	-91.793	0.106	0.030
-137.429	-200.000	0.004	-0.396
-136.414	-111.838	0.170	-0.034
-135.399	-200.000	0.018	0.094
-134.385	-80.900	-0.109	-0.036
-133.370	35.456	0.211	-0.182
-132.356	22.106	-0.173	-0.139
-131.341	482.254	0.076	-0.170
-130.326	-200.000	-0.021	0.349
-129.312	-98.423	-0.066	0.017
-128.297	-200.000	0.004	0.090
-127.283	430.867	0.088	0.188
-126.268	-200.000	0.096	-0.472
-125.253	-180.567	-0.066	-0.001
-124.239	-63.777	-0.337	0.136
-123.224	-200.000	-0.009	-0.074
-122.210	316.927	0.097	0.180
-121.195	-135.728	0.223	0.026
-120.180	800.000	-0.104	0.314
-119.166	159.317	-0.072	-0.098
-118.151	-75.786	0.170	0.059
-117.137	-15.417	-0.124	-0.078
-116.122	-52.804	0.073	0.033
-115.107	800.000	0.065	0.192
-114.093	102.183	0.173	0.199
-113.078	-200.000	0.048	-0.390
-112.064	-200.000	-0.018	-0.184
-111.049	643.098	-0.031	-0.078
-110.034	-52.687	-0.146	-0.066
-109.020	-81.186	0.185	0.060
-108.005	7.926	-0.218	-0.161
-106.991	-200.000	0.048	-0.240
-105.976	-62.501	-0.294	-0.120
-104.962	-76.073	0.132	0.046
-103.947	800.000	-0.026	0.076
-102.932	-57.894	0.068	0.029
-101.918	-113.608	0.198	-0.038
-100.903	294.972	-0.116	-0.208
-99.889	450.414	0.082	0.177
-98.874	131.710	-0.030	0.038
-97.859	-144.275	0.250	0.023
-96.845	-200.000	-0.048	-0.255
-95.830	-200.000	-0.033	-0.219
-94.816	-200.000	0.035	-0.180
-93.801	-164.341	0.235	0.011
-92.786	213.389	0.085	-0.132
-91.772	-17.896	-0.165	-0.102
-90.757	358.591	0.056	-0.111
-89.743	-151.218	0.155	-0.011
-88.728	-99.442	0.106	0.026
-87.713	168.993	-0.181	-0.253
-86.699	48.563	-0.220	-0.203
-85.684	697.752	-0.066	0.170
-84.670	410.299	-0.161	0.335
-83.655	223.282	0.117	-0.185
-82.640	55.233	0.194	0.184
-81.626	-19.286	0.046	0.028
-80.611	-200.000	0.006	-0.075
-79.597	172.357	0.175	0.247
-78.582	-200.000	-0.022	-0.098
-77.567	144.139	0.381	-0.499
-76.553	-152.921	0.139	-0.010
-75.538	176.009	-0.018	-0.026
-74.524	362.269	-0.206	0.405
-73.509	193.739	0.067	-0.100
-72.494	800.000	0.023	-0.094
-71.480	800.000	-0.036	0.153
-70.465	800.000	-0.020	0.085
-69.451	-138.141	0.433	0.047
-68.436	-80.580	-0.235	0.077
-67.422	-64.991	0.145	0.058
-66.407	-16.584	-0.143	-0.089
-65.392	-200.000	-0.079	0.470
-64.378	-200.000	0.017	0.264
-63.363	-200.000	0.014	0.180
-62.349	800.000	0.098	0.324
-61.334	43.947	-0.802	-0.721
-60.319	223.042	0.333	0.527
-59.305	321.686	-0.598	-1.117
-58.290	387.306	0.513	1.042
-57.276	183.039	0.982	1.423
-56.261	-200.000	100.096	610.221
-55.246	596.616	1406.383	3419.625
-54.232	192.173	2596.142	3844.410
-53.217	112.151	2272.965	2697.058
-52.203	40.732	1894.635	1677.037
-51.188	34.477	1684.280	1443.618
-50.173	31.919	1640.385	1387.053
-49.159	50.370	1689.980	1567.831
-48.144	51.714	1706.064	1592.768
-47.130	34.186	1665.343	1424.980
-46.115	31.372	1651.517	1392.167
-45.100	31.173	1646.766	1386.630
-44.086	31.100	1643.962	1383.677
-43.071	31.160	1641.361	1381.873
-42.057	31.130	1638.867	1379.498
-41.042	31.102	1637.369	1377.978
-40.027	31.116	1634.696	1375.772
-39.013	31.206	1632.396	1374.447
-37.998	30.986	1631.784	1372.256
-36.984	31.148	1630.235	1372.095
-35.969	31.355	1628.227	1371.865
-34.954	31.291	1627.120	1370.409
-33.940	31.277	1625.334	1368.749
-32.925	31.231	1623.824	1367.084
-31.911	31.315	1621.936	1366.059
-30.896	31.210	1620.068	1363.667
-29.881	31.165	1618.625	1362.066
-28.867	31.224	1616.762	1360.878
-27.852	31.163	1615.736	1359.515
-26.838	31.190	1614.072	1358.253
-25.823	31.226	1612.704	1357.314
-24.809	31.240	1611.340	1356.211
-23.794	31.304	1609.790	1355.319
-22.779	31.295	1608.465	1354.085
-21.765	31.200	1607.462	1352.497
-20.750	31.262	1605.110	1350.916
-19.736	31.278	1604.262	1350.265
-18.721	31.317	1602.590	1349.080
-17.706	31.289	1600.893	1347.395
-16.692	31.365	1599.018	1346.313
-15.677	31.327	1598.096	1345.210
-14.663	31.333	1596.899	1344.196
-13.648	31.255	1595.903	1342.742
-12.633	31.338	1594.117	1341.781
-11.619	31.260	1592.682	1339.959
-10.604	31.305	1591.004	1338.819
-9.590	31.373	1589.734	1338.181
-8.575	31.180	1588.732	1335.908
-7.560	31.296	1587.513	1335.655
-6.546	31.239	1586.703	1334.512
-5.531	31.310	1585.441	1333.904
-4.517	31.268	1584.199	1332.512
-3.502	31.311	1582.933	1331.695
-2.487	31.388	1580.847	1330.442
-1.473	30.978	1569.682	1318.095
-0.458	28.243	1550.076	1282.445
0.556	23.935	1550.793	1250.322
1.571	21.597	1573.531	1251.846
2.586	21.074	1586.554	1258.328
3.600	18.765	1533.096	1199.706
4.615	11.535	1426.370	1068.936
5.629	5.489	1365.906	985.542
6.644	4.648	1358.361	974.740
7.659	4.549	1357.068	973.111
8.673	4.586	1355.930	972.441
9.688	4.587	1354.205	971.119
10.702	4.521	1351.008	968.329
11.717	7.205	1356.467	988.931
12.731	14.195	1369.318	1042.131
13.746	18.977	1376.023	1077.164
14.761	18.818	1374.440	1074.836
15.775	17.844	1372.029	1066.771
16.790	16.755	1369.560	1057.955
17.804	15.805	1367.191	1050.107
18.819	15.530	1365.936	1047.337
19.834	15.380	1364.291	1045.051
20.848	15.114	1363.229	1042.484
21.863	14.806	1362.771	1040.127
22.877	14.714	1360.930	1038.062
23.892	14.668	1359.953	1036.938
24.907	14.587	1359.103	1035.693
25.921	14.668	1357.953	1035.229
26.936	14.643	1357.951	1034.979
27.950	14.822	1356.041	1034.543
28.965	14.753	1355.726	1033.785
29.980	14.884	1354.646	1033.677
30.994	14.971	1353.458	1033.219
32.009	15.002	1352.092	1032.274
33.023	15.061	1350.841	1031.591
34.038	14.878	1349.617	1029.437
35.053	14.965	1347.800	1028.494
36.067	14.915	1347.037	1027.516
37.082	14.865	1346.073	1026.379
38.096	15.013	1344.936	1026.332
39.111	14.951	1344.254	1025.342
40.126	14.873	1343.587	1024.261
41.140	14.672	1342.909	1022.427
42.155	14.577	1342.270	1021.264
43.169	14.509	1342.351	1020.820
44.184	14.673	1341.313	1020.946
45.199	14.601	1341.336	1020.429
46.213	14.644	1340.906	1020.277
47.228	14.730	1339.867	1019.920
48.242	14.813	1338.433	1019.245
49.257	14.722	1337.309	1017.745
50.271	14.712	1335.937	1016.549
51.286	14.857	1334.492	1016.240
52.301	14.864	1332.971	1015.036
53.315	14.750	1331.981	1013.505
54.330	14.680	1330.971	1012.217
55.344	14.665	1329.503	1010.924
56.359	14.825	1328.617	1011.129
57.374	14.688	1327.653	1009.475
58.388	14.564	1327.034	1008.165
59.403	14.510	1327.035	1007.749
60.417	14.577	1326.152	1007.394
61.432	14.460	1325.140	1005.831
62.447	14.533	1324.086	1005.384
63.461	14.392	1322.900	1003.542
64.476	14.472	1321.775	1003.087
65.490	14.419	1320.756	1001.902
66.505	14.384	1319.470	1000.630
67.520	14.495	1318.444	1000.430
68.534	14.487	1317.159	999.315
69.549	14.557	1316.022	998.783
70.563	14.505	1314.775	997.442
71.578	14.489	1313.696	996.438
72.593	14.394	1312.600	994.948
73.607	14.382	1312.286	994.552
74.622	14.377	1311.298	993.688
75.636	14.428	1310.400	993.220
76.651	14.440	1309.902	992.829
77.666	14.376	1309.515	992.067
78.680	14.509	1308.819	992.243
79.695	14.532	1308.034	991.693
80.709	14.460	1307.608	990.858
81.724	14.541	1306.505	990.413
82.739	14.558	1306.152	990.159
83.753	14.722	1305.268	990.374
84.768	14.710	1304.039	989.282
85.782	14.843	1302.753	989.009
86.797	14.803	1301.638	987.836
87.812	14.816	1299.781	986.417
88.826	14.688	1299.494	985.358
89.841	14.827	1298.375	985.241
90.855	14.874	1297.398	984.690
91.870	14.920	1296.242	983.996
92.884	14.836	1295.676	982.982
93.899	14.853	1294.876	982.391
94.914	14.935	1294.157	982.241
95.928	14.970	1292.836	981.356
96.943	14.905	1292.261	980.452
97.957	14.843	1291.507	979.430
98.972	14.842	1290.243	978.380
99.987	14.831	1289.158	977.404
101.001	14.949	1288.159	977.249
102.016	14.889	1287.283	976.149
103.030	15.016	1286.130	975.929
104.045	14.957	1285.148	974.754
105.060	14.753	1284.739	973.169
106.074	14.841	1282.550	971.933
107.089	14.608	1281.194	969.471
108.103	14.513	1280.201	968.081
109.118	14.568	1278.894	967.322
110.133	14.559	1277.335	966.009
111.147	14.528	1276.401	965.040
112.162	14.487	1275.325	963.899
113.176	14.675	1273.924	963.843
114.191	14.581	1273.417	962.830
115.206	14.650	1271.853	961.959
116.220	14.636	1270.519	960.786
117.235	14.629	1269.252	959.705
118.249	14.620	1268.709	959.157
119.264	14.595	1267.202	957.787
120.279	14.553	1266.481	956.918
121.293	14.559	1265.504	956.127
122.308	14.504	1264.545	955.002
123.322	14.553	1263.199	954.182
124.337	14.471	1262.319	952.967
125.352	14.621	1260.867	952.645
126.366	14.574	1260.032	951.658
127.381	14.474	1259.385	950.519
128.395	14.493	1258.289	949.711
129.410	14.526	1257.453	949.185
130.424	14.557	1256.666	948.685
131.439	14.609	1255.306	947.871
132.454	14.620	1254.667	947.363
133.468	14.664	1254.017	947.038
134.483	14.680	1252.916	946.214
135.497	14.719	1251.601	945.362
136.512	14.675	1250.786	944.409
137.527	14.695	1249.417	943.406
138.541	14.606	1248.400	942.056
139.556	14.705	1246.540	941.124
140.570	14.883	1245.505	941.262
141.585	14.852	1244.670	940.376
142.600	14.941	1243.267	939.732
143.614	14.876	1242.917	939.018
144.629	14.853	1241.673	937.863
145.643	15.052	1240.201	937.784
146.658	14.859	1239.311	935.948
147.673	14.750	1237.999	934.267
148.687	14.746	1236.614	933.114
149.702	14.702	1235.448	931.906
150.716	14.791	1233.741	931.035
151.731	14.734	1232.750	929.885
152.746	14.703	1231.774	928.895
153.760	14.832	1230.753	928.758
154.775	14.839	1229.729	927.945
155.789	14.773	1228.798	926.791
156.804	14.948	1227.430	926.648
157.819	14.877	1226.718	925.635
158.833	15.066	1225.844	925.939
159.848	15.024	1225.113	925.075
160.862	14.974	1224.302	924.105
161.877	14.800	1222.777	921.909
162.892	14.888	1221.521	921.365
163.906	14.772	1221.087	920.318
164.921	14.836	1220.176	919.906
165.935	14.863	1219.346	919.347
166.950	14.963	1218.266	919.001
167.964	14.880	1217.373	917.791
168.979	14.963	1216.611	917.588
169.994	14.903	1216.212	916.876
171.008	15.010	1215.114	916.553
172.023	14.986	1214.829	916.128
173.037	15.166	1213.641	916.135
174.052	15.055	1213.110	915.047
175.067	15.090	1211.668	914.066
176.081	14.891	1210.962	912.367
177.096	14.910	1209.898	911.591
178.110	14.945	1209.040	911.056
179.125	14.932	1207.865	910.016
180.140	14.921	1206.700	908.999
181.154	15.035	1205.548	908.667
182.169	15.145	1204.131	908.117
183.183	15.161	1202.994	907.268
184.198	15.203	1201.996	906.658
185.213	15.222	1201.032	905.958
186.227	15.282	1199.913	905.354
187.242	15.231	1198.728	904.104
188.256	15.370	1198.043	904.257
189.271	15.317	1197.081	903.169
190.286	15.078	1196.192	901.132
191.300	14.919	1195.073	899.355
192.315	14.812	1194.475	898.248
193.329	14.921	1193.980	898.383
194.344	15.035	1192.907	898.107
195.359	15.105	1192.748	898.285
196.373	15.149	1192.193	898.022
197.388	15.233	1191.784	898.086
198.402	15.301	1191.643	898.263
199.417	15.379	1190.821	897.983
200.432	15.497	1189.569	897.590
201.446	15.542	1188.768	897.147
202.461	15.600	1188.200	896.949
203.475	15.676	1186.935	896.315
204.490	15.458	1185.878	894.281
205.504	15.304	1184.961	892.689
206.519	15.436	1183.301	892.060
207.534	15.431	1182.179	891.108
208.548	15.452	1181.042	890.287
209.563	15.402	1180.677	889.667
210.577	15.362	1180.002	888.867
211.592	15.404	1178.801	888.108
212.607	15.582	1177.998	888.362
213.621	15.546	1177.509	887.728
214.636	15.592	1176.653	887.242
215.650	15.557	1175.682	886.251
216.665	15.531	1174.740	885.325
217.680	15.611	1173.915	885.048
218.694	15.758	1172.740	884.854
219.709	15.784	1171.859	884.246
220.723	15.716	1171.178	883.299
221.738	15.661	1171.160	882.921
222.753	15.784	1169.359	882.127
223.767	15.774	1168.913	881.662
224.782	15.811	1168.491	881.459
225.796	15.841	1167.926	881.113
226.811	15.815	1167.052	880.240
227.826	15.722	1166.821	879.498
228.840	15.798	1165.924	879.140
229.855	15.823	1165.201	878.651
230.869	15.669	1164.114	876.950
231.884	15.823	1163.468	877.185
232.899	15.686	1162.236	875.466
233.913	15.655	1161.894	874.974
234.928	15.786	1161.000	874.903
235.942	15.652	1160.285	873.589
236.957	15.621	1159.614	872.847
237.972	15.566	1159.185	872.162
238.986	15.685	1158.305	872.040
240.001	15.705	1157.530	871.483
241.015	15.744	1156.353	870.719
242.030	15.657	1156.244	870.112
243.045	15.835	1154.849	869.904
244.059	15.895	1154.279	869.706
245.074	15.836	1153.678	868.874
246.088	15.893	1152.772	868.408
247.103	15.967	1152.024	868.147
248.117	16.085	1151.523	868.302
249.132	16.103	1150.880	867.832
250.147	16.165	1150.201	867.562
251.161	16.308	1149.583	867.755
252.176	16.298	1148.430	866.755
253.190	16.320	1148.037	866.497
254.205	16.384	1147.787	866.562
255.220	16.369	1146.875	865.715
256.234	16.356	1146.071	864.967
257.249	16.376	1145.534	864.586
258.263	16.297	1145.309	863.935
259.278	16.387	1144.257	863.525
260.293	16.354	1143.604	862.790
261.307	16.434	1142.987	862.658
262.322	16.399	1142.619	862.121
263.336	16.514	1141.980	862.151
264.351	16.493	1140.950	861.193
265.366	16.551	1140.496	861.069
266.380	16.544	1139.888	860.496
267.395	16.476	1138.764	859.226
268.409	16.430	1138.332	858.592
269.424	16.432	1137.478	857.878
270.439	16.472	1137.180	857.784
271.453	16.461	1136.209	856.919
272.468	16.454	1135.040	855.928
273.482	16.322	1134.612	854.860
274.497	16.426	1133.716	854.632
275.512	16.463	1133.190	854.349
276.526	16.576	1132.347	854.210
277.541	16.433	1131.869	853.053
278.555	16.469	1131.480	852.862
279.570	16.539	1130.707	852.560
280.585	16.750	1129.852	852.900
281.599	16.759	1128.971	852.206
282.614	16.567	1128.213	850.592
283.628	16.742	1126.677	850.238
284.643	16.608	1125.753	848.792
285.657	16.648	1125.061	848.396
286.672	16.665	1124.094	847.677
287.687	16.807	1123.068	847.538
288.701	16.701	1122.400	846.428
289.716	16.626	1121.934	845.631
290.730	16.791	1121.215	845.836
291.745	16.826	1120.539	845.427
292.760	16.756	1120.098	844.667
293.774	16.806	1119.048	844.053
294.789	17.004	1118.569	844.601
295.803	16.930	1117.882	843.642
296.818	16.755	1117.411	842.339
297.833	16.749	1116.651	841.665
298.847	16.773	1116.066	841.268
299.862	16.880	1115.153	841.033
300.876	16.905	1114.427	840.537
301.891	17.057	1114.007	840.900
302.906	16.970	1113.070	839.687
303.920	17.078	1112.597	839.790
304.935	17.017	1111.989	838.956
305.949	17.139	1111.168	838.863
306.964	17.015	1110.357	837.567
307.979	17.068	1109.543	837.137
308.993	17.131	1109.068	837.017
310.008	17.159	1108.128	836.372
311.022	17.227	1107.172	835.911
312.037	17.194	1106.569	835.218
313.052	17.057	1105.589	833.732
314.066	17.123	1104.564	833.211
315.081	17.141	1103.737	832.599
316.095	16.986	1103.401	831.514
317.110	17.059	1102.322	830.982
318.125	17.027	1101.796	830.356
319.139	16.979	1101.295	829.670
320.154	16.993	1100.607	829.150
321.168	17.045	1099.820	828.734
322.183	17.118	1099.222	828.570
323.197	17.124	1098.146	827.711
324.212	17.100	1098.141	827.518
325.227	17.110	1097.694	827.159
326.241	17.142	1096.850	826.606
327.256	17.074	1096.066	825.611
328.270	17.093	1095.003	824.830
329.285	17.111	1094.435	824.413
330.300	17.030	1093.362	823.138
331.314	17.050	1092.654	822.632
332.329	17.128	1091.664	822.193
333.343	17.203	1090.650	821.717
334.358	17.309	1089.721	821.459
335.373	17.212	1089.230	820.545
336.387	17.218	1088.375	819.860
337.402	17.351	1087.579	819.826
338.416	17.268	1087.497	819.291
339.431	17.399	1086.373	819.004
340.446	17.488	1085.691	818.846
341.460	17.668	1084.862	819.012
342.475	17.592	1084.521	818.318
343.489	17.671	1083.657	817.972
344.504	17.671	1082.840	817.281
345.519	17.606	1082.361	816.537
346.533	17.698	1081.101	815.954
347.548	17.862	1080.277	816.048
348.562	17.696	1080.025	814.992
349.577	17.590	1079.106	813.720
350.592	17.621	1078.183	813.097
351.606	17.521	1077.487	812.026
352.621	17.495	1077.119	811.551
353.635	17.401	1076.410	810.498
354.650	17.537	1075.460	810.356
355.665	17.549	1074.719	809.784
356.679	17.661	1074.109	809.787
357.694	17.693	1073.345	809.288
358.708	17.570	1073.092	808.445
359.723	17.730	1072.198	808.457
360.738	17.806	1071.622	808.311
361.752	17.774	1071.286	807.835
362.767	17.847	1070.760	807.714
363.781	17.740	1069.731	806.358
364.796	17.885	1069.351	806.684
365.810	17.989	1068.630	806.561
366.825	18.070	1068.152	806.511
367.840	17.953	1067.933	805.722
368.854	17.998	1067.305	805.391
369.869	18.057	1066.176	804.744
370.883	17.897	1065.657	803.528
371.898	18.024	1064.443	803.142
372.913	17.938	1063.939	802.286
373.927	17.972	1063.759	802.237
374.942	18.141	1063.025	802.407
375.956	17.957	1062.683	801.212
376.971	18.106	1061.888	801.243
377.986	18.144	1061.239	800.859
379.000	18.222	1060.975	800.957
380.015	18.083	1060.662	799.996
381.029	18.228	1060.017	800.116
382.044	18.156	1059.188	799.084
383.059	18.198	1058.397	798.613
384.073	18.302	1057.332	798.223
385.088	18.282	1056.425	797.376
386.102	18.274	1055.870	796.848
387.117	18.174	1054.610	795.363
388.132	18.206	1054.024	794.996
389.146	18.119	1053.150	793.867
390.161	18.103	1052.565	793.277
391.175	18.148	1051.572	792.669
392.190	18.216	1050.875	792.388
393.205	18.298	1050.388	792.330
394.219	18.298	1049.521	791.606
395.234	18.296	1048.714	790.920
396.248	18.246	1047.802	789.930
397.263	18.252	1046.304	788.759
398.278	18.283	1045.503	788.231
399.292	18.084	1045.046	786.900
400.307	18.184	1044.550	786.917
401.321	18.148	1043.893	786.186
402.336	18.162	1043.441	785.837
403.350	18.168	1042.513	785.099
404.365	18.281	1041.689	784.928
405.380	18.305	1041.066	784.497
406.394	18.274	1040.476	783.841
407.409	18.302	1040.070	783.595
408.423	18.379	1039.297	783.294
409.438	18.474	1038.525	783.078
410.453	18.404	1038.129	782.392
411.467	18.582	1037.079	782.342
412.482	18.603	1036.538	781.962
413.496	18.694	1035.556	781.563
414.511	18.592	1035.555	781.030
415.526	18.818	1034.857	781.464
416.540	18.819	1034.667	781.253
417.555	18.760	1033.741	780.218
418.569	18.750	1033.105	779.622
419.584	18.821	1032.901	779.722
420.599	18.739	1032.272	778.809
421.613	150.981	1402.035	1797.045
422.628	137.792	1455.902	1797.156
