DTS Sentinel unit serial number:	SN413079Multiplexer serial number:	ORYXHardware model number:	OX4-SRSoftware version number:	ORYX F/W v4.00 Oryx Data Collector v3.7.2.0data status	okinstallation	princeton_trtdifferential loss correction	single-endedforward channel	channel 2reverse channel	N/Adate	2019/09/12time	19:35:49forward acquisition time	15.00reverse acquisition time	0.00gamma	496.2192k internal	0.2327k external	0.2327temperature offset calibration	1.0160default loss term (dB/km)	0.3790temperature slope calibration	1.0000multiplexer offset coefficient	1.0000multiplexer slope coefficient	1.0000fibre end	0.00T internal ref (°C)	32.19T ext. ref 1 (°C)	3.32T ext. ref 2 (°C)	26.69length (m)	temperature (°C)	Stokes	anti-Stokes-747.200	-73.816	-0.574	-0.211
-746.185	-180.531	0.759	0.016
-745.171	-42.967	-0.303	-0.155
-744.156	412.638	-0.185	0.396
-743.142	210.396	-0.359	0.568
-742.127	486.322	0.331	0.760
-741.112	-200.000	0.026	-0.164
-740.098	800.000	0.064	-0.182
-739.083	675.907	-0.156	-0.409
-738.069	216.469	-0.064	0.102
-737.054	308.331	-0.317	-0.597
-736.039	604.202	0.152	-0.382
-735.025	-33.138	0.592	0.331
-734.010	-62.146	0.513	-0.216
-732.996	27.720	0.287	-0.244
-731.981	800.000	0.161	-0.601
-730.966	168.842	0.315	0.453
-729.952	-200.000	-0.010	-0.223
-728.937	-124.093	-0.582	0.092
-727.923	-88.766	0.525	-0.157
-726.908	328.185	-0.214	0.413
-725.894	-200.000	-0.090	0.482
-724.879	800.000	-0.176	-0.614
-723.864	-9.866	-0.208	-0.139
-722.850	417.974	-0.089	-0.192
-721.835	-200.000	-0.040	-1.007
-720.821	-200.000	0.080	0.448
-719.806	-46.334	0.243	0.121
-718.791	150.967	0.153	0.209
-717.777	119.727	0.099	0.124
-716.762	800.000	-0.057	-0.196
-715.748	20.302	-0.673	0.548
-714.733	-200.000	0.004	0.332
-713.718	-200.000	0.000	-0.235
-712.704	42.983	0.413	-0.379
-711.689	-155.971	0.573	0.037
-710.675	-79.179	0.366	-0.125
-709.660	104.366	-0.271	0.321
-708.645	659.645	0.223	-0.578
-707.631	-200.000	-0.020	0.546
-706.616	206.740	0.180	0.283
-705.602	-37.777	-0.342	-0.183
-704.587	-76.900	-0.285	-0.100
-703.572	-8.391	-0.188	-0.127
-702.558	-198.208	-0.433	-0.003
-701.543	34.249	0.352	0.309
-700.529	-14.969	-0.627	0.404
-699.514	800.000	-0.150	-0.436
-698.499	457.650	-0.174	-0.388
-697.485	93.042	0.635	0.723
-696.470	43.177	-0.246	0.226
-695.456	-113.749	-0.228	0.045
-694.441	-17.310	0.057	-0.036
-693.426	-97.789	0.675	-0.176
-692.412	228.080	0.166	0.271
-691.397	146.906	-0.467	-0.632
-690.383	-101.332	-0.442	-0.109
-689.368	-168.223	-0.672	-0.026
-688.354	-200.000	0.054	-0.372
-687.339	-5.009	-0.206	0.142
-686.324	-48.150	0.159	0.077
-685.310	90.423	-0.305	0.343
-684.295	-41.898	0.349	-0.180
-683.281	-63.678	-0.416	-0.172
-682.266	800.000	0.149	0.542
-681.251	77.140	0.039	-0.042
-680.237	51.282	0.168	-0.160
-679.222	-200.000	0.063	-0.417
-678.208	-102.963	-0.825	0.197
-677.193	0.887	-0.412	-0.297
-676.178	-130.037	-0.352	-0.048
-675.164	185.743	0.240	0.359
-674.149	-58.838	-0.357	-0.155
-673.135	-200.000	-0.057	0.391
-672.120	289.605	-0.129	-0.234
-671.105	-130.712	-0.841	-0.114
-670.091	-161.776	-0.496	0.025
-669.076	90.955	-0.115	0.130
-668.062	769.615	0.170	-0.465
-667.047	-200.000	0.104	-0.655
-666.032	800.000	-0.159	-0.548
-665.018	-125.212	0.898	0.138
-664.003	800.000	0.053	-0.165
-662.989	113.465	-0.317	0.387
-661.974	-162.261	-0.131	-0.007
-660.959	18.344	0.178	0.143
-659.945	-45.729	0.413	0.205
-658.930	-85.450	0.535	0.168
-657.916	-79.426	0.598	-0.203
-656.901	-126.328	0.641	0.096
-655.886	490.523	-0.025	-0.058
-654.872	-152.834	-0.505	0.036
-653.857	14.163	0.118	-0.093
-652.843	800.000	0.026	0.076
-651.828	32.767	0.580	-0.505
-650.814	95.100	-0.211	0.241
-649.799	154.114	-0.105	0.145
-648.784	-164.604	-0.577	-0.026
-647.770	-12.483	0.322	0.211
-646.755	28.544	0.552	0.469
-645.741	800.000	0.090	0.292
-644.726	-75.057	-0.336	-0.121
-643.711	-77.976	-0.474	-0.164
-642.697	-36.030	0.158	-0.086
-641.682	-103.069	0.786	0.187
-640.668	439.125	-0.188	-0.411
-639.653	43.425	-0.575	0.527
-638.638	698.994	-0.082	0.217
-637.624	-38.481	0.723	-0.384
-636.609	800.000	-0.033	-0.108
-635.595	107.802	-0.081	0.097
-634.580	145.911	0.155	0.209
-633.565	800.000	0.190	0.575
-632.551	-103.764	-0.179	-0.042
-631.536	203.585	-0.326	0.506
-630.522	-67.243	-0.423	0.167
-629.507	7.264	-0.292	-0.218
-628.492	-200.000	-0.036	0.352
-627.478	28.294	-0.209	-0.178
-626.463	203.547	0.233	0.362
-625.449	-42.929	0.433	-0.220
-624.434	-97.510	-0.409	0.107
-623.419	597.805	0.364	0.905
-622.405	-200.000	-0.104	0.520
-621.390	268.970	0.354	-0.622
-620.376	800.000	-0.163	-0.653
-619.361	-200.000	-0.058	-0.482
-618.346	337.206	0.251	-0.490
-617.332	-63.174	-1.336	-0.553
-616.317	-100.529	-0.724	-0.180
-615.303	154.133	-0.307	-0.423
-614.288	-60.657	-0.401	0.171
-613.273	-200.000	0.020	-0.427
-612.259	-200.000	-0.003	0.423
-611.244	183.237	-0.319	0.472
-610.230	66.510	-0.444	-0.452
-609.215	800.000	-0.060	0.261
-608.201	11.936	-0.633	-0.488
-607.186	-6.101	0.579	-0.397
-606.171	222.473	-0.408	-0.659
-605.157	-148.259	-0.747	-0.062
-604.142	-200.000	-0.074	-0.562
-603.128	24.733	0.234	-0.194
-602.113	20.673	-0.230	-0.187
-601.098	-100.082	-0.596	0.149
-600.084	52.689	-0.137	-0.131
-599.069	800.000	-0.116	0.376
-598.055	29.357	-0.449	-0.383
-597.040	27.729	0.166	0.140
-596.025	70.305	-0.282	0.293
-595.011	-14.466	0.202	0.130
-593.996	-200.000	-0.129	0.709
-592.982	-200.000	-0.101	0.751
-591.967	-43.375	0.402	-0.204
-590.952	-35.851	0.851	0.462
-589.938	-200.000	0.109	-0.632
-588.923	167.594	-0.014	0.021
-587.909	-200.000	0.050	0.313
-586.894	-98.460	0.320	0.082
-585.879	-140.806	-0.604	0.062
-584.865	-72.333	-0.397	-0.147
-583.850	-140.757	0.203	-0.021
-582.836	-200.000	-0.034	-0.812
-581.821	74.012	-0.433	-0.456
-580.806	-47.798	0.873	-0.424
-579.792	537.585	-0.336	-0.801
-578.777	800.000	0.072	-0.286
-577.763	77.140	0.121	-0.129
-576.748	-10.249	0.048	-0.032
-575.733	800.000	-0.121	0.432
-574.719	-200.000	0.119	-0.939
-573.704	5.362	0.187	-0.138
-572.690	-200.000	0.153	1.129
-571.675	270.947	0.248	-0.438
-570.661	281.359	0.390	-0.700
-569.646	-200.000	-0.010	0.338
-568.631	-200.000	-0.108	0.541
-567.617	-42.099	-0.995	-0.510
-566.602	-114.153	1.080	-0.209
-565.588	-200.000	-0.005	0.153
-564.573	140.942	-0.343	-0.454
-563.558	355.889	0.398	0.793
-562.544	84.405	-0.266	0.291
-561.529	-200.000	0.106	-0.550
-560.515	436.929	-0.096	0.210
-559.500	35.526	-0.347	0.305
-558.485	-129.631	-0.638	-0.088
-557.471	251.309	0.538	0.917
-556.456	-200.000	0.001	-0.084
-555.442	2.116	0.494	-0.357
-554.427	-53.340	-0.917	0.421
-553.412	-111.368	1.270	0.259
-552.398	66.570	0.075	-0.076
-551.383	-73.385	-0.276	0.101
-550.369	-200.000	-0.137	0.733
-549.354	630.755	0.211	-0.534
-548.339	-64.328	0.216	0.088
-547.325	113.083	0.158	-0.192
-546.310	-172.446	1.117	-0.035
-545.296	45.287	-0.532	0.491
-544.281	-163.221	0.737	-0.035
-543.266	800.000	0.301	0.840
-542.252	48.835	-0.711	0.667
-541.237	277.787	-0.185	-0.330
-540.223	-135.302	-0.411	-0.049
-539.208	-200.000	0.093	0.823
-538.193	-200.000	0.050	-0.220
-537.179	109.060	0.612	-0.733
-536.164	133.625	-0.471	0.609
-535.150	36.203	0.330	-0.291
-534.135	-62.388	-0.254	-0.106
-533.121	50.366	0.289	-0.274
-532.106	-109.260	0.403	-0.085
-531.091	-200.000	0.053	-0.277
-530.077	152.007	-0.379	-0.517
-529.062	129.439	0.299	-0.382
-528.048	800.000	-0.315	1.025
-527.033	97.530	-0.312	0.359
-526.018	-159.131	0.759	-0.043
-525.004	-24.429	0.451	0.269
-523.989	233.099	0.105	-0.173
-522.975	116.124	0.539	0.660
-521.960	-171.819	-0.333	-0.011
-520.945	299.718	0.100	0.184
-519.931	319.122	-0.214	0.406
-518.916	16.165	-0.232	0.183
-517.902	74.967	0.163	0.171
-516.887	-85.068	0.528	0.165
-515.872	-120.120	-0.709	0.121
-514.858	42.147	0.059	-0.053
-513.843	-200.000	-0.070	0.702
-512.829	174.226	-0.215	0.310
-511.814	800.000	0.061	0.191
-510.799	113.398	0.488	-0.592
-509.785	-45.912	-0.572	0.282
-508.770	-35.427	-0.147	-0.080
-507.756	-200.000	-0.064	0.440
-506.741	97.934	-0.537	-0.617
-505.726	-200.000	0.005	-0.893
-504.712	154.106	0.088	-0.121
-503.697	800.000	0.147	0.563
-502.683	-94.989	0.776	0.210
-501.668	160.004	-0.241	-0.335
-500.653	-46.902	1.032	0.504
-499.639	13.571	-0.293	0.227
-498.624	800.000	-0.088	0.274
-497.610	-71.147	-0.336	0.126
-496.595	-200.000	-0.024	-0.330
-495.581	52.287	0.460	0.438
-494.566	-68.680	0.518	0.200
-493.551	316.019	-0.146	0.276
-492.537	-97.477	0.859	0.223
-491.522	155.278	-0.485	0.666
-490.508	-200.000	-0.455	-0.001
-489.493	800.000	-0.142	0.454
-488.478	40.238	0.319	0.286
-487.464	-25.762	-0.988	-0.581
-486.449	-200.000	-0.005	-0.355
-485.435	-32.891	-0.316	0.175
-484.420	800.000	-0.096	-0.336
-483.405	-148.447	0.316	-0.026
-482.391	-75.307	0.618	-0.220
-481.376	150.705	0.085	-0.116
-480.362	-46.181	0.376	0.185
-479.347	-200.000	-0.042	0.194
-478.332	-200.000	0.023	0.644
-477.318	-200.000	-0.034	-0.425
-476.303	90.213	0.286	0.319
-475.289	-132.947	-0.337	-0.043
-474.274	-86.390	-0.434	0.133
-473.259	-61.559	0.563	-0.236
-472.245	748.905	-0.226	-0.607
-471.230	800.000	-0.120	-0.349
-470.216	-53.042	-0.420	0.193
-469.201	-95.176	0.744	-0.200
-468.186	-137.730	-0.710	0.079
-467.172	800.000	0.110	-0.431
-466.157	1.892	0.252	-0.181
-465.143	262.501	-0.086	0.148
-464.128	180.765	0.236	0.346
-463.113	94.157	-0.184	0.208
-462.099	152.648	-0.393	-0.536
-461.084	-161.976	-0.543	-0.027
-460.070	-121.982	-0.498	0.082
-459.055	297.363	-0.393	-0.719
-458.040	146.628	-0.515	-0.690
-457.026	-76.227	-0.360	-0.126
-456.011	-50.751	-0.192	-0.090
-454.997	-200.000	-0.000	-0.665
-453.982	-11.446	-0.418	0.274
-452.968	800.000	-0.233	0.660
-451.953	23.480	-0.287	-0.235
-450.938	138.459	-0.156	-0.204
-449.924	630.185	-0.368	-0.927
-448.909	-200.000	0.063	0.416
-447.895	578.220	0.292	0.713
-446.880	292.360	-0.133	0.241
-445.865	-200.000	-0.008	0.088
-444.851	122.112	-0.492	0.612
-443.836	31.724	-0.254	-0.218
-442.822	0.942	-0.931	-0.665
-441.807	11.867	-1.024	0.784
-440.792	-75.539	-0.314	0.111
-439.778	207.173	0.355	-0.552
-438.763	-74.875	-0.427	-0.152
-437.749	-86.139	-0.722	0.222
-436.734	-62.694	0.470	0.194
-435.719	-41.261	0.488	0.251
-434.705	226.093	-0.203	-0.328
-433.690	-200.000	-0.081	0.805
-432.676	-163.896	0.828	-0.038
-431.661	-58.143	-0.415	-0.180
-430.646	2.924	0.301	-0.218
-429.632	-171.795	0.478	0.016
-428.617	-73.118	0.103	0.038
-427.603	-200.000	-0.009	0.474
-426.588	-7.525	-0.316	0.213
-425.573	-67.863	0.613	0.239
-424.559	-96.419	-0.224	0.059
-423.544	6.574	-0.464	-0.344
-422.530	18.352	-0.530	-0.421
-421.515	99.735	0.770	0.888
-420.500	-47.944	0.276	0.133
-419.486	151.746	0.368	0.500
-418.471	-79.876	0.176	-0.059
-417.457	-200.000	0.012	-0.300
-416.442	-12.219	0.336	0.219
-415.428	-23.560	0.576	0.344
-414.413	19.932	-0.644	-0.517
-413.398	-142.353	-0.771	-0.076
-412.384	-37.075	0.746	0.398
-411.369	120.054	-0.106	0.130
-410.355	-200.000	0.071	0.503
-409.340	139.206	0.344	-0.451
-408.325	653.719	-0.102	-0.261
-407.311	212.541	0.159	0.250
-406.296	-91.734	0.436	-0.123
-405.282	-200.000	-0.130	0.957
-404.267	-154.967	-0.088	-0.006
-403.252	-105.888	0.081	0.018
-402.238	-200.000	0.095	0.928
-401.223	405.993	0.255	-0.536
-400.209	-99.566	-0.268	0.067
-399.194	1.706	0.538	0.386
-398.179	-56.567	0.654	0.288
-397.165	729.339	-0.095	-0.253
-396.150	-162.432	-0.190	0.009
-395.136	227.365	0.277	-0.448
-394.121	625.349	0.073	0.184
-393.106	-33.847	0.906	0.496
-392.092	-200.000	-0.023	0.195
-391.077	-146.434	-0.682	-0.059
-390.063	674.168	0.310	0.799
-389.048	-200.000	0.008	-0.428
-388.033	-111.257	0.623	0.127
-387.019	-200.000	0.021	-0.158
-386.004	-164.841	0.164	-0.007
-384.990	-100.282	-0.634	0.156
-383.975	-131.547	1.011	0.132
-382.960	-53.895	-0.832	-0.377
-381.946	-123.872	-0.471	-0.074
-380.931	2.203	-0.171	-0.123
-379.917	-130.819	-0.352	-0.047
-378.902	-38.933	-0.141	0.074
-377.888	-174.541	-0.113	-0.003
-376.873	0.010	-0.296	0.210
-375.858	194.843	0.018	-0.027
-374.844	800.000	-0.261	0.847
-373.829	-143.539	-0.697	-0.066
-372.815	-42.062	0.698	-0.355
-371.800	-162.120	-0.852	-0.043
-370.785	800.000	-0.150	-0.500
-369.771	10.641	0.237	-0.180
-368.756	115.774	-0.593	0.721
-367.742	-5.527	-0.521	-0.355
-366.727	800.000	-0.052	-0.215
-365.712	120.357	-0.596	-0.735
-364.698	281.272	-0.424	-0.754
-363.683	-45.657	-0.095	0.047
-362.669	204.260	0.054	-0.083
-361.654	-119.140	-0.676	0.117
-360.639	-200.000	0.266	-0.000
-359.625	248.749	-0.631	1.061
-358.610	-22.930	-0.282	0.169
-357.596	-18.035	0.236	0.147
-356.581	-200.000	-0.087	1.071
-355.566	512.640	-0.206	0.478
-354.552	-200.000	-0.003	-0.434
-353.537	607.971	0.271	0.671
-352.523	101.861	0.085	-0.099
-351.508	349.604	-0.284	-0.556
-350.493	318.927	0.285	0.537
-349.479	327.833	-0.224	-0.427
-348.464	-62.362	0.366	-0.151
-347.450	800.000	-0.092	0.295
-346.435	-107.361	0.704	0.154
-345.420	103.289	0.492	-0.573
-344.406	205.167	-0.093	-0.143
-343.391	-90.684	0.344	0.099
-342.377	-38.194	-0.476	-0.251
-341.362	574.587	0.070	0.169
-340.348	-87.477	-1.060	-0.319
-339.333	151.578	-0.403	-0.544
-338.318	-62.538	0.018	-0.007
-337.304	-83.838	1.029	-0.325
-336.289	134.502	-0.390	-0.503
-335.275	-130.656	0.413	0.055
-334.260	-200.000	0.050	0.535
-333.245	-141.642	-0.445	0.044
-332.231	75.501	0.149	0.156
-331.216	634.075	0.153	0.386
-330.202	-84.610	0.286	-0.089
-329.187	800.000	0.309	-0.901
-328.172	-200.000	0.065	0.647
-327.158	-148.817	0.992	0.080
-326.143	-200.000	0.064	-0.627
-325.129	800.000	0.181	-0.721
-324.114	70.666	-0.751	-0.771
-323.099	-4.754	-0.295	-0.202
-322.085	117.611	-0.154	0.188
-321.070	9.164	0.449	-0.337
-320.056	114.540	0.410	-0.495
-319.041	-200.000	0.084	0.649
-318.026	-75.487	-0.498	-0.176
-317.012	-42.611	0.484	0.244
-315.997	-200.000	-0.025	0.712
-314.983	-200.000	0.018	0.786
-313.968	-124.402	0.312	-0.048
-312.953	-89.329	0.194	-0.057
-311.939	-117.958	0.865	-0.154
-310.924	-200.000	0.021	0.696
-309.910	-119.089	0.094	-0.016
-308.895	385.877	-0.137	0.281
-307.880	-44.962	-0.160	0.079
-306.866	-200.000	0.054	-0.269
-305.851	800.000	-0.315	-1.268
-304.837	800.000	0.157	-0.460
-303.822	-200.000	0.059	1.501
-302.807	800.000	-0.130	-0.410
-301.793	-98.846	0.430	-0.108
-300.778	53.029	-0.716	-0.679
-299.764	-61.394	0.252	-0.105
-298.749	-32.223	0.731	0.404
-297.735	210.755	-0.120	-0.187
-296.720	-102.739	-0.553	0.131
-295.705	26.168	0.596	0.493
-294.691	-172.275	-0.421	-0.013
-293.676	407.266	0.431	-0.903
-292.662	6.705	-1.222	-0.901
-291.647	435.169	0.398	-0.858
-290.632	207.010	-0.174	0.269
-289.618	59.347	-0.742	-0.724
-288.603	236.887	-0.684	-1.123
-287.589	44.155	-0.447	-0.406
-286.574	-64.463	0.384	-0.154
-285.559	127.402	0.340	0.428
-284.545	77.900	-0.360	0.380
-283.530	281.868	0.280	0.497
-282.516	800.000	-0.208	-0.767
-281.501	-79.972	0.694	-0.231
-280.486	800.000	0.103	-0.299
-279.472	800.000	0.010	-0.029
-278.457	-39.237	-0.806	-0.419
-277.443	102.440	-0.289	-0.334
-276.428	29.449	0.554	0.466
-275.413	-35.541	-0.690	0.371
-274.399	-87.590	0.943	-0.282
-273.384	-70.867	0.342	-0.128
-272.370	242.203	0.084	-0.140
-271.355	-200.000	-0.079	0.444
-270.340	-200.000	0.003	1.069
-269.326	-140.857	0.405	-0.041
-268.311	6.696	0.525	-0.387
-267.297	-127.166	-0.941	-0.136
-266.282	336.430	-0.485	-0.931
-265.267	-200.000	0.154	-0.695
-264.253	98.312	0.560	0.638
-263.238	-200.000	-0.111	-0.496
-262.224	-99.045	-0.098	0.025
-261.209	284.445	0.172	0.306
-260.195	42.708	-0.326	-0.294
-259.180	126.353	0.169	0.212
-258.165	-100.243	0.348	0.085
-257.151	27.125	0.447	-0.371
-256.136	800.000	-0.373	-1.034
-255.122	117.340	0.251	0.306
-254.107	-200.000	0.037	-0.958
-253.092	118.381	0.465	-0.567
-252.078	-160.946	1.217	-0.063
-251.063	-3.847	-0.411	-0.282
-250.049	-172.862	0.113	0.003
-249.034	-200.000	-0.028	-0.433
-248.019	800.000	0.174	0.508
-247.005	-200.000	-0.015	0.297
-245.990	-102.632	-0.956	-0.226
-244.976	-154.960	0.363	-0.024
-243.961	-200.000	-0.212	1.057
-242.946	-77.257	0.445	-0.153
-241.932	-50.478	-0.744	-0.347
-240.917	362.761	0.255	0.506
-239.903	-200.000	0.005	-0.341
-238.888	400.064	-0.292	0.604
-237.873	173.816	0.158	-0.225
-236.859	505.973	-0.240	0.550
-235.844	-200.000	0.216	1.189
-234.830	440.165	0.040	0.087
-233.815	-200.000	-0.248	0.001
-232.800	85.787	0.172	0.187
-231.786	152.952	0.730	-0.986
-230.771	-144.231	-0.568	-0.052
-229.757	118.606	-0.402	0.490
-228.742	120.022	-0.162	0.198
-227.727	35.067	-0.585	-0.506
-226.713	-121.013	-0.515	-0.085
-225.698	800.000	0.098	0.286
-224.684	800.000	0.196	-0.566
-223.669	-200.000	-0.097	0.932
-222.655	-137.327	1.062	-0.119
-221.640	-77.619	0.415	0.142
-220.625	-200.000	0.005	0.753
-219.611	-26.030	-0.383	-0.223
-218.596	224.031	0.116	0.185
-217.582	251.692	0.483	-0.812
-216.567	-200.000	0.014	-0.132
-215.552	221.833	0.413	-0.655
-214.538	19.428	-0.371	0.295
-213.523	-128.154	-0.448	0.063
-212.509	241.993	0.046	-0.077
-211.494	15.383	0.094	0.073
-210.479	800.000	-0.053	-0.174
-209.465	307.216	-0.289	-0.531
-208.450	3.365	-0.285	0.205
-207.436	-75.616	0.469	-0.165
-206.421	58.619	-0.406	-0.393
-205.406	2.223	0.512	-0.366
-204.392	-200.000	-0.079	-0.735
-203.377	3.086	0.239	-0.172
-202.363	-69.070	-0.505	-0.192
-201.348	-84.000	0.242	-0.076
-200.333	156.855	-0.391	-0.534
-199.319	-17.635	0.349	0.216
-198.304	-200.000	0.015	0.536
-197.290	-54.854	1.549	-0.690
-196.275	243.894	-0.463	0.767
-195.260	554.625	0.245	0.582
-194.246	-49.102	-0.284	-0.134
-193.231	-3.320	-0.128	-0.088
-192.217	25.838	-0.378	0.311
-191.202	-200.000	-0.040	0.822
-190.187	-200.000	0.058	0.272
-189.173	149.159	-0.100	-0.134
-188.158	-105.536	-0.294	-0.066
-187.144	38.702	-0.319	-0.280
-186.129	54.990	0.470	0.448
-185.114	-66.792	0.069	0.027
-184.100	548.687	-0.054	-0.127
-183.085	-200.000	-0.060	0.450
-182.071	74.601	0.191	-0.199
-181.056	-171.846	0.518	0.017
-180.042	22.331	0.482	-0.389
-179.027	-200.000	-0.069	-0.427
-178.012	-96.880	0.550	0.142
-176.998	-38.926	-0.354	0.184
-175.983	-111.143	0.230	0.046
-174.969	51.831	0.783	-0.735
-173.954	-200.000	-0.156	-0.725
-172.939	-113.461	0.808	0.156
-171.925	52.806	-0.459	-0.433
-170.910	-133.972	0.480	0.059
-169.896	106.006	-0.229	0.267
-168.881	-200.000	0.025	0.589
-167.866	-6.463	-0.351	-0.236
-166.852	-198.288	0.627	0.004
-165.837	-3.315	0.607	0.417
-164.823	-200.000	-0.011	0.049
-163.808	-200.000	-0.102	0.459
-162.793	-200.000	0.049	0.315
-161.779	44.810	0.442	0.401
-160.764	800.000	0.138	-0.448
-159.750	72.466	0.680	0.698
-158.735	-54.748	-0.193	0.086
-157.720	-172.212	0.626	-0.020
-156.706	36.909	-0.447	-0.389
-155.691	800.000	-0.058	-0.188
-154.677	-81.321	0.302	-0.098
-153.662	631.376	-0.134	0.334
-152.647	-200.000	-0.018	0.308
-151.633	-24.629	0.524	-0.307
-150.618	800.000	-0.254	0.708
-149.604	-1.866	1.192	0.826
-148.589	-82.771	-0.567	-0.181
-147.574	-34.722	-0.176	0.095
-146.560	800.000	-0.119	0.421
-145.545	-45.751	0.492	-0.240
-144.531	-165.944	0.697	-0.029
-143.516	-140.686	0.636	0.065
-142.502	-200.000	0.050	-0.220
-141.487	-58.298	-0.284	-0.122
-140.472	-200.000	0.094	-0.816
-139.458	-2.119	0.486	-0.336
-138.443	-173.436	-0.777	-0.023
-137.429	-22.472	0.367	0.219
-136.414	-110.156	-0.413	-0.085
-135.399	800.000	-0.192	-0.597
-134.385	-52.794	-0.510	0.232
-133.370	346.049	-0.070	0.136
-132.356	800.000	0.048	-0.200
-131.341	-61.486	-0.383	0.158
-130.326	-200.000	-0.060	-0.629
-129.312	-200.000	-0.040	0.249
-128.297	-94.566	-0.794	0.213
-127.283	-73.747	0.807	-0.289
-126.268	-18.983	-0.366	-0.224
-125.253	-200.000	-0.047	0.377
-124.239	-32.975	-0.311	0.170
-123.224	800.000	0.182	-0.661
-122.210	-35.398	-0.201	-0.107
-121.195	-200.000	0.009	-0.091
-120.180	-0.195	-0.575	-0.403
-119.166	43.823	-0.341	-0.307
-118.151	-99.378	0.778	0.193
-117.137	-161.722	0.235	-0.012
-116.122	269.099	0.120	0.208
-115.107	-200.000	-0.034	-0.536
-114.093	204.472	0.339	0.518
-113.078	-158.513	1.247	-0.071
-112.064	652.651	0.080	0.202
-111.049	800.000	0.056	0.189
-110.034	-200.000	-0.026	0.153
-109.020	-119.953	-0.343	0.058
-108.005	-200.000	0.006	0.130
-106.991	-89.785	0.493	0.142
-105.976	593.056	0.156	-0.379
-104.962	800.000	0.127	-0.351
-103.947	-27.223	-0.837	-0.479
-102.932	150.299	0.437	-0.583
-101.918	-93.292	0.072	0.020
-100.903	-36.356	0.241	-0.128
-99.889	800.000	0.242	-0.828
-98.874	800.000	-0.407	-1.153
-97.859	-28.702	-0.727	0.411
-96.845	-47.570	0.183	0.088
-95.830	800.000	0.324	-0.914
-94.816	-161.357	0.547	-0.028
-93.801	-4.005	-0.276	-0.188
-92.786	-200.000	0.050	0.400
-91.772	-52.494	0.123	0.056
-90.757	218.544	0.607	-0.954
-89.743	-200.000	-0.071	0.728
-88.728	152.830	0.155	0.208
-87.713	-154.432	0.330	0.022
-86.699	-200.000	0.112	-0.558
-85.684	-40.521	-0.554	0.283
-84.670	137.416	-0.242	0.311
-83.655	762.118	-0.328	-0.876
-82.640	191.193	0.174	-0.258
-81.626	-200.000	-0.042	-0.280
-80.611	-200.000	0.577	-0.001
-79.597	-17.947	0.345	0.212
-78.582	-78.528	0.404	-0.136
-77.567	-178.303	0.019	-0.000
-76.553	-200.000	-0.152	-0.663
-75.538	209.328	-0.184	0.283
-74.524	800.000	0.253	-1.068
-73.509	81.828	-0.297	0.315
-72.494	0.663	-0.780	0.548
-71.480	-184.375	0.885	-0.014
-70.465	-52.631	0.494	0.224
-69.451	36.303	-0.476	0.412
-68.436	124.942	0.419	0.518
-67.422	800.000	0.190	0.785
-66.407	-23.041	-0.283	-0.168
-65.392	257.578	0.252	-0.425
-64.378	575.767	-0.418	1.001
-63.363	-200.000	-0.035	0.521
-62.349	200.099	0.357	-0.538
-61.334	598.171	-0.912	-2.220
-60.319	67.583	0.320	0.320
-59.305	-200.000	0.101	-0.896
-58.290	115.366	0.963	1.154
-57.276	641.297	0.765	1.911
-56.261	-200.000	95.573	597.829
-55.246	680.554	1351.873	3455.273
-54.232	203.792	2527.290	3839.749
-53.217	114.339	2246.256	2683.978
-52.203	41.854	1880.309	1673.232
-51.188	35.492	1673.566	1441.614
-50.173	32.755	1630.116	1384.083
-49.159	51.722	1679.631	1567.722
-48.144	52.465	1696.406	1588.848
-47.130	35.058	1656.093	1423.111
-46.115	32.239	1642.079	1390.198
-45.100	32.428	1635.821	1386.237
-44.086	32.087	1634.643	1382.674
-43.071	31.982	1631.051	1378.808
-42.057	32.054	1629.640	1378.090
-41.042	32.124	1627.358	1376.624
-40.027	32.025	1625.176	1373.996
-39.013	32.113	1623.577	1373.230
-37.998	32.001	1622.019	1371.041
-36.984	31.929	1621.260	1369.820
-35.969	32.155	1619.356	1369.809
-34.954	32.276	1616.360	1368.098
-33.940	32.294	1616.089	1367.942
-32.925	32.073	1614.738	1365.137
-31.911	32.099	1612.215	1363.144
-30.896	32.216	1610.618	1362.589
-29.881	32.369	1608.160	1361.559
-28.867	32.183	1606.358	1358.634
-27.852	32.104	1605.947	1357.663
-26.838	32.200	1603.888	1356.564
-25.823	32.240	1602.827	1355.900
-24.809	32.026	1601.662	1353.317
-23.794	32.073	1600.103	1352.284
-22.779	32.112	1598.728	1351.348
-21.765	32.297	1596.404	1350.662
-20.750	32.107	1595.424	1348.415
-19.736	32.207	1594.412	1348.221
-18.721	32.269	1592.699	1347.163
-17.706	32.330	1591.241	1346.317
-16.692	32.115	1590.038	1343.702
-15.677	32.089	1588.683	1342.322
-14.663	32.473	1586.661	1343.301
-13.648	32.292	1584.793	1340.373
-12.633	32.240	1583.988	1339.273
-11.619	32.210	1582.324	1337.600
-10.604	32.165	1580.732	1335.879
-9.590	32.370	1578.969	1335.790
-8.575	32.345	1578.357	1335.044
-7.560	32.179	1578.101	1333.591
-6.546	32.243	1576.153	1332.347
-5.531	32.222	1574.549	1330.794
-4.517	32.189	1574.051	1330.086
-3.502	32.243	1572.505	1329.105
-2.487	32.358	1569.894	1327.658
-1.473	32.024	1558.654	1315.759
-0.458	28.918	1540.112	1278.499
0.556	26.963	1540.427	1247.063
1.571	24.425	1562.678	1247.252
2.586	23.649	1577.010	1253.109
3.600	21.038	1523.489	1192.641
4.615	12.629	1415.109	1054.062
5.629	4.888	1350.257	958.209
6.644	3.479	1342.496	943.994
7.659	3.217	1342.225	942.119
8.673	3.320	1340.339	941.342
9.688	3.265	1339.923	940.626
10.702	3.183	1335.400	936.874
11.717	6.740	1342.433	963.459
12.731	16.270	1358.446	1033.474
13.746	23.333	1371.532	1086.833
14.761	25.075	1372.647	1098.305
15.775	24.903	1372.413	1096.965
16.790	24.677	1371.320	1094.610
17.804	24.560	1369.926	1092.685
18.819	24.374	1369.708	1091.278
19.834	24.474	1368.470	1090.807
20.848	24.674	1366.544	1090.397
21.863	24.441	1367.224	1089.421
22.877	24.458	1365.858	1088.336
23.892	24.308	1366.195	1087.597
24.907	24.263	1364.272	1085.695
25.921	24.489	1363.367	1086.251
26.936	24.017	1363.267	1083.207
27.950	24.526	1360.797	1084.238
28.965	24.318	1361.363	1083.331
29.980	24.332	1360.276	1082.455
30.994	24.783	1358.085	1083.349
32.009	24.764	1357.361	1082.555
33.023	24.671	1356.206	1080.976
34.038	24.602	1354.778	1079.329
35.053	24.355	1354.119	1077.217
36.067	24.467	1353.172	1077.040
37.082	24.307	1352.416	1075.379
38.096	24.513	1350.718	1075.177
39.111	24.691	1350.292	1075.812
40.126	24.640	1348.960	1074.348
41.140	24.253	1349.653	1072.482
42.155	24.020	1347.957	1069.636
43.169	24.117	1347.555	1069.805
44.184	23.940	1348.066	1069.055
45.199	24.096	1347.410	1069.378
46.213	24.302	1347.133	1070.300
47.228	24.568	1345.393	1070.412
48.242	24.530	1345.265	1069.987
49.257	24.551	1344.605	1069.495
50.271	24.522	1342.705	1067.718
51.286	24.505	1342.020	1066.974
52.301	24.375	1340.911	1065.223
53.315	24.043	1340.793	1063.055
54.330	24.357	1338.130	1062.718
55.344	24.529	1335.838	1061.828
56.359	23.915	1336.884	1058.910
57.374	24.082	1335.094	1058.394
58.388	23.938	1334.725	1057.152
59.403	24.231	1333.928	1058.163
60.417	24.225	1333.188	1057.449
61.432	24.115	1332.393	1056.071
62.447	23.973	1331.853	1054.707
63.461	23.986	1329.607	1052.915
64.476	23.922	1329.587	1052.425
65.490	23.887	1329.290	1051.890
66.505	23.934	1328.234	1051.243
67.520	24.020	1326.786	1050.511
68.534	23.896	1324.594	1047.951
69.549	24.106	1323.671	1048.365
70.563	23.683	1324.500	1046.435
71.578	23.690	1322.901	1045.123
72.593	23.642	1321.213	1043.411
73.607	23.689	1320.247	1042.832
74.622	23.732	1319.659	1042.527
75.636	23.935	1318.844	1042.980
76.651	23.926	1317.809	1042.022
77.666	23.796	1318.477	1041.691
78.680	23.880	1318.583	1042.176
79.695	23.773	1317.623	1040.699
80.709	23.910	1316.801	1040.757
81.724	24.110	1316.010	1041.214
82.739	24.159	1314.450	1040.171
83.753	24.510	1313.619	1041.471
84.768	24.729	1313.016	1042.178
85.782	24.578	1312.919	1041.129
86.797	24.616	1311.846	1040.403
87.812	24.465	1310.437	1038.319
88.826	24.598	1308.488	1037.454
89.841	24.725	1308.101	1037.793
90.855	24.609	1307.011	1036.165
91.870	24.832	1307.531	1037.775
92.884	24.871	1306.270	1036.908
93.899	24.498	1306.186	1034.590
94.914	24.671	1305.232	1034.743
95.928	24.896	1302.954	1034.148
96.943	24.720	1303.385	1033.379
97.957	24.859	1301.308	1032.448
98.972	24.724	1300.321	1030.793
99.987	24.648	1299.872	1029.908
101.001	24.460	1300.076	1028.895
102.016	24.527	1298.498	1027.941
103.030	24.647	1298.000	1028.145
104.045	24.626	1296.093	1026.423
105.060	24.222	1296.553	1024.374
106.074	24.235	1293.998	1022.339
107.089	24.348	1291.961	1021.285
108.103	23.845	1291.779	1018.171
109.118	23.838	1289.676	1016.388
110.133	23.776	1288.785	1015.242
111.147	24.113	1287.524	1016.076
112.162	24.018	1287.397	1015.346
113.176	23.867	1286.252	1013.492
114.191	24.219	1285.187	1014.567
115.206	24.025	1283.933	1012.387
116.220	24.178	1283.147	1012.549
117.235	24.216	1281.685	1011.521
118.249	23.755	1281.294	1008.504
119.264	23.680	1281.292	1007.988
120.279	24.052	1279.116	1008.294
121.293	24.140	1278.092	1007.898
122.308	23.666	1277.247	1004.461
123.322	23.535	1276.346	1002.923
124.337	23.635	1275.996	1003.124
125.352	23.404	1274.842	1000.820
126.366	23.594	1274.707	1001.697
127.381	23.859	1272.608	1001.453
128.395	23.463	1271.813	998.514
129.410	23.476	1271.200	998.018
130.424	23.545	1270.485	997.752
131.439	23.669	1269.018	997.207
132.454	24.210	1269.100	1000.224
133.468	24.274	1268.362	999.914
134.483	24.165	1267.416	998.467
135.497	24.022	1267.320	997.501
136.512	24.375	1265.839	998.224
137.527	23.697	1264.979	993.665
138.541	24.058	1262.993	994.036
139.556	24.125	1262.530	993.954
140.570	24.175	1262.272	993.943
141.585	24.487	1260.930	994.535
142.600	24.639	1259.610	994.255
143.614	24.688	1260.328	995.005
144.629	24.869	1257.792	993.920
145.643	24.396	1257.967	991.342
146.658	24.555	1255.730	990.374
147.673	24.277	1255.266	988.381
148.687	24.366	1254.308	988.029
149.702	24.088	1252.634	985.086
150.716	23.791	1251.587	982.531
151.731	23.988	1249.841	982.165
152.746	23.964	1248.995	981.278
153.760	24.125	1248.641	981.800
154.775	24.289	1246.386	980.848
155.789	24.377	1246.475	981.313
156.804	24.318	1246.611	981.008
157.819	24.397	1243.958	979.265
158.833	24.334	1243.939	978.819
159.848	24.273	1243.814	978.300
160.862	24.642	1242.365	979.097
161.877	24.057	1240.874	974.631
162.892	23.742	1240.590	972.599
163.906	23.758	1238.881	971.259
164.921	23.818	1238.292	971.038
165.935	24.135	1237.608	972.147
166.950	24.037	1237.722	971.619
167.964	23.864	1237.338	970.287
168.979	24.267	1236.346	971.618
169.994	24.049	1235.392	969.597
171.008	24.127	1234.330	969.100
172.023	24.164	1233.844	968.838
173.037	24.429	1234.098	970.388
174.052	24.109	1232.531	967.333
175.067	24.504	1231.017	968.201
176.081	23.838	1229.888	963.617
177.096	23.648	1229.552	962.241
178.110	24.048	1227.826	962.969
179.125	23.967	1227.386	962.099
180.140	23.976	1226.801	961.606
181.154	24.668	1224.788	963.674
182.169	24.188	1224.687	960.921
183.183	24.291	1222.535	959.702
184.198	24.450	1222.627	960.548
185.213	24.374	1221.127	958.878
186.227	24.612	1219.521	958.804
187.242	24.456	1219.926	958.201
188.256	24.670	1218.535	958.170
189.271	24.751	1217.629	957.811
190.286	24.512	1216.859	955.837
191.300	24.198	1215.875	953.302
192.315	24.184	1215.093	952.533
193.329	24.364	1214.868	953.230
194.344	24.090	1214.521	951.410
195.359	23.679	1214.756	949.314
196.373	23.668	1213.201	947.953
197.388	24.082	1212.888	949.837
198.402	24.176	1213.151	950.460
199.417	24.722	1212.199	952.540
200.432	24.797	1212.142	952.807
201.446	24.717	1211.077	951.466
202.461	24.819	1210.540	951.499
203.475	24.581	1209.931	949.670
204.490	24.191	1208.574	946.451
205.504	24.158	1206.774	944.784
206.519	24.495	1205.135	945.199
207.534	23.806	1205.804	941.993
208.548	23.891	1203.927	940.890
209.563	24.024	1203.711	941.339
210.577	23.891	1201.891	939.133
211.592	24.187	1201.243	940.107
212.607	24.647	1201.305	942.496
213.621	24.519	1200.523	941.125
214.636	24.150	1199.960	938.659
215.650	24.451	1197.892	938.540
216.665	24.576	1197.312	938.660
217.680	24.664	1197.052	938.837
218.694	24.803	1195.898	938.575
219.709	24.602	1194.865	936.626
220.723	24.556	1193.319	935.092
221.738	24.721	1194.207	936.568
222.753	24.355	1193.120	933.717
223.767	24.210	1191.807	931.853
224.782	24.577	1192.120	933.930
225.796	24.738	1191.820	934.459
226.811	24.554	1190.718	932.550
227.826	24.291	1190.846	931.192
228.840	24.311	1190.296	930.784
229.855	24.380	1188.574	929.717
230.869	24.473	1187.485	929.267
231.884	24.329	1186.742	927.850
232.899	24.031	1185.176	924.998
233.913	23.852	1186.203	924.786
234.928	24.043	1184.642	924.480
235.942	23.922	1183.961	923.238
236.957	23.809	1182.635	921.536
237.972	23.690	1182.980	921.109
238.986	23.999	1182.654	922.374
240.001	23.926	1181.282	920.843
241.015	23.814	1180.512	919.583
242.030	24.057	1180.295	920.589
243.045	24.347	1179.239	921.180
244.059	24.196	1178.759	919.944
245.074	24.326	1178.139	920.053
246.088	24.691	1177.205	921.123
247.103	24.584	1177.115	920.419
248.117	24.694	1175.818	919.888
249.132	24.511	1175.876	918.909
250.147	25.191	1174.511	921.256
251.161	25.391	1174.259	922.003
252.176	25.319	1174.295	921.583
253.190	25.194	1172.788	919.675
254.205	25.174	1173.079	919.719
255.220	25.372	1172.522	920.219
256.234	25.578	1171.795	920.617
257.249	25.559	1170.330	919.290
258.263	25.399	1170.371	918.425
259.278	25.092	1169.845	916.359
260.293	25.507	1168.678	917.482
261.307	25.360	1168.086	916.190
262.322	25.414	1168.136	916.420
263.336	25.220	1167.680	914.995
264.351	25.238	1166.898	914.392
265.366	25.204	1166.006	913.436
266.380	25.201	1165.711	913.112
267.395	25.273	1164.737	912.631
268.409	24.952	1164.743	910.924
269.424	25.019	1163.212	909.988
270.439	25.005	1163.829	910.319
271.453	24.879	1162.860	908.841
272.468	24.879	1160.526	906.933
273.482	24.783	1160.876	906.643
274.497	24.719	1159.626	905.261
275.512	25.067	1158.128	905.770
276.526	25.051	1157.378	905.026
277.541	24.612	1158.206	903.373
278.555	25.031	1157.494	904.852
279.570	25.161	1155.985	904.248
280.585	25.100	1156.336	904.136
281.599	25.457	1154.950	904.768
282.614	25.091	1153.863	901.995
283.628	24.759	1152.756	899.384
284.643	25.028	1151.254	899.484
285.657	24.760	1151.486	898.240
286.672	24.854	1149.951	897.431
287.687	25.083	1149.388	898.061
288.701	25.025	1148.734	897.179
289.716	25.225	1147.380	897.042
290.730	24.988	1147.839	896.138
291.745	24.940	1145.689	894.140
292.760	25.123	1145.673	894.962
293.774	24.964	1145.985	894.335
294.789	25.402	1145.601	896.142
295.803	25.292	1144.814	894.898
296.818	25.126	1143.306	892.812
297.833	25.076	1142.814	892.098
298.847	24.963	1141.918	890.758
299.862	24.869	1141.233	889.681
300.876	25.147	1140.180	890.161
301.891	25.217	1140.203	890.448
302.906	25.476	1139.007	890.719
303.920	25.321	1139.075	889.921
304.935	25.610	1138.408	890.756
305.949	25.808	1137.230	890.736
306.964	25.481	1137.513	889.261
307.979	25.455	1137.459	889.010
308.993	25.311	1136.167	887.207
310.008	25.313	1134.362	885.733
311.022	25.721	1134.352	887.659
312.037	25.450	1134.112	886.056
313.052	25.113	1133.065	883.496
314.066	25.229	1130.872	882.279
315.081	24.961	1129.816	880.063
316.095	24.746	1128.797	878.135
317.110	25.012	1128.203	878.899
318.125	24.827	1128.920	878.473
319.139	24.695	1127.618	876.732
320.154	24.795	1127.251	876.863
321.168	24.808	1126.337	876.138
322.183	24.536	1126.572	874.908
323.197	24.882	1125.792	875.919
324.212	25.071	1125.138	876.260
325.227	25.374	1124.235	876.955
326.241	25.103	1124.069	875.427
327.256	25.047	1122.176	873.602
328.270	24.867	1122.290	872.733
329.285	24.879	1121.122	871.806
330.300	25.226	1119.794	872.388
331.314	24.924	1120.205	871.157
332.329	24.885	1118.995	869.951
333.343	25.036	1116.917	868.993
334.358	25.358	1117.495	870.927
335.373	25.521	1116.828	871.118
336.387	25.596	1115.652	870.487
337.402	25.223	1115.648	868.604
338.416	25.212	1115.401	868.281
339.431	25.385	1114.785	868.560
340.446	25.517	1114.736	869.082
341.460	25.954	1113.851	870.428
342.475	26.151	1112.948	870.595
343.489	25.792	1112.190	868.195
344.504	25.868	1111.324	867.810
345.519	26.087	1110.676	868.278
346.533	26.056	1109.711	867.299
347.548	25.964	1109.755	866.815
348.562	26.156	1107.858	866.177
349.577	25.766	1107.088	863.629
350.592	25.296	1106.894	861.145
351.606	25.456	1105.427	860.694
352.621	25.084	1104.923	858.444
353.635	24.897	1103.561	856.417
354.650	25.095	1102.382	856.374
355.665	25.041	1103.220	856.689
356.679	25.603	1101.775	858.175
357.694	25.380	1101.571	856.874
358.708	25.718	1100.838	857.840
359.723	25.608	1100.734	857.158
360.738	25.450	1099.704	855.529
361.752	25.263	1099.660	854.529
362.767	25.519	1098.602	854.847
363.781	25.302	1098.225	853.446
364.796	25.761	1098.064	855.428
365.810	26.034	1097.464	856.180
366.825	26.053	1097.198	855.988
367.840	26.384	1095.577	856.214
368.854	26.321	1095.999	856.169
369.869	26.076	1095.390	854.461
370.883	26.109	1093.644	853.177
371.898	25.865	1093.512	851.847
372.913	26.195	1091.465	851.735
373.927	25.986	1091.185	850.453
374.942	26.009	1091.686	850.878
375.956	26.215	1089.756	850.266
376.971	25.978	1089.972	849.246
377.986	26.019	1089.991	849.379
379.000	26.093	1090.136	849.763
380.015	26.417	1088.792	850.166
381.029	26.508	1087.887	849.811
382.044	26.208	1088.348	848.687
383.059	26.305	1087.460	848.374
384.073	26.220	1086.198	846.913
385.088	26.472	1084.965	847.058
386.102	26.438	1084.217	846.241
387.117	26.456	1082.725	845.088
388.132	25.710	1082.502	841.351
389.146	25.838	1082.363	841.764
390.161	25.438	1081.955	839.506
391.175	25.487	1080.113	838.230
392.190	25.869	1079.968	839.826
393.205	26.472	1078.944	841.759
394.219	26.036	1079.401	840.012
395.234	25.937	1077.682	838.140
396.248	25.777	1076.116	836.105
397.263	25.575	1075.181	834.368
398.278	25.673	1074.942	834.563
399.292	25.875	1073.045	833.950
400.307	26.209	1072.340	834.876
401.321	25.962	1072.220	833.569
402.336	25.367	1072.086	830.638
403.350	25.447	1071.385	830.392
404.365	25.758	1070.673	831.199
405.380	25.723	1069.926	830.384
406.394	25.916	1069.621	830.967
407.409	26.415	1068.672	832.451
408.423	26.380	1068.928	832.417
409.438	26.253	1068.632	831.528
410.453	26.160	1067.969	830.512
411.467	26.330	1066.433	830.025
412.482	26.260	1065.814	829.148
413.496	26.835	1064.798	830.918
414.511	26.701	1064.530	830.022
415.526	26.466	1065.071	829.294
416.540	26.437	1065.022	829.047
417.555	27.030	1062.596	829.797
418.569	26.400	1062.958	827.128
419.584	26.376	1062.108	826.284
420.599	26.605	1062.249	827.365
421.613	154.432	1403.435	1792.888
422.628	142.021	1453.181	1792.981
