DTS Sentinel unit serial number:	SN413079Multiplexer serial number:	ORYXHardware model number:	OX4-SRSoftware version number:	ORYX F/W v4.00 Oryx Data Collector v3.7.2.0data status	okinstallation	princeton_trtdifferential loss correction	single-endedforward channel	channel 2reverse channel	N/Adate	2019/09/18time	20:55:35forward acquisition time	60.00reverse acquisition time	0.00gamma	496.2192k internal	0.2341k external	0.2341temperature offset calibration	1.0037default loss term (dB/km)	0.3790temperature slope calibration	1.0000multiplexer offset coefficient	1.0000multiplexer slope coefficient	1.0000fibre end	0.00T internal ref (°C)	26.78T ext. ref 1 (°C)	1.06T ext. ref 2 (°C)	18.16length (m)	temperature (°C)	Stokes	anti-Stokes-747.200	4.691	-0.092	-0.068
-746.185	-123.245	0.135	0.022
-745.171	72.009	0.298	-0.311
-744.156	-73.646	-0.051	-0.019
-743.142	293.291	0.063	0.116
-742.127	71.228	-0.242	0.251
-741.112	-200.000	-0.012	-0.196
-740.098	-200.000	-0.069	0.396
-739.083	-152.671	0.260	0.019
-738.069	-152.723	-0.309	0.022
-737.054	-200.000	-0.030	0.136
-736.039	100.971	-0.042	-0.049
-735.025	180.427	-0.225	-0.330
-734.010	-97.664	-0.324	0.084
-732.996	5.283	0.200	-0.147
-731.981	314.418	-0.026	0.049
-730.966	-36.810	0.154	0.083
-729.952	-200.000	-0.001	-0.067
-728.937	-200.000	-0.103	-0.592
-727.923	-200.000	-0.025	-0.334
-726.908	-126.971	0.348	0.051
-725.894	-200.000	0.050	-0.242
-724.879	-200.000	-0.034	-0.202
-723.864	-6.242	-0.214	-0.147
-722.850	8.538	0.199	-0.150
-721.835	-178.402	-0.148	0.003
-720.821	126.244	-0.099	-0.126
-719.806	290.141	0.109	-0.198
-718.791	-110.433	-0.345	-0.072
-717.777	282.414	-0.133	-0.239
-716.762	-97.119	-0.218	0.057
-715.748	-116.865	-0.503	0.092
-714.733	298.242	0.152	-0.280
-713.718	267.582	-0.212	0.371
-712.704	557.073	-0.090	-0.218
-711.689	38.878	-0.136	0.121
-710.675	800.000	0.107	-0.440
-709.660	-52.608	0.357	0.165
-708.645	-200.000	-0.001	-0.023
-707.631	-101.464	-0.220	0.054
-706.616	93.293	-0.214	-0.242
-705.602	-182.193	0.148	-0.003
-704.587	-147.823	0.175	-0.015
-703.572	-38.869	0.152	0.080
-702.558	-72.670	-0.084	-0.031
-701.543	-200.000	0.042	-0.309
-700.529	72.065	0.077	0.080
-699.514	-200.000	-0.041	-0.395
-698.499	-200.000	0.075	-0.722
-697.485	-200.000	-0.000	0.102
-696.470	-91.903	-0.335	0.095
-695.456	46.868	0.188	-0.175
-694.441	46.005	-0.214	-0.199
-693.426	6.740	0.187	-0.139
-692.412	-92.385	-0.249	-0.070
-691.397	-37.621	-0.153	-0.082
-690.383	-200.000	0.002	-0.069
-689.368	-50.177	-0.065	0.031
-688.354	-185.892	-0.548	-0.008
-687.339	467.370	-0.119	0.267
-686.324	260.906	-0.132	0.228
-685.310	-91.278	-0.091	0.026
-684.295	-93.139	-0.135	0.038
-683.281	-99.805	0.262	0.066
-682.266	-47.875	-0.156	-0.075
-681.251	86.553	-0.278	-0.307
-680.237	-116.401	-0.257	0.047
-679.222	-200.000	0.015	-0.125
-678.208	-104.155	0.263	-0.061
-677.193	-137.320	0.064	-0.007
-676.178	82.910	-0.391	0.425
-675.164	800.000	-0.045	0.157
-674.149	-80.691	-0.158	0.052
-673.135	-44.779	0.159	0.079
-672.120	-58.927	-0.126	0.055
-671.105	-103.268	-0.263	0.062
-670.091	428.369	0.002	-0.005
-669.076	132.356	0.022	0.028
-668.062	129.604	-0.190	0.243
-667.047	288.803	-0.080	0.144
-666.032	273.825	0.056	-0.098
-665.018	-55.204	0.350	-0.157
-664.003	61.088	0.069	-0.069
-662.989	490.651	-0.067	-0.153
-661.974	93.126	0.146	-0.165
-660.959	316.682	0.070	0.132
-659.945	-103.649	-0.186	0.044
-658.930	-16.223	0.153	-0.097
-657.916	-2.713	0.065	0.045
-656.901	800.000	0.073	0.302
-655.886	-3.593	0.063	-0.044
-654.872	432.063	-0.071	-0.154
-653.857	-8.156	-0.364	-0.245
-652.843	25.158	0.244	0.202
-651.828	-60.217	0.339	-0.144
-650.814	-200.000	-0.052	0.416
-649.799	-5.678	-0.198	0.135
-648.784	198.964	-0.150	0.229
-647.770	25.391	-0.156	-0.129
-646.755	-115.953	0.100	-0.019
-645.741	800.000	-0.123	0.347
-644.726	183.832	-0.028	0.042
-643.711	-179.709	-0.034	-0.001
-642.697	-2.265	-0.102	-0.072
-641.682	-113.736	-0.091	-0.018
-640.668	41.089	0.104	-0.094
-639.653	411.795	-0.165	-0.349
-638.638	-200.000	-0.015	0.150
-637.624	-140.365	-0.137	0.014
-636.609	-75.635	0.187	-0.066
-635.595	-139.688	0.248	-0.026
-634.580	-200.000	-0.002	-0.154
-633.565	-135.596	0.310	-0.037
-632.551	18.745	-0.080	-0.064
-631.536	-128.942	0.333	-0.047
-630.522	-32.201	-0.264	0.147
-629.507	736.896	0.090	0.241
-628.492	105.700	0.080	0.095
-627.478	-23.634	0.184	0.110
-626.463	-200.000	-0.003	0.091
-625.449	184.579	0.048	0.070
-624.434	72.534	0.147	-0.153
-623.419	-176.399	0.012	0.000
-622.405	-200.000	0.057	-0.304
-621.390	167.516	-0.025	0.035
-620.376	-200.000	-0.011	0.204
-619.361	23.456	-0.279	0.229
-618.346	14.418	-0.091	0.071
-617.332	333.689	-0.059	0.114
-616.317	86.999	0.199	0.220
-615.303	81.823	0.025	-0.027
-614.288	-8.015	0.109	0.073
-613.273	36.170	0.268	0.235
-612.259	-65.000	0.318	0.128
-611.244	152.634	-0.119	0.162
-610.230	-149.357	0.055	-0.004
-609.215	6.715	-0.267	0.198
-608.201	14.605	0.247	-0.193
-607.186	246.566	0.251	-0.422
-606.171	30.159	-0.083	0.071
-605.157	800.000	-0.080	0.244
-604.142	328.600	0.080	-0.153
-603.128	800.000	0.056	-0.227
-602.113	-44.374	0.121	-0.060
-601.098	-93.706	0.049	0.013
-600.084	103.644	-0.116	-0.135
-599.069	419.938	0.221	-0.471
-598.055	800.000	0.017	0.073
-597.040	800.000	0.045	0.177
-596.025	-86.530	-0.195	0.060
-595.011	-102.504	-0.021	-0.005
-593.996	-10.897	0.228	0.150
-592.982	542.470	-0.134	-0.318
-591.967	-185.128	0.178	-0.003
-590.952	23.135	-0.201	0.164
-589.938	-89.875	0.390	0.113
-588.923	-200.000	0.023	0.247
-587.909	469.195	0.069	-0.154
-586.894	371.513	-0.191	-0.386
-585.879	-37.580	0.219	-0.116
-584.865	-9.125	0.323	-0.215
-583.850	-80.324	0.185	-0.061
-582.836	190.529	0.187	0.280
-581.821	-200.000	-0.010	0.076
-580.806	-54.746	-0.197	0.089
-579.792	-200.000	0.002	-0.061
-578.777	-200.000	-0.086	0.411
-577.763	-200.000	-0.025	0.142
-576.748	318.279	0.141	-0.267
-575.733	-76.982	0.232	-0.081
-574.719	26.404	0.121	-0.101
-573.704	-48.251	-0.078	-0.038
-572.690	-87.949	-0.054	-0.016
-571.675	-160.830	0.320	-0.017
-570.661	-65.448	-0.265	-0.106
-569.646	-54.932	0.185	0.083
-568.631	49.048	0.150	-0.140
-567.617	-200.000	0.003	0.156
-566.602	-176.746	0.392	0.010
-565.588	800.000	-0.047	0.175
-564.573	289.249	-0.047	-0.084
-563.558	24.053	0.212	-0.174
-562.544	-140.684	-0.251	-0.026
-561.529	511.884	0.057	-0.132
-560.515	-59.259	0.096	0.041
-559.500	-126.018	-0.103	-0.015
-558.485	-134.910	-0.308	-0.037
-557.471	0.609	-0.166	0.118
-556.456	14.313	-0.162	0.126
-555.442	22.468	0.307	-0.250
-554.427	-79.709	-0.518	-0.174
-553.412	169.128	-0.154	0.219
-552.398	-111.105	-0.138	0.028
-551.383	-200.000	0.021	0.167
-550.369	-200.000	-0.057	-0.343
-549.354	-72.744	0.256	-0.094
-548.339	-200.000	0.051	0.430
-547.325	-32.177	0.278	0.154
-546.310	32.604	0.221	0.190
-545.296	64.756	0.024	0.024
-544.281	-200.000	0.000	-0.128
-543.266	800.000	0.052	-0.212
-542.252	800.000	-0.096	-0.321
-541.237	-64.367	0.228	-0.092
-540.223	-148.973	0.335	0.027
-539.208	-125.384	0.082	0.012
-538.193	101.632	0.162	-0.187
-537.179	-70.656	0.217	-0.082
-536.164	800.000	-0.043	0.183
-535.150	128.627	-0.097	0.123
-534.135	461.834	-0.156	0.346
-533.121	800.000	0.056	-0.168
-532.106	-106.344	-0.170	0.038
-531.091	-134.053	0.134	0.017
-530.077	356.087	-0.104	-0.205
-529.062	-200.000	-0.013	-0.212
-528.048	-200.000	0.031	0.149
-527.033	-100.345	0.150	-0.037
-526.018	-101.737	0.142	0.034
-525.004	45.030	0.227	0.207
-523.989	116.493	0.158	-0.192
-522.975	74.244	0.258	0.269
-521.960	-200.000	0.012	-0.116
-520.945	-166.477	-0.305	0.013
-519.931	91.138	-0.127	-0.142
-518.916	486.367	-0.082	0.186
-517.902	142.641	-0.091	-0.120
-516.887	196.151	0.043	-0.065
-515.872	-200.000	0.013	0.386
-514.858	-200.000	0.008	0.181
-513.843	-200.000	-0.019	-0.089
-512.829	-23.594	-0.333	-0.198
-511.814	-53.822	-0.292	-0.132
-510.799	-200.000	-0.126	-0.000
-509.785	165.464	0.231	0.324
-508.770	-200.000	-0.029	-0.142
-507.756	-153.466	-0.231	0.016
-506.741	-200.000	-0.034	0.245
-505.726	-81.725	0.330	0.108
-504.712	-200.000	-0.028	-0.167
-503.697	209.911	0.075	0.117
-502.683	80.304	0.071	-0.076
-501.668	115.494	0.126	-0.153
-500.653	234.175	-0.246	0.402
-499.639	800.000	-0.099	-0.308
-498.624	-146.296	-0.335	-0.029
-497.610	-54.719	-0.059	0.027
-496.595	711.648	0.142	0.372
-495.581	-179.441	-0.122	-0.003
-494.566	230.171	-0.020	0.033
-493.551	99.896	-0.229	0.264
-492.537	-57.893	0.263	-0.114
-491.522	-40.653	0.161	0.083
-490.508	154.560	-0.143	-0.195
-489.493	708.872	0.089	-0.234
-488.478	122.062	-0.141	-0.175
-487.464	-111.642	-0.363	0.073
-486.449	-99.187	-0.316	0.079
-485.435	-200.000	0.022	-0.202
-484.420	-200.000	0.040	-0.236
-483.405	-178.379	0.346	-0.008
-482.391	-200.000	0.013	0.554
-481.376	-200.000	-0.011	0.287
-480.362	-200.000	0.011	-0.065
-479.347	-200.000	-0.031	-0.144
-478.332	-143.212	0.226	-0.022
-477.318	207.361	-0.039	-0.061
-476.303	-200.000	0.010	0.181
-475.289	174.767	-0.093	-0.133
-474.274	53.606	-0.103	-0.098
-473.259	-83.786	-0.366	0.116
-472.245	-37.682	0.205	0.108
-471.230	-200.000	0.011	-0.081
-470.216	35.915	0.077	-0.067
-469.201	58.831	-0.170	-0.166
-468.186	-60.504	0.086	0.036
-467.172	94.834	0.101	0.114
-466.157	94.352	-0.207	-0.233
-465.143	-151.045	0.248	-0.019
-464.128	116.996	-0.066	0.080
-463.113	68.268	-0.085	0.087
-462.099	-98.066	-0.181	-0.046
-461.084	285.203	0.110	0.196
-460.070	285.032	-0.157	0.281
-459.055	-131.187	-0.055	-0.007
-458.040	-139.776	0.372	-0.039
-457.026	-118.412	-0.337	0.059
-456.011	73.381	0.062	0.065
-454.997	201.573	0.103	-0.157
-453.982	261.983	-0.019	0.033
-452.968	253.668	0.044	-0.075
-451.953	-162.970	0.147	-0.007
-450.938	-123.106	-0.057	0.009
-449.924	-200.000	0.029	0.197
-448.909	-85.810	0.155	0.048
-447.895	-167.878	0.204	-0.008
-446.880	46.919	0.202	0.186
-445.865	-19.122	0.081	-0.050
-444.851	314.330	-0.106	0.198
-443.836	-25.136	-0.172	-0.101
-442.822	437.103	0.047	-0.102
-441.807	-200.000	0.006	0.274
-440.792	1.733	0.123	-0.087
-439.778	119.132	-0.079	0.096
-438.763	-146.053	-0.173	-0.015
-437.749	333.586	-0.043	-0.083
-436.734	290.880	-0.155	-0.278
-435.719	43.264	0.392	0.355
-434.705	140.980	0.138	-0.181
-433.690	299.015	0.167	0.305
-432.676	-200.000	-0.053	-0.296
-431.661	204.554	0.141	-0.217
-430.646	112.364	-0.276	-0.331
-429.632	166.636	-0.033	-0.047
-428.617	-159.960	0.343	0.019
-427.603	95.596	0.150	-0.170
-426.588	-83.056	0.144	0.046
-425.573	46.873	-0.101	-0.093
-424.559	206.502	0.154	-0.238
-423.544	72.012	-0.221	-0.228
-422.530	-200.000	0.005	0.221
-421.515	800.000	0.098	0.276
-420.500	-200.000	0.036	-0.371
-419.486	-62.963	0.209	-0.086
-418.471	752.620	0.062	0.166
-417.457	41.166	0.251	0.225
-416.442	57.156	0.301	-0.290
-415.428	-8.567	-0.234	0.155
-414.413	-77.711	-0.175	-0.060
-413.398	-200.000	0.001	0.054
-412.384	-116.578	0.305	0.056
-411.369	800.000	0.060	0.222
-410.355	-200.000	-0.091	-0.469
-409.340	-115.175	-0.224	0.042
-408.325	-27.775	-0.061	-0.035
-407.311	-200.000	0.031	-0.365
-406.296	80.580	0.225	0.239
-405.282	800.000	-0.116	-0.375
-404.267	75.360	-0.173	-0.181
-403.252	-200.000	-0.009	-0.253
-402.238	800.000	0.106	-0.320
-401.223	226.884	-0.067	-0.107
-400.209	45.752	-0.197	0.180
-399.194	-200.000	0.033	-0.157
-398.179	-5.669	-0.325	-0.220
-397.165	-34.970	-0.319	0.172
-396.150	59.374	-0.155	0.151
-395.136	-1.604	0.161	0.112
-394.121	-63.539	-0.222	0.090
-393.106	-48.945	-0.120	-0.057
-392.092	70.053	0.171	-0.174
-391.077	-184.023	0.051	-0.001
-390.063	-187.375	0.032	-0.000
-389.048	215.856	-0.138	0.217
-388.033	-7.706	-0.159	0.106
-387.019	36.960	0.093	-0.082
-386.004	-7.710	0.152	-0.102
-384.990	800.000	0.072	-0.289
-383.975	-82.156	0.091	0.029
-382.960	-107.770	0.116	-0.025
-381.946	-200.000	0.068	-0.350
-380.931	91.786	-0.175	0.194
-379.917	-200.000	-0.032	-0.191
-378.902	441.815	0.114	0.246
-377.888	-31.970	-0.293	0.162
-376.873	-200.000	-0.001	0.052
-375.858	-183.834	-0.372	-0.006
-374.844	99.558	0.098	-0.112
-373.829	-5.258	-0.071	0.048
-372.815	150.650	0.084	0.113
-371.800	159.113	0.102	-0.140
-370.785	-59.906	-0.149	-0.063
-369.771	-98.311	0.056	-0.014
-368.756	-105.338	-0.035	0.008
-367.742	-103.981	-0.088	0.020
-366.727	-152.373	-0.191	-0.014
-365.712	310.328	-0.151	-0.280
-364.698	-125.476	-0.224	0.034
-363.683	-91.423	0.416	-0.117
-362.669	-200.000	-0.002	-0.124
-361.654	249.588	-0.208	0.349
-360.639	-147.929	0.090	-0.007
-359.625	-29.977	0.208	-0.117
-358.610	-200.000	0.002	-0.422
-357.596	-200.000	-0.005	-0.119
-356.581	132.998	-0.129	0.164
-355.566	26.808	0.181	-0.149
-354.552	-110.945	-0.319	0.065
-353.537	48.686	-0.142	0.131
-352.523	800.000	0.055	0.195
-351.508	-43.386	0.249	-0.124
-350.493	33.014	0.053	-0.046
-349.479	297.179	-0.114	0.207
-348.464	105.778	0.015	-0.017
-347.450	800.000	0.025	0.068
-346.435	-105.546	0.104	0.023
-345.420	-21.381	-0.085	-0.051
-344.406	-117.741	-0.103	-0.018
-343.391	26.557	-0.318	0.262
-342.377	800.000	-0.033	-0.106
-341.362	516.795	-0.107	-0.246
-340.348	-37.495	0.344	0.181
-339.333	123.081	-0.116	-0.144
-338.318	-200.000	-0.027	-0.126
-337.304	215.262	0.233	0.364
-336.289	-92.728	0.009	0.003
-335.275	126.431	-0.122	-0.153
-334.260	-163.088	-0.297	0.014
-333.245	38.170	0.249	0.219
-332.231	140.549	0.140	0.182
-331.216	-200.000	0.022	-0.249
-330.202	-14.209	-0.165	0.105
-329.187	-200.000	0.001	0.180
-328.172	13.272	-0.220	-0.168
-327.158	53.006	0.004	0.004
-326.143	-83.026	-0.288	-0.091
-325.129	-22.251	-0.243	0.145
-324.114	-200.000	-0.031	0.324
-323.099	127.692	0.202	0.253
-322.085	92.265	-0.166	0.185
-321.070	160.346	0.063	-0.087
-320.056	197.791	-0.214	-0.323
-319.041	42.875	0.020	-0.018
-318.026	800.000	0.032	0.134
-317.012	-90.571	-0.345	-0.098
-315.997	-67.008	0.104	0.041
-314.983	800.000	0.026	0.108
-313.968	-99.701	0.103	-0.025
-312.953	-16.632	-0.270	0.168
-311.939	-66.542	0.169	-0.066
-310.924	111.465	-0.142	-0.168
-309.910	800.000	0.027	0.103
-308.895	-26.871	0.240	-0.138
-307.880	115.754	-0.117	-0.141
-306.866	78.170	0.056	0.059
-305.851	800.000	0.063	-0.248
-304.837	-200.000	-0.010	0.133
-303.822	-134.871	-0.109	0.013
-302.807	-128.595	0.111	0.015
-301.793	20.864	-0.256	0.205
-300.778	800.000	-0.087	-0.301
-299.764	443.075	0.070	0.151
-298.749	-200.000	-0.012	-0.054
-297.735	294.962	-0.093	0.168
-296.720	-39.367	-0.093	0.048
-295.705	383.687	0.148	-0.301
-294.691	-200.000	0.093	0.416
-293.676	-200.000	0.018	0.161
-292.662	-127.506	0.132	-0.019
-291.647	342.974	-0.122	0.235
-290.632	-98.831	-0.201	0.050
-289.618	-114.962	0.262	0.049
-288.603	-63.444	0.157	-0.064
-287.589	252.106	-0.153	-0.257
-286.574	-153.073	0.289	-0.020
-285.559	-77.495	0.123	-0.042
-284.545	-81.345	0.142	0.046
-283.530	-16.263	0.371	0.232
-282.516	-68.511	-0.344	0.131
-281.501	483.965	-0.113	0.254
-280.486	677.853	-0.015	0.038
-279.472	1.000	0.183	0.129
-278.457	133.474	-0.078	-0.099
-277.443	41.042	-0.261	0.232
-276.428	-46.785	-0.161	0.077
-275.413	532.650	-0.118	-0.275
-274.399	-43.421	0.207	-0.103
-273.384	-200.000	0.000	0.318
-272.370	3.922	0.280	0.201
-271.355	74.591	0.143	0.148
-270.340	60.133	0.037	-0.036
-269.326	109.170	0.130	-0.154
-268.311	-89.873	0.165	-0.047
-267.297	116.324	0.117	-0.141
-266.282	601.536	-0.208	0.507
-265.267	-37.594	0.075	-0.039
-264.253	207.059	-0.230	0.352
-263.238	-150.047	-0.105	0.008
-262.224	-134.302	-0.130	-0.016
-261.209	-142.452	0.209	0.020
-260.195	800.000	0.076	-0.299
-259.180	-6.691	-0.128	-0.086
-258.165	-161.962	-0.487	0.024
-257.151	-200.000	-0.034	0.239
-256.136	-38.292	0.317	-0.165
-255.122	6.930	0.220	-0.161
-254.107	-200.000	-0.302	-0.001
-253.092	357.374	0.098	-0.193
-252.078	6.416	-0.246	-0.179
-251.063	93.361	0.084	-0.094
-250.049	72.761	0.184	0.189
-249.034	515.583	-0.155	-0.355
-248.019	-200.000	0.043	0.385
-247.005	-157.695	-0.366	0.021
-245.990	-200.000	0.003	-0.211
-244.976	-164.208	0.172	-0.008
-243.961	-22.725	0.301	0.179
-242.946	-136.659	-0.277	0.031
-241.932	800.000	0.096	0.277
-240.917	800.000	-0.060	-0.252
-239.903	359.531	-0.083	0.163
-238.888	-93.440	-0.543	-0.148
-237.873	-200.000	0.016	0.195
-236.859	-39.751	-0.303	0.155
-235.844	-143.394	0.347	-0.033
-234.830	-116.076	-0.039	-0.007
-233.815	14.037	0.225	0.172
-232.800	-200.000	-0.036	-0.331
-231.786	-69.729	0.256	-0.096
-230.771	-115.499	-0.134	0.025
-229.757	-86.535	-0.070	-0.021
-228.742	-200.000	-0.016	-0.081
-227.727	55.292	0.085	0.080
-226.713	800.000	0.064	-0.195
-225.698	-120.532	0.114	-0.019
-224.684	-15.107	0.185	-0.117
-223.669	17.799	0.054	0.042
-222.655	-200.000	0.041	0.271
-221.640	204.511	0.159	0.242
-220.625	-9.355	-0.296	-0.194
-219.611	-200.000	-0.104	-0.510
-218.596	56.378	-0.264	-0.252
-217.582	408.876	-0.084	-0.175
-216.567	-200.000	-0.029	0.143
-215.552	78.453	-0.179	0.188
-214.538	800.000	0.149	0.463
-213.523	23.583	-0.077	0.062
-212.509	800.000	-0.076	-0.292
-211.494	-200.000	0.059	-0.280
-210.479	-113.571	-0.258	0.049
-209.465	-17.100	-0.061	-0.038
-208.450	-159.692	-0.250	0.014
-207.436	-25.799	0.455	0.263
-206.421	-56.250	-0.372	-0.162
-205.406	420.378	0.079	0.167
-204.392	-145.039	-0.167	-0.015
-203.377	-44.981	0.141	-0.069
-202.363	411.522	-0.187	0.389
-201.348	800.000	-0.046	0.152
-200.333	278.525	0.242	-0.423
-199.319	-200.000	-0.030	-0.290
-198.304	-81.175	-0.152	-0.049
-197.290	273.993	-0.062	-0.108
-196.275	-101.261	0.254	-0.061
-195.260	357.185	-0.200	0.392
-194.246	-58.795	0.223	0.095
-193.231	-8.572	0.032	0.021
-192.217	-9.206	0.025	-0.017
-191.202	-143.860	0.208	0.019
-190.187	10.540	-0.072	0.054
-189.173	176.200	-0.144	0.206
-188.158	-119.390	-0.116	-0.020
-187.144	-35.556	-0.215	-0.115
-186.129	9.923	0.178	0.132
-185.114	28.149	0.173	0.143
-184.100	-65.681	-0.210	-0.083
-183.085	800.000	-0.061	0.209
-182.071	-95.650	0.134	-0.035
-181.056	316.377	0.024	-0.045
-180.042	308.204	-0.087	0.159
-179.027	800.000	0.060	0.232
-178.012	25.304	-0.197	0.160
-176.998	-200.000	-0.029	-0.400
-175.983	558.488	-0.045	0.107
-174.969	-89.605	0.036	0.010
-173.954	16.040	-0.216	0.167
-172.939	276.638	-0.123	0.214
-171.925	-20.748	0.337	-0.203
-170.910	13.788	-0.050	-0.038
-169.896	-36.083	-0.179	-0.095
-168.881	-154.101	0.294	-0.020
-167.866	-4.664	0.249	-0.169
-166.852	-200.000	-0.011	0.065
-165.837	16.025	-0.189	-0.146
-164.823	800.000	-0.039	-0.159
-163.808	24.687	0.073	0.059
-162.793	-136.291	-0.211	-0.024
-161.779	-95.218	-0.323	-0.085
-160.764	-200.000	0.008	-0.104
-159.750	12.940	0.105	-0.080
-158.735	6.308	0.276	0.200
-157.720	21.117	-0.214	-0.170
-156.706	800.000	0.043	0.143
-155.691	-200.000	-0.053	-0.303
-154.677	-200.000	0.008	-0.081
-153.662	24.891	0.208	-0.169
-152.647	198.800	0.144	-0.215
-151.633	125.621	-0.178	-0.220
-150.618	178.975	-0.108	0.155
-149.604	180.363	0.077	-0.111
-148.589	-7.598	-0.128	-0.085
-147.574	406.799	0.055	-0.113
-146.560	-200.000	-0.047	-0.285
-145.545	91.203	-0.146	-0.161
-144.531	-200.000	-0.224	0.001
-143.516	-200.000	0.012	-0.253
-142.502	-99.843	-0.213	-0.052
-141.487	-93.848	-0.144	-0.039
-140.472	-88.126	-0.313	-0.092
-139.458	800.000	-0.025	0.079
-138.443	-200.000	-0.044	0.227
-137.429	-133.045	0.174	-0.022
-136.414	-19.807	-0.196	-0.119
-135.399	47.173	0.302	0.275
-134.385	-99.464	-0.159	0.039
-133.370	-120.971	0.143	0.023
-132.356	-118.588	-0.403	-0.070
-131.341	-165.822	0.280	0.012
-130.326	39.228	0.196	-0.172
-129.312	800.000	0.098	-0.333
-128.297	121.178	0.155	0.188
-127.283	-52.948	-0.115	-0.052
-126.268	324.627	0.030	0.056
-125.253	206.633	0.131	-0.200
-124.239	147.804	0.101	-0.133
-123.224	25.623	-0.121	0.099
-122.210	-200.000	-0.040	0.249
-121.195	96.258	-0.061	-0.068
-120.180	-52.371	0.169	-0.077
-119.166	-72.431	0.199	0.072
-118.151	-200.000	-0.012	-0.161
-117.137	111.287	0.223	-0.263
-116.122	-62.060	-0.125	-0.051
-115.107	264.052	0.149	0.254
-114.093	-0.675	0.261	0.181
-113.078	108.919	-0.243	-0.284
-112.064	-80.929	0.120	0.039
-111.049	41.601	0.026	-0.023
-110.034	800.000	-0.128	0.371
-109.020	-55.574	0.199	0.087
-108.005	596.336	0.110	-0.266
-106.991	107.095	-0.181	-0.211
-105.976	85.340	-0.239	-0.257
-104.962	47.468	0.236	0.215
-103.947	-200.000	-0.049	0.343
-102.932	-200.000	-0.056	0.278
-101.918	310.633	-0.045	0.082
-100.903	50.986	-0.181	0.168
-99.889	-200.000	-0.006	0.171
-98.874	-95.277	0.116	-0.030
-97.859	159.787	0.028	0.038
-96.845	216.382	-0.116	0.181
-95.830	191.085	-0.183	-0.270
-94.816	-57.711	0.321	-0.137
-93.801	247.091	-0.122	0.202
-92.786	-61.178	0.353	0.145
-91.772	609.465	-0.058	-0.143
-90.757	800.000	-0.027	-0.096
-89.743	-64.252	0.231	0.092
-88.728	800.000	0.089	0.259
-87.713	89.670	0.165	0.180
-86.699	566.685	-0.147	-0.348
-85.684	800.000	-0.046	0.130
-84.670	-200.000	0.000	-0.359
-83.655	800.000	0.025	-0.104
-82.640	800.000	-0.017	0.068
-81.626	-200.000	-0.006	-0.184
-80.611	-64.966	-0.099	-0.039
-79.597	800.000	-0.043	0.121
-78.582	57.640	-0.074	0.071
-77.567	698.192	-0.030	0.076
-76.553	-7.263	-0.227	-0.150
-75.538	-200.000	-0.052	0.303
-74.524	150.711	0.061	0.080
-73.509	-200.000	-0.028	0.208
-72.494	800.000	-0.028	0.103
-71.480	128.991	-0.063	0.078
-70.465	68.577	-0.192	-0.192
-69.451	-200.000	0.030	0.340
-68.436	-88.382	0.206	0.060
-67.422	632.035	-0.043	0.105
-66.407	800.000	0.153	-0.519
-65.392	0.681	-0.260	-0.181
-64.378	-200.000	0.022	-0.140
-63.363	56.013	0.251	-0.237
-62.349	800.000	0.023	0.082
-61.334	130.661	-1.088	-1.361
-60.319	144.961	0.512	0.668
-59.305	724.248	-0.479	-1.244
-58.290	398.057	0.650	1.326
-57.276	800.000	0.544	1.513
-56.261	-200.000	115.187	623.658
-55.246	440.891	1500.318	3200.655
-54.232	149.991	2669.399	3531.538
-53.217	92.794	2266.917	2496.691
-52.203	35.253	1883.825	1610.933
-51.188	29.913	1680.333	1396.694
-50.173	27.569	1639.412	1345.348
-49.159	46.449	1699.713	1537.590
-48.144	45.258	1713.368	1540.903
-47.130	29.337	1669.044	1382.778
-46.115	26.865	1653.832	1351.725
-45.100	26.661	1649.196	1346.367
-44.086	26.673	1646.549	1344.236
-43.071	26.595	1644.194	1341.687
-42.057	26.593	1641.979	1339.810
-41.042	26.656	1639.860	1338.488
-40.027	26.685	1637.673	1336.870
-39.013	26.625	1635.951	1334.967
-37.998	26.621	1634.780	1333.927
-36.984	26.660	1633.302	1332.957
-35.969	26.737	1631.334	1331.862
-34.954	26.840	1629.664	1331.200
-33.940	26.688	1628.647	1329.207
-32.925	26.730	1626.353	1327.587
-31.911	26.784	1624.409	1326.340
-30.896	26.722	1623.105	1324.774
-29.881	26.682	1621.526	1323.138
-28.867	26.803	1619.767	1322.535
-27.852	26.809	1618.593	1321.569
-26.838	26.800	1617.226	1320.330
-25.823	26.758	1616.144	1319.095
-24.809	26.880	1614.375	1318.484
-23.794	26.737	1613.738	1316.870
-22.779	26.768	1611.912	1315.552
-21.765	26.710	1610.377	1313.831
-20.750	26.841	1608.266	1313.000
-19.736	26.791	1607.386	1311.867
-18.721	26.855	1606.130	1311.258
-17.706	26.859	1603.976	1309.472
-16.692	26.818	1603.001	1308.329
-15.677	26.795	1601.611	1306.976
-14.663	26.832	1600.239	1306.074
-13.648	26.887	1598.668	1305.133
-12.633	26.853	1597.214	1303.654
-11.619	26.832	1595.764	1302.263
-10.604	26.911	1594.023	1301.358
-9.590	26.834	1593.232	1300.110
-8.575	26.784	1591.964	1298.665
-7.560	26.841	1590.663	1297.961
-6.546	26.830	1589.499	1296.882
-5.531	26.888	1588.171	1296.157
-4.517	26.789	1587.381	1294.755
-3.502	26.858	1585.644	1293.779
-2.487	26.828	1584.105	1292.261
-1.473	26.235	1572.037	1278.172
-0.458	22.461	1550.905	1234.539
0.556	17.340	1550.873	1195.873
1.571	14.494	1572.650	1192.238
2.586	13.902	1583.881	1196.383
3.600	12.807	1531.324	1148.952
4.615	7.626	1427.704	1037.353
5.629	2.213	1369.332	960.884
6.644	1.161	1361.629	948.815
7.659	1.039	1360.859	947.436
8.673	1.062	1360.074	946.947
9.688	0.987	1357.662	944.718
10.702	0.846	1354.582	941.612
11.717	3.456	1357.668	959.938
12.731	10.078	1367.633	1008.318
13.746	15.854	1376.334	1050.799
14.761	17.587	1377.600	1062.490
15.775	17.032	1376.368	1057.984
16.790	16.117	1373.247	1049.801
17.804	15.223	1371.311	1042.668
18.819	14.931	1370.014	1039.774
19.834	14.656	1368.414	1036.762
20.848	14.441	1367.050	1034.299
21.863	14.275	1365.694	1032.155
22.877	13.982	1364.915	1029.656
23.892	13.959	1363.735	1028.537
24.907	13.940	1363.172	1027.898
25.921	13.999	1362.215	1027.452
26.936	14.051	1361.230	1026.939
27.950	13.957	1360.412	1025.649
28.965	14.080	1359.239	1025.437
29.980	14.078	1358.225	1024.567
30.994	14.165	1357.499	1024.467
32.009	14.179	1356.376	1023.614
33.023	14.284	1355.537	1023.538
34.038	14.273	1353.802	1022.066
35.053	14.090	1353.360	1020.517
36.067	14.137	1352.093	1019.763
37.082	14.072	1351.087	1018.513
38.096	14.125	1350.401	1018.232
39.111	14.125	1349.479	1017.447
40.126	13.992	1348.680	1015.943
41.140	14.029	1347.841	1015.444
42.155	13.846	1347.734	1014.154
43.169	13.955	1347.512	1014.564
44.184	13.984	1346.760	1014.089
45.199	14.018	1346.258	1013.827
46.213	14.054	1345.659	1013.509
47.228	14.037	1344.966	1012.792
48.242	14.063	1343.761	1011.954
49.257	14.042	1342.226	1010.580
50.271	14.085	1340.842	1009.708
51.286	14.121	1339.629	1008.926
52.301	14.070	1338.334	1007.548
53.315	14.023	1337.268	1006.376
54.330	13.953	1336.501	1005.286
55.344	13.957	1335.371	1004.367
56.359	14.045	1333.825	1003.649
57.374	14.084	1333.004	1003.178
58.388	13.957	1332.025	1001.587
59.403	13.936	1331.907	1001.284
60.417	13.935	1331.031	1000.527
61.432	14.008	1329.807	999.962
62.447	13.845	1329.430	998.605
63.461	13.960	1328.162	998.257
64.476	13.956	1326.819	997.137
65.490	13.882	1325.717	995.777
66.505	13.931	1324.160	994.814
67.520	13.886	1323.442	993.914
68.534	14.033	1321.641	993.351
69.549	13.985	1320.992	992.491
70.563	13.902	1319.824	991.032
71.578	13.959	1318.578	990.348
72.593	13.875	1318.276	989.534
73.607	13.769	1317.190	987.998
74.622	13.836	1316.732	987.967
75.636	13.800	1315.457	986.706
76.651	13.881	1314.800	986.607
77.666	13.813	1314.102	985.594
78.680	13.888	1313.780	985.710
79.695	13.857	1312.923	984.797
80.709	13.858	1312.013	984.034
81.724	13.874	1311.011	983.290
82.739	13.985	1310.095	983.169
83.753	14.067	1308.908	982.677
84.768	14.117	1308.237	982.384
85.782	14.059	1307.275	981.233
86.797	14.144	1305.719	980.479
87.812	13.940	1304.540	978.303
88.826	13.997	1303.500	977.776
89.841	13.991	1302.469	976.878
90.855	14.017	1301.640	976.324
91.870	14.076	1300.528	975.751
92.884	14.099	1299.462	974.996
93.899	14.123	1299.170	974.832
94.914	14.186	1298.157	974.359
95.928	14.225	1297.420	973.945
96.943	14.018	1296.773	972.163
97.957	14.026	1295.431	971.116
98.972	14.165	1294.470	971.119
99.987	14.186	1293.099	970.127
101.001	14.155	1292.438	969.366
102.016	14.062	1291.651	968.151
103.030	14.043	1290.744	967.271
104.045	14.154	1289.736	967.080
105.060	14.141	1288.606	966.067
106.074	13.992	1287.409	964.225
107.089	13.985	1286.239	963.221
108.103	13.989	1284.951	962.196
109.118	14.115	1283.133	961.476
110.133	13.920	1282.508	959.792
111.147	14.001	1281.154	959.164
112.162	13.996	1279.537	957.842
113.176	14.108	1278.518	957.640
114.191	14.071	1278.039	956.980
115.206	13.969	1276.806	955.386
116.220	13.930	1275.712	954.259
117.235	14.036	1273.922	953.446
118.249	14.004	1273.630	952.958
119.264	13.989	1271.970	951.546
120.279	14.053	1270.940	951.058
121.293	14.111	1269.673	950.356
122.308	14.027	1268.769	949.115
123.322	14.007	1267.787	948.185
124.337	13.897	1267.224	947.049
125.352	13.996	1266.112	946.698
126.366	13.970	1264.532	945.285
127.381	13.946	1263.364	944.191
128.395	13.949	1262.227	943.277
129.410	14.023	1261.380	942.983
130.424	14.034	1260.513	942.309
131.439	13.998	1259.835	941.516
132.454	14.052	1258.757	940.933
133.468	14.064	1257.646	940.089
134.483	14.017	1256.785	939.099
135.497	14.060	1255.979	938.655
136.512	13.991	1254.760	937.271
137.527	13.993	1253.289	936.098
138.541	14.094	1251.608	935.328
139.556	14.025	1250.574	934.087
140.570	13.995	1249.718	933.195
141.585	14.093	1247.897	932.306
142.600	14.223	1246.590	931.970
143.614	14.236	1246.128	931.616
144.629	14.179	1245.458	930.716
145.643	14.279	1243.902	930.026
146.658	14.204	1242.835	928.730
147.673	14.134	1241.323	927.129
148.687	14.016	1240.139	925.504
149.702	14.214	1238.376	925.206
150.716	14.076	1237.823	923.946
151.731	14.229	1236.227	923.525
152.746	14.138	1235.411	922.327
153.760	14.190	1234.383	921.766
154.775	14.258	1233.127	921.122
155.789	14.281	1232.408	920.632
156.804	14.331	1230.990	919.767
157.819	14.409	1230.044	919.408
158.833	14.356	1229.231	918.428
159.848	14.277	1228.696	917.511
160.862	14.352	1227.244	916.757
161.877	14.290	1226.212	915.568
162.892	14.306	1224.988	914.659
163.906	14.210	1224.213	913.470
164.921	14.314	1223.152	913.167
165.935	14.313	1222.369	912.496
166.950	14.378	1221.462	912.097
167.964	14.272	1220.944	911.048
168.979	14.336	1220.307	910.841
169.994	14.352	1219.565	910.297
171.008	14.407	1218.383	909.632
172.023	14.437	1217.835	909.308
173.037	14.513	1216.591	908.715
174.052	14.494	1215.894	908.009
175.067	14.619	1214.579	907.624
176.081	14.452	1213.779	906.041
177.096	14.395	1213.286	905.283
178.110	14.576	1212.144	905.331
179.125	14.404	1211.440	903.793
180.140	14.445	1209.630	902.587
181.154	14.506	1208.252	901.808
182.169	14.611	1207.165	901.485
183.183	14.621	1205.603	900.290
184.198	14.584	1204.933	899.512
185.213	14.593	1203.889	898.702
186.227	14.651	1202.738	898.076
187.242	14.615	1201.727	897.045
188.256	14.663	1201.136	896.785
189.271	14.691	1200.101	896.081
190.286	14.695	1199.027	895.221
191.300	14.615	1198.320	894.189
192.315	14.455	1198.070	893.064
193.329	14.547	1197.304	892.906
194.344	14.561	1196.638	892.404
195.359	14.638	1195.600	891.965
196.373	14.676	1195.006	891.645
197.388	14.660	1194.544	891.134
198.402	14.718	1194.153	891.074
199.417	14.738	1193.399	890.541
200.432	14.818	1192.551	890.257
201.446	14.792	1192.037	889.656
202.461	14.787	1191.201	888.923
203.475	14.975	1189.832	888.823
204.490	14.955	1188.684	887.777
205.504	14.865	1187.391	886.261
206.519	14.822	1186.280	885.124
207.534	14.847	1185.171	884.352
208.548	14.824	1184.161	883.397
209.563	14.854	1183.483	882.970
210.577	14.869	1182.551	882.277
211.592	14.935	1181.968	882.112
212.607	15.033	1180.581	881.515
213.621	15.034	1179.718	880.798
214.636	14.958	1178.899	879.710
215.650	14.986	1178.058	879.149
216.665	15.008	1177.256	878.587
217.680	14.994	1176.471	877.852
218.694	15.020	1175.648	877.298
219.709	14.995	1174.599	876.306
220.723	15.095	1174.475	876.661
221.738	15.125	1173.259	875.829
222.753	15.054	1172.677	874.947
223.767	15.125	1171.869	874.640
224.782	15.238	1170.901	874.427
225.796	15.218	1170.429	873.893
226.811	15.182	1170.127	873.402
227.826	15.153	1169.361	872.602
228.840	15.148	1168.534	871.886
229.855	15.231	1167.837	871.719
230.869	15.207	1166.841	870.771
231.884	15.199	1166.020	870.041
232.899	15.214	1164.891	869.199
233.913	15.249	1164.423	868.956
234.928	15.121	1164.062	867.944
235.942	15.078	1163.396	867.150
236.957	15.086	1162.357	866.340
237.972	15.192	1161.500	866.174
238.986	15.300	1160.779	866.117
240.001	15.321	1160.064	865.612
241.015	15.158	1159.625	864.370
242.030	15.332	1158.415	864.287
243.045	15.312	1157.643	863.533
244.059	15.394	1156.909	863.329
245.074	15.283	1156.095	862.077
246.088	15.395	1155.207	861.914
247.103	15.460	1154.460	861.613
248.117	15.368	1154.360	860.989
249.132	15.546	1152.967	860.789
250.147	15.503	1152.434	860.089
251.161	15.461	1151.438	859.059
252.176	15.492	1151.024	858.833
253.190	15.589	1150.675	858.991
254.205	15.507	1150.585	858.427
255.220	15.648	1149.421	858.203
256.234	15.672	1148.591	857.633
257.249	15.769	1147.686	857.372
258.263	15.713	1147.199	856.647
259.278	15.621	1146.685	855.721
260.293	15.722	1146.310	855.881
261.307	15.753	1145.279	855.192
262.322	15.672	1145.232	854.669
263.336	15.752	1144.092	854.147
264.351	15.714	1143.482	853.427
265.366	15.843	1142.806	853.496
266.380	15.830	1141.920	852.694
267.395	15.775	1141.298	851.876
268.409	16.050	1140.143	852.330
269.424	15.797	1140.379	851.154
270.439	15.819	1139.741	850.713
271.453	15.866	1138.878	850.231
272.468	15.777	1138.035	849.076
273.482	15.880	1137.197	848.896
274.497	15.816	1136.609	848.057
275.512	15.792	1135.947	847.367
276.526	15.829	1135.333	847.022
277.541	15.925	1134.495	846.806
278.555	15.893	1133.931	846.149
279.570	16.008	1133.048	845.991
280.585	16.042	1131.892	845.223
281.599	16.021	1131.264	844.574
282.614	15.987	1130.160	843.504
283.628	16.123	1128.894	843.166
284.643	16.085	1128.055	842.276
285.657	16.065	1127.631	841.784
286.672	16.085	1126.631	841.064
287.687	16.144	1125.526	840.456
288.701	16.155	1124.904	839.973
289.716	16.128	1124.315	839.327
290.730	16.165	1123.640	838.933
291.745	16.181	1122.926	838.401
292.760	16.204	1122.134	837.850
293.774	16.199	1121.419	837.217
294.789	16.280	1121.073	837.289
295.803	16.306	1120.495	836.911
296.818	16.231	1119.788	835.939
297.833	16.248	1118.602	835.063
298.847	16.285	1118.067	834.770
299.862	16.259	1117.528	834.167
300.876	16.299	1116.503	833.527
301.891	16.235	1115.980	832.748
302.906	16.316	1115.237	832.516
303.920	16.412	1114.388	832.283
304.935	16.419	1114.004	831.958
305.949	16.506	1113.390	831.850
306.964	16.496	1112.925	831.384
307.979	16.578	1111.574	830.702
308.993	16.451	1111.258	829.768
310.008	16.520	1110.293	829.314
311.022	16.535	1109.640	828.826
312.037	16.500	1108.829	827.976
313.052	16.526	1107.774	827.242
314.066	16.536	1106.892	826.560
315.081	16.455	1106.337	825.677
316.095	16.407	1105.952	825.083
317.110	16.526	1104.570	824.558
318.125	16.527	1103.868	823.965
319.139	16.532	1103.287	823.483
320.154	16.478	1102.765	822.756
321.168	16.622	1101.891	822.734
322.183	16.595	1101.516	822.247
323.197	16.558	1101.064	821.660
324.212	16.630	1100.089	821.209
325.227	16.652	1099.819	821.041
326.241	16.614	1099.365	820.447
327.256	16.577	1098.313	819.406
328.270	16.617	1097.259	818.742
329.285	16.615	1096.523	818.110
330.300	16.680	1095.459	817.557
331.314	16.676	1094.726	816.918
332.329	16.601	1093.904	815.871
333.343	16.741	1092.912	815.735
334.358	16.823	1091.565	815.051
335.373	16.670	1091.247	814.005
336.387	16.727	1090.401	813.575
337.402	16.869	1089.606	813.595
338.416	16.881	1089.011	813.135
339.431	16.781	1088.787	812.414
340.446	16.850	1087.987	812.078
341.460	16.836	1087.407	811.507
342.475	16.954	1086.621	811.415
343.489	16.967	1085.589	810.630
344.504	16.996	1084.682	810.020
345.519	17.007	1083.687	809.258
346.533	17.015	1083.422	809.028
347.548	17.033	1082.415	808.290
348.562	17.088	1081.440	807.755
349.577	17.055	1081.067	807.245
350.592	17.072	1079.886	806.373
351.606	17.008	1079.593	805.780
352.621	17.041	1078.977	805.404
353.635	16.991	1078.245	804.550
354.650	17.099	1077.354	804.324
355.665	17.006	1076.955	803.517
356.679	17.143	1075.954	803.347
357.694	17.013	1075.744	802.505
358.708	17.154	1074.984	802.534
359.723	17.163	1074.036	801.794
360.738	17.093	1073.645	801.105
361.752	17.164	1073.143	800.993
362.767	17.158	1072.980	800.773
363.781	17.203	1072.151	800.295
364.796	17.288	1071.536	800.163
365.810	17.258	1070.848	799.440
366.825	17.313	1070.204	799.142
367.840	17.393	1069.843	799.181
368.854	17.374	1068.996	798.386
369.869	17.381	1068.066	797.655
370.883	17.401	1067.303	797.111
371.898	17.335	1066.776	796.336
372.913	17.331	1066.211	795.824
373.927	17.405	1065.968	795.920
374.942	17.388	1065.231	795.219
375.956	17.437	1064.890	795.125
376.971	17.591	1063.780	794.944
377.986	17.604	1063.018	794.364
379.000	17.466	1063.311	793.867
380.015	17.538	1062.529	793.548
381.029	17.653	1061.620	793.337
382.044	17.649	1061.007	792.791
383.059	17.603	1060.194	791.899
384.073	17.703	1059.327	791.643
385.088	17.752	1058.289	791.025
386.102	17.753	1057.441	790.328
387.117	17.599	1056.950	789.179
388.132	17.593	1055.924	788.312
389.146	17.575	1054.963	787.444
390.161	17.658	1054.181	787.172
391.175	17.747	1053.675	787.137
392.190	17.699	1053.218	786.505
393.205	17.634	1052.935	785.925
394.219	17.715	1051.626	785.251
395.234	17.720	1050.674	784.491
396.248	17.710	1049.580	783.558
397.263	17.763	1048.294	782.775
398.278	17.619	1047.968	781.800
399.292	17.647	1047.479	781.494
400.307	17.689	1046.680	781.021
401.321	17.828	1046.085	781.146
402.336	17.768	1045.385	780.279
403.350	17.791	1045.018	780.042
404.365	17.834	1043.917	779.348
405.380	17.854	1042.858	778.579
406.394	17.919	1042.465	778.514
407.409	17.808	1042.104	777.668
408.423	17.798	1041.220	776.894
409.438	17.907	1040.665	776.908
410.453	18.029	1039.598	776.595
411.467	17.950	1039.035	775.746
412.482	18.103	1038.184	775.738
413.496	18.114	1037.684	775.346
414.511	18.025	1037.524	774.756
415.526	18.148	1036.971	774.831
416.540	18.021	1036.791	774.051
417.555	18.135	1035.576	773.591
418.569	18.127	1035.177	773.187
419.584	18.202	1034.618	773.041
420.599	18.227	1034.339	772.877
421.613	108.662	1327.250	1484.377
422.628	99.639	1369.884	1484.484
