DTS Sentinel unit serial number:	SN413079Multiplexer serial number:	ORYXHardware model number:	OX4-SRSoftware version number:	ORYX F/W v4.00 Oryx Data Collector v3.7.2.0data status	okinstallation	princeton_trtdifferential loss correction	single-endedforward channel	channel 2reverse channel	N/Adate	2019/09/17time	23:31:35forward acquisition time	60.00reverse acquisition time	0.00gamma	496.2192k internal	0.2348k external	0.2348temperature offset calibration	0.9987default loss term (dB/km)	0.3790temperature slope calibration	1.0000multiplexer offset coefficient	1.0000multiplexer slope coefficient	1.0000fibre end	0.00T internal ref (°C)	24.25T ext. ref 1 (°C)	0.17T ext. ref 2 (°C)	17.53length (m)	temperature (°C)	Stokes	anti-Stokes-747.200	-113.424	0.259	0.051
-746.185	-200.000	-0.017	0.165
-745.171	-200.000	-0.011	-0.118
-744.156	-9.177	-0.261	0.175
-743.142	287.508	-0.120	0.217
-742.127	-192.281	-0.212	-0.002
-741.112	-200.000	0.015	0.162
-740.098	-134.274	-0.767	0.094
-739.083	800.000	0.105	-0.369
-738.069	-200.000	-0.010	0.185
-737.054	-44.821	0.442	0.220
-736.039	-190.187	-0.410	-0.005
-735.025	800.000	0.105	0.335
-734.010	23.816	-0.327	0.269
-732.996	800.000	0.061	-0.182
-731.981	178.034	0.015	-0.022
-730.966	-146.042	-0.191	-0.017
-729.952	280.902	0.138	-0.247
-728.937	-200.000	-0.109	-0.502
-727.923	-200.000	-0.025	-0.207
-726.908	800.000	-0.069	0.231
-725.894	-71.447	-0.020	0.007
-724.879	146.473	-0.055	0.074
-723.864	-23.057	0.179	-0.108
-722.850	246.296	0.073	-0.122
-721.835	-108.953	-0.177	-0.038
-720.821	-10.860	0.187	-0.123
-719.806	-115.990	-0.254	-0.047
-718.791	-153.443	-0.231	-0.016
-717.777	-164.251	-0.370	0.017
-716.762	267.257	0.058	0.102
-715.748	-150.934	-0.259	-0.020
-714.733	-123.545	-0.179	-0.028
-713.718	82.975	0.156	-0.169
-712.704	5.125	0.109	0.080
-711.689	7.672	0.195	0.146
-710.675	208.682	0.123	-0.192
-709.660	223.820	-0.088	-0.142
-708.645	-200.000	-0.007	0.044
-707.631	105.997	0.131	-0.155
-706.616	-84.790	0.123	-0.039
-705.602	-30.190	0.338	0.192
-704.587	143.804	-0.138	-0.183
-703.572	-13.999	-0.287	-0.185
-702.558	800.000	0.133	0.429
-701.543	410.194	-0.102	-0.216
-700.529	257.166	-0.253	-0.434
-699.514	800.000	-0.071	-0.209
-698.499	-200.000	-0.004	-0.225
-697.485	508.335	0.017	0.040
-696.470	130.164	-0.033	0.042
-695.456	211.169	-0.174	-0.272
-694.441	-123.708	-0.159	-0.025
-693.426	-48.051	0.360	0.174
-692.412	-170.764	0.236	-0.008
-691.397	-2.476	-0.068	0.047
-690.383	7.854	0.137	-0.103
-689.368	71.988	0.079	0.082
-688.354	-200.000	-0.022	0.235
-687.339	50.549	-0.226	-0.213
-686.324	-5.747	0.292	-0.200
-685.310	-200.000	0.020	0.104
-684.295	-148.501	0.176	-0.014
-683.281	-143.960	-0.102	0.010
-682.266	-3.943	-0.021	-0.014
-681.251	-188.431	0.029	0.000
-680.237	-1.781	0.203	-0.142
-679.222	11.957	0.121	-0.092
-678.208	15.683	-0.179	0.140
-677.193	-1.241	-0.106	0.074
-676.178	-200.000	0.059	-0.305
-675.164	114.398	-0.225	-0.273
-674.149	800.000	0.135	0.439
-673.135	-127.581	-0.074	-0.011
-672.120	36.892	-0.179	0.158
-671.105	800.000	0.088	-0.375
-670.091	-200.000	-0.030	-0.148
-669.076	-113.764	0.290	0.056
-668.062	575.925	0.053	-0.130
-667.047	216.535	0.225	0.357
-666.032	-15.491	-0.022	-0.014
-665.018	19.604	0.277	0.222
-664.003	-23.817	-0.192	-0.114
-662.989	-199.044	-0.345	-0.002
-661.974	-200.000	-0.038	0.183
-660.959	-60.370	-0.100	-0.042
-659.945	584.806	-0.057	-0.140
-658.930	-183.628	0.004	0.000
-657.916	-73.203	0.066	-0.024
-656.901	-200.000	0.008	0.277
-655.886	44.070	0.060	-0.055
-654.872	-57.392	-0.127	0.056
-653.857	183.283	0.279	0.410
-652.843	285.437	0.045	0.080
-651.828	87.453	-0.215	0.237
-650.814	-200.000	0.042	0.315
-649.799	-200.000	-0.251	0.000
-648.784	-200.000	-0.025	-0.541
-647.770	-200.000	-0.029	-0.190
-646.755	800.000	0.084	-0.278
-645.741	-87.586	0.288	-0.087
-644.726	71.007	-0.048	0.049
-643.711	-13.470	0.191	0.123
-642.697	-25.397	0.207	0.122
-641.682	-49.273	0.094	0.045
-640.668	42.401	0.239	0.216
-639.653	301.038	0.078	-0.143
-638.638	-144.115	-0.158	0.015
-637.624	134.805	-0.035	0.046
-636.609	755.434	0.097	-0.260
-635.595	-103.032	0.220	0.052
-634.580	196.707	-0.096	0.146
-633.565	-200.000	-0.001	-0.261
-632.551	756.683	-0.054	0.145
-631.536	-64.550	0.133	-0.054
-630.522	15.383	0.121	0.095
-629.507	108.664	-0.350	-0.416
-628.492	-71.017	0.338	0.127
-627.478	14.764	0.127	-0.099
-626.463	-200.000	-0.005	0.233
-625.449	542.839	-0.016	0.038
-624.434	-26.778	-0.213	-0.124
-623.419	-66.361	-0.144	-0.057
-622.405	379.029	-0.003	0.006
-621.390	-200.000	-0.030	-0.151
-620.376	-200.000	-0.042	-0.304
-619.361	-29.064	-0.056	-0.032
-618.346	248.216	-0.065	-0.110
-617.332	-200.000	-0.003	0.273
-616.317	-119.105	-0.128	-0.022
-615.303	-200.000	-0.005	0.092
-614.288	-115.454	0.205	-0.038
-613.273	800.000	-0.037	0.138
-612.259	800.000	0.043	-0.130
-611.244	-200.000	-0.057	-0.413
-610.230	107.217	0.208	0.246
-609.215	37.382	-0.236	0.208
-608.201	486.306	-0.031	-0.071
-607.186	800.000	0.038	-0.115
-606.171	601.280	0.166	-0.409
-605.157	-200.000	-0.002	-0.368
-604.142	205.598	0.328	0.507
-603.128	-200.000	-0.049	0.393
-602.113	-200.000	-0.058	0.307
-601.098	182.934	-0.018	0.026
-600.084	-78.873	0.180	0.061
-599.069	134.821	-0.190	0.244
-598.055	-98.641	-0.298	0.076
-597.040	-200.000	-0.040	0.232
-596.025	-5.203	-0.132	0.090
-595.011	800.000	-0.070	-0.232
-593.996	2.098	-0.196	0.140
-592.982	3.158	-0.186	-0.134
-591.967	-93.669	0.581	0.159
-590.952	399.153	0.113	0.235
-589.938	-38.195	-0.091	0.048
-588.923	65.674	-0.010	0.010
-587.909	100.782	-0.069	-0.080
-586.894	-151.656	0.379	0.028
-585.879	59.302	0.344	-0.336
-584.865	-68.455	-0.161	-0.062
-583.850	115.435	0.121	-0.147
-582.836	570.666	0.157	-0.380
-581.821	-132.628	0.270	-0.034
-580.806	664.457	-0.067	0.171
-579.792	-2.550	0.118	0.082
-578.777	-200.000	-0.021	0.189
-577.763	756.357	0.140	-0.376
-576.748	800.000	-0.061	0.169
-575.733	-200.000	-0.046	-0.353
-574.719	-66.439	-0.251	-0.099
-573.704	37.562	0.137	0.120
-572.690	-200.000	0.041	-0.391
-571.675	31.439	-0.139	-0.118
-570.661	-86.075	0.258	0.079
-569.646	179.943	-0.126	-0.184
-568.631	-151.110	0.313	0.023
-567.617	-77.971	-0.149	-0.051
-566.602	62.403	0.152	-0.150
-565.588	-16.983	-0.144	0.091
-564.573	-200.000	-0.039	-0.306
-563.558	22.763	0.114	0.093
-562.544	110.582	-0.315	0.376
-561.529	21.095	0.176	-0.142
-560.515	511.212	0.122	-0.281
-559.500	127.566	-0.210	-0.264
-558.485	-200.000	0.066	-0.303
-557.471	-200.000	-0.034	0.320
-556.456	-104.962	-0.150	0.034
-555.442	800.000	-0.055	-0.221
-554.427	-89.177	-0.295	0.087
-553.412	-60.041	-0.139	0.059
-552.398	234.847	-0.083	0.136
-551.383	-92.548	0.109	-0.030
-550.369	-119.714	0.185	0.032
-549.354	-183.992	-0.316	0.005
-548.339	-72.460	-0.282	-0.103
-547.325	800.000	0.116	0.354
-546.310	245.081	0.180	-0.301
-545.296	-115.694	0.106	0.020
-544.281	103.354	0.065	-0.076
-543.266	-200.000	-0.040	-0.237
-542.252	-200.000	0.014	0.069
-541.237	-69.864	0.291	0.110
-540.223	-82.588	-0.205	0.066
-539.208	800.000	-0.089	-0.251
-538.193	800.000	-0.077	-0.245
-537.179	139.265	-0.120	-0.156
-536.164	800.000	0.038	-0.106
-535.150	39.929	-0.021	0.019
-534.135	-114.639	0.192	-0.036
-533.121	63.642	-0.081	-0.081
-532.106	242.609	0.085	-0.140
-531.091	85.414	0.207	-0.225
-530.077	-136.179	-0.388	0.045
-529.062	-11.232	-0.204	-0.133
-528.048	-200.000	-0.009	-0.193
-527.033	-200.000	0.006	-0.088
-526.018	-89.187	0.156	-0.046
-525.004	-0.898	-0.269	-0.189
-523.989	81.970	0.295	-0.317
-522.975	674.066	-0.053	0.136
-521.960	376.368	-0.073	0.147
-520.945	-53.945	-0.063	-0.028
-519.931	43.784	-0.336	0.305
-518.916	-79.346	-0.176	0.059
-517.902	-63.383	0.293	0.119
-516.887	-73.007	0.220	0.080
-515.872	447.386	0.036	0.080
-514.858	52.233	0.168	-0.158
-513.843	8.578	-0.265	-0.197
-512.829	114.531	0.161	-0.194
-511.814	-60.629	0.144	-0.061
-510.799	-94.238	-0.166	0.045
-509.785	-103.319	0.135	0.031
-508.770	-10.434	-0.168	-0.110
-507.756	83.228	0.093	-0.100
-506.741	-63.172	-0.085	0.035
-505.726	206.332	0.171	0.264
-504.712	-27.097	-0.117	0.067
-503.697	-200.000	-0.012	-0.199
-502.683	42.530	-0.423	0.381
-501.668	191.003	-0.086	0.128
-500.653	-108.184	0.307	0.066
-499.639	62.325	0.206	0.203
-498.624	733.602	0.060	0.158
-497.610	428.626	0.170	0.364
-496.595	-101.754	0.128	-0.031
-495.581	-49.043	-0.116	0.055
-494.566	-200.000	0.028	-0.369
-493.551	334.270	0.152	0.291
-492.537	-64.411	0.173	-0.069
-491.522	378.566	0.088	-0.179
-490.508	-200.000	-0.005	0.164
-489.493	-200.000	0.000	0.094
-488.478	508.963	-0.087	-0.199
-487.464	-59.800	0.088	0.037
-486.449	429.204	0.074	0.159
-485.435	109.304	0.108	0.128
-484.420	-161.088	-0.311	-0.016
-483.405	-57.725	0.047	0.020
-482.391	8.268	-0.335	-0.249
-481.376	800.000	-0.041	-0.131
-480.362	-168.268	0.211	0.008
-479.347	55.413	-0.155	-0.149
-478.332	459.403	-0.023	0.052
-477.318	5.192	0.115	-0.084
-476.303	-33.578	0.057	-0.031
-475.289	4.839	0.227	-0.165
-474.274	-132.621	0.038	-0.005
-473.259	259.317	0.122	0.208
-472.245	116.501	-0.075	-0.091
-471.230	-14.291	-0.291	0.185
-470.216	-200.000	-0.024	-0.139
-469.201	-44.176	0.121	-0.060
-468.186	800.000	-0.099	-0.321
-467.172	7.416	0.406	-0.300
-466.157	-34.874	-0.293	-0.158
-465.143	167.614	0.094	0.132
-464.128	281.586	0.115	0.203
-463.113	409.266	-0.086	-0.181
-462.099	-20.261	0.398	0.242
-461.084	22.566	0.130	-0.105
-460.070	-200.000	-0.007	0.370
-459.055	695.201	-0.093	0.241
-458.040	-89.124	-0.243	0.071
-457.026	-200.000	0.028	0.280
-456.011	-200.000	-0.020	-0.115
-454.997	159.765	-0.152	-0.209
-453.982	-194.525	-0.197	0.002
-452.968	-56.860	0.568	0.248
-451.953	129.616	-0.153	-0.193
-450.938	153.542	-0.157	0.212
-449.924	22.452	0.113	-0.092
-448.909	103.081	0.143	-0.165
-447.895	-200.000	-0.051	-0.340
-446.880	607.489	0.114	0.282
-445.865	393.147	-0.113	0.233
-444.851	-200.000	0.008	0.058
-443.836	129.531	0.224	-0.283
-442.822	-99.375	0.273	-0.068
-441.807	307.894	-0.031	-0.057
-440.792	112.273	-0.081	-0.097
-439.778	800.000	-0.063	-0.221
-438.763	-67.641	0.057	-0.022
-437.749	-106.124	-0.212	0.047
-436.734	295.377	0.112	0.203
-435.719	800.000	0.130	-0.356
-434.705	-121.227	-0.282	0.047
-433.690	34.111	-0.307	0.264
-432.676	-173.693	0.205	-0.006
-431.661	-200.000	-0.018	0.209
-430.646	-181.217	-0.192	0.004
-429.632	-186.858	0.286	-0.004
-428.617	-86.212	0.121	0.037
-427.603	117.862	-0.055	-0.067
-426.588	-34.508	0.140	0.076
-425.573	-31.038	0.334	0.186
-424.559	25.301	-0.387	-0.317
-423.544	-200.000	-0.085	-0.422
-422.530	407.714	0.153	-0.319
-421.515	194.057	0.133	-0.199
-420.500	149.438	-0.141	0.188
-419.486	-20.961	0.143	0.087
-418.471	-4.157	-0.040	-0.027
-417.457	34.848	-0.066	0.057
-416.442	-200.000	-0.011	0.311
-415.428	-128.871	0.073	0.010
-414.413	-200.000	0.032	-0.214
-413.398	-200.000	0.020	-0.126
-412.384	-183.723	-0.241	0.004
-411.369	-200.000	-0.014	0.311
-410.355	350.267	-0.217	-0.423
-409.340	-131.663	-0.306	-0.040
-408.325	69.077	0.057	0.058
-407.311	-200.000	-0.019	0.171
-406.296	-200.000	-0.002	-0.027
-405.282	-52.938	-0.121	-0.055
-404.267	83.318	-0.084	-0.090
-403.252	194.831	-0.228	0.341
-402.238	-200.000	0.043	0.332
-401.223	65.439	-0.114	0.114
-400.209	-200.000	0.030	-0.410
-399.194	-28.235	-0.249	0.142
-398.179	-200.000	0.012	-0.118
-397.165	334.506	0.134	-0.256
-396.150	3.656	0.227	0.163
-395.136	-200.000	-0.013	-0.065
-394.121	23.633	0.050	0.041
-393.106	-62.839	0.438	0.179
-392.092	184.824	-0.201	-0.294
-391.077	-28.995	-0.364	-0.206
-390.063	-157.939	0.134	-0.008
-389.048	698.051	-0.062	-0.161
-388.033	-200.000	0.017	-0.371
-387.019	492.558	0.069	0.156
-386.004	-35.154	-0.258	-0.139
-384.990	-200.000	-0.033	0.258
-383.975	-165.948	0.150	-0.006
-382.960	800.000	0.106	-0.290
-381.946	-110.569	-0.139	-0.028
-380.931	299.036	0.067	-0.122
-379.917	-96.966	0.349	-0.090
-378.902	-2.709	0.232	-0.160
-377.888	-150.133	-0.308	-0.024
-376.873	284.108	-0.138	-0.244
-375.858	-65.500	0.143	-0.057
-374.844	-63.611	-0.123	-0.050
-373.829	-200.000	-0.014	0.086
-372.815	71.413	-0.176	-0.180
-371.800	800.000	-0.007	0.019
-370.785	-154.216	0.360	-0.024
-369.771	-117.329	-0.129	-0.023
-368.756	120.346	0.119	0.145
-367.742	-200.000	-0.033	-0.152
-366.727	140.340	-0.279	0.362
-365.712	189.702	0.078	-0.116
-364.698	100.567	0.052	0.059
-363.683	-100.865	-0.139	0.034
-362.669	0.705	0.232	0.163
-361.654	-142.958	-0.468	0.045
-360.639	-200.000	0.054	0.408
-359.625	-200.000	-0.004	-0.129
-358.610	68.930	0.133	0.135
-357.596	161.590	0.057	-0.079
-356.581	800.000	0.064	-0.220
-355.566	123.530	0.245	-0.302
-354.552	-7.253	-0.237	0.158
-353.537	92.464	0.085	-0.094
-352.523	-119.983	-0.122	-0.021
-351.508	-8.109	0.150	0.099
-350.493	800.000	-0.130	-0.487
-349.479	220.769	0.027	-0.042
-348.464	-177.240	-0.179	-0.004
-347.450	-108.105	-0.141	0.030
-346.435	-200.000	0.019	0.407
-345.420	800.000	0.062	0.196
-344.406	-38.083	-0.110	-0.058
-343.391	-200.000	0.019	-0.358
-342.377	390.738	-0.181	0.369
-341.362	-33.646	0.232	0.126
-340.348	-200.000	0.045	-0.420
-339.333	53.285	0.025	0.024
-338.318	-200.000	0.012	-0.196
-337.304	-135.199	0.160	0.019
-336.289	506.931	-0.078	-0.177
-335.275	-117.021	-0.138	-0.025
-334.260	-76.275	-0.109	0.038
-333.245	-200.000	0.037	-0.301
-332.231	-180.748	0.211	0.004
-331.216	800.000	-0.026	-0.087
-330.202	621.307	-0.069	0.170
-329.187	-154.646	-0.215	-0.014
-328.172	-151.151	-0.248	-0.018
-327.158	129.542	0.152	0.191
-326.143	397.356	-0.075	0.155
-325.129	40.887	-0.087	0.077
-324.114	24.232	0.166	0.134
-323.099	-58.128	-0.198	-0.085
-322.085	596.333	-0.144	-0.351
-321.070	-96.027	0.059	0.015
-320.056	542.580	0.249	0.584
-319.041	360.977	-0.024	-0.047
-318.026	59.330	-0.184	-0.178
-317.012	-200.000	-0.008	-0.143
-315.997	1.309	0.142	0.100
-314.983	218.893	0.164	0.257
-313.968	-10.938	-0.050	-0.032
-312.953	6.301	0.080	0.058
-311.939	271.921	0.057	0.099
-310.924	228.461	-0.147	-0.235
-309.910	21.061	-0.048	0.038
-308.895	-104.795	0.061	0.014
-307.880	76.881	0.204	0.213
-306.866	12.537	-0.196	0.149
-305.851	800.000	0.055	-0.227
-304.837	162.239	-0.100	0.137
-303.822	-200.000	-0.038	-0.270
-302.807	-109.596	-0.158	-0.033
-301.793	-30.556	0.173	0.096
-300.778	-124.604	-0.203	0.031
-299.764	-181.097	-0.163	-0.003
-298.749	-178.604	0.179	0.004
-297.735	88.079	0.118	-0.129
-296.720	-139.518	0.407	0.043
-295.705	248.492	-0.029	-0.049
-294.691	-200.000	-0.033	0.167
-293.676	-200.000	-0.012	0.088
-292.662	-99.670	-0.353	-0.087
-291.647	212.597	-0.118	-0.183
-290.632	-79.602	0.052	0.017
-289.618	-139.929	-0.108	-0.011
-288.603	408.428	0.084	-0.175
-287.589	-15.542	0.162	-0.102
-286.574	-6.797	-0.217	0.145
-285.559	133.956	-0.170	-0.216
-284.545	488.191	-0.023	0.052
-283.530	49.366	0.201	0.185
-282.516	800.000	-0.140	0.427
-281.501	-21.350	-0.367	0.220
-280.486	-76.080	0.100	0.035
-279.472	35.158	-0.092	0.079
-278.457	800.000	0.034	-0.095
-277.443	-200.000	0.014	0.141
-276.428	141.678	0.080	0.104
-275.413	-23.143	-0.338	-0.200
-274.399	800.000	-0.049	0.170
-273.384	-28.951	0.340	0.192
-272.370	58.103	-0.258	-0.248
-271.355	399.312	0.030	-0.063
-270.340	56.404	0.273	0.260
-269.326	-123.306	0.080	-0.013
-268.311	323.462	-0.015	-0.028
-267.297	-200.000	-0.057	0.373
-266.282	288.065	0.066	-0.117
-265.267	-200.000	-0.011	0.138
-264.253	121.432	0.041	0.050
-263.238	-105.261	0.178	0.040
-262.224	800.000	-0.046	-0.159
-261.209	800.000	-0.069	0.290
-260.195	-31.025	0.087	0.048
-259.180	-86.853	-0.368	0.110
-258.165	-101.303	-0.293	0.070
-257.151	165.890	-0.018	-0.025
-256.136	-136.156	0.362	0.042
-255.122	71.979	0.066	0.067
-254.107	-109.763	0.095	0.020
-253.092	124.578	0.039	0.048
-252.078	23.544	0.266	0.215
-251.063	-156.534	0.174	0.011
-250.049	72.376	0.067	-0.068
-249.034	80.601	0.135	0.142
-248.019	322.553	-0.053	0.099
-247.005	-163.955	-0.262	-0.012
-245.990	-76.083	-0.182	0.063
-244.976	-33.934	-0.197	0.106
-243.961	412.563	-0.093	0.194
-242.946	-72.599	0.145	-0.053
-241.932	20.008	-0.324	-0.256
-240.917	-6.256	0.123	0.082
-239.903	-44.461	-0.070	0.034
-238.888	800.000	-0.072	-0.242
-237.873	232.848	0.171	0.275
-236.859	174.059	0.082	-0.116
-235.844	-119.604	0.271	0.046
-234.830	-80.081	-0.100	0.033
-233.815	202.954	-0.199	-0.302
-232.800	156.385	0.121	0.164
-231.786	800.000	-0.161	0.516
-230.771	-56.322	0.390	-0.170
-229.757	800.000	-0.080	0.226
-228.742	305.703	0.076	0.138
-227.727	-200.000	-0.079	-0.503
-226.713	-167.572	-0.139	0.005
-225.698	682.678	-0.037	0.094
-224.684	-2.948	0.059	-0.040
-223.669	225.777	0.120	0.191
-222.655	76.165	0.118	0.122
-221.640	641.999	-0.107	0.268
-220.625	-168.900	0.240	-0.009
-219.611	-175.571	0.121	-0.003
-218.596	-200.000	-0.027	-0.352
-217.582	164.515	-0.130	0.180
-216.567	162.886	-0.180	0.248
-215.552	800.000	-0.007	-0.029
-214.538	800.000	-0.039	-0.115
-213.523	-69.259	-0.104	-0.039
-212.509	264.731	0.118	0.202
-211.494	-200.000	0.004	0.397
-210.479	314.792	0.078	-0.145
-209.465	-21.842	0.091	0.054
-208.450	-200.000	-0.009	-0.202
-207.436	-200.000	-0.044	0.229
-206.421	-138.949	-0.279	-0.030
-205.406	-56.134	0.417	-0.182
-204.392	-62.366	-0.237	0.097
-203.377	14.060	-0.341	0.260
-202.363	-71.537	0.172	0.063
-201.348	152.168	-0.138	0.185
-200.333	-192.472	-0.137	0.001
-199.319	800.000	0.078	-0.227
-198.304	-138.582	-0.088	-0.009
-197.290	-99.166	0.185	-0.046
-196.275	-200.000	-0.023	0.490
-195.260	21.022	-0.172	0.137
-194.246	151.301	0.104	-0.139
-193.231	-200.000	-0.025	0.232
-192.217	-28.569	0.131	0.074
-191.202	1.031	-0.119	0.083
-190.187	800.000	-0.131	0.400
-189.173	-97.206	-0.360	-0.092
-188.158	666.567	0.056	-0.142
-187.144	-200.000	-0.020	0.304
-186.129	-130.025	0.113	-0.015
-185.114	-132.599	0.399	-0.050
-184.100	338.682	0.082	-0.157
-183.085	161.271	0.166	-0.227
-182.071	-60.355	-0.034	-0.014
-181.056	800.000	0.069	0.236
-180.042	-54.852	-0.251	0.111
-179.027	-200.000	-0.021	-0.227
-178.012	469.812	-0.098	0.216
-176.998	144.436	-0.032	0.042
-175.983	-200.000	0.011	-0.114
-174.969	-200.000	-0.029	0.180
-173.954	-103.871	0.312	0.071
-172.939	139.995	-0.159	0.205
-171.925	-22.030	0.254	0.151
-170.910	-44.653	0.053	-0.026
-169.896	36.125	0.134	0.115
-168.881	-200.000	0.010	-0.200
-167.866	-5.039	-0.273	-0.184
-166.852	-200.000	-0.000	0.202
-165.837	800.000	0.080	0.222
-164.823	-200.000	0.004	-0.222
-163.808	-200.000	-0.031	0.274
-162.793	-90.244	-0.193	0.055
-161.779	-118.450	-0.221	0.038
-160.764	632.611	0.060	0.148
-159.750	11.797	0.060	0.045
-158.735	-39.574	-0.306	-0.156
-157.720	-15.074	0.187	-0.117
-156.706	800.000	-0.039	-0.132
-155.691	-2.582	0.148	-0.101
-154.677	-128.246	-0.059	0.008
-153.662	-113.879	-0.055	0.010
-152.647	688.715	0.015	0.039
-151.633	-51.406	0.095	0.043
-150.618	-147.969	0.120	-0.010
-149.604	-200.000	0.017	0.224
-148.589	482.861	-0.113	-0.251
-147.574	-24.243	0.313	0.182
-146.560	119.397	-0.067	-0.081
-145.545	19.151	-0.261	0.204
-144.531	-99.702	0.322	-0.079
-143.516	-200.000	-0.067	0.505
-142.502	-3.439	-0.349	-0.237
-141.487	128.481	0.052	-0.065
-140.472	-102.939	0.208	0.048
-139.458	-12.127	0.058	0.037
-138.443	307.266	-0.087	0.158
-137.429	800.000	0.054	0.163
-136.414	-122.911	0.068	-0.011
-135.399	88.355	-0.118	0.127
-134.385	-200.000	0.010	0.186
-133.370	690.296	-0.074	-0.188
-132.356	-200.000	-0.015	-0.429
-131.341	212.144	0.078	-0.120
-130.326	-101.900	-0.135	-0.032
-129.312	-83.773	0.229	0.071
-128.297	2.848	0.078	0.055
-127.283	46.221	-0.117	-0.105
-126.268	131.690	0.227	0.285
-125.253	86.399	0.166	0.178
-124.239	155.018	0.109	-0.147
-123.224	-200.000	-0.011	-0.232
-122.210	246.626	-0.028	0.046
-121.195	-175.119	0.063	-0.002
-120.180	147.306	-0.086	-0.113
-119.166	800.000	-0.119	0.383
-118.151	-60.749	0.221	-0.091
-117.137	800.000	0.041	0.153
-116.122	-200.000	0.006	-0.341
-115.107	275.853	0.092	0.158
-114.093	800.000	-0.046	-0.124
-113.078	-200.000	-0.036	-0.265
-112.064	-77.024	0.174	-0.059
-111.049	-101.455	0.078	0.019
-110.034	-36.123	-0.233	0.123
-109.020	-80.607	-0.329	0.107
-108.005	-58.736	-0.171	-0.072
-106.991	-61.384	0.253	0.104
-105.976	-200.000	-0.016	0.413
-104.962	46.173	-0.219	0.198
-103.947	-9.779	0.302	-0.196
-102.932	-200.000	-0.001	0.116
-101.918	67.267	0.019	0.019
-100.903	-62.661	0.170	-0.069
-99.889	-153.855	-0.310	0.021
-98.874	12.282	0.132	-0.099
-97.859	254.325	-0.028	-0.047
-96.845	-51.776	0.425	-0.193
-95.830	-52.450	-0.180	0.081
-94.816	-95.039	-0.205	-0.054
-93.801	356.292	0.043	-0.084
-92.786	224.707	-0.208	-0.328
-91.772	800.000	-0.042	-0.150
-90.757	-200.000	0.002	0.217
-89.743	-115.641	-0.156	-0.028
-88.728	-200.000	-0.004	0.126
-87.713	483.524	0.023	-0.051
-86.699	800.000	-0.054	0.154
-85.684	-69.485	0.559	0.209
-84.670	135.672	-0.208	0.263
-83.655	62.014	0.362	0.351
-82.640	-115.528	-0.341	0.063
-81.626	78.568	-0.265	0.276
-80.611	800.000	0.120	0.340
-79.597	27.050	0.094	-0.077
-78.582	113.342	0.035	-0.041
-77.567	-126.902	-0.314	-0.045
-76.553	193.591	0.128	-0.189
-75.538	354.001	-0.049	-0.095
-74.524	115.529	0.276	0.328
-73.509	-200.000	0.004	-0.077
-72.494	-104.065	-0.233	-0.053
-71.480	182.687	0.105	-0.150
-70.465	-135.645	-0.044	0.005
-69.451	-22.552	0.171	0.101
-68.436	-96.840	-0.153	-0.039
-67.422	-200.000	-0.067	0.390
-66.407	-35.681	0.200	0.106
-65.392	-100.830	0.259	-0.062
-64.378	-200.000	-0.040	-0.193
-63.363	-27.796	-0.275	-0.155
-62.349	-172.607	-0.225	0.007
-61.334	112.936	-1.155	-1.361
-60.319	42.728	0.971	0.860
-59.305	217.429	-0.760	-1.178
-58.290	183.233	0.903	1.297
-57.276	-200.000	0.223	1.396
-56.261	-200.000	121.842	642.064
-55.246	440.564	1530.703	3254.429
-54.232	149.361	2684.701	3534.702
-53.217	92.879	2269.139	2492.261
-52.203	33.357	1887.248	1592.974
-51.188	27.365	1685.375	1377.339
-50.173	25.143	1646.741	1329.259
-49.159	45.662	1713.870	1539.730
-48.144	43.842	1726.072	1536.831
-47.130	26.875	1678.463	1367.778
-46.115	24.339	1663.432	1336.495
-45.100	24.210	1658.371	1331.417
-44.086	24.152	1655.349	1328.505
-43.071	24.162	1653.239	1326.828
-42.057	24.178	1650.994	1325.095
-41.042	24.196	1648.765	1323.391
-40.027	24.107	1647.029	1321.286
-39.013	24.020	1645.232	1319.145
-37.998	24.000	1644.197	1318.113
-36.984	24.193	1642.448	1318.085
-35.969	24.181	1641.778	1317.404
-34.954	24.251	1639.596	1316.120
-33.940	24.286	1637.604	1314.725
-32.925	24.302	1635.917	1313.437
-31.911	24.232	1635.176	1312.276
-30.896	24.295	1632.853	1310.824
-29.881	24.251	1631.273	1309.181
-28.867	24.239	1629.741	1307.809
-27.852	24.237	1628.659	1306.875
-26.838	24.270	1627.416	1306.068
-25.823	24.206	1625.924	1304.349
-24.809	24.294	1624.798	1304.036
-23.794	24.321	1622.957	1302.707
-22.779	24.365	1621.310	1301.654
-21.765	24.315	1619.950	1300.150
-20.750	24.253	1618.293	1298.312
-19.736	24.330	1617.017	1297.797
-18.721	24.300	1615.772	1296.527
-17.706	24.288	1614.482	1295.360
-16.692	24.219	1612.702	1293.374
-15.677	24.265	1611.371	1292.588
-14.663	24.262	1610.287	1291.644
-13.648	24.317	1608.431	1290.503
-12.633	24.264	1607.040	1288.956
-11.619	24.194	1605.828	1287.427
-10.604	24.354	1603.968	1287.043
-9.590	24.273	1603.097	1285.706
-8.575	24.229	1601.916	1284.391
-7.560	24.332	1600.295	1283.777
-6.546	24.306	1599.563	1282.956
-5.531	24.302	1598.454	1281.988
-4.517	24.211	1597.472	1280.497
-3.502	24.145	1596.633	1279.299
-2.487	24.374	1594.010	1278.788
-1.473	23.865	1582.224	1265.655
-0.458	20.806	1562.642	1228.398
0.556	15.649	1564.429	1196.582
1.571	13.385	1587.348	1197.633
2.586	13.000	1599.236	1203.690
3.600	11.968	1544.929	1155.439
4.615	6.520	1440.218	1041.127
5.629	1.261	1381.171	964.973
6.644	0.285	1374.052	953.741
7.659	0.172	1372.830	952.096
8.673	0.147	1371.797	951.135
9.688	0.076	1370.085	949.414
10.702	-0.028	1366.689	946.321
11.717	2.696	1370.027	965.720
12.731	9.527	1380.516	1016.259
13.746	15.403	1388.779	1059.456
14.761	16.898	1389.939	1069.689
15.775	16.239	1388.456	1064.296
16.790	15.345	1385.803	1056.544
17.804	14.535	1383.384	1049.510
18.819	14.095	1382.261	1045.797
19.834	13.908	1380.817	1043.440
20.848	13.689	1379.685	1041.114
21.863	13.403	1378.178	1038.092
22.877	13.216	1377.371	1036.222
23.892	13.149	1376.890	1035.346
24.907	13.170	1375.695	1034.488
25.921	13.201	1374.985	1034.053
26.936	13.310	1374.025	1033.922
27.950	13.356	1372.464	1032.948
28.965	13.449	1371.435	1032.662
29.980	13.543	1370.263	1032.273
30.994	13.433	1369.877	1031.207
32.009	13.552	1368.657	1030.933
33.023	13.451	1367.536	1029.369
34.038	13.410	1366.278	1028.078
35.053	13.362	1365.640	1027.211
36.067	13.386	1364.241	1026.217
37.082	13.467	1362.866	1025.595
38.096	13.510	1362.274	1025.325
39.111	13.296	1361.592	1023.394
40.126	13.369	1360.807	1023.163
41.140	13.311	1359.610	1021.816
42.155	13.249	1359.471	1021.238
43.169	13.219	1359.178	1020.740
44.184	13.311	1358.663	1020.831
45.199	13.160	1358.673	1019.817
46.213	13.295	1357.755	1019.870
47.228	13.319	1356.913	1019.298
48.242	13.429	1355.737	1019.003
49.257	13.336	1354.410	1017.339
50.271	13.402	1352.289	1016.064
51.286	13.395	1351.537	1015.368
52.301	13.381	1350.142	1014.144
53.315	13.290	1349.217	1012.797
54.330	13.248	1348.445	1011.874
55.344	13.294	1347.187	1011.123
56.359	13.262	1346.545	1010.355
57.374	13.203	1345.250	1008.931
58.388	13.160	1344.642	1008.125
59.403	13.172	1343.898	1007.553
60.417	13.171	1343.336	1007.036
61.432	13.195	1342.355	1006.356
62.447	13.053	1341.526	1004.783
63.461	13.152	1340.354	1004.415
64.476	13.133	1339.230	1003.369
65.490	13.178	1337.979	1002.619
66.505	13.154	1336.377	1001.182
67.520	13.192	1334.823	1000.162
68.534	13.238	1333.843	999.616
69.549	13.169	1332.983	998.463
70.563	13.266	1331.228	997.649
71.578	13.208	1330.599	996.738
72.593	13.151	1329.625	995.580
73.607	13.121	1328.696	994.615
74.622	13.080	1328.149	993.871
75.636	13.069	1327.459	993.195
76.651	13.067	1326.570	992.433
77.666	13.111	1325.816	992.045
78.680	12.986	1325.926	991.286
79.695	13.129	1324.659	991.112
80.709	13.149	1324.008	990.658
81.724	13.259	1322.626	990.193
82.739	13.246	1321.862	989.458
83.753	13.330	1320.654	988.965
84.768	13.333	1319.598	988.109
85.782	13.435	1318.571	987.862
86.797	13.267	1317.294	985.816
87.812	13.369	1316.144	985.472
88.826	13.332	1314.805	984.165
89.841	13.325	1313.780	983.270
90.855	13.352	1312.939	982.715
91.870	13.444	1311.901	982.394
92.884	13.391	1311.294	981.539
93.899	13.453	1310.178	980.983
94.914	13.521	1309.722	980.960
95.928	13.523	1308.630	980.063
96.943	13.424	1307.787	978.760
97.957	13.372	1306.847	977.666
98.972	13.463	1305.471	977.088
99.987	13.495	1304.458	976.431
101.001	13.430	1303.768	975.446
102.016	13.407	1303.017	974.658
103.030	13.525	1301.432	974.084
104.045	13.402	1300.824	972.816
105.060	13.433	1299.720	972.088
106.074	13.360	1298.773	970.866
107.089	13.256	1297.464	969.195
108.103	13.216	1296.110	967.863
109.118	13.212	1294.867	966.826
110.133	13.193	1293.682	965.744
111.147	13.237	1292.594	965.099
112.162	13.360	1291.157	964.658
113.176	13.365	1289.965	963.713
114.191	13.347	1288.634	962.529
115.206	13.340	1287.824	961.797
116.220	13.322	1286.502	960.621
117.235	13.325	1285.704	959.960
118.249	13.433	1284.370	959.503
119.264	13.350	1283.509	958.294
120.279	13.275	1282.434	956.971
121.293	13.314	1281.451	956.381
122.308	13.316	1279.956	955.190
123.322	13.300	1279.239	954.478
124.337	13.390	1277.851	953.880
125.352	13.274	1277.004	952.492
126.366	13.214	1276.027	951.337
127.381	13.250	1275.001	950.692
128.395	13.320	1273.726	950.061
129.410	13.339	1272.590	949.235
130.424	13.199	1272.239	948.090
131.439	13.272	1270.926	947.446
132.454	13.397	1269.532	947.035
133.468	13.363	1269.165	946.487
134.483	13.238	1268.449	945.154
135.497	13.246	1266.762	943.856
136.512	13.298	1265.713	943.287
137.527	13.387	1264.433	942.758
138.541	13.357	1262.969	941.414
139.556	13.292	1261.952	940.202
140.570	13.394	1260.639	939.723
141.585	13.289	1260.134	938.665
142.600	13.494	1258.529	938.549
143.614	13.422	1257.861	937.557
144.629	13.362	1256.942	936.453
145.643	13.480	1255.423	935.907
146.658	13.463	1254.470	935.014
147.673	13.424	1252.932	933.568
148.687	13.505	1251.529	932.893
149.702	13.378	1250.799	931.550
150.716	13.370	1249.326	930.327
151.731	13.380	1248.390	929.604
152.746	13.311	1246.952	928.067
153.760	13.416	1245.756	927.681
154.775	13.612	1244.422	927.700
155.789	13.651	1243.317	927.015
156.804	13.580	1242.147	925.664
157.819	13.435	1241.541	924.319
158.833	13.585	1240.198	924.078
159.848	13.577	1239.532	923.456
160.862	13.712	1238.303	923.206
161.877	13.578	1237.114	921.494
162.892	13.555	1236.258	920.645
163.906	13.510	1235.300	919.605
164.921	13.562	1234.713	919.373
165.935	13.549	1233.745	918.496
166.950	13.686	1232.472	918.227
167.964	13.620	1232.095	917.499
168.979	13.641	1231.294	916.940
169.994	13.666	1230.678	916.535
171.008	13.744	1229.659	916.129
172.023	13.682	1228.867	915.114
173.037	13.811	1227.841	914.980
174.052	13.778	1227.140	914.194
175.067	13.667	1226.192	912.800
176.081	13.702	1225.025	912.043
177.096	13.694	1224.536	911.553
178.110	13.737	1223.147	910.671
179.125	13.802	1221.478	909.708
180.140	13.813	1220.417	908.896
181.154	13.784	1219.374	907.880
182.169	13.800	1218.214	907.022
183.183	13.824	1217.047	906.205
184.198	13.966	1215.439	905.701
185.213	13.872	1214.770	904.615
186.227	13.825	1213.743	903.513
187.242	13.965	1212.596	903.337
188.256	13.919	1211.703	902.347
189.271	13.950	1210.789	901.753
190.286	13.811	1209.672	900.087
191.300	13.761	1208.335	898.741
192.315	13.762	1208.073	898.471
193.329	13.719	1207.711	897.891
194.344	13.762	1206.905	897.446
195.359	13.686	1206.923	896.968
196.373	13.844	1206.315	897.293
197.388	13.889	1205.679	896.981
198.402	13.919	1204.995	896.555
199.417	14.054	1204.117	896.548
200.432	14.091	1203.285	896.049
201.446	14.127	1202.386	895.494
202.461	14.209	1201.647	895.309
203.475	14.193	1200.382	894.200
204.490	14.157	1199.076	892.952
205.504	14.099	1197.606	891.470
206.519	14.103	1196.614	890.673
207.534	14.141	1195.606	890.050
208.548	14.078	1194.610	888.889
209.563	14.143	1193.906	888.636
210.577	14.090	1193.061	887.645
211.592	14.166	1192.076	887.242
212.607	14.192	1191.524	886.887
213.621	14.203	1190.573	886.161
214.636	14.281	1189.925	886.013
215.650	14.214	1188.723	884.684
216.665	14.228	1187.949	884.103
217.680	14.398	1186.748	884.037
218.694	14.274	1185.987	882.732
219.709	14.252	1185.600	882.248
220.723	14.506	1184.544	882.733
221.738	14.461	1183.498	881.637
222.753	14.312	1183.314	880.635
223.767	14.428	1182.134	880.290
224.782	14.478	1181.706	880.156
225.796	14.455	1181.509	879.810
226.811	14.556	1180.338	879.391
227.826	14.456	1179.710	878.320
228.840	14.428	1178.941	877.523
229.855	14.421	1178.661	877.198
230.869	14.438	1177.210	876.133
231.884	14.439	1176.574	875.589
232.899	14.338	1176.178	874.686
233.913	14.401	1175.323	874.301
234.928	14.406	1174.181	873.401
235.942	14.434	1173.781	873.172
236.957	14.582	1172.983	873.279
237.972	14.438	1172.338	871.965
238.986	14.388	1171.638	871.104
240.001	14.520	1170.698	871.018
241.015	14.472	1169.944	870.132
242.030	14.508	1168.976	869.521
243.045	14.588	1168.200	869.282
244.059	14.520	1167.736	868.507
245.074	14.595	1166.609	867.984
246.088	14.643	1165.867	867.604
247.103	14.685	1164.999	867.102
248.117	14.748	1164.113	866.690
249.132	14.745	1163.225	865.938
250.147	14.683	1163.265	865.570
251.161	14.825	1162.659	865.775
252.176	14.835	1161.604	864.967
253.190	14.927	1160.665	864.668
254.205	14.937	1160.464	864.492
255.220	14.969	1159.988	864.228
256.234	14.966	1159.420	863.709
257.249	14.953	1158.404	862.809
258.263	14.919	1158.086	862.324
259.278	14.987	1157.432	862.107
260.293	15.058	1156.860	861.974
261.307	15.047	1156.105	861.274
262.322	15.085	1155.682	861.083
263.336	15.047	1154.344	859.811
264.351	15.164	1153.966	860.056
265.366	15.203	1153.459	859.799
266.380	15.145	1153.014	859.097
267.395	15.067	1152.094	857.936
268.409	15.192	1151.307	857.913
269.424	15.178	1150.541	857.194
270.439	15.092	1150.173	856.404
271.453	15.143	1149.077	855.776
272.468	15.148	1147.815	854.782
273.482	15.153	1147.523	854.517
274.497	15.262	1146.891	854.525
275.512	15.128	1146.429	853.424
276.526	15.171	1145.713	853.036
277.541	15.151	1144.811	852.184
278.555	15.229	1144.092	851.972
279.570	15.270	1143.420	851.602
280.585	15.213	1142.436	850.507
281.599	15.278	1141.335	849.939
282.614	15.346	1140.448	849.549
283.628	15.499	1139.208	849.323
284.643	15.418	1138.421	848.254
285.657	15.362	1137.594	847.281
286.672	15.302	1136.881	846.368
287.687	15.397	1135.886	846.033
288.701	15.355	1135.226	845.256
289.716	15.434	1134.149	844.775
290.730	15.376	1133.746	844.108
291.745	15.450	1132.759	843.670
292.760	15.578	1131.941	843.633
293.774	15.418	1131.533	842.449
294.789	15.527	1131.313	842.758
295.803	15.444	1130.448	841.622
296.818	15.575	1129.751	841.685
297.833	15.604	1129.085	841.259
298.847	15.635	1127.925	840.475
299.862	15.532	1127.565	839.620
300.876	15.659	1127.000	839.758
301.891	15.626	1126.198	838.924
302.906	15.682	1125.289	838.452
303.920	15.674	1125.100	838.194
304.935	15.640	1124.357	837.398
305.949	15.747	1123.234	837.021
306.964	15.765	1123.150	836.973
307.979	15.702	1122.266	835.926
308.993	15.699	1121.810	835.497
310.008	15.751	1120.722	834.872
311.022	15.924	1119.753	834.935
312.037	15.879	1118.822	833.940
313.052	15.738	1117.913	832.493
314.066	15.837	1116.917	832.169
315.081	15.758	1116.460	831.364
316.095	15.753	1115.944	830.878
317.110	15.650	1115.419	829.906
318.125	15.787	1114.207	829.610
319.139	15.653	1114.048	828.757
320.154	15.779	1113.002	828.527
321.168	15.776	1112.539	828.091
322.183	15.759	1111.755	827.350
323.197	15.875	1111.111	827.369
324.212	15.818	1110.739	826.741
325.227	15.908	1109.753	826.374
326.241	15.874	1109.216	825.736
327.256	15.937	1108.465	825.410
328.270	15.830	1107.560	824.141
329.285	15.963	1106.638	824.032
330.300	15.976	1105.448	823.136
331.314	15.923	1104.956	822.438
332.329	15.999	1103.642	821.758
333.343	15.871	1103.020	820.597
334.358	15.896	1102.372	820.164
335.373	16.047	1101.356	820.072
336.387	15.978	1100.882	819.311
337.402	16.069	1100.342	819.279
338.416	16.037	1099.945	818.756
339.431	16.090	1099.151	818.347
340.446	16.005	1098.371	817.285
341.460	16.222	1097.356	817.506
342.475	16.218	1096.476	816.758
343.489	16.239	1095.683	816.198
344.504	16.299	1094.502	815.539
345.519	16.302	1093.872	815.010
346.533	16.249	1093.488	814.394
347.548	16.265	1092.399	813.589
348.562	16.296	1091.670	813.122
349.577	16.432	1090.542	812.867
350.592	16.395	1089.898	812.136
351.606	16.250	1089.089	810.767
352.621	16.273	1088.605	810.443
353.635	16.247	1088.269	809.997
354.650	16.273	1087.286	809.321
355.665	16.366	1086.609	809.190
356.679	16.335	1085.734	808.318
357.694	16.362	1085.403	808.125
358.708	16.377	1084.962	807.798
359.723	16.356	1084.514	807.293
360.738	16.366	1083.610	806.596
361.752	16.521	1083.132	806.910
362.767	16.539	1082.337	806.333
363.781	16.507	1081.902	805.787
364.796	16.570	1081.156	805.458
365.810	16.555	1080.533	804.851
366.825	16.487	1079.999	804.060
367.840	16.533	1079.498	803.832
368.854	16.630	1078.855	803.743
369.869	16.654	1078.064	803.195
370.883	16.621	1077.120	802.265
371.898	16.593	1076.262	801.422
372.913	16.568	1075.891	800.956
373.927	16.617	1075.456	800.794
374.942	16.643	1075.095	800.581
375.956	16.824	1074.278	800.755
376.971	16.747	1073.391	799.660
377.986	16.748	1073.045	799.335
379.000	16.699	1072.850	798.886
380.015	16.755	1072.246	798.631
381.029	16.924	1071.477	798.785
382.044	16.956	1070.587	798.202
383.059	16.870	1069.813	797.149
384.073	16.946	1068.755	796.646
385.088	16.996	1067.825	796.118
386.102	16.984	1067.010	795.382
387.117	16.960	1065.996	794.445
388.132	16.815	1065.157	793.072
389.146	16.776	1064.937	792.656
390.161	16.877	1064.152	792.474
391.175	16.887	1063.327	791.834
392.190	16.835	1062.783	791.116
393.205	17.053	1061.637	791.208
394.219	17.043	1060.746	790.430
395.234	16.942	1060.003	789.336
396.248	17.045	1058.986	788.988
397.263	16.946	1058.233	787.895
398.278	16.977	1057.745	787.608
399.292	16.888	1057.247	786.752
400.307	16.929	1056.317	786.181
401.321	17.036	1055.740	786.177
402.336	17.065	1054.979	785.676
403.350	16.965	1054.176	784.548
404.365	17.067	1053.733	784.621
405.380	17.174	1052.805	784.354
406.394	17.083	1052.215	783.425
407.409	17.090	1051.650	782.966
408.423	17.095	1051.083	782.500
409.438	17.237	1049.812	782.138
410.453	17.260	1049.538	781.970
411.467	17.121	1049.109	780.940
412.482	17.277	1047.805	780.615
413.496	17.410	1047.450	780.894
414.511	17.352	1046.629	779.947
415.526	17.328	1046.571	779.725
416.540	17.458	1046.207	779.980
417.555	17.379	1045.331	778.896
418.569	17.547	1044.893	779.270
419.584	17.520	1044.234	778.586
420.599	17.421	1043.952	777.856
421.613	108.299	1329.033	1487.345
422.628	99.537	1370.502	1487.425
