DTS Sentinel unit serial number:	SN413079Multiplexer serial number:	ORYXHardware model number:	OX4-SRSoftware version number:	ORYX F/W v4.00 Oryx Data Collector v3.7.2.0data status	okinstallation	princeton_trtdifferential loss correction	single-endedforward channel	channel 2reverse channel	N/Adate	2019/09/16time	04:11:35forward acquisition time	60.00reverse acquisition time	0.00gamma	496.2192k internal	0.2335k external	0.2335temperature offset calibration	0.9972default loss term (dB/km)	0.3790temperature slope calibration	1.0000multiplexer offset coefficient	1.0000multiplexer slope coefficient	1.0000fibre end	0.00T internal ref (°C)	27.41T ext. ref 1 (°C)	10.76T ext. ref 2 (°C)	21.41length (m)	temperature (°C)	Stokes	anti-Stokes-747.200	-200.000	0.054	0.249
-746.185	-200.000	-0.014	-0.494
-745.171	-73.529	-0.175	-0.064
-744.156	-200.000	0.003	0.047
-743.142	-200.000	-0.000	-0.102
-742.127	-200.000	0.011	0.150
-741.112	136.220	0.011	-0.015
-740.098	-200.000	0.010	0.193
-739.083	216.666	0.213	-0.340
-738.069	-200.000	0.010	0.136
-737.054	-200.000	0.011	0.201
-736.039	2.140	-0.160	0.116
-735.025	-154.618	0.506	0.034
-734.010	-200.000	-0.024	-0.345
-732.996	-4.622	-0.290	-0.201
-731.981	-22.065	-0.418	0.255
-730.966	293.332	0.145	0.267
-729.952	142.673	-0.157	-0.209
-728.937	-200.000	-0.294	0.001
-727.923	-131.743	-0.050	0.007
-726.908	-151.312	-0.304	0.023
-725.894	214.617	0.130	-0.207
-724.879	480.600	0.050	0.114
-723.864	2.023	0.140	-0.101
-722.850	-200.000	-0.007	-0.090
-721.835	546.725	-0.110	-0.263
-720.821	320.773	-0.139	0.266
-719.806	-39.461	-0.182	-0.096
-718.791	113.227	-0.156	-0.190
-717.777	-72.228	-0.320	-0.119
-716.762	86.958	0.051	0.057
-715.748	20.412	-0.372	-0.302
-714.733	-32.150	0.143	-0.080
-713.718	95.653	-0.171	0.196
-712.704	-79.775	-0.120	0.041
-711.689	12.687	0.337	-0.261
-710.675	143.310	-0.090	-0.121
-709.660	70.303	0.213	0.221
-708.645	37.490	-0.222	-0.197
-707.631	116.246	0.063	0.077
-706.616	-200.000	0.029	0.278
-705.602	800.000	-0.047	0.165
-704.587	138.190	-0.096	0.127
-703.572	-33.858	-0.156	0.086
-702.558	-135.549	0.377	-0.045
-701.543	592.003	0.041	-0.102
-700.529	155.769	-0.158	0.218
-699.514	497.954	-0.098	-0.227
-698.499	108.284	0.086	0.103
-697.485	-200.000	-0.078	0.454
-696.470	800.000	0.045	0.156
-695.456	-123.696	-0.371	-0.059
-694.441	-200.000	0.001	0.162
-693.426	-64.434	-0.271	-0.111
-692.412	432.126	-0.098	-0.213
-691.397	-90.033	-0.233	0.068
-690.383	-32.235	-0.241	0.135
-689.368	-200.000	-0.038	-0.266
-688.354	-115.340	-0.258	-0.049
-687.339	98.032	0.071	-0.082
-686.324	-60.834	0.323	0.137
-685.310	-50.415	0.305	-0.145
-684.295	-20.254	0.170	-0.105
-683.281	800.000	-0.112	-0.328
-682.266	136.051	-0.100	-0.131
-681.251	800.000	-0.113	-0.364
-680.237	799.917	0.051	-0.141
-679.222	625.075	-0.020	-0.050
-678.208	-28.293	-0.045	-0.026
-677.193	800.000	-0.076	-0.257
-676.178	-200.000	0.010	0.053
-675.164	-200.000	-0.008	-0.128
-674.149	-200.000	0.012	-0.294
-673.135	-200.000	0.010	0.135
-672.120	-104.980	-0.085	0.019
-671.105	800.000	-0.102	-0.293
-670.091	-82.990	-0.148	0.048
-669.076	-200.000	-0.012	0.176
-668.062	32.913	0.340	0.295
-667.047	-1.307	-0.115	-0.081
-666.032	-200.000	-0.031	-0.165
-665.018	800.000	-0.064	-0.232
-664.003	-15.763	-0.189	0.121
-662.989	-200.000	0.006	0.208
-661.974	-80.139	-0.244	0.082
-660.959	-200.000	-0.027	0.187
-659.945	-91.250	-0.079	-0.023
-658.930	50.743	-0.228	-0.216
-657.916	23.249	0.203	0.167
-656.901	54.404	-0.298	0.287
-655.886	-200.000	0.004	0.029
-654.872	270.057	-0.168	0.295
-653.857	-200.000	-0.014	-0.079
-652.843	-200.000	0.003	-0.199
-651.828	188.432	-0.137	-0.205
-650.814	-111.691	-0.124	0.025
-649.799	-166.938	0.262	-0.011
-648.784	-200.000	0.054	-0.367
-647.770	-58.516	-0.067	-0.029
-646.755	91.488	-0.105	-0.118
-645.741	313.748	0.079	-0.148
-644.726	-121.287	-0.090	0.015
-643.711	-60.191	0.127	0.054
-642.697	-41.768	0.208	-0.107
-641.682	-80.429	-0.123	-0.041
-640.668	118.169	0.147	-0.181
-639.653	-200.000	0.036	0.346
-638.638	664.110	-0.114	0.294
-637.624	-82.139	-0.137	-0.045
-636.609	47.479	0.201	0.188
-635.595	61.983	0.296	0.295
-634.580	-200.000	-0.006	0.118
-633.565	-200.000	-0.006	0.258
-632.551	75.821	0.061	0.065
-631.536	-76.337	0.236	-0.083
-630.522	-11.546	-0.222	-0.146
-629.507	-200.000	0.031	0.160
-628.492	-136.419	0.067	0.008
-627.478	88.149	-0.169	-0.188
-626.463	-12.203	-0.341	-0.223
-625.449	53.397	-0.165	0.158
-624.434	-30.473	-0.180	-0.102
-623.419	-92.310	-0.096	0.027
-622.405	27.407	-0.373	0.314
-621.390	74.473	0.138	-0.146
-620.376	-200.000	0.021	-0.214
-619.361	-81.237	-0.062	0.020
-618.346	-170.981	0.227	0.008
-617.332	208.472	-0.077	-0.120
-616.317	521.276	0.068	-0.159
-615.303	151.302	-0.093	0.126
-614.288	-149.175	0.218	-0.017
-613.273	162.392	0.188	-0.264
-612.259	-28.298	0.124	-0.072
-611.244	242.217	-0.151	-0.252
-610.230	196.440	0.282	0.429
-609.215	141.842	0.126	0.167
-608.201	-171.544	0.353	-0.012
-607.186	-200.000	-0.008	0.332
-606.171	128.033	-0.192	0.244
-605.157	-80.180	0.230	-0.077
-604.142	-200.000	0.084	0.376
-603.128	-200.000	-0.031	-0.245
-602.113	-200.000	-0.014	-0.185
-601.098	-68.565	0.228	-0.088
-600.084	11.968	-0.156	0.120
-599.069	249.311	0.200	0.338
-598.055	114.184	0.214	0.260
-597.040	221.625	-0.151	-0.242
-596.025	-74.643	-0.232	0.083
-595.011	-144.336	0.033	-0.003
-593.996	-200.000	-0.016	0.080
-592.982	-200.000	-0.022	0.276
-591.967	-64.770	-0.072	0.029
-590.952	-109.297	0.391	-0.083
-589.938	-137.157	-0.150	-0.017
-588.923	-200.000	0.004	0.192
-587.909	118.539	-0.214	-0.264
-586.894	120.306	-0.027	-0.033
-585.879	-200.000	0.002	0.233
-584.865	-109.701	-0.271	0.057
-583.850	259.058	-0.171	-0.295
-582.836	724.397	0.067	-0.179
-581.821	-108.562	-0.081	-0.017
-580.806	800.000	-0.083	-0.247
-579.792	250.245	-0.073	-0.125
-578.777	800.000	0.067	-0.229
-577.763	-17.310	-0.522	0.328
-576.748	98.535	-0.204	-0.235
-575.733	-200.000	0.021	-0.120
-574.719	66.498	0.230	-0.234
-573.704	96.500	-0.089	-0.102
-572.690	-200.000	0.023	-0.343
-571.675	2.582	-0.129	0.093
-570.661	-80.090	0.252	0.084
-569.646	-200.000	-0.010	0.299
-568.631	800.000	-0.073	0.305
-567.617	-84.287	-0.313	-0.099
-566.602	-78.823	0.125	0.043
-565.588	-116.898	0.179	-0.033
-564.573	-97.574	0.115	0.030
-563.558	-136.716	-0.083	0.010
-562.544	659.549	0.082	0.210
-561.529	107.422	0.131	-0.156
-560.515	-200.000	-0.003	-0.101
-559.500	-8.057	0.159	-0.107
-558.485	-21.178	-0.229	-0.139
-557.471	130.702	0.217	0.277
-556.456	-200.000	0.029	-0.293
-555.442	508.018	-0.024	-0.056
-554.427	54.411	0.250	0.241
-553.412	-34.751	-0.246	0.134
-552.398	-132.718	-0.347	-0.044
-551.383	62.208	0.227	-0.226
-550.369	-77.403	-0.292	-0.101
-549.354	-56.857	0.165	0.073
-548.339	81.114	0.089	-0.095
-547.325	-138.477	-0.092	0.010
-546.310	98.051	0.111	-0.128
-545.296	-63.380	-0.247	0.101
-544.281	644.682	-0.099	0.252
-543.266	-89.791	0.250	-0.073
-542.252	-117.510	0.484	-0.087
-541.237	235.466	-0.061	-0.100
-540.223	92.507	-0.097	-0.109
-539.208	-50.861	0.089	-0.042
-538.193	-83.999	-0.240	0.076
-537.179	-200.000	0.000	0.111
-536.164	64.232	0.163	0.163
-535.150	40.706	0.112	-0.101
-534.135	-200.000	-0.006	0.216
-533.121	-42.772	0.233	0.118
-532.106	-117.464	0.372	0.067
-531.091	354.074	0.192	0.380
-530.077	800.000	-0.115	-0.321
-529.062	74.673	0.056	-0.059
-528.048	26.343	0.197	-0.164
-527.033	-115.726	-0.345	-0.064
-526.018	145.069	0.214	0.285
-525.004	6.219	-0.200	0.147
-523.989	-109.696	-0.199	-0.042
-522.975	-60.685	-0.119	0.050
-521.960	-200.000	-0.004	-0.101
-520.945	-200.000	0.043	0.228
-519.931	-158.145	-0.103	0.006
-518.916	-128.707	0.365	0.051
-517.902	-184.733	-0.192	-0.003
-516.887	800.000	0.094	-0.261
-515.872	-142.854	0.332	-0.032
-514.858	579.948	0.053	-0.130
-513.843	-37.558	0.217	-0.115
-512.829	-200.000	0.052	0.282
-511.814	223.494	-0.073	-0.117
-510.799	-150.281	-0.162	-0.012
-509.785	-200.000	-0.014	0.167
-508.770	181.010	0.118	0.173
-507.756	-105.928	-0.217	-0.049
-506.741	800.000	0.146	0.435
-505.726	-193.120	-0.459	0.004
-504.712	55.535	-0.195	-0.188
-503.697	800.000	-0.039	0.113
-502.683	-137.468	0.104	-0.012
-501.668	-177.280	0.243	0.006
-500.653	41.913	-0.452	0.408
-499.639	330.488	0.024	0.045
-498.624	316.871	0.378	-0.710
-497.610	-200.000	-0.002	-0.341
-496.595	800.000	0.033	-0.133
-495.581	79.989	-0.112	-0.119
-494.566	729.548	0.150	-0.399
-493.551	23.271	-0.100	-0.081
-492.537	-116.460	0.179	0.033
-491.522	-144.958	0.220	-0.020
-490.508	-90.421	0.142	0.041
-489.493	335.061	0.082	-0.158
-488.478	63.349	0.041	-0.041
-487.464	-60.808	0.354	0.149
-486.449	166.353	0.110	0.155
-485.435	-100.613	-0.370	-0.091
-484.420	800.000	0.060	-0.210
-483.405	-71.115	-0.172	0.064
-482.391	360.857	0.061	-0.122
-481.376	-200.000	0.043	0.285
-480.362	-53.325	-0.306	-0.139
-479.347	-77.725	-0.209	-0.072
-478.332	-146.397	-0.220	0.019
-477.318	478.732	0.061	-0.138
-476.303	209.136	-0.095	0.147
-475.289	20.456	-0.236	0.190
-474.274	344.280	-0.124	0.243
-473.259	258.754	0.079	0.135
-472.245	-200.000	0.007	-0.131
-471.230	-28.977	-0.081	-0.046
-470.216	-56.434	0.277	-0.122
-469.201	-200.000	-0.008	-0.173
-468.186	800.000	0.121	-0.371
-467.172	-37.909	-0.233	-0.123
-466.157	-200.000	0.024	-0.110
-465.143	-200.000	0.050	-0.295
-464.128	-145.957	0.409	-0.036
-463.113	18.974	0.054	0.043
-462.099	-200.000	-0.067	-0.483
-461.084	78.506	0.196	0.208
-460.070	-129.346	0.046	0.006
-459.055	139.487	-0.077	0.101
-458.040	-144.240	-0.040	0.004
-457.026	-18.872	-0.173	-0.107
-456.011	-154.599	0.398	-0.026
-454.997	102.244	-0.069	-0.080
-453.982	298.492	0.059	0.108
-452.968	5.530	0.034	0.025
-451.953	-97.847	0.126	-0.032
-450.938	-70.101	0.234	0.089
-449.924	-200.000	-0.123	-0.536
-448.909	-90.664	-0.211	-0.061
-447.895	-124.584	-0.386	0.059
-446.880	349.225	-0.120	-0.234
-445.865	-136.597	0.220	0.025
-444.851	-200.000	0.004	0.244
-443.836	163.774	-0.224	0.314
-442.822	63.769	-0.111	0.110
-441.807	147.082	-0.032	0.042
-440.792	800.000	0.044	-0.161
-439.778	359.098	0.060	-0.119
-438.763	-158.279	-0.152	0.009
-437.749	-189.848	-0.332	0.004
-436.734	-200.000	0.073	0.331
-435.719	288.579	0.055	-0.099
-434.705	-6.346	0.353	-0.239
-433.690	-129.758	-0.155	-0.021
-432.676	62.410	0.258	-0.255
-431.661	-200.000	0.016	-0.138
-430.646	13.720	0.329	-0.254
-429.632	48.002	-0.226	-0.210
-428.617	-200.000	0.021	0.241
-427.603	800.000	0.067	-0.272
-426.588	-29.077	-0.286	-0.163
-425.573	800.000	0.101	0.293
-424.559	4.685	0.208	0.152
-423.544	-134.208	-0.155	0.019
-422.530	-75.457	-0.134	0.047
-421.515	210.683	-0.228	0.355
-420.500	-168.464	-0.350	-0.013
-419.486	-120.782	-0.246	0.041
-418.471	13.800	-0.042	-0.032
-417.457	-60.658	-0.103	0.043
-416.442	800.000	0.043	-0.145
-415.428	-200.000	-0.054	-0.274
-414.413	151.696	-0.155	-0.209
-413.398	-112.564	0.595	-0.118
-412.384	-104.159	0.207	0.048
-411.369	79.778	0.261	0.278
-410.355	227.230	-0.096	-0.154
-409.340	-111.508	-0.165	-0.033
-408.325	-57.033	-0.212	-0.093
-407.311	101.789	0.061	-0.070
-406.296	-200.000	0.053	0.331
-405.282	90.179	0.154	0.170
-404.267	-135.191	0.140	0.017
-403.252	-30.965	-0.062	0.035
-402.238	-200.000	-0.007	-0.071
-401.223	122.457	0.085	0.106
-400.209	-200.000	0.023	0.110
-399.194	800.000	0.100	-0.370
-398.179	23.329	-0.321	0.262
-397.165	33.711	0.194	-0.167
-396.150	-43.568	0.195	-0.098
-395.136	470.431	0.094	-0.210
-394.121	-34.397	-0.276	0.150
-393.106	323.593	-0.080	0.151
-392.092	20.862	-0.256	-0.206
-391.077	800.000	-0.053	-0.230
-390.063	241.187	-0.191	0.317
-389.048	-193.037	0.231	-0.002
-388.033	771.734	-0.064	-0.172
-387.019	8.492	0.032	0.024
-386.004	-142.974	0.246	0.024
-384.990	-23.118	-0.137	0.081
-383.975	-180.772	-0.054	0.001
-382.960	203.446	0.153	-0.235
-381.946	-75.406	0.239	-0.084
-380.931	16.503	0.381	0.299
-379.917	-200.000	-0.011	0.179
-378.902	-72.064	-0.191	-0.070
-377.888	-16.444	-0.160	0.101
-376.873	289.240	0.153	-0.276
-375.858	137.769	0.176	-0.228
-374.844	800.000	0.018	0.056
-373.829	-24.192	0.131	0.077
-372.815	310.347	-0.095	0.176
-371.800	-38.074	0.113	0.059
-370.785	-113.862	0.211	-0.041
-369.771	328.255	0.063	-0.120
-368.756	-151.922	0.135	-0.010
-367.742	239.022	-0.104	0.172
-366.727	-25.327	-0.225	-0.132
-365.712	-60.436	-0.122	-0.051
-364.698	-16.836	0.125	0.078
-363.683	800.000	0.070	0.221
-362.669	800.000	-0.113	-0.335
-361.654	-200.000	-0.047	0.294
-360.639	-58.740	-0.289	0.124
-359.625	17.892	0.115	0.091
-358.610	22.140	-0.144	-0.116
-357.596	470.586	0.018	0.039
-356.581	-44.426	0.173	-0.086
-355.566	-45.167	-0.204	0.100
-354.552	-56.282	0.457	0.201
-353.537	-34.665	-0.269	-0.146
-352.523	-105.472	-0.214	-0.048
-351.508	16.526	-0.125	-0.098
-350.493	800.000	-0.030	0.090
-349.479	-148.694	0.303	0.024
-348.464	800.000	-0.061	0.175
-347.450	-128.533	0.028	-0.004
-346.435	421.709	-0.122	0.258
-345.420	-114.824	0.157	-0.030
-344.406	-30.622	-0.175	0.098
-343.391	154.830	-0.181	0.246
-342.377	285.534	-0.066	-0.118
-341.362	449.656	-0.066	-0.145
-340.348	-200.000	0.020	-0.285
-339.333	-10.119	0.192	-0.126
-338.318	-116.971	-0.506	0.092
-337.304	-187.503	0.117	0.002
-336.289	-69.700	0.238	0.090
-335.275	-200.000	0.022	0.348
-334.260	-113.463	-0.106	-0.020
-333.245	408.850	0.110	0.230
-332.231	169.410	0.085	-0.120
-331.216	137.925	-0.090	-0.117
-330.202	95.607	0.243	0.274
-329.187	257.070	-0.142	-0.241
-328.172	-200.000	0.010	-0.066
-327.158	66.223	-0.257	-0.258
-326.143	-105.192	0.397	-0.090
-325.129	232.447	0.133	-0.216
-324.114	-200.000	-0.004	-0.321
-323.099	74.830	-0.220	0.229
-322.085	-35.434	0.115	-0.062
-321.070	85.663	-0.250	-0.272
-320.056	10.521	-0.102	0.077
-319.041	285.086	-0.112	-0.200
-318.026	-63.445	-0.190	-0.077
-317.012	42.951	0.142	-0.128
-315.997	-94.438	-0.153	0.041
-314.983	230.412	-0.214	-0.346
-313.968	-200.000	-0.001	0.182
-312.953	28.084	-0.118	0.099
-311.939	58.681	-0.266	0.259
-310.924	-12.710	0.172	-0.111
-309.910	800.000	-0.071	-0.280
-308.895	800.000	-0.030	0.089
-307.880	24.325	-0.075	0.061
-306.866	774.784	0.142	-0.382
-305.851	-200.000	-0.029	-0.459
-304.837	86.078	0.171	0.186
-303.822	-200.000	0.008	-0.193
-302.807	800.000	0.084	0.243
-301.793	-54.128	-0.259	0.116
-300.778	-70.806	-0.190	-0.071
-299.764	800.000	-0.058	-0.199
-298.749	227.394	-0.051	0.083
-297.735	352.572	0.202	0.396
-296.720	596.454	0.106	-0.260
-295.705	800.000	-0.056	0.218
-294.691	180.274	-0.147	0.212
-293.676	0.433	-0.080	0.057
-292.662	800.000	0.077	-0.260
-291.647	-70.838	-0.272	-0.101
-290.632	-166.340	0.069	0.003
-289.618	-115.407	0.076	-0.014
-288.603	-200.000	-0.124	0.001
-287.589	-135.366	0.153	-0.018
-286.574	-20.047	0.335	0.204
-285.559	2.163	-0.182	0.129
-284.545	597.015	0.146	-0.357
-283.530	-158.744	0.090	0.005
-282.516	-28.900	-0.147	0.083
-281.501	438.006	-0.109	0.234
-280.486	800.000	0.043	0.133
-279.472	-200.000	-0.022	0.111
-278.457	800.000	-0.049	0.184
-277.443	388.076	-0.066	0.134
-276.428	-200.000	-0.000	0.235
-275.413	55.578	-0.201	-0.192
-274.399	-100.332	-0.280	0.068
-273.384	-52.048	-0.117	0.054
-272.370	-73.059	-0.268	0.097
-271.355	762.811	0.098	0.261
-270.340	-168.708	0.137	-0.005
-269.326	179.362	-0.060	-0.087
-268.311	128.369	0.230	0.289
-267.297	-88.941	0.117	-0.034
-266.282	-12.496	-0.335	-0.216
-265.267	-16.479	0.204	-0.128
-264.253	-150.464	0.403	-0.030
-263.238	-157.314	-0.050	0.003
-262.224	-36.205	0.075	-0.040
-261.209	-146.907	-0.197	-0.017
-260.195	-126.313	0.078	0.011
-259.180	-200.000	-0.025	-0.393
-258.165	-71.630	-0.298	-0.110
-257.151	81.797	0.083	0.089
-256.136	69.764	0.216	0.220
-255.122	-72.309	0.195	0.071
-254.107	-86.249	0.191	-0.058
-253.092	-176.454	-0.342	-0.009
-252.078	-200.000	0.009	0.129
-251.063	-200.000	0.051	-0.253
-250.049	-97.974	-0.307	0.078
-249.034	-200.000	0.036	0.220
-248.019	26.489	-0.097	0.080
-247.005	50.912	-0.173	0.162
-245.990	3.412	-0.062	-0.045
-244.976	-128.822	0.349	-0.048
-243.961	-200.000	0.041	0.210
-242.946	-52.313	0.075	0.034
-241.932	800.000	0.024	0.080
-240.917	46.363	-0.233	0.213
-239.903	77.098	0.145	-0.152
-238.888	2.056	0.126	-0.089
-237.873	7.150	0.330	-0.243
-236.859	46.920	0.305	0.279
-235.844	-62.867	0.302	0.123
-234.830	296.737	-0.090	0.163
-233.815	3.632	-0.231	0.166
-232.800	606.008	-0.060	0.147
-231.786	-32.764	-0.065	-0.036
-230.771	-62.931	0.188	0.077
-229.757	-200.000	-0.040	0.258
-228.742	-55.598	-0.179	-0.079
-227.727	343.744	-0.070	0.135
-226.713	-65.855	-0.265	0.104
-225.698	-19.912	-0.150	-0.091
-224.684	-11.804	0.131	0.085
-223.669	-196.411	0.075	0.001
-222.655	-191.703	0.474	0.005
-221.640	800.000	0.030	0.104
-220.625	-110.769	-0.245	0.050
-219.611	25.233	-0.152	0.124
-218.596	-126.357	0.079	0.012
-217.582	320.351	0.125	-0.233
-216.567	-23.726	-0.247	0.146
-215.552	-200.000	-0.030	-0.199
-214.538	-118.191	-0.013	0.002
-213.523	-115.162	-0.257	0.048
-212.509	-21.242	0.110	0.066
-211.494	800.000	0.009	0.034
-210.479	91.233	0.073	-0.080
-209.465	-37.992	0.088	0.046
-208.450	-200.000	-0.023	0.542
-207.436	53.716	0.082	0.077
-206.421	21.700	0.132	0.106
-205.406	141.282	-0.186	-0.243
-204.392	-58.976	0.185	-0.078
-203.377	38.330	-0.114	0.100
-202.363	65.589	0.253	-0.252
-201.348	13.844	-0.135	0.103
-200.333	-108.475	0.291	0.062
-199.319	-200.000	0.032	0.304
-198.304	231.926	-0.054	-0.087
-197.290	800.000	0.110	-0.411
-196.275	-116.762	0.121	0.022
-195.260	345.003	-0.062	0.120
-194.246	249.250	0.065	-0.108
-193.231	-74.098	-0.240	0.085
-192.217	800.000	0.039	-0.123
-191.202	188.398	0.148	-0.217
-190.187	-105.503	-0.262	0.058
-189.173	800.000	-0.149	0.550
-188.158	-4.862	0.187	0.127
-187.144	128.940	0.183	-0.229
-186.129	-187.905	-0.497	-0.006
-185.114	484.851	-0.026	0.057
-184.100	-86.761	-0.232	0.070
-183.085	-68.647	0.278	0.106
-182.071	800.000	0.116	-0.395
-181.056	26.754	-0.153	-0.126
-180.042	-101.347	-0.185	-0.044
-179.027	-200.000	0.021	-0.110
-178.012	800.000	-0.054	0.155
-176.998	146.164	0.186	-0.245
-175.983	0.543	0.341	-0.240
-174.969	352.665	0.020	-0.039
-173.954	800.000	0.062	0.216
-172.939	54.416	-0.238	0.225
-171.925	-136.759	0.164	0.019
-170.910	388.208	0.140	-0.284
-169.896	-31.745	-0.270	0.149
-168.881	-200.000	0.033	-0.397
-167.866	8.487	-0.137	-0.101
-166.852	372.847	-0.174	0.347
-165.837	800.000	0.065	-0.230
-164.823	-200.000	0.076	0.400
-163.808	-200.000	-0.018	-0.473
-162.793	-53.524	-0.016	-0.007
-161.779	107.621	-0.120	-0.141
-160.764	732.201	0.049	-0.129
-159.750	218.564	0.151	0.237
-158.735	-200.000	-0.135	-0.000
-157.720	800.000	-0.042	0.147
-156.706	-200.000	0.021	0.158
-155.691	103.200	0.221	0.254
-154.677	50.118	0.039	0.037
-153.662	2.928	-0.310	0.221
-152.647	-200.000	0.026	0.213
-151.633	22.025	-0.080	-0.064
-150.618	-44.232	0.217	-0.107
-149.604	-137.884	0.109	-0.012
-148.589	-200.000	0.054	-0.367
-147.574	-60.592	0.234	0.097
-146.560	-99.718	0.208	-0.051
-145.545	-200.000	-0.015	-0.109
-144.531	-59.915	0.232	0.097
-143.516	-200.000	-0.004	0.189
-142.502	-39.284	-0.151	-0.078
-141.487	-141.758	0.115	0.011
-140.472	35.504	-0.276	-0.238
-139.458	-125.435	-0.294	-0.044
-138.443	-168.728	0.105	0.004
-137.429	-81.402	0.328	-0.106
-136.414	-121.547	0.144	-0.024
-135.399	-142.849	0.174	-0.017
-134.385	-49.377	0.137	0.064
-133.370	-80.905	0.210	0.068
-132.356	-200.000	-0.097	-0.430
-131.341	40.201	-0.221	-0.195
-130.326	-200.000	-0.072	0.323
-129.312	40.586	-0.131	0.115
-128.297	258.464	0.141	0.238
-127.283	-200.000	-0.005	-0.086
-126.268	-45.649	0.374	-0.181
-125.253	110.831	-0.213	-0.252
-124.239	-21.983	-0.220	0.131
-123.224	800.000	0.056	-0.238
-122.210	800.000	-0.093	-0.338
-121.195	83.954	0.150	0.161
-120.180	-48.632	-0.268	-0.126
-119.166	378.031	0.091	0.182
-118.151	-98.141	-0.125	-0.032
-117.137	425.292	0.086	0.181
-116.122	800.000	0.043	0.137
-115.107	410.839	0.060	0.125
-114.093	11.971	-0.224	-0.169
-113.078	53.687	-0.102	-0.096
-112.064	-42.561	0.329	0.164
-111.049	179.780	-0.106	-0.153
-110.034	800.000	-0.085	0.282
-109.020	30.155	-0.374	-0.313
-108.005	-93.837	0.211	-0.057
-106.991	63.273	-0.157	-0.154
-105.976	800.000	-0.074	0.240
-104.962	27.971	0.023	0.019
-103.947	42.193	0.265	0.236
-102.932	-150.049	0.189	0.014
-101.918	551.102	-0.144	0.339
-100.903	95.860	0.274	0.307
-99.889	249.643	0.100	-0.167
-98.874	331.482	0.094	-0.178
-97.859	392.177	0.094	-0.192
-96.845	800.000	-0.021	-0.080
-95.830	-159.215	-0.372	0.021
-94.816	-200.000	-0.015	-0.086
-93.801	69.670	0.045	-0.045
-92.786	-124.792	0.364	-0.055
-91.772	-112.974	0.112	-0.022
-90.757	230.472	-0.028	0.045
-89.743	-200.000	-0.028	0.228
-88.728	-106.659	-0.455	-0.099
-87.713	-32.709	0.088	-0.048
-86.699	-29.652	0.106	0.059
-85.684	731.221	-0.026	-0.068
-84.670	-63.089	0.346	0.140
-83.655	144.482	-0.183	0.240
-82.640	-200.000	-0.031	0.166
-81.626	-47.611	-0.258	-0.122
-80.611	297.537	-0.129	0.232
-79.597	-122.745	0.372	0.059
-78.582	-200.000	-0.040	0.256
-77.567	24.838	0.041	0.033
-76.553	-200.000	0.025	0.122
-75.538	800.000	-0.037	-0.123
-74.524	-98.509	0.463	-0.116
-73.509	431.016	0.062	-0.131
-72.494	-122.842	-0.052	-0.008
-71.480	800.000	-0.029	0.085
-70.465	388.298	-0.184	0.373
-69.451	148.010	-0.051	-0.068
-68.436	-200.000	-0.039	0.226
-67.422	800.000	-0.062	-0.168
-66.407	-200.000	-0.039	-0.175
-65.392	56.245	0.372	-0.353
-64.378	-200.000	-0.042	0.191
-63.363	-200.000	-0.078	0.495
-62.349	-200.000	0.000	0.107
-61.334	56.536	-0.905	-0.861
-60.319	113.437	0.534	0.634
-59.305	800.000	-0.308	-0.921
-58.290	278.792	0.710	1.239
-57.276	487.889	0.697	1.557
-56.261	-200.000	114.136	645.714
-55.246	471.483	1508.458	3319.840
-54.232	146.471	2683.664	3524.808
-53.217	96.713	2290.479	2565.806
-52.203	36.344	1902.974	1640.824
-51.188	30.461	1695.095	1416.816
-50.173	28.039	1653.675	1364.093
-49.159	49.665	1708.303	1573.530
-48.144	48.521	1722.235	1577.649
-47.130	30.204	1681.383	1403.184
-46.115	27.484	1666.743	1370.483
-45.100	27.323	1661.958	1365.281
-44.086	27.321	1659.236	1362.981
-43.071	27.286	1656.852	1360.704
-42.057	27.204	1654.692	1358.265
-41.042	27.210	1652.560	1356.502
-40.027	27.267	1650.471	1355.157
-39.013	27.218	1648.964	1353.503
-37.998	27.278	1646.968	1352.258
-36.984	27.333	1645.688	1351.564
-35.969	27.447	1643.924	1350.905
-34.954	27.396	1642.643	1349.418
-33.940	27.479	1640.294	1348.052
-32.925	27.441	1639.264	1346.872
-31.911	27.321	1637.192	1344.230
-30.896	27.476	1635.444	1343.885
-29.881	27.306	1634.079	1341.459
-28.867	27.394	1632.301	1340.594
-27.852	27.314	1631.036	1338.912
-26.838	27.419	1629.244	1338.160
-25.823	27.508	1627.035	1336.943
-24.809	27.420	1626.556	1335.847
-23.794	27.474	1625.335	1335.190
-22.779	27.436	1623.618	1333.450
-21.765	27.429	1622.323	1332.280
-20.750	27.372	1621.156	1330.856
-19.736	27.395	1619.318	1329.463
-18.721	27.449	1618.037	1328.752
-17.706	27.357	1617.069	1327.231
-16.692	27.395	1615.167	1325.897
-15.677	27.421	1613.598	1324.743
-14.663	27.392	1612.620	1323.674
-13.648	27.532	1610.737	1323.095
-12.633	27.459	1609.389	1321.403
-11.619	27.460	1607.401	1319.731
-10.604	27.404	1606.515	1318.547
-9.590	27.461	1604.869	1317.550
-8.575	27.522	1603.364	1316.702
-7.560	27.412	1602.453	1315.112
-6.546	27.489	1601.651	1314.956
-5.531	27.441	1600.516	1313.627
-4.517	27.452	1599.439	1312.771
-3.502	27.444	1598.242	1311.678
-2.487	27.454	1596.731	1310.459
-1.473	27.197	1584.500	1298.529
-0.458	24.268	1564.883	1261.703
0.556	18.898	1566.554	1230.133
1.571	16.738	1590.036	1232.754
2.586	16.330	1602.504	1239.316
3.600	15.875	1552.567	1197.354
4.615	13.580	1455.408	1107.008
5.629	11.299	1400.614	1050.557
6.644	10.791	1393.785	1042.085
7.659	10.740	1392.673	1040.835
8.673	10.774	1391.680	1040.215
9.688	10.735	1389.524	1038.266
10.702	10.529	1386.593	1034.668
11.717	11.609	1388.009	1042.530
12.731	14.394	1392.643	1063.717
13.746	16.955	1396.164	1082.680
14.761	17.350	1396.404	1085.291
15.775	16.630	1393.393	1078.270
16.790	15.523	1390.743	1069.082
17.804	14.865	1387.868	1062.599
18.819	14.223	1387.212	1057.920
19.834	13.916	1386.003	1054.957
20.848	13.769	1384.034	1052.430
21.863	13.527	1383.144	1050.128
22.877	13.440	1381.742	1048.417
23.892	13.353	1381.178	1047.346
24.907	13.307	1380.051	1046.111
25.921	13.354	1379.399	1045.816
26.936	13.400	1378.571	1045.390
27.950	13.384	1377.705	1044.536
28.965	13.471	1376.382	1043.990
29.980	13.554	1374.852	1043.262
30.994	13.632	1374.144	1043.122
32.009	13.579	1372.539	1041.480
33.023	13.660	1371.001	1040.728
34.038	13.619	1369.772	1039.446
35.053	13.476	1368.808	1037.724
36.067	13.525	1367.466	1036.925
37.082	13.483	1366.459	1035.806
38.096	13.555	1365.635	1035.541
39.111	13.536	1364.919	1034.785
40.126	13.414	1363.934	1033.190
41.140	13.412	1362.809	1032.230
42.155	13.353	1362.804	1031.768
43.169	13.185	1362.675	1030.528
44.184	13.277	1361.961	1030.472
45.199	13.265	1361.692	1030.105
46.213	13.307	1361.344	1030.010
47.228	13.426	1359.861	1029.540
48.242	13.346	1359.540	1028.709
49.257	13.496	1357.213	1027.783
50.271	13.381	1356.137	1026.168
51.286	13.451	1354.750	1025.463
52.301	13.429	1353.165	1024.031
53.315	13.424	1351.953	1022.996
54.330	13.288	1351.414	1021.658
55.344	13.417	1350.002	1021.297
56.359	13.270	1349.083	1019.601
57.374	13.318	1348.404	1019.293
58.388	13.252	1347.467	1018.091
59.403	13.269	1346.781	1017.587
60.417	13.293	1346.250	1017.243
61.432	13.187	1345.659	1016.056
62.447	13.207	1344.240	1015.013
63.461	13.192	1342.722	1013.687
64.476	13.131	1342.133	1012.781
65.490	13.073	1341.162	1011.603
66.505	13.213	1339.533	1011.139
67.520	13.239	1338.316	1010.294
68.534	13.198	1337.496	1009.332
69.549	13.185	1335.897	1007.956
70.563	13.190	1335.033	1007.249
71.578	13.120	1334.225	1006.119
72.593	13.168	1333.095	1005.469
73.607	13.036	1332.352	1004.019
74.622	13.064	1332.088	1003.901
75.636	13.114	1331.213	1003.457
76.651	13.078	1330.328	1002.486
77.666	13.102	1329.945	1002.251
78.680	13.126	1329.179	1001.732
79.695	13.159	1328.408	1001.262
80.709	13.175	1327.588	1000.650
81.724	13.230	1327.024	1000.468
82.739	13.376	1325.924	1000.435
83.753	13.337	1325.455	999.758
84.768	13.500	1323.804	999.409
85.782	13.433	1322.904	998.237
86.797	13.400	1321.516	996.903
87.812	13.366	1320.304	995.692
88.826	13.409	1319.196	995.031
89.841	13.489	1318.202	994.674
90.855	13.432	1317.217	993.500
91.870	13.471	1316.327	992.972
92.884	13.427	1315.736	992.176
93.899	13.535	1314.801	992.033
94.914	13.561	1313.779	991.325
95.928	13.503	1313.332	990.556
96.943	13.464	1311.968	989.205
97.957	13.523	1311.136	988.841
98.972	13.496	1310.314	987.973
99.987	13.427	1309.222	986.654
101.001	13.452	1308.128	985.890
102.016	13.484	1307.094	985.211
103.030	13.514	1306.016	984.491
104.045	13.451	1305.343	983.521
105.060	13.493	1303.716	982.457
106.074	13.319	1302.904	980.728
107.089	13.250	1301.190	978.944
108.103	13.276	1300.177	978.250
109.118	13.298	1298.588	977.096
110.133	13.240	1297.118	975.565
111.147	13.266	1296.159	974.907
112.162	13.341	1294.361	973.909
113.176	13.265	1293.549	972.766
114.191	13.354	1292.498	972.415
115.206	13.335	1291.426	971.409
116.220	13.278	1290.072	969.972
117.235	13.332	1288.881	969.302
118.249	13.272	1287.877	968.113
119.264	13.273	1286.850	967.264
120.279	13.351	1285.723	966.787
121.293	13.324	1285.001	965.997
122.308	13.228	1283.768	964.427
123.322	13.200	1282.946	963.562
124.337	13.207	1281.205	962.206
125.352	13.315	1279.680	961.603
126.366	13.202	1279.208	960.510
127.381	13.169	1278.501	959.702
128.395	13.218	1276.897	958.697
129.410	13.278	1276.311	958.522
130.424	13.378	1274.933	957.980
131.439	13.222	1274.735	956.842
132.454	13.391	1273.085	956.497
133.468	13.308	1272.466	955.467
134.483	13.355	1271.729	955.101
135.497	13.342	1270.851	954.279
136.512	13.372	1269.160	953.100
137.527	13.383	1267.885	952.121
138.541	13.289	1266.349	950.342
139.556	13.404	1265.073	949.960
140.570	13.391	1264.462	949.345
141.585	13.414	1263.153	948.412
142.600	13.505	1261.950	947.945
143.614	13.621	1260.952	947.774
144.629	13.625	1259.884	946.910
145.643	13.581	1258.937	945.860
146.658	13.510	1257.473	944.274
147.673	13.463	1256.359	943.089
148.687	13.383	1255.197	941.676
149.702	13.446	1253.509	940.684
150.716	13.386	1252.509	939.510
151.731	13.465	1251.451	939.084
152.746	13.484	1249.997	938.014
153.760	13.600	1248.518	937.479
154.775	13.541	1247.268	936.125
155.789	13.605	1246.752	936.014
156.804	13.583	1245.910	935.176
157.819	13.665	1244.826	934.743
158.833	13.656	1243.782	933.824
159.848	13.635	1243.248	933.223
160.862	13.662	1241.884	932.267
161.877	13.633	1240.590	931.050
162.892	13.566	1239.415	929.713
163.906	13.567	1238.858	929.218
164.921	13.619	1237.847	928.670
165.935	13.584	1236.930	927.703
166.950	13.586	1236.346	927.194
167.964	13.605	1235.705	926.738
168.979	13.727	1234.401	926.360
169.994	13.634	1233.952	925.422
171.008	13.685	1233.332	925.156
172.023	13.597	1232.395	923.884
173.037	13.727	1231.617	923.941
174.052	13.730	1230.860	923.308
175.067	13.752	1229.239	922.135
176.081	13.614	1228.701	920.883
177.096	13.674	1227.760	920.425
178.110	13.686	1226.546	919.505
179.125	13.691	1225.086	918.355
180.140	13.770	1224.454	918.234
181.154	13.746	1222.719	916.723
182.169	13.759	1221.693	915.940
183.183	13.771	1220.946	915.369
184.198	13.965	1219.486	915.259
185.213	13.918	1218.212	913.968
186.227	13.846	1217.082	912.640
187.242	13.955	1216.073	912.405
188.256	13.943	1215.315	911.688
189.271	13.887	1214.532	910.714
190.286	13.796	1213.497	909.357
191.300	13.695	1212.396	907.897
192.315	13.645	1211.738	907.052
193.329	13.711	1211.254	906.969
194.344	13.796	1210.339	906.671
195.359	13.853	1209.823	906.514
196.373	13.990	1209.532	906.965
197.388	13.864	1209.323	906.041
198.402	13.995	1208.358	905.950
199.417	14.161	1207.816	906.369
200.432	14.164	1206.848	905.580
201.446	14.220	1206.151	905.280
202.461	14.192	1205.194	904.330
203.475	14.193	1204.585	903.798
204.490	14.240	1203.041	902.811
205.504	14.106	1201.679	900.985
206.519	14.063	1200.471	899.766
207.534	14.201	1199.217	899.496
208.548	14.172	1198.495	898.714
209.563	14.156	1197.663	897.929
210.577	14.167	1196.796	897.254
211.592	14.181	1195.910	896.585
212.607	14.302	1195.099	896.553
213.621	14.242	1194.182	895.461
214.636	14.307	1193.516	895.234
215.650	14.323	1192.165	894.225
216.665	14.209	1191.813	893.270
217.680	14.372	1190.759	893.277
218.694	14.400	1189.725	892.572
219.709	14.271	1189.107	891.338
220.723	14.418	1188.425	891.535
221.738	14.364	1187.791	890.688
222.753	14.310	1187.365	890.003
223.767	14.367	1186.473	889.563
224.782	14.468	1185.827	889.538
225.796	14.468	1184.909	888.767
226.811	14.602	1184.040	888.752
227.826	14.593	1182.937	887.801
228.840	14.451	1182.445	886.594
229.855	14.480	1181.987	886.327
230.869	14.434	1181.105	885.343
231.884	14.501	1180.013	884.805
232.899	14.303	1179.826	883.535
233.913	14.423	1178.905	883.400
234.928	14.411	1178.389	882.872
235.942	14.361	1177.225	881.661
236.957	14.413	1176.619	881.404
237.972	14.425	1175.973	880.904
238.986	14.522	1174.891	880.527
240.001	14.532	1174.662	880.327
241.015	14.541	1173.643	879.538
242.030	14.626	1172.709	879.208
243.045	14.499	1172.333	878.180
244.059	14.571	1171.120	877.569
245.074	14.541	1170.545	876.906
246.088	14.578	1169.699	876.388
247.103	14.592	1169.139	875.962
248.117	14.701	1168.259	875.799
249.132	14.746	1167.495	875.383
250.147	14.834	1166.790	875.236
251.161	14.861	1165.992	874.706
252.176	15.043	1165.109	874.915
253.190	15.009	1164.192	873.971
254.205	14.981	1164.255	873.798
255.220	15.030	1163.608	873.487
256.234	14.936	1163.241	872.644
257.249	15.122	1162.458	872.950
258.263	15.076	1161.346	871.796
259.278	15.049	1160.910	871.252
260.293	14.927	1160.589	870.299
261.307	15.125	1159.912	870.744
262.322	15.185	1158.699	870.070
263.336	15.084	1158.832	869.571
264.351	15.132	1158.037	869.143
265.366	15.127	1157.385	868.552
266.380	15.086	1156.612	867.680
267.395	15.153	1155.769	867.319
268.409	15.079	1154.947	866.245
269.424	15.080	1154.141	865.568
270.439	15.153	1153.463	865.361
271.453	15.091	1152.936	864.566
272.468	15.050	1151.844	863.458
273.482	15.171	1151.100	863.450
274.497	15.189	1150.328	862.887
275.512	15.217	1149.918	862.645
276.526	15.148	1149.143	861.634
277.541	15.203	1148.388	861.277
278.555	15.210	1147.613	860.654
279.570	15.365	1146.892	860.830
280.585	15.344	1145.958	859.947
281.599	15.399	1145.062	859.478
282.614	15.264	1144.122	858.009
283.628	15.274	1143.238	857.321
284.643	15.411	1142.163	857.136
285.657	15.296	1141.426	855.922
286.672	15.373	1140.299	855.396
287.687	15.364	1139.658	854.794
288.701	15.388	1139.082	854.405
289.716	15.345	1138.219	853.466
290.730	15.459	1137.278	853.263
291.745	15.412	1136.571	852.418
292.760	15.581	1135.795	852.619
293.774	15.427	1135.305	851.393
294.789	15.540	1134.988	851.655
295.803	15.483	1134.570	850.978
296.818	15.411	1133.538	849.763
297.833	15.472	1132.486	849.206
298.847	15.587	1132.022	849.366
299.862	15.443	1131.437	848.123
300.876	15.559	1130.876	848.214
301.891	15.626	1130.005	847.825
302.906	15.737	1128.945	847.513
303.920	15.734	1128.724	847.255
304.935	15.624	1128.374	846.364
305.949	15.785	1127.325	846.310
306.964	15.786	1126.924	845.942
307.979	15.734	1125.779	844.748
308.993	15.819	1125.022	844.532
310.008	15.793	1124.219	843.721
311.022	15.864	1123.552	843.504
312.037	15.932	1122.322	842.847
313.052	15.778	1121.450	841.346
314.066	15.826	1120.495	840.792
315.081	15.668	1119.815	839.421
316.095	15.766	1119.066	839.273
317.110	15.649	1118.368	838.092
318.125	15.724	1117.820	837.982
319.139	15.829	1116.834	837.690
320.154	15.794	1116.394	837.111
321.168	15.700	1115.736	836.077
322.183	15.747	1115.266	835.888
323.197	15.842	1114.078	835.394
324.212	15.819	1113.875	835.052
325.227	15.891	1113.418	834.992
326.241	15.859	1112.460	834.044
327.256	15.885	1111.837	833.630
328.270	15.958	1110.554	832.953
329.285	15.831	1110.385	832.127
330.300	15.856	1109.213	831.298
331.314	15.852	1108.043	830.329
332.329	15.824	1107.039	829.365
333.343	15.987	1106.107	829.396
334.358	16.065	1105.238	829.055
335.373	15.921	1105.175	828.227
336.387	16.043	1104.141	827.978
337.402	16.063	1102.872	827.049
338.416	16.074	1102.713	826.910
339.431	16.061	1102.095	826.313
340.446	16.112	1101.512	826.050
341.460	16.187	1100.666	825.710
342.475	16.203	1100.253	825.406
343.489	16.285	1098.726	824.588
344.504	16.375	1097.709	824.192
345.519	16.326	1096.974	823.327
346.533	16.329	1096.394	822.833
347.548	16.414	1095.421	822.446
348.562	16.277	1094.996	821.387
349.577	16.252	1094.262	820.640
350.592	16.256	1093.364	819.916
351.606	16.217	1092.378	818.911
352.621	16.146	1091.934	818.161
353.635	16.144	1091.256	817.574
354.650	16.235	1090.530	817.399
355.665	16.267	1090.102	817.157
356.679	16.274	1089.426	816.614
357.694	16.405	1088.528	816.503
358.708	16.449	1087.996	816.242
359.723	16.425	1087.581	815.746
360.738	16.383	1086.833	814.907
361.752	16.308	1086.036	813.877
362.767	16.442	1085.783	814.262
363.781	16.410	1085.011	813.458
364.796	16.475	1084.657	813.431
365.810	16.460	1084.061	812.839
366.825	16.562	1083.152	812.579
367.840	16.539	1083.081	812.342
368.854	16.737	1081.836	812.288
369.869	16.652	1081.531	811.578
370.883	16.567	1080.581	810.385
371.898	16.663	1079.385	809.877
372.913	16.693	1078.878	809.566
373.927	16.718	1078.398	809.254
374.942	16.812	1077.817	809.195
375.956	16.791	1077.487	808.776
376.971	16.752	1076.717	807.940
377.986	16.751	1076.309	807.559
379.000	16.776	1076.005	807.378
380.015	16.846	1075.495	807.258
381.029	16.879	1074.691	806.741
382.044	16.914	1073.799	806.165
383.059	16.828	1073.030	805.106
384.073	16.977	1071.903	804.899
385.088	16.857	1071.545	803.990
386.102	17.031	1070.311	803.818
387.117	16.910	1069.589	802.630
388.132	16.831	1068.507	801.374
389.146	16.851	1067.889	800.934
390.161	16.846	1066.939	800.126
391.175	16.776	1066.369	799.300
392.190	16.809	1065.709	798.890
393.205	16.823	1065.067	798.405
394.219	17.011	1064.038	798.447
395.234	16.953	1063.130	797.421
396.248	16.898	1062.055	796.284
397.263	16.952	1061.353	795.943
398.278	16.946	1060.550	795.242
399.292	16.935	1060.122	794.798
400.307	16.866	1059.211	793.722
401.321	16.947	1058.701	793.648
402.336	16.952	1058.049	793.113
403.350	16.837	1057.565	792.143
404.365	16.906	1056.987	791.962
405.380	17.096	1055.609	791.744
406.394	17.058	1055.316	791.279
407.409	17.037	1054.783	790.710
408.423	17.138	1054.142	790.629
409.438	17.276	1052.759	790.165
410.453	17.309	1052.473	790.034
411.467	17.227	1051.677	788.988
412.482	17.309	1050.783	788.626
413.496	17.480	1049.869	788.663
414.511	17.350	1049.921	788.031
415.526	17.336	1049.593	787.646
416.540	17.387	1048.716	787.158
417.555	17.328	1048.654	786.767
418.569	17.345	1048.066	786.334
419.584	17.529	1047.113	786.401
420.599	17.358	1046.595	785.152
421.613	104.875	1325.961	1477.094
422.628	96.416	1366.595	1477.168
