DTS Sentinel unit serial number:	SN413079Multiplexer serial number:	ORYXHardware model number:	OX4-SRSoftware version number:	ORYX F/W v4.00 Oryx Data Collector v3.7.2.0data status	okinstallation	princeton_trtdifferential loss correction	single-endedforward channel	channel 2reverse channel	N/Adate	2019/09/10time	20:53:10forward acquisition time	60.00reverse acquisition time	0.00gamma	496.2192k internal	0.2331k external	0.2331temperature offset calibration	0.9945default loss term (dB/km)	0.3790temperature slope calibration	1.0000multiplexer offset coefficient	1.0000multiplexer slope coefficient	1.0000fibre end	0.00T internal ref (°C)	31.73T ext. ref 1 (°C)	-0.30T ext. ref 2 (°C)	25.25length (m)	temperature (°C)	Stokes	anti-Stokes-747.200	72.013	-0.221	-0.232
-746.185	193.694	0.161	-0.246
-745.171	16.085	0.374	-0.297
-744.156	138.723	0.185	0.245
-743.142	115.874	0.081	0.099
-742.127	119.323	0.127	0.159
-741.112	-8.115	0.244	-0.166
-740.098	248.728	-0.113	-0.193
-739.083	24.776	0.250	0.208
-738.069	61.864	0.246	-0.247
-737.054	19.838	-0.183	0.149
-736.039	-27.910	-0.440	-0.257
-735.025	-115.767	0.255	-0.048
-734.010	-89.044	-0.094	0.028
-732.996	219.564	-0.129	-0.208
-731.981	-58.496	-0.226	0.099
-730.966	-200.000	-0.012	0.162
-729.952	86.711	-0.078	0.086
-728.937	-200.000	-0.044	-0.218
-727.923	144.464	0.063	-0.084
-726.908	85.933	-0.151	0.168
-725.894	259.748	0.077	-0.133
-724.879	-119.485	-0.462	0.081
-723.864	131.343	0.159	0.206
-722.850	308.236	0.069	0.130
-721.835	299.659	-0.032	0.060
-720.821	104.963	0.146	-0.173
-719.806	800.000	-0.017	0.059
-718.791	-87.450	0.310	0.094
-717.777	41.609	0.164	-0.149
-716.762	-80.719	0.223	0.075
-715.748	800.000	0.116	0.404
-714.733	-86.915	0.169	-0.052
-713.718	-22.862	-0.196	-0.119
-712.704	41.327	-0.315	-0.287
-711.689	197.922	0.077	0.119
-710.675	-199.049	0.230	-0.001
-709.660	-200.000	0.032	-0.192
-708.645	-200.000	-0.016	-0.321
-707.631	-49.041	0.350	0.169
-706.616	-64.539	-0.214	0.087
-705.602	-69.375	-0.073	-0.028
-704.587	-200.000	-0.012	-0.114
-703.572	-122.171	0.369	-0.061
-702.558	-166.203	-0.326	0.014
-701.543	75.353	0.190	-0.202
-700.529	178.163	0.071	-0.104
-699.514	67.955	0.177	-0.182
-698.499	-168.397	-0.171	0.007
-697.485	-36.454	0.055	-0.030
-696.470	-54.788	0.202	0.092
-695.456	-103.445	0.223	-0.053
-694.441	-3.796	0.145	-0.101
-693.426	-31.439	-0.305	-0.172
-692.412	45.028	-0.139	-0.129
-691.397	48.205	-0.122	-0.115
-690.383	-37.455	-0.153	-0.082
-689.368	-15.589	0.247	-0.158
-688.354	-128.726	-0.195	0.028
-687.339	227.552	-0.124	0.203
-686.324	146.905	0.029	0.039
-685.310	736.458	-0.082	0.220
-684.295	-200.000	0.030	-0.174
-683.281	338.703	0.110	0.215
-682.266	-156.824	0.361	-0.022
-681.251	94.091	0.119	0.136
-680.237	800.000	0.106	-0.295
-679.222	106.884	0.071	-0.085
-678.208	-26.350	-0.226	-0.133
-677.193	-195.275	-0.056	0.000
-676.178	54.870	-0.163	0.158
-675.164	576.626	-0.042	-0.104
-674.149	-62.147	-0.135	-0.056
-673.135	29.751	0.085	0.072
-672.120	151.984	0.096	-0.131
-671.105	-39.863	0.290	-0.152
-670.091	-39.298	-0.136	-0.072
-669.076	119.576	0.306	-0.380
-668.062	134.018	-0.094	-0.123
-667.047	155.082	0.047	0.065
-666.032	45.047	0.186	0.172
-665.018	-109.497	-0.134	0.028
-664.003	-135.546	-0.206	0.025
-662.989	-101.159	0.187	0.046
-661.974	454.940	-0.049	0.110
-660.959	800.000	0.027	0.105
-659.945	-21.477	-0.378	0.232
-658.930	79.468	0.222	-0.239
-657.916	-47.521	-0.145	-0.071
-656.901	248.505	-0.279	-0.474
-655.886	46.647	-0.229	-0.213
-654.872	-77.246	0.272	-0.095
-653.857	205.708	-0.132	0.206
-652.843	-81.107	-0.439	0.146
-651.828	122.196	0.059	0.074
-650.814	-41.821	0.223	-0.115
-649.799	-80.923	-0.187	-0.062
-648.784	-200.000	-0.009	0.100
-647.770	-11.317	-0.209	-0.138
-646.755	232.608	-0.085	-0.140
-645.741	-116.664	-0.116	-0.021
-644.726	-170.198	0.066	0.002
-643.711	-85.393	0.324	-0.101
-642.697	497.600	0.131	0.301
-641.682	-90.538	0.251	-0.073
-640.668	242.131	0.067	0.112
-639.653	-200.000	0.001	-0.097
-638.638	-171.338	-0.149	0.005
-637.624	267.131	-0.171	-0.300
-636.609	-94.059	0.020	0.005
-635.595	-200.000	-0.065	-0.287
-634.580	-200.000	-0.030	-0.359
-633.565	-102.854	0.297	-0.071
-632.551	60.736	-0.161	0.160
-631.536	6.144	0.207	-0.154
-630.522	217.696	-0.013	0.020
-629.507	-83.794	0.335	-0.107
-628.492	-58.432	-0.322	0.140
-627.478	11.660	-0.125	0.096
-626.463	112.084	0.298	-0.361
-625.449	5.209	0.143	0.106
-624.434	-186.776	-0.329	-0.005
-623.419	-143.444	-0.249	-0.024
-622.405	-40.915	-0.312	-0.162
-621.390	186.919	-0.188	0.281
-620.376	30.926	0.023	-0.020
-619.361	-118.366	0.224	-0.040
-618.346	-11.870	-0.105	-0.069
-617.332	800.000	0.059	-0.207
-616.317	800.000	0.016	-0.047
-615.303	73.417	-0.083	0.087
-614.288	-58.582	0.399	0.173
-613.273	148.061	0.098	-0.132
-612.259	516.332	-0.110	-0.257
-611.244	-100.474	-0.168	-0.042
-610.230	147.729	0.168	0.226
-609.215	-152.306	-0.370	-0.027
-608.201	-200.000	-0.035	0.174
-607.186	-62.305	0.116	-0.049
-606.171	-116.757	0.236	0.043
-605.157	256.021	-0.245	-0.421
-604.142	-112.503	-0.123	0.025
-603.128	-68.656	0.237	0.092
-602.113	36.211	-0.298	0.263
-601.098	167.197	-0.005	0.007
-600.084	-6.377	-0.301	0.206
-599.069	354.826	0.063	0.126
-598.055	-54.266	0.296	0.135
-597.040	48.672	-0.286	-0.268
-596.025	39.262	-0.295	-0.265
-595.011	-200.000	-0.112	-0.495
-593.996	0.503	0.194	0.139
-592.982	-42.792	-0.132	-0.067
-591.967	21.897	0.122	0.100
-590.952	-169.695	-0.227	-0.008
-589.938	383.947	-0.195	-0.402
-588.923	-15.869	0.091	-0.058
-587.909	45.494	-0.079	-0.073
-586.894	-119.881	-0.076	0.013
-585.879	800.000	-0.047	-0.191
-584.865	91.308	-0.131	0.147
-583.850	740.102	0.064	0.172
-582.836	310.117	0.068	-0.126
-581.821	16.152	0.346	-0.272
-580.806	-35.202	0.151	0.082
-579.792	81.359	-0.077	0.083
-578.777	-119.064	-0.054	-0.009
-577.763	715.432	0.171	-0.455
-576.748	-40.804	0.069	-0.036
-575.733	290.789	0.070	-0.127
-574.719	167.925	-0.063	-0.089
-573.704	73.490	0.054	-0.057
-572.690	83.380	0.173	0.189
-571.675	-101.716	0.181	-0.044
-570.661	-200.000	-0.031	-0.233
-569.646	-83.561	0.347	0.111
-568.631	600.592	0.150	0.373
-567.617	101.168	0.152	-0.176
-566.602	-127.514	-0.372	-0.054
-565.588	731.520	0.047	-0.127
-564.573	184.814	0.083	0.123
-563.558	-66.968	0.122	-0.048
-562.544	200.837	0.111	-0.171
-561.529	-98.909	-0.245	0.062
-560.515	294.868	-0.081	0.149
-559.500	0.572	0.269	0.192
-558.485	-108.784	-0.293	0.063
-557.471	-32.318	-0.249	0.139
-556.456	156.960	0.172	0.237
-555.442	-103.193	0.232	-0.055
-554.427	800.000	0.037	0.148
-553.412	-64.328	-0.378	-0.154
-552.398	-15.251	-0.307	-0.196
-551.383	-36.838	0.249	-0.134
-550.369	-29.856	-0.128	0.073
-549.354	77.160	-0.308	0.327
-548.339	800.000	0.067	-0.189
-547.325	-200.000	0.039	0.280
-546.310	426.330	0.056	0.120
-545.296	-90.365	0.079	-0.023
-544.281	-200.000	-0.047	-0.250
-543.266	540.251	0.055	0.130
-542.252	-200.000	0.005	-0.152
-541.237	494.843	0.151	0.347
-540.223	-122.083	-0.324	-0.053
-539.208	104.073	-0.247	0.290
-538.193	-132.650	-0.299	-0.038
-537.179	25.591	-0.135	0.112
-536.164	265.629	-0.120	-0.209
-535.150	-35.458	-0.055	0.030
-534.135	-70.616	0.145	0.055
-533.121	-124.875	-0.170	-0.026
-532.106	21.062	0.029	-0.023
-531.091	231.985	0.065	-0.107
-530.077	50.647	-0.215	-0.203
-529.062	-200.000	0.033	0.246
-528.048	-141.640	0.278	0.028
-527.033	800.000	0.049	-0.144
-526.018	4.305	0.177	-0.129
-525.004	-88.836	-0.057	0.017
-523.989	-187.382	0.282	0.004
-522.975	-16.736	0.322	0.203
-521.960	800.000	-0.061	-0.170
-520.945	44.495	0.066	-0.060
-519.931	159.387	0.059	-0.082
-518.916	-68.836	0.170	0.065
-517.902	-200.000	0.025	-0.142
-516.887	-104.385	-0.136	-0.031
-515.872	541.768	-0.040	0.095
-514.858	-200.000	0.004	-0.167
-513.843	-141.332	-0.337	-0.034
-512.829	-200.000	0.014	-0.123
-511.814	800.000	0.048	0.177
-510.799	1.471	0.102	0.073
-509.785	95.363	-0.118	0.134
-508.770	-50.153	-0.122	-0.057
-507.756	-200.000	0.021	0.113
-506.741	-200.000	0.063	-0.397
-505.726	-78.272	-0.310	0.106
-504.712	62.904	-0.379	0.378
-503.697	314.304	-0.055	0.103
-502.683	-34.598	0.170	0.093
-501.668	96.334	0.068	0.077
-500.653	-109.650	-0.201	-0.042
-499.639	17.056	0.247	0.195
-498.624	-77.441	-0.177	-0.061
-497.610	65.163	-0.274	0.276
-496.595	790.597	-0.020	-0.054
-495.581	-131.352	-0.143	0.019
-494.566	2.962	0.133	0.097
-493.551	505.820	-0.017	0.040
-492.537	38.931	0.118	0.105
-491.522	69.342	0.367	0.376
-490.508	-124.500	0.117	-0.018
-489.493	460.642	-0.072	0.159
-488.478	230.923	0.196	0.320
-487.464	-88.881	-0.593	0.175
-486.449	191.792	0.105	-0.158
-485.435	-200.000	0.025	-0.165
-484.420	790.516	-0.067	-0.184
-483.405	-55.735	0.164	0.073
-482.391	181.797	0.046	-0.067
-481.376	56.017	-0.085	0.082
-480.362	162.191	0.170	0.238
-479.347	800.000	0.011	0.045
-478.332	800.000	0.025	-0.094
-477.318	-15.732	0.291	-0.185
-476.303	-125.979	0.295	-0.044
-475.289	-103.121	0.077	-0.018
-474.274	800.000	0.041	-0.176
-473.259	-125.739	0.312	0.047
-472.245	-76.302	-0.230	-0.081
-471.230	161.250	0.051	0.071
-470.216	81.537	-0.079	0.085
-469.201	-200.000	-0.051	0.252
-468.186	-200.000	-0.003	-0.179
-467.172	-112.637	0.237	-0.047
-466.157	-200.000	0.031	0.286
-465.143	709.020	-0.056	0.147
-464.128	-131.400	0.265	0.035
-463.113	-4.985	0.334	0.229
-462.099	-60.436	0.284	-0.120
-461.084	-94.990	0.085	0.023
-460.070	2.450	0.313	-0.226
-459.055	147.541	0.117	-0.157
-458.040	417.826	-0.024	0.052
-457.026	-50.747	0.177	-0.083
-456.011	-200.000	0.000	0.089
-454.997	10.361	-0.169	0.128
-453.982	-200.000	0.056	0.255
-452.968	-100.849	-0.074	0.018
-451.953	800.000	0.071	-0.199
-450.938	338.126	-0.199	-0.385
-449.924	585.522	0.009	-0.022
-448.909	-149.603	0.382	-0.030
-447.895	-186.826	0.340	0.005
-446.880	184.451	0.194	-0.286
-445.865	-87.909	0.221	-0.066
-444.851	579.254	0.052	0.126
-443.836	800.000	0.030	-0.090
-442.822	299.799	-0.114	-0.210
-441.807	-87.866	0.180	0.054
-440.792	262.781	0.128	0.221
-439.778	153.831	-0.039	0.053
-438.763	159.632	-0.081	0.113
-437.749	400.124	0.139	-0.291
-436.734	-63.337	0.152	0.062
-435.719	68.158	-0.137	0.140
-434.705	-87.334	-0.369	0.111
-433.690	-200.000	0.033	-0.306
-432.676	-77.682	-0.170	0.059
-431.661	-200.000	-0.012	0.244
-430.646	-200.000	0.010	-0.106
-429.632	-200.000	-0.007	-0.037
-428.617	800.000	0.002	-0.006
-427.603	-72.579	0.182	-0.067
-426.588	71.505	0.097	-0.100
-425.573	-112.069	0.346	-0.069
-424.559	-107.085	0.331	-0.073
-423.544	-200.000	-0.053	0.345
-422.530	-81.116	-0.233	0.077
-421.515	-25.534	-0.106	-0.062
-420.500	-88.802	-0.094	0.028
-419.486	56.020	0.099	-0.096
-418.471	52.883	0.186	-0.176
-417.457	-1.569	-0.261	-0.183
-416.442	-130.458	0.261	-0.035
-415.428	-21.092	-0.119	0.072
-414.413	-200.000	-0.018	-0.092
-413.398	-47.142	0.214	-0.104
-412.384	249.165	0.127	0.214
-411.369	354.258	-0.056	-0.111
-410.355	-200.000	0.014	-0.170
-409.340	-116.981	-0.390	0.071
-408.325	-52.943	-0.275	0.126
-407.311	-72.298	-0.301	0.111
-406.296	13.403	0.157	0.121
-405.282	-124.908	-0.213	-0.033
-404.267	-109.836	0.217	0.045
-403.252	-200.000	-0.000	-0.217
-402.238	28.233	0.047	0.039
-401.223	-200.000	0.003	-0.127
-400.209	198.998	0.044	-0.067
-399.194	-81.748	0.188	0.061
-398.179	119.156	-0.351	0.431
-397.165	114.308	-0.178	0.215
-396.150	-134.121	0.176	-0.022
-395.136	45.475	-0.196	0.180
-394.121	42.235	-0.188	-0.169
-393.106	135.306	0.233	0.301
-392.092	514.759	0.013	0.031
-391.077	-200.000	-0.010	-0.269
-390.063	-200.000	0.005	0.293
-389.048	14.984	0.186	0.145
-388.033	-200.000	-0.004	0.063
-387.019	-99.013	-0.273	0.069
-386.004	-200.000	-0.021	-0.158
-384.990	61.999	0.109	-0.108
-383.975	800.000	0.085	-0.264
-382.960	-99.197	-0.195	-0.049
-381.946	-129.357	-0.259	-0.036
-380.931	36.151	0.220	0.193
-379.917	-62.565	-0.221	0.091
-378.902	-181.062	-0.262	-0.005
-377.888	-200.000	-0.021	-0.286
-376.873	511.793	-0.049	-0.113
-375.858	-13.682	-0.119	-0.076
-374.844	418.842	-0.090	-0.191
-373.829	191.949	0.105	0.157
-372.815	800.000	0.141	-0.395
-371.800	81.346	0.037	0.040
-370.785	22.105	-0.077	-0.062
-369.771	800.000	-0.090	0.277
-368.756	-115.919	0.052	-0.010
-367.742	-127.067	0.052	0.007
-366.727	247.773	-0.207	0.347
-365.712	323.936	0.166	0.315
-364.698	-200.000	-0.011	0.075
-363.683	-110.633	0.098	-0.020
-362.669	-40.793	0.274	0.141
-361.654	-140.017	0.111	0.012
-360.639	460.206	0.132	0.290
-359.625	49.451	-0.151	-0.141
-358.610	-2.917	-0.194	0.134
-357.596	-49.682	-0.332	0.157
-356.581	588.074	-0.071	0.175
-355.566	13.777	0.202	0.156
-354.552	800.000	0.088	0.310
-353.537	-178.741	-0.173	-0.004
-352.523	56.216	0.307	0.296
-351.508	296.880	0.111	-0.201
-350.493	47.329	-0.336	-0.310
-349.479	-20.504	0.193	-0.118
-348.464	-113.052	-0.127	-0.025
-347.450	-13.275	-0.012	0.007
-346.435	155.141	0.127	-0.173
-345.420	-75.280	-0.197	0.070
-344.406	-14.162	-0.180	-0.115
-343.391	-82.036	0.290	-0.094
-342.377	-4.696	-0.100	0.068
-341.362	34.852	-0.233	0.202
-340.348	800.000	0.038	-0.110
-339.333	155.557	-0.138	0.188
-338.318	-200.000	0.018	-0.199
-337.304	-59.921	-0.300	-0.127
-336.289	51.868	0.140	-0.132
-335.275	-179.838	-0.372	-0.008
-334.260	173.477	0.011	0.015
-333.245	-200.000	0.037	0.287
-332.231	54.865	0.192	-0.183
-331.216	-200.000	-0.019	-0.254
-330.202	-140.006	0.179	0.019
-329.187	-2.462	0.161	-0.112
-328.172	294.230	0.129	0.233
-327.158	-200.000	-0.024	-0.353
-326.143	-9.678	0.162	-0.107
-325.129	178.172	0.116	-0.168
-324.114	83.193	0.089	0.096
-323.099	580.543	0.191	-0.464
-322.085	-31.164	0.242	-0.135
-321.070	-200.000	0.072	-0.388
-320.056	-97.952	0.381	0.097
-319.041	124.055	0.122	0.151
-318.026	-153.214	-0.193	-0.013
-317.012	-128.549	0.342	-0.048
-315.997	-0.438	-0.239	-0.168
-314.983	-3.462	-0.072	-0.050
-313.968	48.520	0.140	-0.130
-312.953	-63.360	-0.243	0.099
-311.939	-85.995	0.476	-0.146
-310.924	800.000	0.111	0.320
-309.910	473.073	-0.051	0.115
-308.895	-200.000	-0.053	-0.267
-307.880	-186.785	0.258	-0.004
-306.866	800.000	0.008	-0.029
-305.851	131.895	0.122	-0.155
-304.837	220.131	-0.048	0.076
-303.822	-46.926	-0.369	0.179
-302.807	433.570	0.130	0.279
-301.793	-200.000	-0.032	0.158
-300.778	3.158	-0.326	0.234
-299.764	-102.296	0.200	0.047
-298.749	279.901	0.090	0.159
-297.735	-77.679	0.268	-0.092
-296.720	-24.336	0.060	0.035
-295.705	-49.825	0.211	0.099
-294.691	-2.068	-0.092	0.064
-293.676	-163.220	-0.399	0.019
-292.662	-21.677	-0.142	0.085
-291.647	-78.171	-0.277	0.094
-290.632	-25.619	-0.142	-0.083
-289.618	599.906	-0.151	0.371
-288.603	257.572	0.161	0.274
-287.589	-12.892	-0.274	-0.176
-286.574	-200.000	-0.247	-0.001
-285.559	-200.000	-0.286	0.001
-284.545	-15.246	-0.084	-0.053
-283.530	172.610	-0.151	0.215
-282.516	-31.690	-0.166	0.092
-281.501	-81.420	0.358	-0.117
-280.486	-81.038	-0.201	0.066
-279.472	-74.479	-0.375	0.134
-278.457	-81.381	0.140	0.046
-277.443	-65.566	0.086	0.034
-276.428	-84.185	0.149	-0.047
-275.413	-124.589	-0.401	-0.062
-274.399	-200.000	-0.012	0.100
-273.384	79.568	0.009	0.010
-272.370	-109.838	0.063	-0.013
-271.355	-28.418	-0.484	0.276
-270.340	-74.641	-0.174	-0.062
-269.326	300.922	-0.119	-0.216
-268.311	224.819	0.161	-0.258
-267.297	-149.734	0.263	0.020
-266.282	-78.149	-0.497	-0.169
-265.267	209.673	0.068	0.105
-264.253	-200.000	0.002	-0.377
-263.238	-146.773	-0.304	-0.026
-262.224	405.337	0.103	-0.215
-261.209	-200.000	-0.019	-0.103
-260.195	229.399	0.111	-0.180
-259.180	-42.023	0.300	0.152
-258.165	-42.924	0.255	0.128
-257.151	-200.000	-0.012	0.113
-256.136	6.958	-0.157	-0.116
-255.122	78.137	0.099	0.105
-254.107	-169.050	0.135	0.005
-253.092	-134.826	0.415	0.050
-252.078	-117.145	0.360	0.065
-251.063	800.000	-0.119	-0.396
-250.049	150.138	0.063	0.085
-249.034	252.825	0.093	0.157
-248.019	-120.953	0.114	0.019
-247.005	-31.104	-0.222	-0.124
-245.990	-81.447	0.306	0.099
-244.976	-200.000	-0.038	-0.317
-243.961	-74.271	0.240	-0.086
-242.946	-200.000	0.065	-0.297
-241.932	101.319	0.127	-0.146
-240.917	-120.428	-0.260	0.044
-239.903	530.918	-0.152	-0.354
-238.888	-102.578	-0.222	-0.052
-237.873	-114.579	0.193	0.037
-236.859	223.880	-0.026	0.041
-235.844	22.160	0.146	0.117
-234.830	8.692	-0.171	0.127
-233.815	-200.000	-0.007	-0.062
-232.800	-40.796	-0.166	-0.085
-231.786	-131.899	-0.110	0.014
-230.771	-48.639	-0.310	0.147
-229.757	-126.850	-0.136	-0.020
-228.742	-96.450	-0.387	0.101
-227.727	757.097	0.073	-0.194
-226.713	-26.529	-0.193	0.111
-225.698	56.776	-0.192	-0.184
-224.684	-37.760	0.124	0.065
-223.669	-148.101	0.220	-0.018
-222.655	55.639	-0.303	0.289
-221.640	800.000	0.022	0.088
-220.625	98.308	0.162	0.184
-219.611	-79.054	0.025	-0.008
-218.596	-200.000	-0.005	-0.041
-217.582	-150.188	0.420	-0.032
-216.567	480.380	-0.053	0.119
-215.552	-54.664	-0.254	0.113
-214.538	27.983	0.152	0.127
-213.523	44.738	-0.294	0.267
-212.509	-200.000	-0.061	-0.324
-211.494	188.137	0.155	0.228
-210.479	-109.366	-0.254	-0.053
-209.465	-200.000	0.050	0.285
-208.450	76.097	0.196	0.204
-207.436	43.748	0.329	-0.297
-206.421	-0.096	0.098	0.069
-205.406	-200.000	-0.073	0.336
-204.392	-86.908	-0.192	0.058
-203.377	-79.880	0.117	0.039
-202.363	-46.230	0.125	-0.061
-201.348	49.792	-0.198	0.184
-200.333	658.131	0.031	-0.080
-199.319	-49.016	0.355	0.168
-198.304	116.916	-0.141	-0.171
-197.290	450.026	-0.209	-0.454
-196.275	-143.620	0.108	-0.010
-195.260	-200.000	0.013	0.327
-194.246	106.707	-0.118	-0.138
-193.231	-51.744	-0.200	-0.092
-192.217	-139.990	-0.232	0.024
-191.202	-99.773	-0.104	0.026
-190.187	375.290	0.094	0.188
-189.173	-1.558	0.139	0.097
-188.158	-200.000	-0.045	-0.240
-187.144	-49.078	-0.174	0.082
-186.129	401.620	0.089	0.184
-185.114	80.770	-0.096	0.102
-184.100	800.000	-0.115	-0.316
-183.085	800.000	0.152	0.431
-182.071	50.172	0.268	-0.249
-181.056	-200.000	-0.019	0.137
-180.042	130.001	0.082	-0.103
-179.027	-200.000	-0.013	0.171
-178.012	-53.141	-0.139	-0.063
-176.998	-101.801	0.148	-0.035
-175.983	267.941	-0.175	-0.301
-174.969	75.784	-0.275	-0.286
-173.954	800.000	-0.051	-0.146
-172.939	102.714	-0.239	-0.275
-171.925	-161.984	-0.119	0.006
-170.910	87.560	-0.240	-0.261
-169.896	800.000	-0.084	0.242
-168.881	-200.000	-0.037	0.182
-167.866	24.475	0.387	-0.315
-166.852	-200.000	0.015	-0.143
-165.837	-97.680	-0.229	-0.058
-164.823	-59.472	0.376	0.159
-163.808	-111.467	-0.393	0.079
-162.793	-30.940	0.216	-0.120
-161.779	-133.776	0.123	0.015
-160.764	800.000	-0.120	0.342
-159.750	-41.924	0.211	0.107
-158.735	141.203	-0.179	0.233
-157.720	-11.588	0.332	0.215
-156.706	800.000	0.039	0.143
-155.691	153.117	0.124	-0.166
-154.677	-105.939	0.189	-0.042
-153.662	-19.875	0.100	0.061
-152.647	40.341	0.106	0.094
-151.633	172.217	-0.093	-0.132
-150.618	-24.640	0.111	-0.065
-149.604	164.156	0.068	0.094
-148.589	-136.017	0.309	0.036
-147.574	9.463	-0.101	-0.076
-146.560	208.028	-0.161	0.247
-145.545	163.475	0.222	0.307
-144.531	-200.000	0.012	0.180
-143.516	-127.029	-0.285	-0.041
-142.502	-200.000	0.014	0.397
-141.487	-165.056	0.067	0.003
-140.472	372.093	0.052	0.104
-139.458	-200.000	-0.034	0.199
-138.443	-72.323	-0.296	-0.108
-137.429	-148.950	0.206	-0.016
-136.414	-33.545	0.214	0.116
-135.399	190.187	0.175	0.258
-134.385	47.115	-0.302	-0.276
-133.370	786.232	-0.045	0.121
-132.356	-200.000	-0.028	0.278
-131.341	-90.230	0.113	0.032
-130.326	126.287	0.066	-0.083
-129.312	-35.161	-0.105	0.056
-128.297	-200.000	-0.026	0.181
-127.283	-75.052	0.136	-0.048
-126.268	-200.000	0.005	0.035
-125.253	800.000	0.104	-0.332
-124.239	3.620	0.164	-0.117
-123.224	-117.501	-0.098	0.017
-122.210	-200.000	0.000	0.141
-121.195	-30.184	-0.144	0.081
-120.180	44.482	0.079	0.071
-119.166	800.000	0.039	0.150
-118.151	-100.369	0.164	-0.040
-117.137	187.095	0.016	-0.023
-116.122	267.875	-0.159	0.274
-115.107	14.470	-0.188	-0.144
-114.093	569.231	0.148	-0.354
-113.078	184.218	0.114	-0.165
-112.064	-41.426	-0.129	0.065
-111.049	-200.000	-0.050	-0.260
-110.034	747.786	-0.017	-0.046
-109.020	-200.000	0.007	0.386
-108.005	71.869	-0.106	0.108
-106.991	-188.118	-0.238	-0.003
-105.976	-75.549	0.044	-0.015
-104.962	-200.000	0.058	-0.456
-103.947	-200.000	0.067	-0.455
-102.932	-108.952	-0.147	-0.031
-101.918	421.186	-0.127	0.267
-100.903	-56.565	0.200	0.087
-99.889	154.254	0.184	0.247
-98.874	-48.736	0.253	0.119
-97.859	-105.277	-0.347	-0.078
-96.845	90.400	0.143	0.157
-95.830	315.513	-0.152	0.281
-94.816	258.877	-0.118	0.200
-93.801	-200.000	0.022	0.185
-92.786	-30.928	0.242	-0.134
-91.772	-86.615	0.141	-0.042
-90.757	41.237	0.212	-0.188
-89.743	-200.000	-0.010	0.125
-88.728	-159.507	0.438	-0.024
-87.713	-129.501	0.150	0.020
-86.699	-163.123	0.150	0.007
-85.684	-200.000	0.048	0.298
-84.670	-200.000	0.015	0.256
-83.655	6.802	-0.067	0.049
-82.640	-200.000	-0.027	-0.168
-81.626	127.525	-0.196	0.244
-80.611	312.269	0.046	0.084
-79.597	-47.042	0.116	0.056
-78.582	1.218	-0.143	-0.101
-77.567	-26.422	0.191	-0.110
-76.553	32.233	0.211	-0.178
-75.538	-200.000	-0.001	-0.106
-74.524	536.622	0.093	-0.217
-73.509	-26.252	0.158	0.091
-72.494	138.890	0.203	0.261
-71.480	-135.822	-0.226	-0.026
-70.465	-200.000	-0.052	0.467
-69.451	-200.000	-0.027	-0.349
-68.436	-122.553	0.232	0.037
-67.422	394.030	0.131	0.267
-66.407	41.140	0.103	0.091
-65.392	800.000	-0.073	-0.249
-64.378	-73.343	0.183	-0.065
-63.363	-200.000	-0.052	0.332
-62.349	272.773	-0.112	-0.194
-61.334	-28.477	-1.424	-0.805
-60.319	311.589	0.313	0.575
-59.305	-200.000	-0.162	-0.886
-58.290	224.475	0.751	1.190
-57.276	545.237	0.653	1.529
-56.261	-200.000	97.378	606.383
-55.246	618.897	1395.474	3434.742
-54.232	193.296	2594.417	3843.832
-53.217	111.798	2273.988	2689.563
-52.203	41.400	1894.122	1678.772
-51.188	35.042	1683.112	1443.925
-50.173	32.321	1639.136	1386.122
-49.159	49.972	1686.671	1558.613
-48.144	51.551	1702.799	1585.249
-47.130	34.692	1662.522	1423.429
-46.115	31.886	1648.572	1390.654
-45.100	31.653	1644.018	1385.033
-44.086	31.701	1640.965	1382.759
-43.071	31.604	1638.420	1379.844
-42.057	31.595	1636.370	1377.996
-41.042	31.671	1634.085	1376.581
-40.027	31.604	1632.478	1374.681
-39.013	31.545	1630.670	1372.672
-37.998	31.478	1629.288	1370.962
-36.984	31.547	1627.802	1370.164
-35.969	31.676	1625.858	1369.410
-34.954	31.795	1623.656	1368.372
-33.940	31.702	1622.277	1366.481
-32.925	31.781	1620.674	1365.652
-31.911	31.743	1619.148	1364.030
-30.896	31.794	1616.588	1362.195
-29.881	31.689	1615.680	1360.611
-28.867	31.680	1614.014	1359.089
-27.852	31.741	1612.338	1358.065
-26.838	31.716	1610.580	1356.348
-25.823	31.851	1609.310	1356.202
-24.809	31.853	1608.325	1355.332
-23.794	31.766	1606.201	1352.863
-22.779	31.841	1605.344	1352.625
-21.765	31.708	1604.117	1350.583
-20.750	31.764	1601.851	1349.024
-19.736	31.793	1600.729	1348.234
-18.721	31.733	1599.515	1346.725
-17.706	31.768	1597.748	1345.433
-16.692	31.825	1595.908	1344.240
-15.677	31.728	1595.446	1343.105
-14.663	31.853	1593.860	1342.612
-13.648	31.777	1592.390	1340.774
-12.633	31.808	1590.858	1339.655
-11.619	31.718	1589.460	1337.779
-10.604	31.730	1587.620	1336.267
-9.590	31.740	1586.364	1335.224
-8.575	31.835	1585.032	1334.727
-7.560	31.715	1583.955	1332.912
-6.546	31.787	1582.849	1332.440
-5.531	31.739	1581.890	1331.244
-4.517	31.679	1580.304	1329.429
-3.502	31.811	1578.981	1329.195
-2.487	31.786	1577.713	1327.899
-1.473	31.579	1565.553	1316.157
-0.458	28.494	1546.467	1278.589
0.556	22.585	1546.172	1245.762
1.571	20.184	1569.790	1247.432
2.586	19.893	1583.121	1255.800
3.600	18.025	1531.610	1201.708
4.615	9.498	1422.180	1059.835
5.629	1.319	1357.003	959.634
6.644	-0.178	1348.607	944.205
7.659	-0.293	1346.925	942.220
8.673	-0.387	1346.538	941.277
9.688	-0.352	1344.364	939.892
10.702	-0.641	1341.446	935.963
11.717	2.368	1346.974	958.609
12.731	11.566	1363.983	1028.781
13.746	18.533	1375.862	1081.755
14.761	19.845	1377.251	1091.032
15.775	19.971	1376.854	1091.419
16.790	20.024	1376.141	1091.088
17.804	20.112	1375.370	1090.934
18.819	20.291	1375.505	1092.069
19.834	20.409	1374.377	1091.821
20.848	20.339	1374.345	1091.258
21.863	20.465	1372.907	1090.813
22.877	20.377	1372.481	1089.827
23.892	20.409	1371.207	1088.917
24.907	20.403	1370.515	1088.235
25.921	20.410	1369.320	1087.229
26.936	20.422	1368.633	1086.666
27.950	20.360	1367.775	1085.499
28.965	20.323	1366.736	1084.349
29.980	20.444	1364.835	1083.498
30.994	20.436	1363.542	1082.325
32.009	20.383	1363.107	1081.558
33.023	20.338	1361.981	1080.289
34.038	20.336	1360.698	1079.160
35.053	20.389	1359.757	1078.647
36.067	20.494	1358.447	1078.166
37.082	20.403	1357.220	1076.535
38.096	20.354	1356.453	1075.524
39.111	20.260	1356.171	1074.622
40.126	20.422	1354.820	1074.460
41.140	20.393	1354.766	1074.145
42.155	20.401	1354.223	1073.668
43.169	20.485	1353.964	1073.889
44.184	20.473	1353.528	1073.373
45.199	20.467	1352.979	1072.801
46.213	20.423	1352.637	1072.167
47.228	20.425	1351.593	1071.256
48.242	20.492	1350.061	1070.361
49.257	20.367	1349.073	1068.712
50.271	20.469	1347.612	1068.090
51.286	20.376	1346.499	1066.540
52.301	20.349	1344.848	1064.972
53.315	20.378	1343.884	1064.295
54.330	20.396	1343.590	1064.078
55.344	20.384	1342.531	1063.067
56.359	20.438	1341.057	1062.140
57.374	20.380	1340.501	1061.250
58.388	20.459	1339.656	1060.967
59.403	20.318	1339.698	1060.048
60.417	20.437	1338.574	1059.789
61.432	20.361	1338.135	1058.883
62.447	20.494	1336.579	1058.370
63.461	20.437	1335.436	1057.024
64.476	20.419	1334.813	1056.327
65.490	20.426	1333.357	1055.124
66.505	20.376	1332.204	1053.818
67.520	20.438	1331.024	1053.166
68.534	20.550	1329.441	1052.496
69.549	20.476	1328.738	1051.404
70.563	20.505	1327.585	1050.572
71.578	20.452	1326.298	1049.138
72.593	20.441	1326.119	1048.839
73.607	20.389	1325.559	1047.990
74.622	20.370	1324.711	1047.111
75.636	20.360	1323.844	1046.274
76.651	20.428	1323.058	1045.967
77.666	20.469	1322.480	1045.665
78.680	20.579	1321.714	1045.629
79.695	20.468	1321.174	1044.442
80.709	20.367	1320.748	1043.405
81.724	20.389	1319.571	1042.513
82.739	20.484	1318.316	1042.002
83.753	20.421	1317.723	1041.062
84.768	20.372	1316.543	1039.748
85.782	20.402	1315.580	1039.075
86.797	20.527	1313.670	1038.220
87.812	20.582	1312.510	1037.538
88.826	20.435	1312.044	1036.203
89.841	20.448	1310.442	1034.925
90.855	20.561	1309.824	1035.016
91.870	20.556	1308.255	1033.654
92.884	20.489	1307.779	1032.788
93.899	20.542	1306.742	1032.194
94.914	20.559	1306.451	1031.974
95.928	20.492	1305.639	1030.842
96.943	20.609	1304.858	1030.826
97.957	20.408	1304.641	1029.373
98.972	20.506	1303.235	1028.756
99.987	20.537	1302.147	1027.987
101.001	20.576	1300.966	1027.193
102.016	20.555	1299.896	1026.135
103.030	20.484	1299.532	1025.340
104.045	20.431	1298.899	1024.436
105.060	20.474	1297.647	1023.611
106.074	20.558	1296.278	1022.931
107.089	20.524	1295.228	1021.816
108.103	20.575	1294.312	1021.304
109.118	20.484	1293.161	1019.772
110.133	20.672	1291.475	1019.453
111.147	20.637	1289.874	1017.890
112.162	20.569	1289.454	1017.070
113.176	20.597	1288.304	1016.239
114.191	20.620	1287.303	1015.497
115.206	20.568	1286.244	1014.268
116.220	20.631	1284.961	1013.534
117.235	20.571	1283.880	1012.239
118.249	20.560	1283.163	1011.522
119.264	20.500	1282.399	1010.481
120.279	20.591	1281.391	1010.123
121.293	20.639	1280.416	1009.544
122.308	20.617	1279.532	1008.631
123.322	20.621	1278.404	1007.676
124.337	20.613	1277.188	1006.584
125.352	20.655	1276.412	1006.123
126.366	20.677	1275.516	1005.456
127.381	20.774	1274.305	1004.974
128.395	20.657	1273.887	1003.882
129.410	20.624	1272.844	1002.781
130.424	20.755	1271.662	1002.512
131.439	20.652	1270.596	1000.993
132.454	20.636	1270.139	1000.452
133.468	20.593	1269.239	999.409
134.483	20.498	1268.960	998.552
135.497	20.584	1267.594	997.880
136.512	20.656	1266.699	997.502
137.527	20.649	1265.549	996.469
138.541	20.556	1264.125	994.728
139.556	20.578	1262.818	993.737
140.570	20.492	1262.178	992.656
141.585	20.568	1260.881	991.978
142.600	20.504	1259.781	990.664
143.614	20.574	1258.699	990.121
144.629	20.636	1257.483	989.432
145.643	20.419	1256.765	987.546
146.658	20.519	1255.468	987.003
147.673	20.641	1254.232	986.636
148.687	20.476	1253.515	985.050
149.702	20.563	1251.939	984.218
150.716	20.550	1251.078	983.380
151.731	20.487	1250.417	982.419
152.746	20.691	1248.801	982.211
153.760	20.544	1248.168	980.801
154.775	20.539	1247.214	979.934
155.789	20.627	1246.040	979.418
156.804	20.706	1244.786	978.796
157.819	20.565	1244.341	977.565
158.833	20.564	1243.971	977.181
159.848	20.700	1243.004	977.100
160.862	20.742	1241.909	976.389
161.877	20.649	1241.071	975.120
162.892	20.597	1240.248	974.098
163.906	20.739	1239.199	973.979
164.921	20.698	1239.017	973.522
165.935	20.796	1237.777	973.008
166.950	20.701	1237.479	972.160
167.964	20.760	1236.796	971.864
168.979	20.667	1236.300	970.868
169.994	20.703	1235.502	970.359
171.008	20.750	1234.956	970.106
172.023	20.676	1234.270	969.067
173.037	20.634	1233.703	968.306
174.052	20.708	1232.782	967.907
175.067	20.632	1231.743	966.582
176.081	20.811	1230.796	966.749
177.096	20.656	1230.183	965.324
178.110	20.669	1229.245	964.573
179.125	20.603	1228.397	963.457
180.140	20.629	1227.835	963.075
181.154	20.670	1226.296	962.009
182.169	20.686	1225.273	961.207
183.183	20.746	1224.227	960.634
184.198	20.894	1222.544	960.047
185.213	20.855	1221.707	959.089
186.227	20.772	1221.329	958.251
187.242	20.703	1220.464	957.106
188.256	20.871	1219.275	957.014
189.271	20.726	1218.956	955.878
190.286	20.811	1218.005	955.518
191.300	20.812	1217.497	955.040
192.315	20.778	1216.939	954.334
193.329	20.827	1216.391	954.086
194.344	20.897	1215.758	953.888
195.359	20.861	1215.193	953.162
196.373	20.727	1215.162	952.323
197.388	20.804	1214.555	952.183
198.402	20.804	1214.033	951.688
199.417	20.816	1213.367	951.146
200.432	20.854	1213.046	951.021
201.446	20.797	1212.103	949.887
202.461	20.745	1211.710	949.209
203.475	20.773	1210.365	948.226
204.490	20.819	1209.565	947.763
205.504	20.776	1208.525	946.633
206.519	20.914	1207.366	946.391
207.534	20.883	1206.737	945.645
208.548	20.808	1205.646	944.301
209.563	20.942	1205.242	944.627
210.577	20.873	1203.953	943.156
211.592	20.944	1203.273	942.927
212.607	21.000	1202.308	942.391
213.621	20.891	1201.708	941.247
214.636	20.933	1201.057	940.878
215.650	20.870	1200.394	939.939
216.665	20.951	1199.043	939.234
217.680	20.934	1198.073	938.299
218.694	20.896	1197.682	937.704
219.709	20.879	1197.303	937.232
220.723	21.047	1195.939	936.985
221.738	20.894	1195.788	935.960
222.753	20.905	1194.954	935.287
223.767	21.043	1194.151	935.314
224.782	21.082	1193.734	935.112
225.796	21.051	1193.024	934.308
226.811	20.963	1192.420	933.282
227.826	20.910	1192.303	932.826
228.840	21.124	1190.778	932.692
229.855	21.000	1190.931	932.065
230.869	21.075	1189.627	931.366
231.884	20.989	1189.633	930.830
232.899	20.948	1188.651	929.759
233.913	20.992	1188.020	929.414
234.928	20.991	1187.951	929.274
235.942	21.082	1187.108	929.017
236.957	21.045	1186.091	927.945
237.972	20.947	1185.629	926.982
238.986	20.960	1184.933	926.423
240.001	21.156	1184.325	926.907
241.015	21.156	1183.530	926.200
242.030	21.252	1182.483	925.810
243.045	21.154	1181.883	924.739
244.059	21.137	1181.218	924.047
245.074	21.219	1180.247	923.637
246.088	21.275	1179.316	923.126
247.103	21.260	1178.653	922.442
248.117	21.123	1177.822	920.987
249.132	21.121	1177.636	920.753
250.147	21.224	1176.742	920.516
251.161	21.346	1175.703	920.261
252.176	21.225	1175.634	919.489
253.190	21.264	1174.710	918.888
254.205	21.289	1174.273	918.598
255.220	21.194	1173.755	917.614
256.234	21.254	1173.132	917.362
257.249	21.300	1172.276	916.853
258.263	21.256	1172.024	916.342
259.278	21.404	1171.467	916.602
260.293	21.339	1170.635	915.529
261.307	21.392	1169.871	915.127
262.322	21.338	1169.791	914.699
263.336	21.263	1168.843	913.486
264.351	21.278	1168.628	913.316
265.366	21.266	1167.728	912.471
266.380	21.247	1166.914	911.655
267.395	21.216	1166.267	910.904
268.409	21.285	1165.158	910.318
269.424	21.412	1164.837	910.649
270.439	21.281	1164.702	909.781
271.453	21.290	1163.824	909.062
272.468	21.292	1163.196	908.501
273.482	21.402	1162.325	908.309
274.497	21.326	1161.911	907.513
275.512	21.382	1161.284	907.233
276.526	21.383	1160.557	906.591
277.541	21.465	1159.622	906.206
278.555	21.473	1159.167	905.810
279.570	21.524	1158.075	905.139
280.585	21.486	1157.775	904.628
281.599	21.480	1157.148	904.026
282.614	21.387	1156.132	902.673
283.628	21.425	1155.334	902.169
284.643	21.395	1154.826	901.537
285.657	21.528	1153.318	900.966
286.672	21.509	1152.716	900.318
287.687	21.588	1151.850	899.965
288.701	21.504	1151.526	899.204
289.716	21.565	1150.960	898.993
290.730	21.533	1149.945	897.958
291.745	21.597	1149.275	897.684
292.760	21.571	1148.831	897.125
293.774	21.660	1148.332	897.111
294.789	21.614	1148.013	896.546
295.803	21.677	1147.027	896.019
296.818	21.588	1146.583	895.138
297.833	21.668	1145.667	894.752
298.847	21.641	1145.164	894.145
299.862	21.597	1144.427	893.265
300.876	21.536	1144.343	892.805
301.891	21.617	1142.870	891.990
302.906	21.691	1142.603	892.079
303.920	21.744	1141.864	891.696
304.935	21.678	1141.283	890.825
305.949	21.680	1140.836	890.411
306.964	21.724	1140.028	889.924
307.979	21.754	1139.335	889.456
308.993	21.818	1139.045	889.477
310.008	21.780	1137.700	888.153
311.022	21.864	1137.217	888.123
312.037	21.742	1136.545	886.901
313.052	21.750	1135.532	886.073
314.066	21.825	1134.574	885.625
315.081	21.724	1134.229	884.770
316.095	21.882	1133.136	884.637
317.110	21.887	1132.703	884.245
318.125	21.841	1131.857	883.276
319.139	21.820	1131.414	882.743
320.154	21.897	1130.828	882.595
321.168	21.815	1130.635	881.958
322.183	21.794	1130.192	881.428
323.197	21.772	1129.306	880.546
324.212	21.940	1128.207	880.456
325.227	21.922	1127.887	880.035
326.241	21.956	1127.403	879.751
327.256	21.968	1126.674	879.167
328.270	21.935	1125.646	878.118
329.285	21.855	1125.446	877.487
330.300	21.925	1124.318	876.878
331.314	21.930	1123.364	876.084
332.329	21.976	1122.578	875.622
333.343	22.025	1121.709	875.109
334.358	22.035	1121.131	874.631
335.373	22.006	1120.726	874.096
336.387	21.910	1120.054	873.016
337.402	22.005	1118.879	872.496
338.416	22.081	1118.249	872.302
339.431	21.939	1118.018	871.341
340.446	22.048	1117.431	871.347
341.460	22.075	1116.633	870.783
342.475	22.076	1115.771	870.034
343.489	22.033	1114.950	869.105
344.504	22.051	1114.156	868.501
345.519	22.161	1113.361	868.349
346.533	22.127	1112.596	867.505
347.548	22.065	1112.262	866.861
348.562	22.207	1110.967	866.475
349.577	22.093	1110.975	865.843
350.592	22.094	1110.224	865.185
351.606	22.125	1109.356	864.588
352.621	22.173	1108.772	864.292
353.635	22.160	1108.129	863.649
354.650	22.323	1107.293	863.723
355.665	22.174	1106.636	862.401
356.679	22.353	1106.225	862.881
357.694	22.240	1105.545	861.721
358.708	22.182	1104.991	860.929
359.723	22.188	1104.397	860.423
360.738	22.151	1103.562	859.511
361.752	22.270	1102.992	859.575
362.767	22.377	1102.095	859.323
363.781	22.350	1101.770	858.860
364.796	22.339	1101.222	858.306
365.810	22.255	1101.036	857.673
366.825	22.381	1100.080	857.467
367.840	22.373	1099.534	856.927
368.854	22.459	1099.412	857.172
369.869	22.319	1098.782	855.925
370.883	22.466	1097.695	855.720
371.898	22.373	1097.206	854.811
372.913	22.432	1096.368	854.369
373.927	22.434	1096.219	854.184
374.942	22.490	1095.687	853.965
375.956	22.394	1095.343	853.157
376.971	22.481	1094.616	852.939
377.986	22.333	1094.105	851.748
379.000	22.382	1093.794	851.665
380.015	22.445	1092.905	851.202
381.029	22.586	1092.086	851.171
382.044	22.493	1091.613	850.278
383.059	22.600	1090.864	850.138
384.073	22.559	1090.065	849.241
385.088	22.534	1089.130	848.317
386.102	22.579	1088.545	848.004
387.117	22.534	1087.552	846.938
388.132	22.509	1087.274	846.524
389.146	22.624	1086.080	846.073
390.161	22.577	1085.070	844.988
391.175	22.588	1084.859	844.800
392.190	22.648	1084.106	844.426
393.205	22.645	1083.381	843.774
394.219	22.574	1082.731	842.854
395.234	22.699	1081.812	842.661
396.248	22.648	1081.034	841.735
397.263	22.771	1079.775	841.264
398.278	22.708	1079.558	840.724
399.292	22.736	1079.397	840.655
400.307	22.630	1078.342	839.256
401.321	22.706	1077.852	839.164
402.336	22.715	1077.000	838.469
403.350	22.743	1076.240	837.933
404.365	22.744	1075.590	837.360
405.380	22.902	1074.726	837.361
406.394	22.795	1074.485	836.594
407.409	22.879	1073.767	836.355
408.423	22.782	1072.982	835.213
409.438	22.825	1072.291	834.806
410.453	22.878	1071.448	834.325
411.467	22.774	1070.997	833.409
412.482	22.893	1070.450	833.471
413.496	22.899	1069.473	832.665
414.511	22.926	1069.205	832.509
415.526	22.918	1068.556	831.894
416.540	22.989	1067.940	831.675
417.555	22.919	1067.582	830.993
418.569	22.855	1066.867	830.060
419.584	22.889	1066.886	830.161
420.599	22.964	1066.254	829.949
421.613	149.412	1398.152	1796.751
422.628	137.562	1446.524	1796.829
