DTS Sentinel unit serial number:	SN413079Multiplexer serial number:	ORYXHardware model number:	OX4-SRSoftware version number:	ORYX F/W v4.00 Oryx Data Collector v3.7.2.0data status	okinstallation	princeton_trtdifferential loss correction	single-endedforward channel	channel 2reverse channel	N/Adate	2019/09/12time	06:21:10forward acquisition time	60.00reverse acquisition time	0.00gamma	496.2192k internal	0.2324k external	0.2324temperature offset calibration	1.0065default loss term (dB/km)	0.3790temperature slope calibration	1.0000multiplexer offset coefficient	1.0000multiplexer slope coefficient	1.0000fibre end	0.00T internal ref (°C)	32.12T ext. ref 1 (°C)	1.55T ext. ref 2 (°C)	27.39length (m)	temperature (°C)	Stokes	anti-Stokes-747.200	-125.763	0.347	-0.053
-746.185	360.095	0.133	0.269
-745.171	-110.082	0.154	0.033
-744.156	-200.000	-0.006	0.186
-743.142	354.280	-0.085	-0.170
-742.127	139.024	0.073	0.096
-741.112	59.227	0.083	-0.083
-740.098	619.521	0.006	0.015
-739.083	-1.531	-0.043	0.031
-738.069	34.438	0.223	0.196
-737.054	6.904	-0.090	-0.068
-736.039	308.992	-0.130	0.245
-735.025	-120.123	0.076	0.013
-734.010	-200.000	-0.105	-0.478
-732.996	-200.000	-0.012	-0.159
-731.981	-200.000	0.012	-0.130
-730.966	-200.000	0.045	-0.340
-729.952	-200.000	0.021	-0.280
-728.937	-62.639	0.266	-0.111
-727.923	800.000	-0.014	0.058
-726.908	50.372	-0.171	0.163
-725.894	130.121	-0.131	-0.170
-724.879	328.893	-0.024	-0.046
-723.864	800.000	-0.056	-0.179
-722.850	10.588	-0.425	-0.327
-721.835	-200.000	-0.006	0.114
-720.821	133.896	-0.021	0.028
-719.806	-200.000	-0.061	-0.368
-718.791	-200.000	0.178	-0.001
-717.777	-42.201	0.117	-0.061
-716.762	-79.558	-0.184	0.063
-715.748	-46.132	0.271	-0.134
-714.733	51.587	-0.213	-0.205
-713.718	800.000	0.069	-0.279
-712.704	83.158	0.244	-0.268
-711.689	12.245	-0.098	0.076
-710.675	-200.000	0.027	0.235
-709.660	87.260	0.272	-0.303
-708.645	34.778	-0.115	0.101
-707.631	83.644	-0.175	-0.192
-706.616	-58.715	0.233	0.102
-705.602	-200.000	-0.023	0.206
-704.587	800.000	-0.118	0.356
-703.572	-200.000	0.007	0.136
-702.558	-200.000	0.050	-0.244
-701.543	340.339	0.203	0.399
-700.529	800.000	0.063	-0.192
-699.514	-90.862	0.118	-0.034
-698.499	266.575	-0.062	-0.110
-697.485	800.000	0.075	0.283
-696.470	144.585	0.185	0.248
-695.456	-200.000	-0.037	0.221
-694.441	247.472	0.118	0.201
-693.426	-90.757	0.078	-0.023
-692.412	11.925	0.212	0.164
-691.397	310.319	-0.078	-0.148
-690.383	171.329	-0.154	-0.223
-689.368	-51.567	-0.085	0.040
-688.354	68.663	-0.192	-0.198
-687.339	-132.339	-0.169	-0.022
-686.324	-25.104	-0.148	-0.088
-685.310	-63.867	0.363	0.149
-684.295	-200.000	0.003	-0.226
-683.281	5.015	-0.242	-0.180
-682.266	223.587	0.071	-0.116
-681.251	216.001	-0.093	-0.149
-680.237	411.389	0.079	0.168
-679.222	-115.246	-0.491	0.094
-678.208	-200.000	0.020	0.216
-677.193	-200.000	-0.014	-0.114
-676.178	-200.000	-0.054	0.275
-675.164	164.505	0.161	0.228
-674.149	-200.000	0.024	-0.231
-673.135	1.939	-0.194	0.141
-672.120	17.728	0.135	-0.108
-671.105	305.798	0.138	-0.259
-670.091	396.799	0.235	-0.493
-669.076	-137.706	-0.383	-0.043
-668.062	-97.063	-0.334	-0.088
-667.047	-200.000	0.018	0.220
-666.032	-55.380	0.052	0.023
-665.018	-33.734	-0.117	-0.065
-664.003	-89.019	-0.241	-0.072
-662.989	-128.672	-0.295	0.042
-661.974	-200.000	0.042	0.209
-660.959	-200.000	-0.020	-0.087
-659.945	236.777	-0.063	0.106
-658.930	-168.814	-0.215	0.008
-657.916	-200.000	0.010	0.047
-656.901	692.654	0.048	-0.127
-655.886	-157.733	0.343	-0.021
-654.872	75.389	0.150	-0.160
-653.857	-166.270	0.270	-0.011
-652.843	-200.000	-0.030	0.134
-651.828	60.147	0.039	-0.039
-650.814	-200.000	0.070	-0.502
-649.799	800.000	-0.086	0.240
-648.784	-25.765	-0.235	-0.139
-647.770	-200.000	-0.039	0.286
-646.755	-45.755	-0.125	-0.062
-645.741	86.129	0.153	-0.169
-644.726	-84.714	0.168	0.053
-643.711	-90.050	0.055	-0.016
-642.697	150.609	-0.107	-0.145
-641.682	-78.410	0.275	0.095
-640.668	117.471	-0.284	0.351
-639.653	-200.000	0.009	0.390
-638.638	-1.814	-0.220	0.155
-637.624	652.762	-0.114	-0.295
-636.609	24.108	0.091	-0.076
-635.595	355.574	-0.071	-0.142
-634.580	-60.684	-0.386	-0.164
-633.565	313.174	-0.198	-0.374
-632.551	-26.025	0.129	-0.076
-631.536	-99.770	0.414	-0.104
-630.522	302.221	0.051	0.095
-629.507	81.991	0.251	0.274
-628.492	-54.678	-0.397	0.180
-627.478	-112.159	0.300	-0.061
-626.463	82.562	-0.332	-0.362
-625.449	5.646	-0.058	-0.043
-624.434	-169.290	-0.181	-0.007
-623.419	55.431	-0.180	0.175
-622.405	-51.916	0.220	0.103
-621.390	-76.986	-0.034	-0.012
-620.376	-22.166	-0.258	-0.157
-619.361	679.789	-0.140	-0.367
-618.346	-101.271	-0.373	-0.092
-617.332	421.246	0.093	0.201
-616.317	-200.000	-0.007	0.150
-615.303	-200.000	-0.003	-0.120
-614.288	800.000	-0.109	-0.407
-613.273	-200.000	-0.001	0.202
-612.259	376.120	0.086	0.175
-611.244	55.598	0.105	-0.103
-610.230	-104.409	0.336	0.078
-609.215	-37.767	-0.131	-0.070
-608.201	800.000	-0.171	0.636
-607.186	-163.286	-0.233	-0.011
-606.171	-35.472	0.095	0.052
-605.157	-200.000	0.020	-0.257
-604.142	260.192	0.153	-0.265
-603.128	143.661	0.120	0.160
-602.113	-73.838	0.216	-0.079
-601.098	-41.282	0.082	0.042
-600.084	-179.624	0.495	0.011
-599.069	-57.302	0.111	0.049
-598.055	-128.720	-0.164	-0.023
-597.040	155.248	0.130	0.179
-596.025	-200.000	0.054	-0.317
-595.011	-108.120	-0.394	-0.086
-593.996	12.092	0.056	0.043
-592.982	-200.000	0.009	0.142
-591.967	-73.242	0.111	-0.041
-590.952	-200.000	-0.003	-0.087
-589.938	78.581	0.219	0.235
-588.923	-113.396	0.327	-0.064
-587.909	70.555	0.147	-0.152
-586.894	-95.160	-0.192	-0.052
-585.879	9.589	-0.161	-0.123
-584.865	269.886	-0.110	0.193
-583.850	43.178	0.306	0.280
-582.836	-200.000	-0.354	-0.002
-581.821	-161.640	0.141	0.007
-580.806	504.453	0.064	-0.148
-579.792	-44.317	0.099	-0.050
-578.777	-200.000	-0.016	-0.095
-577.763	-13.674	-0.099	-0.065
-576.748	197.707	-0.128	0.196
-575.733	800.000	0.040	-0.152
-574.719	65.272	0.132	-0.134
-573.704	-103.603	0.130	0.031
-572.690	-200.000	-0.035	0.447
-571.675	-54.587	-0.083	-0.038
-570.661	285.749	-0.207	0.375
-569.646	-101.301	-0.237	0.058
-568.631	-61.426	-0.335	-0.141
-567.617	287.892	0.078	0.141
-566.602	23.143	-0.148	0.122
-565.588	37.731	-0.180	0.160
-564.573	-9.812	0.230	0.154
-563.558	-200.000	-0.006	-0.052
-562.544	-200.000	0.027	0.124
-561.529	800.000	0.103	-0.413
-560.515	-200.000	0.051	-0.396
-559.500	-52.708	-0.164	-0.076
-558.485	-200.000	-0.020	-0.230
-557.471	-12.758	0.226	-0.148
-556.456	-32.808	-0.196	0.109
-555.442	-161.527	-0.392	-0.020
-554.427	-71.323	-0.398	-0.149
-553.412	270.891	0.206	-0.363
-552.398	27.439	0.215	-0.181
-551.383	233.230	-0.264	0.435
-550.369	-29.034	0.176	-0.101
-549.354	-18.180	-0.162	-0.101
-548.339	-200.000	-0.003	-0.052
-547.325	78.553	0.152	-0.163
-546.310	61.711	0.125	0.125
-545.296	-200.000	0.120	-0.645
-544.281	-200.000	0.001	-0.450
-543.266	-141.164	-0.179	-0.018
-542.252	-200.000	0.019	0.150
-541.237	55.313	0.151	0.146
-540.223	48.262	0.272	-0.255
-539.208	-200.000	-0.037	0.245
-538.193	-186.086	-0.238	0.003
-537.179	79.378	0.153	-0.165
-536.164	98.079	0.017	-0.020
-535.150	800.000	0.040	-0.153
-534.135	123.191	-0.052	-0.065
-533.121	67.792	0.032	0.033
-532.106	-103.936	-0.234	-0.055
-531.091	195.205	-0.074	-0.113
-530.077	58.171	-0.183	0.180
-529.062	605.755	-0.121	-0.301
-528.048	41.820	-0.200	-0.181
-527.033	-0.641	0.353	-0.250
-526.018	-18.044	-0.019	0.012
-525.004	166.085	-0.115	0.163
-523.989	271.979	-0.102	0.181
-522.975	-200.000	0.023	-0.201
-521.960	62.297	0.175	0.174
-520.945	37.302	-0.207	0.184
-519.931	-117.312	0.386	-0.070
-518.916	-200.000	0.035	-0.179
-517.902	-87.176	-0.035	-0.011
-516.887	-200.000	-0.026	0.276
-515.872	-200.000	-0.039	-0.200
-514.858	263.804	-0.066	-0.114
-513.843	-200.000	-0.019	-0.334
-512.829	-200.000	-0.003	-0.024
-511.814	-107.413	-0.312	0.069
-510.799	-200.000	0.041	-0.224
-509.785	49.850	0.053	0.050
-508.770	800.000	0.106	-0.306
-507.756	-200.000	-0.007	-0.114
-506.741	399.477	0.035	0.073
-505.726	-200.000	-0.071	-0.409
-504.712	-156.259	0.382	0.024
-503.697	-200.000	-0.064	-0.302
-502.683	-200.000	-0.011	0.108
-501.668	-200.000	0.013	-0.300
-500.653	88.847	-0.100	0.111
-499.639	-30.042	0.241	0.137
-498.624	158.723	-0.098	0.137
-497.610	372.580	0.163	-0.332
-496.595	-119.244	0.236	-0.041
-495.581	-72.671	-0.055	-0.020
-494.566	33.511	-0.047	-0.041
-493.551	300.907	-0.189	0.348
-492.537	-200.000	0.022	0.177
-491.522	-200.000	0.028	-0.129
-490.508	307.693	0.122	-0.228
-489.493	800.000	0.162	0.455
-488.478	-200.000	0.024	0.366
-487.464	-200.000	0.047	0.213
-486.449	32.964	0.452	-0.392
-485.435	258.343	0.037	-0.064
-484.420	193.640	0.071	-0.108
-483.405	-162.796	0.138	0.007
-482.391	195.924	-0.041	0.063
-481.376	79.809	-0.276	0.297
-480.362	-120.647	-0.105	-0.018
-479.347	18.140	0.262	-0.209
-478.332	-22.088	0.192	0.117
-477.318	-10.920	-0.114	-0.075
-476.303	-50.144	0.019	0.009
-475.289	59.695	-0.057	0.056
-474.274	-181.457	-0.388	-0.008
-473.259	-200.000	-0.101	0.533
-472.245	550.775	-0.107	0.256
-471.230	-200.000	0.002	0.161
-470.216	-60.913	-0.174	-0.073
-469.201	-200.000	0.016	-0.084
-468.186	46.022	0.105	-0.097
-467.172	-23.332	-0.245	0.147
-466.157	-1.290	0.047	-0.033
-465.143	800.000	0.025	-0.087
-464.128	-95.471	0.109	-0.029
-463.113	-200.000	0.001	-0.093
-462.099	538.104	0.079	0.187
-461.084	-95.105	-0.212	0.057
-460.070	145.761	-0.135	0.181
-459.055	-200.000	-0.017	-0.201
-458.040	-11.448	-0.193	0.127
-457.026	-41.337	-0.144	-0.074
-456.011	240.047	0.153	0.255
-454.997	289.556	0.175	0.317
-453.982	-125.681	0.267	0.040
-452.968	180.735	0.192	0.282
-451.953	-93.324	-0.210	0.058
-450.938	-180.777	0.069	-0.001
-449.924	111.365	-0.218	-0.262
-448.909	-118.484	-0.246	-0.044
-447.895	-123.648	-0.233	-0.037
-446.880	46.300	0.186	-0.172
-445.865	-200.000	0.135	0.661
-444.851	-169.858	0.312	-0.011
-443.836	800.000	-0.052	0.151
-442.822	-146.141	0.254	-0.022
-441.807	127.556	-0.064	-0.081
-440.792	-48.465	0.216	0.104
-439.778	-111.600	0.043	-0.009
-438.763	-149.384	-0.117	-0.009
-437.749	-166.772	0.324	-0.013
-436.734	-200.000	-0.025	-0.208
-435.719	59.654	0.144	-0.142
-434.705	63.604	0.084	0.084
-433.690	-24.873	-0.251	-0.149
-432.676	-200.000	-0.011	-0.091
-431.661	65.583	0.172	-0.174
-430.646	-113.971	-0.249	-0.048
-429.632	-200.000	0.018	-0.226
-428.617	71.055	0.317	-0.328
-427.603	58.185	0.187	0.183
-426.588	-200.000	-0.046	-0.368
-425.573	-48.340	-0.230	0.110
-424.559	483.357	-0.082	0.186
-423.544	-200.000	0.015	-0.099
-422.530	287.029	0.052	-0.095
-421.515	800.000	0.045	-0.152
-420.500	36.126	0.111	-0.097
-419.486	-10.242	0.294	0.194
-418.471	-93.815	0.085	-0.023
-417.457	335.766	0.012	-0.023
-416.442	800.000	-0.044	0.173
-415.428	679.277	-0.033	-0.087
-414.413	-106.106	-0.367	0.082
-413.398	-54.360	0.257	-0.116
-412.384	15.981	0.032	-0.025
-411.369	-200.000	-0.035	0.164
-410.355	-200.000	-0.014	0.199
-409.340	-72.216	-0.033	-0.012
-408.325	-200.000	-0.303	0.000
-407.311	72.466	0.139	0.144
-406.296	179.805	-0.077	0.113
-405.282	-86.962	0.089	-0.027
-404.267	356.606	0.110	0.219
-403.252	-108.686	0.270	0.058
-402.238	-103.704	-0.226	-0.053
-401.223	-162.286	-0.355	0.018
-400.209	-200.000	-0.057	-0.281
-399.194	-34.042	-0.104	-0.057
-398.179	-200.000	0.065	-0.371
-397.165	-104.478	0.046	-0.011
-396.150	-85.355	0.243	-0.076
-395.136	800.000	0.030	0.091
-394.121	800.000	-0.032	-0.109
-393.106	283.241	-0.163	-0.292
-392.092	92.242	0.110	0.124
-391.077	800.000	-0.070	0.231
-390.063	771.158	-0.035	-0.095
-389.048	65.815	-0.178	-0.179
-388.033	-200.000	-0.013	0.092
-387.019	-25.915	-0.302	-0.177
-386.004	33.266	-0.131	-0.113
-384.990	-10.755	-0.149	0.098
-383.975	-200.000	0.054	-0.249
-382.960	437.407	0.022	0.048
-381.946	129.170	0.157	-0.200
-380.931	51.189	-0.147	0.139
-379.917	234.522	-0.094	-0.154
-378.902	631.124	-0.071	-0.179
-377.888	-200.000	-0.037	-0.186
-376.873	-200.000	-0.019	-0.225
-375.858	84.461	-0.091	0.099
-374.844	800.000	0.108	0.341
-373.829	558.141	-0.077	-0.184
-372.815	800.000	0.043	0.122
-371.800	-139.608	0.392	0.042
-370.785	-84.593	0.013	0.004
-369.771	119.870	0.011	-0.013
-368.756	-200.000	0.004	-0.033
-367.742	-200.000	-0.045	-0.235
-366.727	800.000	0.018	0.069
-365.712	-121.306	0.445	0.074
-364.698	-200.000	-0.014	-0.112
-363.683	-150.852	0.178	-0.013
-362.669	800.000	0.076	0.216
-361.654	-25.863	-0.237	-0.139
-360.639	42.124	-0.176	0.159
-359.625	-127.664	0.258	0.037
-358.610	800.000	-0.058	-0.247
-357.596	-47.827	-0.291	0.140
-356.581	237.886	0.077	0.127
-355.566	-200.000	0.043	-0.204
-354.552	117.075	-0.182	0.222
-353.537	289.344	0.029	0.053
-352.523	800.000	0.137	-0.405
-351.508	15.062	-0.235	-0.183
-350.493	-33.894	0.051	-0.028
-349.479	157.770	-0.051	0.071
-348.464	149.363	-0.195	0.262
-347.450	97.767	0.150	-0.171
-346.435	-150.896	0.278	0.021
-345.420	728.671	-0.044	-0.117
-344.406	61.000	-0.131	-0.129
-343.391	17.391	-0.356	0.281
-342.377	-200.000	-0.015	0.155
-341.362	800.000	0.039	-0.145
-340.348	130.626	-0.168	-0.214
-339.333	-200.000	-0.016	-0.240
-338.318	-17.678	-0.285	-0.178
-337.304	-144.439	-0.343	-0.032
-336.289	213.857	-0.108	0.170
-335.275	-200.000	-0.027	0.329
-334.260	800.000	0.114	-0.409
-333.245	800.000	0.023	0.093
-332.231	-109.772	0.117	-0.024
-331.216	28.683	0.095	-0.080
-330.202	-143.005	0.220	0.021
-329.187	54.979	-0.187	0.180
-328.172	23.088	0.164	-0.134
-327.158	14.776	-0.269	-0.209
-326.143	-175.287	-0.249	0.007
-325.129	65.584	-0.089	-0.089
-324.114	156.868	0.097	0.133
-323.099	-200.000	-0.015	0.084
-322.085	-200.000	0.046	-0.234
-321.070	20.517	-0.134	0.108
-320.056	-58.360	0.128	0.055
-319.041	800.000	-0.083	0.244
-318.026	48.017	-0.227	0.210
-317.012	-200.000	-0.004	-0.055
-315.997	-170.982	-0.184	0.006
-314.983	-200.000	-0.004	-0.076
-313.968	800.000	0.034	0.145
-312.953	-31.834	-0.115	0.064
-311.939	-200.000	-0.048	0.407
-310.924	310.900	0.151	0.281
-309.910	-200.000	-0.069	0.379
-308.895	-189.231	-0.043	-0.001
-307.880	45.859	0.120	-0.110
-306.866	-29.249	0.048	-0.027
-305.851	291.884	-0.140	-0.253
-304.837	-200.000	0.013	-0.115
-303.822	262.363	0.004	-0.007
-302.807	204.373	-0.099	-0.152
-301.793	-80.208	0.261	-0.087
-300.778	463.091	-0.104	0.231
-299.764	-128.437	0.301	0.042
-298.749	747.265	-0.035	-0.094
-297.735	190.374	0.131	0.196
-296.720	24.616	-0.174	0.143
-295.705	-85.299	-0.175	-0.054
-294.691	238.227	0.046	-0.075
-293.676	155.839	-0.087	0.119
-292.662	234.276	-0.093	0.152
-291.647	535.900	-0.099	-0.232
-290.632	-23.271	0.233	0.139
-289.618	800.000	0.053	-0.186
-288.603	344.752	0.045	-0.088
-287.589	-129.177	0.457	-0.063
-286.574	267.211	-0.131	-0.226
-285.559	80.689	0.070	-0.074
-284.545	-118.649	0.215	0.038
-283.530	-200.000	0.006	-0.137
-282.516	447.119	0.141	0.309
-281.501	-131.212	-0.319	0.042
-280.486	758.112	0.053	-0.142
-279.472	-106.825	-0.206	-0.045
-278.457	-27.452	-0.110	0.063
-277.443	3.516	0.117	-0.085
-276.428	-9.885	-0.110	-0.072
-275.413	-58.480	0.328	-0.141
-274.399	-71.343	-0.180	0.067
-273.384	800.000	-0.039	-0.123
-272.370	-73.307	0.210	0.076
-271.355	429.507	-0.078	0.168
-270.340	800.000	-0.024	-0.099
-269.326	-158.882	0.082	-0.005
-268.311	-185.106	0.148	-0.002
-267.297	319.101	-0.114	0.214
-266.282	65.825	0.296	-0.297
-265.267	632.035	0.133	-0.334
-264.253	-80.322	0.303	-0.100
-263.238	-165.497	-0.203	-0.009
-262.224	-75.357	-0.191	0.067
-261.209	-86.106	0.345	-0.105
-260.195	-138.610	0.491	0.053
-259.180	303.109	0.209	0.384
-258.165	744.797	-0.125	0.334
-257.151	-155.910	0.351	-0.022
-256.136	-69.311	-0.073	-0.028
-255.122	16.271	-0.186	0.145
-254.107	-200.000	0.011	0.176
-253.092	-74.736	0.199	-0.071
-252.078	-37.770	-0.332	0.175
-251.063	234.287	-0.123	-0.201
-250.049	-0.427	0.178	0.125
-249.034	456.061	-0.137	0.300
-248.019	-172.786	-0.252	0.008
-247.005	605.608	0.112	0.277
-245.990	-94.863	-0.033	0.009
-244.976	-99.154	0.159	0.040
-243.961	106.438	-0.114	0.134
-242.946	-95.306	0.202	0.054
-241.932	186.349	0.142	-0.209
-240.917	314.519	0.162	0.302
-239.903	505.731	0.066	-0.150
-238.888	560.759	-0.058	-0.139
-237.873	-43.799	-0.305	0.152
-236.859	-88.577	-0.019	-0.006
-235.844	-72.890	0.312	0.114
-234.830	-50.813	-0.221	0.103
-233.815	319.390	0.087	0.163
-232.800	-47.066	0.108	0.052
-231.786	-37.171	0.147	0.078
-230.771	-82.860	0.179	0.057
-229.757	-121.687	0.358	-0.059
-228.742	645.493	-0.117	0.297
-227.727	800.000	0.004	0.012
-226.713	470.050	-0.044	-0.097
-225.698	297.605	0.110	-0.201
-224.684	-63.033	-0.167	0.068
-223.669	-12.427	-0.182	0.117
-222.655	-54.427	-0.061	0.027
-221.640	-200.000	-0.034	0.320
-220.625	-200.000	0.025	0.212
-219.611	-200.000	0.026	0.118
-218.596	7.282	-0.178	-0.131
-217.582	-200.000	0.010	-0.081
-216.567	-84.847	-0.166	-0.051
-215.552	-200.000	0.013	-0.095
-214.538	-200.000	-0.008	0.211
-213.523	51.424	-0.240	0.226
-212.509	84.493	0.140	-0.152
-211.494	-148.334	-0.220	0.018
-210.479	150.415	-0.123	-0.164
-209.465	58.667	0.084	-0.081
-208.450	-122.242	-0.264	-0.043
-207.436	-53.858	0.070	0.032
-206.421	102.309	-0.008	-0.010
-205.406	147.153	-0.046	-0.062
-204.392	54.337	0.131	-0.125
-203.377	-52.371	0.171	0.078
-202.363	-31.897	0.114	-0.063
-201.348	-200.000	0.010	-0.222
-200.333	-33.715	-0.142	-0.077
-199.319	274.181	0.028	0.049
-198.304	-200.000	-0.036	0.200
-197.290	237.707	0.123	0.201
-196.275	321.154	-0.131	-0.246
-195.260	426.547	-0.147	0.314
-194.246	155.502	-0.017	-0.023
-193.231	-45.379	-0.230	0.113
-192.217	111.200	-0.164	0.195
-191.202	-200.000	-0.007	0.287
-190.187	-42.574	0.143	0.072
-189.173	-104.533	-0.021	-0.005
-188.158	-62.428	-0.328	-0.135
-187.144	-54.489	0.210	0.094
-186.129	432.679	-0.104	-0.222
-185.114	235.368	-0.165	-0.269
-184.100	21.460	-0.163	-0.131
-183.085	98.275	0.149	-0.170
-182.071	-104.822	-0.183	-0.042
-181.056	427.503	0.076	0.161
-180.042	-83.239	0.385	-0.122
-179.027	-110.486	0.050	0.010
-178.012	-95.258	-0.302	0.080
-176.998	-200.000	0.205	0.001
-175.983	-200.000	-0.072	0.377
-174.969	-88.732	-0.192	-0.056
-173.954	-149.382	0.334	0.026
-172.939	-50.922	0.141	0.065
-171.925	-200.000	-0.053	0.421
-170.910	-149.234	0.163	-0.013
-169.896	-91.290	0.175	-0.050
-168.881	-53.938	0.132	0.059
-167.866	12.378	0.014	-0.011
-166.852	72.946	0.146	-0.151
-165.837	-93.971	0.121	0.033
-164.823	-121.804	0.154	0.025
-163.808	-49.845	-0.185	0.087
-162.793	145.724	0.200	-0.265
-161.779	800.000	0.022	-0.061
-160.764	-200.000	-0.025	0.481
-159.750	-9.415	0.265	0.175
-158.735	9.965	0.045	-0.033
-157.720	-5.426	0.230	-0.156
-156.706	-42.062	-0.077	0.039
-155.691	17.486	-0.181	0.142
-154.677	60.420	-0.268	0.262
-153.662	243.078	0.144	0.238
-152.647	121.507	0.078	-0.096
-151.633	800.000	-0.029	-0.083
-150.618	98.838	0.279	-0.318
-149.604	800.000	0.085	-0.350
-148.589	99.986	-0.132	-0.151
-147.574	-100.904	-0.366	0.089
-146.560	-17.694	0.052	0.032
-145.545	616.102	0.162	0.400
-144.531	82.146	0.173	0.185
-143.516	-51.603	0.113	0.052
-142.502	-123.865	-0.048	0.008
-141.487	48.383	-0.114	0.106
-140.472	800.000	0.038	-0.145
-139.458	-200.000	-0.040	-0.542
-138.443	800.000	-0.033	-0.091
-137.429	-94.310	0.233	0.063
-136.414	-111.616	0.250	0.050
-135.399	263.686	-0.092	0.158
-134.385	39.111	-0.091	0.080
-133.370	5.378	0.130	-0.094
-132.356	800.000	0.066	-0.202
-131.341	800.000	-0.052	0.152
-130.326	465.029	0.108	-0.239
-129.312	-39.355	0.381	-0.197
-128.297	3.548	-0.124	0.089
-127.283	800.000	0.063	0.213
-126.268	-165.298	0.278	-0.012
-125.253	800.000	-0.038	0.119
-124.239	52.040	0.288	0.271
-123.224	800.000	-0.064	-0.231
-122.210	-18.643	0.181	-0.111
-121.195	-103.701	-0.333	-0.077
-120.180	-164.816	0.079	0.003
-119.166	800.000	-0.036	-0.149
-118.151	-106.412	0.101	-0.022
-117.137	-42.553	-0.149	0.075
-116.122	-45.116	0.102	-0.050
-115.107	800.000	-0.115	0.332
-114.093	77.206	-0.024	0.025
-113.078	0.003	0.257	0.180
-112.064	2.504	0.142	-0.101
-111.049	179.179	0.197	-0.284
-110.034	-200.000	-0.000	-0.117
-109.020	102.260	0.209	-0.241
-108.005	43.533	-0.160	0.144
-106.991	42.366	0.052	-0.046
-105.976	98.578	-0.167	0.190
-104.962	-200.000	-0.001	0.202
-103.947	-197.756	0.039	0.000
-102.932	-32.949	0.269	0.147
-101.918	759.168	-0.168	0.448
-100.903	-200.000	-0.003	0.068
-99.889	-119.056	0.187	0.032
-98.874	-57.343	-0.165	-0.071
-97.859	19.771	0.254	0.201
-96.845	87.669	0.089	0.097
-95.830	65.061	-0.148	-0.147
-94.816	-117.903	0.351	0.062
-93.801	56.973	0.128	0.123
-92.786	1.571	0.069	0.049
-91.772	-7.407	-0.140	-0.093
-90.757	475.694	-0.026	-0.059
-89.743	340.619	-0.093	0.179
-88.728	19.192	-0.147	0.116
-87.713	800.000	-0.074	0.265
-86.699	-200.000	0.071	0.352
-85.684	800.000	0.069	0.200
-84.670	249.219	0.147	-0.245
-83.655	-58.529	-0.175	0.075
-82.640	283.782	0.122	-0.215
-81.626	800.000	-0.038	-0.112
-80.611	-6.467	0.206	-0.138
-79.597	64.650	-0.284	0.282
-78.582	-200.000	0.058	0.310
-77.567	44.386	0.313	0.282
-76.553	-200.000	-0.006	0.178
-75.538	-110.611	0.318	-0.065
-74.524	-200.000	0.029	0.299
-73.509	-85.236	0.317	0.097
-72.494	18.226	-0.154	0.121
-71.480	525.314	-0.048	-0.111
-70.465	-93.127	0.451	0.124
-69.451	-103.828	0.351	-0.081
-68.436	28.239	-0.308	-0.256
-67.422	41.169	0.241	-0.214
-66.407	-200.000	0.049	0.315
-65.392	800.000	-0.077	0.281
-64.378	-62.893	0.267	-0.109
-63.363	-182.969	0.417	-0.007
-62.349	-138.543	-0.280	0.030
-61.334	-3.545	-1.134	-0.775
-60.319	201.887	0.365	0.553
-59.305	800.000	-0.306	-1.219
-58.290	515.170	0.538	1.234
-57.276	800.000	0.406	1.579
-56.261	-200.000	96.059	595.133
-55.246	568.762	1372.901	3278.618
-54.232	160.460	2558.640	3507.620
-53.217	106.758	2270.016	2647.040
-52.203	41.559	1897.011	1687.579
-51.188	35.396	1687.023	1454.184
-50.173	32.798	1642.807	1396.808
-49.159	50.160	1689.016	1566.731
-48.144	51.889	1704.944	1594.403
-47.130	35.074	1666.140	1433.545
-46.115	32.331	1651.211	1400.257
-45.100	32.103	1646.940	1394.890
-44.086	32.123	1643.799	1392.318
-43.071	32.064	1641.741	1390.083
-42.057	32.009	1638.991	1387.296
-41.042	31.982	1637.467	1385.752
-40.027	31.935	1635.603	1383.770
-39.013	31.984	1633.223	1382.063
-37.998	31.905	1631.980	1380.373
-36.984	32.033	1630.609	1380.105
-35.969	32.115	1628.766	1379.091
-34.954	32.164	1627.095	1377.978
-33.940	32.174	1625.370	1376.534
-32.925	32.136	1623.703	1374.796
-31.911	32.103	1622.103	1373.144
-30.896	32.092	1620.589	1371.727
-29.881	32.060	1618.664	1369.808
-28.867	32.111	1617.183	1368.875
-27.852	32.148	1616.111	1368.179
-26.838	32.042	1614.246	1365.773
-25.823	32.137	1612.592	1365.015
-24.809	32.160	1611.368	1364.091
-23.794	32.207	1609.933	1363.165
-22.779	32.146	1608.551	1361.497
-21.765	32.125	1606.953	1359.938
-20.750	32.112	1605.430	1358.496
-19.736	32.122	1604.282	1357.545
-18.721	32.231	1602.306	1356.605
-17.706	32.241	1600.745	1355.304
-16.692	32.196	1599.390	1353.776
-15.677	32.146	1598.196	1352.354
-14.663	32.272	1596.536	1351.805
-13.648	32.193	1595.556	1350.350
-12.633	32.191	1593.692	1348.704
-11.619	32.106	1592.707	1347.206
-10.604	32.146	1590.839	1345.864
-9.590	32.152	1589.650	1344.844
-8.575	32.158	1588.923	1344.224
-7.560	32.120	1587.406	1342.611
-6.546	32.183	1586.176	1341.969
-5.531	32.094	1585.078	1340.347
-4.517	32.125	1583.488	1339.174
-3.502	32.123	1582.460	1338.238
-2.487	32.164	1580.764	1337.040
-1.473	31.962	1569.024	1325.631
-0.458	29.334	1550.354	1291.432
0.556	25.777	1551.045	1260.732
1.571	23.530	1574.938	1264.049
2.586	23.177	1587.658	1271.610
3.600	20.324	1533.521	1208.308
4.615	11.021	1422.222	1060.177
5.629	3.050	1357.706	962.258
6.644	1.724	1349.181	947.878
7.659	1.528	1348.459	946.069
8.673	1.470	1347.374	944.865
9.688	1.498	1344.847	943.183
10.702	1.302	1341.958	939.860
11.717	4.630	1348.864	965.299
12.731	14.758	1368.076	1042.452
13.746	23.405	1382.651	1107.760
14.761	25.779	1386.136	1125.309
15.775	26.235	1386.169	1128.083
16.790	26.301	1385.686	1128.003
17.804	26.342	1385.260	1127.813
18.819	26.594	1384.697	1128.825
19.834	26.747	1384.103	1129.193
20.848	26.665	1383.371	1127.984
21.863	26.742	1382.251	1127.455
22.877	26.814	1381.329	1127.050
23.892	26.827	1380.686	1126.504
24.907	26.786	1379.696	1125.342
25.921	26.841	1378.525	1124.629
26.936	26.761	1377.758	1123.408
27.950	26.735	1377.006	1122.534
28.965	26.737	1375.718	1121.395
29.980	26.709	1374.211	1119.895
30.994	26.754	1373.636	1119.606
32.009	26.823	1372.221	1118.781
33.023	26.696	1371.084	1116.972
34.038	26.736	1370.234	1116.428
35.053	26.730	1369.097	1115.362
36.067	26.840	1367.915	1114.977
37.082	26.764	1367.240	1113.862
38.096	26.755	1366.053	1112.739
39.111	26.789	1365.635	1112.512
40.126	26.706	1365.253	1111.595
41.140	26.730	1364.381	1110.931
42.155	26.701	1364.009	1110.352
43.169	26.733	1364.365	1110.740
44.184	26.762	1363.824	1110.380
45.199	26.767	1363.280	1109.869
46.213	26.808	1362.510	1109.397
47.228	26.804	1362.028	1108.879
48.242	26.784	1360.539	1107.448
49.257	26.773	1359.178	1106.176
50.271	26.727	1357.720	1104.611
51.286	26.696	1356.342	1103.204
52.301	26.716	1354.943	1102.086
53.315	26.609	1354.756	1101.186
54.330	26.707	1353.489	1100.659
55.344	26.767	1352.261	1099.924
56.359	26.707	1351.746	1099.044
57.374	26.701	1350.633	1098.006
58.388	26.714	1350.115	1097.566
59.403	26.664	1350.108	1097.161
60.417	26.802	1348.949	1096.955
61.432	26.836	1348.015	1096.306
62.447	26.796	1347.250	1095.346
63.461	26.731	1346.487	1094.233
64.476	26.853	1344.754	1093.467
65.490	26.731	1344.180	1092.167
66.505	26.714	1342.461	1090.571
67.520	26.747	1341.364	1089.782
68.534	26.772	1340.460	1089.103
69.549	26.764	1339.396	1088.095
70.563	26.784	1338.402	1087.306
71.578	26.761	1337.557	1086.387
72.593	26.834	1336.947	1086.232
73.607	26.719	1336.353	1084.967
74.622	26.842	1335.497	1084.908
75.636	26.770	1334.956	1083.945
76.651	26.830	1334.342	1083.710
77.666	26.709	1333.572	1082.267
78.680	26.798	1333.588	1082.712
79.695	26.710	1332.479	1081.195
80.709	26.729	1331.768	1080.633
81.724	26.683	1331.380	1079.949
82.739	26.828	1329.627	1079.296
83.753	26.735	1328.749	1077.931
84.768	26.629	1328.108	1076.685
85.782	26.802	1326.351	1076.196
86.797	26.791	1325.608	1075.434
87.812	26.742	1324.419	1074.084
88.826	26.766	1323.525	1073.402
89.841	26.858	1322.344	1072.895
90.855	26.784	1321.490	1071.668
91.870	26.850	1320.709	1071.330
92.884	26.768	1319.910	1070.102
93.899	26.798	1319.078	1069.513
94.914	26.770	1318.197	1068.539
95.928	26.754	1317.918	1068.122
96.943	26.859	1316.805	1067.746
97.957	26.798	1316.345	1066.919
98.972	26.839	1315.285	1066.203
99.987	26.892	1313.990	1065.376
101.001	26.655	1313.535	1063.516
102.016	26.901	1312.024	1063.644
103.030	26.866	1311.481	1062.902
104.045	26.860	1310.891	1062.298
105.060	26.839	1310.309	1061.608
106.074	26.939	1308.706	1060.801
107.089	26.884	1307.569	1059.464
108.103	26.873	1307.050	1058.887
109.118	26.929	1305.811	1058.116
110.133	26.844	1305.279	1057.091
111.147	26.952	1303.522	1056.205
112.162	26.916	1302.669	1055.211
113.176	26.928	1301.466	1054.216
114.191	27.013	1300.631	1053.940
115.206	26.957	1299.904	1052.928
116.220	26.858	1298.526	1051.147
117.235	26.856	1297.647	1050.329
118.249	26.893	1297.202	1050.092
119.264	26.898	1296.046	1049.093
120.279	26.812	1295.541	1048.091
121.293	26.991	1294.477	1048.175
122.308	27.037	1293.700	1047.720
123.322	27.052	1293.082	1047.212
124.337	26.940	1291.856	1045.480
125.352	26.939	1291.418	1045.026
126.366	26.943	1290.552	1044.259
127.381	27.004	1289.484	1043.652
128.395	27.080	1288.281	1043.022
129.410	26.971	1288.174	1042.216
130.424	26.882	1287.104	1040.747
131.439	26.930	1286.533	1040.468
132.454	26.877	1285.933	1039.592
133.468	26.974	1285.024	1039.316
134.483	26.865	1284.152	1037.897
135.497	26.931	1283.362	1037.541
136.512	26.943	1282.461	1036.790
137.527	26.932	1281.470	1035.835
138.541	26.915	1280.428	1034.804
139.556	26.895	1279.007	1033.450
140.570	26.769	1278.280	1032.057
141.585	26.952	1276.970	1031.945
142.600	26.974	1275.883	1031.105
143.614	27.041	1275.028	1030.701
144.629	26.951	1274.111	1029.358
145.643	26.767	1273.663	1027.861
146.658	26.810	1272.713	1027.247
147.673	26.902	1271.428	1026.640
148.687	26.861	1270.416	1025.498
149.702	26.813	1269.287	1024.229
150.716	26.781	1268.448	1023.279
151.731	26.946	1267.096	1023.026
152.746	26.888	1266.006	1021.731
153.760	26.991	1265.217	1021.581
154.775	27.040	1263.916	1020.716
155.789	26.981	1263.496	1019.954
156.804	26.928	1262.696	1018.923
157.819	26.925	1262.066	1018.307
158.833	26.950	1261.077	1017.556
159.848	26.992	1260.519	1017.252
160.862	26.995	1259.649	1016.476
161.877	26.881	1259.102	1015.312
162.892	27.036	1257.997	1015.195
163.906	26.946	1257.598	1014.282
164.921	26.973	1256.814	1013.708
165.935	27.014	1255.799	1013.029
166.950	27.015	1255.290	1012.536
167.964	27.003	1255.067	1012.201
168.979	27.040	1254.219	1011.628
169.994	27.073	1252.954	1010.705
171.008	27.056	1252.526	1010.175
172.023	26.997	1252.126	1009.435
173.037	27.118	1251.204	1009.276
174.052	27.068	1250.440	1008.290
175.067	27.056	1249.774	1007.602
176.081	26.962	1249.260	1006.572
177.096	27.065	1247.904	1005.966
178.110	27.111	1247.116	1005.492
179.125	27.097	1246.375	1004.732
180.140	27.109	1244.990	1003.591
181.154	27.019	1244.339	1002.483
182.169	27.112	1242.883	1001.731
183.183	27.087	1242.354	1001.078
184.198	27.137	1240.950	1000.132
185.213	27.093	1240.266	999.253
186.227	27.086	1239.535	998.534
187.242	27.147	1238.505	997.956
188.256	27.078	1237.829	996.940
189.271	27.151	1237.084	996.656
190.286	27.151	1236.351	995.975
191.300	27.122	1235.675	995.181
192.315	27.146	1235.306	994.929
193.329	27.105	1234.776	994.191
194.344	27.177	1234.279	994.097
195.359	27.148	1234.045	993.663
196.373	27.157	1233.421	993.121
197.388	27.073	1232.911	992.162
198.402	27.116	1232.794	992.213
199.417	27.006	1232.546	991.325
200.432	27.227	1231.412	991.535
201.446	27.282	1230.919	991.346
202.461	27.307	1230.281	990.882
203.475	27.147	1229.457	989.260
204.490	27.081	1228.297	987.883
205.504	27.209	1227.305	987.691
206.519	27.249	1226.672	987.312
207.534	27.220	1225.761	986.333
208.548	27.124	1225.084	985.180
209.563	27.204	1223.995	984.649
210.577	27.252	1223.059	984.071
211.592	27.415	1222.017	984.024
212.607	27.310	1221.406	982.878
213.621	27.279	1220.998	982.296
214.636	27.334	1220.214	981.875
215.650	27.251	1219.020	980.384
216.665	27.275	1218.006	979.610
217.680	27.194	1217.563	978.727
218.694	27.423	1216.533	979.049
219.709	27.489	1215.030	978.104
220.723	27.314	1215.292	977.291
221.738	27.224	1214.704	976.248
222.753	27.229	1213.740	975.412
223.767	27.344	1213.265	975.559
224.782	27.331	1213.103	975.275
225.796	27.416	1212.351	975.037
226.811	27.344	1211.718	974.056
227.826	27.355	1211.517	973.867
228.840	27.508	1210.328	973.643
229.855	27.318	1209.933	972.226
230.869	27.359	1208.937	971.560
231.884	27.370	1208.494	971.175
232.899	27.364	1207.542	970.293
233.913	27.444	1206.669	969.932
234.928	27.476	1206.528	969.901
235.942	27.419	1206.154	969.214
236.957	27.391	1205.863	968.744
237.972	27.402	1204.586	967.691
238.986	27.444	1204.080	967.420
240.001	27.468	1203.574	967.057
241.015	27.570	1202.576	966.711
242.030	27.567	1202.056	966.193
243.045	27.532	1200.828	964.935
244.059	27.473	1200.231	964.055
245.074	27.500	1199.780	963.753
246.088	27.666	1198.651	963.637
247.103	27.593	1197.733	962.429
248.117	27.555	1197.223	961.733
249.132	27.678	1196.080	961.379
250.147	27.740	1195.581	961.216
251.161	27.491	1195.077	959.416
252.176	27.535	1194.748	959.298
253.190	27.654	1193.637	958.948
254.205	27.644	1192.948	958.255
255.220	27.788	1192.536	958.600
256.234	27.604	1191.997	957.113
257.249	27.523	1191.666	956.340
258.263	27.597	1191.038	956.139
259.278	27.641	1190.538	955.884
260.293	27.681	1189.818	955.428
261.307	27.641	1189.629	954.980
262.322	27.611	1188.916	954.171
263.336	27.776	1187.561	953.858
264.351	27.756	1187.227	953.405
265.366	27.816	1186.290	952.879
266.380	27.698	1186.003	951.949
267.395	27.644	1185.314	951.031
268.409	27.631	1184.915	950.558
269.424	27.649	1184.340	950.104
270.439	27.736	1183.401	949.722
271.453	27.538	1183.788	948.919
272.468	27.710	1181.946	948.251
273.482	27.831	1180.948	947.996
274.497	27.771	1181.170	947.775
275.512	27.764	1180.749	947.320
276.526	27.739	1179.948	946.464
277.541	27.702	1179.091	945.499
278.555	27.797	1178.783	945.661
279.570	27.864	1178.277	945.518
280.585	27.644	1177.652	943.793
281.599	27.686	1176.357	942.889
282.614	27.797	1175.628	942.793
283.628	27.874	1174.421	942.144
284.643	27.834	1173.923	941.455
285.657	27.947	1172.492	940.804
286.672	27.861	1171.908	939.808
287.687	27.872	1170.983	939.039
288.701	27.847	1170.503	938.445
289.716	27.881	1170.017	938.146
290.730	27.895	1169.279	937.545
291.745	27.925	1168.793	937.227
292.760	28.005	1168.148	937.036
293.774	28.002	1167.847	936.695
294.789	28.047	1167.146	936.282
295.803	28.021	1166.774	935.766
296.818	27.966	1165.623	934.477
297.833	27.947	1165.018	933.816
298.847	28.077	1164.353	933.861
299.862	27.975	1164.000	932.977
300.876	27.959	1163.265	932.221
301.891	28.032	1162.688	932.050
302.906	28.153	1161.615	931.724
303.920	28.128	1161.050	931.058
304.935	28.140	1160.182	930.344
305.949	28.132	1159.934	930.024
306.964	28.018	1159.811	929.261
307.979	28.193	1158.705	929.180
308.993	28.097	1158.585	928.514
310.008	28.018	1157.772	927.380
311.022	28.123	1156.699	926.969
312.037	28.123	1156.128	926.434
313.052	28.038	1155.091	925.091
314.066	28.202	1154.021	924.978
315.081	28.289	1153.275	924.739
316.095	28.128	1153.156	923.748
317.110	28.117	1152.507	923.091
318.125	28.262	1151.396	922.849
319.139	28.182	1150.940	921.998
320.154	28.175	1150.426	921.473
321.168	28.232	1149.909	921.265
322.183	28.250	1149.610	921.031
323.197	28.256	1148.769	920.305
324.212	28.148	1148.620	919.564
325.227	28.183	1148.092	919.235
326.241	28.271	1147.145	918.837
327.256	28.439	1146.176	918.823
328.270	28.170	1145.653	916.974
329.285	28.310	1144.775	916.893
330.300	28.263	1144.227	916.137
331.314	28.270	1143.247	915.303
332.329	28.277	1142.664	914.791
333.343	28.407	1141.644	914.542
334.358	28.444	1140.836	913.998
335.373	28.524	1140.143	913.764
336.387	28.467	1139.598	912.961
337.402	28.505	1138.915	912.523
338.416	28.485	1138.516	912.021
339.431	28.413	1137.793	911.004
340.446	28.356	1137.471	910.381
341.460	28.504	1136.889	910.573
342.475	28.545	1135.783	909.811
343.489	28.474	1134.821	908.606
344.504	28.534	1133.895	908.081
345.519	28.477	1133.446	907.361
346.533	28.424	1132.637	906.370
347.548	28.490	1132.005	906.108
348.562	28.519	1131.176	905.510
349.577	28.496	1130.825	905.032
350.592	28.464	1129.920	904.069
351.606	28.480	1128.828	903.195
352.621	28.602	1128.653	903.576
353.635	28.496	1128.210	902.621
354.650	28.502	1127.327	901.863
355.665	28.568	1126.883	901.752
356.679	28.619	1126.379	901.519
357.694	28.573	1125.846	900.792
358.708	28.618	1124.986	900.242
359.723	28.598	1124.182	899.423
360.738	28.590	1123.565	898.811
361.752	28.638	1122.978	898.492
362.767	28.523	1122.725	897.652
363.781	28.680	1121.971	897.735
364.796	28.732	1121.542	897.567
365.810	28.753	1120.660	896.885
366.825	28.744	1119.902	896.156
367.840	28.757	1119.535	895.845
368.854	28.795	1119.074	895.580
369.869	28.730	1118.183	894.474
370.883	28.736	1117.815	894.128
371.898	28.678	1117.562	893.565
372.913	28.851	1116.710	893.644
373.927	28.866	1116.145	893.187
374.942	28.843	1115.328	892.341
375.956	28.798	1114.650	891.503
376.971	28.956	1114.351	891.951
377.986	28.787	1113.956	890.736
379.000	28.794	1113.369	890.223
380.015	28.970	1112.615	890.393
381.029	29.050	1111.670	889.942
382.044	28.945	1111.236	889.011
383.059	29.011	1110.691	888.814
384.073	28.914	1110.274	887.933
385.088	28.942	1109.116	887.062
386.102	29.002	1108.670	886.918
387.117	28.958	1107.675	885.833
388.132	28.987	1106.382	884.861
389.146	28.930	1106.057	884.247
390.161	28.958	1105.538	883.890
391.175	29.031	1104.833	883.598
392.190	29.040	1104.277	883.116
393.205	28.930	1103.946	882.245
394.219	29.039	1102.712	881.707
395.234	29.115	1102.174	881.561
396.248	29.043	1101.449	880.557
397.263	28.961	1100.936	879.676
398.278	29.155	1100.219	879.954
399.292	29.225	1099.355	879.521
400.307	29.194	1098.728	878.794
401.321	29.085	1098.629	878.117
402.336	29.147	1097.706	877.597
403.350	29.219	1096.771	877.112
404.365	29.106	1096.345	876.159
405.380	29.178	1095.798	875.986
406.394	29.241	1094.600	875.250
407.409	29.323	1094.014	875.092
408.423	29.257	1093.402	874.209
409.438	29.219	1092.476	873.213
410.453	29.257	1092.306	873.183
411.467	29.310	1091.302	872.554
412.482	29.313	1090.496	871.844
413.496	29.425	1089.842	871.774
414.511	29.381	1089.642	871.330
415.526	29.210	1089.580	870.396
416.540	29.173	1088.852	869.562
417.555	29.281	1088.445	869.667
418.569	29.416	1087.422	869.411
419.584	29.441	1086.938	869.062
420.599	29.514	1086.631	869.084
421.613	103.510	1322.582	1459.639
422.628	96.361	1356.952	1459.750
