DTS Sentinel unit serial number:	SN413079Multiplexer serial number:	ORYXHardware model number:	OX4-SRSoftware version number:	ORYX F/W v4.00 Oryx Data Collector v3.7.2.0data status	okinstallation	princeton_trtdifferential loss correction	single-endedforward channel	channel 2reverse channel	N/Adate	2019/09/19time	00:43:35forward acquisition time	60.00reverse acquisition time	0.00gamma	496.2192k internal	0.2353k external	0.2353temperature offset calibration	1.0011default loss term (dB/km)	0.3790temperature slope calibration	1.0000multiplexer offset coefficient	1.0000multiplexer slope coefficient	1.0000fibre end	0.00T internal ref (°C)	22.25T ext. ref 1 (°C)	0.73T ext. ref 2 (°C)	15.46length (m)	temperature (°C)	Stokes	anti-Stokes-747.200	-82.106	0.176	0.057
-746.185	235.509	0.115	0.190
-745.171	26.716	0.400	0.334
-744.156	-25.369	0.303	0.178
-743.142	-47.618	-0.210	0.102
-742.127	46.564	0.063	0.058
-741.112	437.333	0.079	0.172
-740.098	37.750	-0.034	0.030
-739.083	268.577	-0.204	0.357
-738.069	310.924	-0.331	0.618
-737.054	-200.000	-0.041	0.288
-736.039	265.830	-0.237	-0.412
-735.025	-51.984	0.245	0.113
-734.010	-35.788	-0.320	0.173
-732.996	389.293	-0.087	-0.180
-731.981	-121.779	-0.157	-0.026
-730.966	-200.000	-0.024	0.146
-729.952	-200.000	-0.021	-0.240
-728.937	36.600	-0.083	0.073
-727.923	154.998	-0.200	-0.274
-726.908	-10.395	-0.366	-0.242
-725.894	-4.536	0.324	0.223
-724.879	-200.000	-0.045	0.291
-723.864	-200.000	-0.018	-0.210
-722.850	223.747	-0.085	0.136
-721.835	-125.395	0.169	-0.026
-720.821	-150.901	-0.284	-0.021
-719.806	-97.631	-0.165	-0.043
-718.791	22.894	-0.088	0.072
-717.777	288.110	0.068	-0.122
-716.762	184.497	-0.163	0.240
-715.748	-26.758	-0.364	0.212
-714.733	-200.000	0.006	-0.092
-713.718	-24.053	-0.125	0.075
-712.704	189.275	0.186	0.278
-711.689	-106.639	-0.281	0.062
-710.675	5.016	0.081	0.059
-709.660	91.764	-0.112	-0.126
-708.645	-104.762	-0.079	0.018
-707.631	225.449	0.229	-0.370
-706.616	800.000	-0.062	0.229
-705.602	-200.000	0.035	0.158
-704.587	-200.000	0.042	0.253
-703.572	140.437	-0.090	-0.118
-702.558	662.339	0.167	0.428
-701.543	-37.013	-0.443	0.236
-700.529	-136.914	-0.187	0.021
-699.514	6.651	-0.145	0.107
-698.499	-200.000	0.020	0.226
-697.485	-97.949	-0.275	-0.071
-696.470	800.000	-0.013	0.044
-695.456	34.599	0.142	-0.123
-694.441	-31.493	0.177	0.099
-693.426	-113.472	-0.392	-0.076
-692.412	-200.000	-0.001	0.144
-691.397	-117.276	0.076	0.014
-690.383	-96.420	-0.240	0.063
-689.368	485.801	0.072	0.162
-688.354	-89.083	-0.258	0.076
-687.339	58.856	-0.090	0.088
-686.324	-182.286	-0.240	0.004
-685.310	-102.143	-0.263	-0.063
-684.295	-32.665	-0.210	-0.116
-683.281	800.000	-0.043	0.147
-682.266	180.911	-0.064	-0.093
-681.251	274.324	-0.127	-0.223
-680.237	88.875	0.119	0.132
-679.222	323.974	-0.061	-0.115
-678.208	-5.694	0.222	-0.151
-677.193	-200.000	0.006	0.169
-676.178	-80.461	0.041	-0.014
-675.164	458.343	-0.055	-0.122
-674.149	-200.000	-0.016	0.254
-673.135	404.717	-0.127	-0.266
-672.120	209.225	-0.084	0.130
-671.105	10.729	0.451	-0.342
-670.091	-200.000	-0.046	-0.212
-669.076	-200.000	0.024	-0.259
-668.062	10.494	-0.376	-0.285
-667.047	-57.835	-0.191	0.083
-666.032	800.000	0.036	-0.154
-665.018	-200.000	0.040	-0.193
-664.003	-137.583	-0.204	0.023
-662.989	800.000	-0.104	-0.300
-661.974	279.454	0.075	-0.133
-660.959	-69.618	0.085	0.032
-659.945	308.711	-0.136	0.252
-658.930	-198.656	0.108	-0.001
-657.916	-154.257	0.443	-0.030
-656.901	800.000	-0.067	0.197
-655.886	98.089	-0.123	-0.141
-654.872	658.487	0.141	0.359
-653.857	82.288	-0.347	-0.374
-652.843	51.476	-0.202	-0.191
-651.828	-200.000	-0.068	-0.364
-650.814	373.058	0.144	0.290
-649.799	-3.100	-0.081	-0.056
-648.784	-30.605	0.039	-0.022
-647.770	-36.192	-0.077	0.041
-646.755	-48.638	0.094	0.045
-645.741	-75.737	-0.461	0.163
-644.726	229.137	0.081	0.131
-643.711	-94.144	-0.112	-0.030
-642.697	-88.214	0.141	0.042
-641.682	800.000	0.087	-0.276
-640.668	-140.982	0.080	0.008
-639.653	265.705	-0.139	-0.241
-638.638	-200.000	-0.018	0.087
-637.624	-107.493	-0.612	-0.133
-636.609	34.075	-0.135	-0.116
-635.595	-163.757	0.417	-0.019
-634.580	800.000	-0.044	0.168
-633.565	-113.706	0.130	-0.025
-632.551	-200.000	-0.012	-0.118
-631.536	294.429	0.053	-0.095
-630.522	-200.000	0.084	-0.478
-629.507	-55.967	0.218	-0.097
-628.492	12.468	0.200	-0.153
-627.478	-63.194	0.159	0.065
-626.463	45.586	-0.157	-0.144
-625.449	800.000	0.061	-0.183
-624.434	-145.709	-0.201	-0.018
-623.419	-80.865	-0.427	-0.141
-622.405	-39.488	0.270	0.140
-621.390	-200.000	-0.006	0.262
-620.376	-128.167	0.484	-0.069
-619.361	-12.459	0.245	0.159
-618.346	281.864	-0.118	-0.210
-617.332	166.460	0.164	-0.231
-616.317	-19.001	-0.572	0.353
-615.303	-200.000	0.058	-0.278
-614.288	-130.557	-0.332	-0.044
-613.273	226.178	0.247	-0.397
-612.259	551.553	0.028	-0.067
-611.244	125.072	0.100	0.124
-610.230	-18.223	-0.090	0.056
-609.215	800.000	-0.033	0.132
-608.201	-58.178	-0.255	0.110
-607.186	35.299	0.226	0.196
-606.171	800.000	0.062	-0.185
-605.157	800.000	-0.040	-0.122
-604.142	278.745	0.083	0.146
-603.128	615.093	0.172	0.426
-602.113	-43.832	-0.025	-0.012
-601.098	-172.083	-0.162	-0.005
-600.084	-79.598	0.344	0.115
-599.069	283.811	-0.201	-0.358
-598.055	-179.401	-0.313	0.007
-597.040	28.676	0.130	-0.109
-596.025	494.498	0.044	-0.099
-595.011	57.718	0.166	0.161
-593.996	190.279	-0.130	0.193
-592.982	-118.006	-0.385	0.068
-591.967	800.000	-0.036	-0.121
-590.952	-57.789	-0.109	-0.047
-589.938	-24.190	-0.181	-0.107
-588.923	800.000	0.098	-0.400
-587.909	208.282	0.076	-0.118
-586.894	-40.919	-0.206	-0.105
-585.879	800.000	-0.057	0.168
-584.865	98.682	0.107	0.122
-583.850	-200.000	0.015	0.201
-582.836	-160.961	-0.282	-0.015
-581.821	-68.996	0.501	0.191
-580.806	-130.688	0.310	0.041
-579.792	-187.590	-0.316	0.004
-578.777	-88.724	-0.221	0.065
-577.763	92.697	-0.156	-0.174
-576.748	-159.227	0.251	-0.014
-575.733	597.089	-0.048	-0.117
-574.719	800.000	0.063	-0.257
-573.704	218.328	-0.069	-0.109
-572.690	101.013	-0.290	-0.334
-571.675	-72.308	-0.247	-0.091
-570.661	-78.888	-0.092	0.031
-569.646	131.197	-0.089	-0.114
-568.631	-96.082	0.185	-0.049
-567.617	77.849	0.036	-0.038
-566.602	-18.242	-0.039	0.024
-565.588	-150.522	0.074	0.006
-564.573	333.999	0.111	-0.212
-563.558	-105.218	0.257	0.058
-562.544	-107.740	-0.329	-0.071
-561.529	-200.000	0.029	-0.200
-560.515	20.623	0.234	-0.187
-559.500	26.145	0.311	-0.257
-558.485	147.234	-0.378	-0.504
-557.471	199.266	-0.109	0.165
-556.456	265.785	-0.094	-0.162
-555.442	-76.931	0.253	-0.087
-554.427	-200.000	0.042	0.254
-553.412	-34.705	-0.395	-0.214
-552.398	800.000	0.089	-0.274
-551.383	-200.000	0.009	-0.127
-550.369	-200.000	0.009	-0.165
-549.354	-29.366	-0.164	-0.093
-548.339	81.507	-0.082	-0.087
-547.325	-146.915	-0.342	-0.029
-546.310	-79.970	-0.199	0.066
-545.296	-200.000	-0.007	0.265
-544.281	-132.121	0.042	-0.005
-543.266	-26.077	-0.221	0.128
-542.252	-78.933	-0.357	0.120
-541.237	-23.782	0.238	-0.141
-540.223	-200.000	-0.027	0.346
-539.208	-161.175	0.231	-0.012
-538.193	-36.149	-0.178	0.095
-537.179	800.000	-0.051	0.175
-536.164	-200.000	0.002	0.340
-535.150	-116.189	0.040	-0.007
-534.135	-120.144	-0.296	-0.050
-533.121	610.022	0.084	-0.207
-532.106	-65.887	0.239	-0.094
-531.091	462.393	0.266	-0.587
-530.077	800.000	-0.145	-0.543
-529.062	800.000	-0.023	-0.073
-528.048	-61.239	-0.359	-0.150
-527.033	-200.000	-0.001	-0.031
-526.018	-95.743	0.201	0.053
-525.004	-122.358	-0.216	0.035
-523.989	-200.000	-0.019	-0.366
-522.975	143.639	-0.195	0.257
-521.960	609.256	-0.080	0.198
-520.945	-59.970	0.197	-0.083
-519.931	174.087	-0.067	0.096
-518.916	-121.286	0.129	0.021
-517.902	135.795	-0.123	0.159
-516.887	-200.000	-0.039	0.209
-515.872	800.000	-0.050	0.195
-514.858	-200.000	0.001	-0.212
-513.843	-9.890	0.069	0.045
-512.829	-165.434	0.086	0.004
-511.814	-66.456	0.133	0.052
-510.799	153.084	-0.095	-0.129
-509.785	73.196	-0.065	-0.067
-508.770	319.510	0.154	-0.289
-507.756	800.000	0.074	0.214
-506.741	23.355	-0.116	0.094
-505.726	169.059	0.060	-0.084
-504.712	800.000	-0.020	-0.064
-503.697	73.306	0.173	-0.178
-502.683	261.530	0.157	0.268
-501.668	254.417	-0.071	-0.120
-500.653	-107.924	-0.231	0.050
-499.639	71.919	-0.178	-0.183
-498.624	-51.967	0.273	0.125
-497.610	800.000	-0.036	-0.117
-496.595	449.597	0.027	-0.058
-495.581	-200.000	-0.018	-0.104
-494.566	800.000	0.047	-0.137
-493.551	97.250	-0.197	0.223
-492.537	-200.000	0.089	-0.550
-491.522	-47.960	0.262	-0.125
-490.508	318.811	0.134	0.251
-489.493	470.842	-0.166	0.369
-488.478	-200.000	0.032	0.233
-487.464	64.553	-0.016	-0.016
-486.449	246.937	0.180	0.300
-485.435	37.732	0.144	0.126
-484.420	-114.177	-0.317	0.060
-483.405	182.759	0.174	-0.254
-482.391	221.467	0.083	-0.131
-481.376	89.083	-0.366	-0.402
-480.362	463.368	-0.114	0.250
-479.347	140.531	-0.018	0.024
-478.332	696.448	-0.082	-0.213
-477.318	-200.000	-0.004	-0.251
-476.303	-190.119	-0.257	0.003
-475.289	-200.000	-0.081	-0.358
-474.274	-163.029	-0.330	0.016
-473.259	-58.567	-0.134	0.057
-472.245	-200.000	0.005	0.248
-471.230	-67.031	0.014	0.005
-470.216	-149.987	0.415	-0.032
-469.201	-200.000	-0.013	0.178
-468.186	36.795	-0.182	-0.159
-467.172	-18.818	-0.245	-0.150
-466.157	800.000	0.102	-0.292
-465.143	-143.336	0.091	0.009
-464.128	-176.535	-0.327	-0.008
-463.113	800.000	-0.037	-0.132
-462.099	-63.275	0.129	0.052
-461.084	355.433	0.054	0.106
-460.070	430.688	-0.094	0.201
-459.055	-26.344	0.103	0.059
-458.040	-35.851	-0.151	0.081
-457.026	51.788	0.130	-0.122
-456.011	-200.000	0.005	0.215
-454.997	-108.459	0.249	-0.053
-453.982	-27.580	-0.070	-0.040
-452.968	125.787	-0.174	-0.217
-451.953	800.000	0.043	-0.130
-450.938	97.681	-0.125	0.141
-449.924	-200.000	0.001	-0.464
-448.909	800.000	0.063	-0.238
-447.895	-200.000	-0.047	0.273
-446.880	-108.085	0.092	0.020
-445.865	104.076	-0.106	-0.123
-444.851	800.000	0.054	0.230
-443.836	23.708	0.259	0.210
-442.822	311.058	-0.112	0.207
-441.807	-111.639	-0.217	0.043
-440.792	-112.594	-0.107	-0.021
-439.778	-200.000	0.012	-0.237
-438.763	116.129	-0.177	0.214
-437.749	-200.000	0.010	0.161
-436.734	-200.000	-0.043	0.318
-435.719	-68.971	-0.094	0.036
-434.705	-165.954	0.307	-0.013
-433.690	197.003	-0.143	0.215
-432.676	-71.215	-0.104	0.038
-431.661	-108.351	0.393	0.084
-430.646	-61.064	0.066	-0.028
-429.632	-169.251	0.237	0.009
-428.617	-135.215	0.075	0.009
-427.603	800.000	0.059	0.200
-426.588	-133.443	0.145	-0.018
-425.573	-101.326	0.173	-0.042
-424.559	786.202	-0.067	-0.180
-423.544	466.293	0.108	0.239
-422.530	-200.000	0.015	-0.074
-421.515	179.737	-0.202	-0.292
-420.500	175.114	0.109	0.156
-419.486	-121.444	0.033	0.005
-418.471	-125.838	0.309	-0.046
-417.457	800.000	0.044	0.130
-416.442	36.803	0.196	0.170
-415.428	-49.948	0.165	-0.077
-414.413	53.404	-0.191	0.180
-413.398	-200.000	-0.109	0.499
-412.384	59.287	-0.113	-0.110
-411.369	-145.283	0.245	-0.022
-410.355	329.892	0.082	-0.155
-409.340	118.691	0.202	0.246
-408.325	603.922	-0.116	-0.285
-407.311	-200.000	-0.014	-0.112
-406.296	-4.139	0.284	0.194
-405.282	-111.650	0.202	0.040
-404.267	419.880	0.115	-0.241
-403.252	800.000	-0.048	0.208
-402.238	128.681	0.020	-0.025
-401.223	475.018	-0.096	-0.213
-400.209	703.445	-0.106	0.276
-399.194	-40.750	0.152	-0.078
-398.179	-200.000	0.005	0.150
-397.165	-8.550	0.452	0.298
-396.150	800.000	-0.043	-0.129
-395.136	13.962	-0.146	0.112
-394.121	-100.228	-0.163	0.040
-393.106	603.050	0.067	0.164
-392.092	142.359	0.210	0.275
-391.077	-164.005	-0.358	-0.016
-390.063	370.827	-0.025	-0.051
-389.048	800.000	0.159	-0.444
-388.033	559.932	-0.017	-0.040
-387.019	203.736	0.169	-0.257
-386.004	-200.000	-0.034	-0.518
-384.990	-161.493	-0.346	0.018
-383.975	-33.776	0.334	0.181
-382.960	800.000	0.051	-0.196
-381.946	-200.000	-0.018	-0.285
-380.931	216.872	-0.013	-0.020
-379.917	10.141	-0.046	-0.034
-378.902	-16.124	0.068	0.042
-377.888	-49.774	0.199	0.093
-376.873	226.917	-0.040	-0.064
-375.858	-200.000	0.060	-0.292
-374.844	800.000	0.109	-0.436
-373.829	-113.950	0.160	-0.031
-372.815	-200.000	0.060	-0.309
-371.800	-40.620	-0.175	-0.089
-370.785	75.349	-0.263	-0.272
-369.771	435.471	-0.076	0.162
-368.756	-3.418	-0.084	0.057
-367.742	800.000	-0.093	0.297
-366.727	278.955	0.120	0.210
-365.712	270.915	-0.218	0.377
-364.698	-171.627	0.220	-0.007
-363.683	-200.000	0.050	0.295
-362.669	-31.648	-0.207	0.114
-361.654	107.023	-0.115	0.135
-360.639	401.501	0.142	0.294
-359.625	6.122	0.267	0.194
-358.610	31.636	0.334	0.282
-357.596	-200.000	0.021	-0.126
-356.581	-200.000	-0.023	-0.255
-355.566	-200.000	0.042	-0.266
-354.552	104.275	0.274	-0.316
-353.537	-140.205	0.428	0.044
-352.523	-95.606	-0.243	-0.064
-351.508	800.000	-0.075	-0.272
-350.493	22.172	0.315	0.253
-349.479	-200.000	-0.062	0.278
-348.464	415.660	-0.160	0.336
-347.450	-127.854	-0.054	0.008
-346.435	112.410	-0.117	0.139
-345.420	-123.841	0.203	-0.031
-344.406	-30.827	0.132	-0.073
-343.391	153.378	0.085	-0.114
-342.377	83.822	-0.296	0.317
-341.362	-200.000	0.007	0.276
-340.348	-135.650	0.071	0.008
-339.333	-200.000	-0.025	0.436
-338.318	112.540	0.268	-0.318
-337.304	-200.000	0.018	0.100
-336.289	327.677	-0.065	0.123
-335.275	-39.785	-0.195	-0.100
-334.260	-80.813	-0.290	0.095
-333.245	414.588	0.155	-0.324
-332.231	46.805	-0.081	-0.074
-331.216	800.000	0.089	-0.252
-330.202	-89.317	-0.461	-0.133
-329.187	211.079	0.061	0.094
-328.172	800.000	-0.068	0.204
-327.158	116.597	0.101	0.121
-326.143	-200.000	0.014	0.348
-325.129	-2.725	0.281	-0.193
-324.114	-200.000	0.024	0.245
-323.099	800.000	-0.059	0.179
-322.085	105.135	0.068	-0.079
-321.070	17.104	-0.178	0.138
-320.056	-200.000	0.010	-0.128
-319.041	5.062	-0.238	-0.172
-318.026	800.000	-0.053	0.162
-317.012	-82.543	0.188	-0.060
-315.997	-98.590	0.193	-0.048
-314.983	-200.000	0.023	0.349
-313.968	800.000	0.073	-0.242
-312.953	140.588	-0.121	-0.157
-311.939	-114.920	0.301	-0.056
-310.924	800.000	0.090	0.303
-309.910	13.270	-0.073	0.056
-308.895	99.977	0.260	-0.295
-307.880	800.000	-0.090	0.250
-306.866	90.052	0.110	0.120
-305.851	-200.000	-0.047	-0.302
-304.837	-162.772	0.245	0.012
-303.822	-28.845	0.274	0.154
-302.807	-91.461	-0.223	0.062
-301.793	534.221	0.079	-0.183
-300.778	-200.000	-0.001	0.139
-299.764	-200.000	-0.046	0.335
-298.749	-166.372	-0.357	0.015
-297.735	-40.066	0.066	-0.034
-296.720	-200.000	0.007	-0.131
-295.705	16.260	0.180	-0.139
-294.691	-21.558	0.096	-0.057
-293.676	-4.451	-0.206	0.139
-292.662	-40.669	-0.455	-0.231
-291.647	-95.090	0.256	-0.068
-290.632	800.000	0.033	0.125
-289.618	186.440	-0.137	-0.200
-288.603	-70.369	0.120	0.045
-287.589	63.988	0.288	-0.283
-286.574	329.192	-0.070	0.131
-285.559	80.569	0.117	0.124
-284.545	-127.560	-0.230	-0.033
-283.530	80.419	0.231	-0.244
-282.516	-54.781	0.298	-0.132
-281.501	14.215	-0.234	0.178
-280.486	-47.390	-0.193	0.092
-279.472	-140.077	-0.221	-0.023
-278.457	47.259	0.280	0.255
-277.443	101.526	-0.196	0.223
-276.428	43.320	0.109	0.097
-275.413	-27.340	0.469	-0.267
-274.399	800.000	0.124	-0.424
-273.384	-131.900	-0.588	0.075
-272.370	-200.000	-0.005	-0.023
-271.355	164.619	0.262	0.361
-270.340	167.279	0.111	0.154
-269.326	-121.805	0.040	-0.007
-268.311	583.068	-0.195	0.468
-267.297	50.529	0.099	-0.091
-266.282	800.000	-0.100	-0.298
-265.267	-147.962	-0.109	-0.009
-264.253	-19.291	-0.367	0.223
-263.238	-151.409	-0.096	0.007
-262.224	547.096	0.071	0.167
-261.209	16.572	-0.121	0.094
-260.195	447.000	-0.067	-0.145
-259.180	-46.448	0.254	-0.122
-258.165	177.800	-0.183	-0.262
-257.151	-200.000	-0.012	-0.268
-256.136	-36.083	-0.203	-0.107
-255.122	-49.887	0.258	-0.120
-254.107	70.729	-0.066	-0.067
-253.092	194.663	-0.163	0.242
-252.078	-106.594	-0.121	0.026
-251.063	264.515	-0.108	-0.183
-250.049	-200.000	-0.029	0.144
-249.034	23.910	0.230	-0.186
-248.019	-94.380	0.344	-0.092
-247.005	90.107	0.196	-0.214
-245.990	-80.380	0.300	-0.098
-244.976	-91.838	-0.202	-0.056
-243.961	-144.632	0.473	0.043
-242.946	800.000	0.004	0.016
-241.932	298.867	0.142	0.255
-240.917	-200.000	0.029	0.204
-239.903	-126.473	-0.157	-0.023
-238.888	-119.837	-0.058	-0.010
-237.873	676.619	-0.133	0.337
-236.859	800.000	0.081	-0.235
-235.844	95.646	0.095	-0.106
-234.830	93.741	-0.165	0.183
-233.815	-44.663	0.201	0.098
-232.800	-200.000	0.016	-0.367
-231.786	169.851	0.220	-0.307
-230.771	-200.000	0.074	0.344
-229.757	66.110	-0.028	0.028
-228.742	-41.554	0.073	0.037
-227.727	800.000	-0.108	0.298
-226.713	-88.001	0.071	-0.021
-225.698	-29.816	-0.240	0.134
-224.684	-46.504	0.193	0.092
-223.669	19.299	0.152	-0.119
-222.655	-200.000	-0.020	0.306
-221.640	-83.102	-0.033	0.010
-220.625	-200.000	0.021	0.315
-219.611	299.438	0.057	0.102
-218.596	187.712	0.032	0.046
-217.582	11.908	0.197	0.148
-216.567	-94.960	-0.169	0.045
-215.552	96.218	-0.119	0.133
-214.538	-164.181	-0.053	0.002
-213.523	-83.318	0.405	0.127
-212.509	75.089	-0.167	0.171
-211.494	-52.473	-0.153	0.069
-210.479	96.432	0.018	0.020
-209.465	-52.809	-0.066	-0.030
-208.450	238.210	-0.027	-0.044
-207.436	762.585	-0.029	-0.078
-206.421	-64.133	-0.310	-0.123
-205.406	-68.026	-0.027	0.010
-204.392	-50.364	0.163	-0.075
-203.377	-200.000	-0.053	-0.250
-202.363	800.000	0.065	0.190
-201.348	39.224	-0.257	0.225
-200.333	-127.544	0.064	0.009
-199.319	334.937	0.113	-0.213
-198.304	800.000	0.081	0.272
-197.290	-156.744	0.032	0.002
-196.275	-200.000	-0.055	0.255
-195.260	230.719	0.110	0.176
-194.246	-94.452	-0.344	-0.091
-193.231	310.485	0.102	0.186
-192.217	-18.822	0.189	0.115
-191.202	-200.000	-0.018	0.339
-190.187	-200.000	-0.215	0.000
-189.173	-12.844	-0.096	-0.061
-188.158	-78.417	0.323	-0.108
-187.144	634.560	-0.037	0.091
-186.129	127.251	-0.117	-0.144
-185.114	-9.657	-0.099	0.064
-184.100	-38.287	0.087	-0.045
-183.085	134.733	0.172	0.217
-182.071	148.711	0.226	-0.298
-181.056	800.000	-0.040	-0.167
-180.042	-89.649	-0.170	0.049
-179.027	-200.000	0.036	-0.174
-178.012	800.000	-0.074	-0.205
-176.998	-128.132	-0.148	-0.021
-175.983	61.662	-0.128	0.124
-174.969	320.348	-0.084	0.156
-173.954	333.911	-0.086	-0.162
-172.939	800.000	0.108	0.314
-171.925	16.408	-0.284	0.219
-170.910	800.000	-0.035	0.098
-169.896	-200.000	-0.034	-0.248
-168.881	96.692	-0.221	0.247
-167.866	-41.107	-0.081	0.041
-166.852	-30.704	0.074	-0.041
-165.837	14.923	0.268	0.205
-164.823	216.664	0.070	0.109
-163.808	-74.891	0.155	-0.054
-162.793	112.697	0.191	-0.225
-161.779	-95.089	-0.211	0.056
-160.764	800.000	-0.081	-0.334
-159.750	-132.540	-0.231	-0.029
-158.735	-186.405	0.244	-0.003
-157.720	106.730	-0.065	-0.075
-156.706	108.165	0.217	0.252
-155.691	237.880	-0.197	0.318
-154.677	179.604	-0.326	0.465
-153.662	-57.582	-0.160	-0.068
-152.647	800.000	0.057	0.181
-151.633	37.636	-0.051	-0.044
-150.618	139.613	0.060	-0.077
-149.604	24.311	-0.296	0.238
-148.589	-43.650	0.261	-0.128
-147.574	-10.694	-0.152	0.098
-146.560	319.982	0.069	-0.128
-145.545	59.340	0.137	-0.132
-144.531	-23.174	-0.138	-0.081
-143.516	285.877	-0.101	0.177
-142.502	102.151	0.152	-0.173
-141.487	800.000	0.045	-0.148
-140.472	393.376	0.080	0.161
-139.458	-200.000	-0.030	-0.183
-138.443	800.000	-0.072	0.265
-137.429	-200.000	0.001	0.102
-136.414	26.475	0.231	-0.188
-135.399	-128.248	-0.266	0.037
-134.385	-110.538	0.295	-0.060
-133.370	415.877	-0.030	-0.062
-132.356	-200.000	-0.019	0.294
-131.341	143.506	-0.158	-0.204
-130.326	-161.808	-0.030	0.001
-129.312	-43.833	-0.347	-0.170
-128.297	91.647	-0.048	-0.053
-127.283	-200.000	0.031	0.329
-126.268	-93.803	0.106	-0.029
-125.253	-66.710	-0.222	-0.086
-124.239	224.966	-0.082	0.129
-123.224	800.000	0.151	0.510
-122.210	-7.407	0.050	0.033
-121.195	-200.000	0.008	-0.135
-120.180	130.175	-0.115	-0.143
-119.166	409.537	-0.094	-0.193
-118.151	-110.442	0.426	0.086
-117.137	721.188	-0.094	-0.243
-116.122	-0.639	0.045	0.031
-115.107	-200.000	-0.025	0.211
-114.093	21.194	-0.133	0.105
-113.078	30.578	0.020	0.017
-112.064	-4.004	-0.272	-0.183
-111.049	-200.000	-0.013	-0.068
-110.034	120.944	-0.024	-0.029
-109.020	62.810	0.129	-0.125
-108.005	25.515	0.236	0.191
-106.991	-200.000	0.005	0.150
-105.976	710.926	0.100	0.258
-104.962	-70.084	-0.294	0.109
-103.947	187.417	0.048	-0.070
-102.932	90.005	-0.144	-0.156
-101.918	-109.474	0.062	0.013
-100.903	473.238	0.106	-0.233
-99.889	-200.000	0.079	-0.347
-98.874	83.140	0.055	0.058
-97.859	-64.567	0.059	-0.023
-96.845	-200.000	0.049	0.232
-95.830	800.000	-0.121	-0.373
-94.816	-200.000	0.019	-0.244
-93.801	-200.000	0.014	-0.157
-92.786	134.825	0.047	0.059
-91.772	-200.000	0.013	0.080
-90.757	-48.325	-0.144	-0.068
-89.743	113.196	0.183	-0.215
-88.728	-69.170	-0.243	0.091
-87.713	-138.380	0.269	-0.029
-86.699	-200.000	-0.151	0.000
-85.684	-78.814	-0.418	-0.139
-84.670	244.724	-0.173	0.283
-83.655	-93.423	0.278	0.075
-82.640	-148.918	-0.301	0.024
-81.626	-111.936	-0.251	0.049
-80.611	-109.762	0.160	-0.033
-79.597	-20.353	0.032	0.019
-78.582	-10.028	-0.190	0.123
-77.567	100.125	0.222	0.250
-76.553	-200.000	-0.016	0.368
-75.538	-182.990	0.180	0.003
-74.524	-139.948	-0.352	-0.036
-73.509	-10.875	0.244	0.157
-72.494	43.103	0.070	0.062
-71.480	325.953	0.067	0.125
-70.465	-26.984	0.151	-0.085
-69.451	593.925	-0.216	0.519
-68.436	-94.282	-0.229	0.061
-67.422	-34.724	0.281	-0.149
-66.407	101.431	0.276	-0.312
-65.392	-200.000	-0.025	0.196
-64.378	800.000	-0.138	0.387
-63.363	-200.000	-0.161	-0.000
-62.349	171.228	-0.082	0.114
-61.334	55.995	-1.004	-0.945
-60.319	4.950	1.013	0.723
-59.305	131.303	-0.760	-0.947
-58.290	270.657	0.841	1.435
-57.276	800.000	0.297	1.095
-56.261	-200.000	133.760	696.487
-55.246	366.433	1660.960	3250.889
-54.232	134.555	2810.522	3538.164
-53.217	87.467	2304.362	2474.593
-52.203	31.305	1898.650	1581.766
-51.188	25.225	1693.116	1364.404
-50.173	23.250	1654.163	1318.276
-49.159	45.478	1727.201	1546.948
-48.144	42.481	1737.458	1533.228
-47.130	24.840	1687.229	1356.530
-46.115	22.311	1671.952	1325.170
-45.100	22.198	1666.645	1320.058
-44.086	22.160	1664.178	1317.767
-43.071	22.191	1661.556	1315.875
-42.057	22.031	1659.628	1313.096
-41.042	22.168	1657.322	1312.244
-40.027	22.185	1655.615	1310.971
-39.013	22.186	1653.724	1309.424
-37.998	22.132	1652.413	1307.931
-36.984	22.130	1651.211	1306.913
-35.969	22.242	1649.892	1306.651
-34.954	22.228	1648.198	1305.152
-33.940	22.186	1646.175	1303.188
-32.925	22.179	1644.355	1301.648
-31.911	22.096	1643.115	1299.999
-30.896	22.240	1640.596	1299.016
-29.881	22.209	1639.565	1297.924
-28.867	22.243	1638.167	1297.011
-27.852	22.170	1636.742	1295.298
-26.838	22.186	1635.458	1294.348
-25.823	22.322	1633.643	1293.858
-24.809	22.311	1632.592	1292.897
-23.794	22.288	1631.468	1291.780
-22.779	22.260	1629.983	1290.351
-21.765	22.313	1628.082	1289.184
-20.750	22.275	1626.324	1287.459
-19.736	22.306	1625.331	1286.850
-18.721	22.354	1623.668	1285.837
-17.706	22.319	1622.443	1284.555
-16.692	22.261	1621.411	1283.265
-15.677	22.283	1619.686	1282.008
-14.663	22.273	1618.572	1281.003
-13.648	22.305	1617.200	1280.104
-12.633	22.262	1615.655	1278.518
-11.619	22.381	1613.486	1277.614
-10.604	22.326	1612.266	1276.197
-9.590	22.331	1611.022	1275.199
-8.575	22.292	1610.238	1274.246
-7.560	22.247	1609.101	1272.970
-6.546	22.268	1608.033	1272.224
-5.531	22.337	1606.510	1271.467
-4.517	22.351	1605.379	1270.626
-3.502	22.249	1604.431	1269.087
-2.487	22.262	1602.506	1267.607
-1.473	21.901	1589.494	1254.683
-0.458	18.665	1570.440	1216.689
0.556	13.761	1572.121	1183.548
1.571	11.574	1595.839	1185.443
2.586	11.326	1607.852	1192.450
3.600	10.516	1554.097	1146.754
4.615	5.985	1449.644	1039.638
5.629	1.614	1392.940	971.031
6.644	0.800	1386.737	961.451
7.659	0.692	1385.605	959.892
8.673	0.693	1384.684	959.175
9.688	0.715	1381.839	957.259
10.702	0.549	1378.476	953.799
11.717	2.862	1381.237	970.252
12.731	8.986	1390.835	1015.786
13.746	14.971	1400.111	1060.517
14.761	17.073	1402.709	1075.720
15.775	16.621	1401.061	1071.505
16.790	15.743	1397.786	1063.354
17.804	14.883	1395.800	1056.315
18.819	14.504	1394.769	1053.054
19.834	14.355	1393.199	1050.835
20.848	14.116	1391.845	1048.213
21.863	13.843	1390.386	1045.300
22.877	13.633	1389.682	1043.356
23.892	13.635	1388.210	1042.173
24.907	13.588	1387.526	1041.275
25.921	13.539	1386.594	1040.174
26.936	13.676	1385.806	1040.347
27.950	13.707	1384.400	1039.397
28.965	13.792	1383.548	1039.199
29.980	13.768	1382.726	1038.338
30.994	13.831	1381.698	1037.871
32.009	13.893	1380.779	1037.473
33.023	13.840	1379.677	1036.222
34.038	13.820	1378.424	1035.064
35.053	13.752	1377.283	1033.696
36.067	13.694	1376.572	1032.706
37.082	13.755	1375.650	1032.304
38.096	13.798	1374.747	1031.804
39.111	13.760	1373.893	1030.834
40.126	13.769	1372.937	1030.080
41.140	13.661	1372.618	1029.083
42.155	13.693	1371.857	1028.615
43.169	13.596	1371.815	1027.891
44.184	13.655	1371.227	1027.725
45.199	13.592	1371.338	1027.326
46.213	13.646	1370.214	1026.729
47.228	13.603	1369.609	1025.918
48.242	13.685	1368.236	1025.309
49.257	13.750	1366.264	1024.140
50.271	13.724	1365.450	1023.280
51.286	13.743	1364.068	1022.272
52.301	13.755	1362.220	1020.868
53.315	13.801	1361.149	1020.256
54.330	13.756	1360.419	1019.342
55.344	13.690	1358.973	1017.768
56.359	13.728	1358.315	1017.414
57.374	13.671	1357.014	1016.005
58.388	13.631	1356.823	1015.527
59.403	13.572	1356.618	1014.917
60.417	13.571	1355.546	1014.019
61.432	13.597	1354.283	1013.146
62.447	13.603	1353.249	1012.321
63.461	13.471	1352.533	1010.888
64.476	13.551	1351.279	1010.353
65.490	13.495	1349.820	1008.829
66.505	13.640	1347.927	1008.204
67.520	13.528	1346.973	1006.723
68.534	13.591	1345.980	1006.273
69.549	13.598	1344.627	1005.219
70.563	13.572	1343.720	1004.289
71.578	13.520	1342.895	1003.272
72.593	13.510	1342.079	1002.515
73.607	13.495	1340.529	1001.173
74.622	13.583	1339.586	1000.911
75.636	13.503	1339.281	1000.115
76.651	13.538	1338.497	999.652
77.666	13.582	1337.625	999.178
78.680	13.397	1337.702	998.030
79.695	13.568	1336.756	998.266
80.709	13.472	1336.451	997.374
81.724	13.527	1335.529	996.930
82.739	13.630	1333.934	996.269
83.753	13.647	1332.550	995.246
84.768	13.735	1331.848	995.165
85.782	13.683	1330.885	994.045
86.797	13.633	1329.126	992.341
87.812	13.617	1327.933	991.269
88.826	13.717	1326.748	990.891
89.841	13.751	1325.676	990.210
90.855	13.678	1324.894	989.102
91.870	13.778	1324.168	989.065
92.884	13.701	1323.399	987.950
93.899	13.803	1322.371	987.698
94.914	13.809	1321.552	987.038
95.928	13.854	1320.671	986.559
96.943	13.754	1319.890	985.296
97.957	13.806	1318.680	984.614
98.972	13.737	1317.824	983.477
99.987	13.661	1316.681	982.085
101.001	13.774	1315.663	981.912
102.016	13.741	1314.624	980.852
103.030	13.834	1313.686	980.614
104.045	13.821	1312.623	979.657
105.060	13.791	1311.308	978.411
106.074	13.657	1310.250	976.748
107.089	13.669	1309.069	975.849
108.103	13.627	1307.931	974.669
109.118	13.664	1306.441	973.691
110.133	13.584	1305.579	972.490
111.147	13.637	1303.837	971.416
112.162	13.692	1302.243	970.469
113.176	13.656	1301.617	969.702
114.191	13.687	1300.845	969.223
115.206	13.665	1299.437	967.964
116.220	13.650	1297.732	966.518
117.235	13.680	1297.369	966.336
118.249	13.698	1296.182	965.474
119.264	13.745	1294.828	964.652
120.279	13.617	1293.964	963.180
121.293	13.696	1292.670	962.587
122.308	13.623	1292.230	961.750
123.322	13.710	1290.548	960.922
124.337	13.619	1289.485	959.515
125.352	13.654	1288.337	958.780
126.366	13.645	1287.416	957.959
127.381	13.527	1286.740	956.690
128.395	13.646	1285.198	956.146
129.410	13.702	1284.046	955.523
130.424	13.687	1283.292	954.791
131.439	13.734	1282.017	954.030
132.454	13.774	1281.380	953.702
133.468	13.731	1280.224	952.511
134.483	13.664	1279.895	951.793
135.497	13.697	1278.494	950.861
136.512	13.776	1277.054	950.157
137.527	13.742	1275.706	948.876
138.541	13.739	1274.598	947.953
139.556	13.767	1273.006	946.843
140.570	13.848	1271.988	946.461
141.585	13.809	1270.947	945.384
142.600	13.824	1269.706	944.463
143.614	13.951	1268.545	944.236
144.629	13.952	1267.695	943.522
145.643	13.876	1266.906	942.421
146.658	13.906	1265.725	941.630
147.673	13.882	1264.313	940.361
148.687	13.663	1263.812	938.664
149.702	13.880	1262.082	938.527
150.716	13.819	1260.537	936.949
151.731	13.812	1259.186	935.820
152.746	13.926	1258.017	935.510
153.760	13.955	1257.133	934.938
154.775	13.930	1255.610	933.579
155.789	14.001	1254.893	933.364
156.804	14.008	1253.802	932.510
157.819	14.072	1252.307	931.675
158.833	14.025	1252.226	931.265
159.848	14.094	1250.807	930.512
160.862	14.173	1249.600	929.978
161.877	14.076	1248.627	928.626
162.892	14.008	1247.868	927.602
163.906	13.990	1246.888	926.693
164.921	13.948	1245.983	925.703
165.935	14.068	1244.858	925.452
166.950	14.129	1244.022	925.088
167.964	14.056	1243.329	924.088
168.979	14.076	1242.984	923.856
169.994	14.104	1242.226	923.366
171.008	14.078	1241.412	922.537
172.023	14.127	1240.524	922.068
173.037	14.201	1239.841	921.886
174.052	14.206	1238.813	921.070
175.067	14.202	1237.523	920.007
176.081	14.100	1236.567	918.655
177.096	14.113	1235.825	918.091
178.110	14.188	1234.700	917.586
179.125	14.152	1233.612	916.499
180.140	14.148	1232.064	915.246
181.154	14.112	1231.177	914.311
182.169	14.271	1229.468	913.834
183.183	14.304	1228.641	913.318
184.198	14.220	1227.635	912.028
185.213	14.361	1226.076	911.563
186.227	14.295	1225.297	910.541
187.242	14.394	1223.957	910.007
188.256	14.341	1223.376	909.201
189.271	14.432	1222.267	908.796
190.286	14.332	1221.117	907.315
191.300	14.253	1220.657	906.460
192.315	14.218	1220.069	905.757
193.329	14.206	1219.505	905.192
194.344	14.232	1218.863	904.773
195.359	14.286	1218.266	904.545
196.373	14.378	1217.609	904.478
197.388	14.446	1216.754	904.132
198.402	14.579	1216.176	904.342
199.417	14.555	1215.911	903.935
200.432	14.508	1214.999	902.922
201.446	14.473	1214.355	902.173
202.461	14.641	1213.032	902.020
203.475	14.631	1211.945	901.076
204.490	14.572	1210.653	899.721
205.504	14.583	1209.397	898.767
206.519	14.645	1208.517	898.368
207.534	14.531	1207.334	896.794
208.548	14.505	1206.883	896.238
209.563	14.640	1205.860	896.125
210.577	14.642	1205.018	895.430
211.592	14.663	1204.085	894.771
212.607	14.671	1202.929	893.877
213.621	14.652	1202.178	893.137
214.636	14.717	1201.059	892.577
215.650	14.691	1200.439	891.899
216.665	14.814	1198.879	891.317
217.680	14.837	1198.374	890.980
218.694	14.822	1197.708	890.328
219.709	14.816	1196.881	889.604
220.723	14.792	1196.249	888.928
221.738	14.868	1195.356	888.590
222.753	14.726	1194.801	887.344
223.767	14.819	1194.149	887.274
224.782	14.924	1193.415	887.206
225.796	15.009	1192.369	886.801
226.811	14.902	1192.198	886.032
227.826	14.918	1191.560	885.561
228.840	14.854	1190.738	884.533
229.855	14.928	1189.975	884.277
230.869	14.942	1189.527	883.942
231.884	14.851	1188.559	882.666
232.899	14.946	1187.440	882.255
233.913	14.916	1186.937	881.648
234.928	14.828	1186.407	880.708
235.942	14.844	1185.384	879.960
236.957	14.839	1184.737	879.374
237.972	14.934	1183.760	879.069
238.986	14.842	1183.228	878.113
240.001	14.953	1182.236	877.882
241.015	15.024	1181.629	877.725
242.030	14.935	1180.813	876.578
243.045	14.896	1180.095	875.764
244.059	15.097	1178.832	875.797
245.074	15.191	1177.826	875.462
246.088	15.203	1176.966	874.809
247.103	15.155	1176.627	874.229
248.117	15.134	1176.097	873.650
249.132	15.233	1175.316	873.507
250.147	15.215	1174.908	873.032
251.161	15.249	1173.975	872.439
252.176	15.185	1172.936	871.256
253.190	15.318	1172.440	871.507
254.205	15.473	1171.719	871.698
255.220	15.439	1171.175	871.038
256.234	15.414	1170.723	870.494
257.249	15.502	1169.506	869.967
258.263	15.501	1169.178	869.642
259.278	15.469	1168.709	869.053
260.293	15.516	1167.944	868.650
261.307	15.485	1167.468	868.057
262.322	15.532	1167.130	867.971
263.336	15.547	1166.135	867.234
264.351	15.566	1165.687	866.920
265.366	15.525	1165.259	866.316
266.380	15.618	1164.234	865.954
267.395	15.696	1162.918	865.301
268.409	15.634	1162.445	864.555
269.424	15.575	1162.167	863.966
270.439	15.640	1161.540	863.760
271.453	15.627	1160.580	862.899
272.468	15.609	1159.714	862.090
273.482	15.694	1159.078	861.973
274.497	15.615	1158.598	861.137
275.512	15.670	1157.612	860.608
276.526	15.643	1156.917	859.876
277.541	15.693	1156.507	859.752
278.555	15.621	1155.713	858.717
279.570	15.765	1154.978	858.833
280.585	15.773	1154.344	858.327
281.599	15.905	1153.012	857.934
282.614	15.757	1151.707	856.134
283.628	15.812	1150.913	855.745
284.643	15.818	1149.948	854.984
285.657	15.785	1149.374	854.311
286.672	15.772	1148.366	853.421
287.687	15.928	1147.067	853.171
288.701	15.936	1146.639	852.820
289.716	15.763	1146.174	851.524
290.730	15.815	1144.750	850.649
291.745	15.938	1144.465	850.984
292.760	16.002	1143.450	850.479
293.774	16.039	1143.109	850.337
294.789	16.040	1142.314	849.677
295.803	15.986	1142.003	849.096
296.818	16.015	1141.380	848.702
297.833	16.001	1140.154	847.649
298.847	16.011	1139.521	847.154
299.862	16.037	1139.043	846.852
300.876	15.967	1138.455	845.986
301.891	16.036	1137.322	845.419
302.906	16.156	1136.873	845.611
303.920	16.122	1135.921	844.657
304.935	16.181	1135.445	844.525
305.949	16.210	1134.429	843.840
306.964	16.180	1134.190	843.434
307.979	16.137	1133.227	842.431
308.993	16.324	1132.195	842.524
310.008	16.187	1131.654	841.360
311.022	16.313	1130.561	841.103
312.037	16.230	1130.131	840.293
313.052	16.147	1129.261	839.162
314.066	16.239	1128.169	838.733
315.081	16.198	1127.509	837.961
316.095	16.183	1126.919	837.379
317.110	16.251	1125.805	836.814
318.125	16.292	1125.065	836.391
319.139	16.259	1123.827	835.231
320.154	16.216	1123.629	834.800
321.168	16.417	1122.957	835.217
322.183	16.413	1122.319	834.653
323.197	16.334	1121.987	833.938
324.212	16.386	1121.598	833.836
325.227	16.292	1121.411	833.158
326.241	16.309	1120.414	832.425
327.256	16.352	1119.574	831.944
328.270	16.350	1118.641	831.165
329.285	16.463	1117.447	830.757
330.300	16.419	1116.345	829.650
331.314	16.426	1115.431	828.934
332.329	16.556	1114.245	828.612
333.343	16.463	1113.766	827.727
334.358	16.436	1112.815	826.818
335.373	16.526	1112.258	826.770
336.387	16.522	1111.563	826.161
337.402	16.484	1111.132	825.580
338.416	16.536	1110.465	825.265
339.431	16.644	1109.486	824.993
340.446	16.621	1108.825	824.318
341.460	16.634	1108.119	823.783
342.475	16.722	1107.331	823.549
343.489	16.751	1106.395	822.922
344.504	16.839	1105.070	822.293
345.519	16.703	1104.881	821.421
346.533	16.931	1103.381	821.333
347.548	16.713	1103.459	820.266
348.562	16.801	1102.385	819.820
349.577	16.815	1101.773	819.361
350.592	16.798	1100.750	818.446
351.606	16.797	1100.127	817.905
352.621	16.826	1099.081	817.195
353.635	16.748	1098.573	816.366
354.650	16.774	1097.664	815.745
355.665	16.823	1096.950	815.378
356.679	16.824	1096.701	815.124
357.694	16.833	1096.154	814.690
358.708	16.837	1095.413	814.085
359.723	16.835	1094.700	813.473
360.738	16.897	1094.261	813.374
361.752	16.929	1093.742	813.072
362.767	16.965	1092.953	812.583
363.781	16.996	1092.298	812.173
364.796	17.024	1091.873	811.921
365.810	17.098	1091.297	811.772
366.825	17.133	1090.313	811.135
367.840	17.063	1090.264	810.695
368.854	17.094	1089.531	810.225
369.869	17.079	1088.598	809.391
370.883	17.214	1087.617	809.229
371.898	17.193	1087.011	808.610
372.913	17.134	1086.354	807.768
373.927	17.048	1086.303	807.250
374.942	17.186	1085.292	807.082
375.956	17.269	1084.939	807.143
376.971	17.215	1084.579	806.546
377.986	17.244	1083.663	805.931
379.000	17.282	1083.291	805.764
380.015	17.375	1082.657	805.660
381.029	17.264	1082.100	804.650
382.044	17.299	1081.230	804.099
383.059	17.419	1080.101	803.752
384.073	17.353	1079.704	803.077
385.088	17.504	1078.577	802.877
386.102	17.476	1077.623	801.964
387.117	17.295	1076.930	800.525
388.132	17.427	1076.261	800.578
389.146	17.390	1075.029	799.418
390.161	17.415	1074.628	799.164
391.175	17.453	1073.631	798.533
392.190	17.568	1073.126	798.627
393.205	17.522	1072.208	797.657
394.219	17.545	1071.418	797.106
395.234	17.468	1070.933	796.314
396.248	17.497	1069.752	795.502
397.263	17.562	1068.344	794.686
398.278	17.523	1068.099	794.255
399.292	17.558	1067.406	793.828
400.307	17.422	1067.128	792.919
401.321	17.491	1066.080	792.392
402.336	17.412	1065.779	791.733
403.350	17.607	1064.421	791.555
404.365	17.550	1064.381	791.194
405.380	17.667	1063.239	790.816
406.394	17.582	1062.668	789.928
407.409	17.588	1062.121	789.478
408.423	17.690	1061.259	789.239
409.438	17.659	1060.352	788.354
410.453	17.718	1059.627	788.017
411.467	17.667	1058.944	787.204
412.482	17.783	1058.343	787.222
413.496	17.733	1057.991	786.660
414.511	17.767	1057.362	786.282
415.526	17.832	1056.566	785.917
416.540	17.976	1056.314	786.322
417.555	17.974	1055.632	785.738
418.569	17.808	1055.447	784.765
419.584	17.818	1054.910	784.346
420.599	17.954	1054.098	784.296
421.613	109.968	1330.850	1491.039
422.628	101.386	1371.104	1491.086
