DTS Sentinel unit serial number:	SN413079Multiplexer serial number:	ORYXHardware model number:	OX4-SRSoftware version number:	ORYX F/W v4.00 Oryx Data Collector v3.7.2.0data status	okinstallation	princeton_trtdifferential loss correction	single-endedforward channel	channel 2reverse channel	N/Adate	2019/09/15time	19:23:35forward acquisition time	60.00reverse acquisition time	0.00gamma	496.2192k internal	0.2309k external	0.2309temperature offset calibration	0.9928default loss term (dB/km)	0.3790temperature slope calibration	1.0000multiplexer offset coefficient	1.0000multiplexer slope coefficient	1.0000fibre end	0.00T internal ref (°C)	39.48T ext. ref 1 (°C)	7.23T ext. ref 2 (°C)	28.96length (m)	temperature (°C)	Stokes	anti-Stokes-747.200	345.376	-0.022	0.044
-746.185	79.505	0.210	0.229
-745.171	743.439	-0.074	0.203
-744.156	138.626	-0.180	0.240
-743.142	-200.000	0.056	0.512
-742.127	470.903	-0.095	0.218
-741.112	-136.964	-0.421	0.049
-740.098	800.000	0.121	0.385
-739.083	-107.432	-0.058	0.013
-738.069	29.030	-0.346	0.298
-737.054	-72.426	0.181	-0.068
-736.039	89.880	-0.205	-0.232
-735.025	-200.000	0.067	0.298
-734.010	83.840	-0.206	0.229
-732.996	-200.000	-0.021	-0.212
-731.981	77.078	0.074	0.080
-730.966	-200.000	-0.028	-0.157
-729.952	699.149	0.040	0.106
-728.937	-109.764	0.069	0.015
-727.923	364.593	-0.110	-0.226
-726.908	-200.000	0.037	-0.338
-725.894	-200.000	0.091	-0.464
-724.879	-200.000	-0.013	-0.262
-723.864	-5.687	0.212	-0.148
-722.850	-38.805	0.077	-0.041
-721.835	363.862	-0.091	-0.186
-720.821	161.911	-0.100	0.142
-719.806	-44.782	0.322	0.163
-718.791	-200.000	0.041	0.278
-717.777	-171.301	-0.200	-0.007
-716.762	132.608	-0.069	0.091
-715.748	217.753	-0.052	0.084
-714.733	-123.518	-0.261	-0.042
-713.718	-30.743	0.180	-0.103
-712.704	64.912	-0.107	0.110
-711.689	122.450	-0.098	0.124
-710.675	-200.000	0.001	-0.103
-709.660	800.000	0.111	-0.396
-708.645	-147.975	-0.204	0.017
-707.631	-31.993	0.163	0.093
-706.616	800.000	-0.101	-0.385
-705.602	-68.910	-0.222	0.087
-704.587	800.000	0.058	0.196
-703.572	-110.979	0.318	-0.066
-702.558	7.173	-0.184	-0.140
-701.543	800.000	0.036	0.152
-700.529	-107.925	0.099	-0.022
-699.514	-161.402	-0.198	0.010
-698.499	800.000	0.137	-0.388
-697.485	-200.000	-0.076	-0.342
-696.470	800.000	-0.144	-0.464
-695.456	-42.334	-0.167	-0.086
-694.441	444.756	-0.146	-0.325
-693.426	-55.711	-0.173	0.078
-692.412	50.121	-0.206	0.197
-691.397	113.236	0.177	0.218
-690.383	-152.930	-0.176	-0.013
-689.368	198.797	-0.048	-0.074
-688.354	800.000	-0.090	-0.254
-687.339	608.444	0.122	0.308
-686.324	22.525	-0.244	0.203
-685.310	508.417	0.012	0.027
-684.295	50.686	0.090	-0.087
-683.281	-85.253	0.259	0.082
-682.266	-169.469	0.120	0.004
-681.251	-42.860	0.232	-0.120
-680.237	-98.409	-0.152	-0.039
-679.222	-159.578	0.343	0.019
-678.208	-149.406	0.254	0.020
-677.193	-5.852	0.412	-0.286
-676.178	-93.396	0.142	0.040
-675.164	89.260	0.101	0.114
-674.149	-85.484	-0.056	-0.018
-673.135	197.835	-0.105	-0.162
-672.120	-54.871	0.032	0.015
-671.105	-22.986	0.173	-0.105
-670.091	800.000	-0.068	-0.296
-669.076	84.609	0.167	-0.185
-668.062	-191.428	0.189	-0.002
-667.047	-130.322	-0.386	0.053
-666.032	307.224	-0.023	0.044
-665.018	251.164	-0.161	-0.278
-664.003	-51.915	0.232	0.109
-662.989	12.516	0.028	-0.022
-661.974	-65.900	0.274	-0.111
-660.959	140.208	-0.228	0.305
-659.945	586.939	-0.031	-0.076
-658.930	-200.000	0.031	0.524
-657.916	41.241	-0.137	-0.126
-656.901	12.551	0.103	0.080
-655.886	53.366	-0.187	-0.182
-654.872	516.250	-0.050	-0.119
-653.857	508.586	-0.088	-0.208
-652.843	-160.739	0.149	-0.008
-651.828	800.000	0.049	0.214
-650.814	128.691	-0.325	0.419
-649.799	-53.844	0.430	0.199
-648.784	43.701	-0.083	0.077
-647.770	134.889	0.042	0.055
-646.755	104.496	-0.110	-0.131
-645.741	-87.969	-0.109	-0.033
-644.726	-100.889	0.316	0.079
-643.711	182.551	-0.097	0.145
-642.697	13.441	0.099	0.078
-641.682	90.001	0.133	-0.151
-640.668	106.865	0.187	-0.225
-639.653	800.000	0.061	-0.233
-638.638	-52.086	0.109	0.051
-637.624	-200.000	-0.004	0.171
-636.609	-144.836	0.352	-0.033
-635.595	-86.492	-0.250	0.078
-634.580	-62.512	0.229	0.096
-633.565	-79.211	0.244	0.084
-632.551	-109.682	-0.215	0.046
-631.536	1.649	0.031	-0.023
-630.522	134.404	0.087	0.115
-629.507	-86.628	0.381	-0.118
-628.492	800.000	0.059	0.205
-627.478	176.360	-0.065	-0.095
-626.463	-125.282	0.106	-0.016
-625.449	-121.497	-0.158	-0.027
-624.434	-128.292	0.253	-0.036
-623.419	-143.464	-0.200	0.019
-622.405	-200.000	-0.047	-0.213
-621.390	113.708	0.222	0.272
-620.376	68.544	-0.216	0.224
-619.361	-102.171	0.145	-0.035
-618.346	800.000	0.046	-0.181
-617.332	69.149	-0.199	-0.207
-616.317	-200.000	0.051	0.360
-615.303	66.570	0.156	-0.160
-614.288	800.000	0.061	0.266
-613.273	-37.097	0.170	-0.092
-612.259	-50.099	-0.214	0.103
-611.244	-200.000	-0.006	0.224
-610.230	800.000	0.053	-0.217
-609.215	156.759	0.022	-0.031
-608.201	178.597	0.127	0.188
-607.186	-146.383	-0.494	-0.044
-606.171	-200.000	-0.037	-0.272
-605.157	26.091	0.053	0.045
-604.142	172.058	0.185	-0.269
-603.128	-116.291	-0.067	-0.013
-602.113	-92.419	-0.373	-0.106
-601.098	113.602	-0.185	-0.227
-600.084	-200.000	-0.008	0.209
-599.069	800.000	-0.069	-0.271
-598.055	659.777	-0.150	-0.390
-597.040	800.000	-0.016	0.049
-596.025	-57.357	0.150	-0.067
-595.011	2.266	0.364	0.266
-593.996	33.239	0.141	0.123
-592.982	800.000	0.067	-0.203
-591.967	139.598	0.078	-0.103
-590.952	-90.939	0.134	0.039
-589.938	-200.000	0.012	-0.072
-588.923	800.000	-0.081	0.307
-587.909	-101.304	0.344	0.085
-586.894	-99.901	0.279	-0.070
-585.879	-92.946	-0.171	0.048
-584.865	-90.219	0.150	-0.044
-583.850	-104.950	-0.213	-0.049
-582.836	-85.633	-0.240	-0.075
-581.821	-151.461	0.420	0.031
-580.806	274.177	0.077	-0.138
-579.792	-57.909	-0.226	0.100
-578.777	-115.767	-0.092	-0.017
-577.763	-200.000	0.026	-0.181
-576.748	-137.476	-0.202	0.023
-575.733	-33.248	0.055	0.031
-574.719	-87.577	-0.149	-0.045
-573.704	800.000	0.073	-0.216
-572.690	67.612	-0.163	-0.168
-571.675	26.948	0.227	0.192
-570.661	-6.557	-0.201	0.138
-569.646	21.295	0.313	0.257
-568.631	800.000	0.069	-0.264
-567.617	-191.106	-0.241	-0.003
-566.602	-110.939	-0.193	0.040
-565.588	76.472	-0.316	0.338
-564.573	-200.000	0.010	-0.117
-563.558	94.807	0.206	0.236
-562.544	-146.147	0.364	0.032
-561.529	148.565	0.136	0.185
-560.515	-200.000	-0.015	-0.088
-559.500	800.000	-0.024	-0.076
-558.485	47.691	-0.122	-0.115
-557.471	83.742	-0.096	0.105
-556.456	-38.689	0.108	0.058
-555.442	-97.647	0.079	-0.021
-554.427	80.633	-0.029	0.031
-553.412	144.487	0.206	-0.277
-552.398	-146.421	0.382	0.034
-551.383	-112.802	-0.150	-0.030
-550.369	800.000	-0.107	0.302
-549.354	800.000	-0.022	-0.063
-548.339	-200.000	0.011	-0.284
-547.325	541.827	0.109	-0.263
-546.310	191.634	0.110	-0.168
-545.296	-64.215	-0.072	0.030
-544.281	201.215	0.023	0.035
-543.266	800.000	-0.104	-0.311
-542.252	-93.037	0.302	-0.085
-541.237	-126.613	-0.160	-0.024
-540.223	-200.000	0.012	-0.112
-539.208	308.815	0.092	0.174
-538.193	-68.612	-0.261	-0.102
-537.179	-179.079	-0.269	-0.006
-536.164	64.627	0.205	-0.208
-535.150	67.599	-0.135	0.139
-534.135	-200.000	0.022	-0.135
-533.121	-45.215	-0.075	-0.038
-532.106	34.254	-0.214	-0.188
-531.091	3.822	0.083	0.061
-530.077	-141.499	-0.165	0.017
-529.062	-46.301	-0.164	-0.081
-528.048	-9.642	0.057	0.038
-527.033	-125.329	-0.131	0.020
-526.018	732.753	0.081	-0.218
-525.004	-43.707	0.111	0.057
-523.989	144.340	0.181	0.243
-522.975	-200.000	-0.033	-0.197
-521.960	-2.528	-0.178	-0.126
-520.945	-130.692	0.137	0.019
-519.931	19.215	0.122	-0.099
-518.916	147.053	-0.152	-0.205
-517.902	-200.000	0.027	0.167
-516.887	-89.525	0.096	-0.028
-515.872	-93.200	-0.146	0.041
-514.858	-200.000	0.010	0.077
-513.843	73.469	0.209	0.221
-512.829	57.584	-0.198	0.195
-511.814	-130.857	-0.507	-0.068
-510.799	-125.459	-0.220	0.034
-509.785	-200.000	-0.002	-0.265
-508.770	149.353	0.138	-0.189
-507.756	-200.000	-0.006	-0.115
-506.741	-21.346	0.235	-0.145
-505.726	166.891	-0.095	-0.135
-504.712	-200.000	-0.004	-0.276
-503.697	-200.000	-0.019	0.200
-502.683	300.521	-0.055	0.101
-501.668	-74.027	0.049	-0.018
-500.653	283.049	0.037	-0.067
-499.639	-72.173	0.218	-0.081
-498.624	-123.795	0.041	-0.007
-497.610	-11.099	-0.304	-0.201
-496.595	-200.000	0.004	0.187
-495.581	-200.000	-0.006	-0.223
-494.566	177.847	0.060	0.088
-493.551	-128.574	-0.263	-0.037
-492.537	124.824	-0.233	0.296
-491.522	800.000	-0.160	0.483
-490.508	-9.769	0.105	-0.070
-489.493	-200.000	0.058	0.291
-488.478	-168.666	0.019	-0.001
-487.464	122.928	-0.027	-0.034
-486.449	-200.000	-0.035	0.290
-485.435	800.000	-0.065	-0.221
-484.420	117.984	0.092	0.114
-483.405	136.025	0.129	0.169
-482.391	192.911	0.165	-0.251
-481.376	-127.977	-0.163	-0.024
-480.362	343.142	-0.048	-0.094
-479.347	-200.000	-0.016	-0.099
-478.332	800.000	-0.117	0.352
-477.318	800.000	-0.089	0.264
-476.303	133.729	0.123	-0.161
-475.289	-148.696	0.330	0.027
-474.274	-200.000	-0.020	0.149
-473.259	0.540	0.130	-0.093
-472.245	-135.018	-0.151	0.018
-471.230	-200.000	-0.018	0.138
-470.216	-107.296	0.103	-0.023
-469.201	-72.525	0.079	-0.029
-468.186	69.473	-0.220	0.228
-467.172	-200.000	0.007	0.109
-466.157	393.711	-0.084	-0.176
-465.143	-200.000	0.055	-0.386
-464.128	-84.633	0.132	0.042
-463.113	-156.054	0.238	-0.015
-462.099	800.000	-0.052	-0.165
-461.084	-200.000	-0.003	0.019
-460.070	-4.792	-0.133	-0.092
-459.055	178.049	0.013	-0.019
-458.040	140.011	-0.148	0.197
-457.026	173.614	-0.205	-0.296
-456.011	-14.857	0.151	-0.097
-454.997	-53.265	0.119	0.055
-453.982	29.409	-0.206	-0.176
-452.968	116.272	-0.064	-0.079
-451.953	45.085	-0.264	-0.244
-450.938	-200.000	0.023	-0.312
-449.924	-68.792	-0.027	0.010
-448.909	-92.727	-0.254	0.071
-447.895	205.223	-0.174	0.272
-446.880	-200.000	0.014	0.185
-445.865	800.000	0.037	0.133
-444.851	800.000	-0.029	-0.122
-443.836	-200.000	0.018	-0.292
-442.822	216.269	-0.186	0.297
-441.807	-48.574	0.158	-0.076
-440.792	-41.941	0.208	0.107
-439.778	134.191	-0.329	-0.427
-438.763	433.723	-0.062	-0.136
-437.749	9.719	0.161	-0.122
-436.734	-74.121	-0.245	0.089
-435.719	34.864	-0.145	0.128
-434.705	62.412	0.078	0.079
-433.690	-200.000	-0.007	0.128
-432.676	34.741	-0.092	0.081
-431.661	-120.726	0.285	0.048
-430.646	-69.629	0.177	0.068
-429.632	-200.000	0.001	0.100
-428.617	104.827	0.089	-0.106
-427.603	-106.870	-0.006	-0.001
-426.588	227.259	-0.168	-0.274
-425.573	147.229	0.150	-0.202
-424.559	37.640	0.069	0.061
-423.544	-93.618	-0.299	-0.083
-422.530	202.533	-0.103	0.160
-421.515	-111.923	-0.068	0.014
-420.500	-45.451	-0.194	-0.096
-419.486	173.270	-0.114	-0.164
-418.471	-200.000	0.026	0.202
-417.457	-31.555	-0.469	-0.264
-416.442	251.358	-0.041	-0.069
-415.428	-200.000	-0.021	-0.248
-414.413	-153.437	0.124	0.009
-413.398	-109.979	-0.195	-0.041
-412.384	-128.857	0.244	0.034
-411.369	-2.568	-0.228	0.160
-410.355	-177.501	-0.351	-0.009
-409.340	258.127	-0.073	-0.125
-408.325	97.132	-0.243	-0.279
-407.311	800.000	-0.135	-0.517
-406.296	-132.140	0.433	-0.056
-405.282	-153.874	0.277	0.019
-404.267	202.502	-0.299	0.463
-403.252	-134.977	0.159	-0.019
-402.238	-200.000	-0.035	0.180
-401.223	-200.000	-0.017	0.169
-400.209	35.593	-0.117	0.103
-399.194	-200.000	0.036	-0.290
-398.179	-44.823	0.230	-0.115
-397.165	174.921	-0.133	-0.194
-396.150	-78.724	-0.049	0.017
-395.136	-104.881	-0.310	0.071
-394.121	-64.957	0.229	0.093
-393.106	204.782	0.097	0.150
-392.092	62.871	0.340	0.341
-391.077	620.525	-0.135	-0.340
-390.063	35.632	-0.192	0.169
-389.048	493.679	-0.052	-0.120
-388.033	571.469	0.025	-0.061
-387.019	-200.000	0.034	0.152
-386.004	-100.968	0.290	0.071
-384.990	-113.260	0.066	0.013
-383.975	-200.000	-0.040	0.408
-382.960	-88.443	0.053	0.016
-381.946	357.327	-0.036	-0.072
-380.931	424.979	-0.111	0.240
-379.917	800.000	-0.025	0.075
-378.902	-159.308	-0.328	-0.018
-377.888	100.482	0.078	0.090
-376.873	660.692	-0.043	0.111
-375.858	800.000	0.037	-0.127
-374.844	62.943	0.274	-0.275
-373.829	-108.999	-0.112	-0.024
-372.815	33.317	-0.193	0.168
-371.800	-200.000	0.047	0.214
-370.785	-77.464	-0.026	-0.009
-369.771	-84.908	-0.089	-0.028
-368.756	-18.704	-0.070	0.044
-367.742	535.678	0.064	0.152
-366.727	-114.089	-0.267	0.052
-365.712	-96.924	0.114	-0.030
-364.698	140.437	0.068	-0.089
-363.683	-82.909	-0.247	0.080
-362.669	614.978	-0.081	0.203
-361.654	76.421	0.334	0.354
-360.639	-48.307	-0.180	0.087
-359.625	-200.000	-0.019	0.360
-358.610	154.655	-0.146	0.201
-357.596	190.742	-0.134	0.202
-356.581	-99.685	-0.303	0.076
-355.566	-200.000	-0.023	-0.242
-354.552	-113.692	0.201	-0.039
-353.537	-200.000	0.033	0.265
-352.523	-20.226	0.209	-0.129
-351.508	193.627	0.041	0.062
-350.493	61.915	-0.304	0.303
-349.479	40.945	0.105	0.095
-348.464	800.000	0.075	-0.230
-347.450	-174.152	0.208	0.006
-346.435	25.058	0.186	0.154
-345.420	130.525	0.075	-0.096
-344.406	-61.586	-0.081	-0.034
-343.391	499.811	0.191	-0.441
-342.377	322.837	-0.184	0.351
-341.362	20.783	0.077	0.062
-340.348	-115.055	0.143	-0.027
-339.333	-71.257	-0.353	0.132
-338.318	-72.970	0.104	-0.038
-337.304	75.634	-0.171	-0.181
-336.289	24.070	0.051	-0.042
-335.275	800.000	0.012	-0.038
-334.260	-127.306	0.117	0.017
-333.245	-66.319	0.138	0.055
-332.231	-200.000	-0.003	0.385
-331.216	-118.315	0.376	-0.067
-330.202	-5.758	-0.417	0.285
-329.187	-106.769	-0.437	0.097
-328.172	39.069	0.228	-0.204
-327.158	800.000	-0.057	-0.229
-326.143	198.811	-0.124	-0.190
-325.129	9.188	0.146	0.110
-324.114	-171.555	-0.045	-0.001
-323.099	187.640	-0.177	0.264
-322.085	261.510	-0.079	-0.137
-321.070	179.263	-0.025	0.037
-320.056	-141.261	0.206	0.021
-319.041	179.245	0.032	0.046
-318.026	-75.455	-0.072	-0.026
-317.012	-200.000	0.002	0.052
-315.997	61.764	-0.272	0.270
-314.983	409.235	0.137	0.290
-313.968	-73.849	0.096	-0.035
-312.953	27.413	0.190	-0.159
-311.939	-156.767	0.318	0.020
-310.924	-105.213	-0.324	0.074
-309.910	-43.814	-0.121	0.061
-308.895	208.931	0.114	0.179
-307.880	-178.100	0.094	-0.002
-306.866	371.600	0.053	-0.107
-305.851	-200.000	0.015	-0.118
-304.837	-191.961	0.245	-0.002
-303.822	-133.016	0.250	0.032
-302.807	-94.532	0.224	-0.061
-301.793	146.130	0.059	-0.079
-300.778	258.852	-0.109	-0.188
-299.764	-56.437	-0.285	-0.126
-298.749	-200.000	-0.001	0.060
-297.735	-59.673	0.141	-0.060
-296.720	-50.648	0.062	0.029
-295.705	-110.850	0.129	0.027
-294.691	-200.000	0.042	-0.190
-293.676	570.321	-0.203	0.492
-292.662	-65.427	-0.112	-0.045
-291.647	549.135	-0.072	0.172
-290.632	-70.683	0.100	-0.038
-289.618	-147.225	-0.318	0.027
-288.603	-36.201	-0.134	0.072
-287.589	177.900	-0.210	-0.305
-286.574	159.643	0.114	0.158
-285.559	27.780	-0.160	0.135
-284.545	39.094	0.164	0.146
-283.530	253.914	0.095	0.162
-282.516	75.230	-0.067	0.071
-281.501	-126.750	0.178	0.026
-280.486	-200.000	0.010	0.240
-279.472	-55.473	0.189	0.085
-278.457	-160.099	0.183	0.010
-277.443	-144.647	-0.179	0.016
-276.428	94.405	0.286	-0.324
-275.413	-47.984	0.214	0.103
-274.399	11.073	-0.171	-0.131
-273.384	108.564	0.079	-0.094
-272.370	800.000	-0.063	0.237
-271.355	-200.000	-0.012	-0.192
-270.340	7.315	0.130	-0.097
-269.326	12.286	-0.085	-0.066
-268.311	800.000	0.060	0.200
-267.297	-69.022	-0.007	-0.003
-266.282	-72.033	-0.163	0.060
-265.267	-128.370	-0.070	0.010
-264.253	88.776	-0.119	-0.133
-263.238	-101.067	0.352	-0.086
-262.224	55.274	-0.018	0.017
-261.209	800.000	0.059	-0.176
-260.195	70.400	-0.023	0.024
-259.180	117.269	0.079	-0.096
-258.165	-77.326	-0.205	0.071
-257.151	-200.000	-0.020	-0.178
-256.136	-88.002	-0.387	-0.116
-255.122	-200.000	0.009	-0.070
-254.107	800.000	-0.063	-0.190
-253.092	-200.000	-0.034	0.212
-252.078	129.476	-0.076	0.097
-251.063	-200.000	0.027	0.125
-250.049	800.000	0.018	0.056
-249.034	510.802	0.064	0.148
-248.019	-79.660	-0.015	-0.005
-247.005	-79.404	0.268	-0.090
-245.990	800.000	-0.024	0.070
-244.976	262.856	0.136	-0.235
-243.961	-44.964	0.301	0.149
-242.946	800.000	-0.082	-0.228
-241.932	-57.915	0.166	-0.072
-240.917	82.914	-0.215	0.233
-239.903	-200.000	-0.000	0.013
-238.888	244.277	0.244	-0.407
-237.873	-115.750	-0.060	0.011
-236.859	169.624	0.310	0.441
-235.844	83.533	0.103	-0.112
-234.830	90.009	0.160	-0.178
-233.815	-122.417	0.176	-0.028
-232.800	-200.000	0.003	0.119
-231.786	-200.000	-0.008	0.072
-230.771	-55.141	0.151	-0.068
-229.757	49.089	0.098	-0.092
-228.742	129.222	0.139	0.177
-227.727	-112.732	0.188	-0.037
-226.713	-163.270	0.072	0.003
-225.698	-64.320	-0.370	-0.150
-224.684	39.484	0.101	-0.090
-223.669	-200.000	0.001	0.140
-222.655	800.000	-0.011	0.043
-221.640	800.000	-0.031	-0.104
-220.625	173.984	0.070	-0.101
-219.611	-200.000	0.009	-0.116
-218.596	-200.000	-0.007	-0.049
-217.582	-65.554	-0.077	-0.031
-216.567	20.646	-0.369	0.297
-215.552	598.808	0.046	-0.112
-214.538	28.954	0.081	-0.069
-213.523	160.887	0.212	0.294
-212.509	-154.937	-0.093	-0.006
-211.494	-30.924	-0.083	-0.047
-210.479	-167.428	0.126	-0.005
-209.465	-24.359	0.459	-0.273
-208.450	73.461	0.159	-0.165
-207.436	-75.253	-0.260	0.092
-206.421	168.867	-0.055	-0.078
-205.406	800.000	-0.038	0.156
-204.392	261.579	-0.053	0.092
-203.377	-200.000	0.023	-0.114
-202.363	-200.000	0.041	0.269
-201.348	-62.657	-0.050	0.021
-200.333	-28.889	-0.273	0.156
-199.319	300.355	0.145	0.265
-198.304	53.645	0.276	0.263
-197.290	261.322	-0.182	0.314
-196.275	250.388	-0.125	-0.212
-195.260	-200.000	-0.028	-0.188
-194.246	-200.000	0.013	0.116
-193.231	-144.758	0.219	0.020
-192.217	-121.142	0.102	-0.017
-191.202	-12.060	-0.168	-0.109
-190.187	95.932	-0.247	-0.280
-189.173	-180.731	-0.270	0.005
-188.158	12.114	-0.164	-0.125
-187.144	573.324	0.014	0.034
-186.129	-111.250	-0.266	0.054
-185.114	184.305	-0.063	0.093
-184.100	-200.000	-0.278	0.001
-183.085	617.236	-0.108	-0.269
-182.071	461.190	0.090	-0.199
-181.056	-30.601	-0.158	0.089
-180.042	4.932	-0.153	0.112
-179.027	674.838	0.034	-0.088
-178.012	-200.000	-0.008	0.144
-176.998	-200.000	0.006	0.067
-175.983	-85.357	0.255	-0.079
-174.969	-79.308	-0.132	0.044
-173.954	40.526	-0.142	0.127
-172.939	-200.000	0.019	-0.168
-171.925	-49.753	0.380	0.180
-170.910	527.314	-0.083	-0.194
-169.896	-200.000	0.042	-0.215
-168.881	6.857	-0.039	-0.029
-167.866	101.789	0.155	-0.179
-166.852	-35.316	-0.337	-0.182
-165.837	-69.774	0.219	0.083
-164.823	800.000	-0.042	0.119
-163.808	-68.541	-0.147	0.057
-162.793	-96.065	-0.266	0.070
-161.779	-123.606	-0.126	0.020
-160.764	-53.843	-0.236	-0.107
-159.750	-113.087	0.631	0.124
-158.735	-148.000	-0.076	-0.006
-157.720	-48.342	0.227	-0.109
-156.706	-200.000	0.017	-0.309
-155.691	-200.000	0.022	-0.155
-154.677	639.204	0.052	-0.130
-153.662	-200.000	-0.056	0.251
-152.647	-64.854	0.319	-0.128
-151.633	134.394	0.166	0.213
-150.618	-200.000	-0.091	0.438
-149.604	-77.958	0.219	0.075
-148.589	-16.152	-0.191	-0.120
-147.574	112.743	-0.083	0.100
-146.560	-19.419	0.256	-0.157
-145.545	-200.000	-0.031	0.232
-144.531	-200.000	-0.011	0.242
-143.516	59.708	-0.181	0.177
-142.502	-200.000	0.048	0.227
-141.487	414.498	0.147	0.311
-140.472	-75.545	-0.060	-0.021
-139.458	-200.000	0.049	0.409
-138.443	-143.905	-0.292	-0.027
-137.429	131.450	0.171	0.218
-136.414	-85.636	0.092	-0.028
-135.399	-129.210	0.050	-0.007
-134.385	-36.170	-0.114	-0.061
-133.370	-200.000	0.004	-0.304
-132.356	-189.547	0.181	-0.002
-131.341	363.623	-0.066	-0.132
-130.326	17.744	-0.166	-0.131
-129.312	800.000	-0.102	0.283
-128.297	92.195	0.029	-0.033
-127.283	-133.524	0.131	-0.016
-126.268	800.000	-0.030	0.091
-125.253	-61.868	0.194	0.081
-124.239	-159.472	0.263	0.015
-123.224	-7.992	-0.178	0.119
-122.210	387.544	0.022	0.046
-121.195	-104.566	0.220	0.050
-120.180	-200.000	-0.046	0.338
-119.166	-73.024	0.337	0.123
-118.151	88.533	-0.194	-0.214
-117.137	800.000	-0.078	0.213
-116.122	333.988	0.157	-0.300
-115.107	68.237	0.023	-0.024
-114.093	-200.000	-0.004	0.038
-113.078	-200.000	0.046	-0.435
-112.064	-105.539	-0.426	-0.096
-111.049	-36.775	0.144	-0.077
-110.034	182.367	-0.134	-0.196
-109.020	800.000	0.033	-0.135
-108.005	-53.577	-0.182	-0.083
-106.991	94.094	0.082	0.092
-105.976	217.690	-0.071	-0.112
-104.962	-58.168	0.242	-0.104
-103.947	316.871	0.100	-0.188
-102.932	57.927	0.195	0.189
-101.918	55.071	-0.084	0.081
-100.903	-67.323	0.114	0.044
-99.889	-67.543	-0.079	0.031
-98.874	-200.000	0.000	0.056
-97.859	-37.258	0.094	-0.050
-96.845	-99.530	0.367	0.091
-95.830	-83.385	-0.387	0.123
-94.816	-5.807	-0.185	-0.125
-93.801	260.065	-0.134	0.229
-92.786	270.062	0.064	0.112
-91.772	-99.184	0.400	-0.100
-90.757	121.136	-0.229	-0.282
-89.743	-200.000	-0.017	0.169
-88.728	224.113	0.168	0.269
-87.713	-200.000	-0.002	0.268
-86.699	-200.000	-0.053	-0.250
-85.684	-172.338	0.113	0.004
-84.670	-3.197	-0.076	-0.052
-83.655	114.021	-0.205	-0.247
-82.640	-104.779	-0.122	0.028
-81.626	98.847	-0.275	-0.315
-80.611	-129.752	0.282	-0.038
-79.597	-200.000	-0.003	0.125
-78.582	-117.147	-0.173	0.031
-77.567	202.475	-0.174	-0.265
-76.553	800.000	-0.072	0.200
-75.538	331.309	-0.229	0.437
-74.524	-16.701	0.243	0.152
-73.509	-109.526	0.239	0.050
-72.494	800.000	0.093	0.343
-71.480	12.784	-0.057	-0.043
-70.465	-68.971	-0.151	-0.058
-69.451	-65.590	0.091	-0.036
-68.436	-81.708	0.094	-0.031
-67.422	535.848	-0.077	-0.180
-66.407	-38.364	-0.261	-0.137
-65.392	-62.766	-0.176	-0.072
-64.378	3.985	0.078	0.056
-63.363	-200.000	0.025	0.246
-62.349	388.533	-0.063	0.129
-61.334	-21.205	-0.879	-0.532
-60.319	-200.000	0.066	0.323
-59.305	-200.000	-0.077	-0.779
-58.290	203.523	0.607	0.929
-57.276	800.000	0.513	1.571
-56.261	-200.000	85.209	530.415
-55.246	544.428	1336.169	3155.543
-54.232	153.502	2549.262	3452.164
-53.217	110.140	2318.369	2752.326
-52.203	48.540	1939.415	1796.825
-51.188	42.657	1729.836	1557.191
-50.173	39.831	1684.902	1495.321
-49.159	54.695	1728.209	1647.995
-48.144	59.018	1746.290	1698.299
-47.130	42.608	1704.928	1534.156
-46.115	39.514	1690.305	1497.468
-45.100	39.385	1686.040	1492.648
-44.086	39.451	1682.893	1490.301
-43.071	39.312	1680.942	1487.469
-42.057	39.214	1678.534	1484.536
-41.042	39.347	1676.256	1483.463
-40.027	39.427	1674.438	1482.405
-39.013	39.411	1672.542	1480.540
-37.998	39.306	1670.765	1478.122
-36.984	39.299	1669.582	1476.963
-35.969	39.542	1667.597	1476.971
-34.954	39.482	1666.655	1475.629
-33.940	39.519	1664.315	1473.773
-32.925	39.480	1662.327	1471.669
-31.911	39.497	1660.730	1470.319
-30.896	39.512	1658.876	1468.729
-29.881	39.465	1657.585	1467.181
-28.867	39.453	1655.744	1465.404
-27.852	39.467	1654.402	1464.261
-26.838	39.486	1652.908	1463.025
-25.823	39.514	1651.257	1461.708
-24.809	39.582	1649.825	1460.888
-23.794	39.527	1648.648	1459.385
-22.779	39.563	1646.919	1458.063
-21.765	39.491	1645.666	1456.361
-20.750	39.461	1644.184	1454.771
-19.736	39.465	1642.769	1453.489
-18.721	39.508	1641.219	1452.376
-17.706	39.526	1639.800	1451.193
-16.692	39.563	1638.107	1449.914
-15.677	39.460	1637.087	1448.197
-14.663	39.486	1635.962	1447.333
-13.648	39.551	1634.299	1446.282
-12.633	39.571	1632.607	1444.877
-11.619	39.590	1631.410	1443.894
-10.604	39.480	1629.753	1441.571
-9.590	39.413	1628.459	1439.875
-8.575	39.497	1627.044	1439.181
-7.560	39.533	1625.410	1437.942
-6.546	39.584	1624.473	1437.428
-5.531	39.446	1623.588	1435.581
-4.517	39.488	1622.200	1434.603
-3.502	39.520	1621.140	1433.840
-2.487	39.581	1619.367	1432.662
-1.473	38.694	1606.342	1414.681
-0.458	34.108	1581.147	1359.753
0.556	25.603	1576.265	1305.948
1.571	22.051	1597.170	1296.971
2.586	20.700	1609.884	1297.120
3.600	18.706	1559.860	1242.282
4.615	13.515	1455.639	1124.038
5.629	8.431	1392.763	1042.300
6.644	7.329	1383.842	1028.385
7.659	7.229	1382.842	1026.903
8.673	7.246	1381.619	1026.010
9.688	7.116	1379.685	1023.646
10.702	6.902	1376.961	1020.155
11.717	9.051	1381.236	1037.132
12.731	14.124	1389.691	1076.295
13.746	17.082	1394.173	1098.844
14.761	16.847	1392.985	1096.292
15.775	15.835	1390.147	1087.426
16.790	14.884	1387.190	1078.879
17.804	14.029	1385.162	1071.697
18.819	13.555	1383.247	1067.066
19.834	13.273	1382.001	1064.199
20.848	12.996	1381.257	1061.747
21.863	12.786	1380.023	1059.356
22.877	12.606	1378.707	1057.097
23.892	12.635	1377.298	1056.109
24.907	12.620	1376.620	1055.400
25.921	12.634	1375.487	1054.526
26.936	12.706	1374.837	1054.398
27.950	12.667	1373.655	1053.149
28.965	12.746	1372.535	1052.701
29.980	12.768	1371.474	1051.935
30.994	12.866	1370.133	1051.438
32.009	12.888	1369.154	1050.731
33.023	12.905	1367.677	1049.617
34.038	12.769	1366.757	1047.953
35.053	12.754	1365.156	1046.533
36.067	12.788	1363.746	1045.575
37.082	12.705	1363.279	1044.599
38.096	12.786	1362.034	1044.068
39.111	12.869	1361.080	1043.769
40.126	12.770	1360.538	1042.636
41.140	12.668	1359.320	1040.963
42.155	12.573	1358.872	1039.925
43.169	12.539	1358.971	1039.695
44.184	12.545	1358.622	1039.379
45.199	12.606	1357.625	1038.905
46.213	12.615	1357.543	1038.809
47.228	12.676	1356.404	1038.227
48.242	12.782	1354.963	1037.699
49.257	12.701	1353.987	1036.354
50.271	12.709	1352.334	1035.045
51.286	12.764	1350.931	1034.225
52.301	12.765	1349.582	1033.108
53.315	12.646	1348.609	1031.528
54.330	12.528	1348.246	1030.417
55.344	12.530	1346.750	1029.195
56.359	12.645	1345.028	1028.510
57.374	12.549	1344.569	1027.468
58.388	12.548	1343.845	1026.814
59.403	12.539	1343.250	1026.213
60.417	12.461	1342.886	1025.361
61.432	12.571	1341.640	1025.002
62.447	12.529	1340.450	1023.741
63.461	12.437	1339.339	1022.228
64.476	12.430	1338.487	1021.448
65.490	12.420	1337.167	1020.283
66.505	12.526	1335.166	1019.327
67.520	12.530	1334.200	1018.525
68.534	12.432	1333.527	1017.315
69.549	12.461	1332.363	1016.514
70.563	12.450	1331.525	1015.714
71.578	12.342	1330.194	1013.945
72.593	12.325	1329.369	1013.122
73.607	12.370	1328.957	1012.994
74.622	12.252	1328.033	1011.473
75.636	12.343	1327.429	1011.485
76.651	12.309	1326.359	1010.372
77.666	12.289	1326.498	1010.267
78.680	12.287	1326.119	1009.874
79.695	12.418	1324.961	1009.708
80.709	12.491	1323.837	1009.209
81.724	12.537	1322.889	1008.678
82.739	12.510	1322.119	1007.837
83.753	12.623	1321.182	1007.729
84.768	12.764	1320.327	1007.850
85.782	12.756	1319.101	1006.776
86.797	12.763	1317.575	1005.563
87.812	12.701	1316.504	1004.278
88.826	12.627	1315.585	1003.035
89.841	12.759	1314.198	1002.695
90.855	12.765	1313.469	1002.089
91.870	12.667	1312.854	1000.933
92.884	12.666	1312.249	1000.378
93.899	12.770	1311.177	1000.102
94.914	12.818	1310.057	999.450
95.928	12.763	1309.912	998.921
96.943	12.744	1308.708	997.795
97.957	12.681	1307.641	996.514
98.972	12.784	1306.380	996.088
99.987	12.809	1305.459	995.449
101.001	12.811	1304.366	994.538
102.016	12.701	1303.678	993.261
103.030	12.809	1302.389	992.844
104.045	12.826	1301.737	992.363
105.060	12.734	1300.376	990.684
106.074	12.631	1298.701	988.701
107.089	12.582	1297.423	987.347
108.103	12.594	1296.049	986.285
109.118	12.471	1295.244	984.848
110.133	12.454	1293.994	983.707
111.147	12.514	1292.069	982.519
112.162	12.514	1291.209	981.773
113.176	12.589	1289.941	981.170
114.191	12.613	1288.957	980.477
115.206	12.601	1288.296	979.820
116.220	12.606	1286.824	978.640
117.235	12.535	1285.707	977.285
118.249	12.570	1284.568	976.540
119.264	12.543	1283.266	975.301
120.279	12.498	1282.219	974.152
121.293	12.541	1281.123	973.492
122.308	12.463	1280.209	972.249
123.322	12.504	1279.121	971.577
124.337	12.391	1278.671	970.485
125.352	12.488	1277.061	969.746
126.366	12.479	1276.250	968.990
127.381	12.494	1274.963	968.018
128.395	12.486	1274.039	967.184
129.410	12.519	1273.188	966.648
130.424	12.591	1271.876	965.986
131.439	12.650	1271.249	965.775
132.454	12.642	1270.111	964.773
133.468	12.539	1269.889	963.916
134.483	12.529	1269.053	963.141
135.497	12.608	1267.640	962.446
136.512	12.721	1266.249	961.962
137.527	12.682	1264.770	960.528
138.541	12.654	1263.366	959.214
139.556	12.681	1262.185	958.386
140.570	12.703	1261.126	957.628
141.585	12.819	1259.738	957.164
142.600	12.857	1259.084	956.800
143.614	12.898	1257.940	956.085
144.629	12.882	1257.048	955.227
145.643	12.840	1256.070	954.160
146.658	12.771	1254.530	952.507
147.673	12.724	1253.047	951.025
148.687	12.757	1251.881	950.247
149.702	12.711	1250.384	948.757
150.716	12.732	1248.731	947.543
151.731	12.768	1247.817	946.974
152.746	12.718	1246.927	945.923
153.760	12.683	1245.947	944.899
154.775	12.817	1244.513	944.496
155.789	12.818	1243.394	943.568
156.804	12.851	1242.797	943.220
157.819	12.719	1241.834	941.652
158.833	12.817	1240.944	941.454
159.848	12.934	1239.943	941.279
160.862	12.979	1238.579	940.416
161.877	12.803	1237.828	938.757
162.892	12.749	1237.052	937.778
163.906	12.841	1235.738	937.225
164.921	12.787	1234.837	936.151
165.935	12.813	1233.809	935.434
166.950	12.920	1233.648	935.838
167.964	12.955	1232.387	935.001
168.979	12.828	1232.171	934.032
169.994	12.902	1231.124	933.577
171.008	12.945	1229.982	932.868
172.023	12.915	1229.689	932.396
173.037	13.077	1228.382	932.235
174.052	12.969	1227.811	931.109
175.067	13.096	1226.227	930.545
176.081	12.992	1225.492	929.318
177.096	12.939	1224.599	928.261
178.110	12.896	1223.899	927.404
179.125	12.955	1222.510	926.603
180.140	12.910	1221.271	925.331
181.154	12.905	1220.455	924.597
182.169	12.941	1219.524	924.013
183.183	13.036	1217.982	923.294
184.198	13.089	1216.423	922.327
185.213	13.256	1215.062	922.149
186.227	13.153	1214.416	921.000
187.242	13.163	1213.525	920.298
188.256	13.209	1212.467	919.671
189.271	13.269	1211.559	919.236
190.286	13.145	1210.394	917.582
191.300	12.836	1209.656	915.223
192.315	12.982	1208.535	915.104
193.329	12.843	1208.735	914.404
194.344	13.046	1207.263	914.337
195.359	12.998	1207.043	913.823
196.373	13.125	1206.476	914.015
197.388	13.235	1205.544	913.833
198.402	13.240	1205.398	913.672
199.417	13.421	1204.636	914.010
200.432	13.372	1203.780	913.013
201.446	13.519	1202.918	913.089
202.461	13.434	1202.194	911.991
203.475	13.383	1201.370	911.005
204.490	13.382	1200.034	909.905
205.504	13.304	1198.319	908.096
206.519	13.332	1197.283	907.384
207.534	13.333	1196.251	906.524
208.548	13.302	1195.162	905.448
209.563	13.347	1194.955	905.458
210.577	13.284	1193.855	904.204
211.592	13.446	1193.084	904.424
212.607	13.502	1192.089	903.895
213.621	13.456	1191.063	902.786
214.636	13.410	1190.553	902.070
215.650	13.512	1189.497	901.744
216.665	13.534	1188.509	901.033
217.680	13.632	1187.868	901.002
218.694	13.669	1186.647	900.199
219.709	13.623	1185.895	899.295
220.723	13.682	1185.111	898.944
221.738	13.694	1184.341	898.342
222.753	13.691	1183.646	897.724
223.767	13.650	1183.024	896.951
224.782	13.650	1182.681	896.610
225.796	13.790	1181.762	896.589
226.811	13.818	1180.733	895.883
227.826	13.722	1180.172	894.856
228.840	13.669	1179.458	893.949
229.855	13.686	1178.924	893.558
230.869	13.718	1177.867	892.849
231.884	13.714	1177.283	892.306
232.899	13.599	1176.335	890.894
233.913	13.517	1175.903	890.047
234.928	13.591	1174.738	889.483
235.942	13.579	1174.384	889.073
236.957	13.564	1173.193	888.009
237.972	13.617	1172.706	887.848
238.986	13.703	1171.872	887.598
240.001	13.657	1171.230	886.786
241.015	13.663	1170.611	886.270
242.030	13.785	1169.281	885.837
243.045	13.758	1169.326	885.651
244.059	13.710	1168.179	884.446
245.074	13.845	1167.147	884.304
246.088	13.890	1166.228	883.772
247.103	13.901	1165.787	883.416
248.117	13.903	1165.035	882.782
249.132	13.979	1164.356	882.593
250.147	14.125	1163.541	882.667
251.161	14.212	1163.368	882.924
252.176	14.200	1162.058	881.788
253.190	14.148	1161.642	881.115
254.205	14.341	1160.678	881.331
255.220	14.191	1160.695	880.471
256.234	14.235	1160.045	880.134
257.249	14.282	1159.031	879.536
258.263	14.291	1158.150	878.832
259.278	14.373	1157.801	878.926
260.293	14.301	1157.352	878.127
261.307	14.210	1156.809	877.158
262.322	14.356	1156.232	877.412
263.336	14.337	1155.615	876.766
264.351	14.359	1154.761	876.157
265.366	14.284	1154.217	875.272
266.380	14.388	1153.599	875.272
267.395	14.383	1152.592	874.403
268.409	14.372	1151.315	873.298
269.424	14.335	1151.250	872.976
270.439	14.375	1150.267	872.365
271.453	14.330	1149.742	871.655
272.468	14.382	1148.904	871.214
273.482	14.411	1147.836	870.479
274.497	14.416	1147.379	870.080
275.512	14.421	1146.749	869.551
276.526	14.437	1145.785	868.825
277.541	14.454	1145.129	868.344
278.555	14.446	1144.435	867.700
279.570	14.501	1143.813	867.434
280.585	14.618	1142.581	867.031
281.599	14.546	1142.136	866.244
282.614	14.615	1141.306	865.897
283.628	14.474	1140.209	864.253
284.643	14.414	1139.229	863.126
285.657	14.611	1137.804	862.988
286.672	14.590	1137.280	862.408
287.687	14.633	1136.371	861.865
288.701	14.657	1135.381	861.159
289.716	14.614	1134.815	860.433
290.730	14.566	1134.044	859.522
291.745	14.673	1133.413	859.520
292.760	14.726	1132.804	859.254
293.774	14.701	1132.559	858.866
294.789	14.702	1132.156	858.489
295.803	14.669	1131.318	857.610
296.818	14.751	1130.517	857.345
297.833	14.771	1129.218	856.387
298.847	14.616	1129.003	855.353
299.862	14.762	1128.108	855.347
300.876	14.777	1127.340	854.766
301.891	14.874	1126.459	854.521
302.906	14.919	1126.148	854.436
303.920	14.884	1125.311	853.547
304.935	14.882	1124.742	853.029
305.949	15.012	1123.962	853.027
306.964	15.071	1123.385	852.815
307.979	14.969	1123.022	851.941
308.993	15.004	1122.067	851.321
310.008	15.126	1120.799	850.904
311.022	15.095	1120.617	850.535
312.037	15.135	1119.246	849.622
313.052	15.011	1118.377	848.255
314.066	14.909	1117.972	847.357
315.081	14.844	1117.077	846.275
316.095	14.795	1116.429	845.460
317.110	14.923	1115.588	845.396
318.125	14.880	1114.936	844.610
319.139	14.945	1113.817	844.019
320.154	14.907	1113.271	843.337
321.168	14.882	1112.713	842.715
322.183	14.976	1112.096	842.645
323.197	14.958	1111.806	842.261
324.212	14.996	1110.992	841.758
325.227	15.100	1110.192	841.601
326.241	15.111	1109.540	841.086
327.256	15.149	1108.409	840.346
328.270	15.058	1107.733	839.303
329.285	15.000	1107.133	838.483
330.300	14.995	1105.970	837.505
331.314	15.098	1105.018	837.223
332.329	15.202	1104.048	836.933
333.343	15.086	1103.330	835.738
334.358	15.131	1102.660	835.379
335.373	15.168	1102.010	834.998
336.387	15.157	1101.417	834.421
337.402	15.127	1100.541	833.534
338.416	15.329	1099.634	833.777
339.431	15.258	1098.900	832.797
340.446	15.374	1098.489	832.987
341.460	15.360	1097.751	832.284
342.475	15.438	1096.770	831.853
343.489	15.439	1095.734	830.998
344.504	15.521	1094.579	830.455
345.519	15.531	1094.264	830.192
346.533	15.616	1093.403	829.885
347.548	15.645	1092.479	829.251
348.562	15.637	1091.686	828.535
349.577	15.447	1091.185	827.147
350.592	15.457	1090.614	826.692
351.606	15.356	1089.861	825.549
352.621	15.382	1088.892	824.872
353.635	15.478	1088.293	824.816
354.650	15.473	1087.384	824.028
355.665	15.502	1086.645	823.540
356.679	15.434	1086.167	822.772
357.694	15.403	1085.720	822.204
358.708	15.542	1084.814	822.127
359.723	15.531	1084.431	821.711
360.738	15.593	1083.629	821.332
361.752	15.614	1082.993	820.879
362.767	15.637	1082.393	820.469
363.781	15.606	1081.616	819.652
364.796	15.689	1081.140	819.625
365.810	15.612	1080.857	818.964
366.825	15.731	1080.109	818.906
367.840	15.820	1079.942	819.137
368.854	15.879	1079.022	818.653
369.869	15.866	1078.574	818.180
370.883	15.840	1077.194	816.935
371.898	15.806	1076.686	816.308
372.913	15.827	1076.046	815.856
373.927	15.861	1075.761	815.730
374.942	15.903	1074.795	815.131
375.956	15.983	1074.477	815.201
376.971	15.847	1073.827	813.983
377.986	15.921	1073.772	814.225
379.000	16.110	1072.880	814.388
380.015	15.982	1072.548	813.445
381.029	16.064	1071.693	813.122
382.044	16.118	1070.659	812.528
383.059	16.149	1070.212	812.263
384.073	16.071	1069.409	811.206
385.088	16.138	1068.425	810.710
386.102	16.169	1067.650	810.200
387.117	16.110	1066.911	809.284
388.132	15.950	1065.566	807.426
389.146	15.973	1065.125	807.129
390.161	16.028	1064.174	806.604
391.175	15.968	1063.380	805.643
392.190	16.119	1062.854	805.895
393.205	16.065	1061.919	804.856
394.219	16.169	1061.106	804.663
395.234	16.220	1059.866	803.895
396.248	16.109	1059.320	802.883
397.263	16.140	1058.421	802.275
398.278	16.173	1057.356	801.555
399.292	16.173	1056.737	801.017
400.307	16.050	1056.484	800.171
401.321	16.097	1055.709	799.737
402.336	16.087	1054.957	799.048
403.350	16.164	1054.351	798.881
404.365	16.126	1053.821	798.229
405.380	16.299	1052.908	798.283
406.394	16.225	1051.974	797.158
407.409	16.296	1051.410	796.995
408.423	16.317	1050.686	796.474
409.438	16.430	1049.920	796.355
410.453	16.345	1049.368	795.467
411.467	16.459	1048.640	795.380
412.482	16.445	1048.181	794.896
413.496	16.394	1047.503	794.073
414.511	16.614	1046.644	794.382
415.526	16.541	1046.175	793.613
416.540	16.567	1046.128	793.630
417.555	16.660	1045.459	793.487
418.569	16.699	1044.613	792.959
419.584	16.619	1044.291	792.272
420.599	16.677	1043.707	792.029
421.613	90.917	1305.124	1404.115
422.628	83.440	1343.211	1404.252
