DTS Sentinel unit serial number:	SN413079Multiplexer serial number:	ORYXHardware model number:	OX4-SRSoftware version number:	ORYX F/W v4.00 Oryx Data Collector v3.7.2.0data status	okinstallation	princeton_trtdifferential loss correction	single-endedforward channel	channel 2reverse channel	N/Adate	2019/09/18time	01:23:34forward acquisition time	60.00reverse acquisition time	0.00gamma	496.2192k internal	0.2350k external	0.2350temperature offset calibration	0.9980default loss term (dB/km)	0.3790temperature slope calibration	1.0000multiplexer offset coefficient	1.0000multiplexer slope coefficient	1.0000fibre end	0.00T internal ref (°C)	23.14T ext. ref 1 (°C)	0.17T ext. ref 2 (°C)	16.88length (m)	temperature (°C)	Stokes	anti-Stokes-747.200	22.566	0.155	0.127
-746.185	-200.000	-0.003	0.154
-745.171	-104.408	-0.190	-0.044
-744.156	-200.000	-0.017	0.211
-743.142	-76.683	-0.298	0.104
-742.127	-200.000	-0.001	0.444
-741.112	10.192	-0.310	0.235
-740.098	150.761	-0.089	0.121
-739.083	-17.765	0.158	0.099
-738.069	33.549	0.076	-0.066
-737.054	-105.143	0.277	0.063
-736.039	-47.676	-0.322	0.156
-735.025	-167.533	0.259	0.010
-734.010	-44.982	0.023	0.011
-732.996	-130.655	0.282	-0.038
-731.981	-200.000	-0.032	-0.287
-730.966	215.429	-0.107	-0.170
-729.952	-200.000	0.008	-0.179
-728.937	-32.151	0.306	-0.170
-727.923	-151.635	-0.248	0.018
-726.908	-20.528	-0.241	-0.148
-725.894	800.000	-0.043	0.120
-724.879	800.000	-0.028	0.104
-723.864	-200.000	0.002	-0.102
-722.850	392.128	0.243	-0.504
-721.835	-117.270	-0.597	0.108
-720.821	-200.000	-0.004	0.280
-719.806	-181.007	-0.156	0.003
-718.791	-200.000	0.016	-0.233
-717.777	800.000	-0.025	0.098
-716.762	-200.000	-0.018	-0.384
-715.748	-105.169	0.111	0.025
-714.733	-151.104	-0.175	-0.013
-713.718	-26.533	-0.068	-0.040
-712.704	-13.414	0.072	-0.046
-711.689	-45.737	-0.246	0.121
-710.675	398.791	0.019	0.040
-709.660	-146.678	-0.084	-0.007
-708.645	-164.946	0.202	0.009
-707.631	509.054	0.117	-0.271
-706.616	800.000	0.102	0.444
-705.602	-154.830	-0.139	-0.009
-704.587	-200.000	-0.053	0.259
-703.572	800.000	-0.074	0.206
-702.558	-200.000	-0.068	-0.322
-701.543	800.000	0.113	-0.451
-700.529	-106.972	-0.281	-0.062
-699.514	786.594	-0.076	-0.207
-698.499	800.000	0.021	0.078
-697.485	-186.092	-0.202	-0.003
-696.470	-157.369	-0.117	0.007
-695.456	347.873	-0.179	-0.352
-694.441	-103.033	0.199	-0.047
-693.426	26.048	-0.194	0.161
-692.412	301.120	-0.115	0.212
-691.397	-137.117	-0.230	0.026
-690.383	-200.000	0.003	-0.478
-689.368	-129.413	-0.548	-0.076
-688.354	-200.000	-0.287	-0.000
-687.339	31.886	-0.078	0.067
-686.324	-91.571	-0.067	0.019
-685.310	-114.000	-0.192	-0.037
-684.295	105.015	-0.142	-0.167
-683.281	-11.997	-0.139	0.090
-682.266	52.205	0.177	-0.168
-681.251	-61.610	-0.121	0.050
-680.237	567.009	0.091	0.220
-679.222	11.948	0.069	0.053
-678.208	-200.000	-0.024	-0.280
-677.193	125.910	-0.217	0.273
-676.178	33.085	0.106	-0.092
-675.164	-174.566	-0.427	-0.012
-674.149	-162.243	-0.288	-0.014
-673.135	-142.073	0.171	-0.017
-672.120	-50.620	-0.265	0.124
-671.105	-30.906	-0.267	-0.150
-670.091	-96.643	0.378	-0.099
-669.076	543.633	0.077	-0.182
-668.062	98.762	-0.220	-0.252
-667.047	-81.853	-0.267	-0.087
-666.032	-200.000	0.018	0.343
-665.018	6.722	-0.094	-0.070
-664.003	-164.149	0.253	0.012
-662.989	-150.627	-0.355	-0.027
-661.974	356.180	0.056	0.112
-660.959	-200.000	0.008	-0.062
-659.945	476.812	0.150	-0.338
-658.930	-14.132	-0.172	-0.110
-657.916	-109.723	0.353	0.074
-656.901	206.577	-0.115	-0.179
-655.886	-59.926	-0.283	-0.120
-654.872	-3.306	-0.103	-0.071
-653.857	-200.000	-0.018	-0.156
-652.843	-131.236	-0.406	-0.054
-651.828	-200.000	0.010	0.259
-650.814	335.573	0.113	0.219
-649.799	170.525	-0.167	-0.237
-648.784	-165.794	-0.110	-0.005
-647.770	-200.000	0.056	-0.270
-646.755	379.619	0.202	-0.411
-645.741	33.905	0.078	0.067
-644.726	98.659	-0.154	-0.177
-643.711	374.897	-0.095	-0.192
-642.697	54.897	0.053	-0.051
-641.682	-200.000	0.054	-0.317
-640.668	800.000	0.060	-0.176
-639.653	668.753	-0.076	-0.195
-638.638	90.546	0.236	-0.263
-637.624	76.825	-0.062	-0.065
-636.609	-73.936	0.139	0.050
-635.595	800.000	0.059	0.213
-634.580	-20.639	0.107	-0.065
-633.565	30.589	-0.142	-0.120
-632.551	-200.000	-0.000	-0.145
-631.536	40.509	-0.248	-0.222
-630.522	-35.792	-0.107	0.058
-629.507	43.871	-0.218	0.199
-628.492	175.829	0.153	0.221
-627.478	113.244	-0.192	0.231
-626.463	87.306	0.040	0.044
-625.449	800.000	0.106	0.370
-624.434	-112.750	0.136	-0.027
-623.419	-200.000	0.017	-0.130
-622.405	-22.240	-0.198	-0.119
-621.390	-107.664	-0.652	0.142
-620.376	279.535	0.265	-0.471
-619.361	418.680	-0.124	-0.264
-618.346	-103.578	0.344	-0.080
-617.332	-87.851	-0.201	-0.060
-616.317	800.000	-0.132	0.556
-615.303	-166.395	0.012	-0.001
-614.288	-200.000	-0.027	0.141
-613.273	800.000	0.045	-0.134
-612.259	172.201	0.091	0.131
-611.244	97.307	0.049	-0.056
-610.230	-200.000	0.016	-0.102
-609.215	314.785	-0.176	0.330
-608.201	-91.603	-0.169	0.048
-607.186	-200.000	0.012	-0.298
-606.171	16.522	0.081	0.064
-605.157	-200.000	-0.005	0.199
-604.142	-58.388	-0.184	0.079
-603.128	-130.856	-0.323	-0.043
-602.113	-128.217	0.143	0.020
-601.098	305.871	0.063	-0.116
-600.084	490.294	0.080	0.182
-599.069	-107.564	0.288	-0.062
-598.055	599.311	-0.145	-0.356
-597.040	513.867	-0.074	-0.172
-596.025	286.879	0.023	0.042
-595.011	-200.000	0.001	-0.056
-593.996	800.000	-0.087	-0.324
-592.982	-193.856	-0.186	-0.002
-591.967	-200.000	0.035	-0.261
-590.952	-200.000	-0.034	-0.225
-589.938	-44.979	-0.032	0.016
-588.923	-171.954	0.324	0.010
-587.909	146.856	0.046	-0.061
-586.894	586.531	-0.157	0.383
-585.879	-57.376	-0.084	0.037
-584.865	15.988	0.158	-0.123
-583.850	-146.694	-0.243	-0.021
-582.836	-26.373	-0.130	-0.076
-581.821	-62.595	-0.341	-0.141
-580.806	404.297	-0.046	-0.096
-579.792	-169.025	0.308	-0.011
-578.777	-200.000	0.005	-0.149
-577.763	-38.649	-0.178	-0.093
-576.748	-75.211	-0.197	0.070
-575.733	-88.091	0.151	-0.045
-574.719	-140.907	-0.183	0.019
-573.704	7.737	-0.116	0.086
-572.690	498.868	-0.032	-0.072
-571.675	65.469	0.187	-0.188
-570.661	55.827	0.039	0.037
-569.646	-200.000	-0.002	-0.016
-568.631	800.000	0.071	-0.289
-567.617	295.226	0.042	0.076
-566.602	-94.711	-0.329	0.088
-565.588	-200.000	-0.046	-0.317
-564.573	-57.107	-0.305	0.133
-563.558	800.000	-0.103	0.314
-562.544	-200.000	0.029	-0.322
-561.529	-158.962	-0.360	-0.020
-560.515	-200.000	-0.028	0.363
-559.500	43.226	0.183	-0.166
-558.485	-200.000	0.039	-0.193
-557.471	466.071	0.061	0.136
-556.456	103.840	0.112	-0.130
-555.442	-200.000	0.005	0.039
-554.427	99.149	-0.141	-0.162
-553.412	-131.764	0.243	-0.032
-552.398	-154.902	0.339	0.022
-551.383	-41.394	0.138	0.070
-550.369	169.300	0.079	-0.112
-549.354	800.000	-0.101	0.309
-548.339	-104.921	-0.131	0.030
-547.325	-86.117	-0.144	0.044
-546.310	96.390	-0.176	0.199
-545.296	-200.000	-0.021	0.362
-544.281	83.680	-0.140	0.152
-543.266	69.894	-0.055	-0.056
-542.252	-54.174	0.174	-0.078
-541.237	-200.000	-0.012	-0.129
-540.223	246.047	0.204	-0.341
-539.208	175.171	0.047	0.067
-538.193	-167.012	-0.269	-0.011
-537.179	-200.000	0.044	0.264
-536.164	29.812	-0.163	-0.137
-535.150	-123.725	0.163	0.026
-534.135	-16.280	-0.167	-0.105
-533.121	-45.597	0.176	-0.086
-532.106	-78.871	-0.164	0.055
-531.091	176.098	0.261	0.375
-530.077	-200.000	0.065	0.453
-529.062	317.214	0.054	0.100
-528.048	411.423	-0.176	0.369
-527.033	22.364	-0.197	0.159
-526.018	38.667	-0.150	0.132
-525.004	-90.272	0.196	-0.056
-523.989	67.071	-0.173	0.175
-522.975	-105.287	-0.244	-0.055
-521.960	7.854	0.240	-0.178
-520.945	-200.000	-0.012	0.225
-519.931	71.252	0.155	-0.159
-518.916	48.140	0.128	0.118
-517.902	17.774	0.064	-0.050
-516.887	-200.000	-0.030	-0.204
-515.872	386.711	-0.057	0.116
-514.858	266.090	0.018	0.031
-513.843	-200.000	0.013	0.169
-512.829	23.785	-0.079	0.065
-511.814	800.000	0.082	0.234
-510.799	65.679	-0.275	-0.275
-509.785	-70.874	0.232	0.087
-508.770	-30.306	0.146	-0.082
-507.756	-200.000	0.048	-0.297
-506.741	147.111	-0.030	-0.040
-505.726	-5.836	-0.360	-0.244
-504.712	21.626	0.121	-0.098
-503.697	7.115	0.165	-0.122
-502.683	77.238	-0.231	-0.243
-501.668	800.000	-0.070	-0.203
-500.653	123.826	0.055	-0.068
-499.639	800.000	0.109	-0.336
-498.624	255.681	-0.154	0.261
-497.610	7.706	0.213	-0.157
-496.595	-78.311	0.110	-0.037
-495.581	37.991	0.161	0.142
-494.566	605.069	0.029	0.072
-493.551	481.094	-0.190	-0.426
-492.537	-13.010	-0.090	0.058
-491.522	355.383	0.044	-0.087
-490.508	560.942	0.058	0.139
-489.493	457.557	0.095	0.208
-488.478	25.246	-0.058	-0.048
-487.464	-11.098	-0.159	-0.104
-486.449	-104.084	0.156	-0.036
-485.435	-200.000	0.021	-0.222
-484.420	179.809	0.062	0.090
-483.405	-200.000	0.022	0.135
-482.391	-200.000	0.015	0.247
-481.376	800.000	0.028	-0.104
-480.362	-161.259	0.234	-0.012
-479.347	179.061	0.160	-0.231
-478.332	242.892	0.050	0.083
-477.318	-130.506	-0.313	0.042
-476.303	108.919	0.011	0.012
-475.289	-91.198	0.454	0.129
-474.274	-107.593	-0.235	0.051
-473.259	-181.735	-0.230	-0.004
-472.245	-200.000	-0.044	0.213
-471.230	-62.965	-0.129	0.053
-470.216	-200.000	-0.018	-0.147
-469.201	-33.768	0.353	-0.192
-468.186	800.000	-0.071	0.203
-467.172	-82.198	0.178	-0.057
-466.157	-28.385	-0.379	-0.216
-465.143	39.803	-0.151	-0.134
-464.128	-200.000	0.014	-0.093
-463.113	800.000	0.057	-0.159
-462.099	-200.000	-0.009	-0.086
-461.084	-129.686	-0.243	-0.033
-460.070	-200.000	-0.043	-0.291
-459.055	-130.261	0.198	-0.027
-458.040	-81.400	-0.326	0.106
-457.026	-107.595	-0.183	0.040
-456.011	-200.000	0.011	0.276
-454.997	-114.011	0.286	-0.055
-453.982	-27.866	-0.269	0.154
-452.968	97.746	-0.130	0.147
-451.953	766.917	0.025	-0.068
-450.938	147.749	-0.224	0.298
-449.924	69.242	-0.099	-0.100
-448.909	800.000	0.056	0.180
-447.895	-107.790	-0.147	0.032
-446.880	62.941	0.185	0.182
-445.865	-200.000	-0.025	0.175
-444.851	8.179	-0.104	-0.077
-443.836	200.581	0.018	-0.027
-442.822	-32.645	-0.297	-0.163
-441.807	-123.910	0.369	0.057
-440.792	130.141	-0.117	-0.147
-439.778	-61.861	-0.177	0.073
-438.763	134.994	0.135	0.173
-437.749	-88.307	-0.262	0.077
-436.734	-62.664	-0.109	-0.045
-435.719	-200.000	0.012	0.259
-434.705	51.928	0.042	0.039
-433.690	413.956	0.131	-0.275
-432.676	1.684	0.161	-0.115
-431.661	214.188	0.017	-0.027
-430.646	-71.542	0.126	0.046
-429.632	16.676	-0.324	0.253
-428.617	-83.569	0.245	0.077
-427.603	226.891	0.150	0.240
-426.588	262.064	-0.096	0.163
-425.573	-8.766	0.260	0.172
-424.559	94.746	0.145	-0.163
-423.544	800.000	-0.119	0.451
-422.530	-112.250	-0.238	-0.047
-421.515	227.216	-0.017	0.028
-420.500	100.357	0.124	0.142
-419.486	250.911	-0.155	0.259
-418.471	781.753	0.008	0.022
-417.457	-200.000	0.018	-0.307
-416.442	284.615	-0.061	0.108
-415.428	-39.519	0.118	0.061
-414.413	-150.079	0.177	-0.014
-413.398	800.000	-0.031	0.100
-412.384	-26.213	-0.156	-0.090
-411.369	-102.822	0.271	-0.064
-410.355	-138.854	0.051	0.005
-409.340	800.000	-0.107	-0.348
-408.325	-72.037	0.299	-0.110
-407.311	8.337	0.084	-0.062
-406.296	-70.722	-0.179	-0.067
-405.282	-82.598	0.084	0.027
-404.267	-168.698	0.292	0.011
-403.252	-43.686	0.119	-0.059
-402.238	90.437	-0.062	0.069
-401.223	276.654	0.229	-0.400
-400.209	800.000	0.034	-0.142
-399.194	-200.000	-0.023	0.144
-398.179	-109.479	-0.196	-0.041
-397.165	-200.000	0.042	0.361
-396.150	800.000	-0.078	0.237
-395.136	800.000	-0.019	-0.072
-394.121	800.000	0.032	-0.086
-393.106	263.784	0.043	0.074
-392.092	-99.482	-0.076	-0.019
-391.077	678.344	0.138	0.354
-390.063	-59.183	0.304	0.129
-389.048	129.579	-0.074	-0.093
-388.033	425.385	0.110	0.233
-387.019	-13.103	-0.067	0.043
-386.004	-101.261	0.191	-0.046
-384.990	274.624	-0.057	0.099
-383.975	52.470	0.261	0.245
-382.960	251.628	0.070	-0.117
-381.946	21.304	0.136	-0.109
-380.931	-200.000	0.019	0.146
-379.917	-200.000	0.001	-0.147
-378.902	-43.741	-0.322	-0.160
-377.888	-92.756	0.382	0.105
-376.873	800.000	0.047	-0.135
-375.858	252.912	0.065	0.110
-374.844	121.612	0.078	-0.095
-373.829	288.235	0.130	0.232
-372.815	355.340	-0.065	0.127
-371.800	176.889	-0.171	-0.245
-370.785	364.153	-0.083	-0.164
-369.771	-158.773	0.452	0.025
-368.756	10.134	-0.190	-0.142
-367.742	74.983	0.085	-0.088
-366.727	-35.514	0.112	-0.060
-365.712	-27.908	-0.151	-0.086
-364.698	-185.358	0.060	0.001
-363.683	61.686	0.058	0.057
-362.669	259.521	-0.099	-0.169
-361.654	409.787	-0.049	0.103
-360.639	-134.722	0.130	0.016
-359.625	-98.830	-0.268	0.067
-358.610	-171.507	-0.268	0.009
-357.596	81.330	0.153	0.163
-356.581	-29.278	-0.101	-0.057
-355.566	800.000	-0.059	0.221
-354.552	-56.832	0.111	-0.048
-353.537	800.000	-0.032	0.134
-352.523	82.283	0.037	-0.040
-351.508	-37.183	0.260	-0.137
-350.493	-200.000	0.024	-0.310
-349.479	214.483	-0.204	-0.318
-348.464	169.290	0.092	0.128
-347.450	609.599	0.235	0.578
-346.435	-200.000	0.048	-0.241
-345.420	-73.989	-0.244	0.087
-344.406	-200.000	0.013	-0.202
-343.391	117.681	0.073	-0.088
-342.377	147.148	-0.075	-0.099
-341.362	800.000	0.086	-0.324
-340.348	-124.989	0.307	-0.046
-339.333	493.948	0.008	0.019
-338.318	-26.789	0.220	0.126
-337.304	-21.283	-0.275	-0.165
-336.289	-14.268	-0.333	-0.211
-335.275	7.348	-0.241	0.177
-334.260	91.692	0.079	0.087
-333.245	-200.000	0.031	-0.142
-332.231	-56.050	-0.191	0.084
-331.216	99.503	0.152	-0.172
-330.202	105.046	0.046	-0.054
-329.187	77.909	-0.044	-0.046
-328.172	487.962	0.067	-0.150
-327.158	26.414	0.224	-0.184
-326.143	528.843	0.140	0.325
-325.129	-95.516	-0.151	-0.040
-324.114	-200.000	0.345	-0.001
-323.099	294.793	0.065	0.116
-322.085	-200.000	-0.003	-0.392
-321.070	169.967	-0.252	0.354
-320.056	76.058	-0.111	-0.115
-319.041	-200.000	0.020	-0.237
-318.026	297.262	0.118	-0.212
-317.012	-200.000	0.016	-0.138
-315.997	-200.000	-0.023	0.119
-314.983	-120.981	0.161	-0.027
-313.968	-200.000	0.062	-0.273
-312.953	-131.025	0.175	0.023
-311.939	-69.332	-0.121	-0.046
-310.924	-200.000	-0.030	0.273
-309.910	-134.715	-0.223	0.027
-308.895	308.345	-0.164	0.301
-307.880	-200.000	-0.059	0.283
-306.866	800.000	0.054	0.159
-305.851	-200.000	0.016	-0.230
-304.837	-13.650	0.306	0.194
-303.822	263.775	0.110	-0.188
-302.807	23.724	0.180	0.146
-301.793	-200.000	-0.018	0.381
-300.778	-128.478	0.504	0.070
-299.764	-200.000	-0.006	0.121
-298.749	451.087	-0.090	-0.194
-297.735	800.000	-0.074	-0.266
-296.720	-61.754	0.253	0.104
-295.705	-200.000	-0.016	0.196
-294.691	181.847	-0.373	-0.539
-293.676	156.199	-0.145	0.196
-292.662	-130.489	0.094	-0.013
-291.647	800.000	-0.040	-0.134
-290.632	-200.000	0.072	0.430
-289.618	-7.928	-0.060	-0.039
-288.603	152.303	-0.124	0.165
-287.589	-122.826	0.102	0.016
-286.574	62.545	0.209	-0.205
-285.559	326.546	0.213	-0.400
-284.545	308.412	0.104	-0.190
-283.530	-200.000	0.042	0.252
-282.516	-100.121	0.363	0.089
-281.501	16.509	0.250	-0.193
-280.486	118.316	0.171	-0.207
-279.472	66.921	0.207	0.206
-278.457	-90.083	0.172	0.049
-277.443	-200.000	-0.031	0.202
-276.428	-52.300	0.119	-0.054
-275.413	352.425	0.134	-0.261
-274.399	545.698	0.115	-0.268
-273.384	800.000	0.057	-0.240
-272.370	23.113	0.165	0.133
-271.355	62.883	0.049	-0.048
-270.340	402.883	-0.041	0.084
-269.326	-119.808	-0.209	-0.035
-268.311	800.000	0.043	-0.138
-267.297	384.294	0.029	0.059
-266.282	800.000	0.063	-0.200
-265.267	194.126	-0.102	0.151
-264.253	-65.494	0.299	-0.118
-263.238	-85.241	0.276	-0.084
-262.224	800.000	0.099	0.398
-261.209	175.268	-0.134	0.190
-260.195	-200.000	0.045	0.248
-259.180	-113.925	0.165	0.031
-258.165	5.506	0.185	-0.134
-257.151	-127.236	0.373	-0.053
-256.136	51.080	0.055	0.051
-255.122	280.657	-0.197	0.346
-254.107	-19.087	0.276	0.168
-253.092	-47.148	0.233	-0.111
-252.078	-200.000	-0.020	0.142
-251.063	-21.083	-0.230	0.138
-250.049	-22.080	0.111	0.066
-249.034	-200.000	-0.067	-0.314
-248.019	-159.659	-0.113	-0.006
-247.005	-152.775	-0.239	-0.017
-245.990	-200.000	-0.025	0.401
-244.976	-114.839	-0.145	0.027
-243.961	364.440	-0.104	0.205
-242.946	-200.000	0.041	-0.377
-241.932	-137.598	0.217	-0.024
-240.917	800.000	-0.017	0.071
-239.903	-200.000	0.004	-0.125
-238.888	127.078	-0.066	-0.082
-237.873	-33.161	-0.090	-0.049
-236.859	564.745	-0.069	0.163
-235.844	757.445	0.120	-0.318
-234.830	-76.173	-0.494	-0.171
-233.815	361.948	-0.089	0.174
-232.800	800.000	0.058	0.198
-231.786	8.133	0.464	0.341
-230.771	256.270	-0.173	-0.290
-229.757	-109.762	-0.153	0.032
-228.742	243.773	0.166	0.272
-227.727	-24.195	-0.184	0.107
-226.713	-200.000	0.055	0.264
-225.698	-28.156	-0.240	-0.136
-224.684	427.314	0.069	0.146
-223.669	-28.414	-0.228	-0.128
-222.655	800.000	0.054	0.190
-221.640	52.749	-0.166	0.155
-220.625	-155.414	-0.124	-0.008
-219.611	253.382	0.100	-0.167
-218.596	-200.000	0.008	-0.100
-217.582	754.032	0.064	0.169
-216.567	-200.000	0.050	0.375
-215.552	517.272	0.054	0.123
-214.538	516.897	0.120	-0.275
-213.523	76.850	-0.157	0.163
-212.509	-200.000	-0.012	0.141
-211.494	298.246	0.018	0.033
-210.479	-122.671	0.060	-0.009
-209.465	-101.580	0.252	0.060
-208.450	384.251	0.082	0.166
-207.436	-200.000	0.016	0.357
-206.421	-200.000	0.007	-0.095
-205.406	-40.784	-0.128	0.065
-204.392	-37.930	-0.125	-0.065
-203.377	-200.000	-0.015	0.266
-202.363	344.175	-0.155	0.296
-201.348	198.181	-0.160	0.239
-200.333	361.849	0.222	0.435
-199.319	-52.737	-0.163	-0.074
-198.304	215.297	-0.124	-0.192
-197.290	800.000	-0.121	0.422
-196.275	-95.200	-0.021	-0.006
-195.260	-150.278	-0.370	-0.028
-194.246	-200.000	0.056	0.250
-193.231	59.332	-0.134	0.129
-192.217	-200.000	0.015	0.067
-191.202	720.446	-0.062	-0.162
-190.187	564.882	-0.156	-0.369
-189.173	85.522	-0.039	-0.042
-188.158	521.208	0.080	-0.183
-187.144	800.000	-0.111	-0.393
-186.129	5.191	0.195	-0.141
-185.114	12.769	-0.275	0.208
-184.100	800.000	0.014	0.051
-183.085	800.000	0.103	0.334
-182.071	-149.153	0.169	0.013
-181.056	-144.353	-0.324	0.029
-180.042	-200.000	-0.006	0.028
-179.027	-31.990	0.333	0.182
-178.012	-20.293	-0.103	0.062
-176.998	728.914	-0.093	-0.243
-175.983	241.223	-0.050	0.081
-174.969	143.080	-0.067	-0.087
-173.954	39.629	-0.095	0.083
-172.939	713.534	-0.072	-0.185
-171.925	118.709	-0.019	-0.023
-170.910	-68.912	-0.134	-0.051
-169.896	-200.000	0.011	-0.178
-168.881	-82.530	-0.180	0.057
-167.866	305.156	-0.206	-0.373
-166.852	-14.086	-0.147	0.092
-165.837	-63.524	-0.193	0.077
-164.823	84.337	-0.126	-0.134
-163.808	-200.000	-0.005	0.251
-162.793	-166.172	-0.274	-0.011
-161.779	33.564	-0.172	-0.146
-160.764	800.000	0.113	-0.320
-159.750	-141.666	0.288	-0.028
-158.735	406.315	0.119	-0.245
-157.720	40.476	0.092	-0.081
-156.706	-200.000	0.064	0.314
-155.691	-200.000	-0.031	0.275
-154.677	-200.000	0.084	-0.372
-153.662	51.223	-0.071	0.066
-152.647	250.746	-0.022	0.037
-151.633	52.152	-0.135	-0.126
-150.618	379.023	0.043	0.085
-149.604	212.728	0.207	0.319
-148.589	-63.960	-0.088	0.035
-147.574	4.490	-0.248	-0.177
-146.560	-11.500	0.272	0.174
-145.545	-200.000	-0.009	0.130
-144.531	135.064	-0.089	-0.113
-143.516	-142.981	0.299	0.028
-142.502	425.351	-0.044	-0.093
-141.487	-39.093	-0.248	-0.127
-140.472	152.065	0.203	-0.270
-139.458	-10.620	-0.237	0.153
-138.443	-103.545	-0.183	0.042
-137.429	800.000	-0.029	0.111
-136.414	-112.835	-0.369	0.071
-135.399	-152.531	0.219	0.015
-134.385	37.094	-0.099	0.086
-133.370	-62.776	-0.133	0.054
-132.356	-200.000	0.034	0.412
-131.341	-34.772	0.090	-0.048
-130.326	800.000	-0.067	-0.212
-129.312	118.791	-0.087	0.104
-128.297	-114.774	0.272	-0.051
-127.283	124.460	0.064	-0.079
-126.268	-58.719	0.263	0.111
-125.253	-200.000	0.058	0.299
-124.239	-63.931	0.288	-0.115
-123.224	112.566	-0.118	0.140
-122.210	499.913	-0.071	0.160
-121.195	-83.648	0.136	0.042
-120.180	33.498	0.233	0.197
-119.166	-56.275	0.140	0.061
-118.151	213.449	0.221	0.340
-117.137	242.138	-0.154	0.251
-116.122	-4.019	0.142	-0.096
-115.107	101.330	0.297	0.337
-114.093	-200.000	-0.011	0.450
-113.078	58.092	-0.077	-0.074
-112.064	-55.721	-0.116	-0.050
-111.049	336.307	-0.068	0.129
-110.034	11.365	0.251	-0.187
-109.020	-200.000	-0.005	-0.199
-108.005	185.619	-0.092	-0.133
-106.991	-33.136	-0.359	0.194
-105.976	800.000	-0.102	0.399
-104.962	60.975	-0.096	-0.093
-103.947	-101.591	-0.287	0.068
-102.932	-18.026	0.121	0.074
-101.918	-88.141	0.222	0.065
-100.903	800.000	-0.051	0.195
-99.889	-200.000	0.020	0.181
-98.874	-200.000	-0.068	0.307
-97.859	115.376	0.058	-0.069
-96.845	-200.000	0.030	0.288
-95.830	255.258	0.155	-0.259
-94.816	-200.000	-0.011	-0.084
-93.801	-10.980	-0.231	0.149
-92.786	106.173	0.086	-0.099
-91.772	-139.521	-0.159	0.017
-90.757	-106.572	0.289	-0.063
-89.743	114.327	-0.112	0.132
-88.728	-54.559	0.212	-0.094
-87.713	87.143	0.133	0.143
-86.699	-171.967	-0.178	-0.006
-85.684	800.000	-0.052	0.161
-84.670	89.361	-0.241	0.261
-83.655	69.048	0.189	0.189
-82.640	800.000	-0.046	-0.176
-81.626	414.687	0.031	-0.064
-80.611	204.373	0.062	0.093
-79.597	-153.295	-0.215	0.015
-78.582	-93.186	-0.264	-0.071
-77.567	85.771	0.187	0.200
-76.553	95.748	-0.075	-0.084
-75.538	-200.000	0.005	0.229
-74.524	800.000	-0.067	-0.214
-73.509	-200.000	0.010	0.367
-72.494	-141.801	-0.172	0.017
-71.480	800.000	-0.185	0.551
-70.465	-200.000	0.089	-0.517
-69.451	463.580	0.168	-0.364
-68.436	374.353	0.061	0.121
-67.422	-200.000	-0.026	0.112
-66.407	800.000	-0.019	-0.051
-65.392	-5.496	0.187	-0.125
-64.378	-61.590	-0.227	-0.093
-63.363	-164.415	0.570	0.025
-62.349	53.274	0.227	0.212
-61.334	102.469	-1.101	-1.251
-60.319	251.955	0.600	0.993
-59.305	523.319	-0.548	-1.252
-58.290	334.815	0.721	1.357
-57.276	800.000	0.402	1.324
-56.261	-200.000	126.099	670.477
-55.246	425.136	1583.822	3313.817
-54.232	141.496	2747.221	3534.970
-53.217	90.146	2294.158	2492.507
-52.203	32.219	1900.905	1593.785
-51.188	26.160	1697.204	1376.896
-50.173	23.983	1658.765	1329.411
-49.159	45.995	1728.870	1554.684
-48.144	43.317	1740.502	1544.624
-47.130	25.755	1691.336	1368.838
-46.115	23.226	1676.031	1337.321
-45.100	23.102	1671.009	1332.323
-44.086	23.070	1668.072	1329.690
-43.071	23.034	1665.531	1327.342
-42.057	22.941	1663.893	1325.285
-41.042	22.993	1661.418	1323.647
-40.027	22.960	1659.926	1322.165
-39.013	23.014	1658.149	1321.101
-37.998	22.996	1656.320	1319.454
-36.984	23.045	1654.804	1318.558
-35.969	23.143	1653.826	1318.457
-34.954	23.233	1651.924	1317.561
-33.940	23.154	1650.590	1315.855
-32.925	23.100	1648.531	1313.761
-31.911	23.022	1647.430	1312.251
-30.896	23.057	1646.103	1311.400
-29.881	23.140	1643.781	1310.112
-28.867	23.140	1642.392	1308.958
-27.852	23.148	1641.263	1308.062
-26.838	23.138	1639.735	1306.721
-25.823	23.168	1638.304	1305.751
-24.809	23.184	1637.172	1304.911
-23.794	23.142	1635.781	1303.443
-22.779	23.195	1634.091	1302.433
-21.765	23.202	1632.574	1301.226
-20.750	23.174	1630.819	1299.572
-19.736	23.152	1629.949	1298.660
-18.721	23.178	1628.527	1297.670
-17.706	23.157	1626.898	1296.167
-16.692	23.180	1625.387	1295.079
-15.677	23.099	1624.272	1293.550
-14.663	23.136	1622.848	1292.630
-13.648	23.141	1621.141	1291.258
-12.633	23.227	1620.001	1290.923
-11.619	23.140	1617.951	1288.606
-10.604	23.229	1616.756	1288.250
-9.590	23.182	1615.788	1287.084
-8.575	23.254	1614.107	1286.223
-7.560	23.171	1613.104	1284.770
-6.546	23.220	1612.137	1284.300
-5.531	23.156	1610.891	1282.792
-4.517	23.152	1609.413	1281.534
-3.502	23.114	1608.687	1280.635
-2.487	23.254	1607.187	1280.404
-1.473	22.820	1593.942	1266.689
-0.458	19.876	1575.024	1230.697
0.556	14.800	1576.896	1200.085
1.571	12.611	1601.001	1202.345
2.586	12.426	1612.675	1209.645
3.600	11.428	1558.663	1161.920
4.615	6.229	1452.592	1048.185
5.629	1.108	1394.463	973.329
6.644	0.294	1387.044	962.863
7.659	0.143	1386.209	961.234
8.673	0.142	1385.005	960.311
9.688	0.092	1383.106	958.587
10.702	-0.077	1379.724	955.090
11.717	2.546	1383.027	973.984
12.731	9.191	1393.705	1023.882
13.746	15.087	1402.217	1067.751
14.761	16.628	1404.130	1078.944
15.775	16.214	1401.782	1074.409
16.790	15.182	1399.199	1065.771
17.804	14.342	1396.912	1058.602
18.819	14.072	1395.550	1055.758
19.834	13.904	1394.297	1053.652
20.848	13.615	1392.880	1050.656
21.863	13.361	1391.983	1048.275
22.877	13.193	1390.393	1045.922
23.892	13.111	1389.393	1044.564
24.907	13.155	1388.801	1044.303
25.921	13.113	1387.905	1043.269
26.936	13.093	1387.010	1042.376
27.950	13.170	1386.179	1042.146
28.965	13.216	1385.293	1041.679
29.980	13.324	1383.964	1041.269
30.994	13.361	1383.122	1040.771
32.009	13.444	1382.490	1040.727
33.023	13.385	1380.986	1039.134
34.038	13.345	1379.891	1037.970
35.053	13.276	1378.713	1036.557
36.067	13.380	1377.314	1036.064
37.082	13.302	1376.689	1035.016
38.096	13.323	1375.690	1034.301
39.111	13.324	1375.249	1033.884
40.126	13.360	1373.921	1033.022
41.140	13.195	1373.490	1031.578
42.155	13.245	1372.333	1030.929
43.169	13.160	1372.934	1030.757
44.184	13.048	1372.707	1029.797
45.199	13.162	1371.921	1029.829
46.213	13.181	1371.328	1029.408
47.228	13.310	1370.374	1029.408
48.242	13.191	1369.227	1027.711
49.257	13.237	1367.884	1026.900
50.271	13.200	1366.153	1025.279
51.286	13.240	1364.735	1024.373
52.301	13.238	1363.886	1023.629
53.315	13.112	1362.773	1021.926
54.330	13.122	1361.807	1021.176
55.344	13.170	1360.486	1020.387
56.359	13.214	1359.059	1019.498
57.374	13.067	1358.516	1018.095
58.388	13.047	1357.670	1017.248
59.403	13.093	1357.119	1017.031
60.417	13.087	1356.488	1016.429
61.432	13.088	1355.130	1015.327
62.447	13.044	1354.335	1014.373
63.461	13.018	1353.027	1013.143
64.476	12.913	1352.324	1011.883
65.490	13.090	1350.641	1011.619
66.505	13.068	1349.131	1010.265
67.520	13.093	1347.995	1009.474
68.534	13.000	1347.422	1008.388
69.549	12.991	1346.346	1007.442
70.563	13.100	1344.508	1006.638
71.578	13.041	1343.411	1005.370
72.593	13.023	1342.661	1004.609
73.607	13.052	1342.164	1004.326
74.622	12.965	1341.425	1003.156
75.636	12.976	1340.428	1002.389
76.651	12.960	1339.939	1001.835
77.666	12.969	1339.398	1001.396
78.680	12.986	1338.761	1000.936
79.695	12.886	1338.356	999.939
80.709	13.097	1336.969	1000.090
81.724	13.098	1335.408	998.842
82.739	13.051	1335.035	998.190
83.753	13.163	1333.955	997.971
84.768	13.245	1332.957	997.631
85.782	13.243	1331.801	996.663
86.797	13.292	1330.058	995.566
87.812	13.127	1329.049	993.732
88.826	13.124	1328.034	992.864
89.841	13.187	1327.260	992.578
90.855	13.287	1325.991	992.144
91.870	13.272	1324.835	991.098
92.884	13.287	1324.163	990.598
93.899	13.360	1323.452	990.418
94.914	13.285	1322.787	989.381
95.928	13.234	1321.912	988.334
96.943	13.212	1320.811	987.293
97.957	13.340	1319.488	986.978
98.972	13.335	1319.075	986.554
99.987	13.267	1317.653	984.996
101.001	13.231	1316.843	984.091
102.016	13.266	1315.468	983.187
103.030	13.278	1314.858	982.711
104.045	13.265	1313.930	981.858
105.060	13.268	1312.954	981.060
106.074	13.129	1311.769	979.262
107.089	13.150	1310.619	978.443
108.103	13.037	1309.188	976.618
109.118	13.136	1307.910	976.163
110.133	13.110	1306.837	975.122
111.147	13.164	1305.203	974.136
112.162	13.263	1303.669	973.488
113.176	13.232	1303.074	972.776
114.191	13.190	1301.794	971.488
115.206	13.219	1300.827	970.846
116.220	13.205	1299.209	969.475
117.235	13.226	1298.346	968.864
118.249	13.222	1296.932	967.703
119.264	13.311	1296.002	967.442
120.279	13.200	1295.021	965.976
121.293	13.166	1294.156	965.046
122.308	13.083	1293.017	963.631
123.322	13.151	1292.018	963.195
124.337	13.120	1291.050	962.207
125.352	13.142	1289.670	961.220
126.366	13.081	1288.723	960.076
127.381	13.121	1287.801	959.539
128.395	13.086	1286.417	958.215
129.410	13.149	1285.643	957.920
130.424	13.157	1284.608	957.110
131.439	13.236	1283.596	956.730
132.454	13.188	1282.960	955.894
133.468	13.148	1281.855	954.755
134.483	13.185	1281.106	954.323
135.497	13.315	1279.573	953.852
136.512	13.246	1278.733	952.741
137.527	13.124	1277.531	951.057
138.541	13.167	1275.992	950.076
139.556	13.336	1274.529	949.872
140.570	13.253	1273.654	948.663
141.585	13.232	1272.400	947.525
142.600	13.288	1270.785	946.555
143.614	13.337	1270.659	946.660
144.629	13.346	1269.300	945.617
145.643	13.394	1267.617	944.551
146.658	13.435	1266.552	943.906
147.673	13.368	1264.890	942.205
148.687	13.311	1264.272	941.338
149.702	13.268	1262.956	940.032
150.716	13.414	1261.472	939.670
151.731	13.413	1260.037	938.514
152.746	13.320	1259.247	937.314
153.760	13.369	1258.062	936.627
154.775	13.348	1257.094	935.707
155.789	13.454	1256.048	935.440
156.804	13.545	1254.558	934.764
157.819	13.388	1254.471	933.729
158.833	13.535	1253.310	933.611
159.848	13.611	1251.806	932.834
160.862	13.557	1250.879	931.762
161.877	13.463	1249.690	930.261
162.892	13.492	1248.141	929.192
163.906	13.518	1247.796	928.999
164.921	13.445	1246.943	927.869
165.935	13.514	1246.209	927.628
166.950	13.497	1245.624	927.017
167.964	13.559	1244.895	926.738
168.979	13.438	1243.842	925.196
169.994	13.669	1243.139	925.882
171.008	13.605	1241.992	924.589
172.023	13.621	1241.510	924.236
173.037	13.620	1240.198	923.172
174.052	13.660	1239.459	922.764
175.067	13.581	1238.776	921.733
176.081	13.632	1237.874	921.264
177.096	13.572	1237.014	920.208
178.110	13.564	1235.730	919.130
179.125	13.672	1234.173	918.488
180.140	13.669	1233.225	917.686
181.154	13.529	1232.345	916.172
182.169	13.612	1230.904	915.482
183.183	13.736	1229.648	915.149
184.198	13.724	1228.525	914.168
185.213	13.816	1227.215	913.615
186.227	13.721	1226.106	912.188
187.242	13.840	1224.960	911.908
188.256	13.809	1224.235	911.117
189.271	13.855	1223.245	910.555
190.286	13.746	1222.419	909.261
191.300	13.711	1221.548	908.341
192.315	13.671	1220.893	907.557
193.329	13.697	1220.008	906.959
194.344	13.659	1219.856	906.556
195.359	13.798	1218.950	906.561
196.373	13.897	1218.293	906.537
197.388	13.932	1217.763	906.251
198.402	13.903	1217.352	905.708
199.417	14.056	1216.503	905.831
200.432	13.987	1215.581	904.687
201.446	14.075	1214.529	904.302
202.461	14.091	1213.487	903.535
203.475	14.088	1212.798	902.925
204.490	14.141	1211.416	902.104
205.504	14.050	1209.952	900.440
206.519	14.118	1208.700	899.796
207.534	14.073	1207.794	898.800
208.548	14.069	1206.525	897.752
209.563	14.065	1205.898	897.187
210.577	14.115	1204.720	896.500
211.592	14.186	1204.106	896.345
212.607	14.159	1203.448	895.630
213.621	14.175	1202.447	894.893
214.636	14.162	1201.121	893.756
215.650	14.183	1200.478	893.313
216.665	14.169	1199.694	892.578
217.680	14.218	1199.005	892.247
218.694	14.165	1198.197	891.283
219.709	14.222	1197.348	890.877
220.723	14.262	1196.631	890.481
221.738	14.203	1196.124	889.708
222.753	14.311	1194.791	889.213
223.767	14.339	1194.237	888.874
224.782	14.430	1193.475	888.711
225.796	14.351	1192.799	887.711
226.811	14.438	1192.213	887.656
227.826	14.444	1191.564	887.130
228.840	14.426	1190.947	886.496
229.855	14.314	1190.253	885.304
230.869	14.393	1189.092	884.784
231.884	14.443	1188.369	884.428
232.899	14.383	1187.398	883.310
233.913	14.286	1187.156	882.537
234.928	14.362	1186.032	882.030
235.942	14.297	1185.265	881.034
236.957	14.365	1184.609	880.828
237.972	14.250	1184.013	879.699
238.986	14.424	1183.122	879.880
240.001	14.395	1182.700	879.334
241.015	14.424	1181.334	878.396
242.030	14.578	1180.153	878.251
243.045	14.448	1180.045	877.405
244.059	14.536	1179.027	877.037
245.074	14.611	1177.692	876.359
246.088	14.567	1177.435	875.861
247.103	14.553	1176.733	875.187
248.117	14.661	1175.932	875.079
249.132	14.589	1175.666	874.426
250.147	14.715	1174.467	874.115
251.161	14.689	1173.945	873.513
252.176	14.773	1173.059	873.215
253.190	14.760	1172.754	872.846
254.205	14.909	1171.959	872.953
255.220	14.862	1171.465	872.263
256.234	14.802	1171.155	871.640
257.249	14.925	1169.962	871.315
258.263	14.869	1169.314	870.466
259.278	14.876	1168.926	870.135
260.293	15.009	1168.071	870.115
261.307	14.947	1168.065	869.709
262.322	14.921	1167.159	868.824
263.336	15.096	1165.942	868.751
264.351	15.083	1165.734	868.448
265.366	15.023	1165.009	867.521
266.380	14.953	1164.413	866.637
267.395	15.160	1163.140	866.689
268.409	14.983	1162.726	865.387
269.424	15.087	1161.875	865.215
270.439	15.188	1161.006	865.010
271.453	15.109	1160.454	864.114
272.468	15.006	1159.616	862.884
273.482	15.101	1158.771	862.667
274.497	15.022	1158.633	862.085
275.512	15.074	1157.845	861.686
276.526	15.118	1156.805	861.066
277.541	15.101	1156.219	860.462
278.555	14.994	1156.005	859.678
279.570	15.184	1154.925	859.772
280.585	15.125	1154.393	859.001
281.599	15.195	1152.824	858.116
282.614	15.187	1151.945	857.345
283.628	15.298	1150.780	856.969
284.643	15.235	1150.075	856.043
285.657	15.403	1149.051	856.064
286.672	15.260	1148.083	854.536
287.687	15.421	1147.196	854.622
288.701	15.325	1146.954	853.878
289.716	15.369	1145.743	853.127
290.730	15.402	1145.143	852.771
291.745	15.363	1144.618	852.108
292.760	15.365	1144.146	851.687
293.774	15.376	1143.031	850.838
294.789	15.385	1142.780	850.623
295.803	15.464	1142.139	850.471
296.818	15.450	1141.123	849.566
297.833	15.423	1140.682	849.026
298.847	15.453	1139.578	848.281
299.862	15.408	1139.210	847.706
300.876	15.468	1138.536	847.431
301.891	15.431	1137.889	846.690
302.906	15.727	1136.485	847.064
303.920	15.650	1136.248	846.422
304.935	15.710	1135.222	845.886
305.949	15.681	1135.246	845.680
306.964	15.646	1134.528	844.897
307.979	15.676	1133.698	844.354
308.993	15.628	1132.618	843.234
310.008	15.743	1131.930	843.222
311.022	15.652	1131.212	842.157
312.037	15.655	1130.726	841.738
313.052	15.746	1129.322	841.074
314.066	15.677	1128.296	839.889
315.081	15.629	1127.902	839.284
316.095	15.703	1127.155	839.023
317.110	15.692	1125.908	837.963
318.125	15.769	1125.424	837.911
319.139	15.620	1125.024	836.802
320.154	15.786	1123.949	836.753
321.168	15.804	1123.310	836.292
322.183	15.771	1122.623	835.543
323.197	15.778	1122.463	835.381
324.212	15.788	1121.617	834.729
325.227	15.763	1121.082	834.133
326.241	15.841	1120.366	833.916
327.256	15.827	1119.435	833.078
328.270	15.847	1118.616	832.494
329.285	15.812	1117.735	831.590
330.300	15.798	1117.078	830.962
331.314	15.938	1115.941	830.729
332.329	15.845	1115.175	829.627
333.343	15.945	1114.123	829.265
334.358	16.022	1113.620	829.199
335.373	15.898	1112.388	827.596
336.387	16.010	1111.589	827.481
337.402	16.006	1110.973	826.926
338.416	16.041	1110.499	826.675
339.431	16.033	1109.937	826.141
340.446	16.169	1108.886	825.953
341.460	16.099	1108.618	825.336
342.475	16.098	1108.003	824.801
343.489	16.032	1106.907	823.590
344.504	16.226	1105.884	823.704
345.519	16.254	1104.856	823.000
346.533	16.264	1104.226	822.509
347.548	16.297	1103.263	821.878
348.562	16.276	1102.174	820.894
349.577	16.200	1101.982	820.305
350.592	16.147	1101.637	819.718
351.606	16.274	1100.445	819.376
352.621	16.215	1099.940	818.643
353.635	16.246	1099.052	818.062
354.650	16.307	1098.473	817.851
355.665	16.309	1097.663	817.184
356.679	16.298	1097.132	816.663
357.694	16.398	1096.575	816.663
358.708	16.268	1095.968	815.511
359.723	16.226	1095.312	814.745
360.738	16.300	1094.815	814.662
361.752	16.387	1094.153	814.516
362.767	16.364	1093.539	813.874
363.781	16.274	1093.075	813.027
364.796	16.482	1092.552	813.567
365.810	16.482	1091.789	812.924
366.825	16.433	1091.313	812.263
367.840	16.604	1090.828	812.654
368.854	16.648	1090.024	812.192
369.869	16.682	1088.861	811.417
370.883	16.577	1088.511	810.580
371.898	16.553	1087.697	809.786
372.913	16.548	1087.307	809.404
373.927	16.517	1086.751	808.771
374.942	16.663	1085.782	808.674
375.956	16.686	1085.692	808.646
376.971	16.690	1085.088	808.143
377.986	16.656	1084.558	807.513
379.000	16.781	1083.754	807.441
380.015	16.800	1083.299	807.119
381.029	16.809	1082.275	806.328
382.044	16.910	1081.676	806.292
383.059	16.820	1080.875	805.197
384.073	16.881	1080.621	805.224
385.088	16.804	1079.309	803.812
386.102	16.869	1078.439	803.398
387.117	16.927	1077.091	802.599
388.132	16.785	1076.694	801.561
389.146	16.827	1076.315	801.406
390.161	16.824	1075.206	800.492
391.175	16.831	1074.585	799.993
392.190	17.066	1073.462	800.193
393.205	16.959	1072.909	799.207
394.219	16.855	1072.590	798.411
395.234	16.999	1071.118	797.920
396.248	16.971	1070.056	796.929
397.263	16.909	1069.383	796.065
398.278	16.935	1068.939	795.785
399.292	16.924	1067.905	794.896
400.307	17.053	1066.990	794.749
401.321	16.948	1066.477	793.801
402.336	17.050	1065.752	793.669
403.350	16.882	1065.353	792.516
404.365	16.893	1064.780	792.070
405.380	17.023	1063.890	791.948
406.394	17.002	1063.294	791.336
407.409	17.183	1062.357	791.413
408.423	17.167	1061.659	790.748
409.438	17.102	1061.102	789.959
410.453	17.174	1060.036	789.430
411.467	17.314	1059.407	789.542
412.482	17.258	1058.883	788.822
413.496	17.375	1057.921	788.581
414.511	17.262	1057.587	787.738
415.526	17.333	1057.114	787.642
416.540	17.449	1056.823	787.895
417.555	17.398	1056.408	787.278
418.569	17.491	1055.428	786.909
419.584	17.477	1055.088	786.520
420.599	17.418	1054.742	785.921
421.613	107.886	1331.143	1487.682
422.628	99.414	1371.344	1487.756
