DTS Sentinel unit serial number:	SN413079Multiplexer serial number:	ORYXHardware model number:	OX4-SRSoftware version number:	ORYX F/W v4.00 Oryx Data Collector v3.7.2.0data status	okinstallation	princeton_trtdifferential loss correction	single-endedforward channel	channel 2reverse channel	N/Adate	2019/09/12time	20:11:49forward acquisition time	15.00reverse acquisition time	0.00gamma	496.2192k internal	0.2326k external	0.2326temperature offset calibration	1.0148default loss term (dB/km)	0.3790temperature slope calibration	1.0000multiplexer offset coefficient	1.0000multiplexer slope coefficient	1.0000fibre end	0.00T internal ref (°C)	31.56T ext. ref 1 (°C)	3.32T ext. ref 2 (°C)	26.23length (m)	temperature (°C)	Stokes	anti-Stokes-747.200	-91.805	-0.442	0.127
-746.185	-200.000	0.048	-0.610
-745.171	-127.764	0.355	0.052
-744.156	-150.496	-0.692	-0.054
-743.142	-100.629	0.567	-0.141
-742.127	76.837	-0.711	0.761
-741.112	56.071	-0.539	0.527
-740.098	13.539	-0.588	-0.460
-739.083	-91.138	0.615	-0.178
-738.069	-121.361	-0.413	0.069
-737.054	276.839	0.183	0.327
-736.039	-200.000	-0.058	0.261
-735.025	-7.183	0.416	0.285
-734.010	-200.000	0.004	0.073
-732.996	311.382	-0.198	0.374
-731.981	-145.093	0.402	-0.037
-730.966	396.720	-0.008	-0.017
-729.952	-200.000	-0.094	0.638
-728.937	-180.240	-0.617	-0.013
-727.923	-77.569	-0.481	0.168
-726.908	-15.245	-0.175	0.113
-725.894	-79.668	-0.303	-0.103
-724.879	-57.723	-0.683	0.302
-723.864	-138.431	-0.488	0.054
-722.850	800.000	-0.223	0.831
-721.835	-200.000	0.144	-0.743
-720.821	-135.028	-0.191	-0.023
-719.806	800.000	0.126	0.485
-718.791	800.000	0.264	-0.822
-717.777	-200.000	-0.108	0.492
-716.762	-200.000	0.060	-0.294
-715.748	179.407	0.497	-0.733
-714.733	-9.444	-0.596	0.401
-713.718	667.134	0.146	0.381
-712.704	-200.000	0.000	-0.144
-711.689	208.100	0.378	0.595
-710.675	800.000	-0.168	0.486
-709.660	63.929	-0.512	-0.518
-708.645	-54.355	0.027	0.012
-707.631	154.952	-0.317	0.439
-706.616	5.364	-1.146	-0.852
-705.602	209.398	-0.096	0.152
-704.587	-80.414	0.359	-0.121
-703.572	229.158	0.139	0.228
-702.558	800.000	0.119	0.339
-701.543	94.333	0.385	0.440
-700.529	-116.011	0.688	-0.129
-699.514	-80.927	-0.780	0.260
-698.499	103.614	0.162	-0.191
-697.485	-42.369	-0.454	0.233
-696.470	800.000	0.184	0.604
-695.456	342.842	0.076	0.150
-694.441	-52.341	0.585	-0.273
-693.426	479.827	-0.270	0.615
-692.412	-80.044	0.783	-0.264
-691.397	800.000	-0.245	0.974
-690.383	196.436	0.034	0.052
-689.368	-121.649	0.403	-0.067
-688.354	-110.109	-0.728	0.153
-687.339	63.993	0.086	0.087
-686.324	-10.278	-0.737	-0.492
-685.310	-200.000	-0.087	0.423
-684.295	208.624	-0.180	0.283
-683.281	-95.248	-0.559	0.152
-682.266	-101.629	1.325	-0.324
-681.251	800.000	-0.025	0.083
-680.237	159.740	0.174	-0.244
-679.222	-1.914	-0.529	0.375
-678.208	-200.000	-0.015	-0.530
-677.193	17.158	-0.614	-0.489
-676.178	292.084	-0.439	-0.804
-675.164	626.794	0.127	0.323
-674.149	-31.116	0.281	-0.159
-673.135	-6.957	-0.767	-0.524
-672.120	-72.172	0.779	0.291
-671.105	8.504	-0.645	-0.488
-670.091	250.102	-0.136	-0.232
-669.076	53.614	-0.500	-0.482
-668.062	45.818	0.016	-0.015
-667.047	-90.889	0.906	0.262
-666.032	39.005	0.389	-0.349
-665.018	164.264	-0.703	-0.997
-664.003	133.920	-0.303	0.394
-662.989	139.237	-0.185	-0.244
-661.974	-177.113	0.533	-0.013
-660.959	0.017	-0.185	0.133
-659.945	-102.908	0.398	0.095
-658.930	94.044	0.570	-0.649
-657.916	66.292	0.965	-0.985
-656.901	-200.000	-0.054	-0.363
-655.886	-54.686	1.183	0.538
-654.872	63.377	-0.539	0.543
-653.857	-22.081	-0.479	0.292
-652.843	271.269	0.114	-0.202
-651.828	-125.821	-0.341	-0.052
-650.814	310.241	0.080	0.150
-649.799	800.000	0.083	0.354
-648.784	57.735	-0.459	-0.451
-647.770	59.634	-0.339	0.336
-646.755	-200.000	0.035	-0.161
-645.741	-70.222	0.176	0.067
-644.726	104.412	-0.356	0.421
-643.711	83.252	0.378	0.413
-642.697	-200.000	0.091	0.432
-641.682	62.262	0.285	-0.286
-640.668	800.000	-0.162	0.483
-639.653	800.000	0.085	0.254
-638.638	0.086	-0.464	0.332
-637.624	62.193	0.089	0.089
-636.609	77.142	-0.092	-0.098
-635.595	-55.096	-0.185	-0.084
-634.580	800.000	-0.074	0.208
-633.565	-123.609	-0.898	-0.143
-632.551	216.222	0.570	0.910
-631.536	678.404	-0.051	0.133
-630.522	-200.000	0.110	-0.486
-629.507	79.417	0.233	-0.251
-628.492	-200.000	0.036	-0.504
-627.478	-146.403	-0.645	0.057
-626.463	-200.000	0.035	-0.463
-625.449	61.769	0.415	0.415
-624.434	49.183	-0.260	0.245
-623.419	269.829	0.307	0.541
-622.405	105.502	-0.284	-0.336
-621.390	-200.000	0.091	-0.984
-620.376	-150.896	0.525	-0.040
-619.361	116.286	0.214	0.263
-618.346	-123.442	0.239	0.038
-617.332	-101.955	0.576	0.139
-616.317	-67.338	0.828	-0.327
-615.303	-93.775	0.569	0.157
-614.288	-163.900	-0.503	0.024
-613.273	184.503	0.279	-0.415
-612.259	-200.000	-0.003	-0.376
-611.244	41.898	-0.475	-0.433
-610.230	800.000	0.158	-0.632
-609.215	64.371	-0.209	-0.211
-608.201	203.366	-0.226	0.351
-607.186	-34.115	0.297	0.163
-606.171	800.000	-0.050	-0.155
-605.157	-200.000	-0.103	-0.787
-604.142	-200.000	-0.084	1.057
-603.128	-200.000	0.026	-0.434
-602.113	198.480	-0.417	-0.639
-601.098	-107.345	-0.574	-0.127
-600.084	-167.472	0.498	0.020
-599.069	-200.000	-0.200	0.979
-598.055	783.014	-0.383	-1.051
-597.040	50.543	0.196	-0.186
-596.025	378.016	0.364	-0.746
-595.011	-115.592	-0.209	0.039
-593.996	552.921	-0.159	0.384
-592.982	51.134	-0.406	0.386
-591.967	29.810	0.038	-0.033
-590.952	-21.720	-0.336	0.205
-589.938	800.000	-0.314	-0.906
-588.923	20.314	0.429	-0.347
-587.909	-31.505	-0.487	0.275
-586.894	90.080	-0.244	0.274
-585.879	-61.513	-0.616	0.259
-584.865	-200.000	0.111	-0.515
-583.850	-26.814	0.573	0.336
-582.836	264.083	-0.150	-0.262
-581.821	-144.746	0.673	-0.062
-580.806	102.007	-0.221	0.258
-579.792	-79.402	0.938	-0.318
-578.777	-121.247	0.529	0.089
-577.763	800.000	0.140	0.508
-576.748	325.969	0.144	0.276
-575.733	707.040	0.074	-0.195
-574.719	-200.000	-0.092	0.658
-573.704	-93.032	-0.271	-0.076
-572.690	-200.000	0.045	0.207
-571.675	-200.000	-0.198	0.881
-570.661	38.523	-0.327	-0.292
-569.646	-20.507	-0.299	0.184
-568.631	345.102	-0.206	0.405
-567.617	-13.868	0.776	-0.502
-566.602	-140.248	0.882	0.093
-565.588	-106.119	0.527	0.119
-564.573	-75.019	0.189	-0.068
-563.558	331.448	0.402	0.776
-562.544	469.168	0.079	-0.178
-561.529	38.193	0.636	0.567
-560.515	-83.587	-0.331	-0.106
-559.500	161.430	-0.283	0.397
-558.485	154.440	0.521	-0.716
-557.471	537.299	-0.221	-0.526
-556.456	-200.000	-0.132	-0.840
-555.442	73.395	-0.633	0.663
-554.427	800.000	-0.068	0.202
-553.412	-156.210	0.939	0.059
-552.398	-196.944	-0.401	-0.003
-551.383	-104.477	0.218	-0.051
-550.369	-43.278	0.370	0.187
-549.354	40.966	0.321	-0.290
-548.339	-28.572	0.598	-0.345
-547.325	97.459	0.124	0.143
-546.310	6.661	-0.740	0.551
-545.296	394.192	-0.260	0.542
-544.281	197.264	0.312	-0.477
-543.266	-24.928	0.485	-0.288
-542.252	-89.583	0.406	-0.119
-541.237	188.935	-0.066	0.099
-540.223	800.000	0.116	0.414
-539.208	41.553	-0.361	-0.327
-538.193	-200.000	-0.040	-0.429
-537.179	-200.000	0.002	0.641
-536.164	-114.307	-0.222	0.043
-535.150	-75.650	0.083	0.030
-534.135	-121.481	0.432	0.072
-533.121	800.000	0.271	-0.761
-532.106	-200.000	-0.146	-0.754
-531.091	-108.565	0.713	-0.153
-530.077	60.405	-0.217	-0.215
-529.062	-200.000	0.073	0.435
-528.048	432.744	-0.255	0.553
-527.033	-51.801	-0.524	0.244
-526.018	-200.000	-0.106	0.799
-525.004	181.816	0.207	-0.305
-523.989	360.736	0.149	0.299
-522.975	-117.111	0.719	-0.131
-521.960	-33.110	-0.551	0.306
-520.945	800.000	0.154	-0.602
-519.931	-68.071	0.668	0.260
-518.916	-119.705	-0.600	-0.104
-517.902	-200.000	0.018	-0.375
-516.887	78.309	0.255	0.273
-515.872	-200.000	-0.150	1.219
-514.858	440.359	0.192	0.420
-513.843	120.862	0.193	0.240
-512.829	-65.710	0.371	-0.148
-511.814	329.061	-0.436	-0.837
-510.799	-200.000	-0.168	-0.938
-509.785	-200.000	-0.004	-0.471
-508.770	57.895	-0.225	0.220
-507.756	8.800	-0.561	0.423
-506.741	742.362	-0.263	0.707
-505.726	155.340	0.695	0.956
-504.712	32.022	-0.314	-0.271
-503.697	166.178	-0.471	-0.666
-502.683	382.103	0.222	-0.457
-501.668	-200.000	-0.136	-0.732
-500.653	-4.117	-0.487	-0.337
-499.639	20.263	0.556	-0.448
-498.624	-44.900	-0.415	-0.206
-497.610	-151.064	-0.423	-0.032
-496.595	-77.508	-0.722	-0.250
-495.581	-28.929	0.146	0.084
-494.566	-10.216	0.829	-0.549
-493.551	-200.000	0.022	0.926
-492.537	-200.000	-0.002	-0.018
-491.522	203.117	-0.162	-0.251
-490.508	-39.665	0.432	-0.225
-489.493	567.352	0.171	-0.415
-488.478	224.364	-0.283	-0.457
-487.464	63.117	0.119	-0.119
-486.449	31.995	-0.730	0.628
-485.435	-14.286	-0.151	0.097
-484.420	230.096	0.373	-0.609
-483.405	37.174	0.381	-0.337
-482.391	-101.973	0.526	0.127
-481.376	-197.765	-0.265	-0.002
-480.362	800.000	-0.082	-0.255
-479.347	-175.961	-0.994	0.026
-478.332	-200.000	0.006	0.774
-477.318	537.832	-0.130	-0.308
-476.303	94.368	0.418	-0.474
-475.289	529.870	0.134	0.317
-474.274	278.223	0.564	-1.002
-473.259	-96.840	-0.650	-0.170
-472.245	254.362	0.272	0.464
-471.230	-200.000	-0.156	1.121
-470.216	-46.960	0.169	0.082
-469.201	800.000	0.065	-0.227
-468.186	-44.553	0.752	-0.375
-467.172	-200.000	-0.020	0.549
-466.157	241.166	-0.474	0.789
-465.143	-42.558	0.368	-0.187
-464.128	73.432	-0.364	-0.380
-463.113	149.435	0.203	-0.275
-462.099	-110.189	0.499	0.104
-461.084	73.701	0.122	-0.128
-460.070	-45.663	1.068	-0.527
-459.055	35.818	-0.780	-0.684
-458.040	-30.268	-0.901	-0.510
-457.026	-71.349	0.277	0.104
-456.011	-108.851	-0.509	0.108
-454.997	-39.735	1.208	-0.630
-453.982	-103.046	-0.429	0.101
-452.968	-4.397	-0.376	0.259
-451.953	800.000	-0.066	0.181
-450.938	47.251	-0.852	0.791
-449.924	-57.132	0.303	0.133
-448.909	-124.307	0.412	-0.064
-447.895	80.284	-0.269	0.289
-446.880	-0.801	-0.305	0.215
-445.865	260.174	0.090	0.155
-444.851	-67.457	0.500	-0.196
-443.836	-66.813	0.501	-0.197
-442.822	-91.807	-0.863	0.244
-441.807	470.586	0.147	0.329
-440.792	-74.880	0.629	-0.225
-439.778	267.134	-0.316	-0.550
-438.763	50.923	-0.441	-0.416
-437.749	-7.645	0.551	-0.371
-436.734	16.189	0.251	-0.197
-435.719	800.000	0.108	-0.466
-434.705	-36.285	0.240	-0.129
-433.690	318.022	-0.437	0.825
-432.676	52.689	-0.498	0.474
-431.661	41.661	0.723	-0.652
-430.646	-50.288	-0.231	0.109
-429.632	-200.000	-0.100	0.439
-428.617	-200.000	-0.008	0.693
-427.603	-75.686	0.499	0.177
-426.588	-37.450	-0.329	0.175
-425.573	17.418	0.313	-0.247
-424.559	206.193	0.221	-0.342
-423.544	-16.229	-0.354	-0.224
-422.530	25.535	0.148	-0.123
-421.515	798.037	0.117	-0.322
-420.500	63.964	-0.404	-0.404
-419.486	-200.000	0.048	-0.973
-418.471	-71.724	0.372	0.138
-417.457	-141.338	0.550	0.056
-416.442	-150.033	0.534	0.041
-415.428	177.143	0.113	-0.164
-414.413	800.000	0.208	-0.849
-413.398	24.667	-0.246	-0.203
-412.384	-84.910	0.332	-0.104
-411.369	-68.432	-0.858	-0.332
-410.355	-34.274	0.826	0.451
-409.340	-132.764	0.905	-0.115
-408.325	-24.577	-0.272	-0.161
-407.311	-150.792	-0.374	0.028
-406.296	66.822	-0.320	-0.324
-405.282	-47.869	-0.684	-0.330
-404.267	227.486	-0.230	0.372
-403.252	-66.271	-0.372	0.147
-402.238	-12.981	0.435	-0.282
-401.223	-200.000	-0.062	0.272
-400.209	-183.847	-0.255	-0.004
-399.194	28.061	-0.446	0.374
-398.179	-89.900	-0.896	0.260
-397.165	141.666	-0.430	-0.567
-396.150	-200.000	0.040	-0.187
-395.136	800.000	0.121	-0.459
-394.121	800.000	-0.059	0.214
-393.106	654.004	0.321	-0.818
-392.092	-127.127	0.347	0.051
-391.077	-88.962	-0.948	0.279
-390.063	800.000	0.033	-0.122
-389.048	188.607	0.159	-0.237
-388.033	-172.860	-0.050	0.002
-387.019	-139.021	-0.481	-0.052
-386.004	13.951	0.367	-0.284
-384.990	-139.475	-0.967	-0.103
-383.975	771.458	-0.189	-0.512
-382.960	-33.550	-0.259	-0.142
-381.946	-200.000	-0.044	0.281
-380.931	0.384	0.391	0.278
-379.917	37.130	0.344	0.303
-378.902	436.816	0.324	0.702
-377.888	80.409	-0.060	-0.064
-376.873	332.508	0.360	0.692
-375.858	-129.650	0.519	-0.071
-374.844	556.995	0.041	0.097
-373.829	52.160	0.266	0.252
-372.815	107.173	-0.606	-0.716
-371.800	54.950	0.225	-0.216
-370.785	269.028	-0.143	0.250
-369.771	-200.000	0.034	0.590
-368.756	-114.948	-0.225	0.043
-367.742	125.498	-0.353	-0.442
-366.727	-85.431	-0.284	-0.088
-365.712	342.531	-0.251	0.489
-364.698	130.555	-0.581	-0.740
-363.683	125.140	0.223	-0.280
-362.669	35.764	0.212	0.185
-361.654	-61.962	-0.380	-0.158
-360.639	201.131	-0.642	0.982
-359.625	-200.000	0.052	-0.295
-358.610	-200.000	-0.015	0.445
-357.596	800.000	0.239	-0.935
-356.581	-71.227	-0.794	0.296
-355.566	-102.961	0.510	0.120
-354.552	125.323	0.159	0.199
-353.537	-76.701	0.635	0.221
-352.523	1.339	0.460	-0.328
-351.508	10.158	-0.746	0.563
-350.493	-72.575	-0.565	-0.207
-349.479	-24.327	0.049	-0.029
-348.464	204.707	-0.400	-0.616
-347.450	52.466	0.391	-0.371
-346.435	157.081	0.334	0.459
-345.420	220.059	0.228	0.362
-344.406	371.274	0.200	0.402
-343.391	-159.705	-1.012	-0.055
-342.377	800.000	0.328	0.955
-341.362	1.378	-0.615	0.439
-340.348	-95.310	-0.097	-0.026
-339.333	111.071	0.446	-0.533
-338.318	109.511	-0.291	0.346
-337.304	800.000	0.446	1.305
-336.289	143.198	-0.278	0.367
-335.275	-80.848	-0.234	0.077
-334.260	-23.101	0.634	0.379
-333.245	-190.044	-0.236	-0.003
-332.231	-200.000	-0.032	0.150
-331.216	-18.161	0.167	0.104
-330.202	30.409	0.409	-0.346
-329.187	155.394	-0.255	0.348
-328.172	-11.520	0.319	-0.208
-327.158	-147.937	-1.007	0.083
-326.143	-97.394	0.081	0.021
-325.129	800.000	0.041	-0.175
-324.114	-52.052	-0.668	0.308
-323.099	-145.597	-0.417	-0.037
-322.085	36.961	-0.319	0.280
-321.070	-200.000	0.180	-0.840
-320.056	58.364	0.404	0.393
-319.041	63.029	-0.355	-0.353
-318.026	-122.846	-0.256	0.041
-317.012	-200.000	0.053	-0.325
-315.997	-200.000	-0.031	0.155
-314.983	-178.726	-1.234	-0.028
-313.968	10.298	0.170	-0.128
-312.953	-81.962	0.218	-0.071
-311.939	308.496	0.236	0.437
-310.924	31.458	0.574	0.489
-309.910	800.000	-0.130	-0.406
-308.895	-200.000	-0.081	-0.473
-307.880	800.000	-0.178	0.668
-306.866	-93.383	-0.188	-0.052
-305.851	76.666	0.465	0.488
-304.837	-46.627	-0.647	0.314
-303.822	800.000	0.127	0.430
-302.807	-200.000	-0.054	0.653
-301.793	-36.036	0.272	-0.146
-300.778	800.000	-0.210	0.727
-299.764	-200.000	0.172	-0.854
-298.749	33.518	-0.403	-0.347
-297.735	303.415	0.215	0.395
-296.720	-75.303	-0.498	0.176
-295.705	800.000	-0.068	0.212
-294.691	-200.000	-0.018	0.602
-293.676	-56.096	-1.237	0.546
-292.662	-51.440	-0.830	0.384
-291.647	-200.000	-0.030	-0.311
-290.632	800.000	-0.121	0.430
-289.618	575.768	-0.061	-0.147
-288.603	312.914	-0.119	0.222
-287.589	-110.917	-0.126	-0.026
-286.574	26.567	0.671	0.556
-285.559	-77.405	0.908	0.312
-284.545	-81.809	1.021	-0.331
-283.530	573.658	0.145	0.350
-282.516	-82.229	1.185	-0.382
-281.501	-200.000	0.016	-0.515
-280.486	-61.613	0.330	-0.137
-279.472	-116.583	0.213	0.039
-278.457	195.582	0.401	0.604
-277.443	-91.762	-1.092	-0.307
-276.428	1.740	-0.268	0.191
-275.413	-140.874	0.777	-0.079
-274.399	106.211	0.202	-0.237
-273.384	605.692	0.452	1.114
-272.370	-200.000	-0.032	-0.467
-271.355	-142.682	-0.531	0.051
-270.340	378.036	0.165	-0.335
-269.326	268.819	-0.157	0.272
-268.311	7.760	0.641	0.475
-267.297	-155.186	0.717	-0.046
-266.282	382.974	0.173	-0.351
-265.267	21.930	-0.226	-0.182
-264.253	-41.211	0.286	-0.146
-263.238	-25.572	-0.453	0.265
-262.224	800.000	-0.168	-0.497
-261.209	800.000	-0.099	0.338
-260.195	222.983	-0.135	0.216
-259.180	721.439	-0.024	-0.063
-258.165	-17.282	0.495	-0.309
-257.151	248.271	-0.063	0.106
-256.136	-45.666	-0.304	0.149
-255.122	355.882	-0.315	-0.621
-254.107	7.073	0.465	0.343
-253.092	-200.000	-0.032	0.876
-252.078	800.000	0.135	0.429
-251.063	-110.358	0.222	0.046
-250.049	50.773	0.570	0.534
-249.034	7.803	-0.188	-0.139
-248.019	129.710	-0.179	0.226
-247.005	800.000	-0.098	0.351
-245.990	800.000	-0.066	0.233
-244.976	-200.000	-0.189	-1.161
-243.961	-62.195	-0.419	0.173
-242.946	-83.605	0.547	0.173
-241.932	-100.457	-0.855	-0.209
-240.917	-139.542	-0.381	0.040
-239.903	800.000	-0.130	0.484
-238.888	38.179	0.343	0.302
-237.873	-77.450	-0.256	0.088
-236.859	-12.528	-0.329	0.212
-235.844	-200.000	-0.074	0.665
-234.830	-200.000	-0.055	0.407
-233.815	-158.521	-0.221	-0.013
-232.800	212.993	-0.201	0.314
-231.786	78.104	0.597	-0.630
-230.771	-1.064	0.388	0.271
-229.757	-95.627	-0.781	-0.207
-228.742	-59.354	0.592	-0.252
-227.727	69.833	0.498	0.507
-226.713	-200.000	0.204	1.083
-225.698	-0.515	0.333	-0.234
-224.684	-62.684	-0.414	-0.170
-223.669	-147.096	-0.441	-0.037
-222.655	-200.000	0.129	-0.599
-221.640	-46.402	-0.422	0.205
-220.625	-29.542	0.540	-0.305
-219.611	36.122	-0.188	-0.164
-218.596	-99.196	-0.211	-0.053
-217.582	91.018	-0.264	-0.293
-216.567	-200.000	0.054	-0.505
-215.552	31.438	0.388	-0.329
-214.538	4.441	0.339	-0.245
-213.523	-111.579	-0.832	0.167
-212.509	-200.000	0.040	-0.181
-211.494	242.326	-0.433	-0.716
-210.479	589.755	0.329	0.801
-209.465	324.985	0.117	-0.221
-208.450	252.197	0.247	0.416
-207.436	800.000	-0.108	-0.433
-206.421	-15.748	0.268	0.169
-205.406	142.622	0.306	0.402
-204.392	301.324	0.289	-0.527
-203.377	800.000	0.201	-0.711
-202.363	38.030	0.038	0.033
-201.348	-14.002	-1.083	-0.690
-200.333	-103.695	0.919	0.213
-199.319	534.024	0.425	-0.995
-198.304	800.000	-0.223	0.768
-197.290	-154.234	-0.420	-0.028
-196.275	-35.058	0.288	-0.155
-195.260	-125.931	0.856	0.127
-194.246	-104.940	-0.831	0.188
-193.231	-14.361	-0.105	-0.066
-192.217	-13.590	-0.627	0.401
-191.202	129.930	0.383	-0.483
-190.187	800.000	0.208	-0.857
-189.173	-25.575	-0.404	0.235
-188.158	800.000	-0.012	-0.044
-187.144	390.599	-0.186	0.380
-186.129	38.374	-0.286	0.252
-185.114	63.602	0.222	-0.220
-184.100	-18.054	0.122	-0.075
-183.085	322.958	0.259	-0.487
-182.071	-50.552	0.422	-0.196
-181.056	-200.000	-0.062	-0.345
-180.042	-49.242	-0.304	-0.143
-179.027	-200.000	-0.020	0.309
-178.012	-146.101	-0.368	-0.032
-176.998	800.000	-0.097	0.291
-175.983	214.449	-0.200	-0.312
-174.969	7.378	0.234	-0.173
-173.954	-200.000	-0.055	-0.336
-172.939	-81.999	1.340	-0.432
-171.925	-1.304	0.288	-0.200
-170.910	-200.000	0.038	-0.233
-169.896	424.004	-0.295	-0.626
-168.881	-75.438	-0.956	-0.336
-167.866	133.212	-0.256	0.326
-166.852	83.608	-0.302	0.325
-165.837	800.000	0.085	0.288
-164.823	-200.000	0.000	0.632
-163.808	-13.016	-0.928	0.595
-162.793	-44.282	0.663	0.327
-161.779	-200.000	0.021	-0.548
-160.764	4.615	-0.254	0.184
-159.750	516.286	-0.167	-0.386
-158.735	153.153	0.211	-0.285
-157.720	800.000	-0.099	-0.291
-156.706	645.082	0.134	-0.336
-155.691	12.687	0.183	-0.140
-154.677	-87.980	0.821	0.243
-153.662	20.143	-0.832	-0.662
-152.647	-89.904	0.516	0.149
-151.633	-200.000	0.009	0.338
-150.618	-125.381	0.656	0.099
-149.604	635.321	-0.127	-0.317
-148.589	188.607	-0.450	-0.663
-147.574	-70.504	0.946	0.353
-146.560	12.556	0.300	-0.228
-145.545	-9.788	0.816	-0.535
-144.531	202.740	0.419	-0.637
-143.516	800.000	-0.032	0.090
-142.502	541.273	-0.235	0.551
-141.487	-14.782	0.683	0.432
-140.472	-200.000	-0.054	-0.263
-139.458	23.729	0.622	-0.504
-138.443	279.088	-0.302	-0.531
-137.429	-179.863	-0.680	-0.014
-136.414	-65.127	0.462	-0.184
-135.399	-162.454	-0.592	-0.029
-134.385	800.000	0.353	-1.014
-133.370	800.000	-0.130	0.475
-132.356	-27.560	0.505	0.289
-131.341	-200.000	-0.091	0.575
-130.326	800.000	0.167	0.629
-129.312	-200.000	-0.053	-0.229
-128.297	14.397	-0.233	-0.179
-127.283	-135.351	-1.272	-0.150
-126.268	-200.000	0.038	-0.259
-125.253	314.414	0.326	0.603
-124.239	-200.000	-0.155	-0.682
-123.224	323.738	-0.175	0.329
-122.210	186.477	0.569	0.834
-121.195	-40.206	0.213	0.109
-120.180	19.394	-0.347	-0.274
-119.166	99.622	-0.464	-0.528
-118.151	-200.000	-0.049	-0.592
-117.137	587.621	-0.327	-0.791
-116.122	-131.364	0.380	0.049
-115.107	280.715	-0.284	-0.500
-114.093	106.271	0.243	0.283
-113.078	306.413	-0.026	-0.048
-112.064	210.832	0.251	-0.389
-111.049	-200.000	0.040	-0.603
-110.034	108.276	-0.134	-0.157
-109.020	330.515	-0.266	-0.505
-108.005	130.114	0.194	-0.244
-106.991	642.120	-0.093	0.233
-105.976	134.874	0.324	0.414
-104.962	800.000	-0.248	-0.747
-103.947	662.327	0.290	-0.734
-102.932	800.000	-0.054	0.186
-101.918	58.114	0.459	0.442
-100.903	27.512	0.434	0.359
-99.889	56.274	-0.249	0.238
-98.874	-200.000	0.037	-0.384
-97.859	-136.687	0.338	-0.038
-96.845	184.336	0.285	-0.416
-95.830	-200.000	0.018	-0.279
-94.816	-200.000	-0.029	0.446
-93.801	319.860	0.333	-0.620
-92.786	-25.351	-0.277	-0.161
-91.772	42.480	0.583	-0.522
-90.757	-200.000	-0.026	-0.545
-89.743	-200.000	0.022	-0.480
-88.728	798.852	0.109	-0.295
-87.713	-200.000	0.241	-0.001
-86.699	-200.000	0.100	0.444
-85.684	-50.138	0.279	-0.130
-84.670	-200.000	-0.174	-0.754
-83.655	-49.138	0.227	-0.107
-82.640	180.679	-0.128	0.185
-81.626	158.046	0.197	-0.268
-80.611	-31.454	-0.238	-0.132
-79.597	569.385	0.091	-0.216
-78.582	-200.000	0.027	-0.429
-77.567	800.000	-0.270	0.914
-76.553	89.616	0.572	-0.627
-75.538	612.941	-0.339	0.834
-74.524	-29.232	-0.942	0.530
-73.509	-200.000	0.144	-0.902
-72.494	69.573	-0.046	0.046
-71.480	-56.657	-0.389	0.169
-70.465	38.558	0.431	0.377
-69.451	142.194	-0.286	0.373
-68.436	-167.454	0.271	0.011
-67.422	-200.000	-0.193	-0.865
-66.407	-200.000	-0.069	-0.453
-65.392	45.469	0.645	0.585
-64.378	-200.000	0.110	-0.541
-63.363	70.932	-0.133	-0.136
-62.349	-200.000	0.002	-0.064
-61.334	25.638	-0.665	-0.543
-60.319	-83.304	0.208	0.066
-59.305	-200.000	0.159	-0.700
-58.290	-113.927	0.946	0.180
-57.276	800.000	0.390	1.594
-56.261	-200.000	98.860	607.558
-55.246	615.010	1383.605	3403.788
-54.232	197.991	2560.444	3841.311
-53.217	111.077	2249.102	2658.812
-52.203	41.034	1878.336	1664.918
-51.188	34.771	1672.984	1435.962
-50.173	32.201	1628.899	1379.237
-49.159	51.101	1680.218	1563.979
-48.144	51.467	1696.493	1581.789
-47.130	34.258	1655.896	1417.255
-46.115	31.603	1641.204	1385.008
-45.100	31.772	1635.933	1381.753
-44.086	31.578	1633.649	1378.341
-43.071	31.187	1631.432	1373.539
-42.057	31.417	1628.679	1372.858
-41.042	31.338	1627.199	1370.971
-40.027	31.433	1625.064	1369.816
-39.013	31.389	1623.019	1367.719
-37.998	31.440	1621.488	1366.746
-36.984	31.509	1620.008	1365.947
-35.969	31.538	1618.586	1364.905
-34.954	31.610	1617.472	1364.438
-33.940	31.506	1616.399	1362.720
-32.925	31.461	1614.303	1360.575
-31.911	31.589	1611.865	1359.393
-30.896	31.479	1609.209	1356.304
-29.881	31.875	1608.298	1358.348
-28.867	31.453	1606.664	1353.861
-27.852	31.631	1605.124	1353.796
-26.838	31.374	1604.045	1350.977
-25.823	31.518	1603.196	1351.248
-24.809	31.401	1601.199	1348.663
-23.794	31.611	1599.776	1348.926
-22.779	31.544	1599.295	1347.982
-21.765	31.645	1597.085	1346.798
-20.750	31.527	1595.070	1344.195
-19.736	31.480	1594.368	1343.213
-18.721	31.660	1592.017	1342.467
-17.706	31.609	1590.619	1340.868
-16.692	31.628	1589.326	1339.861
-15.677	31.651	1588.094	1338.937
-14.663	31.881	1586.630	1339.289
-13.648	31.588	1586.205	1336.789
-12.633	31.613	1584.622	1335.582
-11.619	31.734	1581.988	1334.168
-10.604	31.588	1580.787	1332.065
-9.590	31.657	1579.906	1331.762
-8.575	31.816	1577.513	1330.820
-7.560	31.451	1577.837	1328.443
-6.546	31.487	1576.979	1327.928
-5.531	31.420	1576.096	1326.655
-4.517	31.241	1575.147	1324.537
-3.502	31.798	1572.583	1326.269
-2.487	31.682	1571.576	1324.546
-1.473	31.406	1559.083	1312.030
-0.458	28.326	1541.033	1275.380
0.556	26.185	1541.813	1244.594
1.571	23.855	1564.238	1246.268
2.586	23.106	1576.821	1250.884
3.600	20.401	1524.799	1190.989
4.615	12.060	1417.529	1053.701
5.629	4.648	1354.674	961.219
6.644	3.178	1346.819	946.522
7.659	3.245	1344.549	945.254
8.673	3.417	1343.384	945.407
9.688	3.440	1341.144	943.889
10.702	3.291	1338.516	941.047
11.717	6.658	1344.478	965.789
12.731	15.439	1361.335	1032.024
13.746	22.759	1373.025	1086.020
14.761	24.462	1375.439	1098.323
15.775	24.085	1373.911	1094.685
16.790	23.811	1372.171	1091.525
17.804	23.575	1370.657	1088.775
18.819	23.475	1369.695	1087.300
19.834	23.319	1369.070	1085.749
20.848	23.542	1368.531	1086.596
21.863	23.391	1367.546	1084.788
22.877	23.240	1367.243	1083.530
23.892	23.246	1365.931	1082.429
24.907	23.126	1364.944	1080.818
25.921	23.250	1364.295	1080.965
26.936	23.210	1364.143	1080.506
27.950	23.265	1362.598	1079.524
28.965	23.349	1361.781	1079.294
29.980	23.358	1360.636	1078.347
30.994	23.289	1360.187	1077.471
32.009	23.518	1359.395	1078.141
33.023	23.307	1359.127	1076.550
34.038	23.277	1355.995	1073.793
35.053	23.325	1355.921	1073.932
36.067	23.404	1354.555	1073.235
37.082	23.436	1353.247	1072.297
38.096	23.429	1352.648	1071.684
39.111	23.490	1351.588	1071.116
40.126	23.491	1351.396	1070.877
41.140	23.093	1350.075	1067.331
42.155	23.023	1349.506	1066.367
43.169	22.909	1348.424	1064.732
44.184	23.020	1347.977	1064.953
45.199	22.789	1349.446	1064.624
46.213	22.946	1348.511	1064.739
47.228	23.471	1347.774	1067.223
48.242	23.465	1345.855	1065.576
49.257	23.041	1346.443	1063.395
50.271	23.276	1344.007	1062.787
51.286	23.426	1341.902	1061.929
52.301	23.315	1341.423	1060.794
53.315	23.330	1340.417	1059.992
54.330	23.111	1338.825	1057.331
55.344	23.022	1338.847	1056.720
56.359	23.144	1336.471	1055.481
57.374	22.914	1335.936	1053.595
58.388	22.820	1335.733	1052.777
59.403	23.037	1335.591	1053.870
60.417	22.750	1334.877	1051.503
61.432	22.896	1333.442	1051.145
62.447	22.725	1332.725	1049.471
63.461	22.855	1330.679	1048.538
64.476	22.542	1330.882	1046.748
65.490	22.609	1330.043	1046.390
66.505	22.748	1327.932	1045.465
67.520	22.691	1326.779	1044.127
68.534	22.679	1325.905	1043.273
69.549	22.642	1324.983	1042.239
70.563	22.540	1323.034	1040.009
71.578	22.612	1322.834	1040.188
72.593	22.350	1321.849	1037.778
73.607	22.289	1321.217	1036.825
74.622	22.378	1320.553	1036.741
75.636	22.590	1319.650	1037.187
76.651	22.643	1319.171	1037.027
77.666	22.586	1318.859	1036.355
78.680	22.717	1318.180	1036.500
79.695	22.677	1317.777	1035.856
80.709	22.766	1317.050	1035.717
81.724	22.869	1316.579	1035.857
82.739	22.985	1315.487	1035.587
83.753	23.232	1314.242	1035.963
84.768	23.506	1314.170	1037.420
85.782	23.583	1313.353	1037.131
86.797	23.719	1311.570	1036.426
87.812	23.529	1310.822	1034.631
88.826	23.394	1311.306	1034.137
89.841	23.453	1309.016	1032.582
90.855	23.480	1308.541	1032.272
91.870	23.749	1307.743	1033.119
92.884	23.587	1306.678	1031.242
93.899	23.597	1305.946	1030.629
94.914	23.514	1305.439	1029.659
95.928	23.664	1304.602	1029.780
96.943	23.618	1304.088	1029.017
97.957	23.552	1302.780	1027.507
98.972	23.572	1302.151	1027.035
99.987	23.701	1300.867	1026.682
101.001	23.407	1300.358	1024.489
102.016	23.518	1299.445	1024.321
103.030	23.331	1299.015	1022.811
104.045	23.433	1297.422	1022.053
105.060	23.136	1296.228	1019.313
106.074	23.082	1295.041	1017.976
107.089	22.693	1293.972	1014.806
108.103	22.723	1291.924	1013.287
109.118	22.639	1291.324	1012.243
110.133	22.649	1289.748	1010.976
111.147	22.450	1287.667	1008.114
112.162	22.421	1288.615	1008.605
113.176	22.982	1286.419	1010.004
114.191	22.868	1285.507	1008.544
115.206	22.950	1285.354	1008.807
116.220	22.929	1282.727	1006.534
117.235	22.987	1281.676	1005.950
118.249	22.619	1281.912	1003.952
119.264	22.530	1281.114	1002.730
120.279	22.580	1279.209	1001.437
121.293	22.584	1278.728	1000.992
122.308	22.501	1277.664	999.600
123.322	22.316	1276.609	997.635
124.337	21.985	1276.220	995.369
125.352	22.315	1274.579	995.871
126.366	22.245	1273.480	994.524
127.381	22.400	1273.096	995.012
128.395	22.012	1272.795	992.496
129.410	22.517	1269.910	993.009
130.424	22.179	1270.216	991.254
131.439	22.235	1270.083	991.377
132.454	22.681	1268.949	992.919
133.468	22.690	1268.488	992.518
134.483	22.791	1267.066	991.883
135.497	22.635	1267.451	991.223
136.512	22.706	1265.766	990.213
137.527	22.742	1264.249	989.141
138.541	22.937	1263.403	989.485
139.556	22.808	1263.179	988.499
140.570	23.003	1262.861	989.258
141.585	23.085	1261.774	988.772
142.600	23.310	1260.581	989.008
143.614	23.355	1260.125	988.814
144.629	23.441	1259.115	988.417
145.643	23.404	1257.834	987.118
146.658	23.290	1256.682	985.491
147.673	22.964	1254.907	982.199
148.687	22.981	1253.912	981.428
149.702	23.025	1252.152	980.209
150.716	22.708	1250.541	977.104
151.731	22.897	1248.573	976.528
152.746	22.628	1249.221	975.456
153.760	22.851	1247.617	975.352
154.775	23.065	1247.801	976.588
155.789	23.031	1247.577	976.139
156.804	22.908	1245.950	974.103
157.819	22.875	1245.892	973.790
158.833	23.279	1244.118	974.542
159.848	23.123	1245.010	974.293
160.862	23.322	1243.301	973.967
161.877	23.139	1241.367	971.357
162.892	22.698	1240.266	967.989
163.906	22.639	1239.526	967.002
164.921	22.696	1237.421	965.591
165.935	22.745	1237.802	966.070
166.950	22.911	1236.817	966.121
167.964	23.165	1235.979	966.771
168.979	22.876	1235.775	964.949
169.994	22.697	1236.710	964.615
171.008	22.736	1234.489	963.007
172.023	22.933	1233.319	963.082
173.037	22.991	1233.471	963.435
174.052	23.317	1232.287	964.199
175.067	22.780	1231.118	960.279
176.081	22.671	1229.155	958.068
177.096	22.791	1229.239	958.704
178.110	22.645	1228.500	957.246
179.125	22.530	1227.577	955.822
180.140	22.839	1227.319	957.209
181.154	23.542	1224.977	959.100
182.169	23.080	1225.662	957.055
183.183	23.067	1224.270	955.810
184.198	23.340	1222.261	955.632
185.213	23.244	1221.837	954.697
186.227	23.385	1220.486	954.319
187.242	23.353	1220.021	953.699
188.256	23.563	1218.317	953.410
189.271	23.500	1217.856	952.623
190.286	23.388	1216.932	951.220
191.300	23.068	1215.645	948.411
192.315	22.808	1215.474	946.799
193.329	22.778	1215.362	946.468
194.344	23.027	1214.108	946.738
195.359	22.625	1213.618	944.125
196.373	22.505	1213.183	943.057
197.388	22.587	1213.186	943.419
198.402	23.292	1211.793	946.016
199.417	23.471	1212.839	947.706
200.432	23.709	1211.876	948.143
201.446	23.605	1211.316	947.064
202.461	23.432	1211.014	945.820
203.475	23.501	1209.924	945.251
204.490	23.259	1207.213	941.768
205.504	23.333	1205.686	940.884
206.519	23.158	1204.939	939.289
207.534	22.921	1203.816	937.071
208.548	22.787	1203.913	936.353
209.563	22.690	1203.176	935.183
210.577	22.497	1202.505	933.557
211.592	23.009	1201.206	935.174
212.607	23.429	1200.439	936.716
213.621	23.432	1200.325	936.560
214.636	23.245	1199.652	934.964
215.650	23.462	1197.158	934.084
216.665	23.361	1197.232	933.526
217.680	23.652	1196.199	934.169
218.694	23.817	1195.200	934.176
219.709	23.458	1195.277	932.261
220.723	23.208	1195.275	930.862
221.738	23.202	1193.749	929.560
222.753	23.254	1192.742	928.967
223.767	23.185	1191.610	927.641
224.782	23.513	1191.529	929.218
225.796	23.485	1192.131	929.459
226.811	23.479	1191.119	928.553
227.826	23.547	1189.200	927.333
228.840	23.520	1188.602	926.643
229.855	23.102	1187.933	923.855
230.869	23.314	1186.640	923.875
231.884	23.223	1186.231	923.001
232.899	22.914	1184.791	920.188
233.913	22.766	1184.558	919.153
234.928	23.393	1184.047	921.941
235.942	22.876	1184.090	919.201
236.957	22.789	1182.711	917.600
237.972	22.683	1181.580	916.088
238.986	22.725	1181.285	915.996
240.001	22.972	1180.431	916.532
241.015	22.966	1179.266	915.516
242.030	23.029	1179.340	915.821
243.045	23.058	1178.810	915.481
244.059	23.046	1177.682	914.458
245.074	23.378	1176.717	915.345
246.088	23.442	1176.781	915.647
247.103	23.231	1176.517	914.269
248.117	23.679	1175.019	915.331
249.132	23.899	1175.439	916.712
250.147	24.059	1174.277	916.551
251.161	24.116	1174.719	917.108
252.176	24.284	1174.303	917.568
253.190	24.114	1172.717	915.369
254.205	24.340	1172.846	916.551
255.220	24.256	1172.723	915.945
256.234	24.286	1171.493	915.058
257.249	24.248	1171.422	914.726
258.263	24.071	1170.640	913.125
259.278	24.194	1169.218	912.565
260.293	24.460	1167.011	912.124
261.307	24.422	1168.061	912.668
262.322	24.345	1168.071	912.202
263.336	24.050	1167.644	910.275
264.351	24.357	1165.941	910.439
265.366	24.231	1165.468	909.347
266.380	24.310	1165.572	909.747
267.395	24.397	1164.279	909.100
268.409	23.912	1163.985	906.322
269.424	24.112	1162.362	905.997
270.439	24.005	1162.363	905.370
271.453	24.166	1160.950	905.009
272.468	24.013	1159.800	903.255
273.482	23.730	1158.719	900.897
274.497	23.735	1158.938	901.015
275.512	23.764	1158.384	900.648
276.526	23.655	1157.533	899.356
277.541	23.845	1156.501	899.438
278.555	24.126	1156.428	900.722
279.570	24.222	1155.746	900.598
280.585	24.269	1155.408	900.488
281.599	24.283	1154.343	899.654
282.614	23.802	1154.025	896.898
283.628	23.882	1151.426	895.201
284.643	24.006	1151.289	895.638
285.657	23.992	1149.448	894.056
286.672	23.969	1148.860	893.407
287.687	23.913	1148.689	892.912
288.701	23.830	1148.172	892.013
289.716	23.838	1147.315	891.309
290.730	24.073	1145.826	891.252
291.745	24.051	1145.251	890.614
292.760	24.068	1144.882	890.332
293.774	23.947	1145.104	889.825
294.789	24.546	1144.146	891.991
295.803	24.212	1144.027	890.152
296.818	24.133	1142.213	888.266
297.833	24.025	1140.920	886.646
298.847	23.834	1141.324	885.932
299.862	23.995	1140.116	885.713
300.876	23.927	1140.071	885.265
301.891	23.978	1139.876	885.289
302.906	24.353	1138.253	885.811
303.920	24.498	1138.922	886.976
304.935	24.658	1137.564	886.631
305.949	24.787	1137.588	887.211
306.964	24.408	1137.433	885.135
307.979	24.463	1135.221	883.604
308.993	24.423	1135.238	883.344
310.008	24.669	1134.136	883.624
311.022	24.520	1133.909	882.630
312.037	24.555	1132.653	881.750
313.052	24.227	1131.992	879.540
314.066	24.038	1130.630	877.468
315.081	23.684	1128.843	874.263
316.095	23.739	1128.293	874.031
317.110	23.809	1127.590	873.750
318.125	23.826	1127.066	873.354
319.139	23.531	1127.399	872.081
320.154	23.745	1127.143	872.858
321.168	23.810	1125.380	871.738
322.183	23.902	1124.773	871.639
323.197	23.831	1124.643	871.113
324.212	24.141	1123.366	871.565
325.227	23.902	1123.037	870.061
326.241	23.935	1122.568	869.784
327.256	23.944	1121.709	869.087
328.270	23.880	1120.852	868.033
329.285	23.710	1119.379	865.987
330.300	23.980	1118.385	866.454
331.314	24.187	1117.234	866.495
332.329	23.848	1117.408	864.902
333.343	23.981	1116.242	864.568
334.358	24.049	1116.173	864.771
335.373	24.430	1115.396	865.939
336.387	24.493	1114.799	865.707
337.402	24.536	1114.178	865.354
338.416	24.343	1113.724	863.994
339.431	24.256	1113.523	863.341
340.446	24.518	1113.572	864.567
341.460	24.991	1111.863	865.451
342.475	25.339	1111.226	866.556
343.489	25.287	1110.258	865.476
344.504	24.930	1110.067	863.530
345.519	25.032	1109.760	863.705
346.533	25.137	1108.878	863.450
347.548	25.131	1107.676	862.405
348.562	24.892	1107.076	860.716
349.577	24.591	1105.826	858.219
350.592	24.537	1104.833	857.116
351.606	24.507	1103.510	855.870
352.621	24.116	1103.321	853.771
353.635	24.018	1102.316	852.448
354.650	23.992	1102.182	852.145
355.665	24.242	1100.149	851.693
356.679	24.311	1100.507	852.225
357.694	24.258	1100.939	852.231
358.708	24.447	1100.065	852.381
359.723	24.656	1099.389	852.782
360.738	24.609	1098.468	851.766
361.752	24.751	1097.522	851.634
362.767	24.799	1096.996	851.380
363.781	24.825	1096.606	851.124
364.796	25.032	1095.740	851.360
365.810	25.132	1095.140	851.296
366.825	25.305	1095.670	852.451
367.840	25.228	1095.660	852.004
368.854	25.414	1094.968	852.274
369.869	25.335	1093.440	850.632
370.883	25.239	1092.794	849.603
371.898	24.964	1091.536	847.247
372.913	25.066	1091.326	847.493
373.927	24.732	1090.622	845.293
374.942	25.382	1090.599	848.272
375.956	25.234	1090.094	847.105
376.971	24.930	1090.483	845.895
377.986	25.143	1088.910	845.606
379.000	25.276	1089.278	846.441
380.015	25.472	1088.342	846.564
381.029	25.470	1087.478	845.806
382.044	25.444	1086.105	844.541
383.059	25.823	1085.499	845.778
384.073	25.470	1083.762	842.696
385.088	25.437	1083.895	842.569
386.102	25.450	1082.547	841.508
387.117	25.020	1081.703	838.765
388.132	24.860	1080.857	837.287
389.146	24.822	1079.795	836.212
390.161	24.656	1079.007	834.752
391.175	24.472	1079.978	834.566
392.190	24.836	1078.653	835.167
393.205	25.325	1077.632	836.583
394.219	25.131	1076.848	834.997
395.234	25.030	1075.707	833.571
396.248	24.873	1073.370	830.956
397.263	24.955	1072.444	830.546
398.278	24.711	1072.986	829.758
399.292	24.627	1073.071	829.363
400.307	24.726	1071.264	828.353
401.321	24.868	1070.530	828.369
402.336	24.614	1070.541	827.129
403.350	24.489	1069.928	826.005
404.365	25.025	1068.282	827.135
405.380	25.035	1067.586	826.569
406.394	24.737	1068.472	825.805
407.409	25.079	1067.808	826.796
408.423	25.478	1066.816	827.791
409.438	25.405	1066.930	827.474
410.453	25.418	1066.192	826.885
411.467	25.571	1064.792	826.431
412.482	25.562	1064.738	826.275
413.496	25.486	1064.311	825.522
414.511	25.812	1063.350	826.196
415.526	25.637	1063.046	825.086
416.540	26.230	1062.215	827.084
417.555	25.719	1061.692	824.264
418.569	25.750	1060.791	823.632
419.584	25.624	1060.426	822.700
420.599	25.431	1060.370	821.704
421.613	154.184	1403.772	1794.644
422.628	141.724	1453.743	1794.674
