DTS Sentinel unit serial number:	SN413079Multiplexer serial number:	ORYXHardware model number:	OX4-SRSoftware version number:	ORYX F/W v4.00 Oryx Data Collector v3.7.2.0data status	okinstallation	princeton_trtdifferential loss correction	single-endedforward channel	channel 2reverse channel	N/Adate	2019/09/14time	23:23:35forward acquisition time	60.00reverse acquisition time	0.00gamma	496.2192k internal	0.2324k external	0.2324temperature offset calibration	1.0050default loss term (dB/km)	0.3790temperature slope calibration	1.0000multiplexer offset coefficient	1.0000multiplexer slope coefficient	1.0000fibre end	0.00T internal ref (°C)	32.37T ext. ref 1 (°C)	4.64T ext. ref 2 (°C)	27.41length (m)	temperature (°C)	Stokes	anti-Stokes-747.200	-80.069	0.114	-0.039
-746.185	287.708	-0.142	0.259
-745.171	-155.331	0.121	-0.008
-744.156	-200.000	-0.015	0.501
-743.142	-200.000	-0.043	0.211
-742.127	-160.125	-0.145	0.008
-741.112	-55.446	0.103	0.047
-740.098	800.000	-0.069	-0.258
-739.083	-61.445	-0.253	-0.107
-738.069	294.711	-0.030	-0.054
-737.054	-159.396	0.162	-0.009
-736.039	158.648	-0.216	0.303
-735.025	-200.000	0.042	-0.263
-734.010	-51.811	-0.338	-0.159
-732.996	769.086	-0.072	-0.196
-731.981	-200.000	-0.044	-0.309
-730.966	103.668	0.074	0.088
-729.952	89.374	-0.053	0.060
-728.937	-133.304	0.223	0.028
-727.923	-24.640	-0.422	-0.253
-726.908	-15.522	-0.220	0.142
-725.894	-73.088	-0.081	0.030
-724.879	-167.972	0.069	0.003
-723.864	800.000	-0.161	-0.466
-722.850	800.000	-0.134	-0.450
-721.835	512.906	0.125	0.295
-720.821	-200.000	-0.017	-0.119
-719.806	-120.086	0.102	-0.018
-718.791	46.708	-0.126	0.118
-717.777	-28.885	-0.186	0.108
-716.762	86.441	-0.228	-0.253
-715.748	-133.404	0.251	0.032
-714.733	-200.000	-0.015	-0.077
-713.718	370.439	0.108	0.221
-712.704	-1.316	-0.189	-0.135
-711.689	78.220	-0.075	-0.080
-710.675	-138.370	-0.434	0.048
-709.660	433.717	-0.038	0.083
-708.645	279.971	-0.124	0.223
-707.631	-200.000	-0.022	0.266
-706.616	800.000	-0.071	-0.252
-705.602	148.014	-0.039	0.054
-704.587	800.000	0.016	-0.055
-703.572	-12.902	-0.131	0.086
-702.558	93.346	-0.088	0.100
-701.543	-112.949	0.241	0.048
-700.529	7.944	-0.181	0.137
-699.514	800.000	0.057	-0.183
-698.499	800.000	-0.043	-0.172
-697.485	800.000	0.118	-0.330
-696.470	-19.659	-0.160	-0.100
-695.456	439.560	-0.065	-0.142
-694.441	183.996	0.107	-0.159
-693.426	-144.718	-0.281	-0.026
-692.412	423.005	-0.031	-0.067
-691.397	206.982	0.181	0.284
-690.383	-98.526	-0.329	0.085
-689.368	399.754	0.108	-0.229
-688.354	-45.003	-0.233	0.117
-687.339	-160.515	-0.261	0.014
-686.324	-118.877	0.077	-0.014
-685.310	-52.401	0.194	0.090
-684.295	279.711	-0.158	0.285
-683.281	-31.453	0.361	-0.204
-682.266	48.237	-0.136	0.128
-681.251	17.505	-0.058	-0.047
-680.237	-120.044	0.210	0.036
-679.222	800.000	0.030	-0.114
-678.208	-60.734	0.376	-0.160
-677.193	-126.240	-0.353	-0.053
-676.178	36.208	0.084	0.075
-675.164	-90.130	0.441	0.129
-674.149	-137.958	-0.246	-0.028
-673.135	800.000	0.038	-0.165
-672.120	-50.668	-0.146	-0.069
-671.105	-200.000	-0.002	-0.409
-670.091	-58.003	0.248	-0.109
-669.076	-56.486	0.259	0.115
-668.062	258.649	-0.207	-0.359
-667.047	-96.973	0.316	-0.083
-666.032	254.041	0.088	-0.152
-665.018	496.213	0.133	-0.307
-664.003	8.961	0.237	-0.180
-662.989	118.970	0.076	-0.095
-661.974	-162.924	0.084	-0.004
-660.959	-140.603	-0.255	0.027
-659.945	-200.000	0.025	-0.330
-658.930	-56.536	-0.352	0.157
-657.916	55.912	-0.061	0.059
-656.901	-200.000	-0.047	0.448
-655.886	-66.464	0.290	-0.116
-654.872	-200.000	-0.423	0.002
-653.857	-45.795	0.061	-0.030
-652.843	231.051	0.214	-0.353
-651.828	-101.576	-0.291	-0.071
-650.814	-99.603	0.163	-0.041
-649.799	-42.807	0.189	-0.097
-648.784	-127.833	-0.218	-0.032
-647.770	-108.540	0.231	-0.050
-646.755	5.220	0.267	-0.198
-645.741	-172.965	0.183	0.006
-644.726	-163.767	0.260	0.012
-643.711	-189.655	-0.146	0.002
-642.697	19.694	0.212	0.171
-641.682	88.279	-0.261	-0.291
-640.668	-67.342	0.264	-0.104
-639.653	-200.000	0.043	-0.285
-638.638	-67.977	-0.148	0.058
-637.624	-7.434	-0.345	-0.235
-636.609	-127.432	-0.068	0.010
-635.595	-200.000	0.023	-0.118
-634.580	-141.485	0.173	-0.018
-633.565	-100.755	-0.277	0.069
-632.551	-126.937	0.342	-0.051
-631.536	209.181	-0.183	-0.289
-630.522	-117.374	0.281	0.051
-629.507	241.065	-0.129	0.217
-628.492	-95.753	0.123	-0.033
-627.478	-70.750	0.415	0.158
-626.463	-78.782	-0.372	-0.127
-625.449	34.751	-0.157	-0.138
-624.434	800.000	0.091	0.285
-623.419	-200.000	0.016	0.253
-622.405	362.880	-0.131	0.265
-621.390	-99.789	-0.399	0.100
-620.376	114.438	0.066	0.081
-619.361	-200.000	0.027	0.123
-618.346	-119.941	-0.288	0.050
-617.332	-81.009	-0.178	-0.059
-616.317	-96.006	-0.377	-0.101
-615.303	-200.000	-0.015	0.079
-614.288	18.997	0.314	0.253
-613.273	21.742	-0.132	0.108
-612.259	25.133	-0.256	0.214
-611.244	-110.548	-0.368	-0.077
-610.230	-200.000	-0.003	0.032
-609.215	354.292	0.149	-0.297
-608.201	222.216	-0.096	-0.156
-607.186	-200.000	0.008	0.085
-606.171	185.509	-0.107	0.160
-605.157	-200.000	-0.016	0.380
-604.142	4.342	0.381	0.281
-603.128	-200.000	-0.002	-0.125
-602.113	-89.241	0.425	0.126
-601.098	-63.092	0.069	0.029
-600.084	-31.564	-0.200	0.113
-599.069	-47.040	-0.148	-0.073
-598.055	357.354	0.102	-0.203
-597.040	535.790	-0.057	0.135
-596.025	-111.010	-0.075	0.015
-595.011	-200.000	0.006	0.329
-593.996	263.919	0.134	0.234
-592.982	-119.318	0.076	0.013
-591.967	209.269	-0.079	-0.124
-590.952	667.878	-0.122	-0.316
-589.938	276.307	0.157	-0.280
-588.923	-54.020	-0.182	-0.083
-587.909	69.568	-0.034	0.035
-586.894	-31.285	-0.270	-0.153
-585.879	-82.957	0.233	-0.075
-584.865	28.395	-0.076	0.064
-583.850	-102.977	0.015	-0.003
-582.836	-200.000	0.028	-0.373
-581.821	800.000	0.062	-0.245
-580.806	172.506	0.145	-0.210
-579.792	-200.000	0.075	-0.333
-578.777	-200.000	-0.024	-0.172
-577.763	-200.000	0.077	0.362
-576.748	-27.625	0.177	0.103
-575.733	-27.067	-0.082	0.048
-574.719	-44.305	-0.292	-0.147
-573.704	-87.977	-0.525	-0.158
-572.690	-183.664	0.358	0.006
-571.675	131.225	-0.020	-0.025
-570.661	-81.196	0.292	0.097
-569.646	91.824	0.183	0.206
-568.631	-116.043	0.286	0.053
-567.617	-138.275	-0.382	0.042
-566.602	800.000	-0.037	-0.111
-565.588	-200.000	-0.019	0.158
-564.573	-82.486	-0.075	0.025
-563.558	-153.471	0.233	-0.016
-562.544	124.396	-0.183	0.230
-561.529	760.164	0.093	-0.251
-560.515	-187.378	0.150	-0.002
-559.500	-200.000	0.012	-0.337
-558.485	-200.000	0.016	-0.422
-557.471	226.009	0.032	-0.052
-556.456	-95.084	0.081	0.022
-555.442	-40.703	0.194	0.100
-554.427	-200.000	0.018	-0.115
-553.412	106.578	-0.102	0.121
-552.398	461.419	-0.026	-0.058
-551.383	-34.837	-0.230	-0.126
-550.369	-21.745	0.201	-0.122
-549.354	-144.291	-0.086	-0.008
-548.339	-80.916	-0.232	-0.077
-547.325	-100.402	-0.176	0.044
-546.310	-200.000	-0.002	0.349
-545.296	-32.763	-0.278	-0.155
-544.281	24.331	0.120	-0.099
-543.266	637.381	0.057	0.145
-542.252	496.771	0.138	-0.319
-541.237	427.698	-0.162	0.350
-540.223	800.000	-0.073	0.213
-539.208	112.483	-0.182	-0.221
-538.193	-131.852	0.294	-0.038
-537.179	282.523	0.118	0.212
-536.164	-200.000	0.006	-0.182
-535.150	-200.000	-0.018	0.081
-534.135	-9.604	0.257	-0.171
-533.121	-195.861	-0.173	-0.001
-532.106	48.408	-0.218	0.204
-531.091	-85.530	0.134	0.042
-530.077	292.874	0.123	-0.225
-529.062	70.823	0.259	0.268
-528.048	-83.987	-0.040	0.013
-527.033	256.331	-0.025	0.043
-526.018	-200.000	-0.036	0.181
-525.004	26.510	-0.284	0.238
-523.989	-170.143	-0.178	-0.006
-522.975	360.743	0.110	-0.221
-521.960	-200.000	0.017	-0.111
-520.945	800.000	-0.061	-0.168
-519.931	-126.022	-0.117	0.018
-518.916	93.540	0.177	-0.200
-517.902	-118.825	-0.311	-0.055
-516.887	60.519	0.173	-0.171
-515.872	-135.813	-0.149	-0.018
-514.858	256.195	0.100	0.171
-513.843	268.331	-0.051	-0.090
-512.829	-175.752	0.219	0.006
-511.814	109.144	0.090	-0.108
-510.799	-65.386	-0.240	0.096
-509.785	40.349	-0.095	0.085
-508.770	800.000	0.060	-0.188
-507.756	-77.753	-0.261	0.090
-506.741	800.000	-0.054	0.187
-505.726	-155.515	-0.277	-0.018
-504.712	-2.130	0.194	0.137
-503.697	6.058	-0.389	-0.288
-502.683	481.071	0.064	-0.145
-501.668	370.963	-0.042	0.084
-500.653	-91.189	-0.295	-0.085
-499.639	1.927	0.328	-0.237
-498.624	-200.000	0.026	0.125
-497.610	-172.475	0.386	0.012
-496.595	-55.662	0.113	-0.051
-495.581	-200.000	0.040	-0.346
-494.566	194.090	-0.231	0.350
-493.551	367.593	-0.364	0.735
-492.537	-104.843	-0.231	-0.053
-491.522	47.158	-0.172	-0.160
-490.508	-31.715	0.366	0.205
-489.493	-129.451	-0.129	-0.018
-488.478	172.083	0.078	0.112
-487.464	22.974	-0.053	0.043
-486.449	-138.286	0.113	-0.013
-485.435	-200.000	-0.015	0.334
-484.420	73.968	-0.109	0.115
-483.405	744.180	0.097	0.261
-482.391	-22.396	0.060	0.036
-481.376	312.940	0.053	-0.100
-480.362	-49.705	-0.124	0.059
-479.347	-200.000	-0.023	0.243
-478.332	59.434	-0.218	-0.215
-477.318	257.723	-0.219	0.377
-476.303	-200.000	-0.056	0.288
-475.289	800.000	0.051	0.205
-474.274	-140.893	-0.120	-0.012
-473.259	429.156	0.049	0.107
-472.245	138.497	0.157	-0.206
-471.230	-21.719	0.204	0.124
-470.216	137.665	0.200	0.262
-469.201	800.000	-0.041	0.142
-468.186	-54.497	-0.064	-0.029
-467.172	-18.627	0.173	-0.108
-466.157	-53.472	-0.224	-0.102
-465.143	-38.779	0.212	0.112
-464.128	-200.000	-0.037	0.211
-463.113	-153.000	0.131	0.009
-462.099	-195.184	-0.243	-0.002
-461.084	174.831	0.147	-0.212
-460.070	800.000	-0.074	0.283
-459.055	46.336	-0.284	-0.263
-458.040	285.851	-0.030	-0.054
-457.026	800.000	0.085	0.278
-456.011	-62.683	0.210	0.087
-454.997	-200.000	0.018	0.175
-453.982	-200.000	-0.019	0.270
-452.968	30.721	-0.118	0.101
-451.953	466.018	0.056	0.125
-450.938	800.000	0.009	-0.025
-449.924	-200.000	0.016	-0.315
-448.909	-84.337	0.229	0.072
-447.895	127.259	-0.342	-0.433
-446.880	-200.000	-0.036	0.458
-445.865	-65.139	-0.253	0.102
-444.851	-200.000	0.001	0.270
-443.836	80.460	-0.108	-0.116
-442.822	330.807	-0.069	-0.132
-441.807	72.044	-0.336	0.349
-440.792	518.577	-0.107	-0.250
-439.778	-200.000	0.012	0.336
-438.763	-48.559	-0.213	-0.102
-437.749	-22.602	-0.072	-0.043
-436.734	-2.173	-0.132	0.092
-435.719	562.739	-0.029	-0.069
-434.705	77.194	-0.163	0.173
-433.690	-114.817	-0.276	0.053
-432.676	-55.602	-0.114	-0.051
-431.661	503.277	-0.131	-0.302
-430.646	163.178	0.359	0.503
-429.632	44.325	-0.117	-0.107
-428.617	-78.407	0.269	-0.092
-427.603	-45.998	0.307	0.151
-426.588	166.423	0.037	0.052
-425.573	259.959	0.067	0.115
-424.559	138.938	0.079	-0.104
-423.544	-200.000	-0.006	-0.058
-422.530	-200.000	-0.005	-0.134
-421.515	-200.000	-0.009	-0.228
-420.500	-200.000	0.068	0.368
-419.486	-97.723	0.269	0.070
-418.471	-98.861	0.107	-0.027
-417.457	69.170	-0.109	-0.112
-416.442	-14.489	0.150	0.096
-415.428	-200.000	0.019	-0.147
-414.413	-200.000	0.027	0.245
-413.398	-52.691	-0.093	-0.043
-412.384	-86.453	0.132	-0.040
-411.369	-200.000	0.016	0.111
-410.355	244.120	-0.172	-0.287
-409.340	800.000	0.025	-0.075
-408.325	-155.474	-0.213	0.014
-407.311	580.527	0.105	-0.256
-406.296	-137.034	0.137	-0.016
-405.282	-200.000	0.041	-0.272
-404.267	-94.183	-0.243	-0.066
-403.252	-122.740	0.053	0.009
-402.238	800.000	-0.089	-0.247
-401.223	421.258	0.133	0.284
-400.209	39.700	0.170	0.152
-399.194	-152.360	-0.290	-0.021
-398.179	-64.310	-0.307	-0.124
-397.165	-110.678	0.382	-0.079
-396.150	168.174	-0.136	0.192
-395.136	-152.530	-0.228	0.016
-394.121	142.975	0.025	0.033
-393.106	-33.844	-0.170	0.093
-392.092	-106.459	-0.231	-0.051
-391.077	-99.139	-0.101	-0.025
-390.063	474.435	0.068	0.153
-389.048	-200.000	0.021	0.262
-388.033	-200.000	-0.024	0.429
-387.019	10.066	0.153	-0.115
-386.004	3.175	0.321	-0.232
-384.990	-163.699	-0.208	0.010
-383.975	4.218	-0.313	-0.228
-382.960	800.000	0.074	-0.310
-381.946	42.250	0.119	-0.108
-380.931	29.953	0.122	-0.103
-379.917	432.465	-0.099	-0.214
-378.902	138.381	0.068	-0.089
-377.888	-46.586	0.181	-0.088
-376.873	-76.784	0.210	-0.073
-375.858	-200.000	0.033	-0.160
-374.844	-200.000	0.011	-0.055
-373.829	348.838	-0.130	0.255
-372.815	-59.843	0.269	0.115
-371.800	-200.000	-0.026	0.202
-370.785	-2.288	-0.170	0.118
-369.771	-55.199	0.021	0.009
-368.756	0.554	-0.054	-0.039
-367.742	9.522	-0.301	0.227
-366.727	-107.624	0.332	0.072
-365.712	43.924	-0.167	-0.152
-364.698	231.063	-0.111	-0.181
-363.683	399.358	-0.058	0.121
-362.669	695.417	0.187	0.489
-361.654	-147.320	0.222	0.019
-360.639	133.558	-0.071	-0.091
-359.625	27.821	0.049	-0.041
-358.610	252.029	-0.146	0.247
-357.596	-140.714	0.135	-0.014
-356.581	-200.000	-0.018	0.231
-355.566	800.000	-0.070	0.298
-354.552	1.545	0.228	0.163
-353.537	-200.000	0.008	-0.053
-352.523	-200.000	0.020	0.162
-351.508	800.000	0.054	0.194
-350.493	-200.000	0.050	0.242
-349.479	-97.075	0.253	-0.066
-348.464	-127.080	-0.133	-0.019
-347.450	590.440	0.130	0.319
-346.435	136.837	-0.087	0.113
-345.420	665.868	0.104	-0.268
-344.406	-50.907	-0.268	-0.125
-343.391	-168.089	0.155	0.006
-342.377	-102.877	0.296	0.070
-341.362	-200.000	0.005	0.095
-340.348	-163.520	-0.053	0.002
-339.333	125.768	0.215	-0.269
-338.318	-63.051	0.194	0.080
-337.304	64.370	-0.256	-0.256
-336.289	-123.451	0.155	-0.025
-335.275	385.330	0.064	0.130
-334.260	-105.491	0.102	0.023
-333.245	-47.912	-0.197	-0.095
-332.231	286.173	-0.226	-0.406
-331.216	56.509	0.181	0.174
-330.202	0.878	-0.201	-0.143
-329.187	43.321	-0.302	-0.274
-328.172	-116.095	-0.100	-0.018
-327.158	-160.997	-0.123	0.006
-326.143	283.953	-0.074	0.133
-325.129	800.000	-0.099	0.338
-324.114	-200.000	0.013	-0.188
-323.099	-155.034	0.302	-0.020
-322.085	491.985	0.113	0.256
-321.070	800.000	0.178	0.538
-320.056	-5.571	0.121	0.082
-319.041	-0.318	0.352	-0.249
-318.026	-152.071	-0.155	-0.011
-317.012	-37.711	0.031	0.017
-315.997	-41.394	-0.269	-0.138
-314.983	-113.153	-0.091	0.018
-313.968	-156.301	0.261	0.016
-312.953	-200.000	-0.020	0.125
-311.939	-185.822	0.243	-0.004
-310.924	345.652	-0.111	0.217
-309.910	-34.645	-0.206	-0.112
-308.895	-123.461	-0.185	0.029
-307.880	674.788	0.051	-0.132
-306.866	243.147	0.060	0.100
-305.851	-177.828	0.133	-0.003
-304.837	-190.252	0.117	-0.001
-303.822	800.000	0.061	-0.192
-302.807	800.000	0.012	0.037
-301.793	-121.393	-0.245	0.040
-300.778	-19.643	-0.392	-0.241
-299.764	-14.571	0.187	-0.120
-298.749	-64.881	0.294	0.118
-297.735	697.277	0.058	-0.150
-296.720	4.956	0.136	-0.099
-295.705	74.760	0.203	-0.212
-294.691	694.827	0.106	0.276
-293.676	-200.000	-0.017	-0.163
-292.662	-5.738	0.218	-0.148
-291.647	723.437	0.050	-0.133
-290.632	-31.213	-0.086	-0.048
-289.618	254.025	-0.005	0.009
-288.603	106.171	0.193	0.226
-287.589	411.061	0.061	-0.127
-286.574	313.688	0.106	0.197
-285.559	-200.000	0.015	-0.088
-284.545	-200.000	0.028	-0.353
-283.530	-200.000	0.041	0.367
-282.516	-200.000	-0.018	0.133
-281.501	800.000	0.056	-0.188
-280.486	-43.015	-0.103	-0.052
-279.472	-200.000	0.048	-0.273
-278.457	125.911	-0.217	-0.272
-277.443	800.000	-0.110	0.351
-276.428	558.256	0.035	0.084
-275.413	800.000	0.016	0.055
-274.399	-84.572	-0.088	0.028
-273.384	-81.754	0.317	-0.103
-272.370	-200.000	0.044	-0.330
-271.355	-192.843	-0.450	-0.004
-270.340	78.552	-0.106	0.112
-269.326	323.762	-0.039	-0.074
-268.311	10.095	0.175	-0.132
-267.297	152.467	0.123	0.167
-266.282	-73.439	-0.211	0.076
-265.267	-102.438	0.211	-0.050
-264.253	20.189	0.179	-0.143
-263.238	-200.000	0.001	-0.364
-262.224	1.682	0.180	-0.128
-261.209	328.007	0.121	-0.230
-260.195	800.000	0.039	-0.136
-259.180	-116.599	-0.263	-0.048
-258.165	-200.000	0.023	-0.155
-257.151	-87.979	-0.136	-0.040
-256.136	601.406	-0.093	0.230
-255.122	55.926	0.044	-0.042
-254.107	-27.786	-0.106	-0.061
-253.092	0.447	-0.104	0.074
-252.078	51.624	0.057	0.053
-251.063	-81.697	0.216	0.070
-250.049	243.609	-0.120	0.199
-249.034	105.518	0.109	-0.128
-248.019	-9.078	-0.141	-0.094
-247.005	-9.393	-0.150	-0.099
-245.990	-200.000	-0.017	-0.076
-244.976	-55.576	-0.249	-0.111
-243.961	4.896	0.212	0.155
-242.946	29.547	-0.198	0.167
-241.932	-200.000	0.012	-0.105
-240.917	-20.813	0.181	0.110
-239.903	62.455	-0.129	0.128
-238.888	638.014	-0.106	0.266
-237.873	-104.513	0.371	0.085
-236.859	-146.896	-0.252	0.021
-235.844	23.997	-0.067	0.055
-234.830	74.042	-0.059	-0.061
-233.815	800.000	-0.075	0.228
-232.800	-5.901	0.137	0.093
-231.786	221.118	-0.142	-0.225
-230.771	-20.765	-0.190	-0.116
-229.757	57.158	0.150	0.145
-228.742	581.043	0.126	0.305
-227.727	-78.273	-0.077	0.026
-226.713	-50.462	0.184	-0.086
-225.698	167.762	-0.244	-0.343
-224.684	-76.613	0.230	-0.080
-223.669	-200.000	-0.027	-0.478
-222.655	-55.237	0.142	-0.063
-221.640	343.212	0.047	-0.091
-220.625	-200.000	-0.078	-0.428
-219.611	93.602	-0.092	-0.103
-218.596	-41.806	0.189	-0.096
-217.582	49.069	-0.144	0.134
-216.567	-77.040	-0.152	0.052
-215.552	87.401	-0.161	0.176
-214.538	359.983	0.092	0.182
-213.523	-200.000	-0.038	-0.230
-212.509	-25.906	0.121	-0.070
-211.494	531.997	-0.176	0.411
-210.479	-182.921	-0.073	0.001
-209.465	-78.938	0.270	0.091
-208.450	800.000	-0.083	-0.345
-207.436	653.842	-0.056	0.143
-206.421	-200.000	-0.034	-0.251
-205.406	-200.000	-0.055	-0.294
-204.392	94.131	0.173	0.194
-203.377	-31.622	0.121	0.067
-202.363	124.301	-0.184	-0.228
-201.348	-24.263	0.032	0.019
-200.333	800.000	0.071	-0.271
-199.319	-118.198	-0.077	-0.014
-198.304	-200.000	-0.061	0.302
-197.290	314.239	0.055	-0.102
-196.275	-157.136	-0.215	-0.013
-195.260	-3.752	0.063	0.043
-194.246	267.894	0.187	0.324
-193.231	-200.000	0.004	-0.249
-192.217	15.556	0.224	-0.174
-191.202	800.000	-0.034	-0.145
-190.187	-200.000	-0.000	-0.212
-189.173	-136.761	0.314	0.036
-188.158	86.132	0.168	-0.183
-187.144	-191.466	0.542	0.005
-186.129	-200.000	0.017	0.080
-185.114	-110.793	-0.322	0.066
-184.100	-200.000	-0.056	0.471
-183.085	-31.220	-0.166	0.092
-182.071	-56.357	0.313	-0.138
-181.056	450.767	0.186	-0.406
-180.042	38.315	0.093	-0.082
-179.027	-200.000	0.001	-0.066
-178.012	61.947	-0.338	0.332
-176.998	-80.295	0.060	-0.020
-175.983	431.970	-0.045	0.096
-174.969	184.097	-0.032	-0.047
-173.954	-111.093	0.020	-0.004
-172.939	-200.000	-0.008	0.203
-171.925	299.716	-0.133	0.242
-170.910	-36.303	0.123	-0.065
-169.896	-91.358	-0.230	0.065
-168.881	134.216	-0.071	0.091
-167.866	643.070	-0.163	-0.410
-166.852	-16.566	0.364	-0.228
-165.837	-80.692	-0.222	0.073
-164.823	14.986	0.104	0.080
-163.808	-62.808	0.040	-0.016
-162.793	6.000	-0.164	0.120
-161.779	152.196	0.083	-0.112
-160.764	-29.192	0.117	-0.066
-159.750	-127.789	0.146	-0.021
-158.735	-200.000	-0.065	-0.411
-157.720	-30.937	-0.272	-0.151
-156.706	-90.347	0.270	-0.077
-155.691	-200.000	-0.044	-0.229
-154.677	627.130	0.031	0.077
-153.662	-200.000	0.023	0.159
-152.647	-101.313	0.273	0.066
-151.633	-75.894	0.186	-0.065
-150.618	-38.730	0.255	0.132
-149.604	800.000	0.085	0.234
-148.589	-51.241	0.190	0.088
-147.574	130.229	0.292	-0.369
-146.560	-200.000	0.003	0.131
-145.545	150.088	0.078	-0.105
-144.531	-41.142	-0.132	-0.067
-143.516	9.684	-0.239	0.178
-142.502	-200.000	-0.007	-0.031
-141.487	282.910	0.218	0.386
-140.472	-90.791	0.222	-0.063
-139.458	173.389	0.115	-0.164
-138.443	53.317	-0.313	-0.296
-137.429	-43.584	-0.244	0.122
-136.414	32.665	-0.108	-0.092
-135.399	-120.952	0.162	-0.027
-134.385	280.843	-0.268	0.472
-133.370	800.000	-0.161	0.456
-132.356	-163.401	0.267	-0.013
-131.341	132.792	-0.160	0.204
-130.326	-67.937	-0.364	0.140
-129.312	429.527	0.106	0.226
-128.297	-91.385	-0.038	-0.011
-127.283	-200.000	0.039	-0.421
-126.268	167.890	-0.210	-0.294
-125.253	-59.189	-0.155	-0.066
-124.239	-63.800	0.168	-0.068
-123.224	30.940	-0.254	-0.214
-122.210	118.420	0.149	0.181
-121.195	-46.854	0.095	-0.046
-120.180	189.868	0.170	0.252
-119.166	8.107	-0.068	0.050
-118.151	-21.345	-0.041	0.024
-117.137	792.852	0.115	0.312
-116.122	77.114	0.117	-0.123
-115.107	-95.549	-0.027	-0.007
-114.093	-100.835	0.025	-0.006
-113.078	34.445	-0.227	0.195
-112.064	118.261	-0.109	-0.132
-111.049	44.071	-0.288	-0.260
-110.034	45.206	0.084	-0.076
-109.020	21.024	-0.307	0.246
-108.005	-101.879	0.205	0.049
-106.991	-101.524	-0.480	0.115
-105.976	26.960	0.246	0.203
-104.962	-172.090	0.470	0.015
-103.947	-42.391	-0.320	-0.161
-102.932	46.414	0.189	-0.172
-101.918	29.322	0.186	-0.155
-100.903	-147.663	-0.253	-0.021
-99.889	-29.809	-0.181	-0.102
-98.874	800.000	0.036	-0.133
-97.859	-166.997	0.101	0.004
-96.845	160.022	-0.054	0.074
-95.830	-84.570	0.297	-0.092
-94.816	1.886	-0.140	0.099
-93.801	-200.000	-0.188	-0.001
-92.786	211.478	-0.118	-0.183
-91.772	34.151	0.183	0.157
-90.757	800.000	0.089	0.292
-89.743	157.066	-0.209	-0.284
-88.728	61.516	0.088	-0.086
-87.713	-17.055	0.031	-0.019
-86.699	37.203	-0.256	-0.223
-85.684	-138.428	-0.065	0.007
-84.670	6.405	0.176	0.128
-83.655	303.386	-0.115	-0.210
-82.640	-200.000	0.024	-0.228
-81.626	-200.000	-0.008	-0.046
-80.611	-62.413	0.050	0.021
-79.597	39.613	0.156	-0.137
-78.582	51.861	-0.173	0.162
-77.567	-11.048	-0.138	0.089
-76.553	147.551	-0.070	0.092
-75.538	463.348	0.097	-0.214
-74.524	-32.853	0.175	-0.096
-73.509	800.000	-0.104	-0.314
-72.494	-200.000	-0.008	-0.069
-71.480	242.550	-0.187	0.308
-70.465	-172.417	0.262	-0.008
-69.451	-200.000	0.086	0.681
-68.436	-157.986	-0.084	0.005
-67.422	284.865	0.028	0.050
-66.407	-46.626	-0.345	0.166
-65.392	36.868	-0.066	0.057
-64.378	-10.836	-0.208	0.135
-63.363	77.198	0.201	0.210
-62.349	-56.645	-0.286	0.125
-61.334	56.735	-0.931	-0.891
-60.319	-64.527	0.678	0.271
-59.305	800.000	-0.431	-1.197
-58.290	240.308	0.572	0.936
-57.276	268.167	0.772	1.329
-56.261	-200.000	95.138	586.418
-55.246	663.083	1370.799	3473.964
-54.232	199.082	2550.994	3840.366
-53.217	114.290	2267.654	2712.366
-52.203	41.907	1895.939	1689.616
-51.188	35.615	1686.317	1455.277
-50.173	32.869	1642.324	1396.961
-49.159	50.364	1688.174	1567.507
-48.144	51.980	1704.519	1594.735
-47.130	35.245	1665.808	1434.584
-46.115	32.475	1651.174	1401.335
-45.100	32.390	1646.375	1396.580
-44.086	32.315	1643.740	1393.734
-43.071	32.350	1640.975	1391.588
-42.057	32.258	1638.878	1389.075
-41.042	32.273	1636.704	1387.289
-40.027	32.282	1635.163	1385.999
-39.013	32.241	1633.358	1384.111
-37.998	32.182	1631.917	1382.402
-36.984	32.293	1630.100	1381.623
-35.969	32.318	1628.892	1380.722
-34.954	32.305	1627.476	1379.376
-33.940	32.361	1625.150	1377.757
-32.925	32.329	1623.784	1376.310
-31.911	32.289	1622.155	1374.584
-30.896	32.415	1619.931	1373.567
-29.881	32.308	1618.840	1371.808
-28.867	32.342	1616.677	1370.168
-27.852	32.452	1615.285	1369.732
-26.838	32.398	1613.358	1367.650
-25.823	32.362	1612.494	1366.601
-24.809	32.333	1611.335	1365.359
-23.794	32.427	1609.519	1364.446
-22.779	32.343	1608.030	1362.521
-21.765	32.391	1606.766	1361.738
-20.750	32.356	1604.931	1359.878
-19.736	32.411	1603.887	1359.342
-18.721	32.547	1601.445	1358.198
-17.706	32.490	1600.346	1356.796
-16.692	32.451	1599.400	1355.659
-15.677	32.443	1597.539	1353.973
-14.663	32.449	1596.602	1353.169
-13.648	32.373	1595.176	1351.362
-12.633	32.357	1593.635	1349.887
-11.619	32.424	1591.776	1348.740
-10.604	32.471	1590.112	1347.609
-9.590	32.423	1589.409	1346.620
-8.575	32.353	1588.249	1345.080
-7.560	32.429	1587.006	1344.517
-6.546	32.479	1585.593	1343.625
-5.531	32.464	1584.043	1342.150
-4.517	32.440	1582.884	1340.949
-3.502	32.420	1581.997	1340.000
-2.487	32.554	1580.045	1339.244
-1.473	32.310	1568.261	1327.485
-0.458	29.487	1549.683	1291.977
0.556	25.557	1550.109	1260.302
1.571	23.262	1572.916	1262.392
2.586	22.720	1585.657	1268.602
3.600	20.107	1532.519	1207.802
4.615	12.225	1424.376	1071.220
5.629	5.649	1362.173	983.185
6.644	4.807	1353.813	971.810
7.659	4.586	1352.497	969.401
8.673	4.523	1351.669	968.330
9.688	4.645	1349.898	967.732
10.702	4.454	1347.200	964.530
11.717	7.371	1353.337	987.014
12.731	14.960	1366.356	1043.944
13.746	19.540	1373.161	1077.713
14.761	19.123	1371.603	1073.789
15.775	18.134	1368.627	1065.212
16.790	17.018	1366.127	1056.225
17.804	16.187	1363.877	1049.225
18.819	15.796	1362.724	1045.816
19.834	15.705	1361.161	1043.960
20.848	15.351	1359.837	1040.659
21.863	15.191	1358.502	1038.550
22.877	15.098	1357.107	1036.817
23.892	15.040	1356.314	1035.762
24.907	15.014	1356.082	1035.332
25.921	15.001	1355.026	1034.350
26.936	14.926	1354.470	1033.375
27.950	15.069	1353.104	1033.124
28.965	15.192	1351.918	1032.883
29.980	15.354	1350.494	1032.699
30.994	15.277	1349.940	1031.710
32.009	15.430	1348.656	1031.578
33.023	15.366	1347.378	1030.122
34.038	15.186	1346.283	1028.087
35.053	15.199	1344.613	1026.800
36.067	15.170	1343.538	1025.713
37.082	15.248	1342.539	1025.332
38.096	15.237	1341.945	1024.721
39.111	15.200	1341.562	1024.115
40.126	15.103	1340.357	1022.509
41.140	15.123	1339.137	1021.612
42.155	14.837	1339.262	1019.870
43.169	14.829	1339.088	1019.600
44.184	14.934	1338.272	1019.529
45.199	14.843	1337.916	1018.612
46.213	14.913	1337.682	1018.771
47.228	15.191	1336.533	1019.495
48.242	15.111	1335.125	1017.848
49.257	15.015	1334.249	1016.505
50.271	15.111	1332.595	1015.740
51.286	15.144	1330.518	1014.265
52.301	15.081	1330.112	1013.482
53.315	15.126	1328.993	1012.813
54.330	14.914	1327.790	1010.528
55.344	14.961	1326.434	1009.686
56.359	14.924	1325.702	1008.821
57.374	14.933	1324.561	1007.914
58.388	14.937	1324.048	1007.458
59.403	14.809	1323.582	1006.247
60.417	14.867	1322.893	1005.983
61.432	14.757	1322.083	1004.613
62.447	14.855	1320.854	1004.180
63.461	14.820	1319.539	1002.886
64.476	14.783	1318.784	1002.002
65.490	14.733	1317.922	1000.954
66.505	14.801	1315.591	999.506
67.520	14.765	1314.641	998.481
68.534	14.786	1313.589	997.714
69.549	14.879	1312.881	997.645
70.563	14.592	1312.270	995.380
71.578	14.684	1310.967	994.855
72.593	14.725	1309.554	993.934
73.607	14.651	1308.915	992.923
74.622	14.683	1308.502	992.713
75.636	14.659	1307.945	992.060
76.651	14.656	1307.155	991.354
77.666	14.650	1306.498	990.735
78.680	14.579	1306.295	990.067
79.695	14.705	1305.365	990.026
80.709	14.857	1304.653	990.295
81.724	14.873	1303.624	989.521
82.739	14.997	1302.286	989.156
83.753	14.988	1301.966	988.770
84.768	15.166	1300.691	988.766
85.782	15.265	1299.721	988.521
86.797	15.168	1298.473	986.918
87.812	15.145	1297.295	985.796
88.826	15.149	1296.159	984.870
89.841	15.087	1295.663	984.045
90.855	15.093	1294.390	983.026
91.870	15.164	1293.561	982.721
92.884	15.173	1292.606	981.965
93.899	15.294	1291.743	981.929
94.914	15.277	1291.126	981.274
95.928	15.216	1290.242	980.162
96.943	15.233	1289.386	979.519
97.957	15.139	1288.667	978.339
98.972	15.155	1287.233	977.256
99.987	15.160	1286.285	976.482
101.001	15.179	1285.598	975.983
102.016	15.279	1283.985	975.253
103.030	15.240	1283.238	974.372
104.045	15.235	1282.216	973.485
105.060	15.097	1281.458	972.017
106.074	14.982	1279.718	969.949
107.089	14.920	1278.205	968.358
108.103	14.846	1277.121	967.020
109.118	14.874	1276.003	966.249
110.133	14.812	1274.837	964.927
111.147	14.865	1272.997	963.753
112.162	14.933	1271.532	962.949
113.176	15.055	1270.799	963.010
114.191	15.012	1269.955	962.040
115.206	15.116	1268.803	961.676
116.220	14.992	1267.517	959.906
117.235	15.001	1266.573	959.157
118.249	14.965	1265.272	957.885
119.264	14.830	1264.928	956.764
120.279	14.752	1263.666	955.280
121.293	14.879	1262.194	954.810
122.308	14.922	1261.129	954.163
123.322	14.832	1260.290	952.929
124.337	14.824	1259.114	951.910
125.352	14.792	1258.353	951.070
126.366	14.816	1257.108	950.182
127.381	14.817	1256.110	949.348
128.395	14.861	1255.252	948.864
129.410	14.859	1254.003	947.829
130.424	14.914	1253.565	947.722
131.439	14.881	1252.565	946.696
132.454	14.982	1251.503	946.383
133.468	15.027	1250.410	945.728
134.483	15.027	1249.662	945.077
135.497	14.996	1248.869	944.219
136.512	14.975	1247.670	943.109
137.527	14.961	1246.871	942.341
138.541	14.970	1245.313	941.135
139.556	15.041	1243.907	940.388
140.570	15.209	1242.924	940.502
141.585	15.110	1241.787	939.003
142.600	15.261	1240.214	938.574
143.614	15.368	1239.443	938.508
144.629	15.251	1238.409	936.988
145.643	15.286	1237.475	936.394
146.658	15.262	1235.853	934.950
147.673	15.127	1234.517	933.108
148.687	15.036	1234.051	932.163
149.702	15.111	1232.124	931.040
150.716	15.061	1231.342	930.090
151.731	15.058	1229.816	928.840
152.746	15.040	1228.684	927.802
153.760	14.931	1228.051	926.637
154.775	15.072	1226.859	926.439
155.789	15.234	1225.478	926.207
156.804	15.212	1224.559	925.314
157.819	15.253	1223.492	924.650
158.833	15.369	1222.462	924.427
159.848	15.361	1222.345	924.213
160.862	15.300	1220.914	922.711
161.877	15.227	1219.378	921.072
162.892	15.083	1218.655	919.650
163.906	15.100	1217.517	918.806
164.921	15.156	1216.772	918.470
165.935	15.252	1215.892	918.250
166.950	15.257	1215.165	917.644
167.964	15.185	1214.607	916.747
168.979	15.311	1213.595	916.595
169.994	15.287	1212.891	915.847
171.008	15.304	1212.144	915.294
172.023	15.342	1211.650	915.052
173.037	15.467	1210.552	914.824
174.052	15.446	1209.983	914.196
175.067	15.232	1208.896	912.131
176.081	15.256	1207.875	911.410
177.096	15.130	1207.063	910.030
178.110	15.270	1205.627	909.628
179.125	15.371	1204.758	909.440
180.140	15.275	1203.787	908.105
181.154	15.377	1202.270	907.433
182.169	15.389	1201.466	906.808
183.183	15.426	1200.514	906.210
184.198	15.605	1198.642	905.685
185.213	15.548	1197.775	904.642
186.227	15.610	1196.933	904.259
187.242	15.558	1195.933	903.146
188.256	15.626	1194.863	902.622
189.271	15.626	1193.880	901.797
190.286	15.482	1192.921	900.225
191.300	15.229	1192.421	898.406
192.315	15.242	1191.202	897.480
193.329	15.168	1190.769	896.680
194.344	15.360	1189.700	896.822
195.359	15.365	1189.693	896.766
196.373	15.530	1188.824	896.911
197.388	15.543	1188.979	897.015
198.402	15.632	1188.473	897.032
199.417	15.714	1187.951	896.993
200.432	15.809	1186.980	896.691
201.446	15.916	1185.945	896.397
202.461	15.932	1185.178	895.823
203.475	15.914	1184.286	894.974
204.490	15.827	1182.875	893.365
205.504	15.806	1181.623	892.230
206.519	15.696	1180.591	890.791
207.534	15.714	1179.308	889.839
208.548	15.650	1178.756	889.002
209.563	15.821	1177.477	888.864
210.577	15.727	1177.173	888.058
211.592	15.758	1176.283	887.474
212.607	15.964	1175.327	887.758
213.621	16.010	1174.083	886.983
214.636	16.067	1172.828	886.259
215.650	15.862	1172.603	884.932
216.665	15.958	1171.541	884.554
217.680	16.031	1170.538	884.102
218.694	15.963	1170.266	883.461
219.709	16.092	1169.215	883.267
220.723	15.963	1168.549	882.012
221.738	15.993	1167.747	881.483
222.753	16.050	1166.887	881.056
223.767	16.015	1166.451	880.466
224.782	16.081	1165.804	880.244
225.796	16.168	1165.127	880.107
226.811	16.113	1164.644	879.375
227.826	16.093	1163.469	878.307
228.840	16.026	1163.160	877.647
229.855	15.973	1162.643	876.904
230.869	15.984	1161.363	875.917
231.884	15.946	1160.620	875.087
232.899	15.958	1159.566	874.276
233.913	16.005	1159.135	874.113
234.928	15.986	1158.371	873.363
235.942	15.870	1157.933	872.354
236.957	16.012	1156.974	872.290
237.972	15.841	1156.466	870.946
238.986	16.027	1154.997	870.726
240.001	15.995	1155.069	870.537
241.015	16.016	1153.946	869.722
242.030	16.105	1153.057	869.431
243.045	16.167	1152.361	869.152
244.059	16.205	1151.736	868.796
245.074	16.188	1150.828	867.947
246.088	16.301	1149.734	867.628
247.103	16.324	1149.500	867.493
248.117	16.362	1148.606	866.934
249.132	16.486	1147.598	866.731
250.147	16.540	1147.430	866.808
251.161	16.579	1146.808	866.462
252.176	16.481	1146.450	865.612
253.190	16.744	1145.079	865.843
254.205	16.723	1144.835	865.476
255.220	16.637	1144.666	864.834
256.234	16.725	1143.664	864.449
257.249	16.779	1143.005	864.150
258.263	16.623	1142.325	862.762
259.278	16.697	1141.384	862.353
260.293	16.797	1141.066	862.546
261.307	16.752	1140.794	862.032
262.322	16.793	1140.067	861.618
263.336	16.829	1139.044	860.949
264.351	16.835	1138.650	860.607
265.366	17.003	1137.762	860.713
266.380	16.873	1137.106	859.480
267.395	16.832	1136.438	858.690
268.409	16.904	1135.127	857.987
269.424	16.778	1135.001	857.180
270.439	16.731	1134.185	856.252
271.453	16.838	1133.371	856.102
272.468	16.773	1132.197	854.811
273.482	16.805	1131.555	854.412
274.497	16.837	1130.936	854.029
275.512	16.766	1130.571	853.320
276.526	16.708	1129.984	852.509
277.541	16.780	1128.468	851.653
278.555	16.844	1128.438	851.877
279.570	17.003	1127.297	851.740
280.585	17.120	1126.781	851.860
281.599	16.893	1126.042	850.090
282.614	16.910	1124.829	849.182
283.628	17.026	1123.586	848.751
284.643	16.984	1122.806	847.876
285.657	16.929	1121.924	846.860
286.672	16.954	1121.142	846.318
287.687	16.985	1120.071	845.590
288.701	17.046	1119.443	845.343
289.716	17.013	1118.524	844.414
290.730	16.853	1118.383	843.436
291.745	17.050	1117.296	843.521
292.760	17.068	1116.949	843.273
293.774	17.093	1116.065	842.652
294.789	17.270	1115.598	843.106
295.803	17.204	1114.970	842.229
296.818	17.144	1114.123	841.219
297.833	17.053	1113.520	840.238
298.847	17.011	1112.737	839.363
299.862	17.200	1111.917	839.605
300.876	17.225	1111.246	839.149
301.891	17.234	1110.499	838.554
302.906	17.223	1110.184	838.190
303.920	17.318	1109.284	837.903
304.935	17.397	1108.679	837.761
305.949	17.441	1108.349	837.652
306.964	17.385	1107.757	836.857
307.979	17.398	1106.962	836.245
308.993	17.339	1106.176	835.289
310.008	17.371	1105.373	834.763
311.022	17.415	1104.714	834.409
312.037	17.471	1103.643	833.803
313.052	17.508	1102.609	833.128
314.066	17.305	1102.009	831.609
315.081	17.294	1101.102	830.793
316.095	17.331	1100.132	830.170
317.110	17.228	1099.711	829.274
318.125	17.364	1098.428	828.897
319.139	17.326	1098.027	828.339
320.154	17.353	1097.333	827.872
321.168	17.339	1096.933	827.428
322.183	17.332	1096.491	826.989
323.197	17.294	1095.883	826.270
324.212	17.432	1095.039	826.232
325.227	17.450	1094.428	825.783
326.241	17.410	1093.833	825.070
327.256	17.379	1093.146	824.326
328.270	17.471	1091.648	823.569
329.285	17.406	1091.182	822.831
330.300	17.381	1090.076	821.802
331.314	17.308	1089.452	820.910
332.329	17.426	1088.273	820.515
333.343	17.407	1087.777	819.977
334.358	17.498	1087.148	819.870
335.373	17.543	1086.511	819.534
336.387	17.506	1085.728	818.692
337.402	17.568	1084.856	818.262
338.416	17.720	1084.084	818.338
339.431	17.699	1083.366	817.619
340.446	17.720	1083.309	817.607
341.460	17.848	1082.292	817.377
342.475	17.845	1081.198	816.465
343.489	17.896	1080.485	816.097
344.504	17.918	1079.600	815.462
345.519	17.910	1079.019	814.915
346.533	17.923	1078.208	814.291
347.548	17.955	1077.677	813.973
348.562	17.914	1076.743	812.996
349.577	17.828	1075.682	811.717
350.592	17.846	1074.800	811.067
351.606	17.798	1074.116	810.247
352.621	17.752	1073.674	809.625
353.635	17.655	1072.883	808.500
354.650	17.735	1072.735	808.691
355.665	17.893	1071.372	808.344
356.679	17.916	1070.701	807.875
357.694	17.948	1070.234	807.603
358.708	17.936	1069.959	807.265
359.723	17.977	1069.428	806.988
360.738	18.053	1068.496	806.570
361.752	18.024	1067.881	805.897
362.767	17.965	1067.529	805.284
363.781	18.035	1066.948	805.105
364.796	18.030	1066.320	804.533
365.810	18.119	1066.055	804.684
366.825	18.300	1064.983	804.654
367.840	18.428	1064.168	804.570
368.854	18.485	1063.665	804.386
369.869	18.263	1063.397	803.070
370.883	18.255	1062.265	802.103
371.898	18.160	1062.009	801.394
372.913	18.108	1061.220	800.484
373.927	18.216	1060.982	800.742
374.942	18.374	1060.255	800.860
375.956	18.356	1059.529	800.156
376.971	18.291	1059.078	799.440
377.986	18.272	1058.798	799.071
379.000	18.393	1058.473	799.321
380.015	18.495	1057.659	799.109
381.029	18.554	1056.517	798.453
382.044	18.590	1055.538	797.808
383.059	18.471	1055.445	797.111
384.073	18.475	1054.609	796.428
385.088	18.577	1053.397	795.916
386.102	18.478	1052.926	795.033
387.117	18.518	1051.641	794.179
388.132	18.280	1050.935	792.473
389.146	18.388	1050.544	792.609
390.161	18.404	1049.675	791.957
391.175	18.397	1048.580	791.024
392.190	18.503	1048.033	791.034
393.205	18.565	1047.512	790.855
394.219	18.547	1046.691	790.081
395.234	18.524	1045.702	789.161
396.248	18.485	1044.465	787.976
397.263	18.474	1043.652	787.245
398.278	18.392	1043.263	786.505
399.292	18.439	1042.480	786.059
400.307	18.473	1041.553	785.448
401.321	18.466	1040.880	784.837
402.336	18.466	1040.192	784.250
403.350	18.501	1039.313	783.679
404.365	18.403	1039.186	783.067
405.380	18.519	1038.011	782.641
406.394	18.648	1037.629	782.870
407.409	18.691	1036.705	782.300
408.423	18.760	1036.259	782.211
409.438	18.811	1035.396	781.721
410.453	18.722	1035.067	780.998
411.467	18.902	1034.254	781.132
412.482	18.947	1033.745	780.885
413.496	18.952	1032.717	780.062
414.511	18.922	1032.617	779.780
415.526	19.089	1031.919	779.943
416.540	19.117	1031.343	779.565
417.555	19.077	1030.958	779.023
418.569	19.160	1030.204	778.759
419.584	19.052	1029.963	778.020
420.599	19.070	1029.416	777.621
421.613	150.627	1401.196	1792.993
422.628	137.380	1455.370	1793.104
