DTS Sentinel unit serial number:	SN413079Multiplexer serial number:	ORYXHardware model number:	OX4-SRSoftware version number:	ORYX F/W v4.00 Oryx Data Collector v3.7.2.0data status	okinstallation	princeton_trtdifferential loss correction	single-endedforward channel	channel 2reverse channel	N/Adate	2019/09/19time	00:27:35forward acquisition time	60.00reverse acquisition time	0.00gamma	496.2192k internal	0.2352k external	0.2352temperature offset calibration	1.0019default loss term (dB/km)	0.3790temperature slope calibration	1.0000multiplexer offset coefficient	1.0000multiplexer slope coefficient	1.0000fibre end	0.00T internal ref (°C)	22.50T ext. ref 1 (°C)	0.74T ext. ref 2 (°C)	15.43length (m)	temperature (°C)	Stokes	anti-Stokes-747.200	800.000	-0.077	0.332
-746.185	-3.692	-0.203	0.141
-745.171	3.136	-0.050	-0.036
-744.156	158.909	0.108	-0.150
-743.142	39.553	-0.050	0.045
-742.127	297.944	0.133	0.243
-741.112	-71.113	0.179	0.067
-740.098	13.392	-0.068	-0.052
-739.083	-45.150	-0.148	-0.074
-738.069	-200.000	0.022	0.275
-737.054	569.128	0.058	0.140
-736.039	193.994	-0.249	-0.375
-735.025	-73.841	-0.219	0.079
-734.010	536.177	0.054	-0.128
-732.996	800.000	-0.041	-0.171
-731.981	144.004	0.115	-0.153
-730.966	-200.000	-0.070	0.349
-729.952	65.672	0.044	-0.045
-728.937	-41.530	-0.026	-0.014
-727.923	-200.000	0.013	-0.264
-726.908	-63.894	-0.251	-0.102
-725.894	-121.140	-0.204	0.034
-724.879	14.894	-0.229	0.179
-723.864	53.238	-0.172	-0.164
-722.850	157.538	0.117	0.162
-721.835	800.000	-0.046	-0.137
-720.821	-131.956	-0.305	0.040
-719.806	-122.568	-0.238	0.039
-718.791	-200.000	0.006	-0.053
-717.777	-94.219	0.265	-0.072
-716.762	800.000	-0.090	-0.341
-715.748	199.120	-0.126	0.193
-714.733	-45.584	0.182	0.090
-713.718	99.292	0.045	0.052
-712.704	490.594	-0.152	-0.347
-711.689	-112.466	0.153	0.031
-710.675	118.660	-0.099	0.121
-709.660	27.812	0.124	0.104
-708.645	-12.390	0.065	0.042
-707.631	-146.108	0.207	0.018
-706.616	-157.755	-0.600	-0.036
-705.602	14.246	0.230	0.179
-704.587	-121.315	-0.230	-0.038
-703.572	212.332	-0.111	-0.174
-702.558	-121.389	-0.196	0.032
-701.543	-71.514	-0.347	-0.129
-700.529	599.134	-0.050	-0.124
-699.514	152.879	0.133	0.181
-698.499	-200.000	0.018	0.125
-697.485	-108.469	-0.295	0.063
-696.470	197.963	-0.202	0.307
-695.456	-200.000	0.017	-0.091
-694.441	-95.496	-0.172	-0.046
-693.426	-59.553	-0.160	0.068
-692.412	725.967	0.071	0.187
-691.397	202.028	0.214	0.328
-690.383	158.968	0.037	0.051
-689.368	99.147	0.056	0.064
-688.354	-7.456	-0.312	0.211
-687.339	209.040	-0.273	0.425
-686.324	-100.654	-0.114	-0.028
-685.310	-113.246	0.061	-0.012
-684.295	340.071	0.098	-0.191
-683.281	-200.000	-0.019	-0.383
-682.266	213.739	-0.137	-0.215
-681.251	-136.209	0.072	-0.008
-680.237	-98.340	-0.254	0.065
-679.222	-142.181	-0.151	-0.015
-678.208	-47.155	0.127	0.062
-677.193	-174.820	0.293	-0.008
-676.178	-200.000	0.001	-0.095
-675.164	63.841	-0.143	-0.143
-674.149	-14.579	0.164	-0.105
-673.135	-98.150	-0.249	0.064
-672.120	625.008	-0.115	-0.288
-671.105	43.782	0.244	0.222
-670.091	469.386	0.122	-0.272
-669.076	-49.508	-0.295	-0.140
-668.062	-200.000	-0.019	0.388
-667.047	-13.077	-0.170	-0.110
-666.032	800.000	-0.049	-0.172
-665.018	1.438	0.162	0.116
-664.003	343.592	0.104	0.202
-662.989	249.709	0.199	-0.335
-661.974	-62.343	-0.171	0.071
-660.959	-31.412	0.102	-0.057
-659.945	139.552	-0.055	-0.072
-658.930	308.338	-0.091	-0.170
-657.916	289.214	0.055	-0.100
-656.901	-200.000	0.018	0.136
-655.886	4.734	-0.414	0.302
-654.872	-70.750	0.222	-0.083
-653.857	-3.687	-0.142	0.098
-652.843	-127.877	0.104	0.015
-651.828	115.270	-0.245	0.297
-650.814	-155.229	-0.383	-0.025
-649.799	-163.063	-0.273	-0.013
-648.784	-141.598	-0.171	-0.017
-647.770	-180.140	-0.095	-0.002
-646.755	-110.405	-0.043	-0.009
-645.741	39.403	0.088	0.078
-644.726	-28.282	-0.344	0.198
-643.711	-3.168	0.051	-0.036
-642.697	116.394	0.027	-0.033
-641.682	21.831	-0.178	0.144
-640.668	-200.000	-0.024	0.380
-639.653	800.000	0.012	-0.035
-638.638	-123.795	0.123	-0.019
-637.624	-60.579	-0.193	-0.081
-636.609	-200.000	0.015	-0.101
-635.595	-200.000	-0.011	-0.226
-634.580	-152.744	-0.203	0.014
-633.565	-200.000	-0.017	0.075
-632.551	-44.901	-0.230	-0.114
-631.536	768.461	-0.045	-0.121
-630.522	-111.681	-0.339	0.068
-629.507	-54.997	0.046	0.021
-628.492	393.641	-0.047	0.098
-627.478	-55.055	-0.215	0.096
-626.463	800.000	-0.037	0.134
-625.449	-14.877	0.230	-0.146
-624.434	21.360	-0.102	-0.082
-623.419	-2.254	-0.201	-0.140
-622.405	-200.000	-0.343	0.000
-621.390	-27.116	-0.394	-0.228
-620.376	-200.000	0.078	0.401
-619.361	800.000	0.067	0.214
-618.346	211.721	0.015	-0.023
-617.332	-153.839	0.281	-0.019
-616.317	-91.424	-0.318	-0.090
-615.303	-27.751	0.173	-0.099
-614.288	-98.990	0.280	0.071
-613.273	609.973	0.051	-0.125
-612.259	-200.000	0.013	-0.276
-611.244	93.046	0.161	0.181
-610.230	-87.357	0.193	0.058
-609.215	99.657	0.094	0.108
-608.201	-120.630	-0.403	-0.068
-607.186	-92.596	0.177	-0.049
-606.171	-8.827	0.221	0.147
-605.157	-30.699	0.063	0.036
-604.142	-200.000	0.008	0.081
-603.128	-166.927	0.235	-0.010
-602.113	-200.000	0.015	-0.213
-601.098	-28.715	0.313	-0.178
-600.084	2.791	0.038	-0.027
-599.069	-65.864	0.107	-0.042
-598.055	474.653	0.076	-0.170
-597.040	-74.240	-0.292	-0.105
-596.025	431.233	-0.119	0.255
-595.011	100.236	-0.136	0.157
-593.996	-29.924	0.231	-0.131
-592.982	638.686	0.076	0.192
-591.967	-200.000	-0.071	0.330
-590.952	-27.989	0.093	0.053
-589.938	800.000	0.141	0.403
-588.923	-129.553	0.098	-0.013
-587.909	-108.581	0.184	0.039
-586.894	-97.029	-0.133	-0.035
-585.879	-116.037	0.453	0.084
-584.865	148.784	0.061	0.081
-583.850	-95.540	-0.259	-0.069
-582.836	-67.172	0.319	0.124
-581.821	800.000	-0.030	-0.127
-580.806	-42.232	0.291	-0.148
-579.792	176.997	-0.136	-0.196
-578.777	800.000	-0.051	0.193
-577.763	-80.939	0.311	-0.102
-576.748	-173.355	-0.328	0.010
-575.733	-170.648	-0.249	0.009
-574.719	190.612	-0.042	0.063
-573.704	-148.624	-0.144	-0.012
-572.690	-73.005	-0.105	-0.038
-571.675	3.148	0.229	0.165
-570.661	-8.137	0.274	0.183
-569.646	-200.000	-0.051	0.293
-568.631	109.715	-0.299	-0.355
-567.617	135.305	0.123	0.159
-566.602	-45.931	-0.148	-0.072
-565.588	-200.000	-0.008	0.050
-564.573	-152.764	-0.178	0.013
-563.558	-88.039	-0.273	0.081
-562.544	75.859	0.189	0.198
-561.529	-28.700	0.120	0.068
-560.515	800.000	-0.069	0.254
-559.500	57.331	-0.116	0.112
-558.485	-117.402	-0.174	-0.031
-557.471	800.000	-0.057	0.232
-556.456	290.152	0.109	-0.197
-555.442	-79.989	-0.242	-0.080
-554.427	-177.316	0.197	-0.005
-553.412	800.000	-0.095	-0.260
-552.398	-200.000	0.020	-0.219
-551.383	-127.442	0.154	0.022
-550.369	24.659	0.132	0.108
-549.354	-108.984	-0.046	-0.010
-548.339	800.000	0.054	0.154
-547.325	13.053	0.091	0.070
-546.310	-17.330	0.139	0.087
-545.296	-175.849	0.295	0.008
-544.281	-200.000	0.026	0.204
-543.266	800.000	0.041	-0.130
-542.252	-200.000	-0.015	-0.206
-541.237	800.000	-0.106	0.322
-540.223	-200.000	-0.018	0.553
-539.208	81.153	-0.140	-0.150
-538.193	800.000	0.050	-0.138
-537.179	401.986	0.082	0.171
-536.164	-120.096	-0.079	0.013
-535.150	-200.000	0.051	-0.224
-534.135	-200.000	0.024	-0.252
-533.121	36.616	0.146	0.128
-532.106	131.408	0.074	-0.094
-531.091	82.420	0.260	-0.279
-530.077	-77.612	-0.135	0.046
-529.062	46.017	-0.014	-0.013
-528.048	-95.049	-0.189	0.051
-527.033	-200.000	-0.062	0.377
-526.018	-12.264	0.231	0.150
-525.004	8.944	0.116	-0.087
-523.989	77.100	-0.181	-0.190
-522.975	47.496	-0.272	0.251
-521.960	36.891	0.168	-0.147
-520.945	91.437	0.172	0.191
-519.931	-52.074	-0.159	-0.073
-518.916	154.006	-0.087	-0.118
-517.902	-137.015	0.189	-0.021
-516.887	800.000	-0.041	-0.121
-515.872	791.640	-0.083	0.226
-514.858	450.576	-0.057	0.125
-513.843	23.859	-0.195	0.159
-512.829	-200.000	0.006	-0.144
-511.814	-104.375	-0.258	0.059
-510.799	-10.931	0.110	0.072
-509.785	-142.750	-0.122	0.012
-508.770	-13.956	-0.370	-0.236
-507.756	800.000	-0.062	-0.263
-506.741	55.578	0.248	0.238
-505.726	-72.289	-0.456	0.167
-504.712	-50.764	-0.209	-0.097
-503.697	-181.864	-0.098	-0.002
-502.683	539.683	-0.131	-0.308
-501.668	137.432	0.226	-0.293
-500.653	31.286	-0.263	-0.223
-499.639	-192.781	-0.139	-0.001
-498.624	46.530	0.116	-0.106
-497.610	30.288	-0.346	0.292
-496.595	590.519	0.107	0.260
-495.581	-2.094	0.186	0.129
-494.566	-12.279	0.313	0.202
-493.551	17.246	-0.130	-0.102
-492.537	800.000	-0.023	0.075
-491.522	800.000	0.042	-0.117
-490.508	-118.727	-0.145	0.025
-489.493	-105.823	0.247	0.055
-488.478	71.186	0.129	-0.132
-487.464	-200.000	0.060	-0.344
-486.449	139.427	-0.108	-0.140
-485.435	37.850	0.177	-0.155
-484.420	12.816	-0.238	-0.182
-483.405	662.751	0.087	-0.221
-482.391	-140.714	-0.164	0.017
-481.376	-85.644	-0.331	-0.102
-480.362	-200.000	0.028	0.124
-479.347	800.000	0.036	-0.150
-478.332	-147.218	0.298	0.025
-477.318	-95.710	0.052	0.014
-476.303	66.182	-0.193	-0.193
-475.289	75.628	0.230	-0.239
-474.274	69.638	0.184	-0.187
-473.259	47.562	0.136	-0.126
-472.245	-127.465	-0.106	-0.015
-471.230	633.300	-0.109	-0.274
-470.216	-72.721	0.329	-0.120
-469.201	-116.353	-0.407	0.074
-468.186	543.134	-0.052	-0.121
-467.172	-171.213	0.194	0.006
-466.157	-200.000	-0.006	-0.297
-465.143	800.000	-0.093	0.260
-464.128	800.000	0.043	-0.140
-463.113	-72.040	0.270	-0.099
-462.099	193.182	-0.154	0.230
-461.084	151.750	0.253	0.341
-460.070	-200.000	0.020	-0.102
-459.055	800.000	0.018	-0.065
-458.040	67.552	0.040	-0.040
-457.026	387.089	-0.061	-0.124
-456.011	38.240	0.140	-0.123
-454.997	-200.000	0.078	-0.371
-453.982	193.662	-0.052	-0.077
-452.968	21.963	-0.111	-0.090
-451.953	78.140	-0.105	0.111
-450.938	40.808	-0.173	0.154
-449.924	49.339	-0.174	0.161
-448.909	-129.221	0.260	0.036
-447.895	24.534	0.395	-0.322
-446.880	195.639	-0.079	0.119
-445.865	293.800	-0.027	-0.048
-444.851	-89.566	0.198	-0.057
-443.836	-200.000	0.027	0.365
-442.822	-16.385	-0.176	0.110
-441.807	-108.772	0.201	0.042
-440.792	-200.000	0.015	0.188
-439.778	-100.448	-0.333	-0.081
-438.763	-42.432	-0.212	0.106
-437.749	32.458	-0.072	0.061
-436.734	111.458	0.185	-0.220
-435.719	-176.560	0.154	-0.004
-434.705	-200.000	0.042	0.295
-433.690	-200.000	0.005	0.051
-432.676	-200.000	-0.016	-0.175
-431.661	-200.000	0.041	-0.179
-430.646	-200.000	-0.017	0.090
-429.632	409.817	-0.021	-0.043
-428.617	-178.632	0.272	0.006
-427.603	352.645	0.064	0.126
-426.588	-108.183	-0.154	0.033
-425.573	-92.667	-0.192	0.053
-424.559	-200.000	0.020	-0.108
-423.544	-26.270	-0.165	0.096
-422.530	284.662	-0.058	0.104
-421.515	34.208	0.298	-0.256
-420.500	-110.781	0.290	-0.059
-419.486	800.000	0.040	0.130
-418.471	-37.887	0.228	0.119
-417.457	-20.748	0.472	0.285
-416.442	-39.949	0.035	0.018
-415.428	800.000	-0.060	-0.185
-414.413	480.446	-0.046	0.102
-413.398	-200.000	-0.026	0.196
-412.384	-200.000	-0.023	0.209
-411.369	-200.000	0.007	-0.136
-410.355	7.008	-0.223	-0.163
-409.340	28.766	0.256	-0.214
-408.325	387.776	-0.081	-0.165
-407.311	-200.000	0.035	-0.357
-406.296	-89.527	0.186	0.054
-405.282	131.378	-0.252	-0.319
-404.267	109.386	0.212	-0.249
-403.252	-59.319	-0.214	0.091
-402.238	-61.454	0.148	0.061
-401.223	308.301	-0.029	0.053
-400.209	-200.000	0.006	-0.029
-399.194	-37.103	0.408	0.215
-398.179	120.949	-0.148	0.181
-397.165	-200.000	0.003	-0.197
-396.150	-200.000	-0.026	-0.232
-395.136	-200.000	-0.067	-0.317
-394.121	219.032	-0.064	-0.100
-393.106	800.000	0.077	-0.286
-392.092	56.386	-0.278	0.266
-391.077	-74.822	0.239	0.084
-390.063	-54.004	0.200	-0.090
-389.048	-137.071	0.105	0.012
-388.033	-200.000	-0.026	-0.368
-387.019	-200.000	0.002	0.098
-386.004	-167.076	-0.265	-0.011
-384.990	-14.682	0.179	0.113
-383.975	-127.371	-0.303	-0.043
-382.960	48.293	0.315	-0.290
-381.946	800.000	-0.026	-0.076
-380.931	27.781	-0.223	0.185
-379.917	58.000	-0.080	-0.077
-378.902	-59.030	0.108	-0.046
-377.888	-58.542	0.024	0.010
-376.873	-200.000	0.023	0.284
-375.858	-69.454	0.250	-0.094
-374.844	-0.301	-0.268	0.187
-373.829	-42.098	-0.113	-0.057
-372.815	30.187	0.318	0.267
-371.800	54.537	0.099	-0.094
-370.785	415.408	0.083	-0.175
-369.771	751.462	0.086	0.228
-368.756	-140.536	-0.082	0.008
-367.742	75.711	0.092	-0.095
-366.727	-40.495	-0.407	0.208
-365.712	13.831	-0.295	-0.225
-364.698	360.583	-0.245	0.482
-363.683	-200.000	-0.030	0.186
-362.669	311.827	-0.131	-0.241
-361.654	-68.086	0.295	0.113
-360.639	326.384	0.100	-0.188
-359.625	-200.000	0.005	-0.042
-358.610	800.000	-0.078	-0.227
-357.596	800.000	0.095	-0.273
-356.581	26.078	-0.098	0.080
-355.566	48.990	-0.136	-0.125
-354.552	800.000	0.023	0.087
-353.537	-69.404	-0.261	-0.098
-352.523	376.589	-0.112	-0.225
-351.508	111.956	-0.182	0.216
-350.493	-186.255	0.295	-0.004
-349.479	-33.968	0.140	-0.075
-348.464	7.573	0.233	-0.171
-347.450	-99.184	-0.235	-0.058
-346.435	-9.194	-0.393	0.258
-345.420	-53.820	-0.096	0.043
-344.406	-39.916	0.067	-0.034
-343.391	58.665	-0.062	0.060
-342.377	105.735	0.207	0.241
-341.362	800.000	0.073	0.254
-340.348	-76.663	0.106	0.037
-339.333	4.634	0.303	0.219
-338.318	184.681	0.135	-0.197
-337.304	16.854	-0.102	-0.079
-336.289	800.000	0.059	-0.199
-335.275	567.185	-0.095	0.227
-334.260	221.422	-0.108	0.171
-333.245	-125.709	0.206	-0.031
-332.231	800.000	-0.048	-0.163
-331.216	-108.167	-0.191	0.041
-330.202	-99.943	0.339	-0.083
-329.187	800.000	-0.049	-0.212
-328.172	-25.366	0.117	-0.068
-327.158	-200.000	-0.007	-0.371
-326.143	-67.500	0.134	0.052
-325.129	-110.222	0.250	0.051
-324.114	690.875	-0.016	0.042
-323.099	209.181	0.069	0.106
-322.085	249.059	-0.135	-0.224
-321.070	464.828	0.055	0.121
-320.056	524.167	0.062	-0.142
-319.041	800.000	-0.019	0.056
-318.026	-29.437	0.218	0.123
-317.012	-88.647	0.280	-0.082
-315.997	-116.176	-0.117	0.021
-314.983	271.237	0.107	0.185
-313.968	-200.000	-0.003	0.215
-312.953	198.437	-0.234	-0.351
-311.939	-200.000	0.052	0.623
-310.924	178.046	-0.106	0.152
-309.910	-87.078	0.201	0.060
-308.895	-33.612	0.144	-0.078
-307.880	38.629	0.212	0.185
-306.866	79.501	0.308	-0.324
-305.851	-29.821	-0.166	-0.093
-304.837	588.034	0.057	0.139
-303.822	-200.000	-0.026	0.261
-302.807	-200.000	-0.009	0.071
-301.793	116.522	-0.304	-0.366
-300.778	-137.150	-0.349	0.039
-299.764	-200.000	0.029	0.285
-298.749	800.000	-0.093	-0.299
-297.735	356.660	-0.060	-0.117
-296.720	-171.111	-0.427	-0.014
-295.705	74.368	-0.203	0.209
-294.691	-200.000	0.084	-0.377
-293.676	-113.455	0.415	0.080
-292.662	-57.185	-0.112	0.048
-291.647	423.714	0.020	-0.043
-290.632	-17.382	-0.129	0.079
-289.618	33.615	-0.198	0.169
-288.603	576.508	0.025	0.059
-287.589	-123.751	0.124	0.019
-286.574	-200.000	0.072	0.328
-285.559	-128.386	0.108	-0.015
-284.545	-155.926	-0.170	-0.011
-283.530	193.320	0.103	-0.152
-282.516	62.180	-0.150	0.146
-281.501	800.000	0.121	0.415
-280.486	-200.000	0.036	0.180
-279.472	800.000	-0.076	-0.317
-278.457	-83.696	0.236	-0.074
-277.443	80.622	-0.198	0.209
-276.428	800.000	-0.056	-0.177
-275.413	-48.816	-0.147	-0.069
-274.399	-200.000	-0.044	0.242
-273.384	64.385	0.096	0.095
-272.370	249.016	0.278	0.461
-271.355	419.855	0.234	-0.491
-270.340	-10.585	-0.299	-0.194
-269.326	-148.602	0.135	-0.011
-268.311	188.607	0.267	0.391
-267.297	95.166	0.118	-0.132
-266.282	-200.000	-0.017	-0.272
-265.267	-200.000	-0.013	0.063
-264.253	-32.877	0.260	0.141
-263.238	-102.811	-0.124	0.029
-262.224	-200.000	-0.005	-0.128
-261.209	26.269	-0.280	-0.229
-260.195	14.509	-0.102	0.078
-259.180	-16.660	-0.100	-0.062
-258.165	634.063	0.093	0.232
-257.151	174.725	0.059	-0.083
-256.136	800.000	0.016	0.047
-255.122	-132.649	0.030	0.004
-254.107	194.834	0.198	-0.294
-253.092	-49.868	-0.478	0.222
-252.078	10.239	0.121	0.090
-251.063	-149.236	0.155	0.012
-250.049	-27.358	-0.386	0.220
-249.034	-161.864	0.148	0.007
-248.019	57.858	0.310	0.297
-247.005	-73.309	-0.305	0.109
-245.990	40.728	-0.172	0.152
-244.976	87.224	-0.190	-0.206
-243.961	-118.653	0.267	0.046
-242.946	60.169	-0.027	0.026
-241.932	-8.305	-0.094	0.062
-240.917	198.739	0.137	0.206
-239.903	-200.000	0.011	0.285
-238.888	42.637	0.288	0.256
-237.873	-200.000	0.009	-0.084
-236.859	-139.562	0.209	-0.022
-235.844	800.000	0.155	-0.483
-234.830	-143.794	0.206	0.019
-233.815	800.000	-0.079	-0.250
-232.800	-87.405	-0.210	-0.062
-231.786	-109.743	-0.362	0.074
-230.771	-200.000	0.004	0.093
-229.757	116.431	0.028	-0.034
-228.742	34.175	-0.357	0.304
-227.727	-128.001	-0.013	0.002
-226.713	214.350	0.183	-0.283
-225.698	-37.718	-0.162	0.084
-224.684	540.249	0.060	-0.139
-223.669	-142.750	0.420	-0.040
-222.655	14.060	-0.209	0.159
-221.640	-91.343	0.443	0.124
-220.625	101.484	0.060	-0.068
-219.611	-200.000	-0.010	-0.061
-218.596	-156.074	0.210	0.013
-217.582	-55.389	-0.157	0.069
-216.567	253.725	0.106	0.177
-215.552	800.000	0.032	-0.099
-214.538	-200.000	-0.019	-0.118
-213.523	800.000	0.072	0.201
-212.509	800.000	-0.061	-0.183
-211.494	-138.025	-0.118	0.013
-210.479	-152.959	0.261	-0.018
-209.465	478.377	0.079	0.174
-208.450	730.041	-0.114	0.298
-207.436	800.000	-0.048	0.169
-206.421	-7.109	-0.361	0.239
-205.406	800.000	-0.055	0.161
-204.392	11.517	-0.160	-0.120
-203.377	800.000	-0.120	-0.405
-202.363	800.000	-0.067	0.227
-201.348	-10.818	-0.021	0.014
-200.333	447.880	-0.159	-0.343
-199.319	-88.544	-0.198	-0.057
-198.304	691.642	0.076	0.194
-197.290	-200.000	0.036	0.250
-196.275	-12.611	0.100	0.063
-195.260	-33.271	0.184	0.099
-194.246	100.758	0.113	0.128
-193.231	-100.963	-0.250	-0.060
-192.217	-200.000	-0.026	-0.257
-191.202	-39.598	-0.172	-0.088
-190.187	-108.003	-0.153	0.032
-189.173	99.441	-0.253	0.286
-188.158	-36.060	0.085	-0.045
-187.144	800.000	-0.072	0.202
-186.129	-200.000	0.001	-0.124
-185.114	635.930	0.122	0.301
-184.100	36.692	-0.121	0.105
-183.085	800.000	0.090	-0.279
-182.071	233.287	0.089	0.143
-181.056	-30.469	-0.089	0.049
-180.042	-200.000	0.016	-0.097
-179.027	-59.611	0.266	-0.111
-178.012	101.884	0.286	-0.326
-176.998	0.082	-0.134	-0.093
-175.983	14.936	-0.264	-0.202
-174.969	-179.497	0.233	0.005
-173.954	-131.019	0.415	-0.054
-172.939	-117.264	0.198	-0.035
-171.925	-65.567	-0.591	-0.231
-170.910	800.000	-0.024	0.094
-169.896	761.258	-0.062	-0.163
-168.881	-35.566	0.158	-0.083
-167.866	155.874	0.084	-0.114
-166.852	-196.580	-0.260	-0.002
-165.837	-200.000	0.008	-0.135
-164.823	-11.187	0.130	0.083
-163.808	528.332	-0.149	0.344
-162.793	800.000	0.124	0.360
-161.779	800.000	0.080	-0.215
-160.764	-200.000	-0.015	-0.138
-159.750	-200.000	0.069	-0.477
-158.735	-53.515	-0.167	-0.075
-157.720	-200.000	-0.008	0.149
-156.706	216.017	-0.285	-0.441
-155.691	113.928	-0.044	-0.052
-154.677	-200.000	0.008	0.188
-153.662	-200.000	-0.070	-0.444
-152.647	114.763	0.175	-0.208
-151.633	800.000	-0.076	0.254
-150.618	-98.705	0.268	-0.067
-149.604	-172.151	-0.309	-0.010
-148.589	-60.476	-0.152	-0.063
-147.574	-200.000	0.046	0.336
-146.560	140.137	0.248	-0.318
-145.545	800.000	-0.165	-0.491
-144.531	236.244	0.108	0.174
-143.516	-200.000	-0.041	0.585
-142.502	-55.604	0.314	-0.137
-141.487	-119.768	-0.451	0.076
-140.472	-123.638	-0.233	-0.036
-139.458	-96.771	0.224	-0.057
-138.443	34.209	0.327	-0.278
-137.429	63.679	-0.172	-0.168
-136.414	-56.461	-0.525	-0.227
-135.399	-200.000	-0.008	0.096
-134.385	-200.000	-0.007	0.149
-133.370	-28.473	-0.456	-0.256
-132.356	309.204	-0.051	0.092
-131.341	800.000	0.068	-0.205
-130.326	295.565	0.104	0.185
-129.312	21.731	-0.090	0.072
-128.297	-117.545	0.080	0.014
-127.283	-56.623	0.211	-0.091
-126.268	-69.508	-0.095	0.035
-125.253	670.201	-0.069	-0.175
-124.239	50.473	-0.136	-0.126
-123.224	-122.971	0.028	-0.004
-122.210	800.000	0.049	-0.162
-121.195	11.539	0.060	-0.045
-120.180	-63.149	0.257	0.103
-119.166	152.507	0.119	-0.158
-118.151	589.151	-0.023	0.054
-117.137	-57.560	-0.353	0.151
-116.122	-76.920	0.160	0.054
-115.107	-32.216	-0.228	0.124
-114.093	-2.380	-0.260	0.177
-113.078	-200.000	-0.016	-0.133
-112.064	-38.023	0.414	-0.214
-111.049	-58.857	0.346	-0.145
-110.034	302.569	0.082	0.148
-109.020	800.000	-0.136	-0.388
-108.005	392.735	-0.118	-0.239
-106.991	-43.819	-0.225	-0.110
-105.976	-76.832	-0.245	-0.083
-104.962	-200.000	0.035	-0.493
-103.947	-19.510	0.227	0.137
-102.932	800.000	0.063	0.172
-101.918	-46.376	0.274	0.131
-100.903	-32.140	0.184	0.100
-99.889	-200.000	-0.091	0.452
-98.874	-200.000	-0.015	0.074
-97.859	-74.544	0.186	0.065
-96.845	608.830	-0.132	-0.320
-95.830	-151.424	-0.379	-0.027
-94.816	-45.670	-0.144	-0.069
-93.801	142.671	-0.095	-0.122
-92.786	75.564	0.160	-0.165
-91.772	800.000	-0.007	0.026
-90.757	111.501	-0.186	0.219
-89.743	143.414	-0.128	-0.165
-88.728	240.504	0.056	0.090
-87.713	-97.993	0.071	-0.018
-86.699	588.413	-0.143	-0.341
-85.684	-0.883	-0.256	-0.176
-84.670	144.868	0.096	-0.125
-83.655	-143.501	-0.215	-0.020
-82.640	277.513	-0.178	-0.308
-81.626	107.665	-0.135	-0.156
-80.611	170.633	-0.124	0.173
-79.597	84.895	0.159	-0.170
-78.582	-57.748	0.276	-0.117
-77.567	-200.000	0.044	0.220
-76.553	274.451	0.148	0.254
-75.538	-88.133	-0.224	-0.065
-74.524	85.401	-0.031	-0.033
-73.509	800.000	-0.082	0.310
-72.494	101.686	-0.099	-0.112
-71.480	135.577	-0.099	0.125
-70.465	-75.715	-0.195	0.067
-69.451	-200.000	-0.015	0.265
-68.436	-71.227	-0.191	-0.070
-67.422	188.474	0.047	0.068
-66.407	52.963	-0.078	-0.073
-65.392	-200.000	0.033	0.216
-64.378	800.000	0.044	-0.143
-63.363	-200.000	0.050	-0.284
-62.349	84.683	0.213	-0.226
-61.334	65.117	-1.047	-1.028
-60.319	194.136	0.689	1.014
-59.305	800.000	-0.530	-1.477
-58.290	433.724	0.828	1.746
-57.276	420.390	0.652	1.356
-56.261	-200.000	132.494	701.023
-55.246	379.157	1652.524	3285.677
-54.232	134.938	2805.388	3537.864
-53.217	88.500	2302.585	2483.919
-52.203	31.741	1898.025	1585.891
-51.188	25.570	1692.940	1367.710
-50.173	23.462	1654.388	1320.826
-49.159	45.897	1726.312	1550.247
-48.144	42.780	1737.107	1536.128
-47.130	25.064	1687.293	1359.097
-46.115	22.654	1671.203	1327.957
-45.100	22.402	1666.378	1322.179
-44.086	22.442	1664.178	1320.681
-43.071	22.350	1661.594	1317.889
-42.057	22.362	1659.560	1316.310
-41.042	22.418	1657.637	1315.152
-40.027	22.431	1655.510	1313.511
-39.013	22.443	1653.548	1311.995
-37.998	22.286	1652.677	1310.082
-36.984	22.384	1650.919	1309.359
-35.969	22.345	1649.905	1308.220
-34.954	22.517	1647.583	1307.599
-33.940	22.436	1646.240	1305.879
-32.925	22.445	1644.221	1304.292
-31.911	22.473	1642.645	1303.204
-30.896	22.482	1640.957	1301.876
-29.881	22.488	1639.689	1300.866
-28.867	22.518	1637.753	1299.494
-27.852	22.538	1636.640	1298.713
-26.838	22.510	1635.159	1297.279
-25.823	22.557	1633.582	1296.322
-24.809	22.543	1632.190	1295.059
-23.794	22.520	1631.024	1293.912
-22.779	22.564	1629.480	1292.959
-21.765	22.486	1627.627	1290.872
-20.750	22.584	1626.235	1290.429
-19.736	22.440	1625.868	1289.032
-18.721	22.582	1623.775	1288.364
-17.706	22.568	1622.229	1286.979
-16.692	22.597	1620.394	1285.687
-15.677	22.517	1619.095	1284.021
-14.663	22.508	1618.309	1283.282
-13.648	22.617	1617.141	1283.101
-12.633	22.576	1615.138	1281.158
-11.619	22.539	1613.364	1279.435
-10.604	22.567	1612.092	1278.576
-9.590	22.555	1610.906	1277.501
-8.575	22.514	1609.890	1276.347
-7.560	22.540	1608.545	1275.413
-6.546	22.522	1607.722	1274.581
-5.531	22.480	1606.836	1273.530
-4.517	22.534	1605.416	1272.737
-3.502	22.503	1604.243	1271.537
-2.487	22.536	1602.290	1270.179
-1.473	22.067	1589.951	1256.991
-0.458	18.959	1569.440	1218.732
0.556	14.050	1571.585	1184.956
1.571	11.657	1595.494	1185.541
2.586	11.393	1607.049	1192.090
3.600	10.608	1553.031	1146.376
4.615	6.094	1449.200	1039.822
5.629	1.602	1392.920	970.735
6.644	0.744	1386.068	960.426
7.659	0.750	1385.243	959.811
8.673	0.773	1384.408	959.291
9.688	0.703	1381.836	956.980
10.702	0.563	1378.481	953.689
11.717	2.816	1381.073	969.641
12.731	8.979	1389.960	1014.888
13.746	14.994	1399.360	1059.872
14.761	17.237	1401.689	1075.754
15.775	16.848	1400.002	1071.903
16.790	15.750	1398.082	1063.401
17.804	14.935	1395.620	1056.286
18.819	14.604	1394.141	1052.988
19.834	14.266	1393.226	1050.071
20.848	14.263	1391.614	1048.747
21.863	14.042	1389.839	1045.922
22.877	13.782	1388.660	1043.309
23.892	13.646	1388.179	1042.000
24.907	13.588	1387.677	1041.165
25.921	13.665	1386.381	1040.588
26.936	13.781	1385.378	1040.470
27.950	13.816	1384.238	1039.738
28.965	13.894	1382.940	1039.162
29.980	13.833	1382.942	1038.689
30.994	13.904	1381.392	1037.877
32.009	13.927	1380.832	1037.509
33.023	13.804	1380.184	1036.164
34.038	13.879	1378.333	1035.146
35.053	13.835	1377.547	1034.193
36.067	13.809	1376.474	1033.135
37.082	13.766	1375.986	1032.405
38.096	13.943	1374.425	1032.244
39.111	13.881	1373.859	1031.345
40.126	13.794	1373.256	1030.262
41.140	13.747	1372.507	1029.315
42.155	13.718	1372.003	1028.665
43.169	13.702	1372.204	1028.625
44.184	13.715	1371.377	1027.994
45.199	13.807	1370.622	1027.909
46.213	13.790	1370.446	1027.579
47.228	13.855	1369.418	1027.120
48.242	13.759	1368.393	1025.667
49.257	13.797	1366.366	1024.290
50.271	13.838	1365.218	1023.594
51.286	13.771	1364.298	1022.401
52.301	13.743	1363.006	1021.166
53.315	13.773	1361.743	1020.317
54.330	13.814	1360.828	1019.795
55.344	13.854	1359.396	1018.875
56.359	13.729	1358.291	1017.190
57.374	13.713	1357.630	1016.505
58.388	13.735	1356.727	1015.879
59.403	13.629	1356.433	1014.916
60.417	13.664	1355.507	1014.349
61.432	13.551	1354.694	1012.961
62.447	13.592	1353.784	1012.443
63.461	13.610	1352.023	1011.144
64.476	13.567	1351.338	1010.278
65.490	13.567	1350.399	1009.486
66.505	13.624	1348.223	1008.117
67.520	13.733	1346.780	1007.614
68.534	13.748	1345.985	1007.019
69.549	13.719	1344.806	1005.873
70.563	13.649	1344.528	1005.149
71.578	13.616	1342.734	1003.523
72.593	13.733	1341.744	1003.398
73.607	13.590	1341.351	1002.156
74.622	13.554	1340.642	1001.319
75.636	13.579	1339.721	1000.693
76.651	13.625	1338.865	1000.240
77.666	13.513	1338.902	999.502
78.680	13.624	1337.756	999.230
79.695	13.712	1336.413	998.668
80.709	13.660	1336.156	998.076
81.724	13.623	1335.629	997.369
82.739	13.702	1334.465	996.886
83.753	13.762	1333.662	996.561
84.768	13.775	1332.490	995.677
85.782	13.785	1330.828	994.404
86.797	13.830	1329.509	993.599
87.812	13.741	1328.743	992.405
88.826	13.788	1327.186	991.437
89.841	13.763	1326.107	990.397
90.855	13.760	1325.251	989.653
91.870	13.797	1324.372	989.128
92.884	13.881	1323.204	988.664
93.899	13.884	1322.634	988.169
94.914	13.914	1321.880	987.697
95.928	13.907	1320.816	986.777
96.943	13.850	1320.051	985.775
97.957	13.911	1318.918	985.209
98.972	13.793	1318.239	983.913
99.987	13.967	1316.861	983.824
101.001	13.934	1315.994	982.898
102.016	13.925	1315.099	982.090
103.030	13.887	1314.099	981.030
104.045	13.845	1313.317	980.114
105.060	13.871	1312.003	979.198
106.074	13.827	1310.626	977.825
107.089	13.703	1309.442	976.124
108.103	13.684	1308.451	975.185
109.118	13.825	1306.728	974.646
110.133	13.689	1305.549	972.883
111.147	13.739	1304.535	972.332
112.162	13.793	1303.079	971.476
113.176	13.789	1302.295	970.785
114.191	13.890	1300.447	969.909
115.206	13.797	1299.849	968.839
116.220	13.744	1298.493	967.431
117.235	13.876	1297.107	967.081
118.249	13.899	1296.187	966.446
119.264	13.717	1295.830	965.033
120.279	13.882	1294.286	964.755
121.293	13.771	1293.452	963.402
122.308	13.753	1292.241	962.316
123.322	13.825	1290.623	961.438
124.337	13.732	1290.412	960.658
125.352	13.676	1289.203	959.352
126.366	13.731	1288.017	958.701
127.381	13.678	1287.036	957.582
128.395	13.737	1285.424	956.636
129.410	13.713	1284.573	955.779
130.424	13.796	1284.054	955.785
131.439	13.732	1282.927	954.496
132.454	13.847	1281.789	954.224
133.468	13.904	1280.927	953.829
134.483	13.822	1280.311	952.815
135.497	13.876	1279.275	952.269
136.512	13.829	1277.825	950.836
137.527	13.852	1276.540	949.928
138.541	13.779	1275.413	948.587
139.556	13.844	1273.867	947.722
140.570	13.860	1272.671	946.842
141.585	14.003	1271.033	946.354
142.600	13.947	1270.347	945.439
143.614	13.927	1269.999	944.984
144.629	13.987	1268.856	944.393
145.643	14.061	1267.584	943.780
146.658	13.922	1266.353	941.993
147.673	14.042	1264.744	941.389
148.687	13.970	1263.736	940.151
149.702	14.010	1262.065	939.051
150.716	13.941	1260.988	937.778
151.731	13.962	1260.145	937.185
152.746	14.020	1258.896	936.498
153.760	14.052	1257.431	935.504
154.775	14.022	1255.884	934.106
155.789	14.070	1255.244	933.817
156.804	14.055	1254.403	933.025
157.819	14.144	1253.477	932.753
158.833	14.040	1252.676	931.488
159.848	14.175	1251.297	931.137
160.862	14.034	1250.721	929.839
161.877	14.177	1248.754	929.090
162.892	14.021	1248.507	927.954
163.906	14.127	1247.308	927.573
164.921	14.155	1246.186	926.811
165.935	14.186	1245.615	926.476
166.950	14.209	1244.560	925.738
167.964	14.103	1244.426	924.971
168.979	14.181	1243.202	924.412
169.994	14.220	1242.242	923.829
171.008	14.184	1241.584	923.060
172.023	14.146	1240.943	922.293
173.037	14.303	1240.146	922.490
174.052	14.310	1238.602	921.294
175.067	14.262	1238.103	920.575
176.081	14.168	1236.894	919.080
177.096	14.240	1235.861	918.625
178.110	14.194	1234.703	917.428
179.125	14.304	1233.107	916.769
180.140	14.289	1232.402	916.084
181.154	14.331	1231.393	915.483
182.169	14.358	1230.072	914.566
183.183	14.378	1228.713	913.587
184.198	14.419	1227.245	912.640
185.213	14.380	1226.688	911.927
186.227	14.275	1226.088	910.828
187.242	14.476	1224.201	910.446
188.256	14.508	1223.141	909.749
189.271	14.471	1222.310	908.849
190.286	14.382	1222.160	908.170
191.300	14.177	1221.130	906.209
192.315	14.215	1220.189	905.640
193.329	14.289	1219.320	905.313
194.344	14.302	1218.311	904.556
195.359	14.434	1217.852	904.852
196.373	14.517	1217.476	904.946
197.388	14.482	1216.960	904.290
198.402	14.569	1216.363	904.235
199.417	14.701	1215.425	904.177
200.432	14.542	1214.775	902.753
201.446	14.744	1213.886	903.100
202.461	14.654	1212.945	901.838
203.475	14.681	1212.013	901.210
204.490	14.639	1210.995	900.145
205.504	14.547	1209.695	898.603
206.519	14.676	1208.212	898.120
207.534	14.580	1207.435	896.942
208.548	14.667	1206.263	896.460
209.563	14.679	1205.509	895.887
210.577	14.691	1204.965	895.468
211.592	14.683	1203.943	894.585
212.607	14.831	1203.160	894.716
213.621	14.848	1201.817	893.730
214.636	14.754	1200.994	892.535
215.650	14.750	1200.270	891.899
216.665	14.903	1199.308	891.923
217.680	14.840	1198.229	890.705
218.694	14.891	1197.558	890.398
219.709	14.921	1196.544	889.724
220.723	14.904	1196.069	889.202
221.738	14.918	1195.144	888.512
222.753	14.840	1194.921	887.850
223.767	14.944	1193.790	887.483
224.782	15.070	1193.005	887.491
225.796	14.950	1192.557	886.441
226.811	15.057	1191.644	886.254
227.826	14.994	1191.234	885.534
228.840	15.022	1190.405	884.991
229.855	15.123	1189.501	884.771
230.869	15.047	1188.720	883.711
231.884	15.043	1188.182	883.211
232.899	15.048	1187.256	882.473
233.913	14.911	1186.818	881.345
234.928	14.981	1185.714	880.817
235.942	14.999	1184.937	880.260
236.957	14.993	1184.189	879.590
237.972	15.052	1183.088	879.006
238.986	14.989	1182.637	878.265
240.001	15.016	1181.864	877.750
241.015	15.028	1181.239	877.272
242.030	15.137	1180.210	877.001
243.045	15.123	1179.481	876.311
244.059	15.114	1178.948	875.787
245.074	15.086	1177.866	874.764
246.088	15.117	1177.361	874.471
247.103	15.234	1176.612	874.450
248.117	15.255	1175.793	873.874
249.132	15.203	1175.517	873.316
250.147	15.296	1174.421	872.912
251.161	15.264	1173.288	871.827
252.176	15.376	1172.720	871.909
253.190	15.457	1172.119	871.805
254.205	15.397	1171.549	870.994
255.220	15.403	1171.000	870.535
256.234	15.515	1170.573	870.722
257.249	15.467	1170.021	869.988
258.263	15.318	1169.829	868.996
259.278	15.469	1168.593	868.780
260.293	15.544	1167.800	868.504
261.307	15.580	1167.265	868.216
262.322	15.506	1166.680	867.319
263.336	15.560	1165.995	867.014
264.351	15.629	1165.491	866.920
265.366	15.583	1164.952	866.201
266.380	15.611	1163.580	865.249
267.395	15.654	1162.965	864.937
268.409	15.606	1162.572	864.322
269.424	15.592	1161.956	863.714
270.439	15.710	1160.875	863.441
271.453	15.577	1160.659	862.521
272.468	15.735	1159.056	862.064
273.482	15.663	1159.026	861.599
274.497	15.726	1158.282	861.292
275.512	15.578	1157.705	860.025
276.526	15.742	1156.523	859.913
277.541	15.756	1155.735	859.320
278.555	15.853	1155.262	859.389
279.570	15.852	1154.171	858.495
280.585	15.799	1153.180	857.412
281.599	15.959	1152.356	857.538
282.614	15.961	1151.375	856.746
283.628	15.817	1150.428	855.231
284.643	15.870	1149.216	854.526
285.657	15.886	1148.508	854.000
286.672	15.939	1147.664	853.569
287.687	16.010	1146.656	853.102
288.701	15.802	1146.455	851.825
289.716	15.986	1145.151	851.712
290.730	15.927	1144.724	851.018
291.745	16.146	1143.649	851.250
292.760	15.920	1143.399	849.847
293.774	16.057	1142.771	849.997
294.789	15.963	1142.435	849.198
295.803	16.065	1141.617	849.031
296.818	16.047	1141.078	848.462
297.833	16.001	1140.079	847.411
298.847	16.056	1138.798	846.661
299.862	16.109	1138.304	846.489
300.876	16.117	1137.828	846.097
301.891	16.107	1137.170	845.484
302.906	16.103	1136.525	844.910
303.920	16.256	1135.647	844.945
304.935	16.296	1134.807	844.450
305.949	16.307	1134.352	844.089
306.964	16.336	1133.747	843.707
307.979	16.253	1133.018	842.675
308.993	16.325	1131.993	842.200
310.008	16.237	1131.067	840.999
311.022	16.410	1130.498	841.361
312.037	16.347	1129.722	840.399
313.052	16.274	1128.825	839.290
314.066	16.388	1127.486	838.788
315.081	16.353	1126.940	838.137
316.095	16.230	1126.381	837.036
317.110	16.333	1125.943	837.145
318.125	16.305	1124.938	836.184
319.139	16.419	1124.253	836.167
320.154	16.415	1123.688	835.650
321.168	16.347	1122.798	834.580
322.183	16.268	1122.926	834.214
323.197	16.360	1121.738	833.709
324.212	16.430	1121.376	833.711
325.227	16.419	1120.796	833.153
326.241	16.386	1119.940	832.278
327.256	16.431	1119.194	831.876
328.270	16.395	1118.236	830.913
329.285	16.444	1117.396	830.452
330.300	16.548	1116.532	830.249
331.314	16.392	1115.706	828.797
332.329	16.344	1114.860	827.860
333.343	16.514	1113.909	827.910
334.358	16.519	1113.015	827.201
335.373	16.542	1112.568	826.904
336.387	16.492	1111.685	825.932
337.402	16.582	1110.448	825.379
338.416	16.649	1109.980	825.285
339.431	16.621	1109.717	824.881
340.446	16.826	1108.457	824.866
341.460	16.711	1107.981	823.882
342.475	16.801	1107.057	823.560
343.489	16.743	1106.168	822.543
344.504	16.851	1105.331	822.373
345.519	16.865	1104.585	821.815
346.533	16.887	1103.595	821.108
347.548	16.855	1102.972	820.420
348.562	16.836	1102.462	819.876
349.577	16.808	1101.464	818.924
350.592	16.757	1101.329	818.505
351.606	16.861	1100.097	818.020
352.621	16.921	1099.275	817.623
353.635	16.900	1098.484	816.863
354.650	16.924	1097.865	816.445
355.665	16.959	1097.122	815.989
356.679	16.970	1096.776	815.715
357.694	16.937	1095.972	814.885
358.708	16.968	1095.414	814.545
359.723	17.041	1094.420	814.085
360.738	17.024	1094.051	813.657
361.752	17.115	1093.217	813.401
362.767	17.091	1092.923	812.993
363.781	16.987	1092.598	812.182
364.796	17.035	1092.091	811.964
365.810	17.012	1091.388	811.262
366.825	17.066	1090.675	810.915
367.840	17.164	1089.760	810.631
368.854	17.207	1089.383	810.485
369.869	17.253	1088.613	810.060
370.883	17.197	1087.947	809.227
371.898	17.225	1086.973	808.562
372.913	17.243	1086.657	808.340
373.927	17.126	1086.172	807.351
374.942	17.400	1085.291	807.927
375.956	17.366	1085.089	807.545
376.971	17.364	1083.903	806.581
377.986	17.347	1083.960	806.469
379.000	17.425	1083.066	806.103
380.015	17.475	1082.565	805.896
381.029	17.511	1082.007	805.583
382.044	17.471	1081.159	804.687
383.059	17.533	1080.613	804.505
384.073	17.431	1079.559	803.165
385.088	17.581	1078.547	803.048
386.102	17.650	1077.415	802.463
387.117	17.455	1076.839	801.045
388.132	17.500	1076.009	800.569
389.146	17.428	1075.235	799.582
390.161	17.575	1074.690	799.796
391.175	17.420	1073.801	798.338
392.190	17.513	1073.360	798.373
393.205	17.575	1072.683	798.091
394.219	17.577	1071.926	797.467
395.234	17.508	1071.331	796.632
396.248	17.650	1069.795	796.082
397.263	17.512	1068.768	794.604
398.278	17.559	1068.122	794.270
399.292	17.581	1067.738	794.018
400.307	17.526	1066.917	793.080
401.321	17.629	1066.314	793.044
402.336	17.534	1065.450	791.889
403.350	17.639	1064.997	791.968
404.365	17.625	1064.593	791.533
405.380	17.563	1064.041	790.766
406.394	17.743	1062.598	790.458
407.409	17.712	1062.064	789.844
408.423	17.803	1061.080	789.467
409.438	17.864	1060.825	789.489
410.453	17.824	1059.990	788.613
411.467	17.907	1059.379	788.470
412.482	17.930	1058.453	787.820
413.496	18.002	1057.595	787.442
414.511	17.849	1057.757	786.787
415.526	17.998	1056.986	786.831
416.540	18.054	1056.338	786.535
417.555	18.019	1055.924	785.996
418.569	18.001	1055.453	785.495
419.584	17.936	1054.871	784.693
420.599	17.978	1054.428	784.486
421.613	109.889	1331.040	1490.543
422.628	101.319	1371.291	1490.622
