DTS Sentinel unit serial number:	SN413079Multiplexer serial number:	ORYXHardware model number:	OX4-SRSoftware version number:	ORYX F/W v4.00 Oryx Data Collector v3.7.2.0data status	okinstallation	princeton_trtdifferential loss correction	single-endedforward channel	channel 2reverse channel	N/Adate	2019/09/12time	19:57:48forward acquisition time	15.00reverse acquisition time	0.00gamma	496.2192k internal	0.2326k external	0.2326temperature offset calibration	1.0170default loss term (dB/km)	0.3790temperature slope calibration	1.0000multiplexer offset coefficient	1.0000multiplexer slope coefficient	1.0000fibre end	0.00T internal ref (°C)	31.75T ext. ref 1 (°C)	3.44T ext. ref 2 (°C)	26.35length (m)	temperature (°C)	Stokes	anti-Stokes-747.200	-113.949	-0.492	0.096
-746.185	-88.215	0.615	-0.186
-745.171	28.662	0.496	0.424
-744.156	-43.521	-0.220	0.112
-743.142	-38.919	-1.034	0.549
-742.127	-200.000	0.083	-0.625
-741.112	-200.000	0.062	-0.406
-740.098	-5.532	0.471	0.326
-739.083	-200.000	-0.516	0.000
-738.069	22.233	-0.501	-0.412
-737.054	4.845	-0.469	-0.347
-736.039	450.221	0.407	-0.906
-735.025	-39.116	-0.498	-0.264
-734.010	-200.000	0.034	-0.478
-732.996	-200.000	-0.056	-1.199
-731.981	71.272	-0.357	-0.373
-730.966	-66.962	-0.394	0.157
-729.952	-104.734	0.412	-0.096
-728.937	-71.807	0.282	0.106
-727.923	800.000	-0.169	0.480
-726.908	-108.315	0.501	-0.109
-725.894	288.969	0.269	0.491
-724.879	12.408	-0.245	-0.190
-723.864	73.524	0.252	-0.266
-722.850	476.463	-0.444	-1.011
-721.835	239.212	0.045	-0.075
-720.821	167.574	-0.372	0.532
-719.806	-99.209	-0.750	0.191
-718.791	509.316	-0.266	0.623
-717.777	100.325	-0.351	-0.411
-716.762	-53.031	-0.681	0.316
-715.748	-131.313	-0.402	0.054
-714.733	800.000	0.165	0.570
-713.718	-200.000	0.019	0.200
-712.704	-63.802	0.243	0.100
-711.689	-65.457	-0.296	0.120
-710.675	51.591	-0.534	0.511
-709.660	800.000	0.193	0.635
-708.645	-200.000	-0.033	0.216
-707.631	-48.979	-0.202	0.097
-706.616	-182.566	0.338	-0.006
-705.602	-200.000	0.025	-0.669
-704.587	-2.752	0.416	-0.293
-703.572	116.845	-0.077	0.095
-702.558	800.000	0.202	0.861
-701.543	-94.730	0.547	-0.150
-700.529	-85.507	-0.443	0.139
-699.514	-113.220	0.141	-0.028
-698.499	-200.000	-0.086	0.612
-697.485	-129.682	0.626	-0.087
-696.470	-155.016	-0.680	0.045
-695.456	-75.022	-1.331	-0.480
-694.441	373.788	0.463	-0.947
-693.426	-200.000	0.042	0.406
-692.412	-200.000	0.025	-1.141
-691.397	-200.000	-0.047	0.287
-690.383	-55.454	-0.631	-0.285
-689.368	125.205	-0.185	-0.235
-688.354	-26.456	0.408	0.241
-687.339	411.605	-0.254	0.542
-686.324	-200.000	0.160	1.045
-685.310	-124.955	-0.626	0.097
-684.295	-200.000	0.036	0.331
-683.281	105.540	-0.203	0.241
-682.266	36.687	-0.453	-0.402
-681.251	-125.045	0.425	-0.066
-680.237	500.996	-0.018	0.041
-679.222	410.998	0.262	-0.560
-678.208	8.066	0.294	-0.222
-677.193	-86.649	-0.647	0.199
-676.178	-27.962	0.293	0.171
-675.164	-200.000	-0.251	-1.155
-674.149	-81.011	-0.270	-0.090
-673.135	-131.238	0.603	0.081
-672.120	53.905	-0.189	-0.183
-671.105	-150.899	-0.147	-0.011
-670.091	400.787	0.170	-0.358
-669.076	800.000	-0.197	0.763
-668.062	62.784	0.683	0.687
-667.047	-23.971	0.241	0.145
-666.032	800.000	-0.153	-0.648
-665.018	-200.000	0.035	0.154
-664.003	-43.817	-0.236	-0.120
-662.989	-123.872	-0.128	0.020
-661.974	-107.359	-0.242	0.054
-660.959	-200.000	-0.037	0.591
-659.945	-38.376	0.082	0.044
-658.930	800.000	0.188	-0.669
-657.916	21.251	0.573	-0.468
-656.901	-108.072	-0.887	0.193
-655.886	157.967	0.442	0.616
-654.872	16.624	0.310	0.247
-653.857	-68.906	-0.488	-0.189
-652.843	429.229	-0.320	-0.696
-651.828	57.433	-0.604	0.593
-650.814	609.075	0.365	0.915
-649.799	-37.780	0.423	-0.226
-648.784	-200.000	0.238	1.154
-647.770	71.062	-0.558	0.581
-646.755	800.000	-0.230	0.731
-645.741	133.086	0.156	0.202
-644.726	-115.705	1.008	0.190
-643.711	196.774	-0.329	-0.503
-642.697	-47.802	0.375	0.182
-641.682	182.679	0.345	0.512
-640.668	-133.878	-0.305	0.038
-639.653	-61.928	1.143	-0.480
-638.638	-124.936	-0.626	-0.097
-637.624	-200.000	0.025	-0.780
-636.609	-14.999	-0.445	0.286
-635.595	-200.000	0.021	0.386
-634.580	-35.245	-0.712	-0.389
-633.565	72.868	-0.770	-0.807
-632.551	-200.000	0.012	-0.410
-631.536	16.061	-0.252	0.199
-630.522	40.861	0.175	-0.159
-629.507	19.095	0.454	0.365
-628.492	-200.000	0.046	0.397
-627.478	-172.983	-0.574	0.018
-626.463	-146.914	0.532	-0.046
-625.449	-61.292	0.047	0.020
-624.434	-200.000	-0.042	-0.291
-623.419	-200.000	0.074	0.446
-622.405	18.415	-0.570	0.457
-621.390	-12.141	-0.671	0.441
-620.376	800.000	-0.173	-0.664
-619.361	51.365	-0.486	-0.463
-618.346	-200.000	0.006	-0.806
-617.332	-71.302	-0.438	0.165
-616.317	-200.000	-0.031	-0.544
-615.303	-133.839	0.252	0.031
-614.288	-125.370	0.708	-0.108
-613.273	800.000	-0.289	0.865
-612.259	356.899	0.120	-0.241
-611.244	800.000	-0.078	0.296
-610.230	-124.109	0.936	0.147
-609.215	197.222	-0.520	0.797
-608.201	28.343	0.509	-0.431
-607.186	25.823	0.635	0.531
-606.171	-200.000	-0.012	-0.233
-605.157	76.776	0.334	-0.356
-604.142	-92.788	-0.401	0.113
-603.128	800.000	0.162	-0.473
-602.113	40.544	0.468	-0.423
-601.098	-200.000	0.165	0.869
-600.084	-200.000	0.094	0.829
-599.069	-83.167	-0.451	-0.145
-598.055	-200.000	-0.128	-0.730
-597.040	-142.195	-0.579	-0.058
-596.025	-200.000	-0.084	0.423
-595.011	218.863	0.268	-0.429
-593.996	-108.959	-0.775	0.166
-592.982	36.661	-0.527	0.467
-591.967	800.000	-0.221	-0.783
-590.952	-200.000	-0.021	0.267
-589.938	800.000	0.124	-0.520
-588.923	800.000	-0.315	1.103
-587.909	238.746	0.121	-0.202
-586.894	117.973	0.289	-0.357
-585.879	30.676	-0.792	0.679
-584.865	800.000	-0.119	-0.384
-583.850	70.955	0.200	0.208
-582.836	25.117	-0.146	-0.121
-581.821	242.983	0.235	0.395
-580.806	87.884	-0.462	-0.513
-579.792	102.172	-0.578	-0.677
-578.777	-156.403	0.286	0.018
-577.763	18.950	0.394	-0.317
-576.748	-115.748	0.890	-0.167
-575.733	-167.891	-0.440	-0.017
-574.719	800.000	-0.174	-0.533
-573.704	-200.000	-0.071	-0.436
-572.690	-200.000	0.086	-0.481
-571.675	47.203	0.800	0.746
-570.661	233.477	0.189	-0.311
-569.646	-39.793	-0.392	-0.205
-568.631	4.690	-0.294	-0.216
-567.617	800.000	-0.261	-0.821
-566.602	-200.000	-0.107	-0.678
-565.588	-110.952	-0.347	0.072
-564.573	45.656	-0.648	-0.600
-563.558	7.313	0.459	0.343
-562.544	-89.916	1.069	0.313
-561.529	-200.000	-0.017	-0.309
-560.515	-69.891	0.518	-0.198
-559.500	-157.726	-0.828	-0.049
-558.485	146.391	-0.383	0.515
-557.471	331.579	0.410	0.793
-556.456	-36.985	-0.367	0.197
-555.442	-4.974	0.251	-0.173
-554.427	-42.614	-0.270	0.138
-553.412	-75.842	0.109	-0.039
-552.398	337.014	0.349	0.679
-551.383	-146.205	-0.675	-0.059
-550.369	-0.722	-0.550	0.390
-549.354	-94.126	-0.290	0.080
-548.339	-92.578	-0.412	0.116
-547.325	-109.299	-0.258	-0.055
-546.310	-200.000	-0.140	0.842
-545.296	-200.000	0.008	0.096
-544.281	101.279	0.232	0.270
-543.266	-65.982	0.834	0.333
-542.252	800.000	-0.063	0.206
-541.237	-200.000	0.151	-0.894
-540.223	47.408	0.461	0.430
-539.208	-70.634	-0.171	-0.065
-538.193	-150.303	0.623	0.048
-537.179	-129.495	0.479	-0.066
-536.164	800.000	0.106	-0.297
-535.150	80.794	0.365	0.394
-534.135	70.006	0.448	0.463
-533.121	-200.000	-0.034	0.158
-532.106	-123.232	-0.873	0.140
-531.091	-112.293	-0.105	-0.021
-530.077	-95.610	-0.367	0.098
-529.062	-21.157	0.615	-0.376
-528.048	-200.000	0.035	0.179
-527.033	-123.792	-0.164	-0.026
-526.018	246.443	0.091	0.153
-525.004	-200.000	-0.080	0.514
-523.989	-105.017	1.011	0.232
-522.975	-34.554	0.452	-0.247
-521.960	-200.000	0.530	0.002
-520.945	635.320	-0.066	-0.168
-519.931	-200.000	0.101	-0.450
-518.916	250.019	-0.240	0.407
-517.902	199.264	0.208	-0.319
-516.887	81.005	-0.496	-0.536
-515.872	220.464	-0.408	-0.653
-514.858	-37.166	-0.509	0.272
-513.843	800.000	0.171	0.604
-512.829	33.440	-0.504	0.438
-511.814	800.000	0.038	0.132
-510.799	-91.845	-0.273	0.077
-509.785	-177.595	-0.384	0.009
-508.770	-58.801	0.546	0.236
-507.756	22.628	-0.693	-0.567
-506.741	-80.119	-0.186	0.062
-505.726	800.000	0.054	-0.223
-504.712	-96.570	-0.439	0.116
-503.697	800.000	0.047	-0.162
-502.683	800.000	0.015	0.055
-501.668	-169.610	-1.018	0.037
-500.653	-74.112	0.581	0.210
-499.639	45.914	-0.620	-0.573
-498.624	-114.479	0.842	0.162
-497.610	652.319	-0.121	-0.309
-496.595	800.000	-0.075	-0.297
-495.581	100.909	0.253	-0.294
-494.566	208.133	-0.072	-0.112
-493.551	570.064	0.217	-0.526
-492.537	116.912	0.302	0.370
-491.522	-6.079	0.429	0.293
-490.508	89.504	-0.737	-0.821
-489.493	611.330	0.151	-0.378
-488.478	39.050	-0.393	-0.350
-487.464	418.269	-0.219	-0.468
-486.449	-148.943	0.092	0.007
-485.435	-200.000	-0.093	1.413
-484.420	12.883	0.328	0.253
-483.405	-57.630	0.216	0.094
-482.391	-200.000	0.084	0.685
-481.376	7.890	0.235	-0.176
-480.362	522.550	0.228	-0.534
-479.347	-6.774	1.081	-0.734
-478.332	159.270	-0.109	0.151
-477.318	-48.331	-0.394	0.190
-476.303	800.000	-0.121	-0.446
-475.289	-200.000	-0.044	-0.446
-474.274	84.455	0.674	-0.736
-473.259	-159.350	-0.281	-0.016
-472.245	-104.511	-0.613	-0.141
-471.230	-75.903	-0.348	0.123
-470.216	266.303	0.216	0.377
-469.201	-125.988	0.851	-0.128
-468.186	-111.437	-0.235	-0.048
-467.172	-200.000	0.024	-0.350
-466.157	43.280	0.472	0.430
-465.143	-8.729	-0.334	0.223
-464.128	-1.660	-0.264	-0.185
-463.113	-87.246	0.557	0.169
-462.099	-100.219	-0.500	-0.124
-461.084	-141.290	-0.563	-0.057
-460.070	-111.514	-1.704	0.346
-459.055	-151.767	0.775	0.057
-458.040	800.000	0.134	0.495
-457.026	-117.514	-0.654	-0.118
-456.011	800.000	-0.040	-0.162
-454.997	175.275	-0.334	0.483
-453.982	-82.486	-0.025	0.008
-452.968	-135.137	0.598	-0.072
-451.953	800.000	-0.309	-1.144
-450.938	19.953	0.848	-0.682
-449.924	-57.115	0.683	-0.300
-448.909	-200.000	0.007	0.340
-447.895	-81.860	0.356	0.116
-446.880	197.579	0.171	0.260
-445.865	-200.000	-0.108	0.539
-444.851	221.448	-0.287	0.459
-443.836	30.375	-0.506	0.431
-442.822	-74.025	-0.444	0.160
-441.807	-35.167	-0.677	0.367
-440.792	97.397	-0.472	0.540
-439.778	-133.686	-0.685	0.085
-438.763	535.429	0.071	-0.167
-437.749	23.748	-0.469	0.385
-436.734	-64.318	-0.451	-0.183
-435.719	800.000	0.253	0.726
-434.705	-55.354	-0.341	-0.152
-433.690	-125.743	0.947	-0.143
-432.676	274.494	0.141	0.248
-431.661	183.359	-0.351	-0.517
-430.646	800.000	0.404	-1.112
-429.632	-140.346	-0.077	-0.008
-428.617	-19.615	-0.850	0.524
-427.603	-17.825	-0.347	-0.217
-426.588	-200.000	0.001	-0.064
-425.573	-112.417	-0.430	-0.086
-424.559	-200.000	0.023	-0.820
-423.544	-97.875	-0.757	-0.195
-422.530	25.442	-0.398	0.329
-421.515	35.914	-0.189	0.166
-420.500	731.145	0.160	0.427
-419.486	800.000	0.139	-0.487
-418.471	451.824	-0.223	0.490
-417.457	-37.060	-0.656	-0.350
-416.442	-32.396	0.846	0.470
-415.428	-23.439	0.435	0.260
-414.413	-200.000	-0.165	-0.898
-413.398	338.917	0.263	0.509
-412.384	99.513	-0.540	-0.622
-411.369	-173.406	-0.390	0.012
-410.355	-141.374	-0.603	-0.061
-409.340	-200.000	-0.153	1.032
-408.325	-136.661	-0.797	-0.092
-407.311	142.071	-0.764	1.009
-406.296	325.803	0.515	-0.981
-405.282	153.184	0.731	0.995
-404.267	-42.343	0.254	-0.129
-403.252	184.373	0.304	-0.448
-402.238	800.000	-0.079	0.238
-401.223	121.805	-0.399	-0.495
-400.209	170.927	0.297	0.424
-399.194	1.084	-0.265	-0.189
-398.179	-72.378	0.738	-0.272
-397.165	-200.000	0.028	0.245
-396.150	48.647	-0.243	0.227
-395.136	357.500	0.509	-1.009
-394.121	11.619	0.563	0.430
-393.106	293.080	-0.444	-0.805
-392.092	-200.000	-0.056	0.574
-391.077	-200.000	0.022	0.354
-390.063	184.168	0.231	-0.340
-389.048	-38.085	0.673	-0.355
-388.033	707.334	0.144	0.378
-387.019	-2.444	0.251	-0.175
-386.004	-149.568	0.494	-0.039
-384.990	800.000	-0.192	0.546
-383.975	360.073	0.039	-0.078
-382.960	397.038	-0.070	0.146
-381.946	135.383	0.084	0.109
-380.931	-65.020	0.337	-0.135
-379.917	-111.061	0.687	0.140
-378.902	-3.031	0.036	-0.025
-377.888	105.344	0.212	-0.249
-376.873	145.514	0.520	0.692
-375.858	-200.000	-0.023	0.306
-374.844	66.487	0.244	0.246
-373.829	78.778	-0.223	0.237
-372.815	-60.815	-0.271	0.114
-371.800	800.000	-0.068	0.238
-370.785	605.357	-0.192	0.474
-369.771	14.041	-0.338	-0.262
-368.756	-36.967	-0.458	0.244
-367.742	-71.625	0.134	-0.050
-366.727	76.591	-0.420	0.443
-365.712	216.933	-0.290	0.459
-364.698	-67.914	-0.417	-0.162
-363.683	116.391	0.205	-0.250
-362.669	-200.000	0.063	-0.357
-361.654	44.930	0.133	-0.121
-360.639	65.372	-0.473	-0.476
-359.625	-34.066	-0.678	0.370
-358.610	95.374	0.339	0.384
-357.596	-119.378	1.064	-0.184
-356.581	-181.827	-0.530	-0.010
-355.566	423.303	0.600	-1.280
-354.552	-42.874	0.054	0.027
-353.537	-51.527	0.710	-0.329
-352.523	-147.634	0.474	-0.040
-351.508	800.000	-0.445	-1.244
-350.493	72.174	0.343	0.354
-349.479	-126.443	-0.758	-0.112
-348.464	318.965	0.060	-0.112
-347.450	800.000	-0.141	0.476
-346.435	-60.798	0.299	0.126
-345.420	136.974	0.433	0.562
-344.406	800.000	-0.066	-0.185
-343.391	-53.315	-0.767	-0.349
-342.377	-65.952	-0.212	-0.084
-341.362	-109.207	0.806	0.170
-340.348	-61.109	-0.679	0.284
-339.333	-37.646	0.367	-0.194
-338.318	284.245	0.173	-0.310
-337.304	578.610	0.214	-0.519
-336.289	128.421	0.461	-0.583
-335.275	211.787	0.237	-0.370
-334.260	-166.055	-0.402	0.017
-333.245	-200.000	-0.076	0.397
-332.231	-200.000	-0.073	0.559
-331.216	-200.000	0.060	-1.064
-330.202	-79.591	0.385	0.129
-329.187	-96.093	-0.360	-0.095
-328.172	-62.567	0.349	-0.144
-327.158	-87.391	-1.170	-0.352
-326.143	-146.268	-0.557	0.048
-325.129	-200.000	0.251	0.001
-324.114	-81.550	-0.610	0.199
-323.099	-200.000	0.133	0.871
-322.085	30.747	0.129	0.109
-321.070	-200.000	-0.023	-0.189
-320.056	-6.827	-0.218	0.147
-319.041	800.000	-0.295	0.889
-318.026	531.031	0.350	0.822
-317.012	-87.378	-0.781	-0.235
-315.997	452.225	-0.199	-0.436
-314.983	-200.000	0.028	0.212
-313.968	-49.620	-0.181	0.085
-312.953	-200.000	-0.055	0.889
-311.939	51.828	-0.521	0.491
-310.924	156.309	-0.242	-0.332
-309.910	-33.305	0.124	0.068
-308.895	-200.000	0.027	-0.523
-307.880	-128.799	0.397	-0.055
-306.866	-200.000	0.086	-0.944
-305.851	117.519	0.175	0.214
-304.837	288.536	0.277	-0.497
-303.822	-37.755	0.351	-0.185
-302.807	-193.271	-0.869	0.008
-301.793	550.918	-0.204	0.486
-300.778	586.970	0.337	0.822
-299.764	185.677	0.180	0.266
-298.749	-64.004	-0.405	0.164
-297.735	-200.000	-0.128	0.568
-296.720	-164.725	-0.822	0.037
-295.705	153.885	0.357	0.485
-294.691	619.795	0.178	0.442
-293.676	-200.000	0.190	1.013
-292.662	86.678	-0.415	0.454
-291.647	-200.000	0.011	-0.421
-290.632	84.254	-0.235	0.254
-289.618	-200.000	-0.226	-1.133
-288.603	-43.873	0.385	0.192
-287.589	-64.279	0.640	-0.258
-286.574	-57.938	-0.837	-0.362
-285.559	-120.982	0.914	-0.152
-284.545	48.957	0.235	0.218
-283.530	800.000	-0.034	0.109
-282.516	559.938	0.182	0.435
-281.501	134.826	-0.331	0.426
-280.486	37.449	0.431	-0.378
-279.472	129.815	0.158	0.200
-278.457	-24.297	-0.145	-0.086
-277.443	-187.178	0.878	0.012
-276.428	20.262	-0.048	0.038
-275.413	-95.921	0.173	-0.046
-274.399	266.375	-0.256	-0.443
-273.384	16.545	0.432	-0.338
-272.370	81.368	0.519	0.555
-271.355	-116.668	-0.273	0.050
-270.340	286.063	0.241	0.430
-269.326	289.473	-0.222	0.399
-268.311	238.077	0.648	1.064
-267.297	800.000	0.217	-0.708
-266.282	413.912	-0.311	-0.655
-265.267	91.468	-0.209	0.232
-264.253	-200.000	0.002	-0.458
-263.238	-134.980	0.186	-0.022
-262.224	772.112	0.265	0.715
-261.209	-108.399	1.006	-0.215
-260.195	268.231	0.176	-0.305
-259.180	110.582	0.220	0.262
-258.165	-200.000	-0.039	-0.402
-257.151	-119.891	0.721	-0.123
-256.136	441.309	0.267	-0.578
-255.122	-53.558	0.817	0.370
-254.107	59.798	0.497	-0.486
-253.092	-13.396	0.470	0.301
-252.078	-44.154	-0.344	0.171
-251.063	-200.000	0.029	-0.318
-250.049	-20.049	-0.354	0.216
-249.034	-200.000	0.111	-0.675
-248.019	143.976	-0.151	0.200
-247.005	284.448	-0.088	0.156
-245.990	-79.807	0.481	0.160
-244.976	-200.000	-0.043	-0.542
-243.961	456.862	-0.127	-0.278
-242.946	26.487	-0.633	-0.524
-241.932	-200.000	-0.027	0.152
-240.917	-78.114	0.177	0.060
-239.903	-75.351	-0.243	-0.086
-238.888	-57.612	-1.004	-0.435
-237.873	-200.000	-0.074	-0.421
-236.859	48.345	-0.758	-0.701
-235.844	800.000	-0.277	-0.814
-234.830	136.043	0.233	0.300
-233.815	-64.786	0.204	0.081
-232.800	-104.742	0.112	0.025
-231.786	379.300	0.121	-0.245
-230.771	-200.000	0.229	-1.022
-229.757	264.348	-0.234	0.402
-228.742	89.662	-0.581	-0.641
-227.727	115.209	-0.092	0.111
-226.713	800.000	-0.159	0.576
-225.698	800.000	0.067	-0.214
-224.684	545.558	0.121	-0.286
-223.669	-133.132	0.372	0.047
-222.655	-200.000	-0.014	-0.354
-221.640	29.051	0.125	0.105
-220.625	-104.035	1.083	0.249
-219.611	-91.783	-0.211	0.059
-218.596	-200.000	-0.012	0.129
-217.582	116.427	-0.548	-0.664
-216.567	76.828	0.472	-0.495
-215.552	34.691	0.521	-0.450
-214.538	-200.000	0.012	-0.173
-213.523	-41.928	0.066	0.033
-212.509	-2.394	-0.661	0.458
-211.494	-75.202	0.462	-0.163
-210.479	-71.883	-0.299	0.110
-209.465	22.901	0.770	-0.624
-208.450	94.502	-0.683	-0.767
-207.436	-107.645	-0.388	0.084
-206.421	-200.000	0.077	-0.380
-205.406	246.854	0.324	0.539
-204.392	-200.000	0.185	1.076
-203.377	-200.000	-0.047	-0.721
-202.363	546.728	-0.299	-0.706
-201.348	800.000	-0.122	0.443
-200.333	86.112	0.389	0.423
-199.319	715.727	-0.097	0.255
-198.304	177.901	-0.416	0.598
-197.290	-200.000	-0.042	0.309
-196.275	800.000	0.156	-0.629
-195.260	260.930	0.293	0.500
-194.246	-93.053	-0.143	-0.039
-193.231	422.653	-0.469	-0.993
-192.217	464.539	0.134	0.296
-191.202	-110.175	-0.269	0.055
-190.187	-147.504	0.587	-0.049
-189.173	800.000	0.231	0.688
-188.158	-138.319	0.902	0.098
-187.144	257.286	-0.435	0.737
-186.129	800.000	-0.121	0.434
-185.114	-200.000	0.023	-0.601
-184.100	800.000	0.112	-0.410
-183.085	46.775	0.538	0.493
-182.071	168.792	0.592	-0.833
-181.056	-200.000	0.025	0.375
-180.042	64.519	-0.301	0.300
-179.027	-64.405	0.379	0.152
-178.012	-124.065	0.576	-0.089
-176.998	52.656	0.165	-0.156
-175.983	-94.328	-0.812	0.219
-174.969	12.324	0.690	0.525
-173.954	151.666	0.749	1.007
-172.939	106.030	-0.542	0.632
-171.925	-155.841	-0.789	-0.050
-170.910	709.642	-0.006	0.016
-169.896	244.689	0.322	-0.534
-168.881	-142.031	-0.550	-0.054
-167.866	168.582	-0.288	-0.405
-166.852	-16.103	-0.016	-0.010
-165.837	-200.000	-0.100	-0.760
-164.823	40.455	-0.599	0.531
-163.808	-200.000	0.041	0.671
-162.793	-67.199	0.654	0.254
-161.779	-176.117	0.263	-0.007
-160.764	29.142	0.200	-0.167
-159.750	56.968	0.749	0.720
-158.735	428.974	0.353	-0.752
-157.720	156.906	-0.231	0.314
-156.706	800.000	-0.052	0.166
-155.691	-200.000	-0.032	-0.384
-154.677	-200.000	0.073	-0.545
-153.662	800.000	-0.095	-0.351
-152.647	12.227	0.203	0.154
-151.633	-48.448	-0.228	0.108
-150.618	663.739	0.285	0.724
-149.604	800.000	0.206	0.715
-148.589	51.695	0.192	0.180
-147.574	401.495	0.371	0.767
-146.560	224.130	-0.310	0.494
-145.545	-200.000	-0.043	0.761
-144.531	-200.000	0.085	-0.659
-143.516	-200.000	-0.046	-0.507
-142.502	23.381	-0.187	0.151
-141.487	176.394	-0.191	0.273
-140.472	-200.000	0.135	-0.772
-139.458	439.119	-0.533	1.145
-138.443	153.129	-0.174	-0.234
-137.429	800.000	0.161	-0.497
-136.414	47.345	-0.182	-0.167
-135.399	-45.081	-0.209	-0.103
-134.385	-4.922	0.798	0.542
-133.370	10.925	0.110	-0.083
-132.356	760.062	-0.146	0.389
-131.341	-200.000	0.021	-0.324
-130.326	633.044	-0.054	-0.136
-129.312	13.605	-0.579	-0.443
-128.297	-39.237	-0.313	0.162
-127.283	-200.000	-0.040	-0.520
-126.268	-200.000	0.078	-0.413
-125.253	800.000	0.224	-0.670
-124.239	-155.058	-0.371	-0.024
-123.224	-69.596	-0.501	0.189
-122.210	215.729	0.388	0.606
-121.195	-200.000	-0.035	0.556
-120.180	58.970	0.318	-0.307
-119.166	-200.000	0.110	-0.474
-118.151	800.000	0.038	-0.145
-117.137	115.028	-0.403	-0.484
-116.122	237.234	0.082	0.134
-115.107	-200.000	-0.008	0.300
-114.093	152.202	-0.214	-0.288
-113.078	72.437	-0.205	-0.211
-112.064	-200.000	0.028	0.537
-111.049	-200.000	0.067	0.749
-110.034	20.950	0.921	0.735
-109.020	-124.141	-0.314	0.048
-108.005	800.000	0.242	0.950
-106.991	-147.483	-0.385	-0.032
-105.976	71.913	0.185	-0.189
-104.962	-73.690	0.214	-0.077
-103.947	-11.147	0.576	0.373
-102.932	-92.496	-0.628	-0.173
-101.918	-16.431	0.140	0.087
-100.903	130.805	-0.161	0.203
-99.889	-200.000	-0.223	-1.285
-98.874	13.129	-0.798	-0.607
-97.859	-110.360	-0.479	0.098
-96.845	-50.880	0.172	-0.079
-95.830	800.000	0.137	0.488
-94.816	-87.359	0.415	-0.124
-93.801	17.913	-0.368	-0.288
-92.786	-117.074	-0.158	0.028
-91.772	-73.649	0.707	0.253
-90.757	-200.000	-0.020	0.629
-89.743	-58.134	1.141	0.489
-88.728	0.240	0.229	-0.161
-87.713	-200.000	0.049	-0.210
-86.699	-200.000	-0.037	-0.501
-85.684	-200.000	0.016	0.143
-84.670	-200.000	0.117	1.163
-83.655	-91.254	0.501	0.141
-82.640	444.054	0.105	0.227
-81.626	-42.201	0.130	0.065
-80.611	-105.902	0.381	-0.084
-79.597	-78.752	-0.851	0.285
-78.582	-200.000	0.077	0.456
-77.567	-81.718	-0.500	-0.161
-76.553	-53.335	0.549	0.247
-75.538	-162.273	-0.438	-0.021
-74.524	236.041	0.473	0.768
-73.509	800.000	-0.118	-0.428
-72.494	-200.000	0.080	-0.521
-71.480	-80.496	0.439	0.144
-70.465	-10.375	-0.508	0.331
-69.451	-151.809	-0.760	-0.055
-68.436	-149.003	-0.247	-0.020
-67.422	125.437	-0.141	0.175
-66.407	269.278	-0.039	0.068
-65.392	-140.199	-0.363	0.037
-64.378	-166.144	0.774	0.032
-63.363	27.985	-0.141	-0.117
-62.349	-21.667	-0.458	-0.274
-61.334	146.815	-0.810	-1.069
-60.319	6.232	0.581	0.423
-59.305	619.113	-0.443	-1.093
-58.290	800.000	0.462	1.372
-57.276	-200.000	0.224	1.199
-56.261	-200.000	96.470	600.850
-55.246	634.967	1368.021	3406.907
-54.232	200.808	2544.486	3841.204
-53.217	111.751	2248.677	2664.230
-52.203	41.269	1880.059	1668.362
-51.188	35.137	1672.344	1438.116
-50.173	32.353	1629.319	1380.660
-49.159	51.418	1680.811	1566.816
-48.144	52.012	1696.223	1585.537
-47.130	34.468	1656.700	1419.455
-46.115	31.743	1642.306	1386.930
-45.100	31.607	1637.220	1381.570
-44.086	31.913	1633.651	1380.757
-43.071	31.690	1631.943	1377.620
-42.057	31.511	1629.899	1374.524
-41.042	31.692	1626.250	1372.725
-40.027	31.685	1624.979	1371.539
-39.013	31.697	1623.819	1370.595
-37.998	31.658	1621.778	1368.532
-36.984	31.361	1621.857	1366.379
-35.969	31.732	1619.176	1366.772
-34.954	31.824	1616.897	1365.464
-33.940	31.922	1615.270	1364.747
-32.925	31.714	1613.718	1361.870
-31.911	31.707	1612.400	1360.655
-30.896	31.778	1609.857	1358.965
-29.881	31.679	1609.079	1357.539
-28.867	31.856	1607.006	1357.019
-27.852	31.776	1605.699	1355.284
-26.838	31.710	1604.051	1353.363
-25.823	31.694	1602.473	1351.862
-24.809	31.904	1601.878	1352.822
-23.794	31.623	1600.636	1349.688
-22.779	31.849	1598.310	1349.301
-21.765	31.746	1597.741	1348.025
-20.750	31.839	1595.046	1346.368
-19.736	31.848	1593.554	1345.123
-18.721	31.925	1592.476	1344.707
-17.706	31.550	1592.194	1341.730
-16.692	31.781	1590.259	1341.699
-15.677	31.672	1589.162	1339.939
-14.663	31.847	1587.208	1339.492
-13.648	31.720	1585.460	1337.058
-12.633	31.603	1584.747	1335.565
-11.619	31.779	1583.068	1335.353
-10.604	31.852	1581.225	1334.268
-9.590	31.841	1579.911	1333.024
-8.575	31.837	1578.227	1331.526
-7.560	31.693	1578.180	1330.406
-6.546	31.955	1577.164	1331.356
-5.531	31.783	1575.449	1328.637
-4.517	31.794	1574.727	1328.055
-3.502	31.826	1573.711	1327.370
-2.487	31.996	1571.050	1326.274
-1.473	31.492	1560.292	1313.602
-0.458	28.579	1540.221	1276.424
0.556	26.656	1541.299	1244.705
1.571	24.111	1564.813	1245.799
2.586	23.529	1577.448	1251.648
3.600	21.184	1524.075	1193.181
4.615	12.709	1416.412	1054.740
5.629	5.052	1352.613	960.149
6.644	3.596	1343.970	945.024
7.659	3.329	1343.692	943.108
8.673	3.343	1343.419	942.919
9.688	3.492	1340.847	941.943
10.702	3.279	1336.921	937.802
11.717	6.849	1344.134	964.604
12.731	16.007	1360.053	1032.288
13.746	23.475	1371.868	1087.133
14.761	24.746	1375.555	1097.766
15.775	24.386	1374.184	1094.366
16.790	24.096	1372.416	1091.088
17.804	23.973	1370.262	1088.525
18.819	24.006	1370.732	1089.004
19.834	24.145	1368.283	1087.810
20.848	24.184	1367.253	1087.134
21.863	24.343	1366.602	1087.488
22.877	24.092	1365.604	1085.067
23.892	24.005	1365.265	1084.176
24.907	23.995	1364.522	1083.424
25.921	24.156	1363.225	1083.281
26.936	23.966	1362.955	1081.812
27.950	23.819	1362.113	1080.158
28.965	24.057	1361.253	1080.824
29.980	23.970	1359.961	1079.173
30.994	24.284	1358.589	1079.896
32.009	24.194	1357.827	1078.648
33.023	24.178	1357.028	1077.822
34.038	24.024	1355.446	1075.541
35.053	23.972	1355.594	1075.246
36.067	24.102	1353.554	1074.317
37.082	24.092	1351.761	1072.740
38.096	23.778	1352.019	1070.959
39.111	24.027	1351.014	1071.564
40.126	24.072	1350.308	1071.179
41.140	23.721	1349.404	1068.260
42.155	23.460	1349.403	1066.591
43.169	23.621	1347.963	1066.330
44.184	23.461	1348.347	1065.578
45.199	23.722	1348.249	1066.971
46.213	23.543	1349.134	1066.504
47.228	23.753	1347.667	1066.509
48.242	24.082	1346.066	1067.119
49.257	23.954	1344.377	1064.919
50.271	23.998	1343.045	1064.034
51.286	24.207	1341.644	1064.079
52.301	24.046	1340.812	1062.362
53.315	23.798	1339.503	1059.754
54.330	23.674	1339.176	1058.662
55.344	23.703	1337.762	1057.620
56.359	23.806	1336.454	1057.110
57.374	23.552	1335.806	1054.990
58.388	23.587	1335.746	1055.057
59.403	23.622	1335.297	1054.816
60.417	23.508	1334.059	1053.073
61.432	23.667	1332.178	1052.435
62.447	23.514	1332.547	1051.728
63.461	23.330	1330.605	1049.009
64.476	23.573	1329.947	1049.836
65.490	23.490	1328.872	1048.403
66.505	23.407	1327.948	1047.096
67.520	23.682	1325.722	1046.870
68.534	23.511	1325.334	1045.458
69.549	23.444	1324.187	1044.065
70.563	23.425	1323.207	1043.091
71.578	23.241	1322.070	1041.022
72.593	22.871	1322.041	1038.731
73.607	23.100	1320.578	1038.833
74.622	23.302	1318.949	1038.643
75.636	23.218	1319.781	1038.718
76.651	23.337	1318.367	1038.207
77.666	23.580	1317.880	1039.157
78.680	23.384	1317.745	1037.809
79.695	23.578	1317.155	1038.392
80.709	23.538	1317.510	1038.346
81.724	23.661	1315.441	1037.340
82.739	23.544	1315.150	1036.336
83.753	24.060	1314.516	1038.753
84.768	24.389	1313.426	1039.719
85.782	24.141	1313.572	1038.298
86.797	24.130	1311.271	1036.321
87.812	24.068	1310.642	1035.371
88.826	23.959	1309.615	1033.834
89.841	24.061	1309.527	1034.270
90.855	24.022	1308.034	1032.773
91.870	24.410	1306.564	1033.766
92.884	24.326	1306.180	1032.887
93.899	24.093	1306.591	1031.770
94.914	24.267	1304.230	1030.822
95.928	24.268	1304.055	1030.599
96.943	24.185	1303.861	1029.874
97.957	24.464	1301.402	1029.450
98.972	24.192	1301.243	1027.665
99.987	24.143	1300.388	1026.614
101.001	24.253	1298.981	1026.047
102.016	24.149	1298.027	1024.602
103.030	24.124	1297.577	1024.014
104.045	24.060	1296.891	1023.012
105.060	24.004	1294.614	1020.805
106.074	23.842	1294.167	1019.436
107.089	23.676	1293.103	1017.557
108.103	23.521	1290.362	1014.419
109.118	23.376	1290.601	1013.690
110.133	23.249	1288.803	1011.463
111.147	23.289	1288.200	1011.129
112.162	23.387	1286.728	1010.440
113.176	23.790	1284.964	1011.264
114.191	23.523	1284.563	1009.338
115.206	23.565	1284.381	1009.345
116.220	23.670	1282.949	1008.726
117.235	23.547	1281.612	1006.886
118.249	23.584	1280.059	1005.790
119.264	23.528	1278.950	1004.510
120.279	23.294	1278.479	1002.727
121.293	23.455	1278.013	1003.182
122.308	23.042	1277.611	1000.442
123.322	22.988	1275.579	998.458
124.337	23.115	1274.622	998.337
125.352	22.902	1275.165	997.472
126.366	23.166	1274.337	998.224
127.381	23.061	1272.528	996.131
128.395	23.063	1271.172	994.993
129.410	22.685	1270.651	992.366
130.424	23.046	1270.367	994.089
131.439	23.121	1269.749	993.941
132.454	23.413	1268.613	994.603
133.468	23.613	1268.120	995.246
134.483	23.601	1267.879	994.904
135.497	23.447	1267.046	993.301
136.512	23.688	1264.675	992.702
137.527	23.556	1263.984	991.330
138.541	23.590	1262.952	990.626
139.556	23.615	1262.334	990.193
140.570	23.482	1261.692	988.860
141.585	24.154	1260.563	991.631
142.600	24.064	1259.541	990.236
143.614	24.306	1259.705	991.622
144.629	24.186	1257.706	989.298
145.643	24.110	1257.226	988.412
146.658	24.093	1255.538	986.900
147.673	23.835	1254.982	984.948
148.687	23.825	1253.234	983.433
149.702	23.712	1252.118	981.843
150.716	23.344	1250.374	978.358
151.731	23.293	1248.745	976.719
152.746	23.232	1248.341	975.977
153.760	23.588	1247.780	977.416
154.775	23.955	1246.107	978.033
155.789	23.754	1246.006	976.767
156.804	23.860	1244.249	975.884
157.819	23.808	1244.112	975.403
158.833	24.001	1243.352	975.781
159.848	23.831	1243.128	974.587
160.862	24.029	1241.026	973.936
161.877	23.588	1241.333	971.676
162.892	23.614	1239.192	970.054
163.906	23.544	1237.900	968.576
164.921	23.476	1237.080	967.479
165.935	23.662	1236.832	968.215
166.950	23.728	1236.316	968.081
167.964	23.887	1234.310	967.291
168.979	23.759	1234.045	966.300
169.994	23.582	1233.884	965.129
171.008	23.416	1233.718	964.010
172.023	23.831	1232.547	965.262
173.037	24.056	1231.794	965.811
174.052	23.820	1232.404	964.921
175.067	23.864	1229.469	962.774
176.081	23.701	1228.732	961.233
177.096	23.354	1228.914	959.413
178.110	23.324	1226.995	957.668
179.125	23.530	1226.009	957.924
180.140	23.727	1225.327	958.371
181.154	23.842	1224.848	958.531
182.169	24.098	1224.099	959.239
183.183	23.884	1222.798	956.981
184.198	23.924	1221.723	956.271
185.213	24.222	1219.754	956.246
186.227	24.082	1219.315	955.068
187.242	24.152	1219.271	955.324
188.256	24.072	1217.512	953.428
189.271	24.022	1216.945	952.636
190.286	24.082	1215.921	952.069
191.300	23.687	1215.133	949.257
192.315	23.646	1214.428	948.404
193.329	23.899	1213.319	948.802
194.344	23.608	1213.014	946.928
195.359	23.294	1213.025	945.178
196.373	23.180	1212.130	943.787
197.388	23.460	1211.551	944.746
198.402	23.802	1211.360	946.336
199.417	24.117	1211.407	947.966
200.432	24.336	1211.034	948.754
201.446	24.404	1209.725	948.006
202.461	24.355	1209.118	947.186
203.475	24.152	1208.934	945.883
204.490	23.999	1206.939	943.427
205.504	23.496	1206.462	940.304
206.519	23.403	1204.703	938.355
207.534	23.364	1203.313	936.988
208.548	23.580	1202.298	937.252
209.563	23.321	1201.814	935.425
210.577	23.534	1200.226	935.227
211.592	23.558	1200.628	935.587
212.607	23.954	1199.635	936.815
213.621	24.153	1199.047	937.320
214.636	24.007	1197.332	935.129
215.650	24.147	1197.175	935.660
216.665	24.189	1195.031	934.120
217.680	24.405	1195.981	935.916
218.694	24.479	1195.029	935.473
219.709	24.160	1193.751	932.722
220.723	23.829	1194.257	931.302
221.738	24.172	1192.413	931.572
222.753	23.941	1192.144	930.072
223.767	23.645	1191.500	927.943
224.782	24.046	1190.446	929.133
225.796	24.370	1190.310	930.633
226.811	24.095	1190.667	929.399
227.826	24.148	1189.162	928.418
228.840	24.193	1188.575	928.110
229.855	24.184	1186.554	926.402
230.869	23.835	1187.003	924.857
231.884	23.685	1184.981	922.420
232.899	23.627	1184.564	921.710
233.913	23.684	1184.206	921.647
234.928	23.675	1183.441	920.924
235.942	23.583	1182.870	919.920
236.957	23.607	1181.533	918.927
237.972	23.470	1180.668	917.460
238.986	23.390	1180.399	916.756
240.001	23.730	1180.488	918.505
241.015	23.251	1179.392	915.097
242.030	23.591	1178.677	916.213
243.045	23.509	1178.490	915.566
244.059	24.087	1176.960	917.274
245.074	24.021	1176.693	916.646
246.088	23.854	1175.717	914.945
247.103	24.066	1175.589	915.854
248.117	24.480	1174.657	917.175
249.132	24.206	1174.333	915.434
250.147	24.582	1174.811	917.658
251.161	24.922	1173.640	918.404
252.176	24.740	1172.891	916.806
253.190	24.915	1172.896	917.624
254.205	25.080	1171.627	917.393
255.220	25.127	1171.109	917.151
256.234	24.963	1170.284	915.584
257.249	25.093	1169.503	915.558
258.263	24.873	1169.146	914.073
259.278	24.822	1168.654	913.345
260.293	25.166	1167.168	913.858
261.307	25.152	1167.741	914.154
262.322	25.097	1166.633	912.926
263.336	24.988	1165.298	911.247
264.351	25.098	1165.372	911.779
265.366	25.030	1165.320	911.314
266.380	24.898	1164.368	909.819
267.395	24.899	1163.853	909.343
268.409	24.822	1163.052	908.243
269.424	24.807	1161.764	907.080
270.439	24.691	1161.696	906.360
271.453	24.769	1160.443	905.695
272.468	24.744	1159.437	904.705
273.482	24.644	1158.347	903.269
274.497	24.142	1158.160	900.507
275.512	24.538	1157.677	902.053
276.526	24.672	1156.006	901.345
277.541	24.488	1156.081	900.397
278.555	24.661	1154.545	899.992
279.570	24.795	1155.395	901.247
280.585	25.143	1154.166	901.961
281.599	24.705	1154.337	899.811
282.614	24.868	1152.097	898.805
283.628	24.581	1150.683	896.182
284.643	24.528	1150.132	895.411
285.657	24.819	1149.037	895.933
286.672	24.407	1149.186	893.905
287.687	24.618	1147.459	893.541
288.701	24.591	1146.880	892.875
289.716	24.780	1145.497	892.663
290.730	24.649	1145.899	892.242
291.745	24.590	1145.230	891.348
292.760	24.381	1145.794	890.667
293.774	24.628	1144.810	891.056
294.789	24.973	1144.654	892.573
295.803	24.837	1144.166	891.436
296.818	24.578	1142.907	889.087
297.833	24.828	1140.740	888.563
298.847	24.611	1140.257	887.032
299.862	24.546	1139.374	885.946
300.876	24.555	1139.513	886.021
301.891	24.640	1139.486	886.342
302.906	25.017	1138.103	887.053
303.920	25.282	1137.560	887.863
304.935	25.246	1137.711	887.724
305.949	25.242	1137.775	887.677
306.964	24.958	1136.213	884.975
307.979	24.978	1135.200	884.205
308.993	25.303	1134.119	884.889
310.008	25.260	1133.764	884.322
311.022	25.137	1133.950	883.781
312.037	25.126	1131.748	881.936
313.052	24.867	1131.693	880.538
314.066	24.773	1129.698	878.451
315.081	24.646	1127.967	876.402
316.095	24.392	1128.190	875.250
317.110	24.497	1126.625	874.474
318.125	24.376	1126.026	873.342
319.139	24.667	1125.730	874.458
320.154	24.399	1125.347	872.769
321.168	24.324	1125.287	872.280
322.183	24.865	1123.679	873.599
323.197	24.784	1123.175	872.732
324.212	24.741	1123.392	872.616
325.227	24.276	1122.455	869.544
326.241	24.737	1122.081	871.421
327.256	24.452	1122.198	870.047
328.270	24.397	1120.577	868.447
329.285	24.763	1119.867	869.600
330.300	24.852	1117.923	868.442
331.314	24.613	1118.119	867.361
332.329	24.611	1116.713	866.183
333.343	24.332	1116.606	864.673
334.358	24.894	1115.323	866.323
335.373	24.944	1114.769	866.055
336.387	24.872	1115.211	865.976
337.402	25.114	1113.778	865.953
338.416	25.080	1114.104	865.965
339.431	25.010	1112.684	864.448
340.446	25.541	1111.965	866.374
341.460	25.671	1111.551	866.600
342.475	25.859	1111.204	867.156
343.489	25.462	1110.906	864.937
344.504	25.826	1109.724	865.690
345.519	25.735	1109.396	864.919
346.533	25.537	1109.048	863.624
347.548	25.858	1107.339	863.757
348.562	25.537	1107.447	862.222
349.577	25.571	1105.180	860.543
350.592	25.339	1104.366	858.726
351.606	25.139	1103.369	856.919
352.621	24.887	1102.598	855.039
353.635	24.974	1101.943	854.871
354.650	24.937	1100.471	853.480
355.665	24.872	1101.488	853.879
356.679	24.979	1100.405	853.474
357.694	24.887	1099.711	852.425
358.708	25.601	1097.799	854.259
359.723	25.242	1098.504	853.024
360.738	25.374	1097.326	852.659
361.752	25.160	1097.379	851.612
362.767	25.273	1096.606	851.474
363.781	25.262	1096.630	851.364
364.796	25.372	1096.904	852.020
365.810	25.461	1096.312	851.907
366.825	25.916	1095.164	853.095
367.840	25.997	1095.015	853.290
368.854	26.114	1094.878	853.657
369.869	25.869	1093.337	851.224
370.883	25.685	1093.415	850.340
371.898	25.444	1092.104	848.107
372.913	25.654	1091.288	848.392
373.927	25.428	1091.829	847.670
374.942	26.056	1089.271	848.565
375.956	25.768	1089.335	847.183
376.971	25.820	1088.973	847.073
377.986	25.581	1088.638	845.614
379.000	25.947	1087.730	846.553
380.015	25.974	1087.383	846.332
381.029	26.320	1087.247	847.773
382.044	26.063	1086.873	846.204
383.059	26.163	1084.717	844.916
384.073	26.055	1084.519	844.185
385.088	25.824	1084.010	842.632
386.102	25.814	1083.456	842.079
387.117	25.272	1082.600	838.808
388.132	25.448	1081.704	838.860
389.146	25.344	1080.358	837.259
390.161	25.448	1079.370	836.902
391.175	25.340	1079.547	836.461
392.190	25.519	1078.987	836.788
393.205	25.762	1078.273	837.290
394.219	26.259	1075.998	837.756
395.234	25.708	1075.327	834.608
396.248	25.449	1075.098	833.154
397.263	25.206	1074.790	831.714
398.278	25.563	1072.510	831.528
399.292	25.473	1073.434	831.752
400.307	25.585	1071.894	831.006
401.321	25.514	1070.146	829.249
402.336	25.211	1070.098	827.741
403.350	25.096	1070.430	827.390
404.365	25.229	1069.865	827.496
405.380	25.468	1068.552	827.508
406.394	25.127	1068.390	825.739
407.409	25.524	1067.456	826.770
408.423	26.045	1066.801	828.585
409.438	26.184	1066.631	829.017
410.453	26.186	1065.774	828.287
411.467	26.064	1065.475	827.419
412.482	26.004	1064.658	826.437
413.496	26.253	1064.093	827.069
414.511	26.148	1063.700	826.208
415.526	26.404	1063.095	826.837
416.540	26.425	1062.441	826.350
417.555	26.419	1062.257	826.105
418.569	26.254	1061.012	824.310
419.584	26.305	1060.700	824.227
420.599	26.280	1060.002	823.498
421.613	154.833	1404.262	1794.516
422.628	142.299	1454.391	1794.531
