DTS Sentinel unit serial number:	SN413079Multiplexer serial number:	ORYXHardware model number:	OX4-SRSoftware version number:	ORYX F/W v4.00 Oryx Data Collector v3.7.2.0data status	okinstallation	princeton_trtdifferential loss correction	single-endedforward channel	channel 2reverse channel	N/Adate	2019/09/12time	02:41:11forward acquisition time	60.00reverse acquisition time	0.00gamma	496.2192k internal	0.2326k external	0.2326temperature offset calibration	1.0091default loss term (dB/km)	0.3790temperature slope calibration	1.0000multiplexer offset coefficient	1.0000multiplexer slope coefficient	1.0000fibre end	0.00T internal ref (°C)	32.41T ext. ref 1 (°C)	2.08T ext. ref 2 (°C)	27.21length (m)	temperature (°C)	Stokes	anti-Stokes-747.200	-102.955	-0.175	-0.042
-746.185	183.886	0.083	-0.124
-745.171	-16.109	-0.425	0.272
-744.156	-50.617	-0.431	0.205
-743.142	-59.100	-0.151	0.066
-742.127	129.451	0.250	0.322
-741.112	-200.000	0.055	0.284
-740.098	149.889	-0.162	0.222
-739.083	-101.617	-0.154	0.038
-738.069	183.524	-0.296	0.442
-737.054	800.000	-0.177	-0.539
-736.039	-28.140	0.103	-0.060
-735.025	-200.000	0.003	0.394
-734.010	-127.560	-0.184	0.027
-732.996	-200.000	-0.018	0.287
-731.981	612.594	0.169	-0.427
-730.966	226.395	-0.081	-0.132
-729.952	502.341	-0.038	-0.089
-728.937	244.892	-0.136	0.230
-727.923	800.000	-0.043	-0.150
-726.908	41.155	-0.128	0.117
-725.894	8.926	-0.336	0.255
-724.879	-2.483	-0.165	-0.116
-723.864	-200.000	-0.066	-0.333
-722.850	331.284	-0.069	-0.134
-721.835	638.786	-0.204	-0.523
-720.821	315.709	-0.137	0.260
-719.806	78.515	-0.135	-0.146
-718.791	800.000	0.075	0.254
-717.777	-200.000	-0.100	0.000
-716.762	800.000	-0.150	-0.426
-715.748	-64.997	0.225	-0.092
-714.733	205.590	-0.085	0.133
-713.718	384.531	0.073	-0.152
-712.704	-21.981	-0.277	-0.169
-711.689	-200.000	-0.089	0.493
-710.675	-200.000	0.026	-0.254
-709.660	6.122	-0.063	0.047
-708.645	645.166	-0.098	-0.253
-707.631	-7.034	-0.180	0.123
-706.616	-200.000	-0.170	-0.000
-705.602	615.696	-0.181	-0.457
-704.587	194.276	0.124	-0.189
-703.572	75.205	0.142	-0.151
-702.558	-200.000	0.015	0.180
-701.543	477.500	-0.069	0.157
-700.529	-69.675	-0.326	0.126
-699.514	4.631	0.105	0.078
-698.499	-115.266	0.370	-0.071
-697.485	49.693	0.093	0.088
-696.470	126.787	-0.219	-0.279
-695.456	-200.000	0.016	-0.283
-694.441	22.729	-0.065	0.054
-693.426	800.000	0.057	-0.170
-692.412	41.400	-0.196	0.179
-691.397	-67.847	-0.203	-0.080
-690.383	-200.000	0.013	0.120
-689.368	-170.207	0.502	-0.018
-688.354	49.032	-0.136	-0.129
-687.339	267.182	-0.076	0.134
-686.324	800.000	0.056	-0.172
-685.310	-20.178	0.116	-0.072
-684.295	127.931	0.067	0.086
-683.281	-88.949	0.130	-0.039
-682.266	116.653	-0.322	-0.398
-681.251	-157.701	0.379	0.023
-680.237	800.000	0.072	-0.282
-679.222	-115.428	0.079	0.015
-678.208	1.214	-0.010	0.007
-677.193	259.852	-0.083	-0.143
-676.178	-26.813	-0.347	-0.204
-675.164	10.921	0.183	0.141
-674.149	81.754	-0.107	-0.116
-673.135	793.207	-0.038	0.105
-672.120	-200.000	0.011	-0.264
-671.105	800.000	0.027	0.076
-670.091	320.118	-0.151	-0.289
-669.076	167.320	-0.146	0.208
-668.062	-146.331	0.109	-0.010
-667.047	113.520	0.183	0.224
-666.032	241.676	-0.110	-0.185
-665.018	429.625	0.121	-0.263
-664.003	-33.023	-0.380	-0.212
-662.989	217.349	0.051	-0.081
-661.974	-0.846	0.060	0.043
-660.959	-200.000	-0.007	-0.080
-659.945	211.612	-0.203	0.322
-658.930	-98.232	0.030	-0.008
-657.916	184.595	-0.142	-0.212
-656.901	187.756	0.045	-0.067
-655.886	-28.388	-0.159	0.092
-654.872	41.228	0.172	0.157
-653.857	-109.255	0.204	-0.043
-652.843	-99.092	-0.111	-0.028
-651.828	-26.137	0.120	-0.071
-650.814	14.587	0.215	-0.168
-649.799	-105.636	0.195	0.044
-648.784	397.215	-0.071	0.149
-647.770	800.000	-0.046	-0.135
-646.755	-8.016	0.341	-0.231
-645.741	800.000	0.087	-0.377
-644.726	61.828	-0.203	-0.203
-643.711	-59.275	0.181	-0.078
-642.697	-110.647	-0.247	0.051
-641.682	-29.644	0.127	-0.073
-640.668	800.000	0.038	0.110
-639.653	203.331	-0.106	-0.165
-638.638	-82.437	-0.087	0.028
-637.624	764.466	-0.073	-0.199
-636.609	326.488	-0.061	0.117
-635.595	-175.814	0.183	0.005
-634.580	800.000	0.034	0.100
-633.565	31.439	0.196	-0.169
-632.551	-69.961	-0.284	-0.109
-631.536	-104.500	0.419	0.097
-630.522	212.013	-0.101	-0.160
-629.507	-167.191	0.282	0.011
-628.492	-118.307	-0.202	-0.036
-627.478	110.448	-0.086	0.104
-626.463	-200.000	-0.029	0.207
-625.449	-200.000	-0.006	-0.369
-624.434	-115.027	-0.229	-0.044
-623.419	-14.702	-0.215	0.139
-622.405	-61.219	0.061	-0.026
-621.390	302.990	-0.116	0.215
-620.376	178.511	0.120	0.176
-619.361	-145.305	-0.120	0.011
-618.346	248.722	0.141	0.239
-617.332	-110.887	-0.216	-0.045
-616.317	-107.533	-0.390	-0.086
-615.303	-26.588	0.192	-0.113
-614.288	-167.628	0.175	0.007
-613.273	235.952	0.200	-0.332
-612.259	-69.487	-0.186	-0.071
-611.244	-102.258	0.091	0.022
-610.230	-109.637	-0.206	0.044
-609.215	-88.015	0.375	0.113
-608.201	112.897	-0.129	0.156
-607.186	-49.888	-0.302	0.144
-606.171	-111.460	-0.315	0.064
-605.157	102.605	0.104	-0.121
-604.142	-56.668	-0.278	0.124
-603.128	-138.874	0.026	0.003
-602.113	-200.000	-0.007	-0.115
-601.098	-93.900	-0.505	0.139
-600.084	12.505	-0.240	-0.186
-599.069	280.971	-0.117	0.210
-598.055	741.117	0.069	0.186
-597.040	-200.000	0.035	0.296
-596.025	-64.433	-0.133	-0.054
-595.011	-91.718	-0.317	0.090
-593.996	-131.510	0.159	0.021
-592.982	-137.457	-0.476	-0.054
-591.967	10.828	0.221	-0.169
-590.952	-102.728	-0.291	-0.069
-589.938	-98.133	0.342	0.088
-588.923	25.122	-0.136	0.113
-587.909	-200.000	0.001	-0.080
-586.894	-45.246	0.183	-0.091
-585.879	-19.392	-0.049	-0.030
-584.865	82.187	-0.179	-0.195
-583.850	183.023	-0.223	0.330
-582.836	-19.536	-0.074	-0.046
-581.821	39.386	-0.370	-0.332
-580.806	124.949	0.150	-0.189
-579.792	-168.385	-0.039	-0.002
-578.777	-13.884	-0.182	-0.118
-577.763	-64.462	-0.275	0.112
-576.748	-124.759	0.169	-0.026
-575.733	21.749	0.044	0.036
-574.719	65.980	0.221	0.225
-573.704	-200.000	0.006	-0.195
-572.690	170.325	-0.126	0.180
-571.675	86.652	0.171	-0.189
-570.661	289.949	-0.032	-0.059
-569.646	-118.839	0.257	0.045
-568.631	-16.034	-0.358	-0.228
-567.617	-188.738	0.401	-0.005
-566.602	-200.000	0.004	0.360
-565.588	-137.719	-0.418	0.047
-564.573	-200.000	-0.013	0.253
-563.558	-48.189	0.281	-0.136
-562.544	-110.204	0.031	0.006
-561.529	-70.429	-0.115	-0.044
-560.515	-200.000	0.007	-0.063
-559.500	800.000	0.039	-0.108
-558.485	-50.963	-0.101	0.048
-557.471	-83.301	0.177	-0.057
-556.456	-200.000	-0.013	0.125
-555.442	-141.455	0.049	-0.005
-554.427	486.860	-0.066	-0.150
-553.412	47.810	-0.241	-0.225
-552.398	800.000	0.028	-0.114
-551.383	-200.000	0.010	0.095
-550.369	149.388	0.117	-0.158
-549.354	-40.298	-0.256	-0.133
-548.339	-200.000	0.025	0.304
-547.325	-64.011	0.227	-0.093
-546.310	286.093	0.062	-0.112
-545.296	800.000	-0.096	-0.361
-544.281	-26.908	0.245	-0.143
-543.266	405.112	-0.049	-0.103
-542.252	-66.050	0.127	0.051
-541.237	11.467	-0.135	0.103
-540.223	177.096	-0.166	-0.242
-539.208	-200.000	-0.046	-0.381
-538.193	-168.061	0.155	-0.006
-537.179	90.809	-0.206	-0.231
-536.164	-6.371	-0.152	0.104
-535.150	-21.182	0.121	0.074
-534.135	-200.000	-0.002	0.154
-533.121	-143.863	0.088	0.008
-532.106	-148.066	-0.258	0.021
-531.091	-119.051	0.221	0.039
-530.077	-115.394	0.154	-0.029
-529.062	800.000	0.064	-0.178
-528.048	0.222	-0.133	0.095
-527.033	-134.876	0.295	-0.036
-526.018	-11.724	-0.265	-0.174
-525.004	155.585	-0.198	0.273
-523.989	-123.049	0.223	-0.036
-522.975	445.908	0.165	-0.363
-521.960	-200.000	-0.015	0.234
-520.945	187.108	-0.125	-0.187
-519.931	63.917	-0.079	-0.079
-518.916	-99.658	-0.200	-0.050
-517.902	258.313	-0.166	-0.286
-516.887	-200.000	-0.046	0.288
-515.872	139.274	0.174	0.228
-514.858	-60.157	-0.085	-0.036
-513.843	228.453	-0.241	-0.392
-512.829	-160.520	0.109	-0.006
-511.814	760.389	-0.079	-0.214
-510.799	107.309	0.236	0.281
-509.785	-200.000	0.073	-0.344
-508.770	355.050	0.068	-0.136
-507.756	-79.373	-0.257	0.087
-506.741	-200.000	-0.006	0.041
-505.726	338.233	-0.041	-0.080
-504.712	-121.869	-0.266	0.044
-503.697	800.000	0.041	-0.167
-502.683	-49.176	-0.107	0.051
-501.668	-83.956	0.183	0.058
-500.653	6.021	0.237	-0.175
-499.639	-200.000	-0.004	0.335
-498.624	800.000	-0.073	0.222
-497.610	346.834	0.064	0.125
-496.595	-200.000	-0.034	-0.279
-495.581	412.461	0.039	0.083
-494.566	255.190	-0.164	-0.281
-493.551	-24.993	0.272	-0.161
-492.537	645.708	-0.072	0.183
-491.522	456.043	-0.062	-0.137
-490.508	0.713	0.245	-0.175
-489.493	-76.682	0.091	0.032
-488.478	367.199	0.030	-0.061
-487.464	-200.000	-0.007	0.104
-486.449	375.414	0.083	0.170
-485.435	-42.088	-0.187	0.095
-484.420	275.217	-0.156	0.277
-483.405	358.448	0.139	0.277
-482.391	-56.247	0.091	-0.040
-481.376	124.968	0.253	-0.318
-480.362	-200.000	0.011	-0.094
-479.347	-189.373	-0.345	0.004
-478.332	-200.000	-0.051	-0.313
-477.318	-200.000	-0.024	0.187
-476.303	534.958	-0.025	-0.059
-475.289	-14.059	-0.097	-0.062
-474.274	68.647	-0.093	-0.096
-473.259	-200.000	0.038	0.193
-472.245	-19.204	0.302	0.187
-471.230	-10.190	-0.281	0.186
-470.216	-68.631	0.203	-0.078
-469.201	110.422	0.178	0.213
-468.186	-64.998	0.369	-0.149
-467.172	509.048	0.032	-0.075
-466.157	705.020	-0.035	-0.092
-465.143	-0.714	0.254	-0.180
-464.128	477.361	-0.189	0.427
-463.113	80.547	0.073	-0.079
-462.099	-140.395	0.131	0.014
-461.084	37.302	0.080	0.071
-460.070	-54.273	-0.133	0.060
-459.055	42.051	-0.147	0.133
-458.040	-127.166	0.464	0.068
-457.026	-97.609	-0.213	-0.055
-456.011	624.207	-0.056	0.142
-454.997	55.066	0.141	0.136
-453.982	-39.048	-0.100	-0.052
-452.968	-200.000	0.002	-0.106
-451.953	-18.562	-0.377	-0.235
-450.938	800.000	0.075	-0.235
-449.924	239.960	0.072	-0.120
-448.909	-75.539	0.169	0.060
-447.895	800.000	0.030	0.110
-446.880	36.341	0.070	-0.062
-445.865	-200.000	0.024	0.179
-444.851	27.863	-0.170	0.143
-443.836	800.000	-0.146	0.415
-442.822	51.767	-0.161	0.153
-441.807	131.168	-0.204	-0.261
-440.792	-2.516	0.080	0.056
-439.778	16.128	0.133	0.105
-438.763	800.000	-0.048	0.201
-437.749	432.149	0.031	-0.066
-436.734	397.132	-0.124	0.258
-435.719	-58.391	-0.258	-0.112
-434.705	273.631	0.192	0.339
-433.690	367.974	-0.173	0.348
-432.676	18.027	0.251	0.199
-431.661	62.456	0.118	-0.117
-430.646	-200.000	0.027	-0.270
-429.632	-200.000	-0.027	0.194
-428.617	66.408	0.167	-0.169
-427.603	-200.000	-0.034	-0.302
-426.588	-156.209	0.151	-0.009
-425.573	-43.245	0.227	0.115
-424.559	184.579	0.193	-0.285
-423.544	800.000	0.028	-0.110
-422.530	-20.676	-0.411	0.251
-421.515	-151.990	0.159	0.012
-420.500	133.445	0.137	0.176
-419.486	-52.035	0.383	-0.177
-418.471	-127.902	0.184	0.026
-417.457	-93.154	-0.208	0.058
-416.442	-200.000	0.001	0.367
-415.428	-46.030	-0.168	-0.083
-414.413	240.521	-0.176	-0.292
-413.398	-101.149	0.267	0.065
-412.384	-83.932	0.187	0.059
-411.369	-115.838	0.200	-0.037
-410.355	-44.569	-0.328	-0.163
-409.340	180.200	-0.107	-0.157
-408.325	-200.000	0.020	-0.094
-407.311	-66.385	-0.061	0.024
-406.296	-200.000	-0.081	0.000
-405.282	-25.349	-0.219	0.129
-404.267	-200.000	0.021	0.177
-403.252	-64.125	0.156	-0.063
-402.238	-200.000	-0.056	-0.260
-401.223	-200.000	-0.038	-0.282
-400.209	-200.000	0.005	-0.142
-399.194	71.980	-0.445	0.460
-398.179	-21.338	-0.188	0.115
-397.165	124.830	0.289	-0.363
-396.150	-200.000	0.001	-0.251
-395.136	-200.000	0.047	-0.226
-394.121	-86.638	0.419	-0.128
-393.106	70.665	0.263	-0.271
-392.092	-8.940	0.034	0.022
-391.077	-2.911	0.289	0.201
-390.063	-96.557	-0.216	-0.057
-389.048	-200.000	-0.031	0.362
-388.033	-73.181	0.044	0.016
-387.019	176.527	0.085	-0.123
-386.004	-200.000	-0.018	-0.176
-384.990	-120.109	0.261	-0.044
-383.975	800.000	0.020	0.055
-382.960	74.630	-0.112	0.117
-381.946	94.126	0.036	0.041
-380.931	-116.080	0.092	-0.017
-379.917	-143.146	-0.378	-0.036
-378.902	-49.593	-0.278	-0.132
-377.888	-101.637	0.179	-0.043
-376.873	92.628	-0.118	0.132
-375.858	-15.851	-0.260	-0.165
-374.844	511.860	0.049	-0.114
-373.829	126.269	0.141	-0.178
-372.815	-153.930	0.044	0.003
-371.800	-200.000	0.027	-0.271
-370.785	54.493	0.123	0.118
-369.771	15.513	-0.119	-0.093
-368.756	147.458	-0.068	-0.091
-367.742	573.678	-0.071	-0.172
-366.727	-178.056	0.295	0.007
-365.712	-53.846	0.398	-0.181
-364.698	800.000	0.047	0.162
-363.683	225.595	0.059	-0.096
-362.669	-102.790	0.142	0.034
-361.654	800.000	0.048	-0.211
-360.639	304.478	-0.050	0.092
-359.625	44.698	0.158	0.144
-358.610	-77.322	-0.178	-0.061
-357.596	-28.528	-0.097	-0.055
-356.581	48.827	-0.265	-0.247
-355.566	186.029	-0.025	-0.037
-354.552	-26.779	0.132	-0.077
-353.537	617.131	0.051	0.128
-352.523	68.663	-0.076	0.078
-351.508	800.000	-0.031	0.113
-350.493	-200.000	-0.013	0.207
-349.479	397.435	0.179	-0.372
-348.464	800.000	0.046	0.158
-347.450	-46.364	0.034	0.017
-346.435	800.000	0.143	-0.409
-345.420	57.204	-0.154	-0.149
-344.406	-200.000	0.094	0.603
-343.391	-200.000	0.044	-0.219
-342.377	42.760	-0.154	-0.139
-341.362	-200.000	-0.046	0.308
-340.348	-200.000	0.046	0.412
-339.333	-200.000	-0.039	0.265
-338.318	-17.358	0.341	0.213
-337.304	-0.773	0.033	-0.023
-336.289	-50.120	0.236	0.111
-335.275	91.729	-0.084	0.094
-334.260	-200.000	0.062	0.365
-333.245	800.000	-0.031	0.115
-332.231	552.609	-0.031	-0.074
-331.216	186.755	0.186	0.275
-330.202	800.000	-0.031	0.114
-329.187	-167.980	0.106	-0.004
-328.172	-95.578	-0.303	0.080
-327.158	671.915	-0.181	-0.465
-326.143	-109.628	0.084	-0.018
-325.129	18.195	-0.195	0.154
-324.114	-200.000	-0.018	0.170
-323.099	-200.000	0.075	0.351
-322.085	100.838	0.234	-0.269
-321.070	-126.310	0.229	-0.034
-320.056	759.028	0.191	-0.513
-319.041	282.078	-0.176	-0.314
-318.026	-119.311	0.083	0.014
-317.012	236.621	-0.072	-0.119
-315.997	100.350	-0.236	-0.272
-314.983	-200.000	0.010	-0.239
-313.968	-26.702	0.369	-0.214
-312.953	800.000	-0.101	-0.295
-311.939	63.107	0.131	-0.130
-310.924	-200.000	-0.084	-0.399
-309.910	-200.000	0.064	-0.315
-308.895	-163.855	-0.039	0.002
-307.880	-200.000	0.005	0.064
-306.866	-200.000	0.061	0.389
-305.851	800.000	0.085	0.311
-304.837	103.128	-0.062	-0.072
-303.822	800.000	-0.058	0.204
-302.807	-200.000	-0.011	0.396
-301.793	-55.629	0.112	0.050
-300.778	800.000	-0.026	-0.101
-299.764	349.480	-0.157	-0.308
-298.749	65.215	0.094	0.094
-297.735	-200.000	-0.005	-0.168
-296.720	-7.671	0.289	0.194
-295.705	-3.152	-0.108	-0.074
-294.691	-200.000	0.022	0.159
-293.676	93.795	0.101	0.114
-292.662	-151.777	-0.171	-0.012
-291.647	-32.023	-0.236	0.131
-290.632	2.078	-0.348	-0.249
-289.618	-200.000	-0.011	-0.424
-288.603	303.447	0.068	0.126
-287.589	800.000	0.095	0.346
-286.574	-93.602	0.190	-0.052
-285.559	22.499	0.288	-0.233
-284.545	-129.708	-0.233	0.032
-283.530	-186.028	-0.276	-0.004
-282.516	-149.381	0.110	0.009
-281.501	28.372	0.135	0.113
-280.486	-200.000	0.015	0.204
-279.472	323.608	-0.213	0.402
-278.457	-159.781	-0.125	-0.007
-277.443	-200.000	-0.002	-0.174
-276.428	-200.000	0.017	0.388
-275.413	88.301	0.151	0.166
-274.399	800.000	-0.088	0.251
-273.384	771.857	-0.034	0.092
-272.370	-17.370	-0.038	-0.023
-271.355	2.385	0.160	0.114
-270.340	-200.000	0.090	0.512
-269.326	265.870	-0.030	-0.052
-268.311	135.854	0.159	0.205
-267.297	62.687	0.030	0.030
-266.282	-135.591	-0.201	0.024
-265.267	177.084	-0.195	0.281
-264.253	301.028	0.102	0.187
-263.238	104.252	0.116	-0.135
-262.224	279.501	-0.105	0.186
-261.209	716.713	-0.064	-0.167
-260.195	538.738	0.045	0.106
-259.180	-137.013	0.152	0.017
-258.165	65.180	0.141	0.141
-257.151	661.607	0.054	-0.139
-256.136	32.639	0.161	0.138
-255.122	-116.201	0.338	-0.062
-254.107	497.657	0.007	-0.016
-253.092	-200.000	-0.015	-0.097
-252.078	196.600	0.049	-0.074
-251.063	800.000	-0.026	-0.086
-250.049	-88.257	-0.179	-0.053
-249.034	-48.704	-0.198	0.094
-248.019	55.586	-0.074	0.071
-247.005	-115.903	0.013	0.002
-245.990	800.000	-0.092	0.352
-244.976	-26.682	-0.190	0.110
-243.961	800.000	0.088	-0.258
-242.946	184.595	-0.172	0.252
-241.932	-200.000	-0.021	0.342
-240.917	-115.070	-0.311	-0.058
-239.903	-15.520	-0.154	0.097
-238.888	-200.000	0.032	0.220
-237.873	118.278	-0.142	-0.173
-236.859	417.504	-0.048	-0.101
-235.844	333.817	-0.061	0.117
-234.830	-73.514	-0.219	0.079
-233.815	-39.387	-0.154	-0.080
-232.800	-57.399	-0.080	-0.035
-231.786	-60.826	0.103	-0.043
-230.771	800.000	0.030	-0.093
-229.757	145.763	-0.141	-0.187
-228.742	51.157	0.100	0.094
-227.727	-16.174	0.074	-0.046
-226.713	150.972	0.058	-0.078
-225.698	-200.000	-0.000	0.165
-224.684	-75.012	-0.266	0.094
-223.669	54.399	0.232	-0.221
-222.655	-129.351	0.200	0.027
-221.640	7.932	-0.066	-0.049
-220.625	800.000	0.041	-0.168
-219.611	-62.884	0.213	-0.087
-218.596	800.000	0.032	-0.090
-217.582	366.570	-0.161	-0.321
-216.567	-200.000	0.042	0.223
-215.552	76.831	0.269	-0.282
-214.538	-111.071	0.401	-0.081
-213.523	-20.631	0.131	0.080
-212.509	13.670	-0.202	-0.155
-211.494	48.883	-0.138	0.128
-210.479	304.246	-0.147	0.269
-209.465	-36.985	-0.117	0.062
-208.450	-200.000	-0.042	0.248
-207.436	63.859	-0.187	-0.186
-206.421	349.015	-0.100	0.195
-205.406	-200.000	0.065	-0.408
-204.392	-107.590	0.146	-0.032
-203.377	-30.824	0.213	0.119
-202.363	21.193	0.347	0.278
-201.348	16.546	-0.339	0.265
-200.333	-67.696	-0.215	-0.083
-199.319	56.510	0.059	0.056
-198.304	-158.282	-0.056	0.003
-197.290	-92.800	0.243	0.067
-196.275	-48.827	0.168	-0.079
-195.260	121.595	0.157	-0.193
-194.246	-51.096	0.174	-0.080
-193.231	83.390	0.231	0.249
-192.217	-65.294	-0.051	-0.020
-191.202	503.555	-0.118	-0.270
-190.187	-200.000	0.003	-0.283
-189.173	84.568	-0.042	-0.045
-188.158	471.196	-0.054	0.119
-187.144	382.437	0.037	-0.074
-186.129	-200.000	-0.000	0.042
-185.114	63.783	-0.161	-0.160
-184.100	295.843	0.172	0.311
-183.085	-35.346	0.064	-0.035
-182.071	-99.662	-0.234	0.058
-181.056	0.148	0.122	0.086
-180.042	3.915	-0.278	-0.200
-179.027	-3.150	-0.110	0.076
-178.012	-156.041	-0.028	0.002
-176.998	425.062	0.101	0.215
-175.983	314.870	0.080	0.149
-174.969	-164.250	0.101	-0.005
-173.954	402.319	0.128	-0.266
-172.939	351.298	0.149	-0.292
-171.925	598.549	-0.058	-0.141
-170.910	-32.554	-0.260	0.143
-169.896	-145.740	-0.170	0.015
-168.881	165.353	0.108	0.150
-167.866	-143.972	-0.320	0.030
-166.852	94.140	0.097	0.108
-165.837	-154.551	-0.203	-0.013
-164.823	-107.792	0.180	-0.039
-163.808	44.955	-0.149	0.135
-162.793	-105.123	0.057	0.013
-161.779	139.970	0.404	0.525
-160.764	47.166	-0.146	0.134
-159.750	236.143	0.107	-0.174
-158.735	159.011	0.202	-0.277
-157.720	141.066	0.202	-0.263
-156.706	-64.847	-0.083	-0.033
-155.691	-200.000	0.062	0.302
-154.677	142.756	0.141	0.184
-153.662	11.397	0.138	-0.104
-152.647	88.528	-0.211	0.231
-151.633	709.040	-0.128	0.333
-150.618	427.510	0.123	-0.262
-149.604	-172.579	-0.114	0.004
-148.589	141.491	-0.043	-0.056
-147.574	800.000	-0.032	0.100
-146.560	28.791	0.026	-0.022
-145.545	683.056	0.057	0.146
-144.531	-92.723	-0.168	-0.046
-143.516	-171.501	0.090	0.003
-142.502	454.491	-0.234	-0.511
-141.487	38.699	0.270	-0.238
-140.472	366.617	0.082	-0.162
-139.458	61.205	0.063	0.061
-138.443	800.000	-0.076	-0.298
-137.429	-63.514	0.223	-0.090
-136.414	-13.735	0.039	-0.025
-135.399	-117.973	-0.224	0.039
-134.385	800.000	0.069	0.190
-133.370	-65.842	-0.115	-0.045
-132.356	-10.506	-0.196	-0.128
-131.341	263.114	0.082	-0.141
-130.326	18.904	0.146	-0.116
-129.312	800.000	0.023	0.087
-128.297	1.379	-0.102	0.072
-127.283	-93.094	-0.437	0.120
-126.268	-200.000	0.011	-0.337
-125.253	800.000	0.036	-0.140
-124.239	-200.000	-0.032	0.273
-123.224	390.775	-0.103	0.211
-122.210	29.931	0.375	-0.314
-121.195	800.000	-0.196	-0.578
-120.180	-127.535	0.172	-0.025
-119.166	83.271	0.234	-0.251
-118.151	14.235	-0.280	-0.215
-117.137	-200.000	0.064	0.333
-116.122	535.303	0.021	0.048
-115.107	271.114	-0.238	0.412
-114.093	-79.089	0.127	-0.042
-113.078	109.562	0.200	-0.236
-112.064	130.039	0.063	-0.079
-111.049	278.065	0.061	-0.107
-110.034	-124.316	-0.114	0.018
-109.020	-200.000	0.009	-0.071
-108.005	-83.500	0.391	0.123
-106.991	734.896	-0.118	0.311
-105.976	-200.000	0.003	0.127
-104.962	-28.929	0.232	0.131
-103.947	114.802	0.247	0.296
-102.932	800.000	0.069	-0.293
-101.918	53.255	-0.147	0.138
-100.903	800.000	-0.039	0.121
-99.889	-200.000	-0.030	-0.293
-98.874	-48.988	-0.186	-0.088
-97.859	-21.805	0.214	0.128
-96.845	800.000	-0.082	0.225
-95.830	-110.715	-0.212	0.043
-94.816	-200.000	0.005	0.143
-93.801	-70.767	0.119	0.044
-92.786	-173.217	0.232	0.007
-91.772	-200.000	-0.042	0.260
-90.757	-49.561	0.108	0.050
-89.743	94.014	-0.093	-0.103
-88.728	-52.506	0.018	0.008
-87.713	580.170	-0.069	-0.167
-86.699	11.562	0.104	-0.079
-85.684	757.107	-0.079	-0.209
-84.670	-117.618	-0.114	-0.020
-83.655	-24.013	-0.165	0.097
-82.640	-117.028	0.322	0.058
-81.626	138.201	-0.037	0.047
-80.611	122.403	0.109	0.134
-79.597	71.654	-0.174	-0.178
-78.582	278.562	0.160	-0.279
-77.567	161.391	-0.051	-0.070
-76.553	100.034	-0.227	-0.258
-75.538	-81.414	-0.202	-0.065
-74.524	-200.000	0.053	-0.285
-73.509	-27.870	-0.172	0.098
-72.494	53.789	-0.222	0.209
-71.480	630.271	0.107	0.266
-70.465	161.466	-0.192	0.263
-69.451	-84.916	-0.270	0.083
-68.436	-150.667	0.119	-0.009
-67.422	-200.000	-0.042	0.220
-66.407	280.519	-0.111	-0.195
-65.392	67.781	-0.213	-0.214
-64.378	223.910	0.074	0.117
-63.363	-200.000	-0.022	-0.155
-62.349	-127.320	0.295	-0.042
-61.334	65.416	-0.967	-0.961
-60.319	9.383	0.484	0.359
-59.305	-200.000	-0.194	-1.102
-58.290	318.198	0.469	0.871
-57.276	321.414	0.874	1.632
-56.261	-200.000	95.391	582.399
-55.246	564.442	1366.120	3249.786
-54.232	162.196	2548.177	3506.304
-53.217	106.924	2262.456	2637.509
-52.203	41.751	1890.559	1682.046
-51.188	35.645	1681.288	1449.907
-50.173	32.999	1636.973	1392.160
-49.159	50.380	1682.801	1561.279
-48.144	51.795	1700.456	1588.169
-47.130	35.211	1661.008	1428.957
-46.115	32.566	1646.002	1396.407
-45.100	32.395	1641.149	1390.970
-44.086	32.354	1638.757	1388.590
-43.071	32.305	1636.151	1385.965
-42.057	32.331	1633.043	1383.464
-41.042	32.276	1632.081	1382.192
-40.027	32.304	1629.751	1380.367
-39.013	32.299	1627.837	1378.654
-37.998	32.206	1626.904	1377.130
-36.984	32.314	1625.418	1376.612
-35.969	32.370	1623.895	1375.672
-34.954	32.350	1622.203	1374.043
-33.940	32.399	1620.275	1372.708
-32.925	32.432	1618.232	1371.162
-31.911	32.372	1616.916	1369.563
-30.896	32.434	1614.674	1368.060
-29.881	32.366	1613.495	1366.508
-28.867	32.412	1611.886	1365.430
-27.852	32.401	1610.363	1364.004
-26.838	32.419	1608.694	1362.662
-25.823	32.315	1608.038	1361.301
-24.809	32.410	1606.174	1360.354
-23.794	32.465	1604.719	1359.472
-22.779	32.510	1603.180	1358.435
-21.765	32.363	1601.798	1356.148
-20.750	32.455	1599.793	1355.060
-19.736	32.446	1598.336	1353.706
-18.721	32.504	1597.011	1352.947
-17.706	32.451	1595.986	1351.647
-16.692	32.462	1594.211	1350.167
-15.677	32.363	1593.074	1348.446
-14.663	32.581	1591.238	1348.394
-13.648	32.449	1590.208	1346.527
-12.633	32.428	1588.431	1344.821
-11.619	32.399	1587.119	1343.446
-10.604	32.446	1585.398	1342.273
-9.590	32.507	1584.307	1341.732
-8.575	32.493	1582.825	1340.319
-7.560	32.408	1582.216	1339.147
-6.546	32.372	1581.077	1337.873
-5.531	32.462	1579.330	1336.980
-4.517	32.431	1578.614	1336.105
-3.502	32.465	1577.338	1335.214
-2.487	32.584	1575.090	1334.102
-1.473	32.306	1563.678	1322.424
-0.458	29.490	1544.913	1286.901
0.556	26.502	1545.585	1257.088
1.571	24.202	1570.107	1260.664
2.586	23.777	1582.845	1267.748
3.600	21.315	1530.672	1208.845
4.615	12.305	1420.237	1063.437
5.629	3.827	1354.324	961.444
6.644	2.236	1346.492	945.962
7.659	2.100	1344.988	943.983
8.673	2.079	1343.602	942.794
9.688	1.915	1342.442	940.883
10.702	1.781	1338.563	937.259
11.717	5.313	1345.899	964.133
12.731	15.368	1364.799	1040.224
13.746	23.847	1379.243	1104.039
14.761	26.332	1381.336	1121.052
15.775	26.630	1381.664	1123.065
16.790	26.704	1381.394	1123.202
17.804	26.752	1381.217	1123.258
18.819	26.884	1381.075	1123.861
19.834	27.121	1380.026	1124.374
20.848	27.031	1379.563	1123.340
21.863	27.063	1378.710	1122.748
22.877	27.028	1377.790	1121.682
23.892	27.123	1376.974	1121.502
24.907	27.053	1376.466	1120.557
25.921	27.204	1374.973	1120.173
26.936	27.122	1374.201	1118.943
27.950	27.102	1372.485	1117.325
28.965	27.002	1372.299	1116.456
29.980	27.041	1370.682	1115.284
30.994	27.051	1369.809	1114.535
32.009	27.076	1368.666	1113.657
33.023	27.099	1367.312	1112.599
34.038	27.098	1366.169	1111.563
35.053	27.070	1365.520	1110.768
36.067	27.093	1364.141	1109.689
37.082	27.062	1363.181	1108.618
38.096	27.080	1362.008	1107.679
39.111	27.123	1361.439	1107.378
40.126	27.128	1360.770	1106.770
41.140	26.971	1360.838	1105.771
42.155	27.062	1360.188	1105.694
43.169	27.059	1360.141	1105.540
44.184	27.121	1359.336	1105.170
45.199	27.014	1359.472	1104.530
46.213	26.989	1359.022	1103.916
47.228	27.067	1357.933	1103.404
48.242	27.048	1356.608	1102.113
49.257	27.097	1355.075	1101.072
50.271	27.094	1353.714	1099.851
51.286	26.984	1352.577	1098.162
52.301	26.982	1351.488	1097.171
53.315	27.003	1350.612	1096.489
54.330	27.054	1349.717	1095.973
55.344	27.029	1348.553	1094.777
56.359	27.055	1347.808	1094.236
57.374	27.005	1346.572	1092.833
58.388	27.127	1346.277	1093.229
59.403	27.003	1346.140	1092.278
60.417	27.093	1345.146	1091.913
61.432	27.078	1344.501	1091.204
62.447	27.117	1343.548	1090.570
63.461	27.115	1342.677	1089.750
64.476	27.084	1341.353	1088.398
65.490	27.023	1340.364	1087.130
66.505	27.034	1338.831	1085.858
67.520	27.067	1337.745	1085.075
68.534	27.077	1336.571	1084.091
69.549	27.023	1336.122	1083.309
70.563	26.985	1334.961	1082.045
71.578	27.058	1334.071	1081.659
72.593	27.141	1332.917	1081.123
73.607	27.122	1332.405	1080.500
74.622	27.066	1331.742	1079.530
75.636	26.994	1331.457	1078.778
76.651	27.108	1330.151	1078.302
77.666	27.136	1329.468	1077.820
78.680	27.063	1329.455	1077.279
79.695	26.943	1328.860	1075.990
80.709	27.053	1327.930	1075.795
81.724	27.085	1327.040	1075.169
82.739	27.038	1325.691	1073.701
83.753	27.101	1324.831	1073.284
84.768	27.079	1323.713	1072.152
85.782	27.101	1322.922	1071.547
86.797	27.012	1321.852	1070.060
87.812	27.215	1320.377	1069.963
88.826	27.122	1319.726	1068.795
89.841	27.055	1318.467	1067.291
90.855	27.175	1317.355	1067.001
91.870	27.130	1316.689	1066.102
92.884	27.202	1315.737	1065.660
93.899	27.117	1315.161	1064.599
94.914	27.062	1314.708	1063.816
95.928	27.081	1313.471	1062.833
96.943	27.134	1313.146	1062.785
97.957	27.174	1312.653	1062.527
98.972	27.123	1311.485	1061.189
99.987	27.169	1310.320	1060.422
101.001	27.121	1309.715	1059.556
102.016	27.092	1308.714	1058.482
103.030	27.056	1307.824	1057.464
104.045	27.159	1306.920	1057.239
105.060	27.131	1306.022	1056.252
106.074	27.173	1304.778	1055.396
107.089	27.080	1304.078	1054.199
108.103	27.146	1302.773	1053.432
109.118	27.223	1302.018	1053.175
110.133	27.201	1300.743	1051.923
111.147	27.244	1299.515	1051.086
112.162	27.214	1298.743	1050.196
113.176	27.266	1297.162	1049.126
114.191	27.245	1296.795	1048.613
115.206	27.172	1295.367	1046.948
116.220	27.176	1294.504	1046.180
117.235	27.153	1294.054	1045.587
118.249	27.108	1293.180	1044.535
119.264	27.158	1292.323	1044.034
120.279	27.081	1291.881	1043.144
121.293	27.334	1290.389	1043.298
122.308	27.195	1289.848	1041.970
123.322	27.245	1289.260	1041.690
124.337	27.318	1287.985	1040.984
125.352	27.303	1287.507	1040.422
126.366	27.319	1286.502	1039.610
127.381	27.262	1285.727	1038.566
128.395	27.410	1284.581	1038.392
129.410	27.287	1283.692	1036.881
130.424	27.223	1283.325	1036.127
131.439	27.144	1282.987	1035.313
132.454	27.280	1281.524	1034.812
133.468	27.269	1280.765	1034.046
134.483	27.163	1280.513	1033.150
135.497	27.151	1279.764	1032.387
136.512	27.264	1278.349	1031.794
137.527	27.318	1276.976	1030.900
138.541	27.101	1276.623	1029.295
139.556	27.326	1274.942	1029.122
140.570	27.151	1274.514	1027.696
141.585	27.180	1273.409	1026.877
142.600	27.182	1272.258	1025.870
143.614	27.148	1271.919	1025.315
144.629	27.260	1270.430	1024.655
145.643	27.129	1269.269	1022.887
146.658	27.192	1268.266	1022.343
147.673	27.144	1267.305	1021.212
148.687	27.232	1266.310	1020.812
149.702	27.159	1265.343	1019.535
150.716	26.978	1264.624	1017.850
151.731	27.151	1263.342	1017.697
152.746	27.207	1262.108	1016.923
153.760	27.226	1261.350	1016.328
154.775	27.175	1260.331	1015.134
155.789	27.235	1259.627	1014.810
156.804	27.160	1259.267	1014.013
157.819	27.232	1257.962	1013.276
158.833	27.313	1257.102	1012.944
159.848	27.184	1256.474	1011.632
160.862	27.346	1255.354	1011.541
161.877	27.246	1254.987	1010.599
162.892	27.198	1254.318	1009.702
163.906	27.345	1253.316	1009.625
164.921	27.373	1252.429	1008.976
165.935	27.286	1251.880	1007.963
166.950	27.353	1251.107	1007.618
167.964	27.346	1250.753	1007.206
168.979	27.507	1249.722	1007.176
169.994	27.462	1248.896	1006.172
171.008	27.320	1248.964	1005.357
172.023	27.386	1247.997	1004.853
173.037	27.388	1246.966	1003.943
174.052	27.543	1245.996	1003.927
175.067	27.434	1245.454	1002.804
176.081	27.357	1244.925	1001.863
177.096	27.287	1244.379	1000.953
178.110	27.295	1243.941	1000.556
179.125	27.345	1242.631	999.685
180.140	27.399	1241.020	998.597
181.154	27.405	1240.247	997.923
182.169	27.366	1239.334	996.883
183.183	27.438	1238.270	996.337
184.198	27.451	1237.097	995.375
185.213	27.408	1236.245	994.365
186.227	27.453	1235.500	993.925
187.242	27.476	1234.955	993.521
188.256	27.524	1233.721	992.703
189.271	27.457	1233.047	991.709
190.286	27.475	1232.227	991.058
191.300	27.399	1232.030	990.400
192.315	27.483	1231.276	990.163
193.329	27.338	1231.450	989.429
194.344	27.458	1230.817	989.483
195.359	27.449	1229.900	988.607
196.373	27.487	1229.389	988.318
197.388	27.427	1229.427	987.934
198.402	27.446	1228.783	987.433
199.417	27.551	1228.174	987.425
200.432	27.527	1227.884	986.975
201.446	27.442	1227.275	985.936
202.461	27.398	1226.455	984.953
203.475	27.362	1225.847	984.182
204.490	27.442	1224.388	983.357
205.504	27.413	1223.518	982.414
206.519	27.596	1222.675	982.635
207.534	27.559	1221.668	981.540
208.548	27.503	1221.305	980.863
209.563	27.651	1220.119	980.619
210.577	27.519	1219.417	979.260
211.592	27.465	1218.786	978.374
212.607	27.561	1217.782	977.998
213.621	27.629	1216.799	977.484
214.636	27.643	1216.332	977.097
215.650	27.553	1215.686	976.013
216.665	27.526	1214.791	975.061
217.680	27.470	1213.779	973.862
218.694	27.637	1212.962	974.017
219.709	27.668	1212.307	973.566
220.723	27.742	1211.799	973.466
221.738	27.521	1211.058	971.608
222.753	27.431	1210.222	970.373
223.767	27.716	1209.711	971.396
224.782	27.593	1209.411	970.413
225.796	27.709	1208.675	970.353
226.811	27.660	1208.191	969.617
227.826	27.731	1207.562	969.404
228.840	27.564	1207.227	968.166
229.855	27.627	1206.253	967.630
230.869	27.742	1205.256	967.353
231.884	27.761	1204.642	966.876
232.899	27.712	1203.771	965.834
233.913	27.763	1203.165	965.532
234.928	27.768	1203.070	965.395
235.942	27.824	1202.423	965.091
236.957	27.789	1201.555	964.123
237.972	27.751	1201.007	963.394
238.986	27.924	1199.989	963.405
240.001	27.888	1199.571	962.799
241.015	27.864	1198.838	961.996
242.030	27.822	1198.086	961.089
243.045	27.858	1197.691	960.874
244.059	27.846	1196.964	960.142
245.074	27.771	1196.105	958.976
246.088	28.046	1194.906	959.370
247.103	27.864	1194.328	957.868
248.117	27.883	1193.745	957.415
249.132	27.831	1193.056	956.507
250.147	27.964	1192.586	956.741
251.161	27.864	1191.740	955.455
252.176	27.909	1190.821	954.868
253.190	27.934	1190.450	954.617
254.205	27.924	1189.862	954.010
255.220	27.818	1189.488	953.072
256.234	27.941	1188.895	953.153
257.249	28.013	1187.667	952.457
258.263	27.885	1187.555	951.621
259.278	28.109	1187.127	952.359
260.293	27.950	1186.528	950.964
261.307	27.959	1185.967	950.477
262.322	28.008	1185.564	950.324
263.336	27.952	1184.456	949.061
264.351	27.922	1184.083	948.523
265.366	27.937	1183.623	948.149
266.380	27.917	1183.015	947.476
267.395	27.990	1182.372	947.256
268.409	28.082	1180.988	946.538
269.424	28.050	1181.026	946.318
270.439	28.009	1180.568	945.657
271.453	27.979	1179.525	944.581
272.468	27.921	1178.972	943.755
273.482	27.967	1178.367	943.423
274.497	28.035	1177.919	943.333
275.512	28.081	1177.326	943.011
276.526	28.052	1176.481	942.103
277.541	28.133	1175.749	941.849
278.555	28.160	1175.013	941.316
279.570	28.147	1174.424	940.693
280.585	28.187	1173.371	939.974
281.599	28.131	1172.775	939.124
282.614	28.055	1172.258	938.240
283.628	28.094	1171.308	937.598
284.643	28.168	1170.135	936.955
285.657	28.124	1169.545	936.173
286.672	28.207	1168.580	935.743
287.687	28.226	1167.684	935.035
288.701	28.175	1167.408	934.473
289.716	28.199	1166.662	933.913
290.730	28.246	1166.182	933.688
291.745	28.252	1165.606	933.176
292.760	28.122	1164.890	931.856
293.774	28.291	1164.398	932.240
294.789	28.300	1163.471	931.465
295.803	28.371	1162.697	931.122
296.818	28.292	1162.364	930.373
297.833	28.221	1161.823	929.494
298.847	28.256	1161.720	929.507
299.862	28.395	1160.049	928.794
300.876	28.301	1159.863	928.086
301.891	28.317	1159.136	927.503
302.906	28.482	1158.392	927.659
303.920	28.469	1158.055	927.241
304.935	28.419	1157.411	926.393
305.949	28.326	1157.070	925.569
306.964	28.419	1156.132	925.204
307.979	28.505	1155.301	924.894
308.993	28.405	1154.664	923.795
310.008	28.445	1154.154	923.509
311.022	28.481	1153.360	922.971
312.037	28.402	1152.443	921.759
313.052	28.496	1151.960	921.764
314.066	28.409	1151.064	920.528
315.081	28.566	1149.814	920.234
316.095	28.481	1149.407	919.404
317.110	28.483	1148.654	918.731
318.125	28.603	1147.999	918.723
319.139	28.634	1147.524	918.419
320.154	28.466	1147.184	917.224
321.168	28.557	1146.518	917.063
322.183	28.465	1145.989	916.104
323.197	28.567	1145.572	916.199
324.212	28.494	1144.811	915.143
325.227	28.621	1143.997	915.045
326.241	28.655	1143.501	914.735
327.256	28.557	1142.839	913.638
328.270	28.550	1141.973	912.830
329.285	28.636	1141.048	912.436
330.300	28.591	1140.527	911.714
331.314	28.618	1139.651	911.071
332.329	28.786	1138.734	911.090
333.343	28.689	1138.260	910.149
334.358	28.717	1137.566	909.650
335.373	28.732	1137.140	909.305
336.387	28.706	1136.190	908.335
337.402	28.814	1135.724	908.417
338.416	28.692	1135.337	907.424
339.431	28.695	1134.495	906.687
340.446	28.680	1133.807	905.979
341.460	28.797	1133.088	905.902
342.475	28.917	1132.093	905.616
343.489	28.761	1131.444	904.250
344.504	28.742	1130.657	903.451
345.519	28.929	1129.495	903.357
346.533	28.818	1129.108	902.427
347.548	28.922	1128.140	902.080
348.562	28.918	1127.346	901.345
349.577	28.768	1127.105	900.338
350.592	28.770	1126.130	899.492
351.606	28.807	1125.394	899.003
352.621	28.881	1124.996	898.968
353.635	28.844	1124.681	898.455
354.650	28.918	1123.762	898.007
355.665	28.927	1123.068	897.416
356.679	29.021	1122.821	897.595
357.694	28.989	1122.167	896.839
358.708	28.948	1121.154	895.751
359.723	28.906	1120.740	895.133
360.738	28.743	1120.389	893.981
361.752	29.109	1119.254	894.774
362.767	28.920	1118.943	893.532
363.781	28.937	1118.584	893.245
364.796	29.004	1118.521	893.444
365.810	29.177	1117.014	893.001
366.825	29.075	1116.648	892.132
367.840	29.106	1116.346	891.963
368.854	29.094	1115.911	891.479
369.869	29.201	1114.967	891.163
370.883	29.150	1114.053	890.109
371.898	29.018	1113.798	889.189
372.913	29.152	1112.925	889.058
373.927	29.230	1112.337	888.887
374.942	29.270	1112.074	888.787
375.956	29.265	1111.344	888.102
376.971	29.278	1110.829	887.676
377.986	29.179	1110.530	886.884
379.000	29.259	1109.659	886.492
380.015	29.328	1109.197	886.377
381.029	29.253	1108.433	885.326
382.044	29.171	1108.302	884.752
383.059	29.325	1107.074	884.434
384.073	29.221	1106.633	883.501
385.088	29.320	1105.474	882.971
386.102	29.336	1104.857	882.480
387.117	29.168	1104.440	881.264
388.132	29.266	1103.428	880.847
389.146	29.278	1102.768	880.298
390.161	29.273	1102.564	880.035
391.175	29.334	1101.470	879.373
392.190	29.324	1101.047	878.909
393.205	29.290	1100.138	877.945
394.219	29.311	1099.674	877.596
395.234	29.392	1098.475	876.950
396.248	29.491	1097.304	876.407
397.263	29.450	1097.193	876.043
398.278	29.476	1096.697	875.695
399.292	29.536	1095.909	875.272
400.307	29.536	1095.375	874.767
401.321	29.471	1094.991	874.077
402.336	29.336	1094.228	872.751
403.350	29.368	1093.840	872.515
404.365	29.491	1092.939	872.302
405.380	29.468	1092.077	871.427
406.394	29.696	1090.804	871.410
407.409	29.640	1090.680	870.971
408.423	29.539	1090.025	869.892
409.438	29.750	1089.105	870.074
410.453	29.799	1088.026	869.369
411.467	29.669	1087.777	868.481
412.482	29.674	1087.241	868.001
413.496	29.731	1086.478	867.583
414.511	29.557	1086.081	866.368
415.526	29.715	1085.380	866.474
416.540	29.654	1085.500	866.208
417.555	29.633	1084.698	865.394
418.569	29.666	1084.521	865.330
419.584	29.727	1083.801	864.965
420.599	29.748	1083.054	864.390
421.613	104.485	1321.362	1458.311
422.628	97.223	1356.071	1458.420
