DTS Sentinel unit serial number:	SN413079Multiplexer serial number:	ORYXHardware model number:	OX4-SRSoftware version number:	ORYX F/W v4.00 Oryx Data Collector v3.7.2.0data status	okinstallation	princeton_trtdifferential loss correction	single-endedforward channel	channel 2reverse channel	N/Adate	2019/09/15time	02:07:35forward acquisition time	60.00reverse acquisition time	0.00gamma	496.2192k internal	0.2325k external	0.2325temperature offset calibration	1.0034default loss term (dB/km)	0.3790temperature slope calibration	1.0000multiplexer offset coefficient	1.0000multiplexer slope coefficient	1.0000fibre end	0.00T internal ref (°C)	31.69T ext. ref 1 (°C)	4.55T ext. ref 2 (°C)	26.38length (m)	temperature (°C)	Stokes	anti-Stokes-747.200	800.000	0.041	-0.130
-746.185	-200.000	0.009	0.169
-745.171	-200.000	-0.006	0.060
-744.156	291.879	-0.187	0.343
-743.142	-133.826	-0.174	0.022
-742.127	159.417	-0.243	0.342
-741.112	-142.427	0.118	0.012
-740.098	67.203	-0.239	0.246
-739.083	283.448	-0.168	0.304
-738.069	-63.757	0.265	0.109
-737.054	800.000	0.023	-0.070
-736.039	-101.718	-0.417	-0.102
-735.025	32.969	0.346	0.303
-734.010	45.780	0.157	-0.147
-732.996	-4.067	-0.164	0.115
-731.981	-187.514	-0.327	-0.004
-730.966	800.000	0.054	0.219
-729.952	361.908	0.138	0.279
-728.937	-126.905	-0.048	0.007
-727.923	-200.000	-0.003	0.065
-726.908	800.000	-0.086	-0.345
-725.894	-200.000	-0.032	0.200
-724.879	-200.000	-0.040	0.301
-723.864	6.078	0.379	-0.283
-722.850	42.974	-0.207	0.190
-721.835	-200.000	0.024	0.119
-720.821	513.767	-0.140	0.329
-719.806	56.073	0.136	0.133
-718.791	16.827	0.185	0.148
-717.777	393.837	0.063	0.133
-716.762	-200.000	-0.031	-0.379
-715.748	780.641	0.183	-0.505
-714.733	355.046	0.060	-0.121
-713.718	-89.036	0.040	-0.012
-712.704	415.398	-0.002	0.005
-711.689	-200.000	-0.000	-0.111
-710.675	-200.000	0.006	0.124
-709.660	-114.287	-0.227	-0.044
-708.645	-200.000	-0.007	-0.476
-707.631	-118.522	0.144	-0.026
-706.616	107.651	0.058	0.069
-705.602	-200.000	0.019	-0.136
-704.587	-200.000	-0.023	-0.253
-703.572	-109.954	0.444	-0.094
-702.558	169.210	-0.067	0.096
-701.543	-112.031	0.120	0.024
-700.529	-200.000	-0.011	0.084
-699.514	6.414	-0.242	0.181
-698.499	-150.377	-0.113	-0.009
-697.485	-200.000	-0.053	-0.318
-696.470	-153.691	0.373	0.026
-695.456	-200.000	0.052	-0.267
-694.441	-1.915	0.141	0.100
-693.426	-200.000	0.026	-0.267
-692.412	-137.089	0.071	-0.008
-691.397	-63.948	-0.056	0.023
-690.383	38.909	-0.106	-0.095
-689.368	800.000	0.103	-0.337
-688.354	800.000	-0.049	0.149
-687.339	800.000	-0.079	-0.222
-686.324	-72.833	0.390	-0.145
-685.310	57.703	0.099	-0.098
-684.295	-155.964	-0.378	-0.024
-683.281	-124.220	0.050	-0.008
-682.266	63.769	0.122	-0.124
-681.251	-200.000	-0.027	-0.209
-680.237	-105.311	0.192	0.044
-679.222	193.290	-0.065	-0.099
-678.208	90.152	-0.176	0.198
-677.193	-63.080	0.332	-0.138
-676.178	196.471	-0.097	-0.149
-675.164	14.219	0.195	0.153
-674.149	800.000	0.019	-0.075
-673.135	305.018	-0.199	-0.372
-672.120	800.000	0.045	-0.180
-671.105	800.000	0.061	-0.232
-670.091	800.000	0.048	-0.186
-669.076	-200.000	-0.022	0.294
-668.062	-148.483	-0.078	0.006
-667.047	-106.997	-0.169	0.038
-666.032	33.170	-0.037	-0.032
-665.018	-100.858	-0.235	-0.058
-664.003	-200.000	0.000	0.007
-662.989	-14.949	-0.141	0.091
-661.974	-200.000	-0.008	-0.219
-660.959	-73.163	0.334	-0.123
-659.945	-200.000	-0.001	-0.055
-658.930	232.746	0.113	-0.186
-657.916	13.340	0.326	0.254
-656.901	10.272	-0.100	0.076
-655.886	-200.000	0.050	-0.286
-654.872	90.239	-0.399	0.449
-653.857	606.193	0.126	0.315
-652.843	216.409	-0.148	-0.237
-651.828	-31.023	0.104	-0.059
-650.814	800.000	-0.032	0.112
-649.799	-55.463	0.302	-0.136
-648.784	-36.774	-0.299	-0.161
-647.770	89.038	0.115	0.129
-646.755	37.199	-0.137	0.122
-645.741	20.206	-0.116	0.094
-644.726	800.000	0.034	0.108
-643.711	-2.779	0.415	0.292
-642.697	-83.969	-0.137	0.044
-641.682	174.943	-0.135	-0.197
-640.668	53.253	0.302	-0.290
-639.653	-87.039	0.096	0.029
-638.638	-200.000	-0.032	0.164
-637.624	13.907	-0.198	-0.155
-636.609	-24.115	0.251	0.150
-635.595	451.160	-0.064	0.142
-634.580	148.844	-0.141	0.191
-633.565	-14.776	0.029	-0.019
-632.551	-15.915	-0.294	0.188
-631.536	-200.000	0.023	0.161
-630.522	800.000	0.028	0.122
-629.507	-130.999	-0.219	-0.029
-628.492	-1.810	0.097	0.069
-627.478	-120.485	0.166	-0.028
-626.463	218.272	0.131	-0.210
-625.449	800.000	0.052	-0.229
-624.434	-55.124	0.314	0.142
-623.419	381.524	0.033	-0.068
-622.405	-12.722	-0.123	0.080
-621.390	-135.873	0.225	0.027
-620.376	-155.646	-0.305	-0.020
-619.361	210.045	0.073	-0.115
-618.346	800.000	0.039	-0.145
-617.332	42.842	0.275	0.251
-616.317	-40.066	-0.284	-0.148
-615.303	-105.219	0.104	0.024
-614.288	242.748	-0.193	-0.325
-613.273	166.631	-0.186	-0.265
-612.259	-19.013	-0.138	-0.086
-611.244	-43.189	-0.249	-0.127
-610.230	-69.317	-0.101	0.039
-609.215	37.470	0.031	-0.027
-608.201	39.423	-0.051	0.046
-607.186	-117.855	-0.325	-0.058
-606.171	371.182	0.048	-0.097
-605.157	-200.000	-0.063	0.361
-604.142	-68.318	0.251	0.098
-603.128	81.002	-0.361	-0.391
-602.113	751.605	0.073	0.197
-601.098	-23.113	-0.211	-0.127
-600.084	-79.930	-0.287	-0.097
-599.069	800.000	0.059	-0.183
-598.055	-200.000	0.024	0.247
-597.040	-33.915	0.140	0.077
-596.025	-67.675	-0.261	-0.103
-595.011	199.150	0.058	-0.089
-593.996	800.000	0.063	0.260
-592.982	102.545	-0.023	-0.027
-591.967	-161.628	-0.207	-0.011
-590.952	-156.068	0.164	0.010
-589.938	237.114	0.178	0.296
-588.923	-70.393	-0.032	-0.012
-587.909	118.627	-0.202	0.250
-586.894	-52.944	-0.099	0.046
-585.879	14.332	0.077	0.060
-584.865	-40.994	0.284	-0.147
-583.850	-200.000	-0.023	0.123
-582.836	-200.000	-0.009	-0.178
-581.821	135.110	0.217	0.283
-580.806	-2.758	-0.301	-0.211
-579.792	389.589	0.018	-0.038
-578.777	22.728	-0.190	-0.156
-577.763	313.462	-0.099	-0.186
-576.748	478.812	-0.145	-0.330
-575.733	184.678	-0.040	-0.060
-574.719	236.599	0.086	0.143
-573.704	-200.000	-0.002	-0.150
-572.690	-200.000	-0.008	-0.110
-571.675	-200.000	-0.009	-0.115
-570.661	-18.738	-0.122	0.076
-569.646	347.144	0.119	-0.235
-568.631	-26.807	0.091	-0.053
-567.617	30.334	0.216	-0.185
-566.602	-154.199	-0.750	0.051
-565.588	-200.000	-0.044	-0.216
-564.573	62.444	-0.052	-0.052
-563.558	59.842	0.116	-0.115
-562.544	-135.534	-0.437	-0.052
-561.529	-190.362	0.086	0.001
-560.515	-200.000	0.020	-0.212
-559.500	-13.936	0.184	-0.119
-558.485	-39.823	0.083	-0.043
-557.471	-69.367	-0.352	0.135
-556.456	-200.000	-0.011	0.443
-555.442	130.009	0.216	-0.277
-554.427	415.931	0.164	0.350
-553.412	125.507	0.239	-0.302
-552.398	13.962	0.106	-0.083
-551.383	-200.000	0.019	-0.092
-550.369	317.613	-0.040	-0.075
-549.354	-200.000	-0.023	-0.182
-548.339	-200.000	-0.060	-0.368
-547.325	-87.459	-0.228	-0.069
-546.310	800.000	-0.033	0.098
-545.296	54.211	-0.214	0.207
-544.281	-200.000	-0.029	0.139
-543.266	16.921	0.206	0.163
-542.252	-30.431	-0.367	-0.209
-541.237	18.879	-0.095	-0.076
-540.223	79.672	-0.166	0.179
-539.208	800.000	-0.114	0.341
-538.193	437.467	0.097	0.211
-537.179	70.461	-0.203	-0.210
-536.164	-200.000	-0.060	0.330
-535.150	800.000	0.042	0.170
-534.135	-84.030	0.317	-0.101
-533.121	-200.000	0.023	-0.355
-532.106	172.331	0.112	0.161
-531.091	-200.000	-0.015	-0.236
-530.077	800.000	0.013	-0.043
-529.062	100.995	0.202	-0.235
-528.048	-79.281	0.156	0.053
-527.033	800.000	-0.034	-0.140
-526.018	24.985	-0.084	-0.070
-525.004	51.807	0.141	-0.134
-523.989	-119.033	0.059	-0.010
-522.975	77.875	-0.276	0.295
-521.960	59.182	0.231	-0.227
-520.945	199.777	-0.130	-0.200
-519.931	-200.000	0.126	0.000
-518.916	-103.646	-0.035	0.008
-517.902	603.084	0.089	-0.220
-516.887	-69.673	0.183	0.070
-515.872	-39.897	0.161	-0.084
-514.858	800.000	-0.036	0.143
-513.843	407.011	0.125	-0.264
-512.829	-135.865	0.202	0.024
-511.814	70.946	0.036	0.037
-510.799	-74.006	0.267	-0.097
-509.785	112.936	0.124	-0.151
-508.770	-150.813	-0.271	0.021
-507.756	-164.368	0.215	0.010
-506.741	76.373	0.089	0.094
-505.726	800.000	-0.072	0.240
-504.712	44.290	-0.082	0.075
-503.697	-40.223	-0.044	-0.023
-502.683	-122.729	-0.300	0.048
-501.668	122.906	0.105	0.131
-500.653	-144.368	0.047	-0.004
-499.639	-65.836	0.191	-0.076
-498.624	166.002	-0.094	-0.133
-497.610	800.000	-0.019	-0.071
-496.595	688.538	0.064	-0.167
-495.581	-200.000	-0.020	-0.382
-494.566	85.043	-0.148	0.162
-493.551	205.553	0.073	0.113
-492.537	-47.181	-0.202	0.099
-491.522	-39.548	0.128	-0.067
-490.508	800.000	0.066	-0.248
-489.493	-25.260	0.171	-0.101
-488.478	-15.720	0.163	0.104
-487.464	800.000	-0.069	-0.209
-486.449	-12.284	-0.103	-0.067
-485.435	-200.000	-0.033	-0.290
-484.420	-11.094	-0.398	0.263
-483.405	4.255	0.169	0.124
-482.391	-83.258	-0.335	0.108
-481.376	800.000	-0.085	0.308
-480.362	-200.000	-0.004	0.215
-479.347	-49.555	0.204	0.097
-478.332	174.187	-0.160	-0.231
-477.318	-108.927	-0.118	-0.025
-476.303	113.262	0.153	-0.185
-475.289	-39.748	-0.357	0.186
-474.274	-66.964	-0.242	-0.095
-473.259	800.000	0.136	0.463
-472.245	-55.601	0.198	0.089
-471.230	36.913	-0.075	0.066
-470.216	-126.588	0.168	-0.025
-469.201	-64.143	0.169	-0.069
-468.186	28.882	0.113	0.096
-467.172	-200.000	-0.003	-0.180
-466.157	765.542	-0.094	-0.255
-465.143	-143.877	-0.194	-0.018
-464.128	16.474	0.335	0.264
-463.113	-59.952	-0.409	-0.175
-462.099	20.178	-0.334	-0.269
-461.084	-200.000	-0.014	-0.117
-460.070	158.890	-0.196	0.272
-459.055	77.919	0.118	0.125
-458.040	17.427	0.161	-0.127
-457.026	-175.167	-0.225	-0.006
-456.011	-36.577	-0.061	-0.033
-454.997	111.370	0.179	0.215
-453.982	-90.735	-0.296	-0.085
-452.968	81.473	-0.051	-0.055
-451.953	426.017	0.109	-0.234
-450.938	-200.000	0.003	0.571
-449.924	-75.018	0.224	-0.080
-448.909	198.027	-0.036	0.054
-447.895	11.950	-0.290	-0.222
-446.880	-101.320	0.257	0.063
-445.865	-123.137	-0.078	-0.012
-444.851	800.000	-0.054	-0.225
-443.836	235.191	0.091	-0.150
-442.822	-200.000	-0.009	-0.226
-441.807	-200.000	0.039	-0.182
-440.792	-200.000	-0.033	-0.150
-439.778	102.982	-0.227	0.266
-438.763	115.307	-0.078	-0.095
-437.749	-200.000	-0.001	-0.148
-436.734	409.303	-0.111	0.234
-435.719	212.322	-0.041	0.065
-434.705	77.877	0.260	0.276
-433.690	141.613	-0.145	-0.192
-432.676	163.497	-0.248	0.348
-431.661	-132.022	-0.116	0.015
-430.646	-200.000	0.017	-0.113
-429.632	37.232	-0.121	-0.107
-428.617	-23.424	-0.204	0.122
-427.603	800.000	-0.029	0.086
-426.588	-200.000	0.020	-0.186
-425.573	-25.347	-0.283	0.167
-424.559	-200.000	-0.013	-0.071
-423.544	-200.000	-0.005	-0.255
-422.530	-31.465	-0.249	-0.139
-421.515	-200.000	0.062	0.463
-420.500	-12.961	-0.417	0.271
-419.486	58.402	0.228	0.222
-418.471	-145.594	-0.287	-0.026
-417.457	-200.000	-0.034	-0.290
-416.442	293.536	-0.159	0.290
-415.428	422.146	0.058	0.125
-414.413	-90.014	-0.178	-0.052
-413.398	176.085	-0.090	0.130
-412.384	116.943	-0.183	-0.224
-411.369	57.654	0.157	0.153
-410.355	34.985	0.196	0.171
-409.340	-14.244	-0.128	-0.082
-408.325	-94.850	0.168	0.045
-407.311	-200.000	0.218	0.000
-406.296	-181.470	0.055	0.001
-405.282	-68.232	0.340	0.132
-404.267	100.365	0.084	0.097
-403.252	53.232	0.250	0.238
-402.238	-130.675	0.189	-0.025
-401.223	-200.000	-0.004	-0.282
-400.209	800.000	-0.020	-0.080
-399.194	-99.675	-0.176	-0.044
-398.179	-152.045	0.265	0.019
-397.165	188.842	-0.132	-0.196
-396.150	547.604	0.260	0.620
-395.136	84.304	-0.154	0.167
-394.121	40.379	0.114	-0.102
-393.106	-69.926	0.104	-0.039
-392.092	-200.000	-0.009	-0.162
-391.077	-84.671	0.087	-0.027
-390.063	236.046	0.155	-0.255
-389.048	98.582	0.174	0.200
-388.033	-145.537	0.146	-0.013
-387.019	-200.000	0.002	-0.237
-386.004	800.000	0.058	-0.181
-384.990	-120.943	-0.265	0.044
-383.975	-115.251	-0.177	-0.033
-382.960	-140.222	0.199	-0.021
-381.946	-200.000	0.011	0.310
-380.931	211.754	0.141	0.221
-379.917	-200.000	0.048	0.239
-378.902	-62.336	-0.064	-0.026
-377.888	83.291	0.149	-0.161
-376.873	-101.777	-0.250	0.060
-375.858	-200.000	0.007	0.056
-374.844	54.303	0.376	-0.360
-373.829	-200.000	0.001	-0.160
-372.815	770.137	0.085	0.231
-371.800	13.779	0.258	-0.199
-370.785	-23.470	0.234	0.140
-369.771	-200.000	0.003	-0.099
-368.756	231.411	0.087	0.142
-367.742	-200.000	-0.011	0.122
-366.727	238.111	0.090	0.148
-365.712	97.213	0.205	0.234
-364.698	9.033	-0.337	0.253
-363.683	-7.047	0.069	-0.046
-362.669	42.927	-0.192	-0.174
-361.654	172.035	0.257	0.367
-360.639	-200.000	0.031	-0.171
-359.625	-134.313	0.232	0.028
-358.610	-67.145	0.099	-0.039
-357.596	800.000	-0.079	-0.237
-356.581	78.784	0.081	-0.086
-355.566	-87.735	0.165	-0.049
-354.552	800.000	-0.147	-0.403
-353.537	800.000	0.044	-0.153
-352.523	-117.397	-0.223	0.040
-351.508	104.068	-0.177	0.207
-350.493	-165.796	0.165	-0.007
-349.479	-200.000	-0.025	-0.152
-348.464	34.422	-0.166	-0.144
-347.450	95.389	0.147	-0.167
-346.435	-200.000	-0.010	-0.103
-345.420	110.322	-0.078	0.093
-344.406	-83.600	-0.286	-0.091
-343.391	-103.276	-0.410	-0.096
-342.377	51.524	0.158	0.149
-341.362	88.335	0.239	0.264
-340.348	-36.215	0.090	0.048
-339.333	-108.469	-0.183	0.039
-338.318	56.330	0.091	-0.088
-337.304	-99.401	-0.204	0.051
-336.289	-89.832	-0.182	0.053
-335.275	-200.000	0.040	-0.342
-334.260	-200.000	0.033	-0.259
-333.245	800.000	0.086	-0.297
-332.231	800.000	0.025	0.074
-331.216	-200.000	-0.015	-0.134
-330.202	-179.170	-0.224	0.005
-329.187	-136.905	-0.163	0.019
-328.172	-124.846	0.195	0.030
-327.158	-129.736	0.162	-0.022
-326.143	163.687	-0.108	-0.150
-325.129	54.243	0.179	-0.171
-324.114	-8.388	0.048	-0.032
-323.099	166.435	-0.114	-0.161
-322.085	531.969	0.092	-0.217
-321.070	94.198	0.102	0.115
-320.056	6.102	0.285	-0.210
-319.041	54.008	-0.140	0.134
-318.026	113.554	0.096	0.115
-317.012	93.878	-0.354	0.398
-315.997	639.351	-0.095	0.239
-314.983	90.928	-0.044	-0.049
-313.968	189.141	0.126	0.188
-312.953	125.218	-0.183	0.229
-311.939	800.000	-0.009	0.039
-310.924	152.745	-0.021	-0.028
-309.910	800.000	-0.067	0.195
-308.895	48.735	0.178	0.165
-307.880	800.000	0.060	0.259
-306.866	176.601	0.113	0.163
-305.851	-26.988	0.217	-0.126
-304.837	309.797	0.128	0.238
-303.822	693.561	0.063	0.163
-302.807	-75.879	-0.276	0.097
-301.793	-114.821	0.047	0.009
-300.778	-200.000	-0.009	0.431
-299.764	-65.511	0.334	-0.133
-298.749	-1.047	0.189	0.132
-297.735	231.127	0.100	0.163
-296.720	-162.866	0.058	-0.003
-295.705	-91.612	-0.143	0.040
-294.691	-108.787	0.113	-0.024
-293.676	101.852	-0.137	-0.158
-292.662	20.480	-0.165	-0.132
-291.647	245.214	-0.055	0.092
-290.632	355.899	-0.080	-0.158
-289.618	598.117	0.136	-0.335
-288.603	215.764	0.203	0.320
-287.589	-200.000	-0.048	0.301
-286.574	109.269	0.092	0.109
-285.559	91.132	-0.233	0.260
-284.545	326.770	-0.200	-0.380
-283.530	-136.980	-0.155	-0.018
-282.516	-125.404	0.259	0.039
-281.501	-200.000	0.005	0.181
-280.486	-140.713	-0.264	0.027
-279.472	216.774	-0.167	0.263
-278.457	-200.000	0.077	0.342
-277.443	-200.000	0.018	0.341
-276.428	289.627	-0.156	-0.280
-275.413	-112.497	0.323	0.064
-274.399	144.573	-0.082	0.109
-273.384	-58.052	0.301	0.130
-272.370	302.294	0.065	0.120
-271.355	-200.000	-0.031	0.196
-270.340	2.175	-0.348	0.249
-269.326	-123.868	0.271	0.042
-268.311	-20.775	0.388	0.236
-267.297	-34.664	0.464	-0.251
-266.282	179.157	0.134	-0.195
-265.267	800.000	-0.056	0.156
-264.253	-30.106	0.115	-0.065
-263.238	15.258	-0.163	-0.127
-262.224	38.553	-0.353	0.312
-261.209	-175.756	0.394	-0.010
-260.195	-9.930	0.187	-0.123
-259.180	-83.398	-0.162	-0.051
-258.165	-200.000	0.004	0.100
-257.151	292.424	-0.008	0.014
-256.136	611.265	-0.078	-0.192
-255.122	-120.667	-0.087	-0.015
-254.107	-132.098	0.112	0.014
-253.092	255.012	-0.118	-0.201
-252.078	-200.000	0.024	0.237
-251.063	-80.444	-0.452	0.149
-250.049	-200.000	-0.023	0.222
-249.034	667.094	0.057	0.145
-248.019	800.000	0.083	0.254
-247.005	765.704	0.127	-0.341
-245.990	273.573	-0.118	-0.207
-244.976	-47.672	0.191	0.092
-243.961	321.813	-0.080	-0.151
-242.946	-200.000	-0.011	0.607
-241.932	-19.164	-0.316	-0.194
-240.917	-28.058	-0.264	0.151
-239.903	-133.815	-0.228	-0.028
-238.888	72.513	0.100	0.103
-237.873	557.786	-0.025	-0.060
-236.859	-200.000	-0.017	-0.134
-235.844	-60.754	0.192	-0.080
-234.830	-200.000	0.008	-0.409
-233.815	48.028	0.141	-0.130
-232.800	-134.931	-0.175	0.021
-231.786	-68.114	-0.115	-0.044
-230.771	-17.226	-0.314	-0.195
-229.757	-38.452	-0.090	-0.047
-228.742	-121.775	-0.136	-0.022
-227.727	-79.360	0.448	-0.150
-226.713	-130.187	-0.141	0.019
-225.698	762.115	0.085	0.228
-224.684	-44.326	0.343	0.170
-223.669	-1.792	0.124	-0.087
-222.655	-115.135	-0.297	-0.056
-221.640	800.000	0.031	0.132
-220.625	-57.740	-0.079	-0.034
-219.611	-98.178	0.116	-0.029
-218.596	-200.000	-0.053	-0.381
-217.582	4.210	0.140	0.101
-216.567	291.803	-0.224	0.403
-215.552	108.225	-0.151	0.179
-214.538	-169.000	-0.062	0.002
-213.523	-79.042	0.260	-0.087
-212.509	-49.510	0.057	0.027
-211.494	-79.428	0.113	0.038
-210.479	-123.128	-0.094	-0.015
-209.465	-18.801	0.097	-0.060
-208.450	-27.368	0.217	-0.125
-207.436	800.000	0.032	-0.109
-206.421	-96.055	0.330	0.087
-205.406	-140.975	0.037	0.004
-204.392	47.533	0.419	-0.386
-203.377	-200.000	0.012	-0.117
-202.363	-48.712	-0.192	0.091
-201.348	800.000	0.085	0.336
-200.333	0.602	0.284	-0.201
-199.319	800.000	0.057	-0.211
-198.304	-87.612	0.151	0.045
-197.290	409.363	0.149	0.312
-196.275	0.777	0.104	-0.073
-195.260	-83.580	0.172	-0.054
-194.246	-136.595	0.045	-0.005
-193.231	-200.000	0.029	-0.210
-192.217	175.024	-0.086	-0.122
-191.202	531.353	0.031	-0.071
-190.187	1.904	0.060	0.043
-189.173	-14.343	-0.275	0.175
-188.158	800.000	-0.024	-0.087
-187.144	696.890	0.107	-0.277
-186.129	-180.172	0.190	-0.004
-185.114	-200.000	0.013	-0.176
-184.100	492.943	-0.102	0.231
-183.085	-68.655	0.050	0.019
-182.071	727.052	0.138	-0.364
-181.056	-6.242	-0.386	-0.260
-180.042	146.250	0.203	0.268
-179.027	114.633	0.125	-0.150
-178.012	-200.000	0.008	0.053
-176.998	-15.750	-0.068	-0.043
-175.983	-1.513	0.166	0.115
-174.969	-98.557	-0.189	-0.048
-173.954	133.685	0.149	0.191
-172.939	-101.782	-0.177	0.042
-171.925	-114.043	-0.100	-0.019
-170.910	35.578	-0.200	-0.173
-169.896	-11.847	0.281	-0.182
-168.881	131.376	-0.207	-0.263
-167.866	-3.479	0.139	-0.096
-166.852	-33.089	-0.098	-0.054
-165.837	-41.520	-0.043	-0.022
-164.823	225.641	-0.147	0.235
-163.808	38.763	-0.110	-0.097
-162.793	-200.000	0.016	-0.296
-161.779	800.000	-0.136	0.393
-160.764	-123.136	-0.054	-0.009
-159.750	92.675	0.110	-0.122
-158.735	-9.122	0.125	0.082
-157.720	-100.552	-0.057	0.014
-156.706	-89.139	0.118	0.034
-155.691	8.262	0.206	-0.153
-154.677	-19.356	-0.390	0.238
-153.662	-200.000	-0.016	0.495
-152.647	-103.933	0.178	-0.041
-151.633	800.000	-0.038	-0.108
-150.618	-193.370	-0.083	-0.001
-149.604	-105.104	0.175	0.039
-148.589	469.449	0.150	0.333
-147.574	-105.075	-0.073	-0.017
-146.560	-200.000	0.001	0.096
-145.545	324.446	0.163	0.307
-144.531	296.305	-0.018	0.033
-143.516	15.253	-0.320	0.247
-142.502	680.854	-0.069	0.178
-141.487	135.078	0.112	-0.143
-140.472	-168.240	-0.124	-0.005
-139.458	-200.000	0.020	-0.200
-138.443	342.050	-0.214	0.413
-137.429	121.844	0.236	0.291
-136.414	105.137	-0.149	0.173
-135.399	35.238	-0.152	-0.131
-134.385	191.988	-0.099	0.147
-133.370	-137.031	0.301	0.034
-132.356	-128.802	-0.071	-0.010
-131.341	-129.040	0.318	0.044
-130.326	-106.876	-0.285	-0.062
-129.312	208.345	0.047	-0.072
-128.297	111.878	-0.211	0.251
-127.283	-200.000	0.017	-0.253
-126.268	-0.621	0.111	0.077
-125.253	-200.000	0.031	0.270
-124.239	800.000	-0.046	-0.161
-123.224	-200.000	0.000	0.062
-122.210	-200.000	0.055	0.561
-121.195	-200.000	0.052	0.268
-120.180	-168.630	-0.090	-0.003
-119.166	-200.000	-0.011	0.075
-118.151	-27.546	-0.194	0.111
-117.137	210.525	0.119	0.184
-116.122	-200.000	0.021	0.345
-115.107	-46.090	-0.266	-0.129
-114.093	55.412	0.445	-0.424
-113.078	-200.000	-0.041	-0.348
-112.064	275.717	0.039	0.068
-111.049	-20.246	0.173	0.105
-110.034	140.764	0.117	0.152
-109.020	463.154	0.187	0.410
-108.005	37.841	0.080	0.070
-106.991	111.948	0.158	0.188
-105.976	-114.120	-0.072	-0.014
-104.962	-10.969	0.436	-0.283
-103.947	531.911	-0.124	0.288
-102.932	-154.677	0.076	0.005
-101.918	800.000	-0.046	-0.144
-100.903	363.184	0.060	-0.119
-99.889	-34.870	-0.320	0.172
-98.874	40.571	-0.123	-0.109
-97.859	187.177	0.218	0.320
-96.845	114.695	-0.124	0.149
-95.830	800.000	-0.069	0.253
-94.816	-28.588	0.285	0.161
-93.801	-118.058	-0.042	0.007
-92.786	-200.000	0.001	0.125
-91.772	266.934	-0.138	-0.237
-90.757	219.720	0.128	0.201
-89.743	-126.287	-0.184	-0.027
-88.728	-200.000	-0.002	0.055
-87.713	260.281	0.140	0.239
-86.699	-200.000	0.010	0.116
-85.684	57.205	0.083	-0.080
-84.670	-200.000	-0.075	-0.342
-83.655	501.866	-0.028	0.064
-82.640	800.000	-0.063	-0.218
-81.626	475.643	-0.070	-0.156
-80.611	-153.741	0.303	-0.020
-79.597	-200.000	0.027	0.359
-78.582	-200.000	0.002	-0.286
-77.567	206.027	-0.134	0.204
-76.553	-200.000	-0.040	0.245
-75.538	314.600	0.258	-0.478
-74.524	-138.826	0.331	-0.035
-73.509	228.566	-0.092	-0.147
-72.494	36.701	0.276	0.239
-71.480	291.349	-0.108	0.194
-70.465	-105.694	-0.189	0.042
-69.451	-30.961	0.165	0.091
-68.436	378.174	0.049	0.098
-67.422	-155.883	-0.204	-0.013
-66.407	-73.204	0.143	-0.051
-65.392	14.981	0.130	-0.100
-64.378	-106.383	0.254	-0.056
-63.363	-50.034	-0.111	0.052
-62.349	-44.395	0.439	-0.216
-61.334	86.341	-0.884	-0.957
-60.319	352.309	0.325	0.632
-59.305	-200.000	-0.029	-1.243
-58.290	800.000	0.353	1.132
-57.276	251.926	0.835	1.397
-56.261	-200.000	96.869	603.504
-55.246	643.115	1379.773	3455.176
-54.232	196.728	2566.658	3842.129
-53.217	113.835	2269.553	2709.474
-52.203	41.284	1895.896	1683.639
-51.188	34.992	1685.659	1449.415
-50.173	32.291	1642.082	1391.923
-49.159	50.286	1689.236	1567.293
-48.144	51.955	1705.837	1595.141
-47.130	34.672	1665.799	1429.712
-46.115	31.814	1651.849	1396.426
-45.100	31.642	1647.317	1391.265
-44.086	31.667	1644.473	1388.991
-43.071	31.665	1642.194	1386.997
-42.057	31.689	1639.364	1384.730
-41.042	31.605	1637.753	1382.696
-40.027	31.670	1635.490	1381.213
-39.013	31.602	1633.624	1379.078
-37.998	31.490	1632.217	1377.014
-36.984	31.588	1631.136	1376.763
-35.969	31.689	1629.295	1375.895
-34.954	31.753	1627.668	1374.941
-33.940	31.634	1626.328	1372.877
-32.925	31.751	1623.998	1371.716
-31.911	31.633	1622.763	1369.758
-30.896	31.746	1620.181	1368.343
-29.881	31.618	1619.287	1366.599
-28.867	31.620	1617.380	1364.951
-27.852	31.615	1616.018	1363.714
-26.838	31.660	1614.706	1362.878
-25.823	31.645	1613.402	1361.614
-24.809	31.709	1612.110	1360.936
-23.794	31.694	1610.637	1359.531
-22.779	31.709	1609.185	1358.357
-21.765	31.675	1607.740	1356.842
-20.750	31.706	1605.767	1355.344
-19.736	31.678	1604.509	1354.026
-18.721	31.678	1603.045	1352.740
-17.706	31.737	1601.542	1351.843
-16.692	31.643	1600.486	1350.218
-15.677	31.774	1598.628	1349.543
-14.663	31.819	1597.465	1348.827
-13.648	31.783	1596.132	1347.392
-12.633	31.785	1594.450	1345.935
-11.619	31.669	1593.039	1343.856
-10.604	31.783	1591.240	1343.100
-9.590	31.713	1590.436	1341.872
-8.575	31.728	1588.531	1340.314
-7.560	31.791	1587.544	1339.883
-6.546	31.712	1586.621	1338.480
-5.531	31.785	1585.368	1337.891
-4.517	31.807	1584.008	1336.849
-3.502	31.682	1582.870	1334.946
-2.487	31.807	1581.075	1334.267
-1.473	31.433	1569.875	1322.118
-0.458	28.695	1550.550	1286.641
0.556	24.479	1551.048	1255.014
1.571	22.136	1574.309	1256.982
2.586	21.530	1587.050	1262.669
3.600	19.082	1533.822	1203.124
4.615	11.713	1426.013	1070.393
5.629	5.522	1365.181	985.746
6.644	4.707	1357.325	974.883
7.659	4.522	1356.144	972.789
8.673	4.447	1355.265	971.599
9.688	4.524	1353.098	970.443
10.702	4.481	1350.094	967.933
11.717	7.225	1355.776	989.075
12.731	14.420	1368.738	1043.648
13.746	18.963	1375.877	1077.528
14.761	18.860	1373.811	1075.173
15.775	17.823	1371.308	1066.638
16.790	16.751	1368.783	1057.886
17.804	15.917	1366.496	1050.822
18.819	15.553	1365.338	1047.572
19.834	15.293	1364.023	1044.850
20.848	15.011	1363.016	1042.229
21.863	14.864	1361.326	1039.932
22.877	14.713	1360.398	1038.189
23.892	14.679	1359.368	1037.104
24.907	14.683	1358.492	1036.370
25.921	14.682	1357.842	1035.775
26.936	14.607	1357.335	1034.828
27.950	14.692	1356.139	1034.356
28.965	14.748	1355.129	1033.841
29.980	14.921	1353.735	1033.753
30.994	15.066	1352.036	1033.261
32.009	14.993	1351.773	1032.515
33.023	15.004	1350.002	1031.142
34.038	14.918	1349.015	1029.768
35.053	14.844	1347.396	1027.984
36.067	14.813	1346.233	1026.817
37.082	14.913	1345.287	1026.615
38.096	14.874	1344.374	1025.592
39.111	14.867	1343.808	1025.025
40.126	14.778	1342.651	1023.504
41.140	14.725	1341.581	1022.277
42.155	14.705	1341.074	1021.672
43.169	14.593	1341.306	1021.078
44.184	14.460	1341.320	1020.185
45.199	14.678	1340.034	1020.449
46.213	14.592	1340.220	1019.974
47.228	14.888	1338.895	1020.683
48.242	14.843	1338.093	1019.707
49.257	14.858	1336.286	1018.331
50.271	14.792	1334.969	1016.836
51.286	14.814	1333.549	1015.796
52.301	14.911	1331.964	1015.085
53.315	14.800	1331.000	1013.592
54.330	14.733	1330.062	1012.380
55.344	14.660	1329.259	1011.235
56.359	14.646	1328.254	1010.296
57.374	14.599	1327.151	1009.085
58.388	14.606	1326.356	1008.432
59.403	14.641	1326.019	1008.298
60.417	14.689	1324.848	1007.607
61.432	14.537	1324.600	1006.416
62.447	14.473	1323.738	1005.286
63.461	14.537	1322.364	1004.540
64.476	14.507	1321.028	1003.253
65.490	14.499	1319.971	1002.316
66.505	14.591	1318.647	1001.774
67.520	14.531	1317.209	1000.234
68.534	14.524	1316.567	999.614
69.549	14.473	1315.517	998.426
70.563	14.612	1313.973	997.994
71.578	14.439	1313.122	996.226
72.593	14.462	1312.350	995.690
73.607	14.281	1312.087	994.322
74.622	14.364	1310.991	993.895
75.636	14.466	1309.879	993.575
76.651	14.417	1309.429	992.855
77.666	14.340	1309.090	992.048
78.680	14.438	1308.420	992.034
79.695	14.399	1307.729	991.191
80.709	14.565	1306.660	991.281
81.724	14.635	1305.568	990.782
82.739	14.646	1305.223	990.498
83.753	14.659	1304.340	989.815
84.768	14.856	1302.972	989.855
85.782	14.825	1302.207	989.005
86.797	14.809	1300.618	987.618
87.812	14.750	1299.910	986.645
88.826	14.783	1298.695	985.828
89.841	14.861	1297.746	985.481
90.855	14.868	1296.639	984.593
91.870	14.880	1295.574	983.770
92.884	14.847	1294.913	982.987
93.899	14.927	1294.062	982.723
94.914	14.899	1293.256	981.858
95.928	14.956	1292.168	981.280
96.943	15.009	1291.071	980.674
97.957	14.869	1290.455	979.298
98.972	14.840	1289.982	978.682
99.987	14.858	1288.321	977.440
101.001	14.960	1287.167	977.076
102.016	14.975	1286.059	976.232
103.030	14.919	1285.751	975.585
104.045	14.874	1284.742	974.471
105.060	14.916	1283.103	973.391
106.074	14.750	1281.918	971.436
107.089	14.494	1280.976	969.148
108.103	14.580	1279.411	968.378
109.118	14.531	1278.560	967.364
110.133	14.558	1276.528	965.899
111.147	14.543	1275.841	965.205
112.162	14.709	1273.963	964.658
113.176	14.728	1272.826	963.824
114.191	14.708	1272.252	963.189
115.206	14.733	1271.149	962.414
116.220	14.675	1269.638	960.849
117.235	14.689	1268.963	960.332
118.249	14.677	1267.768	959.276
119.264	14.560	1266.501	957.558
120.279	14.637	1265.284	956.997
121.293	14.629	1264.301	956.124
122.308	14.429	1263.816	954.529
123.322	14.527	1262.395	953.927
124.337	14.617	1261.242	953.485
125.352	14.544	1260.279	952.258
126.366	14.444	1259.476	951.000
127.381	14.530	1258.407	950.595
128.395	14.610	1256.872	949.805
129.410	14.582	1256.063	948.952
130.424	14.636	1255.445	948.711
131.439	14.656	1254.206	947.801
132.454	14.602	1253.813	947.114
133.468	14.642	1252.780	946.479
134.483	14.700	1251.910	946.068
135.497	14.646	1251.391	945.283
136.512	14.666	1249.963	944.233
137.527	14.771	1248.646	943.751
138.541	14.841	1246.951	942.780
139.556	14.777	1245.629	941.337
140.570	14.800	1245.154	941.022
141.585	14.947	1243.610	940.599
142.600	14.836	1242.562	939.103
143.614	14.922	1241.771	938.902
144.629	15.007	1241.039	938.744
145.643	14.993	1239.468	937.395
146.658	14.855	1238.596	935.878
147.673	14.787	1236.645	933.943
148.687	14.654	1235.968	932.606
149.702	14.770	1234.387	931.973
150.716	14.753	1232.849	930.637
151.731	14.762	1231.915	929.900
152.746	14.733	1231.242	929.148
153.760	14.799	1229.619	928.208
154.775	14.862	1228.519	927.645
155.789	14.932	1227.610	927.263
156.804	14.963	1226.658	926.634
157.819	14.974	1225.712	925.900
158.833	14.971	1224.883	925.178
159.848	15.038	1223.951	924.762
160.862	15.090	1222.795	924.088
161.877	14.911	1221.743	922.225
162.892	14.874	1220.461	920.971
163.906	14.850	1219.687	920.175
164.921	14.759	1219.008	919.083
165.935	14.881	1217.780	918.747
166.950	14.946	1217.089	918.500
167.964	14.872	1216.431	917.519
168.979	14.993	1215.381	917.308
169.994	14.920	1214.710	916.321
171.008	15.022	1213.881	916.173
172.023	15.044	1213.468	915.900
173.037	15.086	1212.582	915.376
174.052	15.085	1211.216	914.259
175.067	14.985	1210.210	912.873
176.081	14.941	1209.381	911.927
177.096	14.949	1208.465	911.203
178.110	15.001	1207.236	910.478
179.125	14.921	1206.344	909.291
180.140	15.018	1204.919	908.663
181.154	14.975	1204.179	907.789
182.169	15.048	1202.796	907.064
183.183	15.109	1201.666	906.459
184.198	15.232	1200.572	906.217
185.213	15.250	1199.380	905.334
186.227	15.202	1198.262	904.151
187.242	15.260	1197.539	903.840
188.256	15.362	1196.598	903.601
189.271	15.275	1195.620	902.315
190.286	15.127	1194.390	900.506
191.300	14.926	1193.802	898.906
192.315	14.957	1193.004	898.393
193.329	15.024	1192.091	897.983
194.344	15.020	1191.687	897.578
195.359	15.116	1191.268	897.700
196.373	15.105	1191.213	897.521
197.388	15.137	1190.731	897.247
198.402	15.415	1189.913	898.040
199.417	15.451	1189.077	897.522
200.432	15.516	1188.170	897.104
201.446	15.537	1187.673	896.762
202.461	15.585	1186.604	896.134
203.475	15.541	1185.639	895.088
204.490	15.564	1184.345	894.156
205.504	15.372	1183.395	892.338
206.519	15.402	1181.862	891.262
207.534	15.459	1180.679	890.593
208.548	15.441	1179.827	889.776
209.563	15.340	1179.394	888.837
210.577	15.379	1178.197	888.063
211.592	15.546	1177.422	888.282
212.607	15.597	1176.720	887.947
213.621	15.483	1175.886	886.636
214.636	15.521	1174.766	885.913
215.650	15.582	1173.946	885.537
216.665	15.634	1172.983	885.005
217.680	15.653	1172.287	884.505
218.694	15.697	1171.323	883.929
219.709	15.707	1170.514	883.293
220.723	15.771	1169.703	882.940
221.738	15.658	1169.787	882.330
222.753	15.558	1168.621	880.847
223.767	15.815	1167.736	881.450
224.782	15.770	1167.623	881.052
225.796	15.892	1166.506	880.769
226.811	15.894	1165.592	880.013
227.826	15.758	1165.269	878.979
228.840	15.711	1164.240	877.880
229.855	15.722	1163.557	877.342
230.869	15.707	1163.309	877.003
231.884	15.844	1161.849	876.536
232.899	15.758	1161.422	875.687
233.913	15.661	1160.819	874.650
234.928	15.752	1159.591	874.120
235.942	15.681	1159.089	873.298
236.957	15.694	1158.205	872.621
237.972	15.662	1157.698	871.997
238.986	15.727	1156.432	871.301
240.001	15.652	1156.513	870.896
241.015	15.762	1154.979	870.232
242.030	15.810	1154.354	869.936
243.045	15.812	1154.050	869.641
244.059	15.868	1152.977	869.041
245.074	16.000	1152.214	869.069
246.088	15.956	1151.375	868.137
247.103	15.974	1150.439	867.446
248.117	15.961	1150.101	867.049
249.132	16.155	1149.128	867.232
250.147	16.232	1149.043	867.489
251.161	16.250	1148.173	866.847
252.176	16.324	1147.498	866.639
253.190	16.350	1146.711	866.105
254.205	16.431	1146.188	866.048
255.220	16.330	1145.940	865.266
256.234	16.387	1145.076	864.830
257.249	16.317	1144.464	863.934
258.263	16.361	1143.962	863.701
259.278	16.364	1143.288	863.131
260.293	16.326	1142.769	862.470
261.307	16.505	1142.150	862.841
262.322	16.593	1140.999	862.340
263.336	16.488	1140.228	861.147
264.351	16.605	1139.968	861.472
265.366	16.594	1139.281	860.818
266.380	16.581	1138.586	860.153
267.395	16.534	1137.551	859.054
268.409	16.311	1137.263	857.632
269.424	16.535	1136.098	857.811
270.439	16.524	1135.718	857.393
271.453	16.444	1135.004	856.371
272.468	16.490	1133.859	855.663
273.482	16.347	1133.396	854.519
274.497	16.387	1132.720	854.136
275.512	16.427	1132.256	853.913
276.526	16.447	1131.290	853.207
277.541	16.633	1130.047	853.131
278.555	16.508	1129.798	852.237
279.570	16.584	1129.222	852.110
280.585	16.730	1128.157	851.967
281.599	16.687	1127.193	850.946
282.614	16.678	1126.355	850.196
283.628	16.610	1125.509	849.139
284.643	16.566	1124.824	848.327
285.657	16.565	1123.724	847.420
286.672	16.688	1122.659	847.154
287.687	16.709	1121.779	846.521
288.701	16.652	1121.294	845.794
289.716	16.680	1120.161	845.007
290.730	16.713	1119.324	844.465
291.745	16.749	1118.768	844.149
292.760	16.797	1118.399	844.035
293.774	16.803	1118.031	843.711
294.789	16.890	1117.448	843.632
295.803	16.935	1116.631	843.164
296.818	16.859	1115.505	841.862
297.833	16.802	1114.421	840.684
298.847	16.839	1113.861	840.372
299.862	16.834	1113.676	840.136
300.876	16.892	1112.906	839.765
301.891	16.994	1112.299	839.739
302.906	17.068	1111.201	839.201
303.920	17.088	1111.024	839.093
304.935	16.972	1111.021	838.440
305.949	17.206	1109.450	838.338
306.964	17.239	1108.872	837.991
307.979	17.144	1108.336	837.042
308.993	17.001	1107.715	835.795
310.008	17.077	1106.662	835.299
311.022	17.143	1106.054	835.091
312.037	17.217	1104.955	834.552
313.052	17.106	1103.877	833.117
314.066	16.890	1103.552	831.741
315.081	16.938	1102.644	831.216
316.095	16.987	1101.516	830.535
317.110	17.022	1101.025	830.260
318.125	16.967	1100.315	829.382
319.139	17.045	1099.365	828.975
320.154	17.001	1099.000	828.411
321.168	17.131	1098.378	828.502
322.183	17.011	1098.186	827.702
323.197	17.084	1097.139	827.195
324.212	17.144	1096.490	826.925
325.227	17.225	1095.846	826.759
326.241	17.143	1095.615	826.109
327.256	17.182	1094.476	825.372
328.270	17.074	1093.822	824.277
329.285	17.025	1093.052	823.390
330.300	17.095	1091.820	822.724
331.314	17.230	1090.566	822.362
332.329	17.165	1089.848	821.432
333.343	17.214	1089.442	821.293
334.358	17.260	1088.403	820.657
335.373	17.458	1087.647	820.970
336.387	17.256	1087.237	819.615
337.402	17.234	1086.462	818.850
338.416	17.331	1085.955	818.863
339.431	17.356	1085.211	818.350
340.446	17.385	1084.439	817.834
341.460	17.512	1083.515	817.674
342.475	17.638	1082.951	817.784
343.489	17.534	1082.241	816.675
344.504	17.646	1081.063	816.253
345.519	17.600	1080.463	815.503
346.533	17.762	1079.484	815.472
347.548	17.717	1078.885	814.727
348.562	17.695	1078.100	813.959
349.577	17.619	1077.281	812.909
350.592	17.580	1076.229	811.854
351.606	17.536	1075.583	811.084
352.621	17.441	1075.361	810.394
353.635	17.542	1074.642	810.262
354.650	17.607	1073.238	809.441
355.665	17.584	1072.869	808.979
356.679	17.557	1072.268	808.329
357.694	17.597	1071.924	808.187
358.708	17.631	1071.571	808.010
359.723	17.717	1070.465	807.514
360.738	17.774	1069.606	807.064
361.752	17.736	1069.352	806.622
362.767	17.666	1069.063	806.000
363.781	17.622	1068.662	805.419
364.796	17.843	1067.864	805.791
365.810	17.840	1067.341	805.309
366.825	17.923	1066.783	805.208
367.840	17.965	1066.158	804.865
368.854	18.033	1065.314	804.473
369.869	17.934	1064.202	803.098
370.883	17.969	1063.651	802.777
371.898	17.958	1063.137	802.266
372.913	17.951	1062.632	801.779
373.927	17.956	1062.418	801.570
374.942	18.162	1061.089	801.465
375.956	18.070	1060.649	800.630
376.971	17.929	1060.673	799.918
377.986	18.027	1059.895	799.719
379.000	18.154	1059.132	799.664
380.015	18.230	1058.680	799.609
381.029	18.177	1058.460	799.124
382.044	18.257	1057.400	798.627
383.059	18.225	1056.486	797.717
384.073	18.174	1055.931	796.989
385.088	18.284	1054.929	796.676
386.102	18.249	1054.661	796.237
387.117	18.174	1052.972	794.544
388.132	18.133	1051.963	793.524
389.146	18.152	1051.529	793.212
390.161	18.151	1050.633	792.461
391.175	18.190	1049.869	791.998
392.190	18.254	1049.166	791.694
393.205	18.228	1048.813	791.237
394.219	18.286	1047.834	790.696
395.234	18.206	1046.811	789.485
396.248	18.204	1045.966	788.766
397.263	18.198	1044.983	787.930
398.278	18.078	1044.815	787.177
399.292	18.149	1043.678	786.578
400.307	18.108	1043.013	785.821
401.321	18.207	1042.111	785.527
402.336	18.166	1041.602	784.884
403.350	18.104	1040.954	784.040
404.365	18.233	1039.996	783.842
405.380	18.158	1039.598	783.130
406.394	18.284	1038.805	783.039
407.409	18.350	1038.271	782.868
408.423	18.425	1037.408	782.492
409.438	18.559	1036.608	782.431
410.453	18.646	1035.949	782.261
411.467	18.672	1035.472	781.951
412.482	18.631	1035.005	781.339
413.496	18.587	1034.277	780.523
414.511	18.598	1033.695	780.066
415.526	18.695	1033.367	780.187
416.540	18.823	1032.783	780.262
417.555	18.766	1032.298	779.565
418.569	18.727	1031.930	779.040
419.584	18.809	1030.863	778.539
420.599	18.817	1030.251	778.046
421.613	150.726	1400.465	1794.711
422.628	137.520	1454.392	1794.799
