DTS Sentinel unit serial number:	SN413079Multiplexer serial number:	ORYXHardware model number:	OX4-SRSoftware version number:	ORYX F/W v4.00 Oryx Data Collector v3.7.2.0data status	okinstallation	princeton_trtdifferential loss correction	single-endedforward channel	channel 2reverse channel	N/Adate	2019/09/19time	02:31:35forward acquisition time	60.00reverse acquisition time	0.00gamma	496.2192k internal	0.2353k external	0.2353temperature offset calibration	1.0016default loss term (dB/km)	0.3790temperature slope calibration	1.0000multiplexer offset coefficient	1.0000multiplexer slope coefficient	1.0000fibre end	0.00T internal ref (°C)	21.00T ext. ref 1 (°C)	0.67T ext. ref 2 (°C)	14.70length (m)	temperature (°C)	Stokes	anti-Stokes-747.200	322.878	-0.057	-0.108
-746.185	-200.000	0.010	0.174
-745.171	-200.000	0.005	0.158
-744.156	-2.714	0.070	0.049
-743.142	800.000	-0.125	0.426
-742.127	130.976	-0.056	0.072
-741.112	800.000	-0.073	0.226
-740.098	419.412	-0.053	0.113
-739.083	20.395	0.175	0.141
-738.069	800.000	-0.119	0.348
-737.054	-62.308	0.150	0.062
-736.039	800.000	-0.165	0.477
-735.025	-166.047	0.140	-0.006
-734.010	-200.000	0.015	0.290
-732.996	-174.519	-0.302	-0.009
-731.981	115.068	-0.183	-0.223
-730.966	-161.124	-0.117	-0.006
-729.952	-200.000	-0.024	-0.184
-728.937	800.000	-0.051	-0.166
-727.923	394.123	0.200	0.415
-726.908	295.108	-0.056	0.102
-725.894	-24.327	0.103	-0.061
-724.879	114.864	-0.128	0.155
-723.864	-200.000	-0.031	0.242
-722.850	-200.000	-0.057	-0.329
-721.835	-200.000	0.075	-0.331
-720.821	-200.000	-0.024	0.471
-719.806	333.334	0.122	0.235
-718.791	-115.363	-0.472	-0.089
-717.777	-200.000	-0.012	0.137
-716.762	800.000	0.133	-0.400
-715.748	-94.864	0.172	0.047
-714.733	-200.000	-0.002	0.668
-713.718	-7.748	-0.196	-0.132
-712.704	247.371	-0.107	-0.181
-711.689	-200.000	-0.001	-0.214
-710.675	85.067	-0.258	0.282
-709.660	124.383	-0.127	0.160
-708.645	482.225	-0.139	-0.315
-707.631	-132.688	0.243	0.031
-706.616	-89.242	0.037	0.011
-705.602	-61.564	-0.337	0.141
-704.587	326.008	-0.084	0.160
-703.572	-166.943	-0.305	0.012
-702.558	-127.329	-0.243	0.035
-701.543	-200.000	0.018	-0.186
-700.529	62.993	0.114	0.113
-699.514	-95.525	-0.120	-0.032
-698.499	-98.581	-0.374	-0.095
-697.485	90.231	0.051	-0.057
-696.470	-148.432	-0.152	0.012
-695.456	16.326	-0.084	0.066
-694.441	-148.473	0.162	0.013
-693.426	102.001	0.111	-0.129
-692.412	40.724	0.142	-0.127
-691.397	-17.160	0.016	0.010
-690.383	16.223	0.372	-0.292
-689.368	-150.759	-0.055	0.004
-688.354	-31.268	-0.070	0.039
-687.339	132.272	0.102	-0.131
-686.324	800.000	-0.053	-0.232
-685.310	-110.440	-0.295	-0.061
-684.295	-42.498	-0.249	-0.126
-683.281	38.453	0.058	0.051
-682.266	-70.133	0.146	-0.055
-681.251	-57.052	0.144	-0.063
-680.237	-200.000	-0.009	0.207
-679.222	-155.605	-0.123	0.008
-678.208	-55.305	-0.284	-0.127
-677.193	75.691	-0.281	-0.295
-676.178	-200.000	-0.038	0.196
-675.164	188.365	-0.122	0.181
-674.149	20.302	-0.151	-0.121
-673.135	-200.000	-0.008	-0.217
-672.120	-90.244	-0.260	0.075
-671.105	304.657	0.135	0.249
-670.091	126.750	0.168	-0.211
-669.076	-76.683	-0.314	0.109
-668.062	-64.162	-0.551	0.223
-667.047	-200.000	0.024	-0.194
-666.032	-200.000	0.002	0.073
-665.018	-200.000	0.031	0.217
-664.003	-71.140	-0.144	0.054
-662.989	268.424	-0.076	-0.132
-661.974	-200.000	-0.028	0.197
-660.959	-155.051	0.291	0.019
-659.945	-71.057	-0.400	-0.149
-658.930	-154.372	0.246	0.016
-657.916	-26.424	-0.132	-0.077
-656.901	-23.993	0.232	-0.138
-655.886	-62.726	0.160	-0.066
-654.872	-116.385	0.320	0.059
-653.857	-102.353	-0.301	-0.072
-652.843	-0.307	0.087	0.061
-651.828	-101.941	-0.173	-0.042
-650.814	-200.000	0.009	-0.090
-649.799	-131.963	-0.341	-0.044
-648.784	22.367	0.055	-0.045
-647.770	24.764	0.031	-0.026
-646.755	-37.435	0.404	0.214
-645.741	-47.692	-0.187	0.090
-644.726	-124.194	-0.310	-0.048
-643.711	1.161	0.128	-0.091
-642.697	-4.006	0.231	-0.159
-641.682	800.000	-0.065	-0.181
-640.668	-13.213	0.108	-0.070
-639.653	4.282	-0.165	-0.120
-638.638	-28.483	0.178	0.102
-637.624	-122.570	0.469	0.076
-636.609	29.143	-0.221	-0.186
-635.595	254.644	0.153	-0.259
-634.580	198.498	-0.086	0.131
-633.565	-9.358	0.060	-0.040
-632.551	391.188	0.102	0.210
-631.536	-98.360	-0.040	0.010
-630.522	-200.000	0.022	-0.392
-629.507	231.017	0.017	0.028
-628.492	-200.000	0.038	-0.257
-627.478	-200.000	0.004	-0.138
-626.463	107.357	-0.197	-0.232
-625.449	-200.000	0.008	0.204
-624.434	-134.070	-0.148	0.018
-623.419	206.490	-0.130	-0.201
-622.405	403.928	0.181	0.377
-621.390	-135.201	-0.084	-0.010
-620.376	-42.724	0.148	-0.075
-619.361	-134.782	-0.044	0.005
-618.346	328.378	0.131	-0.250
-617.332	403.659	0.081	-0.169
-616.317	201.277	0.161	-0.245
-615.303	-44.482	0.176	0.087
-614.288	-128.945	-0.158	-0.022
-613.273	-200.000	0.034	-0.174
-612.259	-24.963	0.148	-0.087
-611.244	-173.972	-0.213	0.006
-610.230	-200.000	0.000	-0.112
-609.215	-200.000	0.026	-0.242
-608.201	276.772	-0.078	-0.138
-607.186	-115.081	0.192	0.036
-606.171	4.656	0.137	-0.100
-605.157	-47.066	-0.423	-0.205
-604.142	-155.642	0.097	0.006
-603.128	-106.026	-0.138	0.031
-602.113	-66.395	0.350	-0.138
-601.098	-200.000	0.003	-0.157
-600.084	-83.986	-0.319	0.101
-599.069	3.735	-0.121	-0.087
-598.055	283.393	0.108	-0.191
-597.040	-123.714	0.243	-0.038
-596.025	-41.749	0.057	0.029
-595.011	-90.803	0.097	-0.028
-593.996	-200.000	0.031	-0.444
-592.982	-119.906	0.161	-0.027
-591.967	-16.667	0.104	-0.065
-590.952	800.000	0.014	0.040
-589.938	708.411	0.047	-0.123
-588.923	-200.000	-0.026	0.233
-587.909	-11.075	0.143	-0.094
-586.894	-114.279	-0.216	-0.041
-585.879	800.000	0.131	0.409
-584.865	225.758	0.236	-0.379
-583.850	-29.018	0.203	-0.116
-582.836	-55.614	0.255	0.113
-581.821	-134.207	-0.309	-0.038
-580.806	293.545	0.140	0.254
-579.792	-200.000	-0.019	-0.150
-578.777	-200.000	0.029	0.139
-577.763	-138.280	-0.103	-0.011
-576.748	84.558	0.207	0.224
-575.733	-35.723	0.333	0.179
-574.719	-117.238	-0.115	-0.021
-573.704	-64.468	-0.245	0.099
-572.690	582.985	-0.143	0.348
-571.675	-200.000	-0.049	-0.466
-570.661	-200.000	-0.053	0.403
-569.646	139.243	-0.024	-0.031
-568.631	-116.291	-0.182	0.033
-567.617	800.000	0.021	-0.091
-566.602	-200.000	0.081	-0.400
-565.588	-93.436	-0.237	-0.065
-564.573	800.000	0.076	0.313
-563.558	149.607	0.097	0.130
-562.544	-200.000	-0.043	0.301
-561.529	347.964	0.026	-0.051
-560.515	-200.000	-0.038	-0.180
-559.500	800.000	0.061	-0.252
-558.485	-76.079	-0.078	-0.027
-557.471	-144.529	0.183	-0.017
-556.456	800.000	-0.019	0.063
-555.442	-132.695	0.095	0.012
-554.427	186.333	-0.045	-0.066
-553.412	529.185	-0.061	0.143
-552.398	-4.138	0.167	-0.114
-551.383	-100.546	0.440	-0.108
-550.369	800.000	0.040	-0.151
-549.354	-184.549	0.137	0.002
-548.339	524.891	-0.074	0.173
-547.325	239.397	-0.259	-0.426
-546.310	107.592	0.106	-0.125
-545.296	117.198	-0.269	-0.327
-544.281	800.000	-0.083	-0.308
-543.266	-127.439	-0.223	0.032
-542.252	773.212	-0.025	0.067
-541.237	-4.640	-0.095	-0.065
-540.223	-200.000	-0.039	0.193
-539.208	-48.415	0.319	-0.152
-538.193	29.603	0.232	0.195
-537.179	-40.514	-0.183	-0.094
-536.164	-81.428	0.420	-0.137
-535.150	-125.498	-0.283	-0.043
-534.135	142.536	-0.245	0.322
-533.121	-148.497	0.198	0.016
-532.106	800.000	-0.053	0.161
-531.091	-59.292	0.099	-0.042
-530.077	-132.779	-0.176	-0.022
-529.062	24.074	0.301	0.246
-528.048	294.017	-0.143	0.259
-527.033	-93.574	-0.249	-0.068
-526.018	-157.364	-0.236	0.014
-525.004	-88.171	-0.243	-0.072
-523.989	224.431	-0.100	-0.159
-522.975	677.846	0.088	0.227
-521.960	40.614	-0.187	0.167
-520.945	-53.561	-0.156	-0.070
-519.931	800.000	-0.079	-0.330
-518.916	800.000	-0.155	-0.467
-517.902	47.396	0.271	-0.249
-516.887	-133.726	-0.175	0.022
-515.872	-200.000	0.027	0.148
-514.858	587.845	0.087	-0.212
-513.843	98.080	-0.203	0.231
-512.829	363.924	-0.095	0.189
-511.814	186.185	-0.069	0.102
-510.799	208.687	-0.071	-0.110
-509.785	-103.628	-0.488	-0.113
-508.770	450.758	0.061	0.134
-507.756	-78.272	-0.191	-0.065
-506.741	212.993	-0.017	0.026
-505.726	800.000	-0.067	0.218
-504.712	-200.000	-0.053	0.243
-503.697	751.112	-0.181	0.482
-502.683	-172.201	0.262	-0.008
-501.668	-84.129	-0.298	0.094
-500.653	-156.807	-0.276	-0.017
-499.639	-55.666	-0.057	0.025
-498.624	-151.341	-0.080	0.006
-497.610	88.469	-0.057	-0.063
-496.595	-22.223	0.231	0.138
-495.581	4.060	-0.207	-0.150
-494.566	-200.000	0.005	0.085
-493.551	800.000	-0.108	-0.345
-492.537	-200.000	-0.013	-0.167
-491.522	-200.000	-0.028	0.000
-490.508	-61.202	-0.170	0.071
-489.493	-172.335	0.493	0.016
-488.478	800.000	-0.114	0.323
-487.464	-200.000	-0.021	-0.230
-486.449	-171.993	-0.046	0.001
-485.435	-34.260	0.296	-0.160
-484.420	298.002	-0.097	-0.175
-483.405	-91.721	0.149	-0.042
-482.391	800.000	-0.053	0.179
-481.376	-200.000	0.051	-0.254
-480.362	83.940	-0.058	-0.062
-479.347	-77.549	-0.169	0.058
-478.332	-200.000	0.045	0.199
-477.318	-96.542	0.400	0.104
-476.303	246.350	-0.046	-0.076
-475.289	-14.518	0.165	-0.104
-474.274	593.212	-0.164	-0.401
-473.259	378.981	-0.201	-0.405
-472.245	-61.111	-0.090	-0.038
-471.230	164.062	-0.197	0.274
-470.216	-25.652	0.054	0.031
-469.201	689.293	-0.162	-0.418
-468.186	-200.000	0.000	0.070
-467.172	87.851	-0.192	-0.210
-466.157	251.806	0.151	-0.254
-465.143	355.473	-0.192	0.377
-464.128	656.772	0.040	-0.102
-463.113	127.883	0.032	0.041
-462.099	-92.917	-0.281	0.077
-461.084	-37.871	-0.104	0.054
-460.070	73.651	0.064	-0.066
-459.055	-13.854	-0.316	0.201
-458.040	330.380	-0.132	0.251
-457.026	132.402	0.068	-0.087
-456.011	16.650	-0.063	0.049
-454.997	755.632	0.062	0.165
-453.982	-80.169	-0.135	-0.045
-452.968	88.134	-0.053	-0.058
-451.953	341.324	0.172	-0.332
-450.938	-85.932	0.122	0.037
-449.924	498.946	-0.136	0.310
-448.909	166.372	-0.056	-0.078
-447.895	-112.232	0.089	0.018
-446.880	-18.816	0.480	0.294
-445.865	-200.000	-0.011	-0.099
-444.851	-128.877	-0.102	0.014
-443.836	800.000	0.096	-0.270
-442.822	800.000	0.044	0.187
-441.807	263.846	-0.047	0.081
-440.792	61.893	0.092	-0.090
-439.778	-129.523	0.187	0.025
-438.763	189.059	-0.071	-0.105
-437.749	-200.000	-0.066	-0.602
-436.734	-82.107	-0.325	-0.105
-435.719	800.000	0.091	0.279
-434.705	-200.000	-0.054	0.541
-433.690	485.790	-0.100	-0.224
-432.676	-81.022	-0.042	0.014
-431.661	-48.088	-0.070	-0.033
-430.646	39.849	0.101	-0.090
-429.632	15.782	-0.150	0.116
-428.617	13.037	0.046	0.035
-427.603	-21.513	-0.262	-0.157
-426.588	-200.000	0.046	-0.245
-425.573	231.542	-0.092	-0.148
-424.559	-100.483	-0.124	-0.030
-423.544	-145.806	-0.164	0.014
-422.530	101.947	0.249	0.286
-421.515	169.938	0.146	-0.205
-420.500	738.610	0.067	-0.177
-419.486	15.641	-0.243	0.188
-418.471	-144.859	-0.205	0.019
-417.457	91.089	0.102	0.113
-416.442	-200.000	-0.009	0.338
-415.428	800.000	-0.062	-0.207
-414.413	104.245	0.319	-0.369
-413.398	-176.211	0.409	-0.011
-412.384	196.710	0.188	-0.282
-411.369	3.009	-0.036	0.026
-410.355	186.786	-0.064	0.093
-409.340	-171.744	-0.359	-0.012
-408.325	151.092	-0.164	-0.219
-407.311	85.403	0.061	0.066
-406.296	-200.000	0.044	-0.286
-405.282	-200.000	-0.043	0.232
-404.267	-111.820	-0.141	-0.028
-403.252	240.449	0.103	-0.168
-402.238	648.015	0.068	-0.171
-401.223	-34.371	-0.015	-0.008
-400.209	800.000	0.072	0.272
-399.194	219.154	0.164	0.258
-398.179	-30.646	0.233	-0.130
-397.165	-0.173	-0.161	-0.113
-396.150	340.883	0.065	-0.125
-395.136	403.450	-0.084	0.174
-394.121	-125.877	-0.099	-0.015
-393.106	-38.960	0.144	0.075
-392.092	-200.000	0.018	0.339
-391.077	-92.542	-0.391	0.108
-390.063	-26.960	0.277	-0.159
-389.048	108.813	0.164	-0.193
-388.033	78.306	-0.244	0.256
-387.019	-53.846	0.020	0.009
-386.004	-200.000	0.006	0.170
-384.990	-106.419	-0.043	-0.010
-383.975	-109.761	0.263	-0.054
-382.960	-28.558	0.348	-0.197
-381.946	223.538	-0.140	-0.222
-380.931	78.242	-0.062	0.065
-379.917	12.682	0.112	0.085
-378.902	-200.000	-0.009	0.277
-377.888	-99.510	0.107	0.026
-376.873	-200.000	0.014	0.085
-375.858	-38.888	0.128	-0.066
-374.844	-200.000	0.039	-0.357
-373.829	-200.000	-0.021	-0.148
-372.815	-200.000	0.016	0.163
-371.800	-13.586	-0.183	0.117
-370.785	-97.400	-0.233	0.060
-369.771	195.629	-0.164	-0.245
-368.756	90.596	-0.058	-0.063
-367.742	-60.874	0.127	0.053
-366.727	800.000	0.077	-0.294
-365.712	371.440	0.061	-0.123
-364.698	-200.000	0.032	-0.311
-363.683	141.647	-0.031	-0.040
-362.669	-136.124	0.425	0.049
-361.654	-121.812	0.161	-0.026
-360.639	257.910	-0.109	-0.184
-359.625	619.299	0.090	-0.223
-358.610	14.036	0.349	0.267
-357.596	309.325	-0.121	0.221
-356.581	-200.000	-0.009	0.247
-355.566	129.324	-0.149	-0.187
-354.552	800.000	0.054	0.186
-353.537	-200.000	-0.003	-0.190
-352.523	-200.000	-0.025	-0.369
-351.508	-200.000	-0.021	-0.103
-350.493	-130.900	0.096	-0.013
-349.479	130.670	0.146	0.183
-348.464	-200.000	0.048	0.385
-347.450	800.000	-0.113	-0.362
-346.435	-200.000	0.001	-0.038
-345.420	51.965	-0.233	-0.218
-344.406	201.831	0.135	0.204
-343.391	4.616	-0.382	-0.275
-342.377	-132.448	0.324	-0.041
-341.362	-103.176	-0.207	-0.048
-340.348	-19.823	-0.259	0.157
-339.333	177.954	-0.051	-0.074
-338.318	-181.614	-0.357	0.007
-337.304	-4.738	0.166	0.112
-336.289	118.026	0.120	0.145
-335.275	620.424	0.101	0.250
-334.260	-200.000	-0.010	0.287
-333.245	800.000	0.018	0.072
-332.231	41.076	0.226	0.200
-331.216	-200.000	0.013	0.246
-330.202	-125.380	-0.367	-0.055
-329.187	800.000	-0.018	0.061
-328.172	86.272	-0.118	-0.127
-327.158	-200.000	-0.007	0.132
-326.143	14.984	0.055	-0.043
-325.129	-74.672	-0.364	0.128
-324.114	66.737	0.143	-0.143
-323.099	-131.506	-0.235	0.030
-322.085	800.000	0.114	-0.370
-321.070	-122.743	-0.235	0.037
-320.056	-171.038	0.320	0.011
-319.041	-83.899	0.079	0.025
-318.026	-38.905	-0.177	0.091
-317.012	290.001	-0.103	0.184
-315.997	-66.807	-0.196	0.076
-314.983	561.722	-0.050	-0.118
-313.968	-114.491	0.094	-0.018
-312.953	331.408	0.188	0.356
-311.939	38.719	0.089	0.078
-310.924	-15.124	-0.232	-0.146
-309.910	-131.838	0.117	-0.015
-308.895	152.425	-0.135	0.181
-307.880	80.560	-0.137	0.144
-306.866	-200.000	0.053	-0.246
-305.851	-94.792	-0.159	0.042
-304.837	38.913	0.065	-0.057
-303.822	48.837	0.212	-0.195
-302.807	-200.000	0.022	0.160
-301.793	-17.829	0.110	0.068
-300.778	800.000	0.030	0.111
-299.764	-110.345	-0.127	0.026
-298.749	-25.080	0.186	0.108
-297.735	-200.000	0.018	0.230
-296.720	-200.000	0.032	0.224
-295.705	-200.000	0.028	0.226
-294.691	-143.866	0.347	-0.032
-293.676	800.000	0.068	0.239
-292.662	-42.725	-0.169	0.084
-291.647	-51.994	-0.203	0.092
-290.632	-156.818	0.606	-0.037
-289.618	-200.000	-0.049	-0.226
-288.603	800.000	-0.096	0.272
-287.589	800.000	0.156	0.442
-286.574	-200.000	0.017	-0.169
-285.559	800.000	-0.045	0.155
-284.545	-200.000	0.414	0.001
-283.530	86.676	-0.315	-0.340
-282.516	12.871	-0.100	-0.076
-281.501	-200.000	0.031	-0.261
-280.486	800.000	-0.034	-0.120
-279.472	729.278	-0.018	0.046
-278.457	-120.166	0.186	0.031
-277.443	42.527	0.206	-0.184
-276.428	-53.152	-0.133	-0.060
-275.413	166.516	-0.027	0.038
-274.399	-24.420	0.281	0.164
-273.384	-125.063	0.051	-0.008
-272.370	-32.943	0.433	0.235
-271.355	-22.898	0.196	-0.116
-270.340	-200.000	-0.029	-0.344
-269.326	-200.000	-0.010	0.047
-268.311	-13.312	0.125	0.079
-267.297	-200.000	-0.011	0.087
-266.282	162.365	0.224	0.308
-265.267	800.000	-0.136	0.500
-264.253	-147.322	-0.189	-0.016
-263.238	-200.000	0.025	0.180
-262.224	371.106	-0.214	-0.425
-261.209	237.800	0.131	-0.213
-260.195	-105.616	-0.434	-0.096
-259.180	-200.000	0.033	-0.275
-258.165	374.988	-0.124	0.248
-257.151	800.000	0.114	-0.325
-256.136	-131.660	-0.106	0.014
-255.122	30.539	0.230	-0.193
-254.107	-100.479	-0.037	-0.009
-253.092	-200.000	-0.018	-0.250
-252.078	83.786	0.120	0.128
-251.063	-0.079	-0.114	-0.079
-250.049	-143.088	-0.030	0.003
-249.034	800.000	0.102	0.309
-248.019	-108.157	-0.100	0.021
-247.005	360.598	0.028	0.056
-245.990	-161.526	0.457	0.023
-244.976	-200.000	0.048	0.260
-243.961	-200.000	0.026	-0.209
-242.946	-110.829	-0.182	0.037
-241.932	381.416	-0.033	0.067
-240.917	231.293	-0.111	-0.178
-239.903	-102.523	0.457	0.107
-238.888	-36.937	-0.393	-0.206
-237.873	-182.320	-0.156	-0.003
-236.859	19.649	-0.268	0.211
-235.844	-106.714	-0.102	-0.022
-234.830	800.000	0.030	-0.129
-233.815	80.351	-0.157	0.165
-232.800	-109.857	0.211	0.043
-231.786	-78.321	-0.283	-0.095
-230.771	-180.434	0.152	0.003
-229.757	-82.804	-0.331	0.105
-228.742	54.197	0.080	0.075
-227.727	-52.355	-0.461	-0.208
-226.713	-200.000	0.015	-0.094
-225.698	-145.036	-0.149	-0.013
-224.684	-168.940	-0.329	-0.012
-223.669	-97.440	0.432	-0.110
-222.655	-18.739	0.350	0.213
-221.640	800.000	0.094	-0.265
-220.625	-8.865	-0.198	0.129
-219.611	-49.721	-0.407	-0.189
-218.596	-200.000	0.023	-0.153
-217.582	120.233	-0.190	-0.231
-216.567	-128.256	0.083	-0.012
-215.552	-75.821	0.077	0.027
-214.538	138.407	-0.098	0.126
-213.523	151.340	0.249	-0.331
-212.509	800.000	-0.064	0.233
-211.494	419.558	0.076	-0.159
-210.479	669.869	-0.101	0.255
-209.465	-69.391	-0.207	-0.077
-208.450	55.119	-0.037	-0.035
-207.436	-88.313	0.223	0.065
-206.421	-2.934	-0.147	0.100
-205.406	250.668	0.093	0.154
-204.392	8.689	0.138	-0.102
-203.377	-200.000	-0.025	0.150
-202.363	-3.224	0.303	-0.206
-201.348	-88.703	-0.171	0.050
-200.333	114.180	-0.042	0.050
-199.319	374.235	-0.035	-0.070
-198.304	19.661	-0.077	-0.060
-197.290	-82.362	0.018	0.006
-196.275	403.370	0.083	0.170
-195.260	-26.985	0.068	0.039
-194.246	-84.016	0.093	0.029
-193.231	156.835	0.150	-0.202
-192.217	33.661	-0.086	-0.073
-191.202	-26.404	0.428	0.245
-190.187	-24.009	0.083	0.049
-189.173	-40.995	0.558	0.281
-188.158	800.000	0.055	-0.164
-187.144	800.000	-0.115	0.315
-186.129	57.372	0.266	0.253
-185.114	-200.000	-0.032	0.160
-184.100	800.000	-0.097	0.277
-183.085	-200.000	0.040	-0.311
-182.071	89.398	0.090	0.098
-181.056	382.848	-0.099	-0.199
-180.042	-132.458	0.352	0.044
-179.027	-64.123	-0.092	-0.037
-178.012	151.285	-0.143	-0.189
-176.998	-200.000	-0.005	0.319
-175.983	-8.287	-0.227	0.149
-174.969	626.586	-0.145	0.357
-173.954	-150.886	0.131	-0.010
-172.939	800.000	-0.027	-0.076
-171.925	-81.324	-0.128	0.041
-170.910	244.728	0.150	0.246
-169.896	123.718	-0.118	0.144
-168.881	-60.603	0.418	0.173
-167.866	-200.000	-0.119	0.534
-166.852	228.524	0.090	-0.142
-165.837	-189.272	-0.371	0.004
-164.823	33.104	0.055	0.047
-163.808	-27.671	0.366	0.207
-162.793	163.269	-0.118	0.161
-161.779	-200.000	-0.007	-0.031
-160.764	-110.400	0.167	0.034
-159.750	214.555	-0.353	0.545
-158.735	37.539	0.195	-0.169
-157.720	-200.000	-0.031	0.261
-156.706	-120.588	0.250	-0.041
-155.691	-2.026	-0.408	0.279
-154.677	800.000	-0.020	0.058
-153.662	-23.857	0.152	0.089
-152.647	-68.494	-0.145	-0.055
-151.633	493.166	0.196	0.437
-150.618	-159.647	-0.401	0.022
-149.604	-88.933	0.199	0.057
-148.589	-132.841	0.155	-0.019
-147.574	-74.938	0.224	0.078
-146.560	238.102	0.059	0.096
-145.545	506.880	-0.103	0.234
-144.531	109.990	0.164	-0.192
-143.516	79.226	-0.115	-0.120
-142.502	-200.000	0.022	-0.420
-141.487	446.164	0.077	0.165
-140.472	-200.000	0.018	0.283
-139.458	-183.540	0.169	-0.003
-138.443	-162.085	-0.131	-0.006
-137.429	-15.867	0.318	0.197
-136.414	-4.222	-0.342	0.230
-135.399	-43.158	-0.026	0.013
-134.385	-168.202	-0.074	0.003
-133.370	-100.699	-0.320	0.077
-132.356	112.351	0.087	-0.102
-131.341	65.120	-0.167	0.164
-130.326	322.734	-0.091	0.169
-129.312	754.958	-0.177	0.467
-128.297	607.045	-0.193	-0.468
-127.283	-200.000	0.056	-0.274
-126.268	159.695	0.110	0.150
-125.253	-23.799	-0.112	-0.065
-124.239	248.104	0.195	0.321
-123.224	-104.727	0.189	0.042
-122.210	137.434	-0.239	-0.304
-121.195	3.895	-0.223	-0.158
-120.180	-81.989	-0.152	-0.048
-119.166	-64.357	0.114	0.045
-118.151	460.138	0.116	0.252
-117.137	800.000	0.127	0.422
-116.122	-93.744	0.244	-0.066
-115.107	-200.000	-0.019	0.121
-114.093	-200.000	0.003	0.106
-113.078	-200.000	-0.027	0.182
-112.064	-200.000	-0.019	0.382
-111.049	-118.577	0.322	0.055
-110.034	380.483	-0.213	0.425
-109.020	-73.428	0.170	0.060
-108.005	133.481	-0.098	-0.123
-106.991	-1.898	0.093	0.064
-105.976	154.824	0.120	0.160
-104.962	17.739	-0.277	-0.214
-103.947	-162.013	0.185	-0.009
-102.932	310.521	-0.123	0.224
-101.918	262.967	0.042	0.071
-100.903	-82.944	-0.089	-0.028
-99.889	-79.066	-0.343	-0.113
-98.874	-44.400	0.172	-0.084
-97.859	243.510	0.044	-0.072
-96.845	-200.000	-0.004	-0.357
-95.830	800.000	0.052	-0.145
-94.816	-124.742	0.399	-0.060
-93.801	-200.000	0.008	0.052
-92.786	-88.906	0.450	-0.130
-91.772	489.774	-0.042	0.093
-90.757	-200.000	-0.001	0.195
-89.743	-200.000	0.070	0.327
-88.728	-41.967	0.144	0.072
-87.713	1.840	-0.125	0.088
-86.699	564.049	-0.021	0.050
-85.684	-21.744	0.104	-0.061
-84.670	800.000	0.043	0.162
-83.655	-132.133	0.069	0.009
-82.640	-73.042	0.284	0.101
-81.626	-200.000	0.008	0.231
-80.611	-149.288	0.226	-0.018
-79.597	-38.525	-0.236	0.121
-78.582	42.662	0.251	-0.222
-77.567	-101.563	-0.216	-0.051
-76.553	-103.320	0.461	0.106
-75.538	-70.633	-0.084	-0.031
-74.524	237.226	-0.079	-0.127
-73.509	17.086	-0.151	0.117
-72.494	800.000	0.052	0.214
-71.480	24.932	0.070	0.056
-70.465	-26.206	-0.264	0.150
-69.451	-91.887	0.057	-0.016
-68.436	-103.472	0.197	-0.045
-67.422	-200.000	-0.045	-0.382
-66.407	-142.594	0.174	0.017
-65.392	13.457	0.119	-0.089
-64.378	657.581	0.078	0.195
-63.363	-24.674	0.479	0.277
-62.349	-150.510	0.263	0.020
-61.334	60.060	-1.184	-1.136
-60.319	101.921	0.789	0.893
-59.305	483.115	-0.591	-1.304
-58.290	236.037	0.937	1.505
-57.276	800.000	0.391	1.412
-56.261	-200.000	134.994	679.862
-55.246	340.785	1676.111	3176.656
-54.232	134.221	2813.288	3538.931
-53.217	82.673	2312.213	2437.979
-52.203	29.759	1910.213	1578.584
-51.188	23.994	1705.202	1365.031
-50.173	22.059	1667.141	1319.982
-49.159	44.034	1741.721	1549.290
-48.144	41.073	1750.452	1534.212
-47.130	23.534	1701.392	1358.240
-46.115	21.129	1685.728	1327.411
-45.100	20.930	1680.887	1322.042
-44.086	20.889	1678.078	1319.467
-43.071	20.863	1675.751	1317.392
-42.057	20.827	1673.558	1315.337
-41.042	20.902	1671.337	1314.108
-40.027	20.929	1669.735	1312.999
-39.013	20.851	1668.173	1311.136
-37.998	20.852	1666.705	1309.934
-36.984	20.823	1665.199	1308.482
-35.969	20.997	1663.939	1308.741
-34.954	21.011	1662.089	1307.346
-33.940	21.009	1660.429	1305.969
-32.925	21.023	1658.550	1304.544
-31.911	20.982	1656.960	1302.934
-30.896	20.911	1655.387	1301.121
-29.881	20.920	1653.912	1299.973
-28.867	20.974	1652.695	1299.368
-27.852	20.957	1651.388	1298.163
-26.838	20.964	1649.758	1296.879
-25.823	21.030	1648.036	1295.970
-24.809	21.057	1647.210	1295.470
-23.794	21.149	1645.332	1294.624
-22.779	21.116	1643.836	1293.144
-21.765	21.018	1642.311	1291.172
-20.750	20.954	1640.872	1289.514
-19.736	21.000	1639.729	1288.905
-18.721	20.998	1638.019	1287.495
-17.706	21.101	1636.811	1287.258
-16.692	21.038	1634.974	1285.298
-15.677	20.951	1634.255	1284.038
-14.663	21.063	1632.714	1283.600
-13.648	20.959	1631.826	1282.088
-12.633	21.101	1629.742	1281.441
-11.619	21.099	1627.819	1279.865
-10.604	21.027	1626.544	1278.285
-9.590	21.148	1624.699	1277.671
-8.575	20.935	1624.834	1276.163
-7.560	21.110	1622.706	1275.721
-6.546	21.085	1621.833	1274.804
-5.531	21.025	1620.857	1273.546
-4.517	21.023	1619.761	1272.622
-3.502	21.121	1618.613	1272.379
-2.487	21.159	1616.868	1271.240
-1.473	20.650	1604.433	1257.730
-0.458	17.637	1585.111	1220.979
0.556	13.105	1587.004	1189.716
1.571	10.964	1611.678	1192.428
2.586	10.786	1624.162	1200.243
3.600	10.129	1569.775	1155.257
4.615	5.975	1463.871	1049.504
5.629	1.505	1407.939	980.526
6.644	0.632	1401.708	970.496
7.659	0.669	1400.104	969.537
8.673	0.736	1399.145	969.217
9.688	0.642	1396.634	966.790
10.702	0.388	1394.273	963.443
11.717	2.699	1395.899	979.251
12.731	8.828	1404.993	1024.845
13.746	14.776	1414.771	1070.087
14.761	17.045	1417.278	1086.429
15.775	16.759	1414.709	1082.541
16.790	15.735	1412.570	1074.272
17.804	14.967	1410.247	1067.505
18.819	14.494	1409.653	1063.946
19.834	14.355	1407.505	1061.348
20.848	14.061	1406.900	1058.923
21.863	13.804	1405.242	1055.949
22.877	13.647	1403.925	1053.866
23.892	13.685	1403.121	1053.410
24.907	13.597	1402.265	1052.115
25.921	13.647	1401.364	1051.661
26.936	13.680	1400.315	1050.995
27.950	13.725	1399.225	1050.363
28.965	13.766	1398.229	1049.786
29.980	13.818	1397.168	1049.222
30.994	13.817	1396.416	1048.562
32.009	13.855	1395.743	1048.204
33.023	13.916	1394.054	1047.227
34.038	13.747	1393.235	1045.454
35.053	13.752	1392.050	1044.505
36.067	13.703	1390.783	1043.153
37.082	13.727	1390.016	1042.634
38.096	13.810	1388.931	1042.247
39.111	13.748	1388.233	1041.246
40.126	13.796	1387.495	1040.899
41.140	13.668	1386.566	1039.307
42.155	13.636	1385.609	1038.298
43.169	13.605	1385.952	1038.271
44.184	13.521	1386.151	1037.798
45.199	13.605	1385.219	1037.539
46.213	13.688	1384.452	1037.390
47.228	13.844	1383.165	1037.308
48.242	13.719	1382.095	1035.634
49.257	13.810	1380.543	1034.948
50.271	13.698	1379.121	1033.090
51.286	13.816	1378.006	1032.898
52.301	13.711	1376.838	1031.281
53.315	13.615	1376.003	1029.968
54.330	13.706	1374.258	1029.136
55.344	13.676	1373.208	1028.070
56.359	13.613	1372.331	1026.933
57.374	13.593	1371.277	1025.932
58.388	13.545	1370.631	1025.057
59.403	13.588	1370.234	1024.935
60.417	13.592	1369.417	1024.256
61.432	13.673	1368.160	1023.731
62.447	13.604	1367.532	1022.742
63.461	13.529	1366.291	1021.259
64.476	13.529	1365.267	1020.408
65.490	13.639	1363.757	1019.867
66.505	13.595	1362.748	1018.751
67.520	13.642	1360.709	1017.424
68.534	13.607	1359.866	1016.488
69.549	13.647	1358.803	1015.845
70.563	13.593	1357.251	1014.269
71.578	13.610	1356.756	1013.911
72.593	13.572	1355.873	1012.929
73.607	13.491	1355.299	1011.919
74.622	13.535	1354.149	1011.236
75.636	13.508	1353.607	1010.577
76.651	13.536	1352.677	1009.966
77.666	13.509	1352.311	1009.438
78.680	13.481	1351.671	1008.701
79.695	13.560	1350.757	1008.412
80.709	13.567	1349.796	1007.648
81.724	13.573	1349.252	1007.189
82.739	13.610	1348.238	1006.563
83.753	13.732	1347.122	1006.382
84.768	13.691	1345.883	1005.120
85.782	13.713	1345.441	1004.836
86.797	13.786	1343.404	1003.668
87.812	13.647	1342.468	1002.040
88.826	13.717	1341.284	1001.489
89.841	13.765	1339.952	1000.694
90.855	13.713	1339.225	999.750
91.870	13.706	1338.684	999.217
92.884	13.743	1337.279	998.300
93.899	13.820	1336.764	998.294
94.914	13.940	1335.822	998.223
95.928	13.823	1335.252	997.003
96.943	13.781	1333.682	995.490
97.957	13.825	1333.237	995.333
98.972	13.767	1332.362	994.243
99.987	13.931	1330.652	993.864
101.001	13.809	1329.780	992.395
102.016	13.811	1328.615	991.447
103.030	13.673	1328.093	990.148
104.045	13.785	1327.247	990.095
105.060	13.837	1325.869	989.290
106.074	13.760	1324.290	987.566
107.089	13.665	1323.045	985.986
108.103	13.632	1321.915	984.859
109.118	13.721	1320.496	984.248
110.133	13.661	1319.502	983.064
111.147	13.763	1317.405	982.016
112.162	13.738	1315.949	980.695
113.176	13.732	1315.454	980.206
114.191	13.715	1314.518	979.319
115.206	13.797	1313.237	978.766
116.220	13.750	1312.121	977.567
117.235	13.777	1310.961	976.779
118.249	13.708	1310.306	975.794
119.264	13.782	1308.884	975.085
120.279	13.710	1307.567	973.595
121.293	13.630	1307.048	972.655
122.308	13.659	1306.242	972.137
123.322	13.756	1304.826	971.564
124.337	13.686	1303.772	970.286
125.352	13.654	1302.461	969.034
126.366	13.731	1301.063	968.359
127.381	13.664	1300.297	967.315
128.395	13.659	1299.052	966.271
129.410	13.705	1298.130	965.770
130.424	13.767	1297.486	965.569
131.439	13.630	1296.670	964.078
132.454	13.727	1295.319	963.549
133.468	13.764	1294.188	962.839
134.483	13.837	1293.454	962.633
135.497	13.752	1292.103	961.047
136.512	13.725	1291.177	960.117
137.527	13.648	1290.116	958.797
138.541	13.816	1288.134	958.213
139.556	13.855	1286.558	957.177
140.570	13.865	1285.698	956.509
141.585	13.902	1284.780	955.955
142.600	13.944	1283.313	955.022
143.614	13.927	1281.933	953.816
144.629	13.838	1282.021	953.284
145.643	13.961	1280.777	952.977
146.658	13.844	1279.376	951.181
147.673	13.862	1278.209	950.331
148.687	13.802	1277.133	949.108
149.702	13.889	1275.348	948.194
150.716	13.829	1274.215	946.926
151.731	13.981	1272.864	946.704
152.746	13.926	1271.817	945.527
153.760	13.920	1270.789	944.644
154.775	14.047	1269.373	944.230
155.789	14.077	1268.363	943.565
156.804	13.931	1267.831	942.256
157.819	14.058	1266.279	941.741
158.833	13.997	1265.789	940.947
159.848	13.962	1264.774	939.912
160.862	14.141	1263.082	939.583
161.877	14.023	1262.151	938.143
162.892	13.981	1261.208	937.121
163.906	14.056	1260.271	936.765
164.921	14.075	1259.249	936.030
165.935	14.118	1258.554	935.673
166.950	14.041	1257.729	934.544
167.964	14.024	1257.177	933.953
168.979	14.082	1256.149	933.431
169.994	14.031	1255.774	932.785
171.008	14.118	1254.303	932.100
172.023	14.194	1253.560	931.888
173.037	14.140	1253.054	931.128
174.052	14.185	1251.882	930.429
175.067	14.194	1250.811	929.595
176.081	14.142	1249.938	928.578
177.096	14.102	1248.821	927.443
178.110	14.165	1247.907	927.032
179.125	14.210	1246.283	925.996
180.140	14.184	1245.420	925.125
181.154	14.214	1244.136	924.255
182.169	14.175	1243.005	923.117
183.183	14.278	1241.960	922.830
184.198	14.306	1240.355	921.713
185.213	14.312	1239.391	920.947
186.227	14.345	1238.235	920.190
187.242	14.328	1237.255	919.286
188.256	14.386	1236.420	918.907
189.271	14.293	1235.762	917.824
190.286	14.396	1234.078	917.055
191.300	14.259	1233.279	915.630
192.315	14.340	1232.830	915.659
193.329	14.284	1232.145	914.761
194.344	14.238	1231.714	914.109
195.359	14.298	1231.262	914.024
196.373	14.373	1230.862	914.053
197.388	14.410	1230.607	913.986
198.402	14.503	1229.625	913.687
199.417	14.590	1228.689	913.385
200.432	14.567	1228.107	912.750
201.446	14.604	1227.192	912.190
202.461	14.738	1225.963	911.930
203.475	14.694	1225.282	911.101
204.490	14.628	1223.790	909.551
205.504	14.522	1223.134	908.405
206.519	14.544	1221.656	907.348
207.534	14.612	1220.392	906.695
208.548	14.556	1219.655	905.764
209.563	14.577	1219.016	905.325
210.577	14.623	1217.837	904.616
211.592	14.690	1217.045	904.313
212.607	14.684	1215.950	903.388
213.621	14.724	1215.153	902.931
214.636	14.781	1213.834	902.176
215.650	14.802	1213.009	901.599
216.665	14.834	1211.869	900.845
217.680	14.765	1211.459	900.086
218.694	14.802	1210.765	899.689
219.709	14.813	1209.674	898.859
220.723	14.722	1209.121	897.882
221.738	14.959	1207.932	898.192
222.753	14.816	1207.554	897.065
223.767	14.825	1206.591	896.316
224.782	14.958	1206.118	896.599
225.796	14.940	1205.254	895.779
226.811	14.980	1204.519	895.371
227.826	15.036	1203.694	894.974
228.840	14.866	1203.456	893.810
229.855	14.934	1202.184	893.153
230.869	14.978	1201.567	892.846
231.884	14.899	1200.887	891.843
232.899	14.954	1199.541	891.058
233.913	14.962	1199.369	890.892
234.928	14.928	1198.653	890.099
235.942	14.910	1197.750	889.258
236.957	14.845	1197.219	888.435
237.972	14.976	1196.347	888.405
238.986	14.951	1195.665	887.691
240.001	14.915	1194.519	886.571
241.015	15.019	1193.378	886.195
242.030	15.057	1193.116	886.122
243.045	15.102	1192.220	885.620
244.059	15.084	1191.581	884.971
245.074	15.096	1191.017	884.535
246.088	15.157	1189.938	883.978
247.103	15.056	1189.302	882.892
248.117	15.155	1188.085	882.432
249.132	15.226	1187.350	882.183
250.147	15.196	1186.823	881.557
251.161	15.319	1185.848	881.402
252.176	15.331	1185.150	880.867
253.190	15.327	1184.592	880.355
254.205	15.331	1184.278	880.062
255.220	15.459	1183.321	879.946
256.234	15.345	1182.979	879.016
257.249	15.453	1181.874	878.680
258.263	15.414	1181.447	878.084
259.278	15.433	1180.953	877.738
260.293	15.461	1180.416	877.407
261.307	15.472	1179.595	876.778
262.322	15.579	1178.520	876.458
263.336	15.531	1178.319	875.982
264.351	15.584	1177.399	875.493
265.366	15.632	1176.823	875.240
266.380	15.605	1176.169	874.534
267.395	15.601	1175.037	873.596
268.409	15.692	1174.562	873.639
269.424	15.677	1174.092	873.135
270.439	15.617	1173.557	872.349
271.453	15.693	1172.427	871.826
272.468	15.703	1171.259	870.931
273.482	15.642	1170.591	870.042
274.497	15.549	1170.525	869.434
275.512	15.657	1170.054	869.567
276.526	15.640	1169.118	868.703
277.541	15.696	1168.077	868.142
278.555	15.702	1167.410	867.600
279.570	15.813	1166.761	867.617
280.585	15.839	1165.896	867.026
281.599	15.907	1164.384	866.178
282.614	15.925	1164.093	865.978
283.628	15.725	1163.146	864.166
284.643	15.880	1161.975	864.019
285.657	15.911	1160.751	863.188
286.672	15.799	1159.921	861.921
287.687	15.802	1158.798	861.028
288.701	15.864	1158.512	861.057
289.716	15.945	1157.513	860.652
290.730	15.891	1157.038	859.944
291.745	15.838	1156.146	858.933
292.760	15.942	1155.635	859.009
293.774	16.027	1154.624	858.618
294.789	16.043	1154.398	858.452
295.803	16.016	1153.827	857.817
296.818	16.027	1152.694	856.952
297.833	16.062	1152.041	856.569
298.847	16.043	1151.493	855.988
299.862	16.061	1150.083	854.957
300.876	16.103	1149.691	854.806
301.891	16.113	1149.218	854.425
302.906	16.094	1148.487	853.710
303.920	16.116	1147.757	853.207
304.935	16.187	1147.250	853.113
305.949	16.285	1146.432	852.922
306.964	16.216	1145.718	851.967
307.979	16.233	1144.977	851.425
308.993	16.306	1144.076	851.049
310.008	16.183	1143.415	849.865
311.022	16.179	1142.341	848.971
312.037	16.345	1141.304	848.957
313.052	16.205	1140.668	847.709
314.066	16.299	1139.383	847.150
315.081	16.274	1138.663	846.414
316.095	16.204	1138.291	845.710
317.110	16.199	1137.405	844.953
318.125	16.222	1136.701	844.470
319.139	16.284	1136.238	844.359
320.154	16.367	1134.965	843.756
321.168	16.339	1134.405	843.122
322.183	16.348	1134.230	842.965
323.197	16.352	1133.688	842.507
324.212	16.353	1132.926	841.873
325.227	16.480	1132.136	841.842
326.241	16.354	1131.565	840.715
327.256	16.362	1131.001	840.262
328.270	16.347	1129.833	839.247
329.285	16.408	1128.799	838.707
330.300	16.274	1128.377	837.652
331.314	16.419	1126.914	837.211
332.329	16.487	1126.213	836.954
333.343	16.471	1125.049	835.935
334.358	16.443	1124.458	835.285
335.373	16.484	1123.576	834.758
336.387	16.618	1122.956	834.887
337.402	16.525	1122.330	833.888
338.416	16.612	1121.627	833.718
339.431	16.494	1121.117	832.685
340.446	16.515	1120.295	832.106
341.460	16.610	1119.701	832.056
342.475	16.747	1118.203	831.540
343.489	16.659	1117.765	830.711
344.504	16.718	1117.062	830.405
345.519	16.753	1115.999	829.713
346.533	16.790	1115.346	829.337
347.548	16.870	1114.451	828.986
348.562	16.714	1114.085	827.878
349.577	16.885	1112.683	827.598
350.592	16.853	1111.958	826.832
351.606	16.816	1111.089	825.930
352.621	16.849	1110.389	825.497
353.635	16.904	1109.702	825.182
354.650	16.830	1108.999	824.224
355.665	16.860	1108.328	823.801
356.679	16.865	1107.857	823.403
357.694	16.866	1107.201	822.844
358.708	16.945	1106.153	822.375
359.723	16.893	1106.236	822.113
360.738	16.990	1105.275	821.795
361.752	16.962	1104.763	821.209
362.767	16.904	1104.246	820.471
363.781	16.987	1103.774	820.448
364.796	16.977	1103.096	819.822
365.810	16.971	1102.637	819.381
366.825	16.954	1101.901	818.681
367.840	17.163	1101.178	819.080
368.854	17.087	1100.576	818.192
369.869	17.082	1100.147	817.774
370.883	17.175	1098.909	817.232
371.898	17.273	1098.265	817.151
372.913	17.122	1097.591	815.850
373.927	17.101	1097.125	815.334
374.942	17.137	1096.750	815.154
375.956	17.200	1096.255	815.015
376.971	17.269	1095.343	814.596
377.986	17.256	1095.074	814.260
379.000	17.279	1094.513	813.883
380.015	17.290	1093.910	813.415
381.029	17.345	1092.895	812.850
382.044	17.447	1091.841	812.480
383.059	17.518	1091.103	812.201
384.073	17.370	1090.605	811.052
385.088	17.395	1089.454	810.246
386.102	17.499	1088.585	810.020
387.117	17.431	1087.834	809.068
388.132	17.404	1086.843	808.130
389.146	17.455	1086.089	807.738
390.161	17.421	1085.696	807.214
391.175	17.420	1084.967	806.596
392.190	17.456	1083.965	805.950
393.205	17.535	1083.318	805.774
394.219	17.645	1082.570	805.663
395.234	17.592	1081.264	804.373
396.248	17.657	1080.401	803.965
397.263	17.501	1079.628	802.584
398.278	17.392	1079.291	801.748
399.292	17.483	1078.289	801.360
400.307	17.498	1077.602	800.848
401.321	17.516	1076.896	800.340
402.336	17.554	1076.247	799.965
403.350	17.576	1075.657	799.558
404.365	17.554	1074.643	798.629
405.380	17.718	1073.900	798.775
406.394	17.551	1073.281	797.461
407.409	17.638	1072.735	797.393
408.423	17.617	1072.065	796.728
409.438	17.815	1070.576	796.475
410.453	17.704	1070.864	796.102
411.467	17.762	1069.639	795.389
412.482	17.813	1069.153	795.194
413.496	17.781	1068.557	794.535
414.511	17.830	1067.430	793.853
415.526	17.972	1067.399	794.418
416.540	17.895	1066.983	793.682
417.555	17.894	1066.499	793.247
418.569	17.912	1065.760	792.709
419.584	17.975	1065.382	792.653
420.599	17.967	1065.025	792.277
421.613	110.029	1332.527	1492.833
422.628	101.732	1371.457	1492.906
