DTS Sentinel unit serial number:	SN413079Multiplexer serial number:	ORYXHardware model number:	OX4-SRSoftware version number:	ORYX F/W v4.00 Oryx Data Collector v3.7.2.0data status	okinstallation	princeton_trtdifferential loss correction	single-endedforward channel	channel 2reverse channel	N/Adate	2019/09/15time	06:27:35forward acquisition time	60.00reverse acquisition time	0.00gamma	496.2192k internal	0.2326k external	0.2326temperature offset calibration	1.0036default loss term (dB/km)	0.3790temperature slope calibration	1.0000multiplexer offset coefficient	1.0000multiplexer slope coefficient	1.0000fibre end	0.00T internal ref (°C)	30.50T ext. ref 1 (°C)	4.84T ext. ref 2 (°C)	25.38length (m)	temperature (°C)	Stokes	anti-Stokes-747.200	546.812	-0.097	0.234
-746.185	97.135	-0.181	0.209
-745.171	-126.939	-0.334	0.050
-744.156	-200.000	-0.039	0.258
-743.142	-61.255	0.130	-0.055
-742.127	188.645	0.187	0.282
-741.112	-126.883	-0.118	-0.018
-740.098	76.658	-0.123	-0.131
-739.083	-16.048	-0.080	0.051
-738.069	-200.000	-0.045	0.488
-737.054	-92.442	0.299	-0.085
-736.039	-5.142	-0.209	0.145
-735.025	-38.374	0.090	0.048
-734.010	-109.863	-0.101	0.021
-732.996	-200.000	-0.028	-0.227
-731.981	-200.000	0.006	0.034
-730.966	800.000	-0.116	0.342
-729.952	114.661	-0.219	0.270
-728.937	-8.875	0.081	-0.055
-727.923	-200.000	-0.016	-0.182
-726.908	-200.000	-0.055	-0.270
-725.894	430.758	-0.149	-0.325
-724.879	146.921	0.068	0.092
-723.864	90.088	-0.055	-0.062
-722.850	-200.000	0.009	-0.146
-721.835	-80.317	0.091	-0.031
-720.821	-125.914	0.191	0.029
-719.806	-132.005	-0.349	-0.046
-718.791	-200.000	-0.014	0.364
-717.777	-133.935	-0.358	0.045
-716.762	-200.000	0.032	0.377
-715.748	-25.722	-0.228	-0.136
-714.733	-79.011	-0.181	-0.062
-713.718	119.839	-0.183	0.229
-712.704	-38.662	0.341	-0.182
-711.689	-146.493	-0.315	-0.028
-710.675	161.988	0.136	0.192
-709.660	-39.702	-0.251	0.132
-708.645	-32.123	-0.103	-0.058
-707.631	209.951	0.128	0.202
-706.616	-200.000	0.009	0.119
-705.602	-200.000	0.024	-0.190
-704.587	-14.701	-0.061	-0.040
-703.572	-69.413	-0.145	-0.056
-702.558	283.555	0.057	0.103
-701.543	407.396	0.037	-0.079
-700.529	800.000	0.049	-0.191
-699.514	99.145	0.166	0.193
-698.499	222.401	0.112	-0.182
-697.485	4.666	-0.168	0.124
-696.470	-189.864	0.270	0.003
-695.456	145.644	-0.089	0.120
-694.441	-69.530	-0.228	-0.088
-693.426	-200.000	0.001	0.007
-692.412	-200.000	-0.031	-0.352
-691.397	45.839	-0.303	-0.282
-690.383	685.706	-0.031	-0.081
-689.368	800.000	-0.034	0.140
-688.354	187.664	-0.057	0.086
-687.339	-74.719	-0.098	0.036
-686.324	-62.974	-0.061	0.025
-685.310	93.687	0.171	-0.195
-684.295	-105.468	0.159	0.036
-683.281	800.000	-0.003	-0.014
-682.266	180.368	0.044	-0.065
-681.251	-200.000	0.007	0.162
-680.237	41.053	-0.268	0.243
-679.222	-141.114	-0.158	-0.016
-678.208	-200.000	-0.034	0.218
-677.193	800.000	-0.121	-0.424
-676.178	800.000	0.117	-0.452
-675.164	779.437	0.060	0.165
-674.149	-200.000	-0.027	-0.131
-673.135	418.564	0.055	-0.118
-672.120	154.939	-0.161	-0.223
-671.105	-200.000	0.028	0.128
-670.091	-80.698	-0.217	-0.073
-669.076	-27.222	-0.068	0.040
-668.062	-77.238	-0.234	-0.082
-667.047	325.403	-0.025	-0.048
-666.032	-152.195	0.280	0.020
-665.018	-14.709	-0.310	-0.200
-664.003	120.869	0.090	-0.112
-662.989	-91.636	-0.198	0.057
-661.974	-115.848	0.043	-0.008
-660.959	526.466	-0.121	0.288
-659.945	33.794	0.263	0.230
-658.930	-101.268	0.225	-0.055
-657.916	-200.000	-0.002	0.124
-656.901	637.002	-0.054	-0.139
-655.886	-21.977	0.267	-0.163
-654.872	47.558	-0.157	-0.147
-653.857	268.450	-0.087	-0.154
-652.843	800.000	-0.060	0.172
-651.828	-200.000	0.037	-0.190
-650.814	-31.061	0.216	0.123
-649.799	-200.000	-0.042	0.283
-648.784	-200.000	-0.000	0.049
-647.770	293.171	-0.113	-0.207
-646.755	70.693	0.090	0.093
-645.741	-133.739	-0.360	0.045
-644.726	-200.000	0.049	-0.262
-643.711	-200.000	0.052	0.258
-642.697	-62.685	0.222	0.092
-641.682	104.727	-0.103	-0.122
-640.668	-159.651	0.178	-0.010
-639.653	169.828	-0.114	-0.163
-638.638	-149.159	0.202	-0.016
-637.624	-200.000	0.019	-0.160
-636.609	-72.570	-0.225	-0.084
-635.595	-200.000	0.003	0.079
-634.580	-200.000	-0.008	0.123
-633.565	97.574	-0.268	0.309
-632.551	-170.203	-0.119	-0.004
-631.536	45.910	-0.167	0.155
-630.522	-191.016	0.360	0.004
-629.507	800.000	0.069	0.218
-628.492	-142.938	-0.185	0.018
-627.478	-50.305	-0.176	0.083
-626.463	-56.987	-0.200	-0.089
-625.449	289.567	-0.142	-0.259
-624.434	221.540	-0.094	0.152
-623.419	171.944	-0.009	0.013
-622.405	-6.093	-0.357	0.245
-621.390	-61.931	-0.102	-0.043
-620.376	-200.000	0.020	0.248
-619.361	-174.737	0.161	0.005
-618.346	76.195	0.114	-0.122
-617.332	20.348	0.225	-0.182
-616.317	-200.000	-0.027	-0.134
-615.303	800.000	-0.037	-0.105
-614.288	-164.933	0.084	0.004
-613.273	400.576	-0.070	0.147
-612.259	-20.805	-0.171	-0.105
-611.244	-13.137	0.285	0.186
-610.230	800.000	-0.044	0.176
-609.215	331.836	0.164	-0.318
-608.201	-71.932	-0.084	-0.031
-607.186	-59.700	-0.352	0.151
-606.171	1.992	0.244	-0.177
-605.157	-200.000	0.011	-0.289
-604.142	800.000	0.072	-0.201
-603.128	352.708	-0.123	-0.244
-602.113	-200.000	0.014	-0.151
-601.098	175.521	0.073	0.106
-600.084	-49.482	0.015	0.007
-599.069	-200.000	-0.036	0.171
-598.055	266.817	-0.072	0.126
-597.040	-132.418	0.259	-0.034
-596.025	-31.390	0.262	0.148
-595.011	74.258	0.116	-0.122
-593.996	22.563	0.176	0.144
-592.982	6.325	0.251	-0.187
-591.967	112.730	-0.114	-0.138
-590.952	-64.034	0.570	-0.234
-589.938	-74.051	0.291	0.106
-588.923	-108.428	0.242	-0.052
-587.909	-130.415	-0.543	-0.074
-586.894	-200.000	0.028	-0.235
-585.879	-60.194	-0.260	-0.111
-584.865	-123.095	0.183	0.029
-583.850	-200.000	-0.048	-0.223
-582.836	-126.626	0.349	0.052
-581.821	-17.712	0.349	0.220
-580.806	111.877	-0.130	0.157
-579.792	589.193	-0.097	0.240
-578.777	83.394	0.024	-0.026
-577.763	232.118	-0.058	0.095
-576.748	-200.000	0.263	-0.001
-575.733	-15.844	0.276	0.176
-574.719	-200.000	0.063	0.292
-573.704	-90.750	-0.274	-0.079
-572.690	-46.555	0.138	0.068
-571.675	-91.422	-0.259	-0.074
-570.661	-20.972	-0.147	-0.090
-569.646	65.462	0.256	0.260
-568.631	207.627	0.145	-0.227
-567.617	-122.146	0.167	0.027
-566.602	-115.922	-0.037	-0.007
-565.588	63.174	0.211	-0.212
-564.573	-200.000	0.072	0.377
-563.558	-85.255	-0.198	-0.062
-562.544	41.339	-0.153	-0.139
-561.529	-20.267	-0.236	0.146
-560.515	-111.734	-0.107	0.022
-559.500	427.432	0.102	0.221
-558.485	287.017	0.149	-0.270
-557.471	110.188	0.054	-0.065
-556.456	192.232	-0.075	-0.113
-555.442	-122.487	-0.250	0.041
-554.427	-148.062	0.129	-0.011
-553.412	-94.151	-0.190	-0.052
-552.398	68.550	0.085	0.087
-551.383	525.571	-0.073	0.172
-550.369	-200.000	-0.003	0.030
-549.354	17.103	-0.315	-0.250
-548.339	-200.000	-0.023	-0.108
-547.325	215.885	-0.123	-0.195
-546.310	-93.264	-0.439	0.122
-545.296	800.000	-0.028	0.113
-544.281	-47.440	-0.167	0.081
-543.266	-48.504	0.388	-0.187
-542.252	800.000	-0.084	-0.296
-541.237	364.624	0.146	0.295
-540.223	-74.232	0.296	0.107
-539.208	136.107	0.273	-0.356
-538.193	235.277	0.050	-0.083
-537.179	-200.000	-0.091	-0.493
-536.164	-78.334	-0.128	0.044
-535.150	-200.000	0.028	-0.219
-534.135	-200.000	0.021	0.415
-533.121	-113.506	-0.077	-0.015
-532.106	-53.871	-0.235	-0.107
-531.091	-200.000	0.020	-0.088
-530.077	35.953	-0.094	0.083
-529.062	-200.000	0.011	-0.055
-528.048	800.000	-0.049	0.209
-527.033	249.969	-0.102	0.173
-526.018	142.360	0.054	-0.071
-525.004	-94.548	-0.089	-0.024
-523.989	-82.392	-0.419	0.136
-522.975	335.688	-0.074	0.143
-521.960	-30.831	0.203	-0.115
-520.945	-87.573	-0.130	0.039
-519.931	-113.442	-0.485	-0.095
-518.916	800.000	-0.121	-0.376
-517.902	-200.000	0.014	0.361
-516.887	-200.000	0.011	0.519
-515.872	482.918	-0.100	-0.228
-514.858	-40.075	-0.200	0.104
-513.843	-43.350	0.256	-0.129
-512.829	9.609	-0.075	-0.057
-511.814	177.844	0.190	0.277
-510.799	-160.134	-0.212	-0.012
-509.785	37.516	-0.203	0.180
-508.770	396.411	0.081	0.170
-507.756	-95.949	-0.426	-0.113
-506.741	-57.931	0.173	-0.076
-505.726	-68.472	-0.217	0.084
-504.712	-109.136	-0.204	-0.043
-503.697	-121.408	0.287	-0.048
-502.683	514.010	0.128	-0.299
-501.668	-12.364	0.059	-0.039
-500.653	-23.069	-0.316	0.190
-499.639	25.786	-0.086	0.071
-498.624	106.385	0.184	0.217
-497.610	-107.763	-0.110	-0.024
-496.595	-200.000	0.074	-0.394
-495.581	-85.470	-0.145	-0.045
-494.566	-99.475	0.170	0.043
-493.551	-55.315	-0.241	0.108
-492.537	35.344	-0.040	-0.035
-491.522	800.000	-0.072	0.287
-490.508	-70.455	0.094	-0.036
-489.493	120.239	-0.114	-0.141
-488.478	800.000	0.075	-0.210
-487.464	136.051	0.084	-0.109
-486.449	177.713	0.056	-0.082
-485.435	79.070	-0.033	-0.036
-484.420	-200.000	-0.038	-0.375
-483.405	-2.653	0.094	-0.065
-482.391	462.457	0.179	0.399
-481.376	-155.233	-0.101	-0.007
-480.362	79.482	-0.177	-0.190
-479.347	-149.628	0.211	0.017
-478.332	-59.837	-0.365	0.156
-477.318	15.882	-0.283	-0.223
-476.303	99.379	-0.328	-0.379
-475.289	-200.000	-0.042	0.442
-474.274	345.846	-0.137	0.269
-473.259	122.403	0.131	0.164
-472.245	702.892	0.094	0.246
-471.230	82.162	-0.115	-0.124
-470.216	-90.945	-0.174	0.050
-469.201	-14.245	0.178	-0.115
-468.186	-105.831	-0.215	0.048
-467.172	-135.764	-0.132	0.016
-466.157	-109.669	0.304	-0.064
-465.143	-28.638	-0.404	-0.232
-464.128	-62.632	0.069	-0.029
-463.113	-66.291	-0.416	0.165
-462.099	-49.400	0.287	0.137
-461.084	742.033	-0.092	0.246
-460.070	-170.560	0.251	-0.009
-459.055	60.007	0.085	-0.084
-458.040	-103.619	-0.427	-0.100
-457.026	-146.577	0.162	0.014
-456.011	204.188	0.145	0.224
-454.997	-94.558	0.216	-0.059
-453.982	271.821	-0.059	-0.104
-452.968	631.348	-0.086	0.218
-451.953	-166.707	-0.286	-0.012
-450.938	800.000	-0.046	-0.159
-449.924	204.643	0.063	-0.097
-448.909	-200.000	0.005	0.073
-447.895	-200.000	-0.035	-0.176
-446.880	10.430	0.292	-0.221
-445.865	435.412	0.026	0.057
-444.851	-103.867	0.227	0.053
-443.836	-74.622	-0.351	0.126
-442.822	800.000	0.075	0.279
-441.807	800.000	-0.084	0.240
-440.792	-16.896	0.126	-0.079
-439.778	-200.000	0.016	0.537
-438.763	-99.762	-0.179	-0.045
-437.749	220.311	0.104	-0.165
-436.734	-122.774	-0.341	0.055
-435.719	87.728	0.191	-0.211
-434.705	-128.153	0.384	0.055
-433.690	32.985	0.166	-0.143
-432.676	-200.000	-0.011	0.118
-431.661	44.584	-0.145	0.133
-430.646	-67.063	-0.174	-0.068
-429.632	-163.392	0.273	0.013
-428.617	-124.874	0.209	0.032
-427.603	-200.000	0.077	-0.401
-426.588	109.190	-0.220	-0.263
-425.573	11.536	0.163	0.124
-424.559	800.000	-0.059	-0.162
-423.544	-121.138	-0.265	-0.044
-422.530	-29.965	-0.192	0.109
-421.515	32.309	0.134	0.115
-420.500	333.514	0.195	0.376
-419.486	-50.425	0.199	-0.094
-418.471	-35.833	0.289	-0.156
-417.457	-51.611	0.101	-0.047
-416.442	-98.531	0.129	0.033
-415.428	140.345	0.067	0.088
-414.413	-160.756	0.200	-0.011
-413.398	800.000	-0.034	0.102
-412.384	188.177	0.137	0.204
-411.369	-64.924	0.215	-0.087
-410.355	-45.409	-0.368	-0.182
-409.340	-200.000	-0.026	0.116
-408.325	-84.853	0.209	-0.065
-407.311	-94.786	0.381	-0.103
-406.296	51.122	0.227	-0.214
-405.282	-200.000	-0.021	0.201
-404.267	-101.153	-0.438	0.107
-403.252	167.884	0.177	0.251
-402.238	-200.000	0.015	-0.116
-401.223	-140.037	0.100	-0.010
-400.209	-183.532	0.188	0.003
-399.194	236.946	0.054	0.090
-398.179	125.527	0.042	0.053
-397.165	-200.000	0.010	-0.258
-396.150	22.366	-0.106	0.086
-395.136	65.773	0.091	0.091
-394.121	105.095	-0.207	0.243
-393.106	-57.491	-0.135	-0.059
-392.092	703.526	0.046	-0.122
-391.077	181.948	0.083	0.122
-390.063	-200.000	-0.079	0.371
-389.048	173.743	-0.256	0.367
-388.033	-200.000	-0.033	-0.227
-387.019	-200.000	0.011	0.067
-386.004	800.000	-0.023	-0.086
-384.990	-91.592	-0.196	0.056
-383.975	-140.747	0.138	0.014
-382.960	-43.756	-0.150	0.075
-381.946	-200.000	0.040	0.195
-380.931	800.000	-0.056	-0.163
-379.917	-15.946	0.386	-0.244
-378.902	671.582	0.045	-0.117
-377.888	-50.349	0.145	0.068
-376.873	-200.000	-0.010	-0.071
-375.858	-200.000	-0.008	0.160
-374.844	-85.916	-0.045	0.014
-373.829	49.045	0.072	-0.068
-372.815	60.397	-0.076	-0.075
-371.800	-42.875	0.107	0.054
-370.785	-132.664	-0.354	0.045
-369.771	603.744	0.112	-0.276
-368.756	-200.000	0.022	0.129
-367.742	800.000	-0.091	0.271
-366.727	139.418	0.212	0.277
-365.712	-121.163	0.233	0.039
-364.698	388.197	-0.024	-0.049
-363.683	800.000	-0.044	-0.185
-362.669	-200.000	0.015	-0.290
-361.654	90.468	-0.172	-0.192
-360.639	-40.302	-0.406	-0.210
-359.625	-113.792	0.265	0.051
-358.610	800.000	0.050	-0.139
-357.596	-200.000	-0.015	-0.092
-356.581	136.828	-0.105	0.137
-355.566	70.400	-0.222	0.228
-354.552	800.000	-0.009	0.035
-353.537	-200.000	-0.066	0.493
-352.523	-114.309	-0.148	0.028
-351.508	200.532	-0.047	0.071
-350.493	81.884	-0.176	-0.189
-349.479	258.978	0.016	-0.028
-348.464	179.307	0.158	0.229
-347.450	-200.000	0.026	0.182
-346.435	127.331	-0.077	0.097
-345.420	-200.000	-0.076	0.417
-344.406	-107.396	0.360	0.079
-343.391	119.489	-0.081	0.099
-342.377	-103.141	0.071	-0.017
-341.362	11.692	-0.069	0.053
-340.348	76.484	-0.113	-0.119
-339.333	69.657	0.185	-0.189
-338.318	-108.936	0.275	-0.058
-337.304	-80.255	-0.295	0.098
-336.289	-52.091	-0.105	-0.049
-335.275	381.175	0.015	0.031
-334.260	-100.428	0.053	-0.013
-333.245	124.940	-0.079	-0.099
-332.231	86.671	-0.297	-0.325
-331.216	449.850	-0.124	0.272
-330.202	534.060	0.080	-0.188
-329.187	-119.108	0.217	0.038
-328.172	-200.000	0.016	-0.253
-327.158	48.866	-0.222	0.207
-326.143	39.355	-0.032	0.029
-325.129	-7.436	-0.196	-0.132
-324.114	-64.759	0.314	0.126
-323.099	33.659	0.162	-0.140
-322.085	528.442	-0.070	0.163
-321.070	6.361	0.079	-0.058
-320.056	93.707	-0.131	0.147
-319.041	77.345	-0.130	0.137
-318.026	-200.000	0.004	0.103
-317.012	216.700	-0.098	0.155
-315.997	310.270	0.023	0.042
-314.983	248.343	-0.211	-0.354
-313.968	800.000	-0.040	0.117
-312.953	-200.000	-0.043	-0.253
-311.939	578.459	-0.080	-0.193
-310.924	800.000	0.057	0.183
-309.910	-98.329	0.089	0.023
-308.895	618.710	0.107	0.266
-307.880	-57.687	0.351	-0.153
-306.866	-133.858	-0.185	0.023
-305.851	-155.910	-0.156	0.010
-304.837	-73.265	0.195	0.071
-303.822	-9.480	-0.072	0.048
-302.807	-200.000	0.025	-0.117
-301.793	112.303	0.102	-0.122
-300.778	184.619	0.072	0.106
-299.764	295.622	0.121	0.219
-298.749	800.000	-0.100	-0.379
-297.735	309.127	0.046	0.086
-296.720	800.000	0.060	0.248
-295.705	-200.000	0.001	-0.014
-294.691	420.583	-0.043	-0.092
-293.676	-102.001	-0.232	0.056
-292.662	56.122	0.160	0.154
-291.647	-133.896	-0.179	0.022
-290.632	174.177	-0.104	-0.149
-289.618	107.759	0.126	-0.149
-288.603	-148.169	0.270	-0.022
-287.589	332.322	-0.102	-0.196
-286.574	324.311	-0.086	0.162
-285.559	-200.000	0.003	-0.061
-284.545	125.456	-0.090	0.113
-283.530	-16.841	0.316	-0.198
-282.516	176.276	0.071	-0.101
-281.501	51.865	0.255	0.240
-280.486	-200.000	-0.042	-0.208
-279.472	-200.000	0.012	0.358
-278.457	-8.717	0.125	-0.083
-277.443	638.922	0.012	-0.030
-276.428	-30.551	0.057	0.032
-275.413	800.000	-0.023	0.091
-274.399	-200.000	-0.061	-0.372
-273.384	384.814	0.112	-0.228
-272.370	430.115	0.141	-0.301
-271.355	-200.000	0.023	-0.226
-270.340	187.628	0.185	-0.274
-269.326	-200.000	0.001	-0.260
-268.311	-85.448	0.340	0.105
-267.297	256.133	-0.172	-0.292
-266.282	383.478	-0.121	0.247
-265.267	-67.481	0.141	0.055
-264.253	800.000	0.054	0.149
-263.238	22.321	0.077	0.062
-262.224	-200.000	0.004	0.109
-261.209	-73.461	0.240	-0.087
-260.195	199.340	-0.080	-0.122
-259.180	117.241	-0.065	-0.079
-258.165	413.140	-0.061	0.128
-257.151	800.000	0.031	-0.087
-256.136	331.537	-0.025	0.047
-255.122	-200.000	0.048	-0.218
-254.107	-47.103	0.150	0.072
-253.092	-124.064	-0.216	-0.034
-252.078	225.795	0.166	0.266
-251.063	-123.994	0.198	0.031
-250.049	-200.000	-0.008	0.397
-249.034	153.490	0.237	0.321
-248.019	-132.309	-0.350	0.045
-247.005	-31.936	-0.280	0.155
-245.990	-200.000	0.338	0.001
-244.976	-59.201	0.188	-0.080
-243.961	-45.435	0.247	-0.121
-242.946	21.414	0.116	-0.094
-241.932	90.881	-0.207	-0.229
-240.917	-151.958	-0.251	0.018
-239.903	27.138	0.232	-0.192
-238.888	800.000	0.117	-0.353
-237.873	-200.000	-0.015	0.250
-236.859	-9.463	0.187	0.123
-235.844	203.557	-0.083	-0.127
-234.830	-57.120	0.141	-0.061
-233.815	-200.000	-0.092	-0.507
-232.800	800.000	-0.075	-0.313
-231.786	32.963	0.266	0.228
-230.771	-82.594	-0.356	0.114
-229.757	628.147	-0.077	0.192
-228.742	342.241	0.077	0.148
-227.727	-93.843	0.136	-0.037
-226.713	-200.000	0.067	0.310
-225.698	-173.348	0.256	0.008
-224.684	-18.937	0.119	-0.073
-223.669	-200.000	-0.004	0.407
-222.655	-46.634	-0.256	0.124
-221.640	285.084	-0.034	-0.061
-220.625	42.700	0.135	0.121
-219.611	-38.791	0.084	-0.044
-218.596	60.070	-0.109	-0.107
-217.582	-200.000	-0.076	0.330
-216.567	-90.144	-0.236	-0.068
-215.552	261.919	-0.080	-0.138
-214.538	800.000	-0.081	-0.228
-213.523	131.240	-0.208	0.265
-212.509	98.830	0.212	-0.241
-211.494	800.000	-0.093	0.307
-210.479	165.836	0.226	0.315
-209.465	-49.701	-0.140	0.066
-208.450	333.828	0.144	0.274
-207.436	353.988	0.077	-0.151
-206.421	-16.231	0.285	-0.179
-205.406	188.005	-0.058	-0.086
-204.392	-32.278	-0.100	-0.055
-203.377	31.660	0.249	-0.211
-202.363	-179.331	-0.084	0.002
-201.348	131.543	0.107	-0.135
-200.333	53.078	-0.093	0.088
-199.319	659.615	-0.074	0.189
-198.304	-200.000	-0.011	-0.092
-197.290	73.342	0.093	-0.096
-196.275	9.010	-0.341	-0.254
-195.260	-200.000	-0.002	-0.375
-194.246	-68.646	-0.126	0.048
-193.231	140.396	0.082	0.107
-192.217	-170.854	-0.317	0.011
-191.202	465.378	0.165	-0.364
-190.187	800.000	0.077	-0.251
-189.173	199.027	0.061	-0.093
-188.158	21.685	-0.123	0.099
-187.144	-200.000	0.004	-0.324
-186.129	450.201	-0.110	-0.240
-185.114	53.485	0.201	-0.190
-184.100	800.000	0.094	0.269
-183.085	-9.379	0.305	-0.201
-182.071	-200.000	-0.036	0.197
-181.056	46.669	-0.047	0.043
-180.042	-147.380	0.083	-0.007
-179.027	-123.226	-0.311	-0.049
-178.012	-60.663	-0.120	0.050
-176.998	2.534	0.196	-0.140
-175.983	-200.000	0.007	0.231
-174.969	-74.886	-0.210	-0.074
-173.954	-6.764	0.185	-0.124
-172.939	-102.447	0.144	-0.034
-171.925	104.813	-0.037	-0.043
-170.910	-76.202	0.096	-0.033
-169.896	64.017	0.197	-0.195
-168.881	105.339	0.177	-0.206
-167.866	70.470	-0.119	-0.122
-166.852	287.302	-0.002	0.003
-165.837	-200.000	-0.038	0.195
-164.823	-200.000	0.073	-0.382
-163.808	-200.000	0.099	0.434
-162.793	-82.660	-0.472	-0.151
-161.779	-200.000	-0.037	0.247
-160.764	-22.224	-0.142	0.085
-159.750	602.940	-0.048	0.117
-158.735	-165.313	-0.401	-0.017
-157.720	-91.567	0.242	-0.068
-156.706	-200.000	-0.041	-0.235
-155.691	-200.000	-0.052	0.414
-154.677	-80.458	-0.076	-0.025
-153.662	-36.651	0.251	-0.133
-152.647	-57.307	-0.264	0.114
-151.633	234.514	0.059	0.096
-150.618	-83.208	-0.101	-0.032
-149.604	71.156	-0.107	-0.110
-148.589	687.086	-0.176	-0.454
-147.574	-35.578	-0.088	-0.047
-146.560	800.000	-0.048	-0.191
-145.545	46.318	-0.083	0.076
-144.531	196.236	0.030	-0.045
-143.516	800.000	0.054	-0.185
-142.502	-142.738	0.284	0.027
-141.487	-200.000	-0.003	-0.124
-140.472	-35.228	-0.178	-0.095
-139.458	178.897	0.185	0.266
-138.443	-75.333	-0.260	0.091
-137.429	-200.000	0.050	-0.303
-136.414	97.926	0.036	0.041
-135.399	145.605	-0.131	-0.173
-134.385	44.807	0.251	-0.227
-133.370	-159.049	-0.204	-0.011
-132.356	223.934	0.122	0.195
-131.341	-34.742	-0.271	0.146
-130.326	51.036	0.051	0.047
-129.312	56.421	-0.098	-0.094
-128.297	-129.443	0.226	0.031
-127.283	13.696	-0.305	0.233
-126.268	73.583	0.193	-0.199
-125.253	63.029	-0.076	-0.075
-124.239	-200.000	-0.040	-0.174
-123.224	-118.088	0.141	-0.025
-122.210	11.300	0.152	-0.115
-121.195	800.000	0.021	0.070
-120.180	-153.912	-0.084	-0.006
-119.166	432.782	-0.130	-0.278
-118.151	14.315	-0.121	-0.093
-117.137	244.447	-0.079	-0.131
-116.122	-200.000	-0.007	-0.041
-115.107	-133.330	0.150	0.019
-114.093	-200.000	-0.018	-0.095
-113.078	64.912	0.136	0.136
-112.064	446.160	0.052	0.112
-111.049	-200.000	0.024	0.167
-110.034	679.972	0.119	-0.304
-109.020	206.837	0.062	0.096
-108.005	299.431	0.129	0.234
-106.991	-200.000	0.024	0.114
-105.976	-200.000	-0.003	-0.022
-104.962	-83.479	-0.230	-0.072
-103.947	58.643	-0.369	-0.357
-102.932	-200.000	-0.019	-0.156
-101.918	800.000	-0.072	-0.205
-100.903	-98.547	0.289	0.073
-99.889	-114.253	-0.196	-0.037
-98.874	-66.714	0.163	0.063
-97.859	800.000	0.043	0.159
-96.845	-96.225	-0.085	0.022
-95.830	-124.229	0.188	0.029
-94.816	212.937	0.132	-0.205
-93.801	121.482	-0.191	0.234
-92.786	31.605	0.021	-0.018
-91.772	-57.511	-0.268	0.116
-90.757	-53.199	0.177	-0.080
-89.743	-59.493	0.081	-0.034
-88.728	89.477	-0.289	-0.317
-87.713	208.915	-0.203	-0.313
-86.699	-35.900	0.356	0.189
-85.684	40.795	-0.348	0.309
-84.670	-71.328	0.212	0.078
-83.655	-200.000	-0.020	0.186
-82.640	-41.190	-0.104	0.053
-81.626	527.624	0.169	-0.392
-80.611	704.550	-0.072	-0.186
-79.597	103.994	0.203	0.234
-78.582	70.340	-0.082	0.083
-77.567	-32.128	0.358	-0.197
-76.553	165.856	0.078	-0.108
-75.538	-200.000	-0.028	-0.411
-74.524	121.569	0.087	-0.106
-73.509	800.000	0.114	0.314
-72.494	113.024	0.099	0.118
-71.480	-200.000	0.058	0.370
-70.465	-200.000	0.001	-0.059
-69.451	272.027	0.015	0.026
-68.436	192.865	-0.031	0.045
-67.422	800.000	0.104	0.352
-66.407	-19.011	0.107	0.066
-65.392	331.840	0.149	0.282
-64.378	20.046	-0.172	-0.136
-63.363	384.464	-0.126	-0.255
-62.349	47.036	0.328	0.299
-61.334	71.253	-1.078	-1.098
-60.319	319.515	0.367	0.683
-59.305	481.046	-0.555	-1.237
-58.290	146.909	0.774	1.022
-57.276	312.021	0.880	1.622
-56.261	-200.000	103.020	598.193
-55.246	562.251	1438.284	3416.666
-54.232	185.294	2637.148	3843.806
-53.217	110.517	2283.232	2694.893
-52.203	39.873	1898.081	1673.105
-51.188	33.657	1687.189	1440.141
-50.173	31.097	1643.184	1383.567
-49.159	50.045	1694.402	1569.784
-48.144	50.698	1710.533	1589.583
-47.130	33.329	1669.327	1422.209
-46.115	30.641	1654.493	1389.465
-45.100	30.409	1649.983	1383.895
-44.086	30.455	1647.337	1381.963
-43.071	30.394	1644.917	1379.426
-42.057	30.343	1642.701	1377.127
-41.042	30.392	1640.546	1375.634
-40.027	30.495	1637.801	1374.037
-39.013	30.384	1636.345	1371.940
-37.998	30.278	1635.520	1370.412
-36.984	30.435	1633.820	1370.091
-35.969	30.563	1632.191	1369.617
-34.954	30.561	1630.531	1368.154
-33.940	30.530	1628.538	1366.198
-32.925	30.482	1627.187	1364.660
-31.911	30.413	1625.998	1363.103
-30.896	30.507	1623.924	1361.994
-29.881	30.532	1622.517	1360.943
-28.867	30.486	1620.780	1359.101
-27.852	30.578	1618.778	1358.037
-26.838	30.541	1617.347	1356.512
-25.823	30.478	1616.513	1355.304
-24.809	30.545	1615.104	1354.557
-23.794	30.421	1613.704	1352.424
-22.779	30.480	1611.812	1351.216
-21.765	30.545	1610.304	1350.370
-20.750	30.483	1608.522	1348.366
-19.736	30.568	1607.579	1348.140
-18.721	30.576	1605.483	1346.387
-17.706	30.588	1604.108	1345.270
-16.692	30.546	1602.666	1343.703
-15.677	30.490	1601.710	1342.440
-14.663	30.548	1600.156	1341.506
-13.648	30.644	1598.626	1340.861
-12.633	30.543	1597.312	1338.979
-11.619	30.641	1595.250	1337.903
-10.604	30.520	1594.228	1336.123
-9.590	30.468	1593.067	1334.722
-8.575	30.504	1592.134	1334.148
-7.560	30.415	1591.161	1332.640
-6.546	30.533	1589.692	1332.203
-5.531	30.423	1588.934	1330.726
-4.517	30.541	1587.218	1330.084
-3.502	30.472	1586.373	1328.824
-2.487	30.559	1584.552	1327.868
-1.473	30.252	1572.712	1315.716
-0.458	27.534	1553.627	1280.625
0.556	23.385	1554.943	1249.852
1.571	21.127	1579.206	1253.047
2.586	20.672	1592.500	1260.190
3.600	18.640	1539.327	1203.761
4.615	11.636	1432.469	1074.219
5.629	5.797	1372.054	991.971
6.644	5.002	1364.469	981.397
7.659	4.814	1363.053	979.114
8.673	4.775	1362.909	978.675
9.688	4.760	1360.542	976.796
10.702	4.743	1357.185	974.194
11.717	7.494	1362.712	995.348
12.731	14.458	1375.186	1048.303
13.746	18.952	1381.587	1081.414
14.761	18.756	1380.648	1079.352
15.775	17.715	1377.898	1070.576
16.790	16.664	1375.240	1061.823
17.804	15.798	1373.306	1054.811
18.819	15.367	1372.120	1051.110
19.834	15.274	1370.205	1048.966
20.848	14.996	1369.098	1046.288
21.863	14.743	1367.549	1043.429
22.877	14.633	1366.656	1041.973
23.892	14.641	1365.719	1041.215
24.907	14.479	1365.266	1039.763
25.921	14.557	1364.412	1039.511
26.936	14.624	1363.280	1038.973
27.950	14.628	1362.475	1038.293
28.965	14.792	1361.404	1038.400
29.980	14.858	1359.985	1037.635
30.994	14.906	1358.884	1037.006
32.009	14.902	1357.938	1036.164
33.023	14.907	1356.501	1035.009
34.038	14.922	1355.175	1034.000
35.053	14.712	1354.201	1031.863
36.067	14.728	1352.878	1030.868
37.082	14.746	1351.917	1030.151
38.096	14.803	1350.881	1029.620
39.111	14.937	1349.928	1029.628
40.126	14.715	1349.253	1027.655
41.140	14.569	1348.611	1026.180
42.155	14.585	1347.760	1025.542
43.169	14.461	1347.920	1024.812
44.184	14.482	1347.762	1024.727
45.199	14.483	1346.854	1023.955
46.213	14.611	1346.070	1024.050
47.228	14.810	1344.917	1024.301
48.242	14.625	1344.769	1022.969
49.257	14.671	1342.804	1021.662
50.271	14.737	1341.399	1020.905
51.286	14.684	1340.554	1019.850
52.301	14.606	1339.497	1018.480
53.315	14.668	1337.894	1017.549
54.330	14.620	1337.007	1016.493
55.344	14.552	1335.917	1015.156
56.359	14.696	1334.467	1014.840
57.374	14.515	1334.176	1013.433
58.388	14.579	1333.045	1012.873
59.403	14.580	1332.505	1012.379
60.417	14.553	1331.548	1011.397
61.432	14.419	1330.967	1010.051
62.447	14.457	1330.154	1009.580
63.461	14.382	1328.809	1008.013
64.476	14.228	1328.519	1006.771
65.490	14.273	1327.029	1005.828
66.505	14.325	1325.098	1004.590
67.520	14.406	1324.194	1004.303
68.534	14.512	1322.648	1003.677
69.549	14.464	1321.993	1002.805
70.563	14.428	1321.024	1001.763
71.578	14.383	1319.578	1000.312
72.593	14.317	1318.596	999.078
73.607	14.296	1317.934	998.363
74.622	14.269	1317.388	997.700
75.636	14.423	1316.105	997.565
76.651	14.426	1315.164	996.779
77.666	14.383	1315.252	996.500
78.680	14.303	1315.048	995.780
79.695	14.446	1313.674	995.506
80.709	14.598	1313.165	995.935
81.724	14.443	1313.042	994.830
82.739	14.503	1311.998	994.312
83.753	14.576	1310.688	993.662
84.768	14.744	1309.901	993.980
85.782	14.766	1309.162	993.460
86.797	14.710	1307.398	991.703
87.812	14.731	1306.387	990.973
88.826	14.640	1305.102	989.369
89.841	14.810	1303.779	989.286
90.855	14.773	1302.958	988.360
91.870	14.803	1301.992	987.713
92.884	14.675	1301.716	986.660
93.899	14.779	1300.810	986.498
94.914	14.876	1299.877	986.278
95.928	14.855	1299.472	985.763
96.943	14.864	1298.038	984.639
97.957	14.791	1297.539	983.743
98.972	14.797	1296.400	982.825
99.987	14.842	1295.297	982.166
101.001	14.873	1294.032	981.305
102.016	14.716	1293.588	979.960
103.030	14.761	1292.702	979.467
104.045	14.917	1291.576	979.443
105.060	14.696	1290.490	977.236
106.074	14.595	1288.829	975.299
107.089	14.533	1287.450	973.811
108.103	14.485	1286.081	972.410
109.118	14.464	1285.039	971.410
110.133	14.539	1283.468	970.578
111.147	14.566	1282.085	969.598
112.162	14.515	1281.206	968.554
113.176	14.607	1279.939	968.047
114.191	14.709	1279.281	968.054
115.206	14.648	1278.166	966.771
116.220	14.559	1277.083	965.352
117.235	14.611	1275.501	964.370
118.249	14.622	1274.700	963.741
119.264	14.603	1273.677	962.772
120.279	14.517	1272.454	961.267
121.293	14.567	1271.198	960.521
122.308	14.509	1270.274	959.407
123.322	14.419	1269.549	958.255
124.337	14.453	1268.404	957.499
125.352	14.492	1267.391	956.877
126.366	14.589	1266.315	956.536
127.381	14.453	1265.163	954.798
128.395	14.481	1263.935	953.952
129.410	14.578	1263.120	953.806
130.424	14.453	1262.854	952.805
131.439	14.569	1261.228	952.157
132.454	14.562	1260.856	951.754
133.468	14.599	1259.676	950.985
134.483	14.529	1259.227	950.168
135.497	14.579	1257.842	949.319
136.512	14.623	1256.767	948.675
137.527	14.747	1255.189	948.104
138.541	14.689	1253.901	946.716
139.556	14.659	1252.871	945.687
140.570	14.730	1251.884	945.264
141.585	14.734	1250.935	944.481
142.600	14.833	1249.627	943.974
143.614	14.863	1248.784	943.422
144.629	14.842	1247.636	942.352
145.643	14.872	1246.259	941.399
146.658	14.833	1245.240	940.324
147.673	14.670	1243.848	938.276
148.687	14.722	1242.533	937.490
149.702	14.628	1241.557	936.142
150.716	14.615	1240.006	934.822
151.731	14.648	1238.892	934.082
152.746	14.776	1237.841	933.921
153.760	14.877	1236.280	933.227
154.775	14.793	1235.589	932.154
155.789	14.852	1234.430	931.525
156.804	14.849	1233.820	930.965
157.819	14.890	1232.556	930.155
158.833	14.889	1231.969	929.624
159.848	15.037	1230.656	929.376
160.862	15.023	1229.871	928.625
161.877	14.954	1228.471	927.102
162.892	14.917	1227.297	925.930
163.906	14.845	1226.655	924.966
164.921	14.839	1225.978	924.337
165.935	14.842	1225.295	923.756
166.950	14.840	1224.286	922.905
167.964	14.952	1223.519	922.860
168.979	14.892	1223.060	922.105
169.994	15.020	1221.974	921.910
171.008	15.019	1220.948	921.047
172.023	15.057	1220.291	920.677
173.037	15.060	1219.901	920.318
174.052	15.066	1219.181	919.726
175.067	15.025	1217.853	918.421
176.081	14.869	1217.084	916.901
177.096	14.887	1215.963	916.075
178.110	14.924	1215.069	915.527
179.125	14.970	1213.648	914.625
180.140	14.981	1212.474	913.716
181.154	15.070	1211.227	913.185
182.169	15.070	1210.126	912.274
183.183	15.116	1208.703	911.370
184.198	15.169	1207.613	910.753
185.213	15.190	1206.825	910.192
186.227	15.196	1205.623	909.242
187.242	15.289	1204.609	908.902
188.256	15.269	1203.365	907.774
189.271	15.224	1202.927	907.115
190.286	15.165	1201.999	906.020
191.300	14.932	1200.531	903.573
192.315	14.865	1199.946	902.691
193.329	14.944	1199.309	902.561
194.344	14.907	1198.923	901.990
195.359	15.106	1198.623	902.757
196.373	15.225	1197.888	902.761
197.388	15.221	1197.658	902.487
198.402	15.375	1196.662	902.487
199.417	15.469	1195.723	902.203
200.432	15.437	1195.527	901.804
201.446	15.552	1194.428	901.515
202.461	15.538	1193.893	900.955
203.475	15.533	1192.884	900.085
204.490	15.483	1191.601	898.770
205.504	15.371	1190.431	897.209
206.519	15.370	1189.158	896.166
207.534	15.435	1187.804	895.415
208.548	15.398	1187.031	894.551
209.563	15.331	1186.595	893.789
210.577	15.393	1185.469	893.190
211.592	15.560	1184.572	893.323
212.607	15.598	1184.075	893.071
213.621	15.559	1183.248	892.161
214.636	15.570	1182.139	891.308
215.650	15.602	1180.885	890.451
216.665	15.475	1180.641	889.518
217.680	15.667	1179.441	889.551
218.694	15.703	1178.414	888.888
219.709	15.585	1178.084	887.936
220.723	15.752	1177.050	887.959
221.738	15.689	1176.400	887.056
222.753	15.746	1175.508	886.607
223.767	15.721	1175.112	886.099
224.782	15.813	1174.155	885.784
225.796	15.813	1173.794	885.433
226.811	15.683	1173.610	884.528
227.826	15.737	1172.096	883.593
228.840	15.746	1171.783	883.330
229.855	15.767	1170.844	882.651
230.869	15.766	1169.851	881.820
231.884	15.732	1168.995	880.917
232.899	15.682	1168.140	879.937
233.913	15.659	1167.469	879.230
234.928	15.711	1167.103	879.151
235.942	15.710	1166.049	878.271
236.957	15.723	1165.171	877.602
237.972	15.706	1164.440	876.883
238.986	15.644	1163.750	875.965
240.001	15.654	1163.307	875.607
241.015	15.783	1162.437	875.544
242.030	15.715	1161.849	874.672
243.045	15.783	1160.682	874.070
244.059	15.750	1160.174	873.436
245.074	15.895	1159.102	873.303
246.088	15.923	1158.405	872.845
247.103	16.012	1157.630	872.650
248.117	15.953	1157.188	871.929
249.132	16.029	1156.662	871.852
250.147	16.194	1155.710	871.909
251.161	16.295	1154.924	871.761
252.176	16.273	1154.440	871.205
253.190	16.328	1153.777	870.910
254.205	16.434	1153.330	871.043
255.220	16.434	1152.422	870.281
256.234	16.497	1151.796	870.056
257.249	16.336	1151.342	868.806
258.263	16.524	1150.384	868.970
259.278	16.355	1149.840	867.618
260.293	16.423	1149.477	867.615
261.307	16.452	1149.163	867.448
262.322	16.442	1148.625	866.916
263.336	16.440	1147.637	866.085
264.351	16.463	1146.680	865.402
265.366	16.593	1146.101	865.553
266.380	16.527	1145.133	864.407
267.395	16.538	1144.616	863.996
268.409	16.349	1144.290	862.709
269.424	16.395	1143.733	862.451
270.439	16.466	1142.815	862.042
271.453	16.504	1141.861	861.443
272.468	16.324	1141.083	859.862
273.482	16.451	1139.954	859.582
274.497	16.407	1139.706	859.092
275.512	16.461	1138.911	858.694
276.526	16.458	1138.350	858.176
277.541	16.458	1137.787	857.680
278.555	16.538	1137.136	857.518
279.570	16.455	1136.554	856.582
280.585	16.646	1135.270	856.506
281.599	16.639	1134.591	855.882
282.614	16.675	1133.129	854.886
283.628	16.666	1131.755	853.728
284.643	16.621	1131.417	853.168
285.657	16.641	1130.512	852.513
286.672	16.662	1129.847	852.040
287.687	16.646	1128.845	851.128
288.701	16.701	1128.222	850.862
289.716	16.682	1127.628	850.240
290.730	16.667	1126.573	849.297
291.745	16.729	1126.045	849.132
292.760	16.709	1125.852	848.814
293.774	16.845	1124.949	848.738
294.789	16.979	1123.995	848.615
295.803	16.865	1123.376	847.503
296.818	16.734	1122.851	846.377
297.833	16.797	1121.850	845.861
298.847	16.871	1121.258	845.708
299.862	16.825	1120.567	844.884
300.876	16.874	1119.970	844.600
301.891	16.931	1119.070	844.132
302.906	16.983	1118.699	844.038
303.920	16.970	1118.027	843.389
304.935	17.106	1117.190	843.358
305.949	17.125	1116.636	842.961
306.964	17.049	1116.130	842.130
307.979	17.103	1114.756	841.286
308.993	17.128	1114.427	841.085
310.008	17.101	1113.818	840.416
311.022	17.098	1112.867	839.609
312.037	17.194	1112.066	839.405
313.052	17.086	1111.254	838.188
314.066	17.101	1109.642	836.970
315.081	17.130	1108.964	836.528
316.095	17.039	1108.565	835.705
317.110	17.062	1107.650	835.055
318.125	17.142	1107.080	834.945
319.139	17.048	1106.336	833.848
320.154	17.011	1106.010	833.344
321.168	17.025	1105.725	833.126
322.183	16.979	1105.204	832.433
323.197	17.105	1104.302	832.296
324.212	17.018	1103.569	831.247
325.227	17.076	1103.027	831.049
326.241	17.045	1102.813	830.663
327.256	17.162	1101.596	830.245
328.270	17.086	1100.697	829.124
329.285	17.054	1099.769	828.194
330.300	17.135	1098.880	827.848
331.314	17.091	1097.966	826.870
332.329	17.078	1097.100	826.082
333.343	17.187	1096.330	825.956
334.358	17.274	1095.646	825.794
335.373	17.304	1094.612	825.087
336.387	17.350	1093.698	824.548
337.402	17.397	1093.193	824.322
338.416	17.427	1092.469	823.845
339.431	17.394	1092.166	823.385
340.446	17.474	1091.486	823.185
341.460	17.514	1090.537	822.590
342.475	17.650	1090.168	822.900
343.489	17.549	1089.260	821.650
344.504	17.652	1088.226	821.296
345.519	17.777	1087.093	820.970
346.533	17.661	1086.529	819.915
347.548	17.829	1085.771	820.077
348.562	17.692	1085.274	818.970
349.577	17.630	1083.909	817.571
350.592	17.536	1083.516	816.748
351.606	17.647	1082.661	816.564
352.621	17.418	1081.912	814.830
353.635	17.496	1081.272	814.650
354.650	17.442	1080.718	813.904
355.665	17.465	1080.214	813.562
356.679	17.558	1079.522	813.413
357.694	17.628	1079.014	813.290
358.708	17.694	1078.301	812.997
359.723	17.818	1077.111	812.621
360.738	17.778	1076.727	812.065
361.752	17.687	1076.343	811.272
362.767	17.746	1075.391	810.763
363.781	17.662	1075.335	810.252
364.796	17.767	1074.665	810.171
365.810	17.969	1073.871	810.459
366.825	17.984	1073.267	810.004
367.840	18.052	1073.169	810.182
368.854	18.101	1072.246	809.645
369.869	18.008	1071.697	808.719
370.883	17.967	1070.595	807.623
371.898	17.959	1069.875	806.968
372.913	17.885	1069.519	806.277
373.927	18.014	1068.798	806.273
374.942	18.047	1068.473	806.112
375.956	18.060	1068.007	805.749
376.971	18.047	1067.330	805.106
377.986	18.093	1066.750	804.814
379.000	18.212	1066.375	805.021
380.015	18.185	1065.799	804.389
381.029	18.342	1065.000	804.450
382.044	18.213	1064.360	803.292
383.059	17.980	1064.218	802.018
384.073	18.200	1062.899	801.988
385.088	18.283	1061.914	801.560
386.102	18.253	1061.249	800.849
387.117	18.143	1060.333	799.572
388.132	18.232	1059.156	799.028
389.146	18.193	1058.199	798.052
390.161	18.036	1057.818	796.964
391.175	18.136	1056.946	796.701
392.190	18.199	1056.102	796.287
393.205	18.340	1055.161	796.163
394.219	18.310	1054.527	795.477
395.234	18.241	1053.894	794.608
396.248	18.187	1052.652	793.348
397.263	18.159	1051.746	792.468
398.278	18.113	1051.168	791.751
399.292	18.223	1050.492	791.678
400.307	18.099	1049.765	790.487
401.321	18.217	1049.077	790.446
402.336	18.141	1048.185	789.351
403.350	18.275	1047.510	789.394
404.365	18.300	1046.833	788.929
405.380	18.246	1046.242	788.165
406.394	18.279	1045.345	787.568
407.409	18.411	1044.696	787.619
408.423	18.392	1044.381	787.224
409.438	18.624	1043.449	787.515
410.453	18.630	1042.833	787.010
411.467	18.544	1042.437	786.244
412.482	18.614	1041.679	785.926
413.496	18.738	1040.819	785.776
414.511	18.755	1040.299	785.388
415.526	18.772	1040.106	785.253
416.540	18.725	1039.669	784.638
417.555	18.708	1038.782	783.820
418.569	18.850	1038.275	784.018
419.584	18.712	1038.111	783.194
420.599	18.705	1037.501	782.633
421.613	150.721	1402.491	1796.423
422.628	137.717	1455.650	1796.534
