DTS Sentinel unit serial number:	SN413079Multiplexer serial number:	ORYXHardware model number:	OX4-SRSoftware version number:	ORYX F/W v4.00 Oryx Data Collector v3.7.2.0data status	okinstallation	princeton_trtdifferential loss correction	single-endedforward channel	channel 2reverse channel	N/Adate	2019/09/18time	08:39:35forward acquisition time	60.00reverse acquisition time	0.00gamma	496.2192k internal	0.2340k external	0.2340temperature offset calibration	0.9977default loss term (dB/km)	0.3790temperature slope calibration	1.0000multiplexer offset coefficient	1.0000multiplexer slope coefficient	1.0000fibre end	0.00T internal ref (°C)	24.52T ext. ref 1 (°C)	0.22T ext. ref 2 (°C)	20.22length (m)	temperature (°C)	Stokes	anti-Stokes-747.200	-200.000	-0.019	0.141
-746.185	282.833	-0.081	0.147
-745.171	276.524	0.307	-0.547
-744.156	800.000	-0.087	0.328
-743.142	-26.962	0.042	-0.025
-742.127	-78.322	0.243	0.083
-741.112	248.397	-0.105	0.178
-740.098	-120.359	-0.238	0.041
-739.083	800.000	-0.099	-0.331
-738.069	-168.258	0.212	-0.008
-737.054	49.689	-0.118	-0.112
-736.039	-147.324	0.084	-0.007
-735.025	486.453	-0.022	-0.051
-734.010	800.000	-0.041	-0.174
-732.996	-200.000	0.018	-0.213
-731.981	-59.187	-0.353	-0.153
-730.966	-16.038	-0.195	0.124
-729.952	131.199	-0.112	0.145
-728.937	-29.063	-0.064	0.037
-727.923	598.959	-0.104	0.257
-726.908	103.463	0.180	-0.212
-725.894	216.059	-0.128	-0.203
-724.879	800.000	-0.022	0.064
-723.864	-180.288	0.302	0.006
-722.850	-34.743	0.187	0.102
-721.835	20.672	-0.140	-0.113
-720.821	-133.115	-0.266	0.034
-719.806	192.802	0.204	-0.308
-718.791	5.772	-0.280	0.208
-717.777	32.066	0.085	0.073
-716.762	51.771	-0.169	0.161
-715.748	-70.597	-0.240	0.091
-714.733	724.030	0.118	0.316
-713.718	-195.712	0.088	-0.001
-712.704	-141.939	-0.351	0.035
-711.689	-45.512	-0.164	-0.081
-710.675	-123.708	0.142	0.022
-709.660	-6.490	-0.111	-0.076
-708.645	-190.589	-0.267	0.003
-707.631	-40.131	0.158	-0.082
-706.616	583.281	-0.087	-0.215
-705.602	-183.801	0.395	-0.007
-704.587	-200.000	0.098	-0.463
-703.572	-49.148	-0.049	0.023
-702.558	305.643	-0.011	0.021
-701.543	699.004	-0.098	0.259
-700.529	-79.665	0.118	-0.040
-699.514	-65.809	-0.098	0.039
-698.499	80.206	-0.171	-0.184
-697.485	800.000	-0.096	0.273
-696.470	331.752	-0.042	0.081
-695.456	217.676	-0.055	0.088
-694.441	-93.893	-0.302	0.083
-693.426	800.000	0.168	-0.492
-692.412	-111.288	-0.351	-0.072
-691.397	63.430	0.028	-0.028
-690.383	-100.806	-0.086	-0.021
-689.368	800.000	-0.134	0.432
-688.354	143.550	-0.275	0.366
-687.339	-163.342	0.209	-0.010
-686.324	-128.957	-0.117	-0.016
-685.310	-111.225	0.265	-0.054
-684.295	97.213	0.063	-0.072
-683.281	26.870	0.203	0.170
-682.266	217.960	0.122	-0.195
-681.251	49.182	-0.376	-0.353
-680.237	201.849	-0.104	0.161
-679.222	419.122	0.029	0.062
-678.208	283.169	0.089	0.160
-677.193	134.663	0.143	0.186
-676.178	-123.610	-0.125	-0.020
-675.164	55.343	-0.236	-0.228
-674.149	-67.623	-0.202	-0.079
-673.135	253.716	0.221	-0.378
-672.120	-160.481	-0.189	0.010
-671.105	513.147	-0.028	0.065
-670.091	-200.000	-0.009	-0.520
-669.076	-200.000	0.014	-0.175
-668.062	138.697	0.084	-0.111
-667.047	-60.647	-0.116	0.049
-666.032	2.493	-0.240	0.174
-665.018	-52.439	-0.199	0.092
-664.003	-200.000	0.014	-0.149
-662.989	-123.873	0.304	-0.048
-661.974	305.660	-0.127	0.236
-660.959	-94.367	-0.053	0.014
-659.945	-89.319	-0.051	-0.015
-658.930	311.836	0.043	-0.080
-657.916	-200.000	0.003	-0.116
-656.901	800.000	-0.166	-0.543
-655.886	-57.348	-0.068	-0.030
-654.872	667.416	0.058	0.151
-653.857	-35.206	0.292	0.159
-652.843	-165.155	-0.263	-0.012
-651.828	133.047	0.165	-0.213
-650.814	800.000	0.135	0.381
-649.799	-8.156	-0.393	0.264
-648.784	72.856	-0.020	-0.021
-647.770	-200.000	-0.046	-0.227
-646.755	140.611	-0.189	-0.249
-645.741	-162.007	-0.181	0.009
-644.726	-128.743	0.239	0.034
-643.711	227.377	0.127	0.206
-642.697	-103.173	-0.260	-0.061
-641.682	-157.343	-0.245	0.015
-640.668	-158.255	0.299	-0.017
-639.653	-200.000	-0.059	-0.327
-638.638	-200.000	-0.001	0.106
-637.624	-94.064	-0.347	0.095
-636.609	36.897	-0.216	0.191
-635.595	800.000	0.066	-0.271
-634.580	-93.930	-0.407	0.112
-633.565	-129.315	-0.302	-0.042
-632.551	800.000	-0.077	0.264
-631.536	-200.000	0.011	0.270
-630.522	-88.685	0.349	-0.104
-629.507	94.957	0.104	0.118
-628.492	-115.296	-0.172	-0.032
-627.478	107.292	0.104	0.123
-626.463	8.756	-0.018	-0.014
-625.449	13.561	-0.220	-0.170
-624.434	-130.071	-0.202	-0.027
-623.419	94.197	-0.038	0.044
-622.405	-105.350	-0.214	0.049
-621.390	18.622	0.201	-0.160
-620.376	-67.822	-0.063	-0.025
-619.361	94.522	0.128	-0.145
-618.346	800.000	-0.058	-0.185
-617.332	-116.570	-0.209	0.038
-616.317	-106.913	-0.038	-0.008
-615.303	112.887	0.332	-0.401
-614.288	453.374	-0.133	0.293
-613.273	156.065	0.154	0.212
-612.259	265.342	0.059	0.103
-611.244	-4.523	0.029	0.020
-610.230	-103.726	-0.216	0.051
-609.215	785.242	-0.055	0.149
-608.201	-200.000	0.106	0.471
-607.186	19.422	-0.080	0.064
-606.171	-110.734	-0.061	-0.013
-605.157	-200.000	0.021	0.122
-604.142	-88.541	0.204	0.061
-603.128	717.660	0.056	-0.150
-602.113	331.189	0.015	-0.029
-601.098	-169.308	-0.115	0.004
-600.084	-23.528	0.172	0.103
-599.069	-117.286	-0.223	0.040
-598.055	52.882	0.163	-0.156
-597.040	16.952	-0.043	0.034
-596.025	-200.000	0.023	0.415
-595.011	24.850	0.117	-0.097
-593.996	85.079	-0.026	0.028
-592.982	800.000	0.010	-0.040
-591.967	-200.000	-0.005	0.165
-590.952	782.602	-0.084	-0.230
-589.938	-200.000	0.020	-0.299
-588.923	435.110	-0.077	-0.166
-587.909	11.447	-0.426	0.326
-586.894	355.794	-0.124	0.245
-585.879	115.137	-0.271	-0.329
-584.865	-162.972	0.247	0.012
-583.850	338.116	-0.059	-0.115
-582.836	544.731	-0.079	0.187
-581.821	-50.678	0.116	0.054
-580.806	-117.577	-0.370	0.066
-579.792	-64.420	0.060	0.024
-578.777	-61.546	-0.063	0.026
-577.763	-200.000	-0.016	-0.079
-576.748	59.283	0.098	0.096
-575.733	-200.000	0.038	-0.298
-574.719	-154.773	0.286	0.019
-573.704	800.000	0.056	-0.214
-572.690	-115.488	0.078	-0.015
-571.675	-66.934	-0.247	-0.097
-570.661	-23.965	0.263	-0.157
-569.646	800.000	0.038	-0.139
-568.631	-83.790	0.050	-0.016
-567.617	-93.547	-0.130	-0.036
-566.602	32.323	0.152	0.130
-565.588	103.844	-0.206	0.240
-564.573	-102.554	0.223	-0.053
-563.558	-200.000	0.014	-0.256
-562.544	-60.784	0.360	-0.152
-561.529	-171.653	0.066	0.002
-560.515	-200.000	-0.036	0.305
-559.500	800.000	0.033	0.127
-558.485	-200.000	0.015	-0.312
-557.471	17.520	-0.155	0.123
-556.456	31.680	0.249	-0.213
-555.442	-13.810	-0.119	-0.077
-554.427	12.186	-0.096	0.073
-553.412	-107.127	-0.100	0.022
-552.398	-116.551	-0.100	-0.018
-551.383	-200.000	-0.055	0.348
-550.369	-131.683	-0.207	0.027
-549.354	-200.000	0.027	0.166
-548.339	800.000	-0.041	0.116
-547.325	352.207	-0.032	0.062
-546.310	-102.878	0.247	0.058
-545.296	215.020	-0.045	0.071
-544.281	-200.000	0.007	-0.223
-543.266	-200.000	0.021	-0.353
-542.252	260.136	-0.031	-0.053
-541.237	-142.979	-0.470	-0.045
-540.223	-21.915	0.179	-0.108
-539.208	-200.000	0.005	-0.147
-538.193	-200.000	-0.023	-0.419
-537.179	-200.000	0.087	0.380
-536.164	2.153	0.060	0.043
-535.150	-130.623	-0.339	0.045
-534.135	195.909	0.128	0.194
-533.121	31.629	-0.180	-0.154
-532.106	-115.133	-0.233	-0.044
-531.091	-103.764	-0.213	-0.050
-530.077	-90.242	-0.223	0.064
-529.062	-76.846	-0.139	-0.048
-528.048	-200.000	0.025	-0.229
-527.033	-200.000	-0.007	-0.255
-526.018	-109.090	0.338	0.072
-525.004	202.880	0.116	-0.178
-523.989	-30.331	0.288	0.163
-522.975	227.428	-0.083	-0.135
-521.960	-29.772	-0.101	0.057
-520.945	800.000	-0.108	0.298
-519.931	-200.000	-0.038	0.278
-518.916	-65.327	-0.098	0.039
-517.902	-72.189	0.136	-0.050
-516.887	-79.046	-0.317	-0.107
-515.872	-119.069	0.136	-0.024
-514.858	75.221	-0.155	-0.162
-513.843	84.668	-0.190	-0.207
-512.829	-43.643	0.221	-0.111
-511.814	587.074	0.074	0.181
-510.799	-177.322	-0.189	-0.005
-509.785	51.846	-0.228	0.215
-508.770	-200.000	-0.017	-0.160
-507.756	-200.000	0.082	0.369
-506.741	370.641	-0.064	0.130
-505.726	41.773	0.249	0.224
-504.712	-30.823	-0.410	-0.230
-503.697	-145.389	0.074	0.007
-502.683	-113.393	-0.045	0.009
-501.668	-200.000	-0.032	-0.578
-500.653	154.520	0.243	-0.332
-499.639	-135.161	0.101	0.012
-498.624	-200.000	-0.004	0.153
-497.610	57.389	0.051	0.050
-496.595	733.260	-0.057	0.152
-495.581	-62.404	0.297	0.123
-494.566	-150.960	0.365	-0.027
-493.551	800.000	0.160	-0.460
-492.537	123.878	-0.029	-0.036
-491.522	-49.072	0.191	0.091
-490.508	585.755	-0.102	0.250
-489.493	-200.000	0.003	0.239
-488.478	106.977	0.183	0.216
-487.464	-64.952	-0.179	-0.072
-486.449	94.650	0.143	0.162
-485.435	145.285	-0.172	0.228
-484.420	-136.838	0.157	0.018
-483.405	5.249	-0.020	-0.014
-482.391	-200.000	0.080	-0.440
-481.376	800.000	0.125	0.501
-480.362	391.793	0.204	0.420
-479.347	524.010	0.127	-0.297
-478.332	700.178	-0.076	0.198
-477.318	46.584	-0.333	0.307
-476.303	31.227	0.096	-0.082
-475.289	379.800	0.151	-0.308
-474.274	174.194	0.188	0.270
-473.259	-174.385	0.235	0.007
-472.245	-156.667	0.172	-0.011
-471.230	145.700	0.193	-0.257
-470.216	-174.118	-0.170	-0.005
-469.201	800.000	0.045	-0.124
-468.186	800.000	-0.074	-0.224
-467.172	1.941	0.132	0.094
-466.157	-6.771	-0.265	0.179
-465.143	603.257	0.026	-0.063
-464.128	-35.783	0.170	-0.091
-463.113	-109.390	-0.479	0.101
-462.099	139.273	0.090	0.117
-461.084	-135.853	-0.326	-0.038
-460.070	800.000	0.057	-0.241
-459.055	-103.861	0.201	0.047
-458.040	-78.824	-0.103	0.035
-457.026	-25.366	-0.061	-0.036
-456.011	-80.456	-0.238	-0.079
-454.997	-42.684	0.309	-0.156
-453.982	-200.000	-0.021	-0.289
-452.968	-33.375	0.328	0.180
-451.953	226.941	0.130	-0.210
-450.938	-90.535	-0.428	-0.123
-449.924	376.121	0.136	0.275
-448.909	-175.954	0.223	-0.006
-447.895	-33.957	0.063	0.035
-446.880	342.491	-0.087	0.169
-445.865	-13.736	0.227	0.145
-444.851	54.515	-0.180	0.172
-443.836	55.896	0.022	0.022
-442.822	-200.000	0.004	-0.049
-441.807	-17.918	-0.186	-0.116
-440.792	800.000	0.023	-0.077
-439.778	-79.456	0.198	0.066
-438.763	-10.416	-0.192	0.126
-437.749	-200.000	-0.081	-0.355
-436.734	-200.000	0.007	-0.227
-435.719	-199.541	-0.483	0.002
-434.705	800.000	0.043	-0.185
-433.690	-13.778	-0.356	0.228
-432.676	-108.905	0.255	0.054
-431.661	-65.290	-0.053	-0.021
-430.646	662.223	0.020	-0.052
-429.632	-65.889	0.481	-0.190
-428.617	272.330	-0.258	-0.450
-427.603	-200.000	-0.009	-0.193
-426.588	-200.000	-0.006	0.047
-425.573	406.798	-0.115	0.241
-424.559	384.239	-0.042	0.087
-423.544	192.105	0.168	0.251
-422.530	-200.000	0.006	-0.156
-421.515	-64.394	0.281	-0.113
-420.500	-25.347	-0.188	0.110
-419.486	-12.280	0.277	-0.179
-418.471	156.701	-0.123	-0.168
-417.457	-200.000	0.033	-0.221
-416.442	-200.000	0.059	0.262
-415.428	-97.122	0.214	-0.055
-414.413	7.359	-0.069	0.051
-413.398	3.142	-0.028	-0.020
-412.384	800.000	-0.035	-0.150
-411.369	-200.000	0.000	-0.105
-410.355	-119.962	-0.239	-0.041
-409.340	-63.374	-0.310	0.126
-408.325	-161.791	-0.293	-0.015
-407.311	800.000	0.082	-0.261
-406.296	10.436	-0.214	-0.161
-405.282	-96.846	-0.324	-0.084
-404.267	5.673	0.165	0.120
-403.252	11.269	0.134	-0.101
-402.238	-43.588	0.224	-0.112
-401.223	-200.000	-0.037	-0.241
-400.209	-63.538	0.081	-0.033
-399.194	-103.402	0.062	-0.014
-398.179	-43.310	-0.266	-0.133
-397.165	12.413	0.305	-0.233
-396.150	18.400	-0.084	-0.067
-395.136	-120.772	-0.130	-0.022
-394.121	800.000	0.039	0.145
-393.106	235.367	-0.054	0.088
-392.092	166.329	-0.083	0.117
-391.077	-150.490	0.193	0.015
-390.063	-156.396	0.035	0.002
-389.048	-94.945	-0.199	0.053
-388.033	370.706	0.090	-0.181
-387.019	-200.000	-0.028	0.159
-386.004	83.172	-0.199	0.214
-384.990	-126.502	-0.143	0.021
-383.975	-200.000	-0.018	-0.192
-382.960	606.535	0.150	0.369
-381.946	70.785	0.239	-0.245
-380.931	-200.000	0.082	-0.453
-379.917	-116.299	-0.400	0.073
-378.902	-108.192	-0.358	0.076
-377.888	-19.268	0.154	-0.094
-376.873	-150.712	-0.204	0.015
-375.858	-88.799	0.171	-0.050
-374.844	-41.223	0.146	-0.074
-373.829	-96.733	-0.173	-0.045
-372.815	126.025	-0.082	0.102
-371.800	57.815	-0.078	-0.075
-370.785	-200.000	0.018	0.144
-369.771	62.828	0.187	0.185
-368.756	-200.000	-0.011	0.103
-367.742	-33.749	0.130	-0.071
-366.727	800.000	0.026	-0.082
-365.712	-47.933	-0.207	0.099
-364.698	-24.051	0.162	-0.096
-363.683	-11.994	0.127	0.082
-362.669	-64.311	0.283	-0.114
-361.654	24.877	-0.230	0.189
-360.639	-102.104	0.396	0.094
-359.625	-97.920	0.337	0.086
-358.610	79.368	0.189	0.200
-357.596	24.113	0.138	0.112
-356.581	49.242	-0.213	0.197
-355.566	216.144	0.113	-0.177
-354.552	233.464	0.121	0.197
-353.537	45.897	0.172	0.157
-352.523	20.261	-0.187	-0.149
-351.508	150.286	0.163	0.219
-350.493	10.284	0.203	-0.152
-349.479	-200.000	0.021	0.225
-348.464	-150.354	0.385	-0.029
-347.450	-27.821	-0.117	0.067
-346.435	-101.565	-0.292	0.070
-345.420	-200.000	0.032	-0.160
-344.406	108.099	0.099	-0.116
-343.391	-161.557	-0.265	-0.013
-342.377	-61.090	-0.041	-0.017
-341.362	-200.000	-0.002	0.256
-340.348	12.842	0.179	-0.136
-339.333	71.279	-0.108	0.111
-338.318	-32.268	0.167	-0.092
-337.304	-111.521	0.436	-0.088
-336.289	-63.048	0.223	0.091
-335.275	-23.918	0.231	-0.136
-334.260	-41.989	0.321	0.162
-333.245	49.677	0.333	-0.309
-332.231	-88.167	0.142	0.042
-331.216	591.833	-0.057	0.139
-330.202	169.295	0.117	-0.165
-329.187	34.276	-0.158	0.136
-328.172	-4.107	-0.307	-0.210
-327.158	-94.296	-0.086	0.023
-326.143	-92.812	-0.274	-0.076
-325.129	238.107	0.190	-0.311
-324.114	-119.552	0.286	-0.049
-323.099	-106.330	-0.178	-0.039
-322.085	77.439	-0.135	-0.142
-321.070	-40.362	-0.159	-0.082
-320.056	25.328	-0.085	0.070
-319.041	-200.000	-0.035	0.185
-318.026	-194.018	0.448	0.004
-317.012	800.000	0.043	0.153
-315.997	80.480	-0.125	0.133
-314.983	-38.158	-0.288	0.150
-313.968	-112.310	0.096	-0.019
-312.953	-200.000	0.068	0.423
-311.939	39.887	-0.090	0.080
-310.924	-109.479	-0.164	-0.034
-309.910	-200.000	0.044	0.476
-308.895	-127.784	-0.136	0.019
-307.880	-200.000	-0.007	0.092
-306.866	65.413	-0.197	0.196
-305.851	-129.907	-0.362	0.049
-304.837	-36.292	-0.122	0.065
-303.822	-72.790	0.166	-0.060
-302.807	514.138	0.037	-0.085
-301.793	-200.000	-0.045	0.309
-300.778	628.116	0.028	0.069
-299.764	93.537	0.071	0.079
-298.749	75.535	-0.039	-0.040
-297.735	43.319	0.098	-0.088
-296.720	38.588	0.097	0.085
-295.705	-73.069	0.204	-0.074
-294.691	50.581	0.273	-0.255
-293.676	535.626	-0.115	0.269
-292.662	-200.000	0.037	-0.245
-291.647	22.890	0.016	0.013
-290.632	800.000	-0.113	0.345
-289.618	-152.644	0.170	0.012
-288.603	-200.000	0.039	-0.309
-287.589	-2.330	-0.112	0.077
-286.574	-143.882	0.170	-0.016
-285.559	-164.397	0.065	0.003
-284.545	-94.930	0.326	-0.087
-283.530	214.366	0.079	-0.123
-282.516	313.110	-0.160	0.295
-281.501	-102.086	-0.154	-0.037
-280.486	-135.675	0.074	-0.009
-279.472	800.000	0.054	-0.166
-278.457	90.952	0.051	-0.056
-277.443	153.899	-0.123	-0.166
-276.428	-91.366	-0.134	0.038
-275.413	263.265	0.095	0.163
-274.399	800.000	-0.048	0.205
-273.384	-22.376	0.167	0.100
-272.370	-200.000	0.066	0.379
-271.355	-102.518	-0.166	0.039
-270.340	165.315	-0.121	-0.169
-269.326	800.000	-0.078	-0.276
-268.311	131.365	0.206	-0.261
-267.297	8.744	0.203	0.151
-266.282	188.933	0.143	-0.210
-265.267	-9.733	0.352	0.230
-264.253	-112.617	-0.361	0.071
-263.238	96.109	-0.161	-0.181
-262.224	6.092	0.020	0.015
-261.209	86.194	0.096	0.104
-260.195	-200.000	0.030	0.222
-259.180	647.640	0.042	0.106
-258.165	234.938	0.080	0.130
-257.151	-200.000	-0.122	-0.549
-256.136	-200.000	0.058	0.330
-255.122	-17.371	0.145	-0.090
-254.107	58.230	-0.131	0.126
-253.092	-24.957	0.151	-0.088
-252.078	800.000	-0.097	-0.286
-251.063	58.477	-0.109	0.105
-250.049	240.643	0.142	0.232
-249.034	-200.000	0.013	-0.092
-248.019	24.278	0.338	0.275
-247.005	-143.697	-0.205	0.019
-245.990	-144.426	0.242	-0.022
-244.976	-184.071	0.196	0.003
-243.961	1.970	0.269	0.191
-242.946	-87.159	-0.167	0.050
-241.932	135.781	0.074	0.095
-240.917	-128.948	0.176	0.024
-239.903	-36.006	0.153	0.081
-238.888	-166.817	-0.202	-0.008
-237.873	-122.645	-0.429	-0.068
-236.859	-200.000	-0.021	0.210
-235.844	800.000	-0.057	-0.171
-234.830	-184.952	-0.341	0.005
-233.815	28.243	-0.041	-0.034
-232.800	149.716	-0.118	-0.156
-231.786	-184.134	0.158	0.003
-230.771	-16.655	-0.073	-0.045
-229.757	-126.065	-0.060	-0.009
-228.742	-20.995	0.209	-0.126
-227.727	800.000	-0.069	-0.193
-226.713	515.133	-0.102	0.235
-225.698	800.000	-0.051	-0.219
-224.684	404.352	0.136	0.281
-223.669	-3.673	0.034	-0.023
-222.655	-124.744	0.147	0.022
-221.640	49.784	-0.337	-0.312
-220.625	-72.619	-0.232	-0.084
-219.611	54.120	-0.281	-0.265
-218.596	-35.713	0.055	0.029
-217.582	800.000	0.074	-0.299
-216.567	-200.000	0.013	0.067
-215.552	156.029	-0.095	0.129
-214.538	56.727	-0.267	-0.255
-213.523	-93.187	0.118	-0.032
-212.509	542.632	-0.095	0.223
-211.494	800.000	-0.045	-0.144
-210.479	-118.391	0.278	-0.048
-209.465	32.698	0.125	-0.106
-208.450	-107.150	0.457	0.099
-207.436	-26.609	-0.270	-0.155
-206.421	505.275	-0.103	0.234
-205.406	-200.000	0.013	-0.129
-204.392	162.918	-0.013	0.017
-203.377	-117.685	-0.170	0.030
-202.363	54.934	-0.241	-0.229
-201.348	-110.726	-0.055	0.011
-200.333	-107.637	0.133	0.028
-199.319	-200.000	0.026	0.254
-198.304	-200.000	0.025	-0.261
-197.290	783.907	0.121	0.325
-196.275	119.267	-0.145	0.176
-195.260	37.492	0.166	-0.145
-194.246	-146.054	0.372	-0.032
-193.231	87.375	-0.174	0.189
-192.217	-66.507	0.321	0.125
-191.202	-83.735	0.217	-0.068
-190.187	31.103	0.104	0.087
-189.173	59.220	-0.115	-0.111
-188.158	-36.555	-0.184	0.097
-187.144	91.300	0.166	0.183
-186.129	-116.787	-0.137	-0.025
-185.114	-200.000	-0.003	0.214
-184.100	-132.708	0.347	0.044
-183.085	-200.000	0.004	-0.108
-182.071	-91.721	0.139	-0.039
-181.056	-122.968	-0.106	0.017
-180.042	-200.000	-0.003	0.200
-179.027	-78.969	-0.018	0.006
-178.012	800.000	0.098	-0.296
-176.998	-21.711	-0.073	0.044
-175.983	506.314	0.131	-0.298
-174.969	-123.460	-0.369	0.058
-173.954	-200.000	-0.048	-0.243
-172.939	474.864	-0.075	0.165
-171.925	129.404	-0.054	-0.068
-170.910	-51.706	0.165	-0.075
-169.896	800.000	0.039	0.152
-168.881	150.122	-0.153	-0.204
-167.866	-49.195	-0.319	-0.150
-166.852	0.275	0.190	-0.133
-165.837	-47.101	-0.075	0.036
-164.823	134.645	0.159	0.202
-163.808	-53.781	0.049	-0.022
-162.793	-200.000	0.005	-0.263
-161.779	-49.299	0.188	0.088
-160.764	-200.000	-0.051	0.284
-159.750	-41.531	-0.450	0.227
-158.735	339.399	-0.045	-0.086
-157.720	236.107	0.010	0.016
-156.706	141.502	-0.099	0.128
-155.691	-49.482	0.233	-0.109
-154.677	-200.000	-0.007	0.118
-153.662	-200.000	-0.012	0.245
-152.647	293.746	-0.321	-0.575
-151.633	-68.651	0.285	-0.108
-150.618	41.156	0.128	-0.114
-149.604	1.299	-0.147	0.103
-148.589	184.404	0.143	-0.207
-147.574	-200.000	-0.021	-0.147
-146.560	-59.563	-0.033	-0.014
-145.545	-200.000	0.057	0.258
-144.531	-2.781	-0.194	-0.133
-143.516	7.018	0.196	-0.143
-142.502	800.000	-0.055	-0.184
-141.487	-200.000	0.003	-0.018
-140.472	696.827	-0.065	0.167
-139.458	-177.850	-0.301	0.007
-138.443	602.546	-0.103	0.251
-137.429	75.800	0.073	0.075
-136.414	-200.000	-0.018	-0.084
-135.399	132.067	0.072	0.091
-134.385	-132.563	-0.044	-0.006
-133.370	-200.000	-0.010	-0.055
-132.356	255.004	0.039	0.065
-131.341	-200.000	0.033	0.148
-130.326	-71.701	-0.385	0.140
-129.312	-46.693	0.321	0.154
-128.297	413.254	-0.061	-0.127
-127.283	294.625	0.028	-0.050
-126.268	377.677	0.158	0.315
-125.253	32.809	0.167	0.141
-124.239	-188.725	0.230	-0.003
-123.224	-128.535	-0.159	-0.022
-122.210	-68.000	0.151	0.057
-121.195	-200.000	0.014	-0.361
-120.180	122.853	0.183	0.224
-119.166	64.233	-0.075	0.074
-118.151	800.000	0.098	-0.291
-117.137	-200.000	0.023	-0.276
-116.122	-200.000	0.046	-0.204
-115.107	-142.938	0.509	-0.048
-114.093	157.196	0.074	0.100
-113.078	800.000	-0.075	0.247
-112.064	-200.000	-0.023	-0.212
-111.049	204.072	0.087	0.131
-110.034	470.375	0.090	-0.198
-109.020	-10.784	0.346	0.224
-108.005	-200.000	-0.055	0.248
-106.991	207.190	0.061	-0.094
-105.976	166.371	-0.254	-0.352
-104.962	-116.791	0.194	-0.035
-103.947	-109.015	0.240	0.050
-102.932	-153.602	-0.098	0.007
-101.918	-165.969	0.446	-0.019
-100.903	38.661	-0.077	0.068
-99.889	659.706	0.090	0.227
-98.874	-129.860	0.170	-0.023
-97.859	52.832	-0.215	0.201
-96.845	51.036	0.236	-0.218
-95.830	-1.504	0.120	-0.083
-94.816	-200.000	0.009	-0.063
-93.801	99.979	-0.122	-0.139
-92.786	-52.941	-0.066	0.030
-91.772	-200.000	-0.042	-0.319
-90.757	800.000	-0.025	-0.070
-89.743	14.843	0.189	-0.145
-88.728	-200.000	0.062	-0.393
-87.713	453.051	-0.137	-0.296
-86.699	-154.448	-0.223	-0.015
-85.684	-33.793	-0.246	0.132
-84.670	221.857	-0.137	0.215
-83.655	-115.217	-0.140	0.026
-82.640	121.263	0.106	0.128
-81.626	-27.166	0.140	-0.080
-80.611	653.535	0.030	0.076
-79.597	409.638	0.221	0.458
-78.582	-87.440	0.392	0.116
-77.567	-40.539	-0.119	-0.060
-76.553	79.856	0.069	0.073
-75.538	-96.198	0.140	-0.036
-74.524	-168.665	-0.159	0.006
-73.509	-124.012	-0.396	0.061
-72.494	41.372	-0.284	-0.251
-71.480	-126.991	0.256	0.037
-70.465	-12.882	0.112	-0.072
-69.451	-163.527	-0.168	0.008
-68.436	33.393	-0.267	0.226
-67.422	-107.395	-0.062	0.013
-66.407	-200.000	0.038	-0.210
-65.392	-76.366	-0.311	-0.107
-64.378	125.430	-0.092	0.113
-63.363	87.422	-0.149	-0.161
-62.349	-2.387	0.100	0.069
-61.334	102.282	-1.066	-1.216
-60.319	155.327	0.557	0.749
-59.305	-200.000	-0.216	-1.262
-58.290	800.000	0.526	1.507
-57.276	800.000	0.486	1.485
-56.261	-200.000	122.348	616.975
-55.246	386.938	1571.092	3167.915
-54.232	140.336	2742.895	3532.260
-53.217	88.690	2312.499	2509.090
-52.203	33.284	1915.646	1621.988
-51.188	27.525	1708.331	1402.218
-50.173	25.342	1667.432	1352.175
-49.159	44.444	1732.695	1552.796
-48.144	43.053	1745.723	1553.691
-47.130	27.038	1698.533	1390.229
-46.115	24.632	1682.836	1359.056
-45.100	24.432	1678.040	1353.607
-44.086	24.384	1675.760	1351.352
-43.071	24.388	1672.342	1348.574
-42.057	24.335	1670.355	1346.517
-41.042	24.316	1668.747	1345.025
-40.027	24.362	1666.414	1343.438
-39.013	24.424	1664.431	1342.249
-37.998	24.346	1663.130	1340.562
-36.984	24.357	1661.779	1339.506
-35.969	24.450	1659.880	1338.620
-34.954	24.480	1658.806	1337.925
-33.940	24.524	1657.116	1336.836
-32.925	24.579	1654.964	1335.455
-31.911	24.507	1653.802	1333.934
-30.896	24.519	1651.922	1332.453
-29.881	24.573	1650.148	1331.372
-28.867	24.495	1649.220	1329.986
-27.852	24.558	1647.282	1328.840
-26.838	24.444	1646.227	1327.084
-25.823	24.509	1644.969	1326.507
-24.809	24.462	1644.289	1325.553
-23.794	24.639	1641.715	1324.741
-22.779	24.551	1640.927	1323.399
-21.765	24.571	1639.143	1322.055
-20.750	24.545	1637.322	1320.338
-19.736	24.531	1635.986	1319.105
-18.721	24.624	1634.861	1318.834
-17.706	24.576	1633.189	1317.081
-16.692	24.611	1631.540	1315.952
-15.677	24.549	1630.464	1314.580
-14.663	24.625	1628.903	1313.827
-13.648	24.500	1627.974	1312.103
-12.633	24.631	1625.612	1311.113
-11.619	24.504	1624.653	1309.353
-10.604	24.562	1623.085	1308.468
-9.590	24.534	1621.769	1307.148
-8.575	24.512	1620.414	1305.842
-7.560	24.543	1619.196	1305.036
-6.546	24.436	1618.577	1303.704
-5.531	24.497	1617.572	1303.284
-4.517	24.528	1615.606	1301.874
-3.502	24.523	1614.844	1301.179
-2.487	24.600	1613.310	1300.449
-1.473	24.370	1601.721	1289.390
-0.458	21.830	1583.371	1256.399
0.556	16.940	1585.811	1227.855
1.571	14.868	1610.153	1231.349
2.586	14.539	1622.449	1238.201
3.600	13.356	1568.465	1188.402
4.615	7.333	1458.881	1064.921
5.629	1.338	1398.233	981.876
6.644	0.287	1390.607	969.674
7.659	0.277	1389.672	968.874
8.673	0.145	1388.660	967.235
9.688	0.181	1386.459	965.841
10.702	-0.090	1383.362	961.867
11.717	2.959	1387.747	984.385
12.731	10.113	1398.351	1037.875
13.746	15.393	1406.244	1077.643
14.761	16.679	1407.136	1086.487
15.775	16.107	1405.406	1081.389
16.790	15.183	1402.478	1073.125
17.804	14.387	1400.472	1066.398
18.819	13.984	1399.122	1062.699
19.834	13.761	1397.823	1060.195
20.848	13.547	1396.477	1057.714
21.863	13.375	1395.134	1055.507
22.877	13.138	1393.614	1052.752
23.892	13.010	1393.027	1051.403
24.907	13.025	1392.496	1051.002
25.921	13.036	1391.209	1050.010
26.936	13.185	1390.092	1050.020
27.950	13.094	1389.634	1049.006
28.965	13.232	1388.510	1048.935
29.980	13.272	1387.780	1048.546
30.994	13.401	1386.784	1048.518
32.009	13.377	1385.490	1047.299
33.023	13.357	1384.130	1046.049
34.038	13.167	1383.143	1044.012
35.053	13.193	1382.388	1043.511
36.067	13.208	1381.058	1042.508
37.082	13.245	1379.920	1041.793
38.096	13.317	1378.964	1041.434
39.111	13.291	1377.883	1040.358
40.126	13.200	1377.542	1039.440
41.140	13.150	1376.354	1038.131
42.155	13.145	1376.053	1037.786
43.169	13.099	1375.804	1037.214
44.184	13.078	1375.471	1036.742
45.199	13.145	1374.974	1036.694
46.213	13.114	1374.585	1036.117
47.228	13.146	1373.954	1035.748
48.242	13.205	1372.259	1034.746
49.257	13.228	1370.637	1033.579
50.271	13.097	1369.797	1032.033
51.286	13.120	1367.953	1030.698
52.301	13.181	1366.599	1029.964
53.315	13.126	1365.785	1028.921
54.330	13.123	1364.896	1028.139
55.344	13.124	1363.444	1026.961
56.359	13.106	1362.409	1025.978
57.374	13.130	1361.768	1025.554
58.388	13.101	1360.516	1024.340
59.403	13.036	1360.134	1023.561
60.417	13.030	1359.726	1023.126
61.432	13.113	1358.269	1022.452
62.447	13.003	1357.234	1020.902
63.461	12.976	1356.288	1019.934
64.476	13.019	1354.653	1018.881
65.490	12.951	1354.031	1017.899
66.505	13.063	1352.010	1016.985
67.520	13.035	1351.082	1016.024
68.534	13.052	1350.188	1015.361
69.549	13.051	1349.016	1014.389
70.563	12.963	1347.984	1012.979
71.578	12.970	1346.769	1012.020
72.593	12.872	1345.988	1010.743
73.607	12.870	1345.205	1010.052
74.622	13.077	1343.851	1010.213
75.636	12.907	1343.434	1008.775
76.651	12.918	1343.168	1008.547
77.666	12.935	1341.974	1007.670
78.680	12.915	1341.661	1007.221
79.695	12.913	1341.283	1006.838
80.709	13.042	1339.820	1006.439
81.724	12.979	1339.618	1005.809
82.739	13.080	1337.903	1005.047
83.753	13.127	1337.035	1004.596
84.768	13.104	1336.336	1003.843
85.782	13.216	1335.075	1003.486
86.797	13.188	1333.071	1001.719
87.812	13.224	1332.265	1001.245
88.826	13.169	1331.350	1000.137
89.841	13.179	1329.816	998.956
90.855	13.149	1328.976	998.056
91.870	13.229	1328.059	997.760
92.884	13.215	1327.461	997.140
93.899	13.231	1326.482	996.408
94.914	13.285	1325.961	996.254
95.928	13.346	1324.455	995.405
96.943	13.285	1324.082	994.671
97.957	13.280	1322.663	993.487
98.972	13.281	1321.502	992.527
99.987	13.204	1320.777	991.435
101.001	13.231	1319.563	990.597
102.016	13.183	1318.685	989.568
103.030	13.222	1317.621	988.911
104.045	13.200	1316.746	988.039
105.060	13.268	1315.548	987.457
106.074	13.236	1314.009	986.025
107.089	13.192	1313.070	984.970
108.103	13.061	1311.790	983.140
109.118	13.021	1310.517	981.860
110.133	13.140	1308.649	981.083
111.147	13.169	1307.530	980.329
112.162	13.096	1306.837	979.288
113.176	13.151	1305.713	978.689
114.191	13.194	1304.381	977.855
115.206	13.216	1303.113	976.949
116.220	13.112	1302.285	975.626
117.235	13.183	1300.674	974.753
118.249	13.179	1299.946	974.098
119.264	13.143	1298.585	972.783
120.279	13.084	1297.324	971.401
121.293	13.112	1296.824	971.109
122.308	13.081	1295.812	970.081
123.322	13.111	1294.425	969.130
124.337	13.085	1293.972	968.554
125.352	13.107	1292.640	967.599
126.366	13.181	1291.145	966.827
127.381	12.981	1290.645	965.202
128.395	13.043	1289.218	964.407
129.410	13.131	1288.044	963.960
130.424	13.170	1287.395	963.618
131.439	13.179	1286.280	962.747
132.454	13.112	1285.583	961.754
133.468	13.077	1284.502	960.653
134.483	13.061	1283.654	959.839
135.497	13.158	1282.907	959.762
136.512	13.086	1281.607	958.286
137.527	13.114	1279.970	957.142
138.541	13.249	1278.367	956.638
139.556	13.084	1277.936	955.276
140.570	13.223	1276.351	954.809
141.585	13.273	1275.084	954.067
142.600	13.271	1273.758	952.980
143.614	13.349	1272.827	952.647
144.629	13.386	1271.873	952.064
145.643	13.260	1270.818	950.464
146.658	13.302	1269.452	949.597
147.673	13.226	1268.113	948.079
148.687	13.304	1266.938	947.559
149.702	13.282	1265.485	946.267
150.716	13.281	1263.786	944.904
151.731	13.329	1263.019	944.521
152.746	13.343	1261.927	943.700
153.760	13.185	1260.980	942.009
154.775	13.454	1259.120	942.068
155.789	13.334	1258.403	940.767
156.804	13.438	1257.115	940.312
157.819	13.370	1256.333	939.256
158.833	13.446	1255.682	939.118
159.848	13.548	1254.189	938.493
160.862	13.408	1253.182	936.869
161.877	13.448	1251.892	936.045
162.892	13.367	1250.856	934.732
163.906	13.251	1250.496	933.723
164.921	13.349	1249.395	933.371
165.935	13.465	1248.050	932.941
166.950	13.538	1247.336	932.731
167.964	13.560	1246.581	932.212
168.979	13.493	1245.852	931.204
169.994	13.497	1245.019	930.524
171.008	13.436	1244.731	929.883
172.023	13.456	1243.769	929.194
173.037	13.507	1243.057	928.868
174.052	13.601	1241.442	928.102
175.067	13.508	1241.011	927.181
176.081	13.479	1239.728	925.975
177.096	13.531	1238.816	925.506
178.110	13.547	1237.972	924.881
179.125	13.473	1236.630	923.383
180.140	13.539	1235.532	922.849
181.154	13.608	1234.089	922.073
182.169	13.717	1232.859	921.677
183.183	13.694	1231.924	920.771
184.198	13.662	1230.871	919.722
185.213	13.757	1229.664	919.271
186.227	13.716	1228.322	917.954
187.242	13.667	1227.824	917.232
188.256	13.724	1226.619	916.567
189.271	13.757	1225.396	915.752
190.286	13.639	1224.411	914.286
191.300	13.578	1223.939	913.513
192.315	13.619	1222.714	912.749
193.329	13.672	1222.122	912.517
194.344	13.692	1221.601	912.156
195.359	13.734	1220.854	911.750
196.373	13.743	1220.832	911.702
197.388	13.706	1220.177	910.926
198.402	13.888	1220.021	911.730
199.417	13.895	1218.804	910.780
200.432	13.880	1218.047	910.050
201.446	13.945	1216.924	909.486
202.461	14.047	1216.213	909.430
203.475	13.981	1215.173	908.215
204.490	13.957	1214.134	907.224
205.504	13.946	1213.154	906.351
206.519	14.048	1211.474	905.573
207.534	13.922	1210.699	904.225
208.548	13.884	1209.628	903.140
209.563	13.966	1209.195	903.185
210.577	14.024	1207.913	902.463
211.592	14.017	1207.013	901.668
212.607	14.085	1206.370	901.479
213.621	14.018	1205.642	900.495
214.636	14.081	1204.164	899.649
215.650	14.120	1203.208	899.069
216.665	14.124	1202.175	898.236
217.680	14.010	1201.951	897.375
218.694	14.178	1200.919	897.431
219.709	14.188	1200.098	896.792
220.723	14.153	1199.231	895.877
221.738	14.168	1198.725	895.497
222.753	14.197	1197.559	894.705
223.767	14.206	1197.036	894.282
224.782	14.233	1196.528	893.968
225.796	14.265	1195.990	893.660
226.811	14.304	1195.136	893.152
227.826	14.315	1194.360	892.550
228.840	14.275	1193.550	891.654
229.855	14.293	1192.807	891.117
230.869	14.355	1192.078	890.827
231.884	14.337	1191.022	889.861
232.899	14.272	1190.238	888.851
233.913	14.199	1189.631	887.928
234.928	14.238	1188.765	887.413
235.942	14.256	1188.227	887.025
236.957	14.272	1187.510	886.500
237.972	14.276	1186.554	885.726
238.986	14.318	1185.969	885.438
240.001	14.280	1185.461	884.775
241.015	14.371	1184.170	884.218
242.030	14.258	1183.854	883.304
243.045	14.391	1182.691	883.065
244.059	14.405	1182.270	882.746
245.074	14.510	1180.777	882.109
246.088	14.511	1180.235	881.628
247.103	14.487	1179.356	880.769
248.117	14.505	1178.843	880.402
249.132	14.617	1178.173	880.416
250.147	14.656	1177.569	880.092
251.161	14.612	1176.715	879.140
252.176	14.641	1175.965	878.655
253.190	14.660	1175.381	878.241
254.205	14.763	1174.708	878.204
255.220	14.709	1174.352	877.575
256.234	14.729	1173.341	876.850
257.249	14.874	1172.644	877.011
258.263	14.824	1171.903	876.118
259.278	14.848	1171.009	875.495
260.293	14.812	1170.814	875.085
261.307	14.920	1170.068	875.012
262.322	14.837	1169.640	874.182
263.336	14.985	1168.460	873.996
264.351	14.932	1168.261	873.492
265.366	15.067	1167.442	873.508
266.380	14.940	1166.794	872.285
267.395	15.030	1165.920	872.024
268.409	14.979	1164.896	870.917
269.424	15.017	1164.654	870.852
270.439	14.943	1164.140	870.009
271.453	14.949	1163.171	869.240
272.468	14.971	1162.158	868.516
273.482	15.083	1161.515	868.542
274.497	15.033	1161.117	867.905
275.512	15.034	1160.393	867.294
276.526	15.010	1159.782	866.638
277.541	15.089	1158.619	866.098
278.555	15.029	1157.968	865.228
279.570	15.055	1157.269	864.760
280.585	15.163	1156.062	864.339
281.599	15.154	1155.751	863.986
282.614	15.202	1154.480	863.206
283.628	15.224	1153.150	862.251
284.643	15.259	1152.603	861.942
285.657	15.192	1151.844	860.955
286.672	15.152	1150.990	860.038
287.687	15.230	1149.858	859.513
288.701	15.261	1149.213	859.114
289.716	15.303	1147.858	858.241
290.730	15.302	1147.862	858.162
291.745	15.309	1146.757	857.295
292.760	15.382	1146.020	857.043
293.774	15.329	1145.400	856.231
294.789	15.393	1145.089	856.249
295.803	15.265	1144.554	855.120
296.818	15.281	1144.297	854.937
297.833	15.372	1142.576	854.040
298.847	15.438	1141.924	853.808
299.862	15.516	1140.889	853.357
300.876	15.453	1140.295	852.518
301.891	15.505	1139.705	852.267
302.906	15.555	1138.765	851.742
303.920	15.501	1138.249	851.005
304.935	15.498	1138.016	850.738
305.949	15.591	1137.157	850.492
306.964	15.534	1136.798	849.862
307.979	15.531	1135.750	848.987
308.993	15.568	1135.341	848.794
310.008	15.656	1134.301	848.386
311.022	15.646	1133.158	847.404
312.037	15.662	1132.436	846.871
313.052	15.618	1131.621	845.965
314.066	15.702	1130.451	845.438
315.081	15.625	1130.197	844.787
316.095	15.620	1129.122	843.881
317.110	15.693	1128.461	843.680
318.125	15.736	1127.762	843.301
319.139	15.662	1126.807	842.138
320.154	15.649	1126.345	841.652
321.168	15.640	1125.876	841.187
322.183	15.655	1125.056	840.573
323.197	15.602	1124.622	839.908
324.212	15.672	1124.081	839.780
325.227	15.721	1123.584	839.581
326.241	15.734	1122.526	838.776
327.256	15.804	1121.607	838.369
328.270	15.772	1120.648	837.415
329.285	15.764	1119.704	836.599
330.300	15.737	1118.975	835.843
331.314	15.701	1118.297	835.085
332.329	15.803	1116.869	834.450
333.343	15.790	1116.558	834.082
334.358	15.748	1115.924	833.326
335.373	15.962	1114.290	833.089
336.387	15.912	1113.857	832.446
337.402	15.942	1113.233	832.051
338.416	15.849	1112.936	831.297
339.431	16.017	1111.757	831.175
340.446	15.993	1111.477	830.769
341.460	16.096	1110.406	830.405
342.475	16.075	1109.762	829.747
343.489	16.073	1108.836	828.969
344.504	16.019	1108.006	828.013
345.519	16.177	1106.660	827.707
346.533	16.298	1105.867	827.634
347.548	16.192	1105.480	826.750
348.562	16.207	1104.895	826.316
349.577	16.094	1104.146	825.128
350.592	16.157	1103.369	824.783
351.606	16.232	1101.981	824.038
352.621	16.170	1101.716	823.467
353.635	16.159	1101.275	823.010
354.650	16.093	1100.722	822.202
355.665	16.104	1099.669	821.396
356.679	16.289	1098.839	821.602
357.694	16.156	1098.446	820.589
358.708	16.159	1097.547	819.860
359.723	16.273	1097.095	820.005
360.738	16.202	1096.622	819.235
361.752	16.245	1096.149	819.015
362.767	16.281	1095.321	818.499
363.781	16.320	1094.390	817.919
364.796	16.301	1094.291	817.679
365.810	16.370	1093.614	817.440
366.825	16.447	1092.749	817.093
367.840	16.527	1092.090	816.910
368.854	16.490	1092.052	816.631
369.869	16.404	1091.564	815.782
370.883	16.473	1089.913	814.808
371.898	16.455	1089.571	814.393
372.913	16.450	1088.730	813.670
373.927	16.487	1088.674	813.730
374.942	16.560	1087.866	813.405
375.956	16.636	1087.036	813.081
376.971	16.487	1086.823	812.130
377.986	16.616	1086.511	812.448
379.000	16.683	1085.330	811.812
380.015	16.621	1085.054	811.239
381.029	16.645	1084.099	810.567
382.044	16.690	1083.488	810.255
383.059	16.698	1082.713	809.641
384.073	16.757	1081.892	809.239
385.088	16.715	1081.184	808.436
386.102	16.791	1080.145	807.948
387.117	16.757	1078.746	806.670
388.132	16.665	1078.504	805.979
389.146	16.699	1077.478	805.304
390.161	16.822	1076.592	805.155
391.175	16.652	1076.133	803.932
392.190	16.723	1075.200	803.500
393.205	16.858	1074.461	803.515
394.219	16.789	1074.108	802.856
395.234	16.836	1073.138	802.279
396.248	16.888	1072.064	801.652
397.263	16.846	1070.964	800.561
398.278	16.825	1070.553	800.086
399.292	16.725	1069.633	798.855
400.307	16.849	1068.716	798.684
401.321	16.804	1068.361	798.133
402.336	16.881	1067.318	797.646
403.350	17.033	1066.583	797.745
404.365	16.996	1066.145	797.171
405.380	16.956	1065.035	796.081
406.394	16.900	1064.462	795.322
407.409	16.986	1064.140	795.411
408.423	17.128	1063.159	795.275
409.438	16.982	1062.504	794.029
410.453	16.976	1062.237	793.732
411.467	17.014	1061.319	793.155
412.482	17.082	1060.197	792.564
413.496	17.260	1059.597	792.876
414.511	17.163	1059.156	792.024
415.526	17.166	1058.893	791.771
416.540	17.260	1058.259	791.662
417.555	17.136	1057.883	790.733
418.569	17.243	1057.217	790.665
419.584	17.246	1056.839	790.326
420.599	17.227	1056.455	789.881
421.613	106.385	1329.722	1485.167
422.628	98.064	1369.480	1485.267
