DTS Sentinel unit serial number:	SN413079Multiplexer serial number:	ORYXHardware model number:	OX4-SRSoftware version number:	ORYX F/W v4.00 Oryx Data Collector v3.7.2.0data status	okinstallation	princeton_trtdifferential loss correction	single-endedforward channel	channel 2reverse channel	N/Adate	2019/09/16time	14:39:35forward acquisition time	60.00reverse acquisition time	0.00gamma	496.2192k internal	0.2298k external	0.2298temperature offset calibration	0.9939default loss term (dB/km)	0.3790temperature slope calibration	1.0000multiplexer offset coefficient	1.0000multiplexer slope coefficient	1.0000fibre end	0.00T internal ref (°C)	41.69T ext. ref 1 (°C)	14.32T ext. ref 2 (°C)	36.08length (m)	temperature (°C)	Stokes	anti-Stokes-747.200	-200.000	0.014	-0.234
-746.185	38.250	-0.122	0.111
-745.171	-200.000	0.012	0.433
-744.156	-138.781	-0.172	0.019
-743.142	337.183	0.102	0.203
-742.127	137.090	-0.262	0.350
-741.112	-33.229	0.327	-0.185
-740.098	-77.218	0.167	-0.059
-739.083	-200.000	0.031	0.410
-738.069	302.325	-0.186	0.351
-737.054	-200.000	-0.093	-0.603
-736.039	-190.998	0.203	0.002
-735.025	-200.000	0.036	0.231
-734.010	253.809	-0.118	0.205
-732.996	-108.244	-0.340	0.075
-731.981	81.187	-0.106	0.117
-730.966	82.768	0.122	0.135
-729.952	35.210	0.040	-0.035
-728.937	800.000	-0.066	-0.200
-727.923	-94.830	-0.341	0.094
-726.908	-116.166	-0.372	-0.070
-725.894	-74.205	-0.275	-0.101
-724.879	-200.000	0.038	-0.176
-723.864	-21.696	0.093	0.058
-722.850	-89.002	0.254	0.077
-721.835	280.500	0.051	-0.092
-720.821	800.000	0.068	-0.218
-719.806	-162.539	-0.267	0.013
-718.791	-200.000	-0.075	0.504
-717.777	166.348	0.307	0.444
-716.762	-76.550	0.124	0.044
-715.748	-16.060	0.324	0.210
-714.733	800.000	0.074	0.327
-713.718	289.584	-0.104	-0.193
-712.704	-127.098	-0.357	-0.053
-711.689	-101.312	0.100	-0.025
-710.675	800.000	-0.022	-0.086
-709.660	-25.671	0.130	0.078
-708.645	-18.719	-0.250	0.159
-707.631	3.122	-0.125	-0.093
-706.616	147.574	0.071	-0.097
-705.602	800.000	-0.129	-0.403
-704.587	-200.000	0.031	0.172
-703.572	-154.932	-0.182	-0.012
-702.558	-107.685	-0.309	-0.069
-701.543	45.683	0.323	-0.304
-700.529	800.000	0.040	-0.130
-699.514	30.668	0.261	0.228
-698.499	338.541	-0.151	-0.299
-697.485	-200.000	-0.057	0.270
-696.470	85.762	-0.261	0.293
-695.456	78.709	0.201	-0.219
-694.441	-171.092	-0.237	-0.008
-693.426	800.000	0.091	-0.314
-692.412	719.314	0.174	0.470
-691.397	-97.302	-0.105	-0.028
-690.383	-200.000	0.010	-0.145
-689.368	109.172	0.071	0.087
-688.354	42.570	0.207	-0.192
-687.339	145.596	0.156	0.212
-686.324	-200.000	-0.007	0.030
-685.310	-125.861	-0.121	0.019
-684.295	74.650	-0.254	0.272
-683.281	11.337	-0.115	0.090
-682.266	-101.609	-0.197	-0.049
-681.251	-21.682	0.114	0.071
-680.237	-200.000	0.020	0.159
-679.222	39.318	-0.131	0.119
-678.208	20.573	-0.353	-0.290
-677.193	-200.000	0.003	0.348
-676.178	-200.000	-0.000	-0.003
-675.164	65.558	0.028	-0.028
-674.149	-67.542	-0.267	-0.107
-673.135	20.071	0.135	-0.111
-672.120	109.084	-0.225	0.274
-671.105	186.464	0.106	0.161
-670.091	-19.646	-0.220	0.138
-669.076	508.406	-0.107	0.252
-668.062	-66.726	-0.232	-0.094
-667.047	-83.058	-0.073	-0.024
-666.032	-200.000	-0.003	0.533
-665.018	-200.000	-0.012	-0.121
-664.003	-113.029	0.070	-0.014
-662.989	312.204	-0.083	-0.159
-661.974	195.841	0.105	-0.163
-660.959	-81.923	-0.402	0.134
-659.945	23.819	-0.177	-0.149
-658.930	-22.504	-0.139	0.085
-657.916	-83.249	0.130	-0.042
-656.901	800.000	0.005	-0.020
-655.886	-57.399	0.135	0.060
-654.872	800.000	-0.079	-0.334
-653.857	-120.328	0.210	-0.036
-652.843	235.339	0.200	-0.335
-651.828	13.726	0.183	0.145
-650.814	-75.209	0.374	0.136
-649.799	384.366	-0.169	-0.354
-648.784	96.334	0.306	-0.356
-647.770	800.000	0.108	-0.330
-646.755	153.670	0.195	-0.272
-645.741	-200.000	-0.038	-0.320
-644.726	130.782	-0.118	0.154
-643.711	-63.816	0.074	0.031
-642.697	288.401	-0.086	-0.159
-641.682	649.593	-0.053	0.137
-640.668	-60.130	-0.297	-0.129
-639.653	-79.966	-0.243	0.083
-638.638	-200.000	-0.036	0.200
-637.624	137.052	0.152	-0.202
-636.609	-200.000	0.041	-0.273
-635.595	-200.000	-0.060	0.322
-634.580	122.309	0.280	-0.355
-633.565	-200.000	-0.003	-0.049
-632.551	504.030	0.157	0.369
-631.536	26.911	-0.104	0.088
-630.522	-126.834	-0.326	0.049
-629.507	-7.928	-0.180	0.124
-628.492	-200.000	-0.012	0.079
-627.478	-157.232	0.249	-0.015
-626.463	-1.554	0.112	-0.080
-625.449	203.125	0.066	0.103
-624.434	-107.650	0.231	0.051
-623.419	-138.199	0.360	0.041
-622.405	-131.592	0.422	-0.056
-621.390	-47.433	0.180	-0.089
-620.376	-113.823	0.138	0.027
-619.361	-200.000	-0.007	-0.154
-618.346	391.236	0.114	0.241
-617.332	-200.000	-0.006	0.134
-616.317	20.991	-0.118	-0.097
-615.303	-124.189	0.169	0.027
-614.288	-200.000	0.029	-0.254
-613.273	154.824	0.063	-0.089
-612.259	-200.000	-0.035	0.176
-611.244	-130.073	-0.037	0.005
-610.230	-189.000	-0.189	0.002
-609.215	285.539	-0.155	0.283
-608.201	-40.247	0.217	0.115
-607.186	89.433	0.307	0.347
-606.171	-26.049	-0.155	0.093
-605.157	-200.000	0.025	0.133
-604.142	135.835	-0.159	-0.210
-603.128	283.720	-0.126	-0.231
-602.113	314.828	-0.174	0.333
-601.098	-140.353	-0.135	-0.014
-600.084	-52.780	-0.151	0.071
-599.069	-200.000	-0.027	0.135
-598.055	-200.000	0.009	0.355
-597.040	-200.000	-0.001	-0.498
-596.025	800.000	0.104	-0.420
-595.011	-200.000	0.042	-0.193
-593.996	569.290	-0.073	-0.181
-592.982	325.638	-0.117	-0.228
-591.967	800.000	-0.072	0.264
-590.952	-200.000	-0.013	-0.067
-589.938	66.860	-0.031	-0.033
-588.923	182.773	-0.145	-0.217
-587.909	-200.000	0.000	-0.318
-586.894	30.297	0.070	-0.060
-585.879	-134.712	-0.088	0.011
-584.865	-200.000	0.010	-0.197
-583.850	-200.000	-0.077	-0.406
-582.836	72.948	0.096	0.102
-581.821	203.069	-0.152	0.239
-580.806	204.390	-0.023	-0.035
-579.792	-200.000	0.014	-0.079
-578.777	-140.933	-0.274	-0.029
-577.763	-116.648	0.162	-0.030
-576.748	14.777	-0.326	-0.259
-575.733	56.277	0.369	-0.364
-574.719	-200.000	-0.021	-0.106
-573.704	-137.343	-0.235	-0.027
-572.690	-20.302	-0.156	0.097
-571.675	-56.812	0.134	0.060
-570.661	29.829	-0.161	-0.139
-569.646	43.782	-0.174	-0.161
-568.631	-63.440	0.063	-0.026
-567.617	-79.694	-0.182	-0.062
-566.602	-200.000	0.049	-0.392
-565.588	-119.526	0.081	-0.014
-564.573	-200.000	-0.054	-0.337
-563.558	493.344	0.135	-0.315
-562.544	-42.063	-0.194	0.101
-561.529	-200.000	0.035	-0.342
-560.515	-77.112	-0.039	-0.014
-559.500	-117.976	-0.149	-0.027
-558.485	-65.237	0.274	0.112
-557.471	-200.000	-0.043	-0.244
-556.456	-55.422	-0.209	0.095
-555.442	800.000	-0.035	-0.119
-554.427	54.322	-0.168	0.164
-553.412	-159.212	-0.142	0.008
-552.398	-130.924	-0.402	0.055
-551.383	98.509	-0.243	-0.284
-550.369	-151.003	-0.129	0.010
-549.354	-17.190	0.187	-0.119
-548.339	-147.452	-0.333	0.029
-547.325	4.843	-0.224	0.167
-546.310	35.790	-0.116	0.103
-545.296	2.051	-0.289	-0.212
-544.281	-45.680	0.194	-0.097
-543.266	-72.680	-0.130	-0.049
-542.252	-200.000	0.010	-0.191
-541.237	142.037	0.013	-0.017
-540.223	-69.847	-0.119	-0.046
-539.208	800.000	-0.135	-0.390
-538.193	-55.154	0.032	0.015
-537.179	-98.271	0.202	-0.052
-536.164	362.975	-0.089	0.180
-535.150	800.000	-0.057	0.240
-534.135	-118.097	0.194	-0.035
-533.121	-16.902	0.330	-0.211
-532.106	151.886	-0.117	0.161
-531.091	-124.587	0.235	0.037
-530.077	800.000	-0.056	-0.184
-529.062	-200.000	0.021	-0.284
-528.048	30.900	-0.311	0.270
-527.033	-17.565	0.168	0.107
-526.018	-108.463	-0.205	0.045
-525.004	535.007	-0.068	-0.162
-523.989	-68.927	-0.072	0.028
-522.975	228.118	-0.107	0.176
-521.960	36.495	0.251	-0.224
-520.945	186.018	-0.267	0.402
-519.931	-57.441	-0.057	-0.025
-518.916	-65.078	-0.208	0.085
-517.902	-50.125	-0.142	0.068
-516.887	-41.750	0.341	-0.177
-515.872	-117.057	-0.288	-0.053
-514.858	-144.312	-0.234	-0.022
-513.843	58.712	0.137	-0.136
-512.829	-200.000	-0.018	0.106
-511.814	337.681	-0.069	-0.135
-510.799	-156.803	0.182	-0.011
-509.785	-76.149	-0.325	0.116
-508.770	-90.142	0.211	0.062
-507.756	-25.359	-0.199	-0.119
-506.741	-89.752	-0.081	-0.024
-505.726	-99.864	0.139	0.035
-504.712	-200.000	0.090	0.454
-503.697	-146.206	-0.236	-0.021
-502.683	-6.374	-0.255	-0.176
-501.668	129.989	0.099	-0.128
-500.653	-1.336	-0.119	0.085
-499.639	-200.000	-0.001	0.084
-498.624	105.785	-0.294	-0.352
-497.610	-79.649	0.143	0.049
-496.595	-36.394	-0.154	0.084
-495.581	-200.000	-0.011	0.222
-494.566	-200.000	-0.019	0.215
-493.551	797.423	-0.034	-0.093
-492.537	-130.365	-0.135	-0.018
-491.522	65.187	0.033	0.034
-490.508	18.448	0.225	0.181
-489.493	4.618	-0.148	-0.110
-488.478	23.049	-0.177	0.147
-487.464	2.057	-0.235	0.172
-486.449	36.586	0.124	0.111
-485.435	164.496	0.045	-0.065
-484.420	156.296	-0.167	0.232
-483.405	44.292	-0.022	-0.021
-482.391	-82.788	-0.194	-0.064
-481.376	3.917	0.119	0.088
-480.362	800.000	0.080	0.241
-479.347	800.000	0.044	0.191
-478.332	-130.051	-0.433	-0.060
-477.318	52.386	-0.060	0.058
-476.303	-200.000	0.003	-0.183
-475.289	-145.292	-0.212	0.019
-474.274	593.615	-0.148	0.371
-473.259	800.000	-0.053	-0.149
-472.245	13.292	0.189	0.148
-471.230	109.156	-0.161	0.194
-470.216	-19.308	0.275	-0.172
-469.201	247.830	0.081	-0.138
-468.186	37.413	-0.274	-0.245
-467.172	11.157	0.184	0.142
-466.157	-200.000	-0.066	0.359
-465.143	8.976	-0.266	-0.203
-464.128	268.428	0.197	-0.349
-463.113	-200.000	-0.007	0.068
-462.099	-200.000	-0.003	0.275
-461.084	-57.977	0.188	-0.083
-460.070	-200.000	0.006	0.145
-459.055	133.782	0.109	-0.143
-458.040	-200.000	-0.026	0.249
-457.026	-92.048	0.243	0.069
-456.011	49.923	-0.170	-0.162
-454.997	800.000	0.092	-0.278
-453.982	-33.347	0.293	-0.163
-452.968	261.278	-0.222	0.388
-451.953	-171.095	-0.188	-0.006
-450.938	-21.170	0.256	0.158
-449.924	321.920	0.122	-0.234
-448.909	800.000	-0.018	0.057
-447.895	-135.148	0.230	-0.028
-446.880	220.992	0.020	-0.033
-445.865	-80.334	-0.227	-0.076
-444.851	-13.674	0.113	-0.074
-443.836	-120.094	0.100	0.017
-442.822	-126.357	0.192	-0.029
-441.807	432.151	0.095	0.208
-440.792	23.335	-0.173	-0.144
-439.778	-97.948	-0.185	-0.048
-438.763	-200.000	-0.087	0.397
-437.749	-49.004	-0.256	-0.124
-436.734	-59.822	0.130	-0.056
-435.719	-98.889	-0.078	-0.020
-434.705	-200.000	-0.004	-0.072
-433.690	-55.300	-0.092	-0.042
-432.676	-200.000	-0.058	-0.410
-431.661	308.924	0.139	-0.263
-430.646	-200.000	-0.001	0.085
-429.632	204.913	0.084	0.132
-428.617	800.000	-0.052	0.146
-427.603	-200.000	-0.059	0.330
-426.588	-200.000	0.037	0.226
-425.573	27.558	0.223	-0.189
-424.559	-130.254	0.062	0.009
-423.544	-200.000	0.022	0.199
-422.530	-59.086	0.573	-0.249
-421.515	329.646	-0.104	-0.201
-420.500	-200.000	0.022	-0.318
-419.486	74.957	0.241	-0.256
-418.471	776.025	0.052	0.143
-417.457	-38.520	-0.378	0.202
-416.442	33.527	0.082	-0.072
-415.428	800.000	-0.071	0.221
-414.413	-16.606	0.305	-0.195
-413.398	161.480	-0.189	-0.266
-412.384	-191.764	-0.198	-0.002
-411.369	78.223	0.293	-0.315
-410.355	-200.000	-0.041	0.251
-409.340	299.208	-0.111	-0.206
-408.325	75.661	-0.278	-0.296
-407.311	-37.295	-0.029	0.015
-406.296	-200.000	-0.033	-0.302
-405.282	800.000	0.059	-0.228
-404.267	-200.000	0.036	0.165
-403.252	91.616	-0.103	-0.117
-402.238	-22.165	-0.184	-0.113
-401.223	28.351	-0.224	0.191
-400.209	-200.000	0.005	0.099
-399.194	-83.568	-0.118	0.038
-398.179	-56.513	0.249	-0.111
-397.165	-78.541	-0.111	0.038
-396.150	-41.188	-0.183	-0.095
-395.136	-29.697	0.332	0.191
-394.121	143.277	-0.137	0.184
-393.106	627.880	-0.099	-0.253
-392.092	-67.639	0.418	-0.165
-391.077	73.990	-0.095	-0.100
-390.063	-11.665	0.280	0.185
-389.048	-7.275	0.070	0.048
-388.033	109.767	0.200	0.242
-387.019	76.905	0.075	-0.080
-386.004	434.845	0.110	-0.242
-384.990	800.000	0.098	-0.301
-383.975	-102.556	0.231	-0.056
-382.960	46.272	-0.161	0.150
-381.946	194.892	-0.131	-0.200
-380.931	81.723	-0.159	-0.173
-379.917	15.401	-0.086	0.068
-378.902	76.646	0.138	0.147
-377.888	58.647	-0.255	-0.252
-376.873	-200.000	0.039	-0.305
-375.858	119.158	0.216	0.268
-374.844	96.101	-0.093	-0.107
-373.829	13.409	0.221	-0.173
-372.815	759.036	-0.038	-0.103
-371.800	-24.299	-0.113	0.068
-370.785	800.000	-0.104	0.391
-369.771	522.153	-0.172	0.406
-368.756	-127.864	0.118	-0.017
-367.742	-71.305	0.048	-0.018
-366.727	46.135	0.022	0.020
-365.712	24.863	0.070	-0.058
-364.698	-26.958	-0.185	-0.108
-363.683	-104.602	-0.196	-0.046
-362.669	324.431	-0.053	0.101
-361.654	154.672	0.240	0.332
-360.639	582.609	0.104	0.257
-359.625	438.000	0.092	0.202
-358.610	-74.130	-0.131	0.048
-357.596	-93.488	-0.176	-0.049
-356.581	505.662	0.045	0.104
-355.566	800.000	-0.022	-0.078
-354.552	-200.000	0.097	0.489
-353.537	-200.000	-0.028	0.248
-352.523	-102.415	0.252	-0.061
-351.508	-200.000	-0.050	0.506
-350.493	-108.084	-0.097	-0.021
-349.479	-117.542	0.213	0.039
-348.464	275.034	0.246	-0.438
-347.450	90.259	0.059	0.067
-346.435	61.237	-0.202	0.202
-345.420	-98.493	0.321	0.082
-344.406	-23.321	-0.021	-0.013
-343.391	-101.066	0.355	0.087
-342.377	28.924	-0.414	0.353
-341.362	-102.341	0.125	0.030
-340.348	-200.000	-0.001	-0.214
-339.333	132.816	0.124	0.161
-338.318	-18.002	0.366	0.230
-337.304	-200.000	-0.053	-0.280
-336.289	-200.000	0.037	-0.607
-335.275	800.000	0.035	0.143
-334.260	296.694	0.085	0.156
-333.245	-16.509	0.264	0.168
-332.231	-200.000	0.009	0.540
-331.216	-34.470	-0.150	-0.083
-330.202	95.351	-0.129	0.148
-329.187	349.040	0.020	-0.041
-328.172	-200.000	0.003	0.178
-327.158	-69.690	-0.457	0.175
-326.143	-30.928	-0.316	-0.179
-325.129	-147.086	-0.227	-0.019
-324.114	143.334	0.202	-0.270
-323.099	-146.769	0.309	0.027
-322.085	-58.287	0.220	-0.096
-321.070	-200.000	-0.015	-0.264
-320.056	27.322	0.097	-0.082
-319.041	-85.703	0.185	-0.058
-318.026	800.000	-0.079	-0.234
-317.012	97.619	-0.101	0.116
-315.997	107.810	0.051	-0.060
-314.983	277.481	0.079	0.141
-313.968	-62.247	-0.207	0.087
-312.953	-109.149	0.259	-0.055
-311.939	-26.391	-0.215	-0.127
-310.924	-19.994	0.170	0.106
-309.910	800.000	-0.115	0.328
-308.895	-113.119	-0.215	0.043
-307.880	-183.174	0.288	-0.005
-306.866	25.008	-0.109	-0.091
-305.851	-200.000	0.039	-0.334
-304.837	-20.392	0.078	-0.048
-303.822	-140.934	-0.117	0.012
-302.807	202.229	-0.103	-0.160
-301.793	691.908	0.113	0.298
-300.778	-25.207	-0.150	-0.089
-299.764	-199.344	0.264	-0.001
-298.749	800.000	-0.037	-0.130
-297.735	-12.413	0.166	0.109
-296.720	-200.000	0.013	-0.090
-295.705	52.192	0.089	-0.085
-294.691	567.892	-0.094	0.229
-293.676	-35.116	0.172	-0.094
-292.662	800.000	0.034	0.144
-291.647	47.671	0.086	-0.081
-290.632	800.000	-0.101	-0.348
-289.618	53.295	-0.206	-0.198
-288.603	800.000	-0.060	-0.177
-287.589	60.815	0.084	0.083
-286.574	800.000	0.030	0.129
-285.559	310.054	0.122	-0.230
-284.545	-3.776	0.163	-0.114
-283.530	-182.487	0.407	0.007
-282.516	-19.553	0.163	-0.101
-281.501	-114.514	-0.315	-0.061
-280.486	800.000	-0.093	-0.403
-279.472	-200.000	-0.044	-0.243
-278.457	-27.773	-0.271	0.158
-277.443	-132.870	-0.109	0.014
-276.428	277.234	-0.040	-0.072
-275.413	-126.902	-0.158	-0.023
-274.399	127.467	0.088	-0.112
-273.384	293.256	-0.114	0.208
-272.370	29.697	0.227	0.194
-271.355	41.718	0.036	0.032
-270.340	-200.000	0.031	-0.315
-269.326	-43.640	-0.176	0.089
-268.311	-121.834	-0.232	-0.038
-267.297	-169.733	-0.264	-0.010
-266.282	-67.767	-0.192	-0.075
-265.267	800.000	0.074	-0.302
-264.253	-56.118	0.351	0.157
-263.238	145.216	0.262	0.352
-262.224	90.548	-0.195	0.219
-261.209	-22.117	0.135	0.082
-260.195	-200.000	-0.022	0.253
-259.180	271.702	0.047	-0.084
-258.165	192.736	0.109	-0.164
-257.151	379.739	-0.103	-0.212
-256.136	42.630	0.213	-0.194
-255.122	-200.000	0.017	0.332
-254.107	1.106	0.180	0.129
-253.092	185.271	-0.122	0.181
-252.078	24.883	0.113	0.094
-251.063	120.584	0.146	0.181
-250.049	92.140	-0.176	-0.199
-249.034	49.783	-0.095	-0.090
-248.019	-131.375	0.319	0.042
-247.005	-132.582	-0.312	-0.040
-245.990	-64.341	0.145	0.059
-244.976	-165.816	-0.063	-0.003
-243.961	-69.618	-0.089	0.034
-242.946	9.070	-0.039	0.029
-241.932	800.000	0.040	0.114
-240.917	-200.000	0.020	0.132
-239.903	19.350	-0.206	-0.166
-238.888	336.943	0.158	0.306
-237.873	-200.000	0.014	0.175
-236.859	123.693	0.131	-0.164
-235.844	-35.692	-0.340	-0.184
-234.830	-87.059	-0.143	0.044
-233.815	-200.000	0.060	0.406
-232.800	-50.130	-0.180	-0.085
-231.786	-71.127	-0.265	-0.100
-230.771	211.129	0.121	-0.191
-229.757	116.890	-0.221	-0.272
-228.742	110.381	-0.114	0.137
-227.727	800.000	-0.071	0.257
-226.713	-85.445	-0.232	0.072
-225.698	800.000	0.032	0.110
-224.684	-27.237	0.191	0.111
-223.669	-151.260	0.133	-0.010
-222.655	-200.000	0.003	-0.137
-221.640	800.000	-0.017	-0.062
-220.625	431.332	0.234	0.506
-219.611	-80.246	0.197	0.066
-218.596	-135.520	0.208	-0.025
-217.582	-131.487	-0.123	-0.016
-216.567	-108.344	0.179	-0.039
-215.552	-29.879	0.077	0.044
-214.538	124.052	0.175	0.219
-213.523	334.157	-0.142	0.274
-212.509	47.738	0.149	0.139
-211.494	800.000	0.016	-0.043
-210.479	-9.759	0.232	0.155
-209.465	-166.410	0.254	0.011
-208.450	2.498	0.095	-0.069
-207.436	-71.676	-0.181	0.068
-206.421	9.332	-0.187	0.142
-205.406	800.000	-0.046	0.182
-204.392	-157.214	-0.124	0.007
-203.377	-106.805	0.322	0.071
-202.363	-72.597	-0.238	0.088
-201.348	7.000	-0.048	-0.035
-200.333	-200.000	0.045	0.345
-199.319	135.219	-0.285	-0.371
-198.304	93.167	-0.239	-0.271
-197.290	204.241	0.146	-0.227
-196.275	26.178	-0.260	-0.217
-195.260	108.490	-0.101	-0.120
-194.246	80.432	0.169	0.182
-193.231	800.000	-0.005	0.014
-192.217	-124.893	0.275	0.042
-191.202	-200.000	-0.028	-0.200
-190.187	92.643	0.235	0.265
-189.173	-48.598	0.103	0.050
-188.158	-103.524	0.237	-0.056
-187.144	64.228	0.128	0.128
-186.129	-112.604	0.286	-0.057
-185.114	-137.506	-0.232	0.026
-184.100	-121.165	0.226	-0.038
-183.085	-4.248	-0.131	-0.091
-182.071	-72.966	0.114	-0.042
-181.056	-86.261	-0.106	-0.033
-180.042	-114.133	-0.243	-0.047
-179.027	657.155	0.058	0.148
-178.012	-154.561	0.281	-0.019
-176.998	-62.608	0.215	0.089
-175.983	-31.638	0.108	-0.060
-174.969	97.233	0.092	-0.105
-173.954	-18.418	0.071	-0.045
-172.939	-200.000	-0.012	0.363
-171.925	-122.789	-0.064	0.010
-170.910	15.748	0.170	0.133
-169.896	525.089	-0.122	0.286
-168.881	36.165	0.099	-0.087
-167.866	-127.626	0.119	0.017
-166.852	184.906	0.175	0.259
-165.837	-79.320	0.261	0.088
-164.823	-62.881	-0.185	0.077
-163.808	-163.427	-0.285	-0.014
-162.793	-75.584	0.205	0.073
-161.779	-25.033	-0.252	0.149
-160.764	196.413	-0.205	0.311
-159.750	22.890	0.060	0.049
-158.735	1.714	-0.128	0.092
-157.720	27.548	0.113	0.095
-156.706	-76.796	0.413	0.144
-155.691	-200.000	-0.052	0.331
-154.677	-200.000	0.049	0.431
-153.662	41.661	0.313	0.283
-152.647	357.895	0.142	-0.282
-151.633	-67.557	0.089	0.035
-150.618	-173.843	-0.320	0.009
-149.604	-111.947	-0.304	-0.061
-148.589	-114.281	0.431	0.083
-147.574	800.000	-0.072	0.277
-146.560	800.000	0.012	-0.052
-145.545	-55.624	-0.081	0.036
-144.531	-39.784	-0.183	0.095
-143.516	800.000	0.106	-0.311
-142.502	-103.030	0.185	-0.044
-141.487	37.974	-0.336	-0.298
-140.472	240.154	-0.091	-0.151
-139.458	-200.000	-0.008	-0.096
-138.443	-200.000	0.004	-0.108
-137.429	-27.422	-0.131	-0.076
-136.414	-143.089	0.031	-0.003
-135.399	-87.006	0.217	0.066
-134.385	-87.446	0.468	-0.141
-133.370	-200.000	-0.024	0.210
-132.356	-71.062	0.278	0.104
-131.341	-200.000	0.057	-0.275
-130.326	-150.699	0.147	-0.011
-129.312	458.220	-0.132	-0.293
-128.297	-200.000	0.025	0.260
-127.283	-151.857	0.415	0.030
-126.268	-43.495	0.309	0.155
-125.253	-138.872	-0.035	-0.004
-124.239	71.208	-0.018	-0.019
-123.224	216.402	-0.055	0.088
-122.210	-19.702	0.062	-0.038
-121.195	99.722	-0.163	-0.188
-120.180	800.000	0.055	0.204
-119.166	-67.023	-0.211	0.083
-118.151	-15.183	-0.079	-0.051
-117.137	15.702	-0.120	-0.094
-116.122	-200.000	0.033	-0.249
-115.107	-24.155	0.241	-0.143
-114.093	-151.835	-0.235	0.017
-113.078	210.743	-0.116	0.182
-112.064	-2.181	-0.079	0.055
-111.049	-200.000	-0.020	0.285
-110.034	-81.210	0.357	0.118
-109.020	-200.000	-0.047	0.304
-108.005	-62.979	0.163	-0.067
-106.991	800.000	0.099	0.329
-105.976	-113.245	-0.100	-0.020
-104.962	-8.352	0.335	0.224
-103.947	206.646	-0.087	-0.135
-102.932	-173.073	-0.200	-0.006
-101.918	-200.000	0.008	-0.077
-100.903	234.950	-0.020	-0.032
-99.889	-9.554	0.052	-0.034
-98.874	800.000	0.007	-0.030
-97.859	-32.646	-0.038	-0.021
-96.845	269.354	-0.011	-0.019
-95.830	242.958	-0.169	0.282
-94.816	-84.229	-0.134	0.042
-93.801	-75.185	-0.232	-0.082
-92.786	271.390	0.155	0.272
-91.772	-42.463	0.055	0.028
-90.757	139.437	-0.204	0.267
-89.743	-200.000	-0.059	0.379
-88.728	-49.965	-0.167	0.079
-87.713	305.038	-0.245	0.453
-86.699	-167.068	-0.129	-0.005
-85.684	-158.982	0.133	0.008
-84.670	524.184	-0.014	-0.033
-83.655	-79.645	0.179	-0.060
-82.640	477.368	-0.105	-0.237
-81.626	-116.293	-0.179	-0.033
-80.611	-84.198	0.160	0.050
-79.597	24.155	0.118	-0.097
-78.582	32.200	0.081	0.069
-77.567	-200.000	0.035	-0.305
-76.553	800.000	0.140	0.503
-75.538	-200.000	0.006	-0.149
-74.524	411.027	0.159	0.336
-73.509	299.892	-0.178	-0.326
-72.494	-96.919	-0.315	-0.082
-71.480	-200.000	-0.006	-0.025
-70.465	58.646	-0.284	0.277
-69.451	184.277	0.152	0.224
-68.436	327.350	0.099	-0.188
-67.422	456.493	0.051	-0.113
-66.407	23.398	-0.205	0.168
-65.392	-200.000	0.023	0.369
-64.378	800.000	0.057	0.197
-63.363	-161.130	0.232	-0.012
-62.349	-59.938	0.344	0.146
-61.334	-18.703	-0.706	-0.438
-60.319	-43.357	0.554	0.279
-59.305	800.000	-0.061	-0.181
-58.290	94.391	0.636	0.718
-57.276	-200.000	0.256	1.544
-56.261	-200.000	76.034	527.971
-55.246	542.949	1321.817	3133.814
-54.232	145.623	2558.839	3407.093
-53.217	112.878	2356.679	2837.736
-52.203	51.214	1975.451	1862.906
-51.188	44.998	1765.529	1615.847
-50.173	42.161	1720.487	1552.624
-49.159	56.695	1754.406	1696.850
-48.144	61.986	1772.623	1755.602
-47.130	45.094	1736.462	1589.744
-46.115	41.809	1722.675	1551.618
-45.100	41.626	1718.030	1545.955
-44.086	41.560	1715.581	1543.182
-43.071	41.544	1712.699	1540.402
-42.057	41.483	1710.210	1537.630
-41.042	41.491	1708.448	1536.047
-40.027	41.491	1706.391	1534.141
-39.013	41.548	1704.099	1532.456
-37.998	41.608	1702.546	1531.456
-36.984	41.545	1701.408	1529.894
-35.969	41.697	1699.314	1529.109
-34.954	41.794	1697.712	1528.352
-33.940	41.700	1696.460	1526.445
-32.925	41.675	1694.555	1524.480
-31.911	41.691	1692.700	1522.870
-30.896	41.780	1690.413	1521.430
-29.881	41.741	1688.952	1519.758
-28.867	41.549	1687.300	1516.755
-27.852	41.675	1686.200	1516.662
-26.838	41.706	1684.266	1515.101
-25.823	41.794	1682.720	1514.316
-24.809	41.718	1681.459	1512.543
-23.794	41.723	1679.835	1511.062
-22.779	41.766	1678.390	1510.021
-21.765	41.785	1676.467	1508.382
-20.750	41.665	1674.906	1506.012
-19.736	41.681	1673.962	1505.218
-18.721	41.689	1672.337	1503.761
-17.706	41.713	1670.359	1502.106
-16.692	41.691	1668.905	1500.572
-15.677	41.678	1667.457	1499.110
-14.663	41.742	1666.212	1498.414
-13.648	41.720	1664.843	1496.954
-12.633	41.710	1663.359	1495.491
-11.619	41.810	1661.364	1494.385
-10.604	41.634	1660.040	1491.815
-9.590	41.768	1658.205	1491.114
-8.575	41.663	1657.565	1489.689
-7.560	41.698	1656.008	1488.492
-6.546	41.660	1654.807	1487.074
-5.531	41.606	1653.868	1485.765
-4.517	41.638	1652.793	1484.982
-3.502	41.657	1651.382	1483.795
-2.487	41.784	1649.722	1483.190
-1.473	41.470	1637.879	1470.171
-0.458	38.271	1616.762	1427.837
0.556	31.213	1613.873	1384.135
1.571	28.096	1636.439	1379.891
2.586	26.904	1650.294	1382.379
3.600	24.981	1600.921	1326.669
4.615	20.116	1494.798	1204.888
5.629	15.387	1430.085	1121.095
6.644	14.327	1420.874	1106.738
7.659	14.400	1419.031	1105.691
8.673	14.427	1417.635	1104.679
9.688	14.116	1416.050	1101.290
10.702	14.035	1413.342	1098.548
11.717	16.215	1417.353	1116.006
12.731	20.037	1423.846	1146.356
13.746	20.154	1421.878	1145.444
14.761	17.593	1416.603	1124.218
15.775	16.272	1412.847	1112.440
16.790	15.206	1409.891	1102.996
17.804	14.271	1407.851	1095.157
18.819	13.841	1406.293	1091.026
19.834	13.480	1404.393	1087.080
20.848	13.188	1403.342	1084.259
21.863	12.973	1401.881	1081.621
22.877	12.762	1400.937	1079.414
23.892	12.698	1400.290	1078.406
24.907	12.667	1399.638	1077.602
25.921	12.748	1398.190	1076.923
26.936	12.806	1397.518	1076.685
27.950	12.776	1396.191	1075.376
28.965	12.851	1394.886	1074.765
29.980	12.986	1393.639	1074.585
30.994	12.925	1393.050	1073.638
32.009	12.978	1391.495	1072.690
33.023	13.015	1390.570	1072.121
34.038	12.979	1389.048	1070.621
35.053	12.879	1387.530	1068.711
36.067	12.897	1386.416	1067.872
37.082	12.917	1385.338	1067.075
38.096	12.948	1384.594	1066.613
39.111	12.992	1383.498	1065.960
40.126	12.865	1383.040	1064.689
41.140	12.808	1381.758	1063.239
42.155	12.737	1381.116	1062.192
43.169	12.663	1381.414	1061.852
44.184	12.711	1380.972	1061.726
45.199	12.722	1380.509	1061.348
46.213	12.760	1379.877	1061.012
47.228	12.801	1379.182	1060.652
48.242	12.864	1377.440	1059.623
49.257	12.867	1376.409	1058.754
50.271	12.780	1374.645	1056.744
51.286	12.711	1373.565	1055.378
52.301	12.813	1372.268	1054.939
53.315	12.791	1370.916	1053.671
54.330	12.752	1369.838	1052.500
55.344	12.773	1368.547	1051.549
56.359	12.752	1367.251	1050.324
57.374	12.767	1366.651	1049.869
58.388	12.620	1366.189	1048.478
59.403	12.660	1365.269	1047.937
60.417	12.652	1364.703	1047.362
61.432	12.560	1363.975	1046.122
62.447	12.591	1362.761	1045.294
63.461	12.521	1361.127	1043.505
64.476	12.618	1360.258	1043.364
65.490	12.611	1358.896	1042.181
66.505	12.650	1357.216	1041.048
67.520	12.650	1355.862	1039.918
68.534	12.557	1355.506	1038.964
69.549	12.584	1354.241	1038.075
70.563	12.504	1353.584	1036.974
71.578	12.525	1352.091	1035.870
72.593	12.481	1351.498	1035.048
73.607	12.491	1350.290	1034.095
74.622	12.492	1349.904	1033.710
75.636	12.529	1348.893	1033.077
76.651	12.661	1347.904	1033.058
77.666	12.473	1348.053	1031.900
78.680	12.504	1346.839	1031.077
79.695	12.571	1346.349	1031.030
80.709	12.585	1345.882	1030.667
81.724	12.675	1344.533	1030.106
82.739	12.686	1343.915	1029.612
83.753	12.686	1342.915	1028.752
84.768	12.825	1341.554	1028.487
85.782	12.804	1341.002	1027.841
86.797	12.770	1339.443	1026.345
87.812	12.794	1337.904	1025.221
88.826	12.744	1336.953	1024.095
89.841	12.771	1336.135	1023.546
90.855	12.854	1334.724	1022.886
91.870	12.843	1333.994	1022.169
92.884	12.877	1332.940	1021.479
93.899	12.960	1332.339	1021.445
94.914	12.973	1331.738	1020.973
95.928	12.862	1330.940	1019.587
96.943	12.900	1329.714	1018.793
97.957	12.874	1328.678	1017.745
98.972	12.932	1327.602	1017.193
99.987	12.972	1326.461	1016.472
101.001	12.870	1325.493	1015.015
102.016	12.874	1324.370	1014.087
103.030	12.936	1323.531	1013.736
104.045	12.863	1322.492	1012.401
105.060	12.860	1321.199	1011.306
106.074	12.801	1320.084	1010.003
107.089	12.714	1318.612	1008.253
108.103	12.576	1317.277	1006.295
109.118	12.637	1316.225	1005.781
110.133	12.633	1314.727	1004.517
111.147	12.670	1313.218	1003.505
112.162	12.847	1311.584	1003.244
113.176	12.745	1310.683	1001.845
114.191	12.744	1310.228	1001.403
115.206	12.739	1308.749	1000.155
116.220	12.760	1307.475	999.222
117.235	12.761	1306.488	998.385
118.249	12.770	1305.453	997.555
119.264	12.703	1304.468	996.313
120.279	12.681	1303.128	995.068
121.293	12.656	1301.881	993.878
122.308	12.665	1300.564	992.835
123.322	12.736	1299.535	992.391
124.337	12.736	1298.335	991.388
125.352	12.638	1297.869	990.355
126.366	12.725	1295.972	989.343
127.381	12.677	1295.465	988.580
128.395	12.690	1294.178	987.584
129.410	12.680	1293.055	986.580
130.424	12.707	1292.531	986.257
131.439	12.723	1291.701	985.630
132.454	12.830	1290.666	985.392
133.468	12.849	1289.945	984.868
134.483	12.841	1288.951	983.979
135.497	12.826	1287.838	982.952
136.512	12.724	1286.377	981.139
137.527	12.828	1285.472	980.986
138.541	12.846	1283.719	979.667
139.556	12.848	1282.311	978.516
140.570	12.990	1280.871	978.171
141.585	13.004	1279.973	977.485
142.600	13.003	1279.142	976.757
143.614	13.030	1278.000	975.958
144.629	12.994	1276.939	974.846
145.643	12.969	1275.711	973.680
146.658	12.971	1274.223	972.469
147.673	12.904	1272.737	970.855
148.687	12.794	1272.203	969.712
149.702	12.762	1270.548	968.175
150.716	12.757	1269.374	967.168
151.731	12.784	1267.955	966.157
152.746	12.982	1266.511	966.131
153.760	12.916	1265.587	964.959
154.775	12.867	1264.685	963.894
155.789	12.963	1263.989	963.844
156.804	13.031	1262.387	962.934
157.819	13.109	1261.548	962.658
158.833	13.088	1260.620	961.747
159.848	13.034	1259.433	960.443
160.862	13.103	1258.340	959.924
161.877	13.016	1256.739	958.113
162.892	12.991	1255.755	957.132
163.906	12.936	1255.302	956.385
164.921	12.966	1254.160	955.604
165.935	12.953	1253.593	955.011
166.950	12.922	1253.009	954.300
167.964	12.959	1251.787	953.502
168.979	12.978	1251.314	953.168
169.994	13.023	1250.439	952.677
171.008	13.041	1249.800	952.209
172.023	13.088	1248.731	951.579
173.037	13.120	1248.296	951.350
174.052	13.081	1246.712	949.831
175.067	13.066	1245.930	949.067
176.081	13.117	1244.354	948.075
177.096	13.069	1243.810	947.298
178.110	13.053	1242.692	946.273
179.125	13.121	1241.188	945.437
180.140	13.069	1240.351	944.414
181.154	13.156	1238.808	943.655
182.169	13.062	1237.916	942.355
183.183	13.120	1236.822	941.771
184.198	13.294	1235.270	941.495
185.213	13.303	1234.379	940.785
186.227	13.286	1233.200	939.708
187.242	13.181	1232.581	938.556
188.256	13.319	1231.644	938.538
189.271	13.369	1230.264	937.692
190.286	13.295	1229.041	936.255
191.300	13.293	1227.801	935.217
192.315	13.043	1227.630	933.590
193.329	13.167	1226.905	933.658
194.344	13.148	1226.509	933.166
195.359	13.144	1225.989	932.667
196.373	13.378	1224.966	933.122
197.388	13.349	1224.457	932.489
198.402	13.390	1223.942	932.248
199.417	13.547	1223.264	932.534
200.432	13.622	1222.477	932.269
201.446	13.527	1221.931	931.237
202.461	13.552	1221.252	930.778
203.475	13.555	1219.889	929.676
204.490	13.521	1218.647	928.455
205.504	13.511	1217.329	927.314
206.519	13.501	1216.134	926.262
207.534	13.499	1215.300	925.537
208.548	13.476	1214.145	924.447
209.563	13.516	1213.326	923.964
210.577	13.535	1212.542	923.392
211.592	13.636	1211.557	923.124
212.607	13.624	1210.505	922.170
213.621	13.587	1209.999	921.496
214.636	13.646	1208.578	920.663
215.650	13.658	1207.941	920.162
216.665	13.662	1206.910	919.317
217.680	13.680	1206.117	918.735
218.694	13.804	1205.144	918.597
219.709	13.780	1204.195	917.659
220.723	13.734	1203.519	916.806
221.738	13.769	1202.924	916.467
222.753	13.740	1202.268	915.725
223.767	13.779	1201.607	915.355
224.782	13.892	1200.844	915.319
225.796	13.899	1200.096	914.703
226.811	13.842	1200.096	914.312
227.826	13.908	1198.746	913.566
228.840	13.856	1197.509	912.257
229.855	13.850	1197.043	911.789
230.869	13.821	1196.157	910.874
231.884	13.781	1195.532	910.097
232.899	13.660	1195.083	909.011
233.913	13.872	1194.339	909.524
234.928	13.783	1193.326	908.186
235.942	13.874	1192.538	908.003
236.957	13.748	1192.168	906.953
237.972	13.838	1191.063	906.522
238.986	13.841	1190.413	905.964
240.001	13.814	1189.524	905.061
241.015	13.890	1188.752	904.808
242.030	13.843	1188.011	903.906
243.045	13.923	1186.762	903.310
244.059	13.794	1186.680	902.471
245.074	13.989	1185.622	902.646
246.088	13.967	1184.680	901.725
247.103	13.961	1183.793	900.942
248.117	14.030	1183.083	900.693
249.132	14.138	1182.461	900.726
250.147	14.231	1181.464	900.390
251.161	14.306	1180.679	900.116
252.176	14.327	1180.020	899.648
253.190	14.263	1179.599	898.903
254.205	14.369	1178.732	898.734
255.220	14.270	1178.391	897.860
256.234	14.403	1177.546	897.851
257.249	14.377	1176.766	897.039
258.263	14.384	1176.002	896.417
259.278	14.265	1175.515	895.322
260.293	14.325	1175.144	895.287
261.307	14.363	1174.518	894.931
262.322	14.507	1174.084	895.296
263.336	14.487	1173.235	894.466
264.351	14.495	1172.641	893.973
265.366	14.549	1171.639	893.421
266.380	14.607	1170.608	892.867
267.395	14.516	1170.311	892.072
268.409	14.481	1169.579	891.246
269.424	14.525	1168.753	890.776
270.439	14.538	1168.233	890.372
271.453	14.523	1167.522	889.667
272.468	14.513	1166.429	888.706
273.482	14.496	1165.380	887.737
274.497	14.438	1164.938	887.010
275.512	14.529	1164.227	886.876
276.526	14.559	1163.414	886.335
277.541	14.598	1162.419	885.707
278.555	14.592	1162.224	885.450
279.570	14.626	1160.982	884.605
280.585	14.664	1160.215	884.145
281.599	14.670	1159.568	883.606
282.614	14.700	1158.331	882.743
283.628	14.756	1157.160	882.069
284.643	14.672	1156.487	881.034
285.657	14.744	1155.394	880.503
286.672	14.761	1154.650	879.949
287.687	14.698	1153.634	878.763
288.701	14.766	1153.008	878.564
289.716	14.807	1151.930	877.882
290.730	14.875	1151.482	877.822
291.745	14.723	1151.247	876.767
292.760	14.834	1150.356	876.592
293.774	14.914	1149.664	876.407
294.789	14.860	1149.239	875.722
295.803	14.843	1148.507	874.996
296.818	14.804	1147.618	874.038
297.833	14.796	1147.120	873.542
298.847	14.788	1146.072	872.625
299.862	14.938	1144.851	872.400
300.876	14.945	1144.239	871.893
301.891	14.907	1143.513	871.062
302.906	14.965	1143.038	870.926
303.920	14.943	1142.687	870.466
304.935	15.113	1141.818	870.612
305.949	15.170	1140.950	870.167
306.964	15.140	1140.371	869.495
307.979	15.173	1139.644	869.037
308.993	15.133	1138.975	868.241
310.008	15.064	1138.332	867.315
311.022	15.125	1137.393	866.838
312.037	15.094	1136.766	866.126
313.052	15.132	1135.266	865.101
314.066	15.120	1134.581	864.439
315.081	15.075	1133.727	863.483
316.095	15.033	1133.014	862.646
317.110	15.152	1131.886	862.324
318.125	15.115	1131.697	861.912
319.139	15.001	1131.325	860.967
320.154	15.013	1129.881	859.852
321.168	15.117	1129.390	859.937
322.183	15.080	1129.347	859.637
323.197	15.146	1128.410	859.189
324.212	15.239	1127.502	858.898
325.227	15.271	1127.003	858.605
326.241	15.191	1126.584	857.803
327.256	15.248	1125.462	857.163
328.270	15.149	1124.742	856.033
329.285	15.149	1123.429	854.955
330.300	15.217	1122.773	854.730
331.314	15.200	1121.892	853.897
332.329	15.291	1120.670	853.351
333.343	15.268	1120.012	852.661
334.358	15.287	1119.300	852.136
335.373	15.372	1118.356	851.776
336.387	15.417	1117.556	851.319
337.402	15.353	1117.143	850.605
338.416	15.458	1116.621	850.665
339.431	15.392	1115.872	849.683
340.446	15.396	1115.116	849.051
341.460	15.525	1114.016	848.792
342.475	15.598	1113.336	848.570
343.489	15.621	1112.563	848.019
344.504	15.553	1111.627	846.890
345.519	15.644	1111.059	846.840
346.533	15.709	1110.036	846.314
347.548	15.667	1109.089	845.306
348.562	15.821	1107.895	845.091
349.577	15.651	1107.603	843.941
350.592	15.632	1107.078	843.372
351.606	15.611	1105.952	842.337
352.621	15.716	1105.177	842.197
353.635	15.546	1104.889	841.049
354.650	15.619	1103.986	840.653
355.665	15.613	1103.144	839.907
356.679	15.749	1102.305	839.874
357.694	15.754	1101.944	839.550
358.708	15.672	1101.451	838.692
359.723	15.765	1100.926	838.681
360.738	15.831	1099.789	838.067
361.752	15.791	1099.677	837.712
362.767	15.724	1099.314	837.024
363.781	15.733	1098.798	836.605
364.796	15.865	1097.841	836.457
365.810	15.876	1096.841	835.676
366.825	15.973	1096.093	835.514
367.840	15.992	1095.970	835.439
368.854	15.984	1095.200	834.740
369.869	16.060	1094.567	834.558
370.883	16.010	1093.645	833.533
371.898	16.073	1092.703	833.052
372.913	16.058	1092.462	832.723
373.927	16.058	1091.979	832.282
374.942	16.083	1091.390	831.882
375.956	16.155	1090.952	831.831
376.971	16.209	1090.057	831.341
377.986	16.122	1090.083	830.857
379.000	16.143	1089.625	830.537
380.015	16.217	1088.695	830.117
381.029	16.174	1088.021	829.322
382.044	16.126	1087.258	828.432
383.059	16.102	1086.325	827.529
384.073	16.212	1085.658	827.487
385.088	16.227	1084.826	826.854
386.102	16.238	1084.075	826.260
387.117	16.311	1082.704	825.501
388.132	16.120	1081.995	823.951
389.146	16.189	1081.041	823.491
390.161	16.290	1080.335	823.372
391.175	16.161	1079.758	822.228
392.190	16.257	1078.951	822.011
393.205	16.348	1078.277	821.866
394.219	16.359	1077.464	821.228
395.234	16.340	1076.824	820.576
396.248	16.271	1075.464	819.132
397.263	16.300	1074.330	818.336
398.278	16.305	1073.813	817.894
399.292	16.223	1073.197	816.957
400.307	16.276	1072.664	816.732
401.321	16.207	1071.760	815.642
402.336	16.287	1070.875	815.282
403.350	16.231	1070.450	814.614
404.365	16.380	1069.492	814.534
405.380	16.374	1068.819	813.917
406.394	16.457	1068.212	813.782
407.409	16.494	1067.063	813.016
408.423	16.434	1066.896	812.529
409.438	16.592	1065.680	812.286
410.453	16.644	1065.023	811.966
411.467	16.585	1064.210	810.988
412.482	16.606	1063.815	810.718
413.496	16.642	1062.684	809.956
414.511	16.608	1062.614	809.667
415.526	16.774	1062.389	810.219
416.540	16.735	1061.744	809.472
417.555	16.791	1060.941	809.055
418.569	16.661	1060.728	808.197
419.584	16.730	1059.987	807.893
420.599	16.895	1059.089	807.920
421.613	83.516	1294.312	1359.008
422.628	76.983	1328.592	1359.136
