DTS Sentinel unit serial number:	SN413079Multiplexer serial number:	ORYXHardware model number:	OX4-SRSoftware version number:	ORYX F/W v4.00 Oryx Data Collector v3.7.2.0data status	okinstallation	princeton_trtdifferential loss correction	single-endedforward channel	channel 2reverse channel	N/Adate	2019/09/18time	13:11:34forward acquisition time	60.00reverse acquisition time	0.00gamma	496.2192k internal	0.2320k external	0.2320temperature offset calibration	0.9992default loss term (dB/km)	0.3790temperature slope calibration	1.0000multiplexer offset coefficient	1.0000multiplexer slope coefficient	1.0000fibre end	0.00T internal ref (°C)	33.87T ext. ref 1 (°C)	0.60T ext. ref 2 (°C)	31.43length (m)	temperature (°C)	Stokes	anti-Stokes-747.200	800.000	0.032	-0.108
-746.185	-82.146	-0.187	0.062
-745.171	14.938	-0.163	-0.129
-744.156	374.627	-0.043	-0.089
-743.142	-85.996	-0.269	-0.084
-742.127	-161.082	-0.197	-0.010
-741.112	800.000	0.058	-0.195
-740.098	-133.296	-0.191	-0.024
-739.083	-44.408	0.151	0.077
-738.069	-200.000	-0.032	0.293
-737.054	-92.611	-0.129	-0.037
-736.039	-200.000	-0.005	0.063
-735.025	-150.144	-0.066	-0.005
-734.010	177.989	-0.060	0.089
-732.996	-200.000	0.030	-0.386
-731.981	800.000	-0.072	-0.308
-730.966	-200.000	-0.006	0.147
-729.952	23.576	-0.068	-0.057
-728.937	-67.447	-0.338	0.134
-727.923	-6.939	-0.290	-0.199
-726.908	170.611	0.058	-0.085
-725.894	-90.893	-0.118	-0.034
-724.879	-28.592	-0.186	0.108
-723.864	27.674	0.202	0.172
-722.850	81.122	-0.221	-0.241
-721.835	390.728	-0.031	0.064
-720.821	-200.000	-0.013	-0.135
-719.806	-48.862	0.220	-0.107
-718.791	-65.289	-0.036	0.015
-717.777	26.479	0.102	0.086
-716.762	-110.130	-0.271	-0.057
-715.748	6.243	0.110	-0.083
-714.733	98.170	-0.073	-0.085
-713.718	-80.957	-0.097	0.032
-712.704	283.150	-0.141	0.255
-711.689	-142.999	-0.286	0.028
-710.675	-40.619	-0.336	0.176
-709.660	-54.864	-0.139	0.063
-708.645	800.000	-0.106	0.314
-707.631	94.180	0.174	-0.200
-706.616	-141.009	0.109	0.011
-705.602	53.360	0.090	-0.087
-704.587	-200.000	0.011	0.128
-703.572	107.424	-0.296	-0.356
-702.558	271.526	-0.140	0.249
-701.543	470.470	0.151	0.344
-700.529	-27.502	0.277	0.163
-699.514	140.056	-0.191	0.255
-698.499	-23.308	0.039	-0.024
-697.485	-200.000	-0.001	-0.110
-696.470	169.054	0.050	-0.072
-695.456	-200.000	0.057	-0.285
-694.441	-200.000	0.004	0.051
-693.426	-18.077	-0.263	0.166
-692.412	-200.000	0.003	0.182
-691.397	17.744	-0.093	-0.075
-690.383	186.546	0.077	-0.116
-689.368	74.126	-0.071	0.075
-688.354	-106.815	-0.170	-0.038
-687.339	156.401	0.020	-0.028
-686.324	800.000	-0.054	-0.165
-685.310	-44.378	0.363	0.183
-684.295	-200.000	-0.002	-0.057
-683.281	800.000	0.158	-0.531
-682.266	112.708	0.064	-0.079
-681.251	-200.000	0.015	0.391
-680.237	213.080	-0.132	0.210
-679.222	-130.699	-0.188	0.025
-678.208	79.100	-0.174	-0.188
-677.193	-61.409	-0.300	0.127
-676.178	-78.147	0.152	-0.053
-675.164	800.000	-0.044	-0.162
-674.149	-180.718	0.239	0.005
-673.135	147.811	0.133	0.181
-672.120	79.706	-0.155	-0.168
-671.105	-200.000	0.061	-0.423
-670.091	800.000	-0.045	0.162
-669.076	35.896	-0.076	0.067
-668.062	365.366	-0.098	0.199
-667.047	-45.214	0.401	-0.201
-666.032	-180.296	-0.142	0.003
-665.018	-96.508	-0.375	-0.100
-664.003	110.611	-0.265	0.321
-662.989	-134.601	0.161	0.020
-661.974	-40.335	-0.273	0.143
-660.959	-80.458	0.042	0.014
-659.945	-200.000	-0.008	0.076
-658.930	800.000	0.065	-0.261
-657.916	-28.953	0.364	0.211
-656.901	127.817	0.164	-0.211
-655.886	364.564	0.050	-0.101
-654.872	-200.000	0.029	-0.452
-653.857	323.102	-0.103	0.197
-652.843	-125.517	-0.235	0.036
-651.828	-83.969	-0.042	-0.013
-650.814	-53.556	-0.180	-0.083
-649.799	800.000	0.066	0.250
-648.784	-138.312	-0.294	-0.033
-647.770	-126.035	-0.219	0.033
-646.755	323.646	0.073	0.141
-645.741	-59.248	-0.199	-0.086
-644.726	798.397	0.147	-0.410
-643.711	104.893	0.252	-0.299
-642.697	-200.000	0.023	-0.120
-641.682	800.000	0.031	-0.091
-640.668	-133.763	0.113	0.014
-639.653	0.798	-0.132	0.095
-638.638	52.368	-0.067	0.064
-637.624	-200.000	0.050	-0.288
-636.609	800.000	-0.037	0.147
-635.595	-24.594	0.363	0.218
-634.580	-16.211	0.048	-0.031
-633.565	22.775	0.107	0.088
-632.551	-200.000	0.033	0.200
-631.536	-90.521	0.281	-0.082
-630.522	73.135	-0.158	-0.166
-629.507	800.000	0.091	0.311
-628.492	800.000	0.072	0.290
-627.478	-200.000	-0.047	-0.355
-626.463	-141.484	-0.299	-0.030
-625.449	-89.952	0.355	0.104
-624.434	-137.425	-0.414	0.047
-623.419	218.029	0.098	-0.158
-622.405	175.992	-0.104	0.152
-621.390	-153.030	-0.168	0.012
-620.376	800.000	0.017	-0.061
-619.361	45.768	-0.282	0.262
-618.346	-200.000	-0.001	0.152
-617.332	800.000	-0.007	0.032
-616.317	-68.368	0.197	-0.077
-615.303	-200.000	0.020	0.157
-614.288	-200.000	-0.011	-0.284
-613.273	-42.304	-0.142	-0.073
-612.259	-109.837	-0.101	-0.021
-611.244	280.027	-0.134	-0.241
-610.230	59.546	-0.216	0.214
-609.215	158.945	-0.168	0.234
-608.201	-200.000	0.003	-0.105
-607.186	-9.685	0.345	0.231
-606.171	513.690	0.129	0.303
-605.157	281.239	0.166	-0.298
-604.142	-200.000	0.001	0.183
-603.128	-200.000	0.033	-0.253
-602.113	244.453	-0.019	-0.033
-601.098	-42.786	0.077	0.039
-600.084	134.294	-0.122	0.159
-599.069	60.076	-0.134	-0.133
-598.055	-200.000	-0.061	-0.321
-597.040	-200.000	-0.001	0.196
-596.025	-43.572	0.302	-0.153
-595.011	800.000	-0.049	0.182
-593.996	47.291	-0.186	0.174
-592.982	107.635	0.178	0.213
-591.967	-43.757	0.288	0.146
-590.952	-200.000	0.030	0.227
-589.938	-179.970	-0.088	0.002
-588.923	-151.327	0.360	0.027
-587.909	-36.585	-0.250	0.135
-586.894	-144.705	-0.205	-0.019
-585.879	-87.293	-0.163	0.050
-584.865	-85.339	-0.203	0.064
-583.850	-105.041	-0.360	0.083
-582.836	-73.936	-0.202	-0.074
-581.821	-83.175	-0.287	0.093
-580.806	343.114	0.071	0.139
-579.792	-41.359	-0.228	-0.118
-578.777	124.164	-0.113	-0.142
-577.763	-46.079	0.210	-0.104
-576.748	63.506	-0.172	-0.173
-575.733	-59.054	0.009	0.004
-574.719	-200.000	0.036	0.238
-573.704	-145.440	0.152	0.014
-572.690	310.356	0.121	-0.228
-571.675	800.000	-0.046	-0.134
-570.661	-16.655	0.164	-0.104
-569.646	34.335	-0.179	-0.157
-568.631	102.476	0.220	-0.259
-567.617	-79.357	-0.095	0.032
-566.602	-139.881	-0.187	-0.020
-565.588	800.000	-0.048	0.196
-564.573	24.342	0.322	0.268
-563.558	337.771	-0.101	0.198
-562.544	-75.760	0.090	0.032
-561.529	-116.318	0.078	-0.015
-560.515	-200.000	0.002	0.352
-559.500	173.892	-0.193	-0.280
-558.485	800.000	-0.162	0.598
-557.471	-75.522	0.200	0.071
-556.456	-20.462	-0.080	0.050
-555.442	162.785	-0.076	-0.108
-554.427	-124.618	0.233	0.036
-553.412	-98.785	-0.391	-0.100
-552.398	381.675	0.124	-0.256
-551.383	142.647	0.203	-0.270
-550.369	375.810	-0.027	0.055
-549.354	308.266	-0.069	0.129
-548.339	-200.000	-0.025	-0.365
-547.325	50.242	0.052	-0.050
-546.310	25.105	0.088	-0.073
-545.296	379.943	-0.076	0.156
-544.281	-200.000	-0.013	-0.221
-543.266	-126.212	0.246	0.037
-542.252	104.173	-0.080	0.094
-541.237	121.112	-0.243	0.303
-540.223	-136.084	-0.008	0.001
-539.208	56.970	-0.191	0.187
-538.193	-125.551	0.199	0.030
-537.179	-200.000	-0.027	0.220
-536.164	-20.220	0.206	0.127
-535.150	85.062	-0.095	-0.104
-534.135	-200.000	0.029	0.215
-533.121	23.554	-0.181	0.149
-532.106	800.000	0.036	-0.108
-531.091	188.684	0.076	-0.114
-530.077	-200.000	0.029	0.163
-529.062	199.632	-0.215	-0.331
-528.048	-110.390	-0.368	0.077
-527.033	-200.000	0.011	-0.091
-526.018	-11.120	0.228	0.151
-525.004	529.837	0.148	-0.350
-523.989	-121.623	0.037	0.006
-522.975	-200.000	-0.048	-0.284
-521.960	-21.673	-0.209	-0.128
-520.945	756.324	0.080	-0.218
-519.931	192.294	-0.063	-0.096
-518.916	-49.245	-0.045	-0.022
-517.902	198.218	-0.041	0.064
-516.887	33.285	0.302	-0.263
-515.872	457.338	0.068	-0.151
-514.858	800.000	0.036	0.147
-513.843	-200.000	0.027	0.143
-512.829	275.370	0.064	0.113
-511.814	-171.870	-0.277	0.009
-510.799	28.936	0.222	-0.189
-509.785	-83.382	-0.295	-0.095
-508.770	-200.000	-0.011	-0.120
-507.756	-200.000	-0.032	0.258
-506.741	114.119	0.054	-0.066
-505.726	800.000	0.095	0.351
-504.712	800.000	-0.019	0.077
-503.697	191.670	-0.128	0.194
-502.683	-167.161	0.183	-0.007
-501.668	-72.878	0.260	-0.096
-500.653	800.000	0.032	-0.130
-499.639	-67.817	0.295	0.116
-498.624	-23.535	0.138	-0.083
-497.610	800.000	0.024	0.102
-496.595	-163.572	-0.159	0.008
-495.581	67.399	-0.413	-0.422
-494.566	42.259	-0.196	0.178
-493.551	-200.000	-0.001	-0.348
-492.537	9.309	0.027	-0.020
-491.522	71.818	0.200	0.208
-490.508	29.177	-0.270	0.229
-489.493	98.277	-0.229	-0.264
-488.478	329.098	0.206	0.396
-487.464	114.924	-0.118	-0.144
-486.449	108.346	-0.201	-0.240
-485.435	-135.808	-0.140	-0.017
-484.420	228.333	-0.141	0.231
-483.405	-53.672	-0.164	-0.075
-482.391	-80.236	-0.115	0.039
-481.376	-126.506	-0.390	-0.058
-480.362	797.913	-0.046	-0.127
-479.347	-57.674	-0.342	0.150
-478.332	-200.000	-0.004	-0.254
-477.318	305.291	0.067	-0.125
-476.303	146.636	-0.150	-0.201
-475.289	-98.318	0.283	-0.073
-474.274	-27.119	0.112	0.065
-473.259	-200.000	0.009	0.403
-472.245	-135.906	0.161	-0.019
-471.230	800.000	0.058	-0.219
-470.216	800.000	0.022	-0.062
-469.201	-117.855	0.033	0.006
-468.186	-40.248	0.082	0.043
-467.172	-200.000	-0.037	-0.210
-466.157	63.474	-0.235	-0.236
-465.143	334.741	-0.128	-0.248
-464.128	91.590	-0.118	0.133
-463.113	-66.309	-0.101	0.040
-462.099	-83.075	0.175	-0.056
-461.084	-136.477	-0.155	0.018
-460.070	341.847	-0.145	-0.284
-459.055	-200.000	-0.048	-0.297
-458.040	-158.697	0.350	-0.020
-457.026	-85.883	-0.121	-0.037
-456.011	-101.954	-0.192	-0.046
-454.997	-74.732	-0.421	-0.151
-453.982	198.119	-0.164	0.250
-452.968	270.818	0.104	0.183
-451.953	-200.000	-0.005	0.176
-450.938	-40.869	-0.190	-0.098
-449.924	567.418	-0.046	0.113
-448.909	7.544	0.189	0.141
-447.895	-21.679	-0.195	-0.119
-446.880	-200.000	-0.030	0.308
-445.865	51.027	-0.164	0.155
-444.851	-74.842	0.074	0.026
-443.836	-37.828	-0.192	0.102
-442.822	800.000	0.047	-0.154
-441.807	-60.816	-0.160	-0.068
-440.792	33.622	-0.254	0.221
-439.778	190.749	0.110	-0.165
-438.763	-200.000	0.032	-0.154
-437.749	-103.255	0.073	0.017
-436.734	-200.000	0.019	-0.232
-435.719	-200.000	0.047	0.302
-434.705	-3.625	0.183	0.127
-433.690	98.701	0.207	0.239
-432.676	-49.663	0.223	0.106
-431.661	-200.000	-0.032	-0.236
-430.646	-118.563	-0.153	-0.027
-429.632	-5.331	0.105	-0.072
-428.617	340.381	-0.048	0.094
-427.603	-38.557	0.346	0.182
-426.588	-200.000	-0.009	-0.157
-425.573	223.959	-0.093	-0.150
-424.559	-200.000	0.029	-0.199
-423.544	-164.260	0.314	-0.014
-422.530	-80.857	0.210	0.070
-421.515	-172.121	-0.250	-0.008
-420.500	132.130	0.048	0.062
-419.486	-200.000	0.018	-0.187
-418.471	-149.903	-0.348	0.027
-417.457	-75.766	-0.116	0.041
-416.442	-200.000	0.032	0.142
-415.428	84.960	0.069	-0.075
-414.413	54.689	0.083	-0.080
-413.398	800.000	0.052	0.184
-412.384	565.200	-0.023	0.057
-411.369	581.202	0.050	0.122
-410.355	498.965	-0.113	-0.259
-409.340	-166.453	0.310	-0.013
-408.325	57.647	-0.093	0.091
-407.311	85.964	0.048	0.053
-406.296	402.173	-0.177	0.372
-405.282	800.000	-0.081	0.223
-404.267	81.320	-0.177	0.191
-403.252	800.000	-0.100	-0.308
-402.238	53.657	0.147	-0.141
-401.223	-136.607	0.201	-0.023
-400.209	-15.213	0.278	0.177
-399.194	-57.425	0.156	0.069
-398.179	66.852	-0.089	-0.091
-397.165	-37.773	-0.300	-0.159
-396.150	-82.280	-0.068	-0.022
-395.136	118.576	0.151	-0.186
-394.121	190.489	-0.155	-0.232
-393.106	-136.127	0.145	-0.017
-392.092	800.000	-0.027	0.117
-391.077	9.016	-0.249	-0.187
-390.063	-96.755	-0.351	0.092
-389.048	-200.000	-0.001	-0.337
-388.033	-54.743	-0.197	0.089
-387.019	-200.000	0.048	0.248
-386.004	-88.375	-0.437	-0.130
-384.990	-200.000	0.023	-0.229
-383.975	-102.710	-0.074	0.018
-382.960	1.466	-0.189	-0.135
-381.946	-123.885	-0.122	-0.019
-380.931	37.740	0.389	0.344
-379.917	9.481	0.110	-0.083
-378.902	-2.769	-0.060	-0.042
-377.888	-72.948	0.260	0.095
-376.873	118.090	-0.152	0.187
-375.858	800.000	0.095	0.358
-374.844	32.749	-0.113	-0.098
-373.829	-56.522	-0.067	0.029
-372.815	24.882	0.117	-0.097
-371.800	-200.000	0.035	-0.244
-370.785	348.003	-0.092	0.181
-369.771	95.239	-0.294	0.334
-368.756	800.000	0.077	-0.297
-367.742	-99.471	-0.189	-0.047
-366.727	171.694	-0.186	-0.266
-365.712	-47.002	0.356	0.173
-364.698	800.000	-0.001	0.005
-363.683	800.000	0.071	0.232
-362.669	-200.000	0.001	-0.322
-361.654	21.132	-0.224	-0.181
-360.639	-43.988	0.282	0.141
-359.625	53.089	0.131	-0.125
-358.610	-106.860	-0.120	-0.026
-357.596	-102.932	-0.328	-0.078
-356.581	37.056	0.169	0.149
-355.566	-114.898	0.318	0.060
-354.552	171.773	0.277	0.396
-353.537	-165.352	-0.191	0.008
-352.523	-21.344	-0.063	-0.038
-351.508	-200.000	-0.019	-0.173
-350.493	692.742	0.220	-0.575
-349.479	-7.861	0.172	-0.116
-348.464	-64.859	0.292	0.118
-347.450	-4.667	0.111	0.076
-346.435	-200.000	0.028	-0.127
-345.420	-51.909	0.101	-0.047
-344.406	202.989	-0.145	-0.223
-343.391	-142.613	0.076	0.007
-342.377	-200.000	-0.010	0.208
-341.362	-200.000	-0.062	-0.307
-340.348	800.000	0.039	0.120
-339.333	-40.999	0.287	-0.148
-338.318	431.103	0.056	-0.121
-337.304	-65.357	0.175	0.070
-336.289	-200.000	-0.043	0.233
-335.275	-92.885	-0.040	0.011
-334.260	-133.576	-0.029	0.004
-333.245	349.836	0.138	-0.272
-332.231	296.213	0.112	-0.204
-331.216	349.320	-0.099	0.194
-330.202	800.000	-0.091	-0.326
-329.187	-90.309	0.155	0.045
-328.172	-83.255	0.336	0.108
-327.158	141.089	0.136	0.180
-326.143	-8.338	0.092	0.062
-325.129	-50.060	0.343	-0.162
-324.114	800.000	-0.050	0.210
-323.099	117.410	-0.091	0.111
-322.085	800.000	-0.062	0.171
-321.070	-17.653	-0.465	0.291
-320.056	-64.165	-0.193	-0.078
-319.041	16.575	0.168	-0.132
-318.026	-200.000	0.070	-0.354
-317.012	800.000	-0.046	-0.173
-315.997	-41.198	-0.166	-0.085
-314.983	325.088	-0.152	0.289
-313.968	-195.036	0.162	-0.001
-312.953	345.319	0.144	-0.282
-311.939	13.103	-0.267	-0.205
-310.924	322.050	0.106	-0.200
-309.910	-5.588	-0.137	-0.093
-308.895	281.417	0.064	0.115
-307.880	800.000	0.017	-0.056
-306.866	22.018	-0.130	-0.105
-305.851	66.794	-0.067	0.067
-304.837	171.364	0.177	0.253
-303.822	-125.373	-0.108	-0.016
-302.807	417.857	0.113	-0.240
-301.793	-200.000	-0.028	-0.168
-300.778	-117.598	-0.283	0.051
-299.764	-151.140	0.182	0.014
-298.749	800.000	0.057	-0.159
-297.735	3.308	0.320	0.232
-296.720	51.977	0.223	0.211
-295.705	538.909	0.162	-0.383
-294.691	-142.907	0.159	0.015
-293.676	-200.000	-0.011	-0.232
-292.662	18.505	-0.160	-0.127
-291.647	110.557	0.089	-0.106
-290.632	-10.602	0.153	-0.101
-289.618	160.812	0.151	0.209
-288.603	0.522	-0.223	-0.158
-287.589	37.639	-0.069	0.060
-286.574	-81.958	-0.230	-0.075
-285.559	-200.000	-0.035	-0.381
-284.545	70.743	-0.052	0.053
-283.530	21.789	-0.314	-0.254
-282.516	800.000	0.040	-0.158
-281.501	88.251	-0.226	-0.249
-280.486	-39.098	0.256	-0.134
-279.472	-142.809	-0.145	-0.014
-278.457	7.796	-0.157	-0.117
-277.443	-200.000	0.033	0.227
-276.428	26.660	-0.182	0.152
-275.413	396.095	0.101	0.209
-274.399	-107.691	0.079	-0.017
-273.384	800.000	0.015	0.051
-272.370	39.249	0.185	-0.164
-271.355	-71.856	-0.204	-0.076
-270.340	-114.773	-0.226	0.043
-269.326	86.411	-0.123	0.135
-268.311	-130.181	0.147	-0.020
-267.297	-52.854	0.266	0.122
-266.282	120.304	0.073	0.089
-265.267	-160.008	-0.344	0.019
-264.253	-44.902	0.073	0.036
-263.238	-100.038	0.156	0.039
-262.224	-35.298	-0.296	0.160
-261.209	-93.373	0.294	0.081
-260.195	-152.507	0.050	0.004
-259.180	-46.783	-0.205	-0.100
-258.165	800.000	0.071	-0.242
-257.151	-5.043	-0.139	-0.095
-256.136	73.396	0.074	-0.077
-255.122	-123.367	0.029	-0.005
-254.107	-58.017	-0.135	0.058
-253.092	-200.000	-0.040	0.234
-252.078	60.986	-0.222	0.218
-251.063	-52.407	0.321	0.147
-250.049	199.242	-0.087	-0.132
-249.034	86.934	0.129	0.141
-248.019	41.468	0.094	0.084
-247.005	118.831	0.141	-0.172
-245.990	172.967	0.137	-0.196
-244.976	-200.000	0.059	0.382
-243.961	-200.000	0.047	0.361
-242.946	47.760	0.101	-0.093
-241.932	85.760	-0.095	0.104
-240.917	149.764	0.149	-0.201
-239.903	-200.000	-0.018	-0.126
-238.888	-197.034	0.480	0.003
-237.873	146.923	0.151	0.201
-236.859	-93.236	0.212	-0.058
-235.844	58.548	0.110	-0.107
-234.830	-30.808	-0.157	0.088
-233.815	800.000	-0.047	0.131
-232.800	489.914	0.157	-0.357
-231.786	-14.216	-0.097	0.062
-230.771	14.462	0.233	0.180
-229.757	800.000	0.060	-0.180
-228.742	24.857	-0.079	0.065
-227.727	-66.181	0.266	0.105
-226.713	-167.962	-0.177	-0.007
-225.698	-90.528	-0.157	0.045
-224.684	284.704	0.046	0.083
-223.669	309.761	-0.093	0.172
-222.655	-54.783	-0.537	0.240
-221.640	-121.984	0.124	-0.020
-220.625	428.351	0.110	0.235
-219.611	-11.492	-0.234	-0.152
-218.596	800.000	0.020	-0.077
-217.582	73.038	0.248	-0.257
-216.567	-97.407	-0.340	-0.088
-215.552	228.032	0.078	0.126
-214.538	-200.000	0.006	0.148
-213.523	-178.612	0.105	0.002
-212.509	-95.133	0.039	0.010
-211.494	800.000	-0.067	-0.265
-210.479	-200.000	-0.019	-0.195
-209.465	7.655	-0.244	0.181
-208.450	-5.569	-0.045	0.030
-207.436	-142.068	-0.048	-0.005
-206.421	620.211	-0.171	0.425
-205.406	-65.671	-0.162	0.064
-204.392	-44.493	0.302	-0.149
-203.377	-161.704	-0.117	-0.006
-202.363	16.351	0.027	-0.021
-201.348	797.467	0.113	0.309
-200.333	-200.000	0.033	0.255
-199.319	-131.553	0.175	-0.023
-198.304	-200.000	-0.035	-0.369
-197.290	-17.189	0.223	0.139
-196.275	-200.000	-0.077	0.358
-195.260	-200.000	0.031	0.273
-194.246	800.000	0.111	0.328
-193.231	8.890	-0.123	0.092
-192.217	-52.200	0.042	0.019
-191.202	59.991	0.166	-0.162
-190.187	24.371	0.056	-0.046
-189.173	-158.442	0.187	0.011
-188.158	85.494	0.194	-0.211
-187.144	237.539	0.008	0.012
-186.129	73.703	0.197	0.205
-185.114	-118.001	0.245	-0.043
-184.100	-57.984	0.189	0.082
-183.085	24.942	-0.086	-0.070
-182.071	800.000	0.083	-0.244
-181.056	800.000	-0.021	0.058
-180.042	58.404	0.165	0.160
-179.027	-136.293	-0.177	-0.020
-178.012	-98.601	0.299	0.076
-176.998	-200.000	-0.001	-0.366
-175.983	-200.000	-0.004	-0.073
-174.969	304.507	0.100	0.184
-173.954	-119.203	0.159	-0.027
-172.939	-190.924	0.141	-0.001
-171.925	101.460	-0.190	0.219
-170.910	44.556	-0.122	0.111
-169.896	800.000	-0.039	0.127
-168.881	514.175	-0.009	0.021
-167.866	-200.000	0.012	-0.129
-166.852	-87.947	0.385	-0.115
-165.837	84.092	-0.184	0.199
-164.823	128.420	-0.188	-0.237
-163.808	-200.000	0.005	-0.346
-162.793	-8.461	0.198	-0.132
-161.779	-75.891	-0.097	0.034
-160.764	-35.993	0.168	-0.090
-159.750	796.793	-0.132	0.361
-158.735	-70.521	-0.210	0.079
-157.720	-55.744	0.432	0.191
-156.706	-132.597	0.321	-0.041
-155.691	-51.403	-0.184	0.085
-154.677	800.000	0.045	0.154
-153.662	-200.000	-0.091	0.498
-152.647	509.367	-0.187	-0.429
-151.633	23.065	0.126	0.102
-150.618	-172.526	-0.303	-0.009
-149.604	-56.341	0.133	0.058
-148.589	48.600	0.244	0.226
-147.574	-114.025	0.268	-0.051
-146.560	-200.000	0.008	-0.097
-145.545	-200.000	-0.022	-0.333
-144.531	32.925	-0.132	0.113
-143.516	96.909	0.097	0.109
-142.502	-200.000	0.004	0.261
-141.487	295.017	0.079	0.143
-140.472	-22.875	-0.531	-0.317
-139.458	-122.322	0.273	-0.044
-138.443	800.000	0.125	0.367
-137.429	-109.478	0.201	0.042
-136.414	-166.578	-0.126	-0.005
-135.399	-138.036	-0.311	-0.034
-134.385	-200.000	-0.023	0.254
-133.370	-200.000	0.047	-0.243
-132.356	800.000	-0.046	0.134
-131.341	-135.890	-0.183	0.021
-130.326	162.514	-0.067	-0.093
-129.312	1.126	0.218	-0.154
-128.297	-200.000	0.029	-0.541
-127.283	-23.268	0.217	-0.129
-126.268	-87.129	-0.292	0.088
-125.253	-160.665	-0.298	-0.016
-124.239	108.331	-0.121	-0.143
-123.224	800.000	0.077	-0.288
-122.210	-124.116	-0.149	-0.023
-121.195	-22.934	-0.028	0.017
-120.180	15.567	0.084	0.065
-119.166	-127.706	0.239	0.034
-118.151	-200.000	-0.014	-0.133
-117.137	193.059	0.073	-0.108
-116.122	-200.000	0.014	0.300
-115.107	-150.988	-0.041	0.003
-114.093	-117.328	-0.076	0.014
-113.078	-200.000	0.014	-0.061
-112.064	-93.171	0.070	0.019
-111.049	71.481	-0.048	-0.049
-110.034	-42.479	0.152	-0.077
-109.020	22.662	0.330	-0.266
-108.005	-200.000	-0.046	-0.239
-106.991	121.611	-0.091	0.112
-105.976	-35.027	-0.120	-0.065
-104.962	-117.045	0.277	0.050
-103.947	-200.000	-0.032	0.360
-102.932	-200.000	0.035	-0.185
-101.918	771.231	-0.085	0.228
-100.903	-180.442	0.111	-0.002
-99.889	800.000	0.050	0.139
-98.874	56.395	0.281	-0.269
-97.859	28.652	0.204	-0.171
-96.845	-200.000	0.015	0.260
-95.830	-48.174	-0.447	-0.213
-94.816	307.605	0.225	0.414
-93.801	717.787	0.137	0.358
-92.786	220.228	-0.201	0.318
-91.772	-200.000	0.003	-0.035
-90.757	520.248	-0.136	0.315
-89.743	182.166	-0.122	-0.177
-88.728	56.674	0.277	0.266
-87.713	-107.338	0.149	-0.032
-86.699	38.124	-0.037	0.032
-85.684	-109.900	0.270	-0.056
-84.670	-45.363	-0.267	-0.130
-83.655	519.166	-0.067	-0.155
-82.640	-200.000	0.005	0.108
-81.626	1.198	0.168	-0.119
-80.611	762.276	-0.084	0.225
-79.597	-118.467	-0.183	0.032
-78.582	-154.268	-0.071	0.005
-77.567	-76.121	0.214	-0.074
-76.553	-200.000	0.026	0.121
-75.538	-144.048	-0.314	-0.029
-74.524	800.000	0.079	-0.232
-73.509	800.000	-0.102	0.396
-72.494	202.596	0.292	-0.444
-71.480	-151.320	-0.340	0.025
-70.465	42.966	-0.045	-0.041
-69.451	585.237	-0.053	-0.127
-68.436	-63.557	0.115	-0.046
-67.422	50.081	0.179	-0.166
-66.407	-200.000	-0.105	-0.471
-65.392	-173.115	-0.251	0.008
-64.378	71.449	0.167	0.170
-63.363	273.929	-0.069	-0.120
-62.349	758.495	0.083	-0.221
-61.334	-0.799	-1.174	-0.819
-60.319	56.275	0.359	0.343
-59.305	-200.000	-0.117	-1.127
-58.290	-200.000	0.096	0.669
-57.276	558.310	0.524	1.244
-56.261	-200.000	95.800	542.045
-55.246	493.919	1428.512	3226.744
-54.232	143.745	2665.261	3496.389
-53.217	103.157	2357.680	2720.153
-52.203	42.963	1962.235	1761.128
-51.188	36.999	1747.192	1521.436
-50.173	34.337	1702.450	1462.029
-49.159	50.354	1749.055	1626.925
-48.144	53.011	1766.658	1663.896
-47.130	36.702	1724.049	1498.750
-46.115	34.022	1708.299	1464.395
-45.100	33.777	1704.003	1458.771
-44.086	33.758	1701.106	1456.087
-43.071	33.784	1698.725	1454.186
-42.057	33.766	1695.790	1451.484
-41.042	33.722	1693.907	1449.477
-40.027	33.777	1691.740	1447.986
-39.013	33.721	1690.010	1446.019
-37.998	33.682	1688.834	1444.660
-36.984	33.713	1686.977	1443.251
-35.969	33.845	1685.270	1442.736
-34.954	33.900	1683.356	1441.453
-33.940	33.902	1681.810	1440.091
-32.925	33.908	1679.291	1437.920
-31.911	33.951	1677.906	1437.000
-30.896	33.856	1676.101	1434.677
-29.881	33.791	1674.726	1432.959
-28.867	33.856	1673.069	1431.973
-27.852	33.850	1671.069	1430.162
-26.838	33.803	1669.908	1428.756
-25.823	33.900	1668.266	1428.025
-24.809	33.919	1666.753	1426.810
-23.794	33.876	1665.533	1425.386
-22.779	33.918	1663.944	1424.288
-21.765	33.826	1662.590	1422.384
-20.750	33.904	1660.656	1421.254
-19.736	33.907	1659.302	1420.064
-18.721	33.962	1657.382	1418.772
-17.706	33.975	1655.861	1417.510
-16.692	33.820	1654.721	1415.322
-15.677	33.846	1653.369	1414.308
-14.663	33.846	1651.757	1412.871
-13.648	33.883	1650.392	1411.919
-12.633	33.946	1648.716	1410.903
-11.619	34.007	1646.401	1409.317
-10.604	33.953	1645.174	1407.808
-9.590	33.966	1643.908	1406.766
-8.575	33.899	1643.232	1405.635
-7.560	33.978	1641.941	1405.058
-6.546	33.969	1640.326	1403.554
-5.531	33.932	1639.451	1402.481
-4.517	33.939	1638.015	1401.247
-3.502	33.944	1637.089	1400.438
-2.487	33.957	1635.370	1399.007
-1.473	33.952	1624.178	1389.342
-0.458	31.624	1604.908	1355.963
0.556	26.517	1604.578	1321.600
1.571	23.584	1628.360	1319.300
2.586	22.311	1641.232	1320.067
3.600	19.626	1586.710	1256.595
4.615	11.022	1471.646	1107.077
5.629	2.573	1402.019	999.654
6.644	0.709	1393.506	981.399
7.659	0.688	1391.837	980.004
8.673	0.542	1391.193	978.516
9.688	0.442	1389.268	976.427
10.702	0.313	1386.149	973.318
11.717	4.031	1392.540	1001.808
12.731	12.626	1406.717	1067.896
13.746	17.593	1412.143	1104.195
14.761	17.405	1410.759	1101.796
15.775	16.556	1408.421	1094.380
16.790	15.503	1406.117	1085.687
17.804	14.772	1403.292	1078.694
18.819	14.320	1402.541	1075.103
19.834	14.085	1400.529	1071.952
20.848	13.807	1399.397	1069.203
21.863	13.593	1398.662	1067.162
22.877	13.291	1397.112	1063.943
23.892	13.350	1395.392	1062.920
24.907	13.373	1395.171	1062.803
25.921	13.291	1394.344	1061.558
26.936	13.472	1393.072	1061.653
27.950	13.391	1392.190	1060.369
28.965	13.417	1391.184	1059.675
29.980	13.504	1390.237	1059.414
30.994	13.576	1389.362	1059.119
32.009	13.517	1388.586	1058.055
33.023	13.584	1387.147	1057.294
34.038	13.592	1385.996	1056.370
35.053	13.523	1384.406	1054.626
36.067	13.635	1383.404	1054.481
37.082	13.464	1382.947	1052.956
38.096	13.571	1382.006	1052.824
39.111	13.576	1380.991	1051.992
40.126	13.432	1380.039	1050.258
41.140	13.466	1379.200	1049.744
42.155	13.377	1378.997	1048.928
43.169	13.327	1378.621	1048.232
44.184	13.295	1378.272	1047.671
45.199	13.401	1377.581	1047.728
46.213	13.347	1377.285	1047.066
47.228	13.379	1376.172	1046.329
48.242	13.469	1375.091	1045.984
49.257	13.449	1373.945	1044.897
50.271	13.378	1372.147	1042.987
51.286	13.484	1370.550	1042.349
52.301	13.471	1369.766	1041.580
53.315	13.392	1368.861	1040.299
54.330	13.504	1367.115	1039.585
55.344	13.311	1366.406	1037.741
56.359	13.401	1365.347	1037.413
57.374	13.291	1364.238	1035.786
58.388	13.282	1363.642	1035.185
59.403	13.330	1362.851	1034.799
60.417	13.318	1361.868	1033.881
61.432	13.287	1361.047	1032.972
62.447	13.292	1360.500	1032.502
63.461	13.204	1358.697	1030.490
64.476	13.265	1357.874	1030.158
65.490	13.351	1356.412	1029.491
66.505	13.314	1355.431	1028.426
67.520	13.385	1353.915	1027.624
68.534	13.249	1353.054	1026.037
69.549	13.293	1351.851	1025.306
70.563	13.327	1350.290	1024.242
71.578	13.228	1349.351	1022.828
72.593	13.227	1348.492	1022.077
73.607	13.281	1347.202	1021.343
74.622	13.279	1346.616	1020.799
75.636	13.190	1346.121	1019.782
76.651	13.217	1345.305	1019.242
77.666	13.210	1344.586	1018.563
78.680	13.326	1344.044	1018.776
79.695	13.210	1343.298	1017.409
80.709	13.259	1342.533	1017.035
81.724	13.318	1341.590	1016.594
82.739	13.363	1340.396	1015.876
83.753	13.322	1339.587	1014.923
84.768	13.453	1338.715	1014.975
85.782	13.498	1337.478	1014.224
86.797	13.378	1336.265	1012.484
87.812	13.328	1334.915	1011.064
88.826	13.344	1333.689	1010.142
89.841	13.334	1332.724	1009.263
90.855	13.410	1331.656	1008.825
91.870	13.465	1330.789	1008.414
92.884	13.413	1330.123	1007.506
93.899	13.478	1329.234	1007.137
94.914	13.477	1328.581	1006.547
95.928	13.493	1327.345	1005.616
96.943	13.474	1326.703	1004.926
97.957	13.405	1325.643	1003.620
98.972	13.574	1324.600	1003.766
99.987	13.549	1323.404	1002.619
101.001	13.511	1322.530	1001.635
102.016	13.454	1321.915	1000.736
103.030	13.498	1320.657	999.961
104.045	13.459	1320.088	999.209
105.060	13.419	1318.801	997.905
106.074	13.366	1317.414	996.446
107.089	13.371	1316.522	995.714
108.103	13.319	1314.661	993.904
109.118	13.223	1313.994	992.739
110.133	13.330	1312.011	991.792
111.147	13.355	1311.029	991.113
112.162	13.348	1309.838	990.085
113.176	13.425	1308.396	989.364
114.191	13.554	1307.282	989.209
115.206	13.428	1306.616	987.862
116.220	13.402	1305.213	986.558
117.235	13.291	1304.441	985.230
118.249	13.413	1303.136	984.881
119.264	13.363	1301.865	983.535
120.279	13.434	1300.550	982.875
121.293	13.344	1299.839	981.719
122.308	13.388	1298.779	981.090
123.322	13.317	1297.658	979.737
124.337	13.368	1296.347	978.961
125.352	13.364	1295.293	978.057
126.366	13.275	1294.644	976.953
127.381	13.327	1292.938	975.889
128.395	13.342	1292.031	975.204
129.410	13.352	1291.309	974.633
130.424	13.383	1290.265	973.939
131.439	13.348	1289.536	973.099
132.454	13.374	1288.859	972.653
133.468	13.468	1287.508	972.102
134.483	13.459	1286.623	971.291
135.497	13.508	1285.539	970.680
136.512	13.402	1284.310	969.042
137.527	13.537	1282.713	968.541
138.541	13.435	1281.543	966.975
139.556	13.403	1280.361	965.810
140.570	13.481	1279.367	965.432
141.585	13.489	1277.840	964.243
142.600	13.570	1276.707	963.770
143.614	13.584	1275.833	963.108
144.629	13.559	1274.727	962.045
145.643	13.521	1273.771	961.015
146.658	13.555	1272.132	959.890
147.673	13.516	1270.524	958.364
148.687	13.474	1269.730	957.441
149.702	13.563	1267.876	956.473
150.716	13.517	1266.883	955.371
151.731	13.499	1265.126	953.862
152.746	13.479	1264.779	953.399
153.760	13.610	1262.891	952.646
154.775	13.665	1261.814	952.064
155.789	13.617	1260.718	950.877
156.804	13.730	1259.483	950.507
157.819	13.654	1258.723	949.417
158.833	13.544	1257.875	948.060
159.848	13.738	1256.713	948.213
160.862	13.755	1255.500	947.309
161.877	13.629	1254.766	945.951
162.892	13.656	1253.315	944.927
163.906	13.717	1252.375	944.484
164.921	13.639	1252.178	943.810
165.935	13.715	1250.822	943.137
166.950	13.716	1249.907	942.366
167.964	13.853	1249.343	942.639
168.979	13.700	1249.044	941.461
169.994	13.685	1248.528	940.903
171.008	13.721	1247.480	940.234
172.023	13.904	1246.363	940.343
173.037	13.909	1245.788	939.853
174.052	13.768	1244.896	938.304
175.067	13.738	1243.700	937.146
176.081	13.832	1242.809	936.921
177.096	13.672	1242.129	935.425
178.110	13.787	1240.622	934.856
179.125	13.849	1239.248	934.084
180.140	13.781	1238.170	932.811
181.154	13.878	1236.978	932.373
182.169	13.845	1235.818	931.229
183.183	13.801	1234.523	929.926
184.198	14.039	1233.332	930.280
185.213	13.874	1232.197	928.418
186.227	13.952	1231.295	928.094
187.242	13.983	1230.332	927.457
188.256	14.040	1229.164	926.813
189.271	14.151	1228.254	926.661
190.286	13.930	1227.043	924.438
191.300	13.765	1226.423	922.973
192.315	13.714	1225.849	922.176
193.329	13.778	1225.160	921.929
194.344	13.861	1224.551	921.851
195.359	13.973	1223.562	921.647
196.373	14.001	1223.215	921.460
197.388	14.038	1222.570	921.094
198.402	13.999	1222.445	920.702
199.417	14.121	1221.573	920.644
200.432	14.193	1220.441	920.105
201.446	14.195	1219.657	919.445
202.461	14.326	1218.191	918.981
203.475	14.206	1217.977	918.074
204.490	14.184	1216.595	916.829
205.504	14.184	1215.532	915.949
206.519	14.207	1213.821	914.707
207.534	14.146	1213.095	913.743
208.548	14.140	1212.450	913.139
209.563	14.200	1211.399	912.599
210.577	14.231	1210.257	911.830
211.592	14.218	1209.485	911.096
212.607	14.313	1208.648	910.905
213.621	14.340	1207.422	910.046
214.636	14.259	1207.073	909.260
215.650	14.277	1205.920	908.412
216.665	14.362	1204.893	908.017
217.680	14.506	1203.469	907.647
218.694	14.375	1203.466	906.851
219.709	14.321	1202.538	905.782
220.723	14.397	1201.591	905.400
221.738	14.463	1200.640	904.964
222.753	14.445	1200.187	904.441
223.767	14.373	1199.281	903.287
224.782	14.389	1199.019	903.098
225.796	14.548	1198.022	903.131
226.811	14.571	1197.395	902.701
227.826	14.624	1196.478	902.215
228.840	14.389	1195.975	900.486
229.855	14.562	1195.183	900.744
230.869	14.542	1194.057	899.709
231.884	14.484	1193.289	898.738
232.899	14.486	1192.818	898.315
233.913	14.559	1192.043	898.045
234.928	14.477	1191.196	896.884
235.942	14.449	1190.704	896.284
236.957	14.519	1189.829	895.923
237.972	14.579	1188.954	895.509
238.986	14.510	1188.060	894.386
240.001	14.465	1187.816	893.879
241.015	14.502	1186.737	893.186
242.030	14.583	1185.662	892.734
243.045	14.608	1184.893	892.207
244.059	14.715	1183.891	891.949
245.074	14.596	1183.332	890.809
246.088	14.707	1182.281	890.531
247.103	14.764	1181.677	890.304
248.117	14.804	1180.970	889.907
249.132	14.708	1180.183	888.723
250.147	14.905	1179.422	889.117
251.161	15.101	1178.574	889.440
252.176	14.887	1178.231	887.966
253.190	14.949	1176.952	887.254
254.205	14.979	1176.721	887.161
255.220	15.023	1176.071	886.823
256.234	15.075	1175.443	886.548
257.249	15.087	1174.362	885.718
258.263	15.052	1173.967	885.154
259.278	15.043	1173.076	884.358
260.293	15.128	1172.738	884.473
261.307	15.125	1172.258	884.020
262.322	15.179	1171.202	883.430
263.336	15.152	1171.035	883.084
264.351	15.110	1170.410	882.313
265.366	15.314	1169.458	882.587
266.380	15.182	1169.137	881.575
267.395	15.200	1168.176	880.865
268.409	15.136	1167.331	879.813
269.424	15.140	1166.781	879.344
270.439	15.168	1166.203	878.977
271.453	15.222	1165.406	878.584
272.468	15.156	1164.293	877.322
273.482	15.154	1163.815	876.873
274.497	15.140	1163.265	876.305
275.512	15.253	1162.388	876.156
276.526	15.217	1161.902	875.528
277.541	15.223	1160.871	874.705
278.555	15.296	1160.275	874.559
279.570	15.290	1159.836	874.118
280.585	15.277	1159.029	873.366
281.599	15.354	1157.966	872.886
282.614	15.299	1157.270	871.999
283.628	15.376	1155.522	871.004
284.643	15.358	1154.809	870.297
285.657	15.347	1154.136	869.655
286.672	15.337	1153.214	868.832
287.687	15.504	1152.155	868.824
288.701	15.448	1151.534	867.989
289.716	15.421	1150.791	867.212
290.730	15.427	1150.183	866.707
291.745	15.569	1149.331	866.722
292.760	15.538	1148.790	866.074
293.774	15.524	1147.977	865.314
294.789	15.539	1147.534	864.981
295.803	15.611	1146.470	864.472
296.818	15.515	1146.071	863.602
297.833	15.610	1145.267	863.406
298.847	15.548	1144.398	862.358
299.862	15.634	1143.684	862.188
300.876	15.688	1142.859	861.762
301.891	15.754	1142.059	861.423
302.906	15.687	1141.231	860.377
303.920	15.712	1141.059	860.298
304.935	15.809	1140.319	860.165
305.949	15.737	1139.478	859.086
306.964	15.856	1138.708	859.035
307.979	15.821	1137.828	858.119
308.993	15.808	1137.179	857.486
310.008	15.876	1136.455	857.212
311.022	15.855	1135.769	856.510
312.037	15.887	1134.642	855.747
313.052	15.863	1133.823	854.930
314.066	15.814	1132.803	853.837
315.081	15.747	1132.306	853.048
316.095	15.863	1131.438	852.908
317.110	15.823	1130.796	852.145
318.125	15.911	1129.514	851.547
319.139	15.790	1129.217	850.639
320.154	15.823	1128.443	850.143
321.168	15.854	1127.734	849.694
322.183	15.841	1127.349	849.260
323.197	15.845	1126.881	848.855
324.212	15.858	1126.411	848.491
325.227	15.991	1125.659	848.521
326.241	15.998	1124.734	847.783
327.256	15.907	1123.876	846.602
328.270	15.950	1122.984	846.074
329.285	15.916	1122.223	845.251
330.300	15.995	1121.196	844.798
331.314	15.829	1120.604	843.446
332.329	16.018	1119.310	843.347
333.343	16.050	1118.728	842.991
334.358	16.080	1117.726	842.311
335.373	16.135	1117.103	842.043
336.387	15.986	1116.427	840.717
337.402	16.036	1115.968	840.547
338.416	16.129	1114.769	840.032
339.431	16.147	1114.224	839.637
340.446	16.286	1113.067	839.380
341.460	16.318	1112.515	839.050
342.475	16.210	1111.848	837.937
343.489	16.309	1110.578	837.394
344.504	16.197	1110.197	836.477
345.519	16.508	1108.842	836.923
346.533	16.294	1108.442	835.489
347.548	16.314	1107.902	835.106
348.562	16.328	1107.014	834.433
349.577	16.292	1106.221	833.583
350.592	16.339	1105.475	833.177
351.606	16.283	1104.961	832.444
352.621	16.295	1103.783	831.539
353.635	16.439	1103.051	831.622
354.650	16.278	1102.559	830.385
355.665	16.263	1102.151	829.931
356.679	16.325	1101.563	829.720
357.694	16.366	1100.952	829.386
358.708	16.493	1099.923	829.160
359.723	16.420	1099.508	828.417
360.738	16.424	1098.495	827.602
361.752	16.495	1098.055	827.543
362.767	16.482	1097.256	826.805
363.781	16.502	1096.934	826.589
364.796	16.591	1096.146	826.356
365.810	16.595	1095.784	826.030
366.825	16.669	1095.163	825.847
367.840	16.696	1094.531	825.433
368.854	16.618	1093.934	824.527
369.869	16.695	1093.397	824.423
370.883	16.680	1092.429	823.549
371.898	16.668	1091.662	822.840
372.913	16.773	1091.091	822.847
373.927	16.717	1090.484	822.043
374.942	16.734	1089.807	821.546
375.956	16.930	1089.270	822.016
376.971	16.712	1088.918	820.620
377.986	16.810	1088.034	820.358
379.000	16.756	1087.751	819.811
380.015	16.782	1087.294	819.520
381.029	16.965	1086.393	819.650
382.044	16.956	1085.912	819.172
383.059	16.931	1084.783	818.128
384.073	16.902	1084.251	817.513
385.088	16.957	1083.205	816.916
386.102	16.928	1082.534	816.202
387.117	16.886	1081.489	815.139
388.132	16.930	1080.816	814.770
389.146	16.963	1079.584	813.927
390.161	16.948	1079.026	813.364
391.175	16.902	1078.387	812.587
392.190	16.917	1078.068	812.346
393.205	16.902	1077.397	811.697
394.219	16.966	1076.279	811.089
395.234	16.938	1075.715	810.460
396.248	17.073	1074.134	809.844
397.263	17.046	1072.968	808.763
398.278	16.983	1072.530	808.060
399.292	17.035	1071.465	807.433
400.307	17.036	1071.099	807.092
401.321	17.115	1070.433	806.895
402.336	17.060	1069.622	805.948
403.350	17.105	1068.959	805.590
404.365	17.036	1068.737	805.025
405.380	17.177	1067.452	804.656
406.394	17.158	1067.026	804.173
407.409	17.262	1065.938	803.775
408.423	17.201	1065.337	802.961
409.438	17.285	1064.569	802.707
410.453	17.278	1064.071	802.230
411.467	17.306	1062.800	801.329
412.482	17.399	1062.440	801.429
413.496	17.297	1061.942	800.502
414.511	17.348	1061.254	800.150
415.526	17.463	1060.983	800.417
416.540	17.452	1060.809	800.165
417.555	17.479	1059.852	799.498
418.569	17.488	1059.546	799.237
419.584	17.455	1058.745	798.405
420.599	17.508	1058.260	798.221
421.613	99.710	1318.026	1448.358
422.628	91.991	1355.865	1448.474
