DTS Sentinel unit serial number:	SN413079Multiplexer serial number:	ORYXHardware model number:	OX4-SRSoftware version number:	ORYX F/W v4.00 Oryx Data Collector v3.7.2.0data status	okinstallation	princeton_trtdifferential loss correction	single-endedforward channel	channel 2reverse channel	N/Adate	2019/09/17time	18:51:35forward acquisition time	60.00reverse acquisition time	0.00gamma	496.2192k internal	0.2298k external	0.2298temperature offset calibration	0.9985default loss term (dB/km)	0.3790temperature slope calibration	1.0000multiplexer offset coefficient	1.0000multiplexer slope coefficient	1.0000fibre end	0.00T internal ref (°C)	41.66T ext. ref 1 (°C)	0.28T ext. ref 2 (°C)	30.96length (m)	temperature (°C)	Stokes	anti-Stokes-747.200	-200.000	0.010	-0.128
-746.185	-99.091	0.086	0.022
-745.171	-55.443	-0.293	-0.134
-744.156	448.815	-0.116	0.260
-743.142	800.000	-0.065	0.216
-742.127	800.000	0.143	0.576
-741.112	-200.000	0.004	-0.206
-740.098	-32.308	0.155	0.088
-739.083	800.000	0.088	-0.315
-738.069	800.000	0.030	-0.115
-737.054	-21.883	0.160	-0.100
-736.039	317.469	-0.188	-0.362
-735.025	-200.000	0.035	-0.321
-734.010	179.614	-0.214	-0.320
-732.996	71.798	-0.151	-0.160
-731.981	724.591	0.075	-0.205
-730.966	-85.929	0.078	0.025
-729.952	-25.480	0.050	-0.030
-728.937	-200.000	-0.007	-0.176
-727.923	800.000	-0.033	-0.119
-726.908	159.361	-0.083	0.118
-725.894	-200.000	-0.014	-0.084
-724.879	800.000	0.053	0.154
-723.864	-175.236	0.019	-0.001
-722.850	-91.676	-0.193	0.056
-721.835	-20.785	0.207	-0.129
-720.821	-70.528	-0.089	0.034
-719.806	-200.000	0.067	-0.331
-718.791	-82.586	-0.365	0.121
-717.777	538.154	0.133	-0.321
-716.762	-145.469	0.196	0.018
-715.748	-48.895	0.183	-0.090
-714.733	2.426	-0.286	-0.211
-713.718	-44.379	0.046	-0.023
-712.704	721.938	-0.088	-0.239
-711.689	164.203	-0.103	0.148
-710.675	-23.325	-0.133	0.081
-709.660	327.014	-0.045	-0.089
-708.645	-24.109	0.087	-0.053
-707.631	-139.685	0.464	-0.050
-706.616	15.845	0.224	0.180
-705.602	-200.000	-0.037	-0.278
-704.587	-200.000	0.042	-0.397
-703.572	98.951	0.261	0.307
-702.558	800.000	-0.065	-0.255
-701.543	-200.000	0.021	-0.381
-700.529	800.000	-0.070	0.257
-699.514	-26.142	-0.085	-0.051
-698.499	-125.311	0.148	0.023
-697.485	800.000	0.103	0.296
-696.470	-48.443	-0.240	-0.118
-695.456	-82.623	-0.335	-0.111
-694.441	-174.612	0.117	-0.003
-693.426	-200.000	0.009	0.351
-692.412	22.612	0.089	0.074
-691.397	15.164	0.383	-0.306
-690.383	-89.194	-0.235	0.071
-689.368	-49.077	0.089	0.043
-688.354	732.545	-0.166	0.452
-687.339	-63.478	-0.196	-0.082
-686.324	431.127	0.061	0.135
-685.310	156.552	0.046	0.064
-684.295	62.382	-0.138	-0.141
-683.281	4.829	-0.169	0.126
-682.266	-177.188	-0.316	-0.008
-681.251	-38.358	-0.172	-0.093
-680.237	-23.470	-0.221	0.135
-679.222	-72.752	-0.159	-0.060
-678.208	37.962	0.108	-0.098
-677.193	-110.438	-0.346	0.073
-676.178	58.977	0.203	0.203
-675.164	32.501	0.099	0.087
-674.149	-99.793	0.161	0.041
-673.135	-200.000	-0.102	-0.000
-672.120	-75.773	0.287	-0.104
-671.105	172.123	-0.049	0.072
-670.091	-95.573	-0.332	0.091
-669.076	-100.135	-0.122	-0.031
-668.062	-132.749	-0.226	-0.029
-667.047	441.939	0.039	-0.087
-666.032	277.660	-0.135	0.244
-665.018	-149.209	0.078	-0.006
-664.003	182.771	-0.197	-0.297
-662.989	-54.918	-0.132	-0.061
-661.974	298.788	0.160	0.299
-660.959	-200.000	-0.002	-0.062
-659.945	-51.863	0.219	-0.104
-658.930	780.410	0.090	-0.251
-657.916	-200.000	0.023	0.127
-656.901	-134.373	-0.451	-0.056
-655.886	-85.391	0.080	0.025
-654.872	-176.221	-0.264	0.007
-653.857	-200.000	-0.055	-0.379
-652.843	-27.258	0.064	0.038
-651.828	735.802	0.043	0.116
-650.814	-19.521	-0.111	0.070
-649.799	107.945	-0.124	0.151
-648.784	-112.824	0.374	-0.075
-647.770	-200.000	-0.015	-0.138
-646.755	800.000	-0.037	0.135
-645.741	-200.000	0.001	-0.014
-644.726	169.705	-0.146	0.213
-643.711	-175.456	0.631	-0.018
-642.697	-8.355	0.109	-0.075
-641.682	-174.542	-0.260	-0.008
-640.668	-128.978	0.195	-0.028
-639.653	-0.749	-0.225	0.162
-638.638	-200.000	0.003	0.097
-637.624	-175.429	0.203	-0.006
-636.609	-99.842	-0.277	0.071
-635.595	-146.681	-0.163	-0.014
-634.580	-200.000	-0.007	0.262
-633.565	34.858	-0.109	-0.097
-632.551	-27.311	0.141	0.084
-631.536	-126.811	-0.239	-0.036
-630.522	800.000	0.053	0.160
-629.507	-200.000	0.023	0.154
-628.492	263.776	0.063	0.112
-627.478	368.139	-0.153	-0.315
-626.463	-14.218	-0.153	0.100
-625.449	800.000	-0.074	-0.248
-624.434	158.417	-0.076	-0.107
-623.419	53.479	0.257	0.250
-622.405	115.269	0.082	-0.102
-621.390	401.796	-0.100	0.214
-620.376	-200.000	-0.016	-0.104
-619.361	251.082	-0.120	-0.207
-618.346	35.634	0.123	-0.110
-617.332	128.461	-0.202	0.261
-616.317	59.474	-0.142	-0.142
-615.303	-44.906	0.097	0.049
-614.288	-24.152	0.160	-0.097
-613.273	-37.300	-0.386	0.210
-612.259	-147.117	-0.325	0.028
-611.244	27.704	-0.138	-0.118
-610.230	81.661	-0.263	-0.289
-609.215	-5.083	-0.179	0.125
-608.201	-149.702	-0.368	0.029
-607.186	-110.416	-0.239	-0.050
-606.171	800.000	-0.101	-0.414
-605.157	41.413	0.068	-0.062
-604.142	-200.000	0.030	-0.168
-603.128	98.789	-0.155	0.181
-602.113	120.765	-0.087	-0.110
-601.098	-152.201	0.200	0.015
-600.084	35.876	0.301	-0.269
-599.069	103.978	0.139	-0.166
-598.055	138.983	-0.078	-0.104
-597.040	129.373	0.121	-0.157
-596.025	144.021	-0.094	0.127
-595.011	800.000	0.021	-0.087
-593.996	3.691	0.171	0.126
-592.982	-141.862	0.438	0.045
-591.967	-40.430	-0.446	-0.235
-590.952	-61.952	0.408	-0.173
-589.938	21.024	0.203	-0.167
-588.923	-92.160	-0.237	0.068
-587.909	-149.089	-0.216	0.018
-586.894	285.115	-0.250	-0.457
-585.879	88.430	0.155	-0.175
-584.865	717.382	-0.125	-0.336
-583.850	42.698	-0.263	-0.243
-582.836	-30.595	0.108	-0.062
-581.821	55.445	-0.178	-0.175
-580.806	-11.399	0.152	0.102
-579.792	800.000	-0.021	-0.075
-578.777	-200.000	0.035	-0.199
-577.763	296.836	0.111	-0.206
-576.748	401.750	-0.061	-0.131
-575.733	-79.188	0.239	-0.082
-574.719	-58.104	-0.199	0.088
-573.704	-104.134	-0.181	-0.043
-572.690	800.000	0.027	0.081
-571.675	-36.833	0.203	0.110
-570.661	-200.000	0.005	0.078
-569.646	800.000	0.075	0.215
-568.631	584.683	-0.069	0.173
-567.617	27.569	0.036	-0.031
-566.602	-42.070	-0.094	-0.049
-565.588	70.116	0.050	0.052
-564.573	108.385	-0.161	0.195
-563.558	449.980	-0.166	-0.372
-562.544	-43.700	0.374	0.191
-561.529	731.632	-0.090	0.243
-560.515	-22.297	0.041	-0.025
-559.500	-200.000	-0.070	-0.399
-558.485	-147.094	-0.068	-0.006
-557.471	62.523	-0.141	0.143
-556.456	-82.026	0.046	-0.015
-555.442	-63.957	-0.315	0.130
-554.427	-125.234	-0.240	0.037
-553.412	-50.252	0.098	-0.047
-552.398	11.261	-0.050	-0.039
-551.383	-29.550	0.149	-0.086
-550.369	473.804	-0.045	0.102
-549.354	26.961	0.216	0.183
-548.339	458.885	-0.095	0.213
-547.325	-75.626	-0.148	0.053
-546.310	59.100	0.340	0.339
-545.296	388.220	-0.061	0.129
-544.281	-115.249	-0.320	-0.061
-543.266	-34.443	0.329	0.183
-542.252	315.848	0.085	-0.163
-541.237	21.066	-0.087	-0.072
-540.223	-9.971	-0.324	-0.218
-539.208	68.313	0.247	0.256
-538.193	-46.819	0.327	-0.162
-537.179	-134.587	-0.248	-0.031
-536.164	-200.000	0.033	0.162
-535.150	-100.448	0.233	0.058
-534.135	728.686	0.098	-0.266
-533.121	-75.789	-0.194	0.070
-532.106	336.683	-0.128	0.252
-531.091	454.165	-0.041	0.092
-530.077	-135.585	-0.185	-0.022
-529.062	156.560	0.143	-0.200
-528.048	-30.339	-0.192	-0.110
-527.033	-163.917	0.169	-0.008
-526.018	-182.001	0.186	0.004
-525.004	-100.216	0.132	0.033
-523.989	-77.702	-0.164	-0.057
-522.975	-178.847	0.312	0.007
-521.960	-200.000	0.053	0.334
-520.945	-13.635	-0.242	0.159
-519.931	-200.000	0.001	-0.080
-518.916	268.673	-0.038	0.068
-517.902	124.415	-0.094	-0.120
-516.887	-131.376	-0.191	-0.026
-515.872	-55.032	0.180	-0.082
-514.858	217.816	0.156	0.252
-513.843	800.000	-0.045	0.198
-512.829	360.692	-0.117	0.236
-511.814	-136.904	0.218	-0.025
-510.799	623.327	-0.054	0.137
-509.785	599.630	0.078	0.196
-508.770	-110.586	0.124	0.026
-507.756	392.173	0.175	-0.368
-506.741	-181.523	-0.116	0.002
-505.726	-127.320	-0.208	-0.031
-504.712	-70.954	-0.281	-0.107
-503.697	-46.770	0.239	-0.118
-502.683	645.271	0.096	-0.248
-501.668	-71.904	-0.236	0.089
-500.653	-19.978	0.282	0.176
-499.639	312.977	0.153	-0.292
-498.624	-86.258	0.040	-0.013
-497.610	-64.654	-0.303	-0.124
-496.595	-69.867	-0.508	-0.196
-495.581	-122.887	-0.392	0.064
-494.566	-200.000	0.004	-0.055
-493.551	6.934	-0.292	0.220
-492.537	134.277	0.310	-0.406
-491.522	-200.000	0.007	-0.107
-490.508	-200.000	-0.032	-0.256
-489.493	-51.455	0.222	0.105
-488.478	-56.559	0.240	0.107
-487.464	-15.508	0.233	0.150
-486.449	745.967	0.041	-0.111
-485.435	-120.722	-0.281	-0.048
-484.420	-15.123	0.332	-0.215
-483.405	-87.728	0.238	-0.072
-482.391	-182.702	-0.383	0.007
-481.376	800.000	0.043	-0.187
-480.362	799.979	0.063	-0.177
-479.347	712.118	-0.011	0.031
-478.332	36.089	-0.121	-0.107
-477.318	800.000	-0.063	-0.228
-476.303	402.437	0.111	0.237
-475.289	-200.000	-0.027	0.135
-474.274	513.136	-0.084	0.199
-473.259	470.695	-0.084	-0.190
-472.245	-14.835	-0.172	-0.111
-471.230	-40.752	-0.220	0.115
-470.216	84.841	-0.196	0.217
-469.201	-157.074	-0.284	0.018
-468.186	58.733	0.194	-0.192
-467.172	509.559	0.118	0.278
-466.157	-68.623	0.114	-0.045
-465.143	336.870	0.054	0.106
-464.128	47.847	-0.122	0.115
-463.113	-83.374	-0.230	-0.074
-462.099	127.917	-0.136	-0.174
-461.084	64.056	-0.133	0.135
-460.070	-79.010	0.405	0.139
-459.055	-113.235	0.187	-0.037
-458.040	-123.651	0.155	0.025
-457.026	265.845	-0.022	0.039
-456.011	-200.000	0.052	0.388
-454.997	152.663	-0.046	-0.064
-453.982	28.551	-0.449	-0.383
-452.968	319.579	-0.024	-0.047
-451.953	-37.833	-0.102	-0.055
-450.938	112.571	0.054	0.065
-449.924	128.602	-0.174	-0.224
-448.909	-107.412	0.196	0.043
-447.895	-103.426	0.189	0.045
-446.880	169.305	0.079	-0.113
-445.865	178.042	-0.175	-0.258
-444.851	93.743	0.167	0.191
-443.836	193.857	-0.085	0.129
-442.822	265.196	0.179	-0.315
-441.807	-200.000	-0.023	-0.147
-440.792	-70.604	0.109	0.042
-439.778	43.793	-0.251	0.232
-438.763	-200.000	-0.017	0.525
-437.749	58.539	-0.223	-0.221
-436.734	800.000	-0.070	-0.214
-435.719	-200.000	0.008	0.087
-434.705	320.770	-0.130	-0.249
-433.690	-143.202	-0.146	-0.014
-432.676	674.559	0.063	0.165
-431.661	53.962	-0.136	0.132
-430.646	-97.984	-0.134	0.035
-429.632	26.771	0.269	-0.227
-428.617	-110.256	0.177	-0.037
-427.603	74.766	0.123	-0.131
-426.588	-75.311	0.240	0.086
-425.573	-99.320	-0.035	-0.009
-424.559	9.213	0.113	-0.086
-423.544	-200.000	0.002	0.086
-422.530	-41.103	-0.390	0.203
-421.515	146.515	-0.242	0.328
-420.500	416.998	0.123	-0.264
-419.486	-76.436	0.057	0.020
-418.471	120.061	-0.258	0.322
-417.457	-79.522	0.408	-0.139
-416.442	14.554	0.057	0.045
-415.428	-81.581	-0.075	0.025
-414.413	126.722	0.048	-0.062
-413.398	-200.000	-0.010	0.278
-412.384	-173.955	-0.285	-0.008
-411.369	166.088	0.127	0.181
-410.355	-186.445	-0.267	-0.004
-409.340	3.386	0.136	-0.099
-408.325	-29.665	0.169	-0.097
-407.311	-200.000	0.003	0.115
-406.296	354.769	0.096	0.192
-405.282	-108.901	0.338	0.073
-404.267	-124.111	-0.125	-0.020
-403.252	183.308	0.276	-0.411
-402.238	-21.976	0.136	-0.083
-401.223	-200.000	-0.009	-0.336
-400.209	-86.897	0.300	-0.092
-399.194	113.305	-0.075	0.091
-398.179	800.000	-0.039	0.141
-397.165	-126.629	-0.325	0.049
-396.150	-200.000	-0.015	0.077
-395.136	-186.749	0.164	-0.002
-394.121	82.820	0.030	0.033
-393.106	800.000	0.108	0.378
-392.092	99.287	0.105	-0.122
-391.077	-48.818	-0.257	0.124
-390.063	-200.000	0.057	0.497
-389.048	-200.000	0.024	0.259
-388.033	94.525	0.110	-0.126
-387.019	-49.293	-0.347	-0.167
-386.004	-142.134	-0.345	0.034
-384.990	-177.460	-0.382	-0.009
-383.975	71.102	0.112	-0.117
-382.960	-200.000	-0.032	-0.242
-381.946	-200.000	0.031	-0.151
-380.931	-71.486	0.187	0.070
-379.917	-20.537	-0.200	0.124
-378.902	-4.287	0.147	-0.102
-377.888	-200.000	-0.009	-0.085
-376.873	150.428	0.132	-0.181
-375.858	153.491	-0.164	-0.227
-374.844	-200.000	0.011	0.054
-373.829	80.149	-0.330	0.357
-372.815	102.251	0.171	0.201
-371.800	-42.754	-0.134	0.069
-370.785	800.000	-0.049	0.192
-369.771	800.000	-0.008	-0.034
-368.756	-28.172	0.121	0.070
-367.742	386.845	0.115	0.240
-366.727	-39.044	-0.172	-0.091
-365.712	-23.161	0.261	0.158
-364.698	800.000	0.025	0.092
-363.683	636.559	0.040	0.101
-362.669	-200.000	0.013	-0.147
-361.654	-0.487	-0.214	-0.153
-360.639	181.903	0.083	0.124
-359.625	-70.996	0.250	0.095
-358.610	-28.268	-0.223	0.130
-357.596	475.874	-0.166	0.378
-356.581	38.745	-0.109	0.098
-355.566	-151.177	-0.114	0.009
-354.552	-32.801	0.335	0.187
-353.537	6.205	-0.184	-0.138
-352.523	140.707	0.117	-0.155
-351.508	-200.000	-0.065	-0.304
-350.493	-51.378	-0.433	-0.203
-349.479	6.323	0.212	0.158
-348.464	372.351	-0.148	-0.302
-347.450	-4.828	-0.191	0.133
-346.435	20.638	0.299	-0.243
-345.420	800.000	0.068	-0.207
-344.406	-102.738	0.121	-0.029
-343.391	166.427	0.231	0.329
-342.377	54.194	-0.262	0.253
-341.362	-103.634	0.472	0.111
-340.348	109.437	0.118	0.142
-339.333	-2.137	-0.179	0.126
-338.318	-13.435	-0.044	0.029
-337.304	-200.000	0.007	0.101
-336.289	-200.000	-0.071	0.328
-335.275	-67.632	0.165	-0.065
-334.260	800.000	-0.047	0.172
-333.245	-105.955	0.641	-0.145
-332.231	-192.236	0.441	0.004
-331.216	273.056	0.131	-0.232
-330.202	-200.000	0.002	-0.097
-329.187	40.378	-0.125	0.113
-328.172	-29.357	0.065	0.038
-327.158	-96.868	0.177	0.047
-326.143	37.758	-0.098	0.087
-325.129	-154.635	0.238	0.016
-324.114	-19.063	0.191	-0.119
-323.099	-36.888	0.197	0.106
-322.085	253.899	0.085	0.146
-321.070	-84.134	-0.236	0.075
-320.056	-200.000	0.033	0.220
-319.041	41.525	-0.254	0.231
-318.026	-17.224	0.335	-0.212
-317.012	74.089	0.231	-0.244
-315.997	23.021	0.176	-0.145
-314.983	24.487	-0.192	-0.159
-313.968	697.397	0.036	0.094
-312.953	157.090	-0.159	-0.220
-311.939	69.768	0.310	-0.321
-310.924	-200.000	0.046	-0.475
-309.910	800.000	0.012	-0.045
-308.895	291.662	0.135	-0.247
-307.880	275.124	0.080	0.142
-306.866	-135.431	-0.280	0.034
-305.851	40.564	-0.265	0.239
-304.837	-200.000	0.018	0.187
-303.822	-46.928	0.282	-0.138
-302.807	-200.000	0.009	0.173
-301.793	-50.021	0.221	-0.105
-300.778	-200.000	0.012	0.397
-299.764	-94.190	-0.060	-0.017
-298.749	-200.000	-0.023	0.236
-297.735	-34.373	-0.140	0.077
-296.720	683.360	0.090	-0.236
-295.705	35.515	-0.154	0.136
-294.691	181.305	0.032	0.048
-293.676	23.396	0.111	-0.091
-292.662	800.000	0.077	-0.322
-291.647	-200.000	-0.047	0.311
-290.632	-23.610	-0.326	0.196
-289.618	800.000	0.065	0.230
-288.603	-22.152	0.132	0.080
-287.589	-149.087	0.211	-0.017
-286.574	95.217	0.262	-0.300
-285.559	20.975	0.154	-0.125
-284.545	-20.236	-0.156	0.097
-283.530	-100.261	0.250	0.062
-282.516	-156.032	0.227	-0.014
-281.501	771.897	0.140	-0.381
-280.486	530.054	0.068	0.160
-279.472	577.589	0.083	-0.204
-278.457	-65.212	-0.128	0.052
-277.443	800.000	-0.055	-0.205
-276.428	92.358	-0.243	-0.274
-275.413	40.317	-0.207	0.187
-274.399	48.154	0.145	0.136
-273.384	-118.295	0.402	-0.072
-272.370	-14.619	-0.123	0.080
-271.355	-23.504	-0.121	0.073
-270.340	267.790	-0.117	0.206
-269.326	50.058	0.165	-0.156
-268.311	27.654	0.079	-0.066
-267.297	-99.853	0.231	0.058
-266.282	-66.865	0.286	-0.113
-265.267	-149.907	0.205	0.016
-264.253	-49.067	0.094	-0.045
-263.238	-200.000	0.041	-0.192
-262.224	-44.477	-0.290	-0.145
-261.209	-120.487	0.107	-0.018
-260.195	800.000	0.039	0.158
-259.180	291.873	0.056	0.103
-258.165	111.154	0.121	-0.146
-257.151	-200.000	0.032	0.348
-256.136	-52.391	-0.276	-0.128
-255.122	-92.958	-0.090	-0.025
-254.107	-45.656	0.147	0.073
-253.092	263.336	-0.209	0.363
-252.078	-58.260	-0.358	-0.156
-251.063	112.359	0.167	-0.202
-250.049	-169.819	0.169	0.006
-249.034	-34.554	-0.180	-0.098
-248.019	254.041	-0.114	-0.195
-247.005	-137.150	-0.434	0.050
-245.990	1.948	0.400	-0.289
-244.976	201.191	-0.079	0.122
-243.961	-37.885	0.216	-0.115
-242.946	1.819	0.017	-0.012
-241.932	2.094	0.043	-0.031
-240.917	-200.000	-0.048	0.213
-239.903	-122.597	-0.185	0.030
-238.888	800.000	-0.067	0.267
-237.873	183.904	-0.023	0.034
-236.859	-46.397	-0.165	0.081
-235.844	132.896	-0.074	0.096
-234.830	-200.000	0.010	0.093
-233.815	307.428	0.150	0.280
-232.800	-31.523	-0.303	0.171
-231.786	10.186	0.125	-0.095
-230.771	147.840	-0.143	-0.193
-229.757	-200.000	-0.049	0.345
-228.742	49.945	-0.227	0.214
-227.727	324.410	0.055	0.105
-226.713	595.063	-0.036	0.088
-225.698	800.000	0.049	0.156
-224.684	1.004	-0.203	-0.146
-223.669	-153.802	-0.106	-0.007
-222.655	84.657	0.182	-0.199
-221.640	313.977	0.143	-0.269
-220.625	-82.614	0.299	0.097
-219.611	357.053	0.209	-0.417
-218.596	-200.000	0.046	0.391
-217.582	-200.000	-0.033	-0.208
-216.567	110.319	-0.168	-0.202
-215.552	-200.000	-0.040	-0.289
-214.538	17.509	-0.125	-0.099
-213.523	-48.471	0.100	-0.048
-212.509	721.431	-0.091	-0.243
-211.494	-24.017	-0.108	0.064
-210.479	-45.849	-0.279	0.138
-209.465	20.578	0.134	0.109
-208.450	800.000	-0.057	0.233
-207.436	639.054	0.184	0.469
-206.421	-200.000	-0.019	0.195
-205.406	-200.000	-0.025	-0.167
-204.392	-200.000	-0.021	0.156
-203.377	-123.224	-0.276	0.044
-202.363	800.000	-0.049	-0.175
-201.348	-200.000	0.010	-0.099
-200.333	-100.295	0.163	-0.040
-199.319	-12.352	0.084	0.055
-198.304	-63.031	0.054	0.022
-197.290	75.899	0.097	0.102
-196.275	800.000	-0.088	-0.277
-195.260	36.638	0.180	0.159
-194.246	-160.587	0.341	0.018
-193.231	-23.803	-0.225	0.135
-192.217	-56.765	-0.280	0.124
-191.202	-176.861	0.229	0.006
-190.187	7.284	-0.117	-0.087
-189.173	-200.000	0.022	-0.221
-188.158	-154.248	-0.375	0.025
-187.144	-56.383	-0.195	0.086
-186.129	-66.256	-0.177	0.071
-185.114	418.940	0.068	-0.146
-184.100	-67.423	-0.026	0.010
-183.085	-8.895	0.111	-0.074
-182.071	86.028	-0.054	0.059
-181.056	-140.287	-0.104	0.011
-180.042	181.371	-0.216	0.318
-179.027	421.641	-0.073	0.156
-178.012	382.416	-0.087	-0.179
-176.998	-200.000	0.006	-0.288
-175.983	-125.323	-0.071	-0.011
-174.969	331.287	0.099	-0.191
-173.954	-43.575	-0.135	-0.068
-172.939	19.891	0.123	-0.099
-171.925	-200.000	-0.009	0.147
-170.910	-190.837	-0.140	-0.001
-169.896	-42.544	0.263	-0.134
-168.881	77.767	-0.091	0.097
-167.866	516.586	0.181	0.423
-166.852	-115.538	-0.145	0.027
-165.837	372.796	0.146	-0.296
-164.823	-18.015	0.419	-0.262
-163.808	-200.000	-0.037	0.206
-162.793	451.602	-0.045	-0.099
-161.779	-94.646	0.153	0.041
-160.764	-200.000	0.044	0.401
-159.750	60.537	0.255	-0.252
-158.735	2.918	-0.204	0.148
-157.720	-0.375	0.294	-0.208
-156.706	208.019	0.107	0.167
-155.691	-44.852	-0.229	-0.114
-154.677	126.775	-0.084	-0.106
-153.662	-188.255	0.216	0.003
-152.647	186.294	0.096	-0.142
-151.633	-15.599	-0.068	0.043
-150.618	99.446	-0.041	-0.048
-149.604	-200.000	-0.017	-0.155
-148.589	-8.694	0.202	-0.135
-147.574	699.856	-0.081	0.213
-146.560	-200.000	-0.019	-0.327
-145.545	-200.000	0.036	0.259
-144.531	343.725	-0.184	0.360
-143.516	-200.000	-0.015	0.329
-142.502	-51.461	0.227	-0.106
-141.487	-55.830	0.181	-0.081
-140.472	127.989	0.116	-0.147
-139.458	800.000	0.029	-0.108
-138.443	-91.163	0.090	-0.026
-137.429	-60.640	-0.186	-0.079
-136.414	800.000	-0.071	-0.254
-135.399	569.972	0.049	0.119
-134.385	-170.132	0.365	-0.013
-133.370	72.305	0.072	0.075
-132.356	-53.119	-0.289	0.132
-131.341	-200.000	0.039	0.259
-130.326	-101.913	0.086	-0.021
-129.312	-100.799	0.402	0.099
-128.297	-108.098	-0.076	0.016
-127.283	800.000	-0.034	0.129
-126.268	-200.000	0.064	-0.292
-125.253	-200.000	-0.012	-0.328
-124.239	18.870	0.185	0.147
-123.224	800.000	0.043	0.124
-122.210	-42.952	-0.102	-0.052
-121.195	-200.000	0.012	-0.132
-120.180	-10.223	0.187	-0.123
-119.166	-200.000	0.092	-0.459
-118.151	-98.239	0.126	-0.032
-117.137	-57.557	0.244	-0.107
-116.122	-169.577	-0.237	-0.009
-115.107	-126.012	0.268	0.040
-114.093	-200.000	-0.069	0.324
-113.078	-28.174	0.332	0.191
-112.064	37.645	0.179	0.158
-111.049	-142.009	0.237	-0.024
-110.034	-200.000	0.033	-0.209
-109.020	-122.609	0.128	0.021
-108.005	506.852	0.164	-0.378
-106.991	-85.990	0.198	-0.061
-105.976	448.617	0.088	0.193
-104.962	800.000	0.020	0.083
-103.947	301.638	0.195	-0.359
-102.932	38.308	0.257	-0.228
-101.918	626.203	-0.117	-0.294
-100.903	62.106	0.175	0.174
-99.889	-200.000	0.090	0.427
-98.874	30.685	0.146	-0.125
-97.859	193.580	-0.403	-0.607
-96.845	-64.996	-0.060	0.024
-95.830	-200.000	0.057	0.326
-94.816	16.223	-0.137	-0.108
-93.801	-7.179	-0.212	0.143
-92.786	388.681	0.051	0.106
-91.772	330.534	-0.023	0.044
-90.757	-130.815	0.249	0.033
-89.743	-64.019	-0.104	-0.042
-88.728	-7.252	0.296	-0.200
-87.713	-200.000	-0.031	-0.314
-86.699	265.114	-0.134	0.232
-85.684	129.638	-0.023	-0.030
-84.670	-12.514	0.077	-0.050
-83.655	-200.000	0.004	-0.379
-82.640	-200.000	-0.010	0.086
-81.626	-68.465	-0.224	-0.087
-80.611	800.000	-0.068	0.189
-79.597	-86.438	0.134	-0.041
-78.582	-152.048	0.103	0.007
-77.567	60.370	-0.153	-0.150
-76.553	-132.628	-0.157	0.020
-75.538	-200.000	-0.028	0.193
-74.524	-145.182	0.221	0.020
-73.509	1.839	0.164	-0.117
-72.494	-76.447	-0.172	0.060
-71.480	-105.289	0.497	0.113
-70.465	191.188	-0.068	0.102
-69.451	-140.636	0.164	0.017
-68.436	-185.924	0.409	-0.006
-67.422	800.000	0.071	-0.247
-66.407	-200.000	-0.087	0.000
-65.392	-39.981	0.275	0.142
-64.378	-27.324	0.174	0.101
-63.363	-200.000	-0.027	-0.130
-62.349	70.103	0.134	0.137
-61.334	87.390	-0.903	-0.994
-60.319	-92.924	0.041	-0.012
-59.305	263.650	-0.327	-0.565
-58.290	216.007	0.625	0.987
-57.276	-200.000	0.293	2.039
-56.261	-200.000	77.193	534.958
-55.246	555.474	1296.345	3101.713
-54.232	151.025	2526.309	3414.831
-53.217	112.042	2345.907	2816.812
-52.203	50.992	1971.144	1856.843
-51.188	45.023	1761.789	1612.576
-50.173	42.105	1717.146	1549.130
-49.159	56.834	1752.295	1695.830
-48.144	61.842	1770.843	1752.674
-47.130	44.941	1733.979	1586.232
-46.115	41.769	1720.316	1549.141
-45.100	41.585	1715.602	1543.413
-44.086	41.464	1713.360	1540.396
-43.071	41.498	1710.327	1537.875
-42.057	41.438	1707.813	1535.085
-41.042	41.481	1705.733	1533.486
-40.027	41.546	1703.523	1531.938
-39.013	41.590	1702.054	1530.896
-37.998	41.506	1700.328	1528.641
-36.984	41.572	1698.648	1527.575
-35.969	41.672	1696.939	1526.738
-34.954	41.612	1695.609	1525.026
-33.940	41.716	1693.170	1523.566
-32.925	41.661	1691.729	1521.790
-31.911	41.634	1689.837	1519.818
-30.896	41.602	1688.170	1518.018
-29.881	41.674	1686.541	1517.038
-28.867	41.618	1685.108	1515.261
-27.852	41.707	1683.163	1514.132
-26.838	41.705	1682.224	1513.211
-25.823	41.577	1680.886	1510.974
-24.809	41.705	1679.343	1510.501
-23.794	41.671	1677.792	1508.788
-22.779	41.609	1676.346	1506.959
-21.765	41.670	1674.597	1505.789
-20.750	41.634	1672.806	1503.842
-19.736	41.553	1671.831	1502.298
-18.721	41.730	1670.003	1501.928
-17.706	41.711	1668.354	1500.243
-16.692	41.710	1666.431	1498.448
-15.677	41.708	1665.298	1497.355
-14.663	41.660	1664.279	1496.019
-13.648	41.734	1662.508	1494.918
-12.633	41.729	1661.149	1493.604
-11.619	41.688	1659.895	1492.108
-10.604	41.693	1658.029	1490.409
-9.590	41.698	1656.543	1489.051
-8.575	41.724	1655.283	1488.050
-7.560	41.767	1653.910	1487.081
-6.546	41.668	1653.192	1485.639
-5.531	41.663	1652.142	1484.595
-4.517	41.703	1650.916	1483.736
-3.502	41.724	1649.317	1482.395
-2.487	41.819	1647.373	1481.294
-1.473	40.909	1635.136	1463.536
-0.458	36.347	1609.486	1407.355
0.556	28.169	1602.282	1345.440
1.571	23.825	1622.609	1329.958
2.586	22.012	1634.305	1325.751
3.600	19.217	1581.425	1262.287
4.615	10.854	1467.336	1114.026
5.629	2.383	1396.084	1004.408
6.644	0.387	1386.850	984.654
7.659	0.281	1384.952	982.527
8.673	0.314	1383.526	981.644
9.688	0.158	1382.093	979.521
10.702	-0.062	1379.597	976.242
11.717	3.381	1385.239	1002.571
12.731	11.578	1398.031	1065.378
13.746	16.869	1405.363	1105.469
14.761	17.247	1404.127	1106.864
15.775	16.411	1401.624	1099.353
16.790	15.396	1398.832	1090.474
17.804	14.544	1396.736	1083.214
18.819	14.092	1395.300	1079.069
19.834	13.789	1394.050	1076.043
20.848	13.575	1392.591	1073.436
21.863	13.337	1391.025	1070.593
22.877	13.106	1390.300	1068.448
23.892	13.014	1389.422	1067.084
24.907	13.170	1388.381	1067.192
25.921	13.128	1387.133	1065.869
26.936	13.224	1386.676	1066.047
27.950	13.179	1385.776	1064.970
28.965	13.300	1384.531	1064.697
29.980	13.321	1384.080	1064.388
30.994	13.284	1383.606	1063.691
32.009	13.453	1381.907	1063.379
33.023	13.327	1381.036	1061.805
34.038	13.275	1379.819	1060.441
35.053	13.336	1378.248	1059.532
36.067	13.356	1377.141	1058.718
37.082	13.347	1376.359	1057.962
38.096	13.407	1375.433	1057.542
39.111	13.392	1374.474	1056.616
40.126	13.265	1373.779	1055.178
41.140	13.177	1372.884	1053.832
42.155	13.105	1372.636	1053.090
43.169	13.143	1372.221	1052.923
44.184	13.188	1371.705	1052.718
45.199	13.167	1371.707	1052.494
46.213	13.166	1371.237	1052.037
47.228	13.150	1370.345	1051.152
48.242	13.231	1368.869	1050.443
49.257	13.245	1367.517	1049.405
50.271	13.215	1365.602	1047.652
51.286	13.202	1364.627	1046.728
52.301	13.283	1363.278	1046.115
53.315	13.199	1362.354	1044.779
54.330	13.206	1361.191	1043.841
55.344	13.196	1359.895	1042.691
56.359	13.176	1358.797	1041.632
57.374	13.184	1358.031	1041.001
58.388	13.262	1356.650	1040.339
59.403	13.077	1356.423	1038.908
60.417	13.200	1355.348	1038.772
61.432	13.251	1354.219	1038.134
62.447	13.093	1353.838	1036.756
63.461	13.104	1352.849	1035.979
64.476	13.037	1351.963	1034.786
65.490	13.136	1350.067	1033.866
66.505	13.096	1349.096	1032.780
67.520	13.183	1347.268	1031.828
68.534	13.152	1346.636	1031.063
69.549	13.125	1345.581	1029.993
70.563	13.047	1344.871	1028.876
71.578	13.161	1343.247	1028.252
72.593	13.050	1342.360	1026.787
73.607	12.957	1341.640	1025.571
74.622	12.953	1340.785	1024.803
75.636	13.001	1339.941	1024.361
76.651	13.052	1339.205	1024.025
77.666	13.109	1338.346	1023.634
78.680	13.045	1338.309	1023.118
79.695	13.052	1337.205	1022.226
80.709	13.043	1336.467	1021.512
81.724	13.091	1335.518	1020.996
82.739	13.169	1334.345	1020.493
83.753	13.136	1333.407	1019.478
84.768	13.323	1332.078	1019.527
85.782	13.300	1331.249	1018.659
86.797	13.240	1329.782	1017.079
87.812	13.205	1328.747	1015.982
88.826	13.185	1327.506	1014.818
89.841	13.204	1326.468	1014.050
90.855	13.195	1325.711	1013.327
91.870	13.319	1324.758	1013.274
92.884	13.350	1323.372	1012.308
93.899	13.252	1323.182	1011.477
94.914	13.304	1322.093	1010.873
95.928	13.371	1321.362	1010.632
96.943	13.309	1320.520	1009.523
97.957	13.393	1319.190	1008.924
98.972	13.259	1318.413	1007.427
99.987	13.213	1317.911	1006.676
101.001	13.342	1316.085	1005.976
102.016	13.244	1315.389	1004.760
103.030	13.320	1314.663	1004.575
104.045	13.292	1313.759	1003.626
105.060	13.307	1312.346	1002.549
106.074	13.213	1310.962	1000.832
107.089	13.220	1309.632	999.775
108.103	13.139	1308.440	998.284
109.118	13.146	1307.587	997.590
110.133	13.116	1305.859	996.000
111.147	13.161	1304.832	995.403
112.162	13.180	1303.422	994.348
113.176	13.301	1301.817	993.763
114.191	13.144	1301.475	992.470
115.206	13.228	1299.904	991.691
116.220	13.153	1298.991	990.459
117.235	13.317	1297.596	990.291
118.249	13.173	1297.062	988.934
119.264	13.144	1295.947	987.818
120.279	13.257	1294.379	987.211
121.293	13.180	1293.767	986.201
122.308	13.178	1292.332	985.007
123.322	13.117	1291.618	984.013
124.337	13.138	1290.455	983.164
125.352	13.129	1289.278	982.129
126.366	13.131	1288.336	981.330
127.381	13.195	1286.834	980.484
128.395	13.206	1285.815	979.687
129.410	13.234	1285.179	979.277
130.424	13.186	1284.136	978.114
131.439	13.360	1283.195	978.337
132.454	13.132	1282.478	976.358
133.468	13.297	1281.052	976.159
134.483	13.260	1280.847	975.699
135.497	13.275	1279.712	974.835
136.512	13.282	1278.145	973.600
137.527	13.300	1276.750	972.552
138.541	13.243	1275.752	971.373
139.556	13.394	1274.000	970.838
140.570	13.389	1272.980	969.948
141.585	13.381	1271.800	968.915
142.600	13.385	1270.566	967.912
143.614	13.484	1269.826	967.844
144.629	13.460	1268.602	966.681
145.643	13.335	1267.811	965.269
146.658	13.479	1265.813	964.499
147.673	13.324	1265.058	962.937
148.687	13.349	1263.628	961.907
149.702	13.327	1262.367	960.735
150.716	13.307	1261.002	959.495
151.731	13.325	1259.807	958.603
152.746	13.450	1258.348	958.137
153.760	13.326	1257.279	956.519
154.775	13.363	1256.277	955.887
155.789	13.439	1255.091	955.339
156.804	13.444	1253.766	954.271
157.819	13.400	1253.064	953.400
158.833	13.465	1252.126	952.976
159.848	13.541	1250.776	952.301
160.862	13.524	1250.242	951.712
161.877	13.501	1248.768	950.373
162.892	13.496	1247.557	949.341
163.906	13.506	1246.562	948.555
164.921	13.406	1245.825	947.341
165.935	13.493	1245.015	947.139
166.950	13.490	1244.101	946.341
167.964	13.547	1243.371	946.031
168.979	13.504	1242.639	945.143
169.994	13.480	1242.139	944.539
171.008	13.613	1240.962	944.321
172.023	13.575	1240.353	943.556
173.037	13.661	1239.275	943.143
174.052	13.740	1238.651	943.036
175.067	13.606	1237.403	941.237
176.081	13.576	1236.553	940.340
177.096	13.540	1235.952	939.596
178.110	13.542	1234.970	938.777
179.125	13.584	1233.397	937.733
180.140	13.620	1232.261	936.994
181.154	13.629	1231.120	936.094
182.169	13.654	1229.985	935.288
183.183	13.648	1228.705	934.200
184.198	13.736	1227.492	933.689
185.213	13.707	1226.524	932.708
186.227	13.817	1225.140	932.187
187.242	13.813	1224.415	931.530
188.256	13.908	1222.878	930.814
189.271	13.912	1222.076	930.142
190.286	13.752	1220.942	928.302
191.300	13.604	1220.518	927.069
192.315	13.642	1219.526	926.448
193.329	13.613	1219.335	926.056
194.344	13.658	1218.335	925.464
195.359	13.831	1217.713	925.878
196.373	13.856	1217.263	925.595
197.388	13.761	1216.615	924.491
198.402	13.864	1216.211	924.673
199.417	13.975	1215.304	924.521
200.432	13.918	1214.319	923.370
201.446	14.011	1213.505	923.185
202.461	14.121	1212.599	923.030
203.475	14.054	1211.623	921.829
204.490	14.022	1210.069	920.390
205.504	13.994	1209.120	919.431
206.519	13.960	1208.124	918.404
207.534	13.964	1207.102	917.569
208.548	13.972	1205.968	916.669
209.563	13.991	1205.203	916.111
210.577	13.966	1204.182	915.120
211.592	14.056	1203.539	915.044
212.607	14.104	1202.468	914.414
213.621	14.162	1201.711	914.074
214.636	14.232	1200.462	913.427
215.650	14.128	1199.381	911.957
216.665	14.250	1198.807	912.107
217.680	14.160	1198.040	910.950
218.694	14.266	1196.847	910.539
219.709	14.264	1196.425	910.127
220.723	14.289	1195.247	909.286
221.738	14.180	1195.097	908.501
222.753	14.189	1194.128	907.728
223.767	14.158	1193.611	907.088
224.782	14.296	1192.644	907.023
225.796	14.339	1191.984	906.676
226.811	14.403	1191.412	906.512
227.826	14.390	1190.702	905.820
228.840	14.426	1189.821	905.265
229.855	14.318	1189.347	904.235
230.869	14.337	1188.524	903.636
231.884	14.360	1187.549	902.936
232.899	14.293	1186.614	901.785
233.913	14.232	1185.987	900.898
234.928	14.455	1184.659	901.011
235.942	14.269	1184.598	899.884
236.957	14.327	1183.471	899.263
237.972	14.344	1182.781	898.750
238.986	14.298	1182.311	898.065
240.001	14.297	1181.405	897.289
241.015	14.422	1180.372	897.097
242.030	14.286	1180.112	896.089
243.045	14.503	1178.645	896.066
244.059	14.502	1177.978	895.473
245.074	14.485	1177.136	894.661
246.088	14.493	1176.760	894.339
247.103	14.518	1175.631	893.534
248.117	14.590	1174.678	893.118
249.132	14.602	1174.359	892.861
250.147	14.630	1173.589	892.343
251.161	14.773	1172.537	892.228
252.176	14.846	1171.512	891.763
253.190	14.682	1171.631	890.900
254.205	14.913	1170.666	891.318
255.220	14.860	1170.493	890.826
256.234	14.892	1169.665	890.284
257.249	14.928	1168.907	889.820
258.263	14.781	1168.348	888.536
259.278	14.946	1167.712	888.852
260.293	14.946	1166.903	888.152
261.307	14.973	1166.852	888.183
262.322	14.901	1165.977	887.056
263.336	14.959	1165.196	886.687
264.351	15.034	1164.107	886.181
265.366	15.000	1164.255	886.033
266.380	14.828	1163.674	884.602
267.395	14.971	1162.278	884.219
268.409	14.989	1161.586	883.712
269.424	15.077	1160.738	883.449
270.439	14.971	1160.495	882.629
271.453	14.964	1159.741	881.939
272.468	14.900	1158.827	880.829
273.482	14.972	1158.006	880.508
274.497	15.068	1157.127	880.263
275.512	15.014	1156.511	879.436
276.526	15.029	1155.860	878.939
277.541	15.000	1154.944	878.015
278.555	15.083	1154.209	877.812
279.570	15.083	1153.486	877.183
280.585	15.116	1152.715	876.695
281.599	15.160	1151.652	876.037
282.614	15.169	1150.686	875.272
283.628	15.166	1149.463	874.247
284.643	15.164	1148.662	873.551
285.657	15.225	1147.594	872.981
286.672	15.218	1146.959	872.385
287.687	15.249	1145.804	871.591
288.701	15.225	1145.283	870.991
289.716	15.280	1144.320	870.469
290.730	15.251	1143.974	869.975
291.745	15.356	1143.052	869.744
292.760	15.389	1142.186	869.180
293.774	15.389	1141.708	868.740
294.789	15.415	1141.836	868.895
295.803	15.388	1140.787	867.877
296.818	15.406	1139.843	867.175
297.833	15.296	1138.913	865.822
298.847	15.353	1138.239	865.527
299.862	15.298	1137.455	864.570
300.876	15.407	1136.870	864.611
301.891	15.453	1136.377	864.400
302.906	15.523	1135.548	864.050
303.920	15.669	1134.282	863.763
304.935	15.534	1134.202	862.929
305.949	15.579	1133.504	862.553
306.964	15.634	1132.574	862.051
307.979	15.618	1132.300	861.687
308.993	15.587	1131.411	860.772
310.008	15.568	1130.341	859.785
311.022	15.689	1129.579	859.751
312.037	15.563	1128.881	858.498
313.052	15.674	1127.726	858.108
314.066	15.577	1126.891	856.905
315.081	15.644	1126.099	856.570
316.095	15.606	1125.298	855.688
317.110	15.619	1124.545	855.110
318.125	15.715	1123.782	854.941
319.139	15.618	1123.258	853.971
320.154	15.675	1122.690	853.753
321.168	15.580	1121.857	852.562
322.183	15.722	1121.136	852.660
323.197	15.790	1120.358	852.340
324.212	15.675	1120.205	851.562
325.227	15.623	1119.413	850.625
326.241	15.730	1118.662	850.518
327.256	15.754	1117.764	849.882
328.270	15.838	1116.732	849.444
329.285	15.742	1116.100	848.407
330.300	15.751	1115.376	847.827
331.314	15.713	1114.523	846.911
332.329	15.792	1113.639	846.559
333.343	15.745	1112.432	845.333
334.358	15.831	1111.451	844.945
335.373	15.857	1111.271	844.863
336.387	15.812	1110.161	843.720
337.402	15.854	1109.380	843.259
338.416	16.014	1108.458	843.288
339.431	16.089	1107.808	843.094
340.446	15.999	1107.461	842.304
341.460	16.145	1106.333	842.099
342.475	16.091	1105.748	841.311
343.489	16.089	1104.933	840.608
344.504	16.071	1104.147	839.846
345.519	16.194	1102.897	839.430
346.533	16.247	1102.159	839.057
347.548	16.272	1101.279	838.438
348.562	16.261	1100.711	837.880
349.577	16.035	1100.411	836.455
350.592	16.150	1099.310	836.114
351.606	16.099	1098.639	835.277
352.621	16.059	1097.842	834.400
353.635	16.084	1097.245	833.996
354.650	16.074	1096.277	833.137
355.665	16.287	1095.787	833.743
356.679	16.231	1095.201	832.946
357.694	16.199	1094.524	832.200
358.708	16.204	1093.920	831.689
359.723	16.306	1093.293	831.643
360.738	16.241	1092.977	831.007
361.752	16.258	1092.292	830.499
362.767	16.343	1091.882	830.530
363.781	16.258	1091.189	829.514
364.796	16.346	1090.178	829.101
365.810	16.426	1089.642	829.014
366.825	16.417	1089.376	828.692
367.840	16.441	1088.792	828.296
368.854	16.511	1088.078	828.018
369.869	16.595	1087.126	827.634
370.883	16.457	1086.226	826.203
371.898	16.474	1085.548	825.696
372.913	16.511	1084.927	825.331
373.927	16.453	1084.731	824.823
374.942	16.527	1083.988	824.547
375.956	16.675	1083.428	824.770
376.971	16.576	1083.129	823.987
377.986	16.572	1082.604	823.495
379.000	16.631	1082.054	823.290
380.015	16.745	1081.012	822.982
381.029	16.629	1080.563	822.003
382.044	16.670	1079.841	821.578
383.059	16.762	1079.049	821.350
384.073	16.693	1078.251	820.337
385.088	16.732	1077.764	820.083
386.102	16.693	1076.937	819.190
387.117	16.740	1075.705	818.406
388.132	16.672	1074.825	817.335
389.146	16.676	1073.937	816.608
390.161	16.804	1073.313	816.681
391.175	16.830	1072.194	815.880
392.190	16.848	1071.580	815.430
393.205	16.905	1071.052	815.227
394.219	16.814	1070.761	814.499
395.234	16.861	1069.449	813.655
396.248	16.855	1068.267	812.651
397.263	16.852	1066.932	811.552
398.278	16.824	1066.247	810.827
399.292	16.801	1065.974	810.434
400.307	16.776	1065.273	809.711
401.321	16.826	1064.334	809.163
402.336	16.796	1064.004	808.696
403.350	16.900	1062.965	808.335
404.365	16.861	1062.686	807.862
405.380	16.955	1061.680	807.473
406.394	16.820	1061.085	806.308
407.409	17.009	1060.198	806.463
408.423	17.083	1059.221	805.998
409.438	17.064	1058.661	805.409
410.453	17.012	1058.175	804.726
411.467	16.998	1057.492	804.068
412.482	17.119	1056.850	804.082
413.496	17.208	1055.881	803.694
414.511	17.236	1055.507	803.469
415.526	17.327	1055.149	803.558
416.540	17.336	1054.756	803.226
417.555	17.444	1053.961	803.062
418.569	17.242	1053.443	801.641
419.584	17.328	1052.895	801.562
420.599	17.181	1052.601	800.573
421.613	85.986	1295.340	1366.753
422.628	79.161	1330.714	1366.872
