DTS Sentinel unit serial number:	SN413079Multiplexer serial number:	ORYXHardware model number:	OX4-SRSoftware version number:	ORYX F/W v4.00 Oryx Data Collector v3.7.2.0data status	okinstallation	princeton_trtdifferential loss correction	single-endedforward channel	channel 2reverse channel	N/Adate	2019/09/13time	08:07:34forward acquisition time	60.00reverse acquisition time	0.00gamma	496.2192k internal	0.2334k external	0.2334temperature offset calibration	1.0190default loss term (dB/km)	0.3790temperature slope calibration	1.0000multiplexer offset coefficient	1.0000multiplexer slope coefficient	1.0000fibre end	0.00T internal ref (°C)	27.00T ext. ref 1 (°C)	4.26T ext. ref 2 (°C)	23.22length (m)	temperature (°C)	Stokes	anti-Stokes-747.200	800.000	-0.117	-0.327
-746.185	-200.000	0.011	0.156
-745.171	10.884	0.084	-0.064
-744.156	-200.000	-0.010	0.295
-743.142	-10.905	-0.112	0.074
-742.127	-123.232	-0.315	-0.051
-741.112	274.299	-0.031	0.056
-740.098	24.503	-0.243	0.202
-739.083	26.864	0.149	0.126
-738.069	-200.000	-0.050	0.484
-737.054	800.000	-0.044	0.129
-736.039	-115.939	-0.422	0.079
-735.025	-131.444	0.343	-0.046
-734.010	-200.000	-0.044	-0.299
-732.996	-20.516	-0.207	0.128
-731.981	-123.189	-0.198	0.032
-730.966	-34.348	0.286	-0.158
-729.952	-96.943	-0.397	-0.105
-728.937	-69.775	-0.446	0.171
-727.923	-79.367	0.256	0.087
-726.908	-29.564	-0.193	0.111
-725.894	-200.000	0.014	0.134
-724.879	182.978	-0.109	-0.162
-723.864	108.163	-0.085	-0.102
-722.850	-198.472	-0.151	0.001
-721.835	-150.431	-0.127	0.010
-720.821	-200.000	0.038	-0.181
-719.806	70.203	-0.232	-0.241
-718.791	-200.000	-0.012	0.305
-717.777	130.224	0.115	-0.148
-716.762	241.967	-0.136	0.228
-715.748	-200.000	0.027	0.131
-714.733	781.775	-0.045	0.124
-713.718	-200.000	0.040	0.195
-712.704	76.459	0.134	-0.143
-711.689	172.341	-0.032	-0.046
-710.675	-200.000	-0.052	0.295
-709.660	-200.000	0.026	0.319
-708.645	-58.730	-0.131	0.057
-707.631	33.773	-0.086	-0.075
-706.616	-181.678	-0.075	0.001
-705.602	-112.745	0.149	0.030
-704.587	207.445	-0.063	-0.098
-703.572	36.133	-0.033	0.029
-702.558	-40.722	0.248	-0.129
-701.543	-200.000	-0.047	0.284
-700.529	48.499	-0.243	0.228
-699.514	14.623	-0.066	0.052
-698.499	146.151	0.142	0.191
-697.485	-96.254	-0.412	0.110
-696.470	104.288	-0.180	0.212
-695.456	12.276	0.150	0.116
-694.441	-79.598	-0.166	0.056
-693.426	-65.522	0.184	-0.074
-692.412	-86.731	-0.156	0.048
-691.397	128.394	0.045	-0.058
-690.383	291.593	-0.083	0.152
-689.368	10.847	0.161	0.123
-688.354	-55.492	-0.295	0.133
-687.339	-17.890	-0.169	-0.106
-686.324	371.870	-0.095	0.193
-685.310	-200.000	-0.017	0.313
-684.295	-117.975	-0.344	0.062
-683.281	-200.000	-0.037	0.167
-682.266	98.104	0.019	-0.022
-681.251	67.592	0.088	-0.091
-680.237	399.534	-0.100	0.210
-679.222	-126.507	-0.188	-0.028
-678.208	-31.487	-0.189	-0.107
-677.193	718.422	0.187	-0.497
-676.178	800.000	-0.099	0.274
-675.164	-45.576	-0.260	-0.129
-674.149	-116.348	-0.235	-0.044
-673.135	800.000	0.030	-0.129
-672.120	87.308	-0.243	-0.270
-671.105	-169.969	0.240	-0.009
-670.091	-200.000	0.053	0.336
-669.076	280.473	0.193	-0.345
-668.062	-200.000	-0.074	0.560
-667.047	-122.937	0.225	0.036
-666.032	-150.534	-0.286	-0.022
-665.018	800.000	0.038	-0.145
-664.003	262.346	-0.071	0.123
-662.989	-27.328	0.218	0.127
-661.974	-17.459	-0.149	-0.094
-660.959	-145.804	-0.231	-0.021
-659.945	-134.103	0.209	-0.026
-658.930	-110.389	-0.210	-0.044
-657.916	-145.479	0.083	-0.007
-656.901	335.138	0.020	-0.039
-655.886	251.136	-0.079	0.135
-654.872	122.022	0.101	0.126
-653.857	-61.515	-0.252	-0.106
-652.843	131.844	-0.154	-0.198
-651.828	800.000	-0.048	0.196
-650.814	690.787	-0.073	0.190
-649.799	-200.000	-0.023	0.141
-648.784	13.655	0.145	0.113
-647.770	135.706	-0.055	0.071
-646.755	-200.000	-0.018	-0.171
-645.741	800.000	-0.047	-0.169
-644.726	-200.000	0.026	-0.204
-643.711	-1.976	0.259	-0.182
-642.697	89.512	0.219	-0.245
-641.682	-86.397	-0.329	0.101
-640.668	-81.054	0.481	0.159
-639.653	-200.000	-0.021	0.190
-638.638	115.322	-0.136	0.166
-637.624	234.315	0.028	-0.046
-636.609	-200.000	-0.008	-0.141
-635.595	-114.513	-0.381	-0.073
-634.580	-89.202	0.171	0.051
-633.565	485.498	-0.070	0.160
-632.551	-200.000	-0.001	-0.111
-631.536	-136.986	-0.330	0.038
-630.522	-34.990	0.181	-0.099
-629.507	800.000	-0.039	0.128
-628.492	50.941	0.260	0.246
-627.478	107.469	-0.210	-0.250
-626.463	-200.000	0.107	-0.507
-625.449	24.320	0.196	-0.162
-624.434	234.335	-0.148	0.244
-623.419	-36.879	-0.021	-0.011
-622.405	93.404	-0.077	-0.087
-621.390	800.000	-0.015	0.056
-620.376	-40.690	0.166	-0.086
-619.361	90.021	0.059	0.066
-618.346	-35.299	-0.177	-0.096
-617.332	-103.066	0.088	0.021
-616.317	-33.118	-0.081	0.045
-615.303	115.760	0.249	0.305
-614.288	800.000	-0.087	0.281
-613.273	175.982	-0.238	0.345
-612.259	-159.713	-0.172	-0.009
-611.244	800.000	0.048	-0.187
-610.230	93.199	-0.129	0.145
-609.215	-200.000	0.017	-0.519
-608.201	-95.683	-0.138	0.037
-607.186	-33.334	0.049	0.027
-606.171	85.597	0.110	-0.121
-605.157	27.067	0.378	-0.317
-604.142	-54.609	0.218	0.099
-603.128	-147.960	-0.176	0.015
-602.113	-72.666	0.435	0.160
-601.098	63.143	0.092	-0.092
-600.084	-11.468	0.221	0.145
-599.069	-200.000	0.028	0.131
-598.055	7.558	-0.310	-0.232
-597.040	-34.793	0.111	-0.061
-596.025	615.191	-0.034	0.085
-595.011	-35.098	-0.312	0.170
-593.996	266.364	-0.156	0.273
-592.982	-200.000	-0.069	0.304
-591.967	-175.829	0.072	-0.002
-590.952	-96.209	-0.136	0.036
-589.938	800.000	0.059	-0.168
-588.923	-200.000	-0.005	0.082
-587.909	-102.434	-0.115	0.027
-586.894	204.588	-0.049	-0.077
-585.879	432.406	-0.061	0.133
-584.865	117.597	0.256	0.314
-583.850	800.000	-0.057	-0.175
-582.836	470.201	0.133	0.298
-581.821	706.838	-0.021	0.056
-580.806	-40.093	0.368	-0.192
-579.792	-26.277	-0.254	0.149
-578.777	-200.000	0.019	-0.137
-577.763	-111.449	0.087	-0.018
-576.748	-199.076	0.307	-0.002
-575.733	-125.736	0.067	-0.010
-574.719	-200.000	0.037	0.415
-573.704	458.641	0.103	0.228
-572.690	-162.285	-0.336	0.017
-571.675	800.000	0.068	0.253
-570.661	489.113	-0.056	-0.127
-569.646	-82.190	0.319	0.104
-568.631	-72.815	-0.224	-0.082
-567.617	800.000	0.096	-0.283
-566.602	91.029	-0.150	-0.168
-565.588	-129.990	0.275	0.038
-564.573	17.630	-0.136	0.108
-563.558	33.293	0.297	0.258
-562.544	800.000	-0.006	0.024
-561.529	800.000	-0.017	0.052
-560.515	-200.000	-0.079	0.352
-559.500	222.146	0.056	-0.091
-558.485	-77.322	-0.206	-0.071
-557.471	11.306	-0.201	0.154
-556.456	242.689	0.142	0.238
-555.442	413.319	0.055	-0.116
-554.427	556.517	0.081	-0.195
-553.412	329.709	-0.122	-0.235
-552.398	296.008	0.045	-0.082
-551.383	-172.448	0.399	0.013
-550.369	800.000	-0.126	0.432
-549.354	388.827	0.050	0.104
-548.339	-46.778	-0.454	0.222
-547.325	-34.041	0.103	0.057
-546.310	456.355	0.059	0.131
-545.296	-200.000	-0.006	0.080
-544.281	-113.303	-0.072	0.014
-543.266	481.272	0.036	0.082
-542.252	800.000	0.020	0.082
-541.237	74.196	-0.211	-0.221
-540.223	800.000	-0.045	0.150
-539.208	-5.671	-0.355	0.243
-538.193	125.697	-0.127	-0.160
-537.179	-36.431	-0.235	0.126
-536.164	-112.126	0.543	-0.109
-535.150	-200.000	0.016	0.081
-534.135	-200.000	-0.004	0.131
-533.121	12.195	0.045	-0.035
-532.106	-200.000	-0.009	0.119
-531.091	800.000	0.069	0.191
-530.077	-200.000	0.022	-0.364
-529.062	-100.915	-0.403	-0.099
-528.048	-200.000	0.011	-0.073
-527.033	-77.590	0.156	0.054
-526.018	94.500	-0.129	0.146
-525.004	100.660	-0.035	0.041
-523.989	-118.224	0.269	-0.048
-522.975	-121.115	-0.286	-0.048
-521.960	-122.200	-0.103	0.017
-520.945	336.356	-0.091	-0.176
-519.931	643.536	-0.060	-0.153
-518.916	-13.273	-0.379	-0.245
-517.902	-200.000	0.014	0.144
-516.887	-105.902	-0.026	-0.006
-515.872	-176.351	-0.136	0.004
-514.858	-200.000	0.008	0.097
-513.843	537.029	-0.092	0.218
-512.829	-200.000	-0.067	-0.386
-511.814	800.000	-0.026	-0.094
-510.799	800.000	0.050	-0.172
-509.785	-13.408	0.201	0.130
-508.770	242.738	-0.017	0.028
-507.756	-200.000	-0.061	0.390
-506.741	421.352	-0.041	-0.088
-505.726	561.164	0.064	-0.154
-504.712	-119.377	0.305	-0.053
-503.697	155.693	-0.247	-0.338
-502.683	195.128	-0.112	0.169
-501.668	-111.760	-0.209	0.042
-500.653	-140.333	-0.200	0.021
-499.639	798.651	-0.151	-0.414
-498.624	-200.000	-0.051	0.232
-497.610	-154.330	0.336	0.023
-496.595	-121.237	0.333	0.055
-495.581	29.653	-0.083	0.071
-494.566	-45.739	-0.214	-0.105
-493.551	-50.101	0.013	-0.006
-492.537	-180.012	-0.393	0.008
-491.522	-200.000	-0.024	-0.225
-490.508	91.497	0.084	-0.094
-489.493	800.000	0.036	-0.135
-488.478	12.475	0.112	0.086
-487.464	-200.000	-0.031	0.193
-486.449	-69.264	-0.197	0.075
-485.435	-119.995	0.228	-0.039
-484.420	-97.813	0.296	-0.076
-483.405	374.183	0.062	-0.125
-482.391	-159.916	-0.183	0.010
-481.376	-137.316	-0.301	-0.034
-480.362	-87.172	0.119	0.036
-479.347	129.320	0.188	0.239
-478.332	170.959	-0.044	0.062
-477.318	213.204	-0.129	0.203
-476.303	-58.187	0.273	-0.118
-475.289	-13.022	-0.264	-0.171
-474.274	-174.234	-0.118	-0.003
-473.259	-200.000	0.014	-0.317
-472.245	212.772	-0.228	0.358
-471.230	-164.670	0.082	0.004
-470.216	-92.047	-0.230	-0.065
-469.201	-91.371	-0.232	0.066
-468.186	180.990	0.059	0.087
-467.172	26.941	0.279	-0.233
-466.157	-200.000	0.003	-0.171
-465.143	147.169	0.164	-0.220
-464.128	82.352	0.234	0.253
-463.113	12.954	-0.120	-0.092
-462.099	-66.531	-0.266	0.105
-461.084	120.802	-0.310	-0.383
-460.070	-200.000	0.033	0.316
-459.055	-200.000	-0.015	0.148
-458.040	-200.000	0.065	-0.413
-457.026	800.000	-0.051	-0.161
-456.011	800.000	0.085	-0.260
-454.997	6.870	-0.368	0.272
-453.982	-165.239	0.105	0.005
-452.968	120.703	0.170	0.210
-451.953	113.125	0.091	0.109
-450.938	275.205	-0.103	0.182
-449.924	-116.822	-0.201	-0.037
-448.909	141.682	0.312	-0.411
-447.895	-111.988	0.099	-0.020
-446.880	-67.070	0.158	0.062
-445.865	618.173	-0.131	0.326
-444.851	367.036	-0.043	-0.087
-443.836	54.631	0.245	-0.235
-442.822	-200.000	-0.028	0.225
-441.807	724.073	-0.040	0.106
-440.792	-200.000	0.016	-0.080
-439.778	-88.713	-0.060	-0.018
-438.763	-44.367	0.202	-0.101
-437.749	-200.000	0.034	-0.432
-436.734	-56.056	-0.242	0.107
-435.719	-200.000	-0.025	-0.361
-434.705	-87.382	-0.143	0.043
-433.690	5.635	-0.141	0.104
-432.676	-12.412	0.133	-0.086
-431.661	-110.743	-0.274	-0.056
-430.646	800.000	-0.029	0.104
-429.632	50.356	-0.112	0.105
-428.617	-200.000	0.003	-0.179
-427.603	234.216	0.118	0.193
-426.588	-174.290	-0.130	-0.004
-425.573	800.000	0.083	-0.267
-424.559	-97.772	0.108	0.028
-423.544	105.264	-0.204	-0.239
-422.530	-200.000	-0.014	-0.075
-421.515	-200.000	-0.038	-0.394
-420.500	78.720	-0.114	-0.121
-419.486	-129.896	0.401	0.055
-418.471	92.041	0.174	0.194
-417.457	-178.065	0.415	-0.010
-416.442	517.113	-0.136	-0.315
-415.428	-6.629	0.123	0.083
-414.413	-169.009	0.513	-0.019
-413.398	-129.166	-0.191	0.026
-412.384	-188.517	-0.106	0.001
-411.369	754.325	-0.069	-0.185
-410.355	-174.477	0.225	-0.006
-409.340	-47.387	-0.276	0.133
-408.325	-200.000	0.023	0.465
-407.311	-62.696	-0.163	-0.067
-406.296	800.000	0.072	0.233
-405.282	191.173	0.138	0.206
-404.267	-100.481	0.190	0.047
-403.252	-114.443	-0.172	-0.033
-402.238	-200.000	-0.015	-0.090
-401.223	216.628	0.144	-0.227
-400.209	271.552	0.097	0.170
-399.194	-100.198	-0.100	0.025
-398.179	83.590	-0.143	-0.155
-397.165	-121.715	0.186	0.031
-396.150	-178.457	-0.375	-0.009
-395.136	-11.357	-0.123	-0.081
-394.121	-134.837	-0.275	-0.033
-393.106	800.000	-0.053	-0.199
-392.092	-98.678	-0.152	0.039
-391.077	-148.990	-0.245	0.020
-390.063	158.820	0.091	0.125
-389.048	-200.000	0.012	0.549
-388.033	165.641	0.228	-0.320
-387.019	753.315	-0.118	0.317
-386.004	32.049	-0.204	0.174
-384.990	311.071	0.122	-0.226
-383.975	12.390	-0.016	0.012
-382.960	49.040	-0.081	-0.075
-381.946	-51.780	-0.161	0.074
-380.931	484.842	0.076	0.172
-379.917	365.663	0.063	-0.126
-378.902	-41.918	0.126	-0.064
-377.888	-82.811	-0.190	-0.061
-376.873	-87.309	0.130	0.039
-375.858	93.915	-0.118	0.132
-374.844	185.056	-0.175	0.257
-373.829	-72.469	-0.216	-0.079
-372.815	-135.715	-0.267	0.031
-371.800	51.383	-0.130	-0.122
-370.785	-42.689	-0.223	-0.112
-369.771	31.155	0.345	0.293
-368.756	-55.601	0.161	-0.071
-367.742	-200.000	-0.018	0.186
-366.727	-200.000	0.019	-0.273
-365.712	175.522	0.131	0.188
-364.698	-15.051	0.210	-0.133
-363.683	193.684	-0.171	-0.256
-362.669	-13.959	-0.392	0.251
-361.654	-69.329	0.238	0.091
-360.639	-98.956	-0.134	0.034
-359.625	225.467	-0.051	0.082
-358.610	-50.346	0.262	-0.123
-357.596	-117.391	0.091	0.016
-356.581	394.230	0.074	0.152
-355.566	-123.161	0.325	-0.052
-354.552	-26.362	-0.419	0.243
-353.537	1.408	0.491	-0.350
-352.523	35.373	-0.048	-0.042
-351.508	-125.357	-0.250	-0.038
-350.493	-85.852	0.253	-0.078
-349.479	78.503	-0.134	-0.142
-348.464	-139.144	-0.155	-0.017
-347.450	800.000	-0.035	-0.131
-346.435	-173.364	0.243	0.007
-345.420	31.655	0.142	0.121
-344.406	800.000	0.056	0.183
-343.391	-36.589	0.232	-0.124
-342.377	800.000	-0.032	-0.136
-341.362	-47.490	0.221	-0.106
-340.348	-157.648	-0.361	-0.021
-339.333	800.000	-0.061	-0.223
-338.318	800.000	-0.134	-0.371
-337.304	-96.278	0.067	0.018
-336.289	553.487	-0.155	-0.369
-335.275	800.000	0.039	-0.162
-334.260	32.977	-0.132	0.113
-333.245	-177.795	0.111	0.003
-332.231	-24.876	0.373	0.219
-331.216	-127.917	0.086	0.012
-330.202	-137.037	-0.157	0.018
-329.187	-77.784	0.269	0.092
-328.172	-30.489	0.231	-0.130
-327.158	285.315	0.042	-0.074
-326.143	365.000	0.081	0.160
-325.129	800.000	0.051	0.178
-324.114	-200.000	0.007	0.040
-323.099	165.744	0.165	-0.231
-322.085	-123.293	-0.086	0.014
-321.070	-16.781	0.118	-0.074
-320.056	-120.392	0.092	-0.016
-319.041	166.079	0.238	-0.334
-318.026	-200.000	-0.057	0.462
-317.012	49.718	0.341	0.318
-315.997	126.432	-0.108	0.136
-314.983	204.488	0.039	0.059
-313.968	-200.000	-0.002	-0.032
-312.953	800.000	-0.083	-0.228
-311.939	800.000	-0.084	-0.274
-310.924	-200.000	-0.006	-0.056
-309.910	-8.048	0.185	0.123
-308.895	439.885	-0.071	0.153
-307.880	14.457	-0.127	-0.098
-306.866	-29.382	-0.276	-0.156
-305.851	-141.258	-0.266	0.027
-304.837	-200.000	0.006	0.026
-303.822	57.284	-0.185	0.179
-302.807	15.158	-0.093	0.072
-301.793	447.488	-0.100	-0.218
-300.778	-14.594	0.270	-0.171
-299.764	-102.048	-0.361	0.086
-298.749	-115.757	-0.201	-0.037
-297.735	239.355	0.073	0.120
-296.720	-26.873	0.219	0.126
-295.705	353.203	-0.108	0.211
-294.691	-178.962	0.167	-0.004
-293.676	-200.000	0.013	-0.293
-292.662	-152.357	0.065	-0.005
-291.647	-102.370	-0.081	-0.019
-290.632	136.369	0.206	-0.266
-289.618	-200.000	-0.006	0.156
-288.603	-41.300	-0.239	0.121
-287.589	-50.833	0.238	-0.111
-286.574	101.751	-0.149	-0.172
-285.559	-87.414	0.313	-0.094
-284.545	-163.794	-0.196	-0.009
-283.530	-62.243	0.059	0.024
-282.516	-83.696	-0.110	-0.035
-281.501	30.055	0.220	-0.185
-280.486	71.871	-0.302	-0.310
-279.472	-151.297	-0.209	0.015
-278.457	133.133	0.086	-0.110
-277.443	347.896	0.127	-0.248
-276.428	-64.560	-0.064	0.025
-275.413	-56.380	-0.230	0.101
-274.399	78.674	0.297	-0.314
-273.384	262.328	-0.050	-0.086
-272.370	50.610	0.088	-0.082
-271.355	-60.163	0.106	-0.045
-270.340	538.368	-0.058	0.137
-269.326	800.000	0.048	-0.187
-268.311	-200.000	-0.014	0.226
-267.297	156.944	0.282	-0.384
-266.282	55.309	-0.086	-0.082
-265.267	-53.838	0.121	-0.054
-264.253	-200.000	0.008	0.209
-263.238	-38.926	0.357	-0.185
-262.224	92.807	-0.068	-0.076
-261.209	-200.000	-0.020	-0.178
-260.195	-77.713	0.052	-0.018
-259.180	9.933	0.128	0.096
-258.165	21.849	-0.359	0.289
-257.151	505.408	0.137	-0.313
-256.136	71.783	0.144	0.148
-255.122	800.000	-0.075	0.249
-254.107	73.679	0.204	-0.211
-253.092	-140.222	0.262	-0.027
-252.078	0.889	-0.251	0.177
-251.063	91.600	0.158	0.175
-250.049	-150.352	-0.278	-0.021
-249.034	-162.664	-0.068	0.003
-248.019	90.711	0.052	-0.058
-247.005	-145.712	0.086	-0.008
-245.990	-3.799	-0.088	0.060
-244.976	-18.368	0.281	-0.173
-243.961	159.524	-0.050	0.069
-242.946	-102.734	0.123	0.029
-241.932	218.362	0.103	0.161
-240.917	47.137	-0.218	0.200
-239.903	-120.090	-0.152	0.026
-238.888	-200.000	-0.029	0.235
-237.873	238.756	0.117	0.192
-236.859	-110.619	0.237	-0.048
-235.844	-125.384	0.242	0.036
-234.830	-193.938	-0.273	0.002
-233.815	-200.000	0.020	0.109
-232.800	-23.754	-0.217	-0.128
-231.786	-92.911	-0.282	0.078
-230.771	-64.930	-0.170	-0.068
-229.757	125.871	0.278	0.346
-228.742	-134.501	-0.341	-0.041
-227.727	-200.000	0.040	-0.251
-226.713	-60.387	0.207	-0.087
-225.698	715.069	-0.068	-0.178
-224.684	427.365	-0.107	0.228
-223.669	800.000	-0.062	-0.229
-222.655	30.918	0.180	0.152
-221.640	-200.000	0.021	0.220
-220.625	-198.294	-0.153	-0.001
-219.611	-200.000	0.041	-0.318
-218.596	800.000	-0.046	0.191
-217.582	-168.612	0.167	-0.006
-216.567	-47.376	0.215	-0.103
-215.552	-91.164	0.277	-0.078
-214.538	800.000	-0.098	-0.398
-213.523	-150.259	0.338	-0.026
-212.509	-128.488	-0.150	-0.021
-211.494	-91.410	-0.298	0.084
-210.479	-61.941	0.131	-0.054
-209.465	-200.000	0.003	0.182
-208.450	265.175	0.167	-0.287
-207.436	-69.094	0.173	0.066
-206.421	-13.318	0.278	0.178
-205.406	-123.607	-0.309	-0.048
-204.392	-170.926	-0.406	0.014
-203.377	461.624	0.110	0.241
-202.363	16.555	-0.100	0.078
-201.348	-200.000	-0.023	-0.208
-200.333	-91.866	0.161	-0.045
-199.319	395.257	-0.069	0.141
-198.304	-142.555	-0.320	-0.031
-197.290	-149.678	-0.218	0.017
-196.275	14.710	0.135	-0.103
-195.260	800.000	0.029	-0.104
-194.246	-200.000	0.006	-0.156
-193.231	371.956	-0.087	-0.173
-192.217	73.173	-0.255	-0.262
-191.202	-100.585	-0.241	-0.058
-190.187	-135.469	-0.097	-0.011
-189.173	-20.438	0.121	-0.073
-188.158	-18.104	-0.082	0.050
-187.144	632.394	0.104	-0.258
-186.129	-200.000	-0.024	0.402
-185.114	186.406	-0.098	0.143
-184.100	-200.000	-0.011	-0.058
-183.085	-200.000	0.019	0.179
-182.071	52.320	0.145	0.136
-181.056	-21.179	-0.269	0.162
-180.042	-200.000	0.068	0.487
-179.027	-200.000	-0.051	0.242
-178.012	162.556	-0.211	0.291
-176.998	161.804	0.081	0.111
-175.983	-47.295	-0.257	-0.123
-174.969	4.029	0.027	-0.020
-173.954	-71.202	0.192	0.071
-172.939	23.897	0.057	0.047
-171.925	-152.456	0.248	0.018
-170.910	-26.815	-0.186	0.107
-169.896	800.000	-0.046	0.149
-168.881	-164.464	-0.350	0.016
-167.866	800.000	0.064	0.204
-166.852	-75.331	0.242	-0.085
-165.837	-71.816	0.271	0.099
-164.823	-200.000	-0.052	-0.359
-163.808	332.396	-0.125	0.236
-162.793	333.319	0.063	0.120
-161.779	-130.825	0.111	-0.015
-160.764	-131.005	0.315	0.041
-159.750	222.933	0.123	-0.195
-158.735	300.350	0.068	0.124
-157.720	800.000	0.061	-0.259
-156.706	-96.593	0.088	-0.023
-155.691	201.908	0.094	-0.142
-154.677	128.249	0.130	0.163
-153.662	172.490	0.183	0.258
-152.647	-200.000	0.061	-0.277
-151.633	-36.615	-0.073	0.038
-150.618	-41.715	-0.044	-0.022
-149.604	-67.392	-0.277	-0.107
-148.589	-200.000	0.016	-0.223
-147.574	800.000	0.026	0.092
-146.560	176.944	-0.073	0.104
-145.545	305.846	-0.153	-0.279
-144.531	-200.000	0.014	0.222
-143.516	-35.759	-0.024	-0.013
-142.502	258.055	-0.049	0.082
-141.487	-96.181	0.508	0.132
-140.472	-129.153	-0.096	0.013
-139.458	-133.200	-0.201	0.025
-138.443	195.196	-0.133	-0.198
-137.429	-200.000	0.064	0.296
-136.414	-102.320	0.105	0.025
-135.399	-189.521	-0.262	0.003
-134.385	18.727	-0.191	-0.150
-133.370	360.894	-0.098	-0.193
-132.356	-200.000	-0.004	0.101
-131.341	70.561	-0.211	0.214
-130.326	628.660	0.056	-0.138
-129.312	130.612	0.110	0.139
-128.297	181.283	0.087	-0.126
-127.283	232.634	0.087	0.140
-126.268	572.397	-0.057	0.135
-125.253	-200.000	-0.057	0.454
-124.239	-132.885	0.335	0.042
-123.224	-94.703	0.265	-0.071
-122.210	10.346	0.281	0.210
-121.195	151.803	-0.364	0.487
-120.180	-200.000	0.016	-0.099
-119.166	462.528	-0.014	-0.030
-118.151	-139.291	0.238	-0.025
-117.137	383.968	-0.059	0.120
-116.122	400.094	-0.083	-0.170
-115.107	28.268	0.256	0.212
-114.093	800.000	0.130	0.352
-113.078	-82.717	-0.346	-0.110
-112.064	-68.934	0.181	0.069
-111.049	417.584	-0.083	0.173
-110.034	-108.575	-0.344	-0.072
-109.020	-15.176	-0.143	0.090
-108.005	223.634	-0.070	0.110
-106.991	513.873	0.115	-0.262
-105.976	-152.031	-0.250	-0.018
-104.962	-119.088	0.329	0.056
-103.947	268.750	-0.249	-0.428
-102.932	-61.328	0.039	-0.016
-101.918	-98.137	-0.189	-0.048
-100.903	53.979	-0.138	-0.130
-99.889	-177.213	-0.133	0.003
-98.874	-78.659	0.185	0.062
-97.859	-97.963	-0.059	0.015
-96.845	4.800	0.068	0.049
-95.830	299.535	0.135	0.243
-94.816	58.763	-0.083	-0.080
-93.801	-59.773	0.375	-0.157
-92.786	257.541	0.143	0.242
-91.772	-26.445	0.341	0.196
-90.757	-125.291	-0.327	0.049
-89.743	-124.527	0.126	0.019
-88.728	195.559	-0.076	-0.114
-87.713	-200.000	0.011	0.101
-86.699	-72.506	0.064	-0.023
-85.684	-49.909	-0.136	-0.063
-84.670	37.493	-0.062	0.054
-83.655	139.336	0.218	0.281
-82.640	404.475	-0.035	0.072
-81.626	-200.000	0.030	-0.192
-80.611	163.927	-0.148	-0.205
-79.597	330.916	-0.035	0.067
-78.582	84.010	0.082	0.088
-77.567	526.849	0.062	0.144
-76.553	528.378	0.118	-0.273
-75.538	25.870	-0.190	-0.155
-74.524	153.567	0.066	0.088
-73.509	81.409	-0.190	0.201
-72.494	94.343	0.088	0.098
-71.480	-105.803	0.248	-0.055
-70.465	-54.148	0.235	0.105
-69.451	587.180	-0.080	-0.193
-68.436	-200.000	0.024	-0.225
-67.422	-200.000	-0.015	0.136
-66.407	140.653	-0.082	0.106
-65.392	42.181	-0.197	0.175
-64.378	-159.643	0.206	0.011
-63.363	800.000	0.029	-0.121
-62.349	166.025	0.145	0.201
-61.334	14.232	-1.123	-0.857
-60.319	7.559	0.382	0.279
-59.305	-200.000	-0.273	-1.315
-58.290	327.814	0.674	1.266
-57.276	795.113	0.637	1.718
-56.261	-200.000	114.385	662.155
-55.246	544.950	1528.718	3573.813
-54.232	174.925	2711.756	3841.502
-53.217	103.049	2302.504	2639.628
-52.203	36.441	1905.495	1644.697
-51.188	30.217	1693.345	1414.242
-50.173	27.613	1651.318	1359.698
-49.159	50.086	1706.996	1576.317
-48.144	48.375	1721.379	1576.599
-47.130	29.732	1679.054	1398.418
-46.115	27.105	1664.083	1366.173
-45.100	26.881	1659.461	1360.641
-44.086	27.014	1656.281	1358.979
-43.071	26.853	1654.318	1356.105
-42.057	26.803	1651.605	1353.461
-41.042	26.859	1649.496	1352.093
-40.027	26.914	1647.817	1351.076
-39.013	26.842	1645.394	1348.500
-37.998	26.850	1644.128	1347.464
-36.984	26.929	1642.876	1346.972
-35.969	27.065	1641.008	1346.394
-34.954	27.004	1639.631	1344.759
-33.940	26.999	1637.522	1342.944
-32.925	27.093	1635.883	1342.240
-31.911	27.061	1634.232	1340.597
-30.896	26.981	1632.094	1338.200
-29.881	26.945	1631.079	1337.045
-28.867	26.973	1629.281	1335.724
-27.852	26.920	1627.708	1333.995
-26.838	26.866	1626.331	1332.412
-25.823	26.945	1624.860	1331.740
-24.809	27.056	1623.470	1331.355
-23.794	27.058	1621.989	1330.106
-22.779	27.081	1620.491	1328.996
-21.765	26.946	1619.298	1326.975
-20.750	26.931	1617.614	1325.434
-19.736	27.021	1616.124	1324.819
-18.721	27.028	1614.765	1323.700
-17.706	26.976	1613.322	1322.088
-16.692	27.055	1611.408	1321.039
-15.677	27.029	1610.144	1319.764
-14.663	27.042	1609.350	1319.151
-13.648	27.109	1607.545	1318.110
-12.633	26.940	1606.334	1315.841
-11.619	27.003	1604.619	1314.833
-10.604	27.117	1602.523	1313.889
-9.590	27.113	1601.577	1313.032
-8.575	27.104	1600.197	1311.789
-7.560	27.074	1599.305	1310.789
-6.546	27.057	1598.040	1309.574
-5.531	27.033	1597.192	1308.656
-4.517	26.993	1595.875	1307.238
-3.502	27.053	1594.661	1306.619
-2.487	27.064	1593.142	1305.401
-1.473	26.930	1581.527	1294.882
-0.458	24.274	1562.720	1260.679
0.556	22.918	1564.038	1230.589
1.571	20.705	1588.010	1233.666
2.586	20.061	1600.422	1238.597
3.600	17.933	1546.204	1181.821
4.615	11.192	1439.518	1056.603
5.629	5.300	1378.768	975.234
6.644	4.209	1371.705	963.375
7.659	4.223	1370.461	962.507
8.673	4.304	1370.028	962.621
9.688	4.314	1368.323	961.396
10.702	4.199	1365.058	958.305
11.717	6.961	1370.356	979.061
12.731	14.495	1384.397	1035.977
13.746	20.770	1394.253	1082.403
14.761	22.383	1395.862	1093.585
15.775	21.891	1393.832	1088.843
16.790	20.946	1391.513	1081.078
17.804	20.114	1389.905	1074.578
18.819	19.987	1388.064	1072.276
19.834	19.848	1387.210	1070.661
20.848	19.694	1386.493	1069.060
21.863	19.621	1384.684	1067.114
22.877	19.377	1384.352	1065.259
23.892	19.385	1383.339	1064.432
24.907	19.318	1382.166	1063.024
25.921	19.308	1381.509	1062.364
26.936	19.379	1380.223	1061.716
27.950	19.474	1379.047	1061.306
28.965	19.577	1378.610	1061.509
29.980	19.544	1378.043	1060.772
30.994	19.699	1376.941	1060.784
32.009	19.874	1375.453	1060.615
33.023	19.832	1374.137	1059.248
34.038	19.691	1373.014	1057.428
35.053	19.537	1371.774	1055.436
36.067	19.640	1369.911	1054.542
37.082	19.603	1369.905	1054.218
38.096	19.592	1369.072	1053.416
39.111	19.738	1367.538	1053.032
40.126	19.361	1367.217	1050.396
41.140	19.238	1365.731	1048.412
42.155	19.139	1365.274	1047.367
43.169	19.035	1365.439	1046.764
44.184	19.040	1364.595	1046.055
45.199	19.063	1364.767	1046.234
46.213	19.272	1364.374	1047.114
47.228	19.498	1363.104	1047.415
48.242	19.504	1362.653	1047.014
49.257	19.459	1360.706	1045.152
50.271	19.447	1359.276	1043.890
51.286	19.352	1358.713	1042.789
52.301	19.544	1356.457	1042.124
53.315	19.353	1355.443	1040.099
54.330	19.135	1354.787	1038.193
55.344	19.233	1352.907	1037.248
56.359	19.226	1352.014	1036.431
57.374	19.107	1351.854	1035.503
58.388	19.024	1350.861	1034.148
59.403	18.981	1350.065	1033.193
60.417	19.025	1349.218	1032.714
61.432	18.883	1348.074	1030.900
62.447	18.825	1347.260	1029.836
63.461	18.782	1346.196	1028.671
64.476	18.738	1345.134	1027.508
65.490	18.757	1343.906	1026.596
66.505	18.808	1342.146	1025.463
67.520	18.835	1341.440	1024.994
68.534	18.815	1340.415	1024.000
69.549	18.798	1339.089	1022.796
70.563	18.791	1337.686	1021.589
71.578	18.647	1336.797	1019.966
72.593	18.616	1335.963	1019.056
73.607	18.617	1335.190	1018.379
74.622	18.640	1334.388	1017.817
75.636	18.716	1334.377	1018.171
76.651	18.726	1333.213	1017.251
77.666	18.697	1332.894	1016.745
78.680	18.707	1332.797	1016.636
79.695	18.876	1331.811	1016.794
80.709	18.920	1331.469	1016.707
81.724	19.142	1330.203	1016.959
82.739	19.215	1329.619	1016.854
83.753	19.355	1328.954	1017.084
84.768	19.562	1327.547	1017.137
85.782	19.667	1326.952	1017.205
86.797	19.652	1325.900	1016.225
87.812	19.532	1324.320	1014.216
88.826	19.460	1323.458	1013.044
89.841	19.597	1322.615	1013.112
90.855	19.671	1321.762	1012.801
91.870	19.741	1321.175	1012.673
92.884	19.765	1319.538	1011.469
93.899	19.825	1319.239	1011.502
94.914	19.834	1318.331	1010.768
95.928	19.761	1317.699	1009.769
96.943	19.581	1316.816	1007.952
97.957	19.501	1316.004	1006.778
98.972	19.588	1315.045	1006.462
99.987	19.639	1313.995	1005.865
101.001	19.649	1312.343	1004.571
102.016	19.581	1311.945	1003.781
103.030	19.675	1310.888	1003.429
104.045	19.618	1310.125	1002.422
105.060	19.420	1309.206	1000.484
106.074	19.224	1306.832	997.447
107.089	18.896	1305.845	994.708
108.103	18.882	1303.844	993.016
109.118	18.839	1302.783	991.872
110.133	18.741	1302.058	990.666
111.147	18.883	1300.391	990.127
112.162	18.956	1299.385	989.696
113.176	19.010	1298.040	988.895
114.191	19.060	1297.155	988.419
115.206	18.978	1296.252	987.171
116.220	19.055	1294.785	986.410
117.235	19.049	1293.862	985.582
118.249	18.890	1292.795	983.773
119.264	18.826	1291.476	982.318
120.279	18.797	1290.099	981.019
121.293	18.765	1289.146	980.021
122.308	18.643	1288.352	978.635
123.322	18.518	1287.293	977.036
124.337	18.535	1286.387	976.357
125.352	18.534	1284.943	975.169
126.366	18.614	1283.665	974.564
127.381	18.576	1282.737	973.558
128.395	18.514	1281.622	972.280
129.410	18.676	1280.535	972.283
130.424	18.656	1280.219	971.846
131.439	18.838	1279.289	972.084
132.454	18.958	1278.720	972.245
133.468	18.969	1277.585	971.355
134.483	18.949	1277.214	970.873
135.497	18.968	1276.399	970.275
136.512	19.058	1274.894	969.553
137.527	19.037	1273.471	968.270
138.541	19.101	1272.091	967.491
139.556	19.390	1270.717	967.982
140.570	19.276	1270.477	967.076
141.585	19.318	1269.548	966.520
142.600	19.467	1268.309	966.327
143.614	19.584	1267.731	966.455
144.629	19.621	1266.775	965.849
145.643	19.603	1265.435	964.641
146.658	19.515	1263.702	962.740
147.673	19.214	1262.641	960.173
148.687	19.160	1261.418	958.857
149.702	19.008	1259.750	956.657
150.716	19.009	1258.424	955.569
151.731	18.918	1257.455	954.242
152.746	19.127	1256.544	954.628
153.760	19.127	1255.273	953.579
154.775	19.237	1253.960	953.108
155.789	19.336	1253.294	953.063
156.804	19.433	1252.622	953.004
157.819	19.435	1251.848	952.343
158.833	19.577	1250.579	952.075
159.848	19.693	1250.460	952.538
160.862	19.539	1249.133	950.596
161.877	19.336	1247.351	948.037
162.892	19.081	1246.135	945.629
163.906	18.959	1245.585	944.459
164.921	19.108	1244.459	944.338
165.935	19.165	1243.875	944.122
166.950	19.360	1242.932	944.392
167.964	19.183	1242.399	942.939
168.979	19.235	1241.678	942.592
169.994	19.244	1240.614	941.747
171.008	19.191	1240.211	941.069
172.023	19.436	1239.411	941.717
173.037	19.522	1239.063	941.839
174.052	19.505	1238.165	940.977
175.067	19.202	1236.567	938.033
176.081	19.008	1235.398	936.006
177.096	19.083	1234.191	935.419
178.110	19.155	1233.167	934.948
179.125	19.085	1232.670	934.108
180.140	19.291	1231.338	934.134
181.154	19.354	1230.453	933.720
182.169	19.460	1229.498	933.488
183.183	19.383	1228.889	932.525
184.198	19.598	1227.060	932.218
185.213	19.547	1226.038	931.085
186.227	19.652	1225.120	930.870
187.242	19.758	1223.884	930.420
188.256	19.903	1222.958	930.413
189.271	19.845	1222.277	929.497
190.286	19.657	1221.070	927.490
191.300	19.088	1220.165	923.669
192.315	19.014	1218.955	922.270
193.329	19.153	1218.408	922.520
194.344	19.262	1217.978	922.702
195.359	19.390	1217.718	923.104
196.373	19.462	1216.889	922.781
197.388	19.538	1217.272	923.394
198.402	19.761	1216.789	924.137
199.417	19.905	1216.322	924.475
200.432	20.058	1215.417	924.519
201.446	20.146	1214.977	924.573
202.461	20.125	1213.893	923.555
203.475	20.145	1212.929	922.844
204.490	19.983	1211.057	920.478
205.504	19.652	1210.040	917.866
206.519	19.620	1208.675	916.580
207.534	19.532	1207.757	915.333
208.548	19.564	1206.644	914.578
209.563	19.668	1206.188	914.703
210.577	19.701	1204.632	913.616
211.592	19.722	1204.519	913.563
212.607	19.823	1203.964	913.596
213.621	19.874	1202.803	912.900
214.636	19.783	1202.188	911.872
215.650	19.896	1201.131	911.587
216.665	19.950	1200.329	911.183
217.680	20.109	1199.451	911.271
218.694	20.207	1198.460	910.949
219.709	20.084	1197.857	909.766
220.723	20.239	1196.597	909.544
221.738	19.937	1196.438	907.757
222.753	19.972	1195.741	907.330
223.767	20.036	1195.245	907.212
224.782	20.315	1194.189	907.788
225.796	20.319	1193.796	907.431
226.811	20.227	1192.916	906.198
227.826	20.120	1191.906	904.796
228.840	20.032	1191.050	903.608
229.855	20.052	1190.397	903.131
230.869	20.012	1189.336	902.043
231.884	19.923	1188.997	901.241
232.899	19.900	1187.835	900.160
233.913	19.793	1186.927	898.835
234.928	19.757	1185.796	897.714
235.942	19.720	1185.336	897.095
236.957	19.678	1184.590	896.232
237.972	19.783	1183.729	896.047
238.986	19.766	1183.240	895.511
240.001	19.771	1182.813	895.134
241.015	19.778	1181.971	894.453
242.030	19.961	1181.113	894.667
243.045	20.078	1180.444	894.689
244.059	19.985	1180.058	893.838
245.074	19.972	1179.119	892.978
246.088	20.112	1178.520	893.166
247.103	20.270	1177.739	893.308
248.117	20.387	1176.793	893.116
249.132	20.502	1176.648	893.514
250.147	20.802	1176.111	894.569
251.161	20.837	1175.999	894.588
252.176	20.857	1175.048	893.888
253.190	21.002	1174.014	893.767
254.205	20.979	1174.182	893.695
255.220	21.076	1172.993	893.209
256.234	21.030	1172.316	892.378
257.249	21.006	1171.506	891.560
258.263	20.997	1171.099	891.125
259.278	21.006	1170.236	890.438
260.293	20.969	1170.003	889.990
261.307	21.013	1169.339	889.630
262.322	21.143	1168.739	889.760
263.336	21.151	1167.833	889.031
264.351	21.104	1167.501	888.458
265.366	21.236	1166.696	888.443
266.380	21.237	1165.726	887.629
267.395	21.045	1165.033	886.045
268.409	20.806	1164.044	884.003
269.424	20.844	1163.322	883.571
270.439	20.800	1163.044	883.060
271.453	20.892	1161.845	882.533
272.468	20.696	1161.260	881.021
273.482	20.726	1160.373	880.420
274.497	20.737	1159.404	879.662
275.512	20.756	1158.569	879.050
276.526	20.689	1158.019	878.215
277.541	20.731	1157.455	877.921
278.555	20.903	1157.019	878.379
279.570	21.003	1156.450	878.374
280.585	21.075	1155.737	878.115
281.599	21.197	1154.586	877.780
282.614	20.891	1153.502	875.340
283.628	20.870	1152.279	874.227
284.643	20.836	1151.637	873.492
285.657	20.916	1150.295	872.798
286.672	20.926	1149.615	872.254
287.687	20.986	1148.349	871.518
288.701	20.794	1147.737	870.016
289.716	20.936	1146.842	869.969
290.730	20.971	1146.333	869.683
291.745	21.017	1145.816	869.442
292.760	21.013	1145.110	868.811
293.774	21.114	1144.802	869.002
294.789	21.222	1144.502	869.236
295.803	21.316	1143.484	868.852
296.818	21.018	1143.097	867.002
297.833	20.905	1141.916	865.467
298.847	20.944	1140.915	864.823
299.862	21.017	1140.036	864.446
300.876	21.061	1139.588	864.248
301.891	21.172	1139.017	864.285
302.906	21.261	1138.696	864.408
303.920	21.444	1138.228	864.880
304.935	21.545	1137.261	864.568
305.949	21.603	1137.287	864.798
306.964	21.523	1136.427	863.674
307.979	21.359	1135.492	862.076
308.993	21.461	1134.384	861.661
310.008	21.407	1133.947	860.984
311.022	21.486	1133.203	860.735
312.037	21.592	1132.031	860.289
313.052	21.311	1131.171	858.181
314.066	21.100	1130.399	856.481
315.081	20.921	1129.224	854.638
316.095	20.978	1128.399	854.216
317.110	21.019	1127.579	853.720
318.125	21.045	1126.881	853.245
319.139	20.991	1126.284	852.456
320.154	21.051	1125.432	852.025
321.168	20.932	1124.891	850.960
322.183	21.011	1124.526	850.993
323.197	21.101	1123.956	850.927
324.212	21.200	1123.223	850.781
325.227	21.226	1122.968	850.638
326.241	21.268	1122.252	850.224
327.256	21.226	1120.615	848.705
328.270	21.103	1120.025	847.585
329.285	21.090	1118.914	846.609
330.300	21.048	1118.226	845.809
331.314	21.115	1117.287	845.349
332.329	21.141	1116.494	844.796
333.343	21.155	1115.668	844.169
334.358	21.298	1114.982	844.264
335.373	21.445	1114.586	844.600
336.387	21.397	1114.161	843.969
337.402	21.412	1113.500	843.468
338.416	21.586	1112.396	843.396
339.431	21.626	1111.929	843.157
340.446	21.797	1111.250	843.390
341.460	21.878	1110.746	843.324
342.475	21.990	1110.238	843.401
343.489	22.028	1109.127	842.668
344.504	22.073	1108.457	842.300
345.519	22.103	1107.641	841.745
346.533	22.113	1106.824	841.099
347.548	22.281	1105.907	841.131
348.562	22.076	1105.557	839.811
349.577	21.829	1104.496	837.749
350.592	21.530	1103.514	835.502
351.606	21.619	1102.106	834.790
352.621	21.444	1101.732	833.597
353.635	21.513	1101.007	833.304
354.650	21.475	1100.208	832.447
355.665	21.651	1099.521	832.690
356.679	21.641	1099.031	832.198
357.694	21.762	1098.713	832.454
358.708	21.906	1097.856	832.417
359.723	21.843	1097.277	831.606
360.738	21.859	1096.505	831.021
361.752	21.823	1096.084	830.457
362.767	21.918	1095.822	830.636
363.781	21.916	1094.983	829.916
364.796	22.043	1094.629	830.178
365.810	22.138	1094.088	830.141
366.825	22.312	1093.204	830.221
367.840	22.520	1093.222	831.138
368.854	22.407	1092.943	830.323
369.869	22.408	1092.294	829.761
370.883	22.287	1090.676	827.887
371.898	22.279	1089.532	826.906
372.913	22.246	1089.281	826.489
373.927	22.327	1089.057	826.627
374.942	22.356	1088.277	826.097
375.956	22.347	1088.010	825.779
376.971	22.380	1086.983	825.082
377.986	22.442	1086.347	824.818
379.000	22.482	1086.312	824.906
380.015	22.560	1085.380	824.490
381.029	22.716	1085.148	824.971
382.044	22.576	1084.402	823.676
383.059	22.549	1083.686	822.935
384.073	22.422	1083.309	821.978
385.088	22.568	1082.048	821.630
386.102	22.544	1080.873	820.555
387.117	22.317	1079.660	818.507
388.132	22.127	1078.699	816.823
389.146	22.108	1077.687	815.895
390.161	22.155	1077.138	815.626
391.175	22.271	1076.257	815.422
392.190	22.411	1076.123	815.897
393.205	22.428	1075.628	815.530
394.219	22.340	1074.901	814.500
395.234	22.257	1073.684	813.120
396.248	22.343	1072.678	812.683
397.263	22.241	1071.697	811.399
398.278	22.136	1071.437	810.646
399.292	22.026	1070.296	809.202
400.307	21.870	1069.642	807.922
401.321	21.998	1068.591	807.644
402.336	21.955	1068.214	807.088
403.350	22.006	1067.503	806.715
404.365	22.134	1066.643	806.581
405.380	22.204	1066.019	806.358
406.394	22.334	1065.605	806.569
407.409	22.378	1065.096	806.314
408.423	22.612	1064.679	807.000
409.438	22.663	1063.758	806.464
410.453	22.724	1063.292	806.319
411.467	22.801	1062.280	805.830
412.482	22.959	1061.636	805.993
413.496	22.930	1060.835	805.180
414.511	23.069	1061.015	805.878
415.526	23.100	1060.295	805.402
416.540	23.214	1059.938	805.576
417.555	23.153	1059.425	804.840
418.569	23.001	1058.480	803.359
419.584	22.984	1058.028	802.867
420.599	22.991	1057.733	802.603
421.613	157.267	1402.520	1794.810
422.628	144.577	1452.732	1794.923
