DTS Sentinel unit serial number:	SN413079Multiplexer serial number:	ORYXHardware model number:	OX4-SRSoftware version number:	ORYX F/W v4.00 Oryx Data Collector v3.7.2.0data status	okinstallation	princeton_trtdifferential loss correction	single-endedforward channel	channel 2reverse channel	N/Adate	2019/09/15time	23:23:34forward acquisition time	60.00reverse acquisition time	0.00gamma	496.2192k internal	0.2335k external	0.2335temperature offset calibration	0.9952default loss term (dB/km)	0.3790temperature slope calibration	1.0000multiplexer offset coefficient	1.0000multiplexer slope coefficient	1.0000fibre end	0.00T internal ref (°C)	28.25T ext. ref 1 (°C)	9.12T ext. ref 2 (°C)	22.11length (m)	temperature (°C)	Stokes	anti-Stokes-747.200	159.919	-0.299	0.418
-746.185	61.215	-0.109	-0.108
-745.171	306.529	-0.082	0.153
-744.156	-159.708	-0.304	-0.017
-743.142	-76.658	-0.177	-0.062
-742.127	158.963	-0.214	0.298
-741.112	-44.964	0.157	0.079
-740.098	248.403	-0.273	0.464
-739.083	39.127	-0.060	-0.054
-738.069	-109.487	-0.207	-0.044
-737.054	117.454	0.345	-0.427
-736.039	194.539	0.097	-0.148
-735.025	63.587	0.197	0.199
-734.010	196.651	-0.316	-0.484
-732.996	-157.375	-0.307	-0.019
-731.981	147.968	0.158	0.214
-730.966	194.558	-0.145	0.220
-729.952	-166.578	-0.226	-0.009
-728.937	82.548	-0.189	-0.206
-727.923	-200.000	0.011	-0.167
-726.908	531.311	-0.066	0.157
-725.894	-95.191	-0.251	0.068
-724.879	800.000	-0.061	-0.176
-723.864	-34.845	-0.248	0.136
-722.850	151.922	0.089	-0.122
-721.835	-106.675	-0.199	0.044
-720.821	12.328	-0.303	-0.234
-719.806	-200.000	0.010	0.094
-718.791	26.962	-0.166	-0.139
-717.777	-24.888	-0.258	-0.154
-716.762	-107.736	-0.523	-0.115
-715.748	-200.000	0.049	-0.365
-714.733	-79.396	-0.094	0.032
-713.718	-132.905	0.160	-0.020
-712.704	-10.534	-0.242	-0.161
-711.689	441.254	-0.200	-0.440
-710.675	-200.000	-0.030	-0.248
-709.660	800.000	0.023	0.093
-708.645	19.361	0.335	-0.270
-707.631	664.017	-0.034	-0.089
-706.616	800.000	-0.048	-0.147
-705.602	-53.296	-0.155	0.071
-704.587	81.692	0.091	-0.099
-703.572	-200.000	-0.039	0.353
-702.558	-159.139	0.114	-0.006
-701.543	-138.405	0.318	0.035
-700.529	-125.985	0.107	-0.016
-699.514	-10.363	0.235	0.157
-698.499	69.263	0.060	0.062
-697.485	-27.703	0.064	-0.037
-696.470	800.000	0.013	0.052
-695.456	-42.899	0.232	0.118
-694.441	23.792	-0.211	-0.174
-693.426	-200.000	-0.041	-0.233
-692.412	-118.427	0.169	0.030
-691.397	81.001	-0.241	-0.261
-690.383	800.000	0.082	-0.341
-689.368	-72.701	-0.115	-0.042
-688.354	-60.781	-0.111	0.047
-687.339	41.801	0.238	0.217
-686.324	-104.773	-0.620	-0.143
-685.310	76.148	0.288	0.306
-684.295	168.350	0.041	0.058
-683.281	-199.153	0.314	0.002
-682.266	352.395	-0.078	-0.155
-681.251	-125.372	-0.385	0.059
-680.237	800.000	0.098	-0.305
-679.222	115.104	0.376	0.459
-678.208	800.000	-0.113	-0.347
-677.193	311.698	-0.061	-0.114
-676.178	129.096	-0.266	-0.340
-675.164	-103.422	-0.276	0.065
-674.149	161.540	-0.084	-0.118
-673.135	-200.000	0.025	-0.197
-672.120	16.970	0.158	0.126
-671.105	191.452	0.058	0.088
-670.091	-36.744	-0.322	0.173
-669.076	-200.000	-0.012	0.123
-668.062	-108.992	-0.386	0.083
-667.047	-50.614	0.125	0.059
-666.032	-36.146	-0.345	0.187
-665.018	-200.000	-0.022	0.135
-664.003	-144.798	-0.349	-0.032
-662.989	683.823	-0.025	0.065
-661.974	-58.579	-0.238	-0.103
-660.959	-128.941	-0.125	-0.018
-659.945	72.038	-0.335	-0.349
-658.930	206.114	0.116	-0.180
-657.916	-104.481	-0.236	-0.055
-656.901	-118.447	-0.019	0.003
-655.886	199.929	-0.094	0.145
-654.872	77.227	-0.033	0.035
-653.857	-61.293	-0.210	0.088
-652.843	123.273	0.078	0.097
-651.828	23.523	0.240	-0.198
-650.814	-200.000	0.046	-0.204
-649.799	-104.083	0.304	-0.071
-648.784	6.935	-0.154	-0.115
-647.770	374.844	0.082	-0.168
-646.755	-200.000	0.013	-0.137
-645.741	-13.686	0.198	-0.128
-644.726	800.000	0.029	0.094
-643.711	-79.203	0.122	-0.042
-642.697	-51.032	-0.229	-0.107
-641.682	143.458	-0.257	-0.342
-640.668	-30.012	-0.432	-0.246
-639.653	800.000	-0.030	-0.119
-638.638	756.915	0.038	-0.104
-637.624	-48.711	0.023	-0.011
-636.609	-200.000	0.005	0.173
-635.595	-200.000	-0.002	-0.401
-634.580	52.003	0.177	-0.169
-633.565	-119.196	0.088	0.015
-632.551	-200.000	-0.009	-0.260
-631.536	-200.000	0.008	0.092
-630.522	-200.000	0.020	0.301
-629.507	74.012	-0.169	0.178
-628.492	-155.379	0.095	0.006
-627.478	800.000	0.011	-0.035
-626.463	-200.000	-0.055	-0.314
-625.449	800.000	0.034	-0.147
-624.434	-150.975	0.084	-0.006
-623.419	388.460	-0.145	-0.300
-622.405	117.292	-0.019	0.023
-621.390	-200.000	0.032	-0.181
-620.376	57.657	0.156	0.152
-619.361	-200.000	-0.031	-0.256
-618.346	800.000	0.063	0.221
-617.332	282.208	0.134	0.241
-616.317	800.000	-0.037	0.154
-615.303	51.136	0.161	0.153
-614.288	-115.404	0.315	0.059
-613.273	800.000	0.035	0.135
-612.259	-173.739	-0.133	-0.004
-611.244	-200.000	-0.026	0.142
-610.230	-200.000	-0.002	0.132
-609.215	800.000	0.084	-0.301
-608.201	-131.684	-0.161	-0.021
-607.186	-0.459	0.035	-0.025
-606.171	205.415	-0.050	-0.077
-605.157	236.423	-0.105	0.173
-604.142	-200.000	0.045	0.317
-603.128	64.291	0.160	-0.161
-602.113	426.032	0.138	-0.298
-601.098	-200.000	-0.011	0.108
-600.084	-80.834	0.175	-0.058
-599.069	591.367	-0.132	-0.326
-598.055	-62.221	0.098	-0.041
-597.040	-200.000	0.026	-0.179
-596.025	-200.000	0.039	0.200
-595.011	434.839	0.107	0.233
-593.996	-31.411	-0.015	-0.008
-592.982	-200.000	-0.047	0.216
-591.967	-200.000	0.019	0.176
-590.952	463.558	-0.070	-0.156
-589.938	307.535	-0.135	0.251
-588.923	458.209	0.069	0.153
-587.909	55.855	-0.082	0.080
-586.894	85.679	-0.107	-0.117
-585.879	-13.400	0.212	0.138
-584.865	487.694	-0.060	0.137
-583.850	-200.000	-0.007	0.082
-582.836	-57.565	0.257	-0.112
-581.821	-13.522	0.195	-0.126
-580.806	-6.561	-0.184	-0.125
-579.792	-106.096	-0.366	0.082
-578.777	82.445	0.253	-0.274
-577.763	-23.003	0.169	-0.102
-576.748	-31.068	0.165	-0.093
-575.733	396.120	-0.070	-0.146
-574.719	623.817	0.068	-0.171
-573.704	135.405	-0.080	0.104
-572.690	727.437	0.060	0.159
-571.675	-9.145	0.128	0.086
-570.661	-131.543	-0.167	-0.022
-569.646	405.580	-0.077	0.162
-568.631	41.763	0.353	-0.319
-567.617	-133.202	-0.334	-0.042
-566.602	-200.000	0.005	-0.102
-565.588	-126.859	-0.295	0.043
-564.573	343.673	-0.096	0.187
-563.558	20.402	0.261	0.210
-562.544	615.517	0.064	-0.160
-561.529	283.989	0.192	-0.345
-560.515	-200.000	-0.029	-0.239
-559.500	6.538	-0.177	-0.131
-558.485	73.404	-0.191	0.199
-557.471	-199.934	-0.130	0.001
-556.456	-10.951	-0.027	0.018
-555.442	263.836	-0.167	0.290
-554.427	-52.453	0.185	0.085
-553.412	-200.000	0.009	-0.084
-552.398	339.731	-0.125	0.242
-551.383	596.799	0.041	-0.101
-550.369	163.831	-0.358	0.503
-549.354	71.521	-0.112	-0.115
-548.339	-200.000	0.050	-0.312
-547.325	-104.473	0.212	-0.049
-546.310	51.396	0.091	-0.086
-545.296	-133.740	-0.103	-0.013
-544.281	-64.374	0.218	0.088
-543.266	800.000	-0.061	0.195
-542.252	-200.000	0.042	-0.186
-541.237	560.318	0.146	-0.352
-540.223	-122.352	-0.365	-0.059
-539.208	-34.655	0.170	0.093
-538.193	-84.702	0.262	-0.082
-537.179	37.394	-0.296	-0.261
-536.164	242.801	0.130	-0.216
-535.150	-89.295	-0.136	0.040
-534.135	-72.249	0.199	0.074
-533.121	-25.788	-0.191	-0.112
-532.106	-121.890	-0.171	-0.028
-531.091	-200.000	-0.009	0.167
-530.077	-200.000	-0.008	-0.089
-529.062	109.479	-0.031	-0.037
-528.048	-28.333	-0.207	-0.119
-527.033	-200.000	-0.020	-0.224
-526.018	-200.000	0.051	-0.231
-525.004	82.995	-0.228	-0.247
-523.989	427.230	-0.196	-0.421
-522.975	-55.341	-0.194	0.087
-521.960	42.396	0.170	-0.154
-520.945	146.381	0.038	-0.051
-519.931	800.000	0.049	0.143
-518.916	-200.000	-0.026	0.208
-517.902	-200.000	-0.030	-0.278
-516.887	-200.000	0.004	-0.149
-515.872	-130.329	-0.462	-0.062
-514.858	6.317	0.291	0.215
-513.843	42.037	0.203	0.184
-512.829	-102.688	-0.199	0.047
-511.814	-23.428	-0.242	-0.144
-510.799	-200.000	-0.016	0.336
-509.785	343.903	-0.132	-0.259
-508.770	653.614	-0.095	0.243
-507.756	-81.509	-0.186	-0.061
-506.741	474.589	-0.063	0.141
-505.726	-77.852	0.216	0.074
-504.712	11.406	-0.271	-0.206
-503.697	-103.016	-0.299	-0.070
-502.683	150.826	-0.033	0.045
-501.668	800.000	-0.005	-0.014
-500.653	23.953	0.249	0.205
-499.639	-200.000	-0.004	-0.103
-498.624	-61.735	0.197	0.082
-497.610	92.701	0.107	0.120
-496.595	-130.434	0.168	-0.023
-495.581	-51.522	0.493	0.229
-494.566	-155.600	-0.113	-0.007
-493.551	-200.000	-0.004	-0.147
-492.537	-70.633	-0.296	0.111
-491.522	-65.478	-0.245	0.098
-490.508	-200.000	0.025	-0.175
-489.493	800.000	0.110	0.365
-488.478	-144.680	-0.179	0.016
-487.464	-117.342	-0.140	0.025
-486.449	-200.000	-0.018	-0.204
-485.435	161.774	0.258	-0.359
-484.420	-23.440	-0.558	-0.334
-483.405	423.450	-0.181	0.386
-482.391	-88.835	-0.102	-0.030
-481.376	652.624	0.067	0.170
-480.362	-119.116	-0.118	0.021
-479.347	123.196	-0.152	0.189
-478.332	-50.803	-0.336	-0.157
-477.318	290.603	0.122	0.220
-476.303	519.461	0.061	-0.141
-475.289	413.824	-0.074	0.156
-474.274	-134.847	-0.103	0.012
-473.259	-50.583	0.079	0.037
-472.245	-43.595	-0.238	0.119
-471.230	-46.827	-0.015	0.008
-470.216	-65.693	0.125	0.050
-469.201	-200.000	0.007	0.050
-468.186	-200.000	-0.034	0.470
-467.172	-95.039	-0.175	0.047
-466.157	-5.060	-0.150	-0.103
-465.143	197.553	-0.141	-0.214
-464.128	375.652	-0.097	0.197
-463.113	-200.000	0.044	-0.231
-462.099	-83.721	0.195	-0.062
-461.084	-50.239	-0.291	0.137
-460.070	-200.000	-0.009	0.171
-459.055	-200.000	-0.004	0.085
-458.040	26.122	0.288	-0.239
-457.026	326.867	-0.065	-0.123
-456.011	-169.697	-0.051	0.002
-454.997	-127.390	0.353	-0.051
-453.982	-200.000	-0.009	-0.198
-452.968	176.109	-0.174	0.250
-451.953	800.000	0.114	-0.329
-450.938	-129.923	-0.229	0.031
-449.924	-12.847	0.052	0.034
-448.909	-94.320	0.166	-0.045
-447.895	-88.193	-0.114	0.034
-446.880	110.584	0.120	-0.143
-445.865	525.690	0.033	-0.077
-444.851	-124.409	0.110	0.017
-443.836	87.760	-0.352	-0.387
-442.822	76.976	0.108	-0.113
-441.807	800.000	-0.081	-0.269
-440.792	-200.000	-0.024	0.127
-439.778	-124.901	-0.132	0.020
-438.763	-200.000	0.011	-0.269
-437.749	292.533	-0.070	0.126
-436.734	-200.000	-0.017	-0.077
-435.719	-25.052	0.117	0.069
-434.705	506.728	0.145	-0.334
-433.690	207.156	-0.080	0.124
-432.676	800.000	0.063	-0.255
-431.661	-103.335	0.154	-0.036
-430.646	800.000	-0.020	-0.067
-429.632	-158.474	0.502	0.029
-428.617	-61.854	-0.283	-0.118
-427.603	27.238	-0.034	0.029
-426.588	-22.607	-0.163	0.098
-425.573	-32.439	-0.050	0.027
-424.559	48.281	-0.173	0.161
-423.544	800.000	-0.106	0.371
-422.530	11.272	0.236	0.179
-421.515	-200.000	0.001	-0.191
-420.500	1.336	0.320	-0.228
-419.486	242.330	0.080	-0.133
-418.471	-200.000	-0.015	-0.124
-417.457	800.000	0.106	0.297
-416.442	800.000	-0.073	0.208
-415.428	800.000	-0.012	0.044
-414.413	467.635	0.125	0.278
-413.398	-27.236	0.323	-0.187
-412.384	32.145	-0.185	-0.159
-411.369	-123.516	-0.339	-0.053
-410.355	35.015	0.160	-0.139
-409.340	-105.181	0.401	-0.091
-408.325	278.391	0.094	0.166
-407.311	-57.902	-0.269	-0.116
-406.296	151.297	0.173	0.234
-405.282	508.700	0.024	-0.056
-404.267	-116.352	-0.203	-0.037
-403.252	-80.580	0.253	-0.084
-402.238	-96.734	-0.146	0.038
-401.223	59.952	0.126	0.123
-400.209	-200.000	0.037	0.480
-399.194	564.828	-0.102	-0.246
-398.179	-107.366	0.221	-0.048
-397.165	-84.385	0.193	0.061
-396.150	11.046	-0.208	-0.158
-395.136	-200.000	-0.085	0.430
-394.121	800.000	-0.014	0.058
-393.106	5.232	0.393	0.287
-392.092	61.849	-0.218	-0.215
-391.077	-123.591	0.065	0.010
-390.063	-20.449	-0.267	0.162
-389.048	-72.843	0.119	-0.043
-388.033	-135.514	-0.160	-0.019
-387.019	16.418	0.299	-0.234
-386.004	-200.000	0.040	-0.241
-384.990	-36.641	0.145	0.077
-383.975	16.767	0.053	0.041
-382.960	-62.245	-0.174	0.072
-381.946	-200.000	0.002	-0.242
-380.931	-200.000	0.048	-0.207
-379.917	253.888	0.122	0.206
-378.902	-22.370	0.075	0.045
-377.888	-200.000	-0.089	0.000
-376.873	-151.004	-0.223	0.017
-375.858	-200.000	0.034	0.200
-374.844	-40.748	-0.184	-0.095
-373.829	800.000	-0.024	-0.104
-372.815	710.330	-0.093	0.245
-371.800	-58.884	-0.056	-0.024
-370.785	-200.000	-0.010	-0.159
-369.771	89.880	-0.198	0.219
-368.756	800.000	-0.081	-0.336
-367.742	-39.444	-0.209	-0.108
-366.727	3.550	0.521	-0.376
-365.712	-49.952	-0.302	0.142
-364.698	-200.000	0.010	-0.193
-363.683	-150.550	0.275	0.021
-362.669	159.709	0.064	0.088
-361.654	-90.733	0.610	0.174
-360.639	-55.910	-0.101	0.045
-359.625	800.000	0.026	-0.100
-358.610	178.917	-0.092	0.134
-357.596	-116.936	0.137	-0.025
-356.581	-64.880	0.254	-0.102
-355.566	-200.000	-0.046	0.291
-354.552	-79.237	0.573	0.192
-353.537	199.433	0.099	0.151
-352.523	-109.555	0.300	0.063
-351.508	-124.087	0.115	0.018
-350.493	-73.771	0.170	-0.061
-349.479	-86.281	-0.265	0.081
-348.464	-41.301	0.254	0.130
-347.450	2.088	-0.294	0.210
-346.435	-200.000	-0.012	-0.105
-345.420	12.866	-0.239	-0.182
-344.406	0.468	-0.159	-0.112
-343.391	800.000	0.041	0.114
-342.377	-200.000	0.017	-0.106
-341.362	800.000	0.068	-0.205
-340.348	-114.589	0.173	0.033
-339.333	-40.795	-0.161	0.082
-338.318	-200.000	0.009	0.293
-337.304	-99.477	0.570	0.142
-336.289	-200.000	0.018	0.214
-335.275	160.589	-0.083	0.114
-334.260	-200.000	-0.040	0.213
-333.245	-200.000	-0.001	-0.022
-332.231	84.660	0.082	0.088
-331.216	-46.009	0.267	0.130
-330.202	-200.000	0.042	0.267
-329.187	-25.633	-0.233	-0.136
-328.172	-200.000	0.055	0.327
-327.158	43.337	-0.049	-0.044
-326.143	139.945	0.196	0.255
-325.129	9.231	-0.101	0.076
-324.114	-200.000	-0.017	-0.206
-323.099	-29.149	-0.028	-0.016
-322.085	-174.303	0.206	-0.006
-321.070	21.820	-0.236	-0.190
-320.056	-200.000	-0.003	0.155
-319.041	231.903	0.085	0.138
-318.026	18.962	0.158	0.125
-317.012	392.491	-0.076	-0.157
-315.997	-200.000	-0.013	-0.199
-314.983	-200.000	-0.010	-0.052
-313.968	-23.018	-0.213	0.127
-312.953	374.541	-0.066	0.132
-311.939	22.404	-0.176	0.142
-310.924	-1.206	-0.271	-0.189
-309.910	594.822	0.054	0.132
-308.895	-68.475	-0.105	-0.040
-307.880	-200.000	-0.001	-0.331
-306.866	162.724	0.081	-0.113
-305.851	-200.000	-0.024	0.373
-304.837	-95.823	-0.121	-0.032
-303.822	248.979	-0.089	0.149
-302.807	86.554	0.231	-0.251
-301.793	777.369	-0.087	-0.235
-300.778	-130.956	-0.151	0.020
-299.764	700.818	-0.119	-0.309
-298.749	330.173	0.198	0.377
-297.735	800.000	0.016	-0.063
-296.720	162.441	-0.061	-0.084
-295.705	163.685	0.172	-0.239
-294.691	800.000	0.163	0.449
-293.676	800.000	-0.137	0.397
-292.662	-200.000	0.042	0.266
-291.647	-200.000	-0.043	-0.225
-290.632	49.915	-0.325	0.303
-289.618	-105.310	0.259	-0.058
-288.603	-105.637	0.298	-0.067
-287.589	202.576	0.199	0.304
-286.574	-129.651	-0.037	0.005
-285.559	800.000	-0.061	-0.198
-284.545	800.000	-0.042	-0.139
-283.530	800.000	-0.030	0.112
-282.516	800.000	0.081	0.222
-281.501	-142.296	-0.127	-0.012
-280.486	-92.823	-0.164	-0.045
-279.472	-200.000	-0.044	-0.321
-278.457	800.000	0.056	-0.156
-277.443	295.668	-0.012	0.022
-276.428	45.261	0.138	0.126
-275.413	-31.847	0.022	0.012
-274.399	-42.883	0.227	-0.113
-273.384	-200.000	-0.023	0.113
-272.370	490.298	0.019	-0.043
-271.355	800.000	-0.056	0.223
-270.340	-117.150	0.177	-0.032
-269.326	-200.000	-0.012	0.221
-268.311	-117.345	0.053	-0.010
-267.297	800.000	-0.105	-0.289
-266.282	-50.939	0.190	0.088
-265.267	-200.000	0.050	0.250
-264.253	342.002	-0.047	0.091
-263.238	29.127	-0.154	-0.129
-262.224	-200.000	0.006	-0.115
-261.209	-200.000	0.010	0.443
-260.195	-90.007	0.493	0.142
-259.180	-200.000	0.023	-0.330
-258.165	-63.537	-0.097	0.039
-257.151	-131.884	0.514	0.066
-256.136	-90.500	-0.222	-0.063
-255.122	-122.936	0.185	-0.029
-254.107	36.028	0.168	0.146
-253.092	455.928	-0.143	0.312
-252.078	-200.000	-0.059	0.290
-251.063	202.960	-0.072	-0.110
-250.049	-200.000	-0.069	0.481
-249.034	-182.680	-0.069	0.001
-248.019	58.588	-0.034	0.033
-247.005	-200.000	0.012	-0.154
-245.990	-200.000	-0.028	-0.130
-244.976	-200.000	0.067	-0.296
-243.961	208.376	0.083	0.127
-242.946	64.194	-0.134	0.133
-241.932	-200.000	0.005	-0.141
-240.917	74.104	-0.285	0.295
-239.903	482.381	0.101	-0.227
-238.888	214.716	-0.061	-0.096
-237.873	-50.100	0.205	0.096
-236.859	800.000	-0.042	-0.119
-235.844	-200.000	0.024	0.269
-234.830	800.000	-0.032	-0.126
-233.815	-126.755	-0.083	0.012
-232.800	-200.000	-0.077	-0.483
-231.786	-52.838	0.172	0.078
-230.771	800.000	-0.026	0.093
-229.757	-200.000	0.033	0.325
-228.742	-34.180	0.047	0.025
-227.727	-163.161	-0.264	-0.013
-226.713	-200.000	0.056	0.251
-225.698	-200.000	0.024	0.180
-224.684	800.000	0.046	0.159
-223.669	-200.000	0.014	-0.068
-222.655	-16.478	0.183	-0.114
-221.640	-200.000	0.057	-0.346
-220.625	164.358	-0.064	0.089
-219.611	-151.247	-0.205	0.015
-218.596	93.145	0.201	-0.223
-217.582	109.224	-0.107	-0.126
-216.567	-37.252	0.179	-0.094
-215.552	-109.357	-0.325	-0.068
-214.538	-200.000	-0.012	-0.076
-213.523	-200.000	-0.035	0.241
-212.509	-200.000	-0.010	-0.104
-211.494	-168.736	0.137	-0.005
-210.479	-200.000	-0.020	0.166
-209.465	-200.000	-0.018	0.253
-208.450	255.751	-0.244	0.411
-207.436	-200.000	-0.017	0.118
-206.421	140.205	0.189	-0.245
-205.406	-46.131	-0.117	-0.057
-204.392	295.306	0.020	-0.037
-203.377	800.000	0.071	-0.252
-202.363	-66.147	0.187	-0.073
-201.348	-68.515	-0.316	-0.120
-200.333	-109.816	-0.122	0.025
-199.319	237.640	0.156	0.254
-198.304	-123.794	-0.224	0.035
-197.290	-124.684	-0.173	0.026
-196.275	-103.050	0.196	0.046
-195.260	48.698	-0.186	-0.172
-194.246	-200.000	0.026	0.168
-193.231	13.137	0.537	0.409
-192.217	-85.641	-0.264	0.081
-191.202	30.262	0.153	0.129
-190.187	-136.746	0.310	-0.035
-189.173	-99.022	0.152	0.038
-188.158	-52.213	-0.063	0.029
-187.144	40.710	-0.218	0.194
-186.129	-170.773	-0.275	-0.009
-185.114	-125.562	-0.192	-0.029
-184.100	287.337	0.167	0.296
-183.085	120.970	0.071	0.087
-182.071	-126.854	-0.182	-0.026
-181.056	-200.000	0.047	0.241
-180.042	-53.296	-0.407	-0.183
-179.027	800.000	-0.139	-0.595
-178.012	217.289	-0.066	-0.103
-176.998	-90.406	0.170	-0.049
-175.983	-200.000	0.026	-0.386
-174.969	-22.682	-0.273	-0.162
-173.954	-200.000	0.050	-0.237
-172.939	215.395	0.230	0.359
-171.925	-83.859	-0.238	-0.074
-170.910	-142.182	-0.270	-0.026
-169.896	-200.000	0.004	-0.027
-168.881	-200.000	0.077	-0.352
-167.866	-117.057	0.213	-0.038
-166.852	33.417	0.269	0.230
-165.837	2.843	0.138	0.099
-164.823	-82.252	0.234	0.075
-163.808	-152.806	-0.229	0.016
-162.793	-20.944	-0.348	0.209
-161.779	-200.000	0.004	0.076
-160.764	342.911	-0.156	-0.299
-159.750	65.762	-0.162	-0.161
-158.735	800.000	-0.161	0.447
-157.720	-62.007	0.241	-0.099
-156.706	209.054	0.165	-0.254
-155.691	48.474	-0.039	-0.036
-154.677	-86.243	-0.327	-0.099
-153.662	12.646	0.126	-0.095
-152.647	-4.009	0.370	-0.252
-151.633	-200.000	0.011	0.071
-150.618	593.334	0.078	0.188
-149.604	-200.000	-0.012	0.309
-148.589	-173.007	0.290	-0.009
-147.574	-200.000	-0.039	0.212
-146.560	-6.013	-0.341	0.229
-145.545	-200.000	-0.032	0.236
-144.531	-116.838	-0.131	-0.024
-143.516	-134.393	0.297	0.036
-142.502	10.465	-0.208	-0.155
-141.487	-68.259	-0.401	-0.153
-140.472	-73.388	0.196	-0.070
-139.458	800.000	0.082	0.239
-138.443	-50.560	-0.232	0.107
-137.429	-53.522	-0.148	-0.066
-136.414	103.643	-0.076	0.087
-135.399	-200.000	0.024	-0.126
-134.385	-166.522	0.068	0.003
-133.370	-13.616	0.082	-0.052
-132.356	-121.329	-0.429	-0.070
-131.341	-200.000	0.025	0.291
-130.326	-94.600	-0.344	0.092
-129.312	-12.182	-0.396	-0.254
-128.297	671.232	0.113	-0.288
-127.283	-63.504	0.171	0.069
-126.268	800.000	-0.025	0.072
-125.253	-89.361	-0.120	-0.035
-124.239	8.308	0.310	0.228
-123.224	58.645	-0.119	0.114
-122.210	66.408	0.183	-0.183
-121.195	800.000	0.053	-0.159
-120.180	-200.000	-0.055	0.326
-119.166	-17.710	0.238	0.146
-118.151	70.588	-0.117	-0.119
-117.137	492.435	0.003	-0.008
-116.122	-159.361	0.020	-0.001
-115.107	201.962	0.167	0.253
-114.093	800.000	-0.053	0.149
-113.078	219.691	-0.110	-0.172
-112.064	-200.000	-0.023	-0.206
-111.049	-85.636	0.019	0.006
-110.034	392.716	0.024	0.048
-109.020	-91.252	0.176	0.049
-108.005	-200.000	0.006	0.161
-106.991	11.449	0.179	-0.134
-105.976	-123.921	-0.265	0.041
-104.962	800.000	-0.110	-0.331
-103.947	105.165	-0.110	-0.127
-102.932	-56.678	0.076	-0.033
-101.918	0.434	0.185	-0.130
-100.903	63.566	-0.327	0.321
-99.889	51.712	0.206	-0.191
-98.874	-171.493	-0.103	-0.003
-97.859	31.560	-0.133	-0.112
-96.845	-11.120	-0.172	-0.111
-95.830	592.098	0.110	-0.265
-94.816	537.456	0.144	0.334
-93.801	-30.766	0.190	0.105
-92.786	-200.000	-0.060	0.344
-91.772	102.534	0.222	0.255
-90.757	-200.000	0.001	-0.115
-89.743	36.680	0.117	0.101
-88.728	-85.838	0.213	0.065
-87.713	-200.000	0.003	0.168
-86.699	-93.181	0.184	-0.050
-85.684	-62.001	-0.222	-0.091
-84.670	800.000	0.032	-0.128
-83.655	-104.741	-0.318	0.072
-82.640	114.511	-0.154	0.184
-81.626	-81.241	0.130	-0.042
-80.611	-101.827	0.244	-0.058
-79.597	800.000	-0.076	-0.232
-78.582	800.000	0.101	0.302
-77.567	-152.510	-0.128	-0.009
-76.553	800.000	-0.052	0.200
-75.538	-25.553	0.237	-0.137
-74.524	-81.901	-0.125	-0.040
-73.509	-13.461	0.130	0.082
-72.494	136.163	-0.181	-0.231
-71.480	381.667	-0.127	0.255
-70.465	-149.822	0.193	-0.015
-69.451	31.109	0.083	0.070
-68.436	102.084	-0.153	0.175
-67.422	-200.000	0.028	-0.315
-66.407	-54.427	0.238	-0.106
-65.392	79.279	0.197	-0.206
-64.378	-7.327	-0.269	0.179
-63.363	-53.684	-0.119	-0.053
-62.349	-129.649	0.373	0.050
-61.334	16.112	-1.113	-0.858
-60.319	150.795	0.692	0.920
-59.305	800.000	-0.262	-1.120
-58.290	680.151	0.545	1.388
-57.276	411.969	0.670	1.392
-56.261	-200.000	111.103	643.371
-55.246	493.126	1483.320	3326.233
-54.232	150.653	2652.701	3524.706
-53.217	100.345	2270.216	2576.271
-52.203	37.345	1886.956	1635.288
-51.188	31.392	1680.263	1411.323
-50.173	28.922	1637.795	1357.392
-49.159	50.715	1691.888	1566.053
-48.144	50.229	1706.322	1575.716
-47.130	31.117	1665.856	1396.940
-46.115	28.383	1651.355	1364.401
-45.100	28.208	1646.304	1358.875
-44.086	28.085	1644.142	1356.123
-43.071	28.102	1641.681	1354.163
-42.057	28.044	1639.283	1351.705
-41.042	28.160	1636.962	1350.594
-40.027	28.148	1635.278	1349.065
-39.013	28.015	1633.520	1346.576
-37.998	27.972	1632.016	1344.966
-36.984	28.071	1630.593	1344.469
-35.969	28.249	1628.519	1344.015
-34.954	28.235	1627.700	1343.184
-33.940	28.292	1625.694	1341.888
-32.925	28.200	1623.570	1339.414
-31.911	28.234	1621.433	1337.845
-30.896	28.179	1620.241	1336.405
-29.881	28.216	1618.528	1335.212
-28.867	28.203	1617.486	1334.198
-27.852	28.192	1615.744	1332.630
-26.838	28.250	1614.503	1331.976
-25.823	28.264	1613.320	1331.050
-24.809	28.331	1611.888	1330.303
-23.794	28.257	1610.581	1328.635
-22.779	28.359	1608.731	1327.793
-21.765	28.269	1607.593	1326.154
-20.750	28.183	1606.346	1324.445
-19.736	28.361	1604.137	1323.860
-18.721	28.325	1603.139	1322.723
-17.706	28.268	1601.792	1321.149
-16.692	28.350	1599.889	1320.117
-15.677	28.238	1599.357	1318.822
-14.663	28.357	1597.470	1318.065
-13.648	28.369	1595.958	1316.854
-12.633	28.316	1594.587	1315.289
-11.619	28.211	1593.074	1313.235
-10.604	28.375	1591.198	1312.814
-9.590	28.332	1590.106	1311.552
-8.575	28.300	1589.533	1310.796
-7.560	28.385	1587.838	1309.959
-6.546	28.255	1587.056	1308.326
-5.531	28.342	1585.382	1307.518
-4.517	28.301	1584.801	1306.695
-3.502	28.312	1583.909	1305.985
-2.487	28.351	1582.090	1304.713
-1.473	27.931	1570.529	1292.155
-0.458	25.055	1551.046	1255.951
0.556	19.389	1551.987	1224.521
1.571	17.030	1575.433	1225.884
2.586	16.583	1588.251	1232.492
3.600	15.792	1538.353	1188.083
4.615	12.841	1439.661	1092.234
5.629	9.811	1384.408	1030.892
6.644	9.211	1377.128	1021.564
7.659	9.111	1376.026	1020.022
8.673	9.079	1375.033	1018.995
9.688	9.080	1372.749	1017.215
10.702	8.930	1370.025	1014.160
11.717	10.399	1372.272	1025.032
12.731	13.921	1378.549	1051.977
13.746	16.776	1383.051	1073.434
14.761	17.205	1382.426	1075.571
15.775	16.161	1379.907	1066.915
16.790	15.179	1377.055	1058.419
17.804	14.420	1374.613	1051.658
18.819	13.998	1373.207	1047.826
19.834	13.685	1372.161	1044.969
20.848	13.457	1370.818	1042.417
21.863	13.252	1369.276	1039.860
22.877	13.018	1368.274	1037.536
23.892	13.014	1367.189	1036.595
24.907	13.062	1366.332	1036.156
25.921	12.981	1366.101	1035.384
26.936	13.088	1364.615	1034.831
27.950	13.131	1363.557	1034.210
28.965	13.203	1362.686	1033.907
29.980	13.234	1361.742	1033.294
30.994	13.253	1360.032	1032.027
32.009	13.330	1359.020	1031.644
33.023	13.324	1357.702	1030.515
34.038	13.382	1355.862	1029.389
35.053	13.222	1354.676	1027.401
36.067	13.209	1353.840	1026.595
37.082	13.206	1352.872	1025.752
38.096	13.165	1352.459	1025.098
39.111	13.215	1351.507	1024.595
40.126	13.206	1350.108	1023.387
41.140	13.041	1349.791	1022.032
42.155	12.984	1349.080	1021.053
43.169	13.016	1348.950	1021.064
44.184	13.017	1348.404	1020.563
45.199	12.963	1347.960	1019.805
46.213	13.002	1347.373	1019.511
47.228	13.134	1346.361	1019.472
48.242	13.142	1344.783	1018.231
49.257	13.108	1343.759	1017.157
50.271	13.224	1341.932	1016.402
51.286	13.171	1340.928	1015.221
52.301	13.169	1339.618	1014.128
53.315	13.088	1338.853	1012.966
54.330	13.015	1337.585	1011.470
55.344	13.099	1335.760	1010.512
56.359	13.034	1335.588	1009.896
57.374	13.013	1334.244	1008.664
58.388	13.030	1334.002	1008.494
59.403	13.034	1333.452	1008.010
60.417	12.889	1333.021	1006.710
61.432	12.960	1331.683	1006.043
62.447	12.905	1330.585	1004.794
63.461	12.890	1329.323	1003.657
64.476	12.935	1328.735	1003.397
65.490	12.908	1327.065	1001.886
66.505	12.797	1325.721	1000.110
67.520	12.918	1324.332	999.703
68.534	12.998	1323.182	999.231
69.549	12.900	1322.651	998.150
70.563	12.988	1321.406	997.655
71.578	12.901	1320.499	996.355
72.593	12.689	1320.145	994.723
73.607	12.782	1319.239	994.513
74.622	12.775	1318.352	993.711
75.636	12.846	1317.472	993.390
76.651	12.807	1316.577	992.391
77.666	12.836	1316.530	992.445
78.680	12.753	1316.383	991.745
79.695	12.790	1315.705	991.369
80.709	12.840	1314.773	990.876
81.724	12.899	1313.893	990.480
82.739	12.963	1312.581	989.787
83.753	13.113	1311.734	989.965
84.768	13.131	1310.799	989.279
85.782	13.214	1309.970	989.063
86.797	13.344	1307.998	988.262
87.812	13.011	1307.019	985.447
88.826	13.083	1305.461	984.615
89.841	13.123	1304.987	984.404
90.855	13.145	1303.886	983.621
91.870	13.192	1303.037	983.173
92.884	13.188	1302.205	982.433
93.899	13.228	1301.421	981.991
94.914	13.229	1301.081	981.656
95.928	13.363	1299.906	981.478
96.943	13.167	1299.153	979.661
97.957	13.169	1297.998	978.716
98.972	13.145	1296.811	977.591
99.987	13.170	1296.118	977.128
101.001	13.219	1294.921	976.428
102.016	13.148	1294.227	975.400
103.030	13.166	1293.460	974.844
104.045	13.236	1292.126	974.165
105.060	13.202	1290.709	972.807
106.074	13.004	1289.776	970.855
107.089	12.914	1288.472	969.260
108.103	12.924	1287.089	968.194
109.118	12.938	1285.749	967.180
110.133	12.994	1284.214	966.266
111.147	13.017	1282.806	965.257
112.162	13.050	1281.604	964.459
113.176	12.972	1280.756	963.280
114.191	13.010	1279.818	962.711
115.206	12.984	1278.581	961.548
116.220	12.910	1277.267	960.043
117.235	12.998	1276.370	959.797
118.249	13.026	1275.059	958.887
119.264	12.982	1274.222	957.917
120.279	12.929	1273.145	956.717
121.293	12.995	1271.954	956.121
122.308	12.971	1270.927	955.123
123.322	12.890	1269.863	953.769
124.337	12.929	1268.584	952.947
125.352	12.911	1268.217	952.485
126.366	12.900	1266.844	951.308
127.381	12.923	1265.288	950.188
128.395	12.859	1264.768	949.342
129.410	12.938	1263.410	948.693
130.424	13.013	1262.849	948.620
131.439	12.926	1261.929	947.345
132.454	12.965	1261.249	946.973
133.468	13.055	1260.354	946.734
134.483	13.067	1259.443	946.036
135.497	13.156	1258.115	945.466
136.512	13.020	1257.281	943.977
137.527	12.985	1255.740	942.537
138.541	13.036	1254.336	941.688
139.556	13.021	1252.769	940.345
140.570	13.114	1252.410	940.522
141.585	13.221	1250.393	939.532
142.600	13.167	1250.286	939.063
143.614	13.276	1248.960	938.600
144.629	13.434	1247.404	938.246
145.643	13.328	1246.301	936.732
146.658	13.231	1245.555	935.541
147.673	13.170	1244.170	934.070
148.687	13.055	1243.480	932.823
149.702	13.075	1241.837	931.618
150.716	13.164	1240.286	930.877
151.731	13.170	1238.980	929.844
152.746	13.234	1237.728	929.185
153.760	13.184	1236.791	928.118
154.775	13.210	1235.921	927.528
155.789	13.259	1234.434	926.604
156.804	13.344	1233.290	926.138
157.819	13.339	1232.806	925.669
158.833	13.486	1231.153	925.168
159.848	13.526	1230.490	924.807
160.862	13.422	1229.755	923.592
161.877	13.310	1228.501	921.947
162.892	13.258	1227.479	920.810
163.906	13.204	1226.727	919.864
164.921	13.193	1225.893	919.092
165.935	13.302	1224.860	918.844
166.950	13.368	1224.283	918.695
167.964	13.310	1223.290	917.550
168.979	13.269	1222.745	916.828
169.994	13.374	1221.811	916.632
171.008	13.290	1221.507	915.856
172.023	13.489	1220.181	915.883
173.037	13.469	1219.697	915.328
174.052	13.467	1218.648	914.449
175.067	13.346	1217.646	912.947
176.081	13.337	1216.857	912.224
177.096	13.258	1216.282	911.277
178.110	13.415	1214.220	910.518
179.125	13.399	1213.297	909.658
180.140	13.415	1212.248	908.877
181.154	13.506	1210.886	908.274
182.169	13.468	1209.962	907.295
183.183	13.463	1208.858	906.358
184.198	13.644	1207.346	906.132
185.213	13.570	1206.164	904.762
186.227	13.677	1205.085	904.455
187.242	13.682	1204.256	903.782
188.256	13.528	1203.654	902.408
189.271	13.676	1202.622	902.365
190.286	13.614	1201.154	900.842
191.300	13.492	1200.249	899.421
192.315	13.309	1199.563	897.835
193.329	13.430	1199.269	898.194
194.344	13.405	1198.726	897.569
195.359	13.499	1198.550	897.868
196.373	13.564	1198.002	897.734
197.388	13.616	1197.223	897.352
198.402	13.702	1196.562	897.242
199.417	13.875	1195.678	897.436
200.432	13.902	1194.831	896.867
201.446	13.870	1194.253	896.179
202.461	13.890	1193.439	895.596
203.475	13.880	1192.890	895.052
204.490	13.801	1191.340	893.384
205.504	13.792	1190.123	892.343
206.519	13.844	1188.615	891.416
207.534	13.740	1187.716	890.100
208.548	13.809	1186.628	889.580
209.563	13.862	1185.647	889.050
210.577	13.865	1184.729	888.295
211.592	14.015	1183.695	888.247
212.607	13.864	1183.345	887.097
213.621	13.909	1182.407	886.556
214.636	13.902	1181.762	885.956
215.650	13.862	1180.452	884.680
216.665	14.033	1179.753	884.992
217.680	14.098	1178.834	884.568
218.694	14.075	1177.684	883.507
219.709	14.151	1176.666	883.068
220.723	14.160	1176.044	882.571
221.738	14.136	1175.716	882.117
222.753	14.046	1175.097	881.097
223.767	14.046	1174.322	880.440
224.782	14.131	1173.627	880.291
225.796	14.230	1172.768	880.091
226.811	14.143	1172.542	879.386
227.826	14.120	1171.645	878.510
228.840	14.160	1171.007	878.169
229.855	14.025	1170.137	876.728
230.869	14.182	1169.311	876.858
231.884	14.222	1168.683	876.518
232.899	14.096	1167.767	875.092
233.913	13.982	1167.212	873.999
234.928	14.113	1166.227	873.870
235.942	14.145	1165.210	873.200
236.957	14.134	1164.689	872.676
237.972	14.075	1163.969	871.746
238.986	14.137	1163.410	871.579
240.001	14.217	1162.577	871.295
241.015	14.117	1161.779	870.098
242.030	14.248	1160.700	869.896
243.045	14.202	1160.047	869.087
244.059	14.270	1159.438	868.910
245.074	14.244	1158.377	867.905
246.088	14.202	1158.165	867.449
247.103	14.459	1156.916	867.773
248.117	14.345	1156.206	866.571
249.132	14.437	1155.945	866.780
250.147	14.499	1155.130	866.413
251.161	14.638	1154.307	866.441
252.176	14.589	1153.648	865.615
253.190	14.598	1152.822	864.967
254.205	14.729	1152.908	865.631
255.220	14.631	1152.046	864.399
256.234	14.690	1151.218	864.011
257.249	14.743	1150.300	863.515
258.263	14.755	1149.652	863.016
259.278	14.845	1149.143	863.022
260.293	14.795	1148.779	862.415
261.307	14.851	1148.151	862.158
262.322	14.900	1147.059	861.513
263.336	14.925	1146.160	860.888
264.351	14.824	1146.304	860.403
265.366	14.874	1145.567	860.030
266.380	14.890	1144.568	859.288
267.395	14.832	1144.102	858.561
268.409	14.776	1143.139	857.475
269.424	14.879	1142.374	857.352
270.439	14.859	1141.729	856.694
271.453	14.874	1140.929	856.095
272.468	14.956	1139.768	855.566
273.482	14.827	1139.634	854.728
274.497	14.744	1139.186	853.891
275.512	14.728	1138.519	853.235
276.526	14.949	1137.151	853.263
277.541	14.850	1136.137	851.923
278.555	14.868	1136.007	851.840
279.570	14.995	1135.095	851.725
280.585	15.053	1134.860	851.769
281.599	15.040	1133.558	850.652
282.614	15.077	1132.611	850.054
283.628	15.058	1131.549	849.085
284.643	15.062	1130.475	848.226
285.657	15.113	1129.532	847.699
286.672	14.958	1129.035	846.469
287.687	15.072	1128.107	846.276
288.701	15.037	1127.591	845.633
289.716	15.026	1126.554	844.730
290.730	15.087	1125.843	844.429
291.745	15.082	1125.174	843.826
292.760	15.055	1124.899	843.408
293.774	15.153	1124.378	843.434
294.789	15.145	1124.107	843.121
295.803	15.167	1123.311	842.560
296.818	15.198	1122.043	841.688
297.833	15.252	1121.556	841.517
298.847	15.052	1120.628	839.743
299.862	15.251	1119.452	839.788
300.876	15.287	1119.335	839.806
301.891	15.250	1118.556	838.960
302.906	15.285	1117.817	838.506
303.920	15.271	1117.089	837.816
304.935	15.399	1116.893	838.236
305.949	15.471	1115.647	837.585
306.964	15.451	1114.964	836.897
307.979	15.346	1114.519	835.968
308.993	15.447	1113.659	835.749
310.008	15.440	1112.983	835.136
311.022	15.454	1112.209	834.549
312.037	15.521	1110.974	833.882
313.052	15.527	1109.756	832.926
314.066	15.483	1109.092	832.136
315.081	15.483	1108.286	831.458
316.095	15.301	1107.660	830.013
317.110	15.410	1107.087	830.047
318.125	15.377	1106.539	829.402
319.139	15.524	1106.104	829.729
320.154	15.415	1105.079	828.348
321.168	15.368	1104.597	827.680
322.183	15.433	1103.898	827.403
323.197	15.347	1103.383	826.520
324.212	15.499	1102.547	826.569
325.227	15.507	1102.100	826.203
326.241	15.514	1101.172	825.467
327.256	15.549	1100.412	824.996
328.270	15.466	1099.547	823.865
329.285	15.416	1098.666	822.887
330.300	15.443	1098.019	822.465
331.314	15.445	1097.220	821.801
332.329	15.615	1095.729	821.447
333.343	15.517	1095.034	820.371
334.358	15.607	1094.330	820.210
335.373	15.640	1093.786	819.890
336.387	15.708	1093.005	819.563
337.402	15.657	1092.073	818.544
338.416	15.722	1091.345	818.246
339.431	15.752	1090.469	817.662
340.446	15.858	1089.816	817.613
341.460	15.756	1089.933	817.135
342.475	16.025	1088.363	817.187
343.489	16.006	1087.562	816.421
344.504	15.968	1086.936	815.695
345.519	15.952	1086.059	814.887
346.533	16.042	1085.258	814.652
347.548	16.069	1084.954	814.484
348.562	16.011	1083.639	813.142
349.577	16.002	1083.154	812.664
350.592	15.858	1082.546	811.438
351.606	15.883	1081.853	810.971
352.621	15.852	1081.058	810.153
353.635	15.926	1080.084	809.709
354.650	15.912	1079.603	809.209
355.665	15.865	1078.975	808.441
356.679	15.863	1078.852	808.265
357.694	15.892	1078.118	807.784
358.708	16.081	1076.855	807.673
359.723	16.041	1076.781	807.352
360.738	16.106	1075.792	806.852
361.752	16.020	1075.104	805.851
362.767	16.023	1074.761	805.539
363.781	16.059	1073.836	804.945
364.796	16.271	1073.056	805.301
365.810	16.203	1072.505	804.492
366.825	16.236	1072.422	804.515
367.840	16.235	1071.995	804.122
368.854	16.391	1071.033	804.070
369.869	16.339	1070.380	803.264
370.883	16.344	1069.704	802.706
371.898	16.253	1069.243	801.855
372.913	16.315	1068.411	801.457
373.927	16.345	1067.789	801.061
374.942	16.357	1067.743	801.014
375.956	16.381	1066.942	800.456
376.971	16.421	1066.053	799.906
377.986	16.440	1065.708	799.665
379.000	16.434	1065.059	799.081
380.015	16.590	1064.560	799.373
381.029	16.541	1063.774	798.479
382.044	16.628	1062.707	798.018
383.059	16.607	1062.271	797.522
384.073	16.592	1061.577	796.862
385.088	16.655	1060.280	796.112
386.102	16.634	1059.855	795.624
387.117	16.501	1058.926	794.229
388.132	16.538	1057.969	793.619
389.146	16.548	1056.538	792.520
390.161	16.523	1056.390	792.221
391.175	16.441	1055.932	791.423
392.190	16.644	1055.095	791.678
393.205	16.636	1054.328	790.993
394.219	16.644	1053.854	790.607
395.234	16.516	1052.966	789.272
396.248	16.646	1051.640	788.816
397.263	16.602	1050.667	787.812
398.278	16.551	1050.526	787.394
399.292	16.574	1049.213	786.447
400.307	16.561	1048.641	785.892
401.321	16.491	1048.332	785.265
402.336	16.556	1047.638	784.976
403.350	16.509	1046.778	784.045
404.365	16.685	1045.976	784.192
405.380	16.745	1044.865	783.568
406.394	16.717	1044.616	783.182
407.409	16.711	1043.912	782.557
408.423	16.783	1043.260	782.329
409.438	16.920	1042.770	782.525
410.453	16.952	1041.731	781.823
411.467	16.904	1041.123	781.076
412.482	16.944	1040.889	781.017
413.496	16.855	1040.525	780.265
414.511	17.025	1039.624	780.300
415.526	17.084	1039.065	780.086
416.540	17.087	1038.602	779.680
417.555	16.991	1038.138	778.825
418.569	17.080	1037.392	778.606
419.584	17.121	1036.918	778.367
420.599	17.111	1036.394	777.859
421.613	104.513	1324.834	1476.806
422.628	95.799	1366.817	1476.920
