DTS Sentinel unit serial number:	SN413079Multiplexer serial number:	ORYXHardware model number:	OX4-SRSoftware version number:	ORYX F/W v4.00 Oryx Data Collector v3.7.2.0data status	okinstallation	princeton_trtdifferential loss correction	single-endedforward channel	channel 2reverse channel	N/Adate	2019/09/16time	13:51:35forward acquisition time	60.00reverse acquisition time	0.00gamma	496.2192k internal	0.2294k external	0.2294temperature offset calibration	0.9941default loss term (dB/km)	0.3790temperature slope calibration	1.0000multiplexer offset coefficient	1.0000multiplexer slope coefficient	1.0000fibre end	0.00T internal ref (°C)	42.31T ext. ref 1 (°C)	13.98T ext. ref 2 (°C)	38.91length (m)	temperature (°C)	Stokes	anti-Stokes-747.200	-115.260	-0.238	-0.046
-746.185	-200.000	-0.010	0.285
-745.171	-41.579	-0.109	-0.057
-744.156	-200.000	0.011	0.426
-743.142	440.908	-0.034	0.076
-742.127	-50.400	0.185	-0.089
-741.112	800.000	0.053	-0.232
-740.098	11.995	-0.353	0.278
-739.083	316.077	-0.109	-0.210
-738.069	152.469	-0.112	0.156
-737.054	800.000	-0.035	-0.149
-736.039	-200.000	0.023	-0.113
-735.025	118.258	0.159	-0.201
-734.010	-200.000	0.025	0.435
-732.996	800.000	0.120	0.372
-731.981	-7.646	-0.273	0.189
-730.966	120.399	0.135	-0.171
-729.952	327.822	0.076	-0.149
-728.937	-200.000	-0.020	-0.357
-727.923	-119.769	0.219	0.039
-726.908	-51.738	0.102	0.048
-725.894	49.309	0.029	-0.028
-724.879	-200.000	0.011	0.257
-723.864	-118.384	0.376	-0.068
-722.850	-25.640	-0.321	0.193
-721.835	-200.000	-0.016	0.222
-720.821	-18.373	-0.111	-0.071
-719.806	-127.771	-0.358	-0.053
-718.791	-71.723	-0.269	0.103
-717.777	167.297	0.022	0.032
-716.762	-41.774	0.085	-0.045
-715.748	-121.229	0.343	0.059
-714.733	800.000	-0.111	-0.424
-713.718	268.788	0.107	-0.192
-712.704	-97.061	-0.196	0.052
-711.689	-66.419	-0.405	-0.164
-710.675	292.302	0.063	-0.117
-709.660	505.446	0.106	-0.251
-708.645	-104.918	-0.143	-0.033
-707.631	98.681	0.131	-0.155
-706.616	10.563	0.414	-0.322
-705.602	-31.604	0.200	-0.115
-704.587	-200.000	-0.015	-0.212
-703.572	-124.539	-0.157	-0.025
-702.558	670.003	0.068	0.179
-701.543	-131.266	-0.339	0.046
-700.529	-200.000	0.075	-0.388
-699.514	-64.778	0.087	0.036
-698.499	-107.562	0.086	0.019
-697.485	-200.000	-0.001	0.034
-696.470	741.629	0.053	-0.145
-695.456	315.219	-0.210	0.403
-694.441	-25.705	0.233	-0.140
-693.426	-118.243	0.541	-0.098
-692.412	-28.187	0.217	-0.128
-691.397	800.000	-0.146	-0.442
-690.383	91.575	0.236	0.271
-689.368	-31.849	0.145	-0.083
-688.354	-63.279	0.370	-0.156
-687.339	34.004	-0.063	0.056
-686.324	-153.473	-0.272	-0.019
-685.310	-68.840	0.168	-0.066
-684.295	47.073	-0.155	0.147
-683.281	52.796	0.244	-0.238
-682.266	-200.000	0.016	0.165
-681.251	-146.803	0.165	-0.015
-680.237	800.000	-0.066	0.223
-679.222	212.700	0.236	0.381
-678.208	218.495	0.143	-0.232
-677.193	-47.817	0.047	-0.023
-676.178	-200.000	-0.026	0.123
-675.164	-150.252	-0.081	0.006
-674.149	-200.000	0.010	-0.303
-673.135	800.000	0.027	0.078
-672.120	-174.851	0.206	-0.006
-671.105	800.000	0.089	0.276
-670.091	-103.832	0.046	-0.011
-669.076	-200.000	0.000	0.318
-668.062	-200.000	0.054	-0.299
-667.047	467.164	0.063	-0.144
-666.032	-200.000	0.015	-0.172
-665.018	800.000	0.040	0.124
-664.003	-193.604	-0.104	0.001
-662.989	174.684	0.193	-0.285
-661.974	-48.430	0.294	-0.144
-660.959	-200.000	0.028	0.181
-659.945	-35.914	0.147	0.081
-658.930	224.071	-0.091	-0.150
-657.916	-18.183	-0.143	-0.091
-656.901	-200.000	0.001	0.318
-655.886	-200.000	0.016	-0.399
-654.872	309.134	-0.061	0.115
-653.857	60.686	-0.135	0.136
-652.843	188.669	-0.267	-0.407
-651.828	74.363	-0.157	-0.168
-650.814	181.122	0.104	-0.156
-649.799	-66.659	-0.279	-0.113
-648.784	-107.624	0.056	-0.012
-647.770	150.605	0.080	-0.111
-646.755	168.274	0.191	0.277
-645.741	60.810	-0.161	0.163
-644.726	566.614	-0.073	-0.180
-643.711	-200.000	-0.016	0.173
-642.697	-64.533	-0.013	-0.005
-641.682	-113.146	0.213	0.043
-640.668	-47.005	0.279	0.139
-639.653	-90.625	-0.154	-0.045
-638.638	800.000	0.075	-0.235
-637.624	-69.643	-0.122	-0.047
-636.609	-90.606	-0.405	-0.119
-635.595	-79.064	0.192	0.066
-634.580	-74.974	0.297	-0.108
-633.565	-8.527	0.159	-0.109
-632.551	-34.833	-0.234	-0.130
-631.536	-115.160	0.132	-0.025
-630.522	800.000	0.116	0.369
-629.507	-126.182	0.139	0.021
-628.492	652.478	0.096	0.250
-627.478	72.615	0.161	0.171
-626.463	-131.052	-0.348	0.047
-625.449	-200.000	-0.028	0.147
-624.434	800.000	-0.115	-0.397
-623.419	-27.206	-0.255	-0.151
-622.405	207.534	0.255	-0.406
-621.390	-200.000	-0.010	-0.263
-620.376	-12.740	-0.128	0.085
-619.361	25.087	0.265	-0.224
-618.346	-178.207	-0.131	0.003
-617.332	-200.000	-0.035	0.310
-616.317	116.799	0.158	-0.197
-615.303	-173.712	-0.420	-0.013
-614.288	17.553	-0.268	0.217
-613.273	55.917	-0.202	0.200
-612.259	-24.021	0.147	-0.090
-611.244	-40.262	-0.272	-0.144
-610.230	-41.864	-0.213	-0.111
-609.215	-105.060	-0.243	0.057
-608.201	-200.000	0.038	0.219
-607.186	-1.720	-0.014	0.010
-606.171	296.394	0.053	-0.098
-605.157	-77.498	0.085	0.030
-604.142	11.026	0.375	-0.292
-603.128	73.748	-0.119	0.127
-602.113	800.000	-0.051	0.165
-601.098	-128.812	0.129	0.018
-600.084	-33.830	-0.407	-0.228
-599.069	59.141	-0.142	-0.142
-598.055	-20.841	-0.226	0.141
-597.040	367.093	-0.042	-0.085
-596.025	-12.272	-0.135	0.090
-595.011	800.000	-0.018	0.054
-593.996	800.000	-0.049	0.201
-592.982	-62.071	0.117	0.050
-591.967	11.140	-0.138	-0.107
-590.952	-106.511	0.213	-0.048
-589.938	512.952	-0.050	0.118
-588.923	800.000	-0.096	0.345
-587.909	-4.869	-0.205	0.143
-586.894	-115.882	0.211	0.040
-585.879	-200.000	0.016	0.389
-584.865	-29.603	-0.284	0.165
-583.850	-200.000	0.015	-0.191
-582.836	10.524	0.211	0.164
-581.821	-163.509	-0.277	0.013
-580.806	-163.980	-0.433	-0.020
-579.792	-20.861	-0.135	0.084
-578.777	48.235	-0.225	0.214
-577.763	-200.000	-0.005	-0.282
-576.748	-200.000	0.000	-0.256
-575.733	1.307	0.291	0.213
-574.719	-79.178	-0.172	-0.059
-573.704	211.696	0.125	0.201
-572.690	-200.000	-0.001	0.112
-571.675	38.642	0.150	-0.136
-570.661	-200.000	0.008	0.181
-569.646	-108.289	-0.184	-0.040
-568.631	-200.000	0.040	-0.204
-567.617	-200.000	-0.012	0.247
-566.602	-200.000	0.002	-0.187
-565.588	165.077	-0.104	0.149
-564.573	-200.000	0.010	0.262
-563.558	-113.121	0.301	-0.060
-562.544	391.554	-0.128	0.270
-561.529	42.596	-0.181	0.167
-560.515	72.105	0.167	0.177
-559.500	767.796	0.082	-0.227
-558.485	-200.000	0.020	-0.246
-557.471	-39.599	0.097	0.051
-556.456	-67.829	-0.256	0.101
-555.442	536.928	0.120	-0.288
-554.427	-150.424	0.080	0.006
-553.412	51.947	-0.228	0.221
-552.398	800.000	-0.059	-0.218
-551.383	-137.833	0.079	-0.009
-550.369	19.929	-0.122	0.100
-549.354	-58.621	0.262	0.115
-548.339	-200.000	-0.032	-0.283
-547.325	-200.000	0.010	0.192
-546.310	800.000	0.083	0.365
-545.296	-200.000	0.012	0.091
-544.281	-64.270	-0.306	-0.127
-543.266	-118.883	-0.520	0.093
-542.252	715.526	-0.033	0.089
-541.237	-186.455	0.206	0.003
-540.223	-148.713	0.113	-0.009
-539.208	-200.000	-0.001	-0.163
-538.193	-10.245	0.029	-0.020
-537.179	-200.000	0.097	-0.000
-536.164	-200.000	-0.006	0.027
-535.150	800.000	-0.177	-0.514
-534.135	9.789	-0.318	-0.245
-533.121	800.000	-0.088	0.318
-532.106	800.000	0.057	-0.251
-531.091	-200.000	0.014	-0.100
-530.077	-53.543	-0.073	-0.034
-529.062	783.052	-0.112	-0.311
-528.048	-21.717	0.074	-0.046
-527.033	-200.000	-0.107	0.476
-526.018	103.625	0.064	0.076
-525.004	-135.615	0.223	0.027
-523.989	763.203	-0.092	0.252
-522.975	-77.217	-0.403	-0.142
-521.960	-13.664	0.301	0.198
-520.945	233.842	-0.125	0.209
-519.931	-57.721	-0.165	0.073
-518.916	-139.782	0.297	0.032
-517.902	800.000	-0.040	0.125
-516.887	-147.771	-0.296	0.025
-515.872	287.524	-0.111	0.203
-514.858	-149.371	-0.317	0.026
-513.843	252.481	0.044	0.077
-512.829	-200.000	0.047	0.268
-511.814	63.570	-0.128	-0.130
-510.799	205.420	0.045	0.071
-509.785	83.267	0.040	0.045
-508.770	-91.764	-0.076	0.022
-507.756	-69.648	0.277	0.108
-506.741	280.482	0.075	0.136
-505.726	218.645	-0.112	-0.181
-504.712	800.000	-0.111	0.426
-503.697	-200.000	-0.006	0.062
-502.683	-80.945	-0.038	0.013
-501.668	165.199	0.216	0.309
-500.653	97.688	0.060	0.070
-499.639	205.960	0.081	-0.127
-498.624	-93.294	-0.276	0.078
-497.610	800.000	0.068	0.276
-496.595	546.914	-0.110	0.266
-495.581	-200.000	-0.002	0.103
-494.566	254.266	-0.094	0.162
-493.551	-116.840	-0.302	0.056
-492.537	-112.471	0.169	-0.034
-491.522	800.000	-0.086	-0.364
-490.508	800.000	0.040	0.170
-489.493	421.106	-0.185	-0.401
-488.478	5.923	0.227	-0.170
-487.464	101.558	0.010	0.012
-486.449	130.932	0.161	0.209
-485.435	800.000	0.016	0.054
-484.420	279.430	0.076	-0.137
-483.405	61.873	-0.105	0.106
-482.391	-21.601	-0.032	0.019
-481.376	-200.000	-0.029	0.444
-480.362	43.012	0.200	-0.184
-479.347	-91.525	-0.121	0.035
-478.332	370.394	-0.193	-0.397
-477.318	-200.000	0.042	-0.237
-476.303	-127.053	0.298	-0.044
-475.289	-37.893	-0.326	-0.175
-474.274	99.367	0.205	-0.240
-473.259	-17.834	-0.266	0.169
-472.245	479.476	-0.081	-0.185
-471.230	-119.551	0.453	-0.079
-470.216	-200.000	0.023	-0.169
-469.201	-179.767	-0.169	-0.004
-468.186	-173.999	0.101	0.003
-467.172	-96.363	-0.080	0.022
-466.157	339.472	-0.085	0.167
-465.143	411.704	-0.048	-0.103
-464.128	-10.234	0.157	-0.105
-463.113	800.000	0.105	-0.441
-462.099	800.000	0.092	0.351
-461.084	-183.483	0.041	-0.001
-460.070	-200.000	0.070	0.490
-459.055	83.989	0.179	0.198
-458.040	-38.787	-0.345	0.184
-457.026	800.000	-0.055	-0.238
-456.011	123.096	0.291	-0.369
-454.997	204.767	0.091	0.143
-453.982	128.630	-0.138	0.177
-452.968	90.962	0.099	-0.112
-451.953	21.098	-0.065	-0.053
-450.938	-200.000	-0.023	-0.246
-449.924	-142.053	-0.232	0.023
-448.909	-200.000	-0.010	0.101
-447.895	-172.379	0.257	-0.008
-446.880	-28.984	0.058	0.033
-445.865	45.450	0.194	-0.181
-444.851	-13.184	0.256	-0.168
-443.836	800.000	-0.111	-0.402
-442.822	-128.517	-0.084	0.012
-441.807	76.459	-0.030	0.033
-440.792	441.665	-0.125	-0.277
-439.778	34.354	-0.338	0.298
-438.763	504.551	0.060	0.139
-437.749	-74.269	-0.234	-0.085
-436.734	-21.237	-0.205	-0.126
-435.719	-92.158	0.166	0.047
-434.705	-45.423	-0.333	0.167
-433.690	-129.612	-0.182	0.025
-432.676	68.814	0.001	0.001
-431.661	-200.000	0.010	-0.088
-430.646	-62.267	-0.240	0.101
-429.632	-200.000	0.025	-0.488
-428.617	136.758	-0.082	-0.108
-427.603	800.000	0.070	0.286
-426.588	121.171	0.015	0.019
-425.573	-117.463	0.268	-0.049
-424.559	800.000	-0.077	-0.301
-423.544	247.642	0.296	-0.505
-422.530	-103.244	-0.234	0.056
-421.515	-151.492	-0.095	-0.007
-420.500	33.874	-0.153	-0.135
-419.486	-24.488	0.188	-0.113
-418.471	800.000	0.075	0.254
-417.457	-200.000	-0.036	0.259
-416.442	86.652	-0.185	0.206
-415.428	-87.129	-0.294	0.090
-414.413	188.451	0.065	0.098
-413.398	165.385	-0.201	0.286
-412.384	-115.445	0.234	0.045
-411.369	250.128	-0.093	-0.160
-410.355	800.000	-0.092	-0.267
-409.340	800.000	-0.059	-0.225
-408.325	-200.000	-0.036	-0.312
-407.311	-51.710	-0.008	0.004
-406.296	-134.245	0.161	-0.020
-405.282	800.000	0.083	-0.310
-404.267	-200.000	-0.011	-0.398
-403.252	497.326	0.048	-0.112
-402.238	495.620	-0.084	-0.195
-401.223	-200.000	0.007	0.133
-400.209	226.263	0.106	-0.173
-399.194	726.681	-0.079	-0.213
-398.179	-106.296	0.225	-0.051
-397.165	78.362	0.208	0.225
-396.150	-72.252	0.096	0.036
-395.136	-124.009	-0.310	0.049
-394.121	205.039	0.169	-0.265
-393.106	77.608	-0.045	0.049
-392.092	167.136	0.052	-0.075
-391.077	-74.714	0.137	-0.050
-390.063	-98.219	-0.378	-0.098
-389.048	800.000	-0.048	-0.187
-388.033	566.618	-0.138	0.338
-387.019	53.072	-0.162	-0.156
-386.004	-200.000	0.002	0.048
-384.990	-200.000	0.028	0.128
-383.975	284.937	-0.093	0.168
-382.960	-48.966	0.127	0.061
-381.946	-200.000	-0.033	0.177
-380.931	-132.630	0.125	0.016
-379.917	33.733	-0.231	0.203
-378.902	-55.782	-0.154	-0.070
-377.888	585.451	0.089	0.222
-376.873	-115.283	0.096	0.018
-375.858	-86.754	0.295	0.091
-374.844	-135.743	-0.050	0.006
-373.829	800.000	0.021	0.074
-372.815	21.272	0.025	-0.020
-371.800	-107.677	0.187	0.041
-370.785	-32.593	0.190	0.107
-369.771	367.999	-0.089	0.182
-368.756	800.000	-0.017	0.058
-367.742	-200.000	-0.032	-0.148
-366.727	-3.103	-0.126	-0.088
-365.712	-43.816	0.275	-0.139
-364.698	-143.267	0.255	0.025
-363.683	-81.617	-0.057	0.019
-362.669	696.649	0.077	-0.203
-361.654	10.409	0.164	-0.126
-360.639	800.000	0.070	0.295
-359.625	148.358	0.050	0.067
-358.610	800.000	0.088	-0.327
-357.596	-200.000	0.013	0.083
-356.581	215.546	-0.096	-0.153
-355.566	179.085	0.069	-0.101
-354.552	-28.983	0.128	-0.074
-353.537	-2.657	0.102	-0.072
-352.523	757.741	-0.032	0.088
-351.508	99.094	-0.173	-0.201
-350.493	-32.550	-0.170	-0.095
-349.479	-118.294	-0.218	-0.039
-348.464	-200.000	-0.032	-0.144
-347.450	-200.000	0.038	-0.296
-346.435	-163.209	-0.220	-0.011
-345.420	404.999	-0.080	0.170
-344.406	-71.405	0.103	0.039
-343.391	-200.000	0.015	-0.070
-342.377	174.013	0.174	-0.252
-341.362	-74.256	0.279	0.101
-340.348	-200.000	-0.025	-0.209
-339.333	-200.000	0.024	-0.137
-338.318	-200.000	-0.016	-0.148
-337.304	800.000	-0.032	-0.090
-336.289	-119.370	0.239	0.042
-335.275	-63.984	0.242	0.100
-334.260	145.303	-0.165	-0.223
-333.245	800.000	-0.097	-0.322
-332.231	-55.299	-0.413	0.187
-331.216	14.793	-0.221	0.174
-330.202	-146.029	0.165	-0.015
-329.187	317.644	0.150	-0.286
-328.172	-101.794	0.243	-0.059
-327.158	87.786	0.049	0.055
-326.143	-200.000	0.170	-0.001
-325.129	-200.000	-0.042	0.275
-324.114	-120.942	-0.308	0.052
-323.099	-123.124	-0.162	-0.026
-322.085	96.474	-0.160	0.185
-321.070	-91.729	0.268	0.077
-320.056	-61.930	0.328	-0.138
-319.041	-150.326	0.398	0.031
-318.026	800.000	-0.025	0.090
-317.012	105.525	0.196	-0.233
-315.997	-48.131	0.093	0.045
-314.983	-200.000	0.036	0.242
-313.968	164.773	-0.075	0.106
-312.953	800.000	0.050	0.183
-311.939	800.000	-0.123	0.341
-310.924	98.633	0.177	-0.206
-309.910	-50.239	0.181	-0.086
-308.895	-107.009	0.090	-0.020
-307.880	-66.760	-0.063	0.025
-306.866	630.318	0.049	0.125
-305.851	13.402	0.101	0.079
-304.837	-59.165	-0.123	0.053
-303.822	-98.606	-0.416	-0.107
-302.807	-94.382	0.244	-0.067
-301.793	800.000	-0.031	-0.110
-300.778	598.509	0.098	0.244
-299.764	506.654	0.037	0.085
-298.749	-200.000	0.017	0.113
-297.735	-32.981	-0.106	0.059
-296.720	-177.835	0.214	-0.005
-295.705	-200.000	-0.007	-0.134
-294.691	800.000	-0.035	-0.148
-293.676	-200.000	0.012	-0.439
-292.662	7.647	-0.303	-0.228
-291.647	-167.974	0.178	0.007
-290.632	-200.000	0.040	-0.308
-289.618	-120.513	0.210	0.036
-288.603	-200.000	0.011	0.050
-287.589	-90.266	-0.096	0.028
-286.574	234.076	-0.244	0.404
-285.559	-114.403	0.062	-0.012
-284.545	93.743	0.099	0.113
-283.530	-127.084	-0.372	0.055
-282.516	22.456	0.300	-0.246
-281.501	-167.435	0.351	0.014
-280.486	-200.000	-0.011	0.105
-279.472	-147.819	-0.109	-0.009
-278.457	-71.174	0.091	-0.034
-277.443	384.959	-0.122	-0.253
-276.428	-200.000	-0.012	-0.266
-275.413	55.637	0.203	-0.198
-274.399	356.869	0.036	0.072
-273.384	-200.000	-0.001	-0.182
-272.370	17.974	-0.043	-0.035
-271.355	-200.000	-0.021	0.124
-270.340	291.236	0.173	0.315
-269.326	612.874	0.106	0.266
-268.311	-135.347	0.120	0.014
-267.297	719.564	0.102	0.272
-266.282	616.361	0.044	-0.110
-265.267	49.324	0.162	0.153
-264.253	-43.980	0.048	-0.024
-263.238	-200.000	-0.013	-0.273
-262.224	-62.620	0.159	0.066
-261.209	-120.483	0.293	-0.050
-260.195	77.805	0.204	0.218
-259.180	-180.168	-0.359	0.008
-258.165	-200.000	-0.018	-0.144
-257.151	-200.000	0.051	-0.381
-256.136	187.528	-0.197	-0.294
-255.122	800.000	-0.030	-0.111
-254.107	52.514	-0.130	0.125
-253.092	442.600	-0.131	0.287
-252.078	197.501	0.015	0.024
-251.063	-6.794	-0.157	0.107
-250.049	-75.869	0.251	0.089
-249.034	97.479	0.011	-0.013
-248.019	61.856	-0.356	0.356
-247.005	5.030	0.255	-0.188
-245.990	800.000	0.089	0.272
-244.976	302.364	-0.059	0.109
-243.961	800.000	-0.048	0.179
-242.946	800.000	-0.032	-0.112
-241.932	-89.588	0.252	0.074
-240.917	133.637	0.143	0.185
-239.903	800.000	-0.038	0.108
-238.888	-200.000	0.080	0.364
-237.873	-67.855	-0.096	0.038
-236.859	-200.000	0.008	-0.043
-235.844	-1.871	-0.171	-0.121
-234.830	-200.000	-0.013	-0.095
-233.815	-200.000	-0.086	-0.390
-232.800	-200.000	-0.019	-0.182
-231.786	625.185	-0.054	-0.136
-230.771	800.000	0.081	-0.263
-229.757	-200.000	-0.049	-0.260
-228.742	69.501	0.175	0.181
-227.727	-200.000	0.016	0.302
-226.713	171.524	0.155	-0.223
-225.698	800.000	-0.120	0.418
-224.684	-8.419	-0.135	-0.091
-223.669	-155.839	0.134	-0.009
-222.655	-104.330	-0.226	0.052
-221.640	17.848	0.275	-0.219
-220.625	65.679	0.097	0.099
-219.611	61.665	0.108	-0.107
-218.596	-58.183	-0.251	0.110
-217.582	166.646	-0.294	-0.417
-216.567	102.946	-0.239	-0.280
-215.552	-65.355	0.336	-0.135
-214.538	86.006	0.260	0.287
-213.523	373.066	0.062	-0.125
-212.509	430.214	0.077	-0.167
-211.494	209.461	0.052	-0.082
-210.479	-89.035	-0.273	0.081
-209.465	-70.622	0.165	0.063
-208.450	-13.156	0.335	-0.218
-207.436	-10.430	-0.179	0.119
-206.421	-200.000	0.026	0.278
-205.406	-56.104	-0.234	0.105
-204.392	127.876	0.045	0.057
-203.377	33.847	0.256	0.223
-202.363	272.188	-0.077	0.137
-201.348	-115.453	0.204	-0.039
-200.333	-138.235	0.388	-0.043
-199.319	800.000	0.050	0.174
-198.304	800.000	-0.042	0.152
-197.290	-63.475	-0.183	-0.075
-196.275	-200.000	0.004	-0.027
-195.260	-200.000	-0.013	-0.082
-194.246	-70.508	-0.151	-0.057
-193.231	-103.348	-0.086	0.020
-192.217	253.046	-0.030	0.052
-191.202	-71.592	0.045	-0.017
-190.187	-62.660	0.223	-0.093
-189.173	-135.005	0.166	-0.020
-188.158	556.558	0.023	0.055
-187.144	246.215	0.166	-0.280
-186.129	-200.000	-0.006	-0.107
-185.114	26.587	-0.139	0.116
-184.100	-27.208	0.249	0.145
-183.085	-14.207	0.252	0.163
-182.071	-127.739	-0.455	0.066
-181.056	28.986	0.255	-0.216
-180.042	361.556	0.091	0.183
-179.027	800.000	-0.062	0.225
-178.012	-80.618	-0.157	0.052
-176.998	800.000	0.073	-0.283
-175.983	324.318	0.092	-0.176
-174.969	328.881	0.254	-0.489
-173.954	-200.000	-0.021	-0.235
-172.939	-77.836	-0.128	0.044
-171.925	27.949	0.099	0.083
-170.910	518.874	-0.101	-0.235
-169.896	-134.672	-0.062	-0.008
-168.881	-200.000	-0.005	0.148
-167.866	91.241	0.215	0.242
-166.852	65.196	-0.053	-0.053
-165.837	82.864	0.025	-0.027
-164.823	-200.000	-0.017	0.123
-163.808	-121.008	0.255	-0.043
-162.793	5.968	-0.102	0.076
-161.779	8.886	-0.181	-0.137
-160.764	242.051	-0.097	0.162
-159.750	-200.000	-0.018	0.165
-158.735	-101.136	-0.164	0.040
-157.720	-97.198	0.163	0.043
-156.706	800.000	0.062	0.209
-155.691	-54.735	0.075	-0.034
-154.677	176.753	-0.159	0.231
-153.662	13.878	0.135	0.105
-152.647	-12.162	0.246	-0.161
-151.633	-200.000	-0.039	0.379
-150.618	-200.000	-0.031	0.228
-149.604	-61.436	0.181	-0.076
-148.589	-100.218	0.234	0.058
-147.574	-99.432	0.258	-0.065
-146.560	-55.455	0.071	-0.032
-145.545	-100.414	0.164	-0.041
-144.531	-106.810	-0.220	0.049
-143.516	143.289	0.113	0.150
-142.502	53.330	-0.258	-0.247
-141.487	322.894	-0.192	0.366
-140.472	309.931	0.153	-0.287
-139.458	-43.105	-0.157	-0.079
-138.443	-65.007	-0.100	0.041
-137.429	67.914	0.123	0.126
-136.414	-26.462	0.327	0.191
-135.399	-200.000	-0.006	0.100
-134.385	-200.000	0.002	0.252
-133.370	544.485	-0.076	0.182
-132.356	-15.652	0.392	-0.249
-131.341	-113.398	0.176	0.034
-130.326	286.944	-0.205	-0.370
-129.312	-200.000	-0.012	-0.170
-128.297	-200.000	-0.022	0.120
-127.283	-200.000	-0.022	-0.280
-126.268	-200.000	-0.021	-0.364
-125.253	90.108	0.189	0.211
-124.239	-67.747	0.155	-0.060
-123.224	138.108	-0.160	-0.209
-122.210	351.427	0.091	-0.181
-121.195	73.105	0.345	-0.359
-120.180	-200.000	0.034	-0.213
-119.166	-58.870	-0.223	0.096
-118.151	75.166	-0.102	-0.107
-117.137	800.000	0.034	-0.127
-116.122	-92.158	0.151	-0.043
-115.107	-200.000	0.008	-0.094
-114.093	194.899	0.055	0.083
-113.078	136.277	-0.096	0.125
-112.064	-200.000	0.042	0.242
-111.049	-50.563	0.293	0.138
-110.034	258.554	0.203	0.349
-109.020	-200.000	0.055	0.301
-108.005	49.362	0.098	0.092
-106.991	172.112	-0.015	0.022
-105.976	-123.737	-0.271	-0.043
-104.962	800.000	0.168	0.498
-103.947	129.248	-0.213	0.272
-102.932	-33.435	-0.125	0.069
-101.918	108.520	0.060	0.072
-100.903	-68.420	0.144	-0.056
-99.889	186.451	0.111	0.164
-98.874	139.303	-0.044	-0.058
-97.859	42.148	0.230	0.209
-96.845	-66.793	0.105	-0.042
-95.830	33.200	0.250	0.216
-94.816	-94.166	-0.286	-0.078
-93.801	253.573	0.031	0.053
-92.786	-33.950	0.211	-0.116
-91.772	-200.000	0.036	-0.193
-90.757	800.000	-0.030	0.104
-89.743	-103.678	0.337	0.079
-88.728	-101.843	0.159	-0.038
-87.713	-132.700	0.129	0.016
-86.699	729.741	0.139	-0.369
-85.684	6.369	-0.308	-0.228
-84.670	-200.000	-0.022	-0.127
-83.655	-122.460	-0.186	-0.030
-82.640	800.000	0.092	-0.303
-81.626	-183.224	0.153	0.003
-80.611	-121.824	0.236	0.039
-79.597	-200.000	-0.019	-0.139
-78.582	-60.493	-0.093	-0.039
-77.567	390.300	0.164	0.339
-76.553	-200.000	-0.021	0.294
-75.538	228.389	0.252	0.410
-74.524	-97.584	-0.118	0.030
-73.509	-107.487	0.147	0.032
-72.494	-45.398	-0.238	0.118
-71.480	6.318	0.260	0.192
-70.465	-161.479	0.206	0.011
-69.451	-92.621	0.295	-0.082
-68.436	313.418	-0.140	0.262
-67.422	800.000	-0.118	0.334
-66.407	-109.470	0.118	-0.025
-65.392	-68.592	0.111	0.043
-64.378	-50.108	0.229	-0.108
-63.363	-59.818	0.328	0.140
-62.349	800.000	0.037	0.135
-61.334	130.862	-0.604	-0.771
-60.319	124.046	0.237	0.296
-59.305	-200.000	-0.143	-0.797
-58.290	112.764	0.545	0.658
-57.276	800.000	0.536	1.550
-56.261	-200.000	76.011	547.718
-55.246	520.546	1352.611	3157.210
-54.232	136.687	2605.534	3386.101
-53.217	111.712	2381.341	2860.777
-52.203	51.900	1988.886	1884.597
-51.188	45.673	1776.635	1633.956
-50.173	42.798	1730.611	1569.185
-49.159	56.986	1764.683	1711.739
-48.144	62.996	1783.267	1776.809
-47.130	45.680	1746.893	1606.402
-46.115	42.359	1733.403	1568.038
-45.100	42.235	1728.278	1562.369
-44.086	42.204	1725.353	1559.422
-43.071	42.155	1722.729	1556.608
-42.057	42.169	1720.312	1554.476
-41.042	42.163	1718.101	1552.366
-40.027	42.293	1716.167	1551.564
-39.013	42.193	1714.195	1548.945
-37.998	42.219	1712.681	1547.717
-36.984	42.143	1711.479	1545.982
-35.969	42.346	1709.497	1545.693
-34.954	42.453	1707.400	1544.562
-33.940	42.345	1706.117	1542.508
-32.925	42.285	1703.954	1540.035
-31.911	42.319	1702.141	1538.595
-30.896	42.258	1700.216	1536.328
-29.881	42.356	1698.025	1535.031
-28.867	42.366	1696.597	1533.760
-27.852	42.301	1695.604	1532.304
-26.838	42.292	1693.702	1530.457
-25.823	42.273	1692.559	1529.220
-24.809	42.411	1691.184	1528.965
-23.794	42.378	1689.273	1526.925
-22.779	42.321	1688.070	1525.347
-21.765	42.388	1686.674	1524.531
-20.750	42.362	1684.634	1522.433
-19.736	42.267	1683.436	1520.567
-18.721	42.368	1681.568	1519.585
-17.706	42.342	1679.861	1517.784
-16.692	42.351	1678.118	1516.218
-15.677	42.315	1676.977	1514.851
-14.663	42.322	1675.472	1513.486
-13.648	42.300	1673.982	1511.914
-12.633	42.367	1672.362	1510.897
-11.619	42.266	1671.328	1509.141
-10.604	42.323	1669.235	1507.622
-9.590	42.366	1667.897	1506.678
-8.575	42.337	1667.024	1505.610
-7.560	42.340	1665.627	1504.313
-6.546	42.308	1664.198	1502.718
-5.531	42.295	1663.255	1501.709
-4.517	42.316	1661.865	1500.553
-3.502	42.142	1660.993	1498.408
-2.487	42.405	1658.992	1498.505
-1.473	42.424	1647.713	1488.398
-0.458	39.881	1627.800	1451.694
0.556	33.374	1625.649	1412.197
1.571	30.306	1648.944	1409.059
2.586	28.902	1662.701	1409.934
3.600	26.194	1611.140	1345.938
4.615	20.342	1502.230	1214.046
5.629	15.272	1435.607	1126.124
6.644	14.125	1426.355	1111.114
7.659	13.980	1425.081	1109.053
8.673	13.981	1423.226	1107.520
9.688	13.814	1422.020	1105.367
10.702	13.722	1419.055	1102.355
11.717	16.088	1423.374	1121.369
12.731	20.271	1431.081	1155.255
13.746	20.328	1428.692	1153.598
14.761	17.714	1422.484	1131.167
15.775	16.315	1419.867	1119.715
16.790	15.218	1416.314	1109.554
17.804	14.382	1413.983	1102.099
18.819	13.809	1412.923	1097.392
19.834	13.487	1411.252	1093.867
20.848	13.243	1410.039	1091.221
21.863	12.995	1408.038	1087.942
22.877	12.942	1407.063	1086.740
23.892	12.753	1406.296	1084.811
24.907	12.749	1405.411	1084.002
25.921	12.780	1404.464	1083.384
26.936	12.836	1403.453	1082.876
27.950	12.835	1402.842	1082.297
28.965	12.912	1401.384	1081.583
29.980	12.912	1400.293	1080.648
30.994	13.019	1399.188	1080.397
32.009	13.097	1397.176	1079.257
33.023	13.000	1396.630	1078.110
34.038	12.979	1395.241	1076.804
35.053	12.975	1394.065	1075.773
36.067	13.049	1392.567	1075.004
37.082	12.994	1391.726	1073.906
38.096	13.023	1390.386	1072.965
39.111	13.052	1389.821	1072.619
40.126	12.869	1389.323	1070.952
41.140	12.799	1388.490	1069.762
42.155	12.851	1387.490	1069.234
43.169	12.772	1387.181	1068.385
44.184	12.756	1387.100	1068.130
45.199	12.762	1386.779	1067.826
46.213	12.773	1386.114	1067.287
47.228	12.916	1384.916	1067.195
48.242	12.860	1384.074	1066.092
49.257	12.916	1382.277	1064.978
50.271	12.927	1380.930	1063.916
51.286	12.927	1379.791	1062.940
52.301	12.911	1378.003	1061.370
53.315	12.866	1377.035	1060.240
54.330	12.921	1375.566	1059.367
55.344	12.822	1374.514	1057.831
56.359	12.838	1373.263	1056.876
57.374	12.800	1372.556	1055.994
58.388	12.742	1371.771	1054.924
59.403	12.699	1371.650	1054.460
60.417	12.624	1370.877	1053.297
61.432	12.697	1369.975	1052.974
62.447	12.690	1368.709	1051.867
63.461	12.684	1367.392	1050.721
64.476	12.686	1366.593	1050.027
65.490	12.624	1365.600	1048.776
66.505	12.682	1363.978	1047.807
67.520	12.631	1362.906	1046.566
68.534	12.705	1361.729	1046.040
69.549	12.674	1360.940	1045.145
70.563	12.673	1359.365	1043.834
71.578	12.600	1358.554	1042.657
72.593	12.639	1357.285	1041.842
73.607	12.596	1356.605	1040.954
74.622	12.594	1355.757	1040.200
75.636	12.566	1355.385	1039.644
76.651	12.568	1354.710	1039.050
77.666	12.542	1354.089	1038.316
78.680	12.579	1353.529	1038.025
79.695	12.607	1352.654	1037.437
80.709	12.631	1351.711	1036.775
81.724	12.700	1350.924	1036.517
82.739	12.756	1349.930	1036.012
83.753	12.726	1349.468	1035.379
84.768	12.863	1348.228	1035.193
85.782	12.895	1347.200	1034.517
86.797	12.908	1345.470	1033.175
87.812	12.963	1343.944	1032.261
88.826	12.875	1343.431	1031.221
89.841	12.850	1342.154	1029.995
90.855	12.881	1341.270	1029.419
91.870	12.846	1340.610	1028.602
92.884	12.855	1339.658	1027.837
93.899	12.934	1338.772	1027.557
94.914	13.012	1337.609	1027.064
95.928	13.047	1337.079	1026.782
96.943	13.039	1335.794	1025.654
97.957	12.973	1334.865	1024.441
98.972	12.931	1333.630	1023.141
99.987	12.942	1332.688	1022.393
101.001	12.941	1331.573	1021.441
102.016	12.920	1330.734	1020.578
103.030	12.975	1330.296	1020.490
104.045	12.861	1329.435	1019.038
105.060	12.871	1327.529	1017.547
106.074	12.863	1326.323	1016.485
107.089	12.774	1325.275	1015.041
108.103	12.707	1323.686	1013.322
109.118	12.713	1322.754	1012.556
110.133	12.637	1321.305	1010.893
111.147	12.666	1319.796	1009.826
112.162	12.757	1318.457	1009.270
113.176	12.791	1317.011	1008.284
114.191	12.761	1316.028	1007.258
115.206	12.778	1314.650	1006.218
116.220	12.770	1313.706	1005.357
117.235	12.777	1312.455	1004.353
118.249	12.879	1311.408	1004.083
119.264	12.800	1310.428	1002.767
120.279	12.840	1309.185	1001.967
121.293	12.839	1307.929	1000.910
122.308	12.729	1307.122	999.535
123.322	12.783	1305.729	998.712
124.337	12.719	1305.255	997.873
125.352	12.711	1303.998	996.773
126.366	12.831	1302.741	996.451
127.381	12.636	1301.794	994.461
128.395	12.799	1300.600	994.446
129.410	12.686	1299.724	993.008
130.424	12.824	1299.262	993.399
131.439	12.846	1297.955	992.444
132.454	12.796	1297.012	991.331
133.468	12.875	1296.280	991.162
134.483	12.856	1295.450	990.321
135.497	12.880	1294.249	989.460
136.512	12.877	1293.147	988.514
137.527	12.916	1291.796	987.625
138.541	12.883	1290.304	986.199
139.556	12.899	1288.896	985.132
140.570	12.937	1287.619	984.296
141.585	12.997	1286.902	984.018
142.600	13.030	1285.204	982.832
143.614	13.042	1284.588	982.348
144.629	13.170	1283.334	982.063
145.643	13.005	1282.444	980.312
146.658	12.945	1281.043	978.799
147.673	12.927	1279.766	977.630
148.687	12.949	1278.315	976.563
149.702	13.018	1277.238	976.063
150.716	12.974	1275.483	974.375
151.731	12.966	1274.319	973.356
152.746	12.988	1273.327	972.641
153.760	12.970	1272.129	971.533
154.775	12.966	1271.104	970.641
155.789	13.010	1269.817	969.828
156.804	13.070	1268.890	969.386
157.819	13.068	1267.651	968.342
158.833	13.076	1266.772	967.634
159.848	13.042	1265.880	966.668
160.862	13.109	1264.700	966.073
161.877	12.995	1263.683	964.547
162.892	12.981	1261.921	963.034
163.906	12.987	1261.412	962.594
164.921	13.009	1260.164	961.682
165.935	13.097	1259.269	961.428
166.950	13.048	1258.930	960.798
167.964	13.101	1257.957	960.282
168.979	13.076	1257.148	959.432
169.994	13.081	1256.394	958.800
171.008	13.044	1255.942	958.155
172.023	13.156	1254.592	957.694
173.037	13.225	1254.077	957.613
174.052	13.217	1252.864	956.558
175.067	13.156	1252.006	955.465
176.081	13.145	1250.873	954.449
177.096	13.062	1250.043	953.253
178.110	13.119	1248.916	952.642
179.125	13.101	1247.670	951.502
180.140	13.180	1246.668	951.106
181.154	13.242	1245.352	950.374
182.169	13.225	1243.909	949.093
183.183	13.263	1242.405	948.082
184.198	13.335	1241.276	947.548
185.213	13.328	1240.328	946.700
186.227	13.335	1239.134	945.746
187.242	13.410	1238.399	945.528
188.256	13.388	1237.617	944.720
189.271	13.464	1236.017	943.847
190.286	13.329	1235.236	942.403
191.300	13.158	1234.226	940.575
192.315	13.152	1233.652	940.018
193.329	13.157	1233.036	939.493
194.344	13.134	1232.701	939.028
195.359	13.192	1231.796	938.584
196.373	13.235	1231.417	938.453
197.388	13.411	1230.709	938.829
198.402	13.379	1230.912	938.718
199.417	13.447	1230.049	938.362
200.432	13.506	1228.935	937.768
201.446	13.618	1227.712	937.384
202.461	13.564	1227.387	936.748
203.475	13.614	1226.168	936.014
204.490	13.674	1224.166	934.743
205.504	13.595	1223.257	933.521
206.519	13.624	1221.697	932.414
207.534	13.544	1220.869	931.249
208.548	13.548	1219.999	930.522
209.563	13.604	1219.545	930.410
210.577	13.532	1218.624	929.220
211.592	13.542	1218.127	928.814
212.607	13.684	1216.419	928.224
213.621	13.744	1215.893	928.077
214.636	13.778	1214.857	927.397
215.650	13.674	1214.173	926.208
216.665	13.700	1213.009	925.387
217.680	13.716	1212.108	924.703
218.694	13.792	1211.206	924.359
219.709	13.927	1210.280	924.320
220.723	13.814	1209.896	923.315
221.738	13.766	1208.858	922.176
222.753	13.708	1208.327	921.370
223.767	13.746	1207.439	920.821
224.782	13.892	1206.575	920.891
225.796	14.007	1205.974	920.987
226.811	13.934	1205.395	920.061
227.826	13.945	1204.547	919.392
228.840	13.903	1203.812	918.517
229.855	13.861	1203.416	917.899
230.869	14.016	1202.223	917.768
231.884	13.885	1201.508	916.418
232.899	13.924	1200.043	915.435
233.913	13.853	1199.825	914.794
234.928	13.770	1199.428	913.953
235.942	13.858	1198.185	913.409
236.957	13.903	1197.878	913.340
237.972	13.875	1197.160	912.562
238.986	13.938	1196.132	912.041
240.001	13.867	1195.748	911.280
241.015	13.904	1194.456	910.414
242.030	13.970	1193.615	910.058
243.045	14.013	1192.627	909.457
244.059	14.005	1191.734	908.653
245.074	14.123	1191.048	908.692
246.088	14.097	1190.477	908.037
247.103	13.992	1189.752	906.829
248.117	14.071	1188.854	906.497
249.132	14.093	1188.611	906.349
250.147	14.243	1187.705	906.397
251.161	14.307	1186.927	906.069
252.176	14.318	1186.186	905.484
253.190	14.430	1185.015	905.116
254.205	14.381	1184.770	904.586
255.220	14.407	1184.563	904.490
256.234	14.506	1183.499	904.132
257.249	14.464	1182.524	903.081
258.263	14.489	1182.242	902.919
259.278	14.368	1181.578	901.677
260.293	14.417	1181.007	901.427
261.307	14.458	1180.677	901.318
262.322	14.477	1179.870	900.727
263.336	14.466	1179.387	900.215
264.351	14.695	1178.360	900.589
265.366	14.493	1177.934	899.095
266.380	14.550	1176.950	898.569
267.395	14.614	1175.732	897.907
268.409	14.499	1175.023	896.666
269.424	14.541	1174.567	896.466
270.439	14.592	1174.020	896.243
271.453	14.570	1173.035	895.294
272.468	14.595	1171.986	894.545
273.482	14.451	1171.738	893.508
274.497	14.482	1171.202	893.184
275.512	14.652	1170.171	893.226
276.526	14.649	1168.986	892.232
277.541	14.447	1168.918	891.021
278.555	14.670	1167.933	891.382
279.570	14.696	1167.112	890.813
280.585	14.791	1166.439	890.726
281.599	14.820	1165.509	890.092
282.614	14.805	1164.311	889.020
283.628	14.747	1163.091	887.702
284.643	14.688	1162.404	886.784
285.657	14.831	1161.498	886.774
286.672	14.801	1160.394	885.695
287.687	14.886	1159.304	885.232
288.701	14.829	1158.811	884.477
289.716	14.881	1157.770	883.878
290.730	14.882	1157.182	883.360
291.745	14.857	1156.765	882.829
292.760	14.898	1155.898	882.308
293.774	14.862	1155.377	881.641
294.789	14.987	1154.734	881.731
295.803	14.972	1154.193	881.162
296.818	14.910	1153.581	880.287
297.833	14.932	1152.470	879.479
298.847	14.947	1151.304	878.588
299.862	15.015	1150.782	878.471
300.876	14.933	1150.187	877.507
301.891	15.065	1149.501	877.597
302.906	15.048	1149.009	877.057
303.920	15.145	1148.043	876.748
304.935	15.153	1147.258	876.113
305.949	15.243	1146.226	875.720
306.964	15.177	1145.945	875.081
307.979	15.169	1144.912	874.173
308.993	15.161	1144.732	873.917
310.008	15.270	1143.535	873.496
311.022	15.268	1143.004	873.000
312.037	15.256	1141.903	872.020
313.052	15.180	1141.264	871.061
314.066	15.129	1139.956	869.718
315.081	15.087	1139.036	868.724
316.095	15.077	1138.802	868.415
317.110	15.199	1137.776	868.190
318.125	15.124	1136.795	866.976
319.139	15.143	1136.198	866.541
320.154	15.093	1135.456	865.640
321.168	15.165	1135.404	865.897
322.183	15.178	1134.546	865.230
323.197	15.205	1133.846	864.764
324.212	15.243	1132.919	864.174
325.227	15.251	1132.548	863.856
326.241	15.296	1131.928	863.536
327.256	15.256	1131.153	862.663
328.270	15.248	1130.194	861.818
329.285	15.226	1129.162	860.840
330.300	15.252	1128.272	860.220
331.314	15.284	1127.164	859.463
332.329	15.264	1126.237	858.577
333.343	15.422	1125.542	858.779
334.358	15.389	1124.485	857.729
335.373	15.392	1124.097	857.371
336.387	15.454	1123.344	857.036
337.402	15.433	1122.370	856.114
338.416	15.559	1121.461	855.984
339.431	15.436	1121.060	854.976
340.446	15.512	1120.580	854.924
341.460	15.550	1120.084	854.663
342.475	15.664	1118.305	853.805
343.489	15.628	1117.739	853.118
344.504	15.648	1116.864	852.473
345.519	15.576	1116.193	851.520
346.533	15.814	1115.089	851.811
347.548	15.680	1114.403	850.533
348.562	15.835	1113.455	850.519
349.577	15.804	1112.695	849.705
350.592	15.712	1112.109	848.719
351.606	15.758	1111.254	848.221
352.621	15.722	1110.585	847.457
353.635	15.639	1109.830	846.388
354.650	15.691	1109.238	846.122
355.665	15.576	1108.518	844.919
356.679	15.706	1108.249	845.292
357.694	15.744	1107.316	844.697
358.708	15.780	1106.951	844.522
359.723	15.750	1105.943	843.529
360.738	15.869	1105.265	843.536
361.752	15.748	1105.116	842.738
362.767	15.793	1104.503	842.424
363.781	15.827	1103.647	841.866
364.796	15.846	1103.231	841.571
365.810	15.946	1102.648	841.548
366.825	15.964	1102.010	841.080
367.840	15.934	1101.397	840.386
368.854	16.019	1100.836	840.307
369.869	16.005	1100.177	839.661
370.883	15.981	1099.253	838.761
371.898	15.977	1098.248	837.901
372.913	16.101	1097.859	838.146
373.927	16.072	1097.365	837.550
374.942	16.105	1096.909	837.294
375.956	16.177	1096.216	837.046
376.971	16.002	1095.775	835.766
377.986	16.123	1095.058	835.747
379.000	16.220	1094.982	836.095
380.015	16.287	1093.945	835.562
381.029	16.326	1092.873	834.863
382.044	16.342	1092.542	834.613
383.059	16.204	1092.161	833.565
384.073	16.309	1091.335	833.383
385.088	16.311	1090.403	832.607
386.102	16.445	1089.219	832.286
387.117	16.235	1088.507	830.636
388.132	16.216	1087.546	829.738
389.146	16.156	1086.708	828.729
390.161	16.210	1085.920	828.322
391.175	16.139	1085.363	827.475
392.190	16.359	1084.137	827.542
393.205	16.406	1083.950	827.557
394.219	16.357	1082.897	826.443
395.234	16.320	1082.071	825.554
396.248	16.380	1080.974	824.938
397.263	16.310	1079.643	823.511
398.278	16.362	1079.136	823.304
399.292	16.362	1078.664	822.868
400.307	16.362	1077.852	822.179
401.321	16.303	1077.190	821.314
402.336	16.422	1076.021	820.929
403.350	16.303	1075.846	820.144
404.365	16.454	1074.965	820.134
405.380	16.417	1074.570	819.579
406.394	16.515	1073.247	818.970
407.409	16.488	1073.099	818.653
408.423	16.556	1071.923	818.016
409.438	16.656	1071.049	817.757
410.453	16.610	1070.448	817.003
411.467	16.600	1069.921	816.481
412.482	16.659	1069.507	816.381
413.496	16.656	1068.596	815.594
414.511	16.639	1068.064	815.036
415.526	16.860	1067.217	815.382
416.540	16.809	1067.111	814.984
417.555	16.851	1066.533	814.673
418.569	16.894	1065.834	814.274
419.584	16.941	1065.269	813.993
420.599	16.725	1065.239	812.860
421.613	80.293	1288.853	1337.969
422.628	74.169	1321.435	1338.128
