DTS Sentinel unit serial number:	SN413079Multiplexer serial number:	ORYXHardware model number:	OX4-SRSoftware version number:	ORYX F/W v4.00 Oryx Data Collector v3.7.2.0data status	okinstallation	princeton_trtdifferential loss correction	single-endedforward channel	channel 2reverse channel	N/Adate	2019/09/13time	08:11:34forward acquisition time	60.00reverse acquisition time	0.00gamma	496.2192k internal	0.2333k external	0.2333temperature offset calibration	1.0193default loss term (dB/km)	0.3790temperature slope calibration	1.0000multiplexer offset coefficient	1.0000multiplexer slope coefficient	1.0000fibre end	0.00T internal ref (°C)	27.09T ext. ref 1 (°C)	4.26T ext. ref 2 (°C)	23.14length (m)	temperature (°C)	Stokes	anti-Stokes-747.200	-200.000	0.049	0.284
-746.185	-200.000	0.065	0.534
-745.171	-176.977	-0.359	0.009
-744.156	-30.711	0.064	-0.037
-743.142	-103.113	-0.223	0.053
-742.127	-200.000	-0.007	0.199
-741.112	-97.276	0.133	0.035
-740.098	-91.426	0.201	-0.058
-739.083	27.982	0.151	-0.128
-738.069	112.426	-0.044	-0.053
-737.054	48.520	-0.255	0.240
-736.039	-200.000	-0.014	-0.066
-735.025	11.321	0.293	0.226
-734.010	283.962	-0.196	-0.353
-732.996	33.465	-0.181	0.158
-731.981	-200.000	-0.014	0.127
-730.966	22.422	0.224	-0.184
-729.952	-79.287	-0.170	-0.058
-728.937	-105.983	-0.341	-0.077
-727.923	800.000	0.070	-0.227
-726.908	-22.925	0.240	-0.146
-725.894	-79.197	-0.150	0.051
-724.879	-22.787	-0.203	-0.123
-723.864	53.067	-0.246	-0.237
-722.850	158.013	-0.190	-0.264
-721.835	-66.448	0.254	-0.101
-720.821	211.148	0.029	0.045
-719.806	-174.928	-0.211	-0.006
-718.791	-200.000	-0.010	0.330
-717.777	-30.004	-0.244	-0.140
-716.762	800.000	-0.046	0.180
-715.748	-144.341	-0.106	0.010
-714.733	16.825	0.216	-0.172
-713.718	310.154	-0.112	-0.211
-712.704	-83.494	0.212	0.068
-711.689	-144.969	0.217	-0.020
-710.675	800.000	-0.118	-0.519
-709.660	-200.000	0.007	-0.138
-708.645	-200.000	-0.043	0.220
-707.631	-50.221	-0.034	-0.016
-706.616	291.712	-0.102	-0.187
-705.602	-200.000	-0.017	-0.077
-704.587	800.000	-0.034	0.137
-703.572	800.000	-0.079	0.226
-702.558	683.286	0.027	-0.071
-701.543	198.975	0.173	0.266
-700.529	-47.792	0.094	-0.046
-699.514	428.936	-0.060	-0.131
-698.499	-200.000	-0.016	-0.121
-697.485	125.924	-0.102	0.129
-696.470	145.974	0.116	0.156
-695.456	-52.205	-0.466	-0.217
-694.441	-200.000	-0.081	0.532
-693.426	-154.500	-0.203	0.014
-692.412	1.877	-0.232	-0.168
-691.397	-200.000	0.023	0.304
-690.383	-200.000	-0.006	-0.043
-689.368	410.602	0.169	-0.359
-688.354	-116.619	0.280	-0.052
-687.339	-79.874	-0.396	0.134
-686.324	192.947	0.101	-0.153
-685.310	-24.983	-0.133	0.079
-684.295	-200.000	-0.038	0.394
-683.281	-200.000	-0.003	-0.183
-682.266	-67.945	-0.071	-0.028
-681.251	800.000	-0.123	-0.391
-680.237	158.561	-0.237	-0.330
-679.222	193.769	-0.147	-0.223
-678.208	-200.000	0.039	0.421
-677.193	180.748	-0.210	-0.310
-676.178	800.000	0.049	0.153
-675.164	73.854	0.028	-0.030
-674.149	227.738	0.105	-0.172
-673.135	-200.000	0.008	-0.310
-672.120	1.640	0.230	-0.166
-671.105	-61.799	0.100	-0.042
-670.091	96.849	0.108	-0.124
-669.076	800.000	-0.048	0.147
-668.062	-128.592	-0.202	0.029
-667.047	800.000	-0.045	-0.156
-666.032	800.000	0.076	0.252
-665.018	77.350	-0.012	0.012
-664.003	-76.500	-0.455	-0.160
-662.989	-200.000	-0.001	-0.254
-661.974	-96.661	0.238	0.063
-660.959	-86.187	-0.143	-0.044
-659.945	-51.862	-0.324	-0.151
-658.930	147.841	0.129	0.174
-657.916	58.947	-0.323	-0.318
-656.901	521.566	-0.081	0.191
-655.886	628.506	-0.139	0.353
-654.872	601.746	-0.077	0.193
-653.857	-148.282	-0.154	-0.013
-652.843	275.179	-0.178	-0.316
-651.828	575.126	0.054	-0.132
-650.814	122.551	-0.104	-0.130
-649.799	338.645	0.189	0.368
-648.784	73.761	-0.274	0.287
-647.770	-45.760	0.195	0.096
-646.755	208.278	0.145	-0.226
-645.741	-25.875	0.217	-0.128
-644.726	49.432	-0.210	-0.198
-643.711	16.897	-0.043	0.034
-642.697	182.182	0.007	0.010
-641.682	490.514	-0.029	-0.066
-640.668	-200.000	-0.028	0.209
-639.653	-4.295	0.201	0.139
-638.638	38.381	0.219	0.196
-637.624	184.073	-0.094	-0.140
-636.609	800.000	-0.076	-0.263
-635.595	172.824	0.106	0.153
-634.580	238.470	-0.153	-0.254
-633.565	-66.480	-0.184	0.073
-632.551	-200.000	0.002	0.328
-631.536	441.518	0.070	-0.153
-630.522	-114.524	-0.045	-0.009
-629.507	-200.000	0.011	0.284
-628.492	-38.036	0.337	-0.179
-627.478	-4.555	0.098	-0.068
-626.463	-138.400	0.353	0.039
-625.449	-6.310	-0.271	0.185
-624.434	274.760	0.179	-0.318
-623.419	800.000	-0.065	0.268
-622.405	76.520	-0.126	-0.133
-621.390	94.881	0.158	-0.180
-620.376	-108.054	0.115	0.025
-619.361	278.801	-0.019	0.034
-618.346	76.799	-0.089	0.095
-617.332	800.000	-0.052	0.163
-616.317	-84.648	0.152	-0.048
-615.303	-9.508	0.301	0.201
-614.288	-78.803	-0.347	-0.118
-613.273	16.714	-0.095	0.075
-612.259	472.094	-0.062	-0.140
-611.244	-200.000	0.005	0.090
-610.230	800.000	0.072	-0.272
-609.215	-200.000	-0.020	-0.171
-608.201	-30.687	-0.336	-0.190
-607.186	-46.415	-0.300	0.147
-606.171	70.319	-0.069	-0.071
-605.157	-200.000	-0.020	-0.332
-604.142	-200.000	0.014	0.399
-603.128	320.489	-0.180	0.343
-602.113	28.814	-0.223	0.189
-601.098	-43.638	-0.021	0.011
-600.084	111.792	0.350	0.422
-599.069	39.552	0.252	0.226
-598.055	305.541	-0.111	-0.207
-597.040	48.214	-0.172	0.161
-596.025	-56.709	-0.116	-0.051
-595.011	-0.010	0.074	0.053
-593.996	-5.840	-0.137	-0.094
-592.982	72.615	-0.100	0.105
-591.967	-200.000	-0.051	-0.312
-590.952	394.122	-0.142	0.296
-589.938	-54.042	-0.111	-0.050
-588.923	800.000	0.023	0.090
-587.909	-37.420	0.213	0.114
-586.894	105.849	-0.147	0.174
-585.879	341.498	-0.077	0.151
-584.865	29.052	-0.045	-0.039
-583.850	-200.000	-0.010	0.135
-582.836	-47.654	0.240	-0.117
-581.821	-82.393	-0.271	-0.088
-580.806	-200.000	0.015	-0.211
-579.792	207.801	0.236	-0.368
-578.777	204.884	0.045	0.070
-577.763	53.881	0.211	-0.203
-576.748	32.281	-0.045	0.039
-575.733	32.204	0.151	0.130
-574.719	-200.000	-0.060	-0.449
-573.704	-200.000	0.028	-0.130
-572.690	-64.312	0.217	0.088
-571.675	-157.027	0.267	0.016
-570.661	-109.374	0.075	-0.016
-569.646	263.122	0.113	0.196
-568.631	31.023	-0.130	0.111
-567.617	-121.570	0.089	-0.015
-566.602	800.000	0.121	-0.462
-565.588	-28.460	-0.280	0.161
-564.573	-63.457	-0.116	0.047
-563.558	-20.620	-0.277	-0.170
-562.544	13.264	-0.063	0.049
-561.529	-139.500	0.112	0.012
-560.515	-42.800	0.108	-0.055
-559.500	545.428	-0.063	0.151
-558.485	123.580	-0.153	-0.191
-557.471	800.000	0.080	0.250
-556.456	1.923	0.124	-0.089
-555.442	-145.839	-0.335	-0.030
-554.427	474.145	0.200	-0.450
-553.412	172.038	-0.149	0.213
-552.398	227.453	-0.090	0.146
-551.383	-200.000	0.021	0.247
-550.369	-84.599	-0.534	-0.168
-549.354	450.633	-0.071	-0.156
-548.339	296.892	0.130	-0.238
-547.325	800.000	-0.133	0.528
-546.310	-15.798	-0.249	-0.158
-545.296	324.202	-0.046	0.087
-544.281	-200.000	-0.037	-0.310
-543.266	229.282	0.040	-0.065
-542.252	-159.007	-0.157	-0.009
-541.237	133.702	-0.099	-0.128
-540.223	-200.000	-0.044	-0.209
-539.208	690.861	-0.031	0.082
-538.193	121.864	-0.117	0.146
-537.179	-55.096	0.275	-0.123
-536.164	800.000	-0.040	-0.121
-535.150	173.036	-0.139	-0.199
-534.135	-91.397	0.333	-0.095
-533.121	10.098	-0.294	0.223
-532.106	316.182	-0.093	0.175
-531.091	753.952	-0.140	0.376
-530.077	-15.283	-0.306	0.195
-529.062	-61.356	-0.042	0.018
-528.048	-53.292	-0.327	0.150
-527.033	34.060	0.135	-0.117
-526.018	-114.376	0.248	0.048
-525.004	65.247	-0.264	0.266
-523.989	-200.000	-0.052	0.323
-522.975	-200.000	-0.039	0.378
-521.960	-72.869	0.081	0.030
-520.945	157.123	0.144	0.199
-519.931	800.000	-0.086	-0.294
-518.916	-86.847	0.329	0.100
-517.902	-29.574	-0.122	-0.069
-516.887	-71.630	-0.060	0.022
-515.872	175.608	-0.276	0.400
-514.858	-61.171	0.145	0.061
-513.843	-200.000	-0.001	0.133
-512.829	-27.196	0.103	-0.060
-511.814	-200.000	0.001	0.039
-510.799	116.547	-0.108	-0.132
-509.785	416.283	0.047	0.101
-508.770	210.158	0.239	-0.374
-507.756	207.725	-0.135	-0.211
-506.741	-35.151	0.254	-0.138
-505.726	274.472	0.243	0.428
-504.712	-59.078	0.156	-0.067
-503.697	412.397	0.057	-0.120
-502.683	-76.256	-0.273	-0.096
-501.668	-33.274	-0.045	0.025
-500.653	-115.236	-0.190	-0.036
-499.639	130.732	0.129	-0.165
-498.624	-124.621	0.460	-0.071
-497.610	800.000	0.121	-0.403
-496.595	800.000	-0.029	-0.110
-495.581	-59.934	-0.321	-0.137
-494.566	800.000	0.024	-0.091
-493.551	520.506	0.108	-0.252
-492.537	59.259	-0.158	0.155
-491.522	-200.000	-0.004	0.151
-490.508	148.093	0.031	-0.041
-489.493	-200.000	-0.001	-0.089
-488.478	-112.578	0.031	-0.006
-487.464	-156.253	-0.225	-0.014
-486.449	3.370	0.282	0.204
-485.435	50.218	-0.093	-0.088
-484.420	50.595	0.074	-0.070
-483.405	800.000	0.036	0.134
-482.391	-200.000	-0.016	-0.403
-481.376	800.000	-0.062	-0.182
-480.362	-200.000	0.019	-0.217
-479.347	-200.000	-0.023	-0.237
-478.332	32.213	-0.408	-0.351
-477.318	347.931	-0.078	0.153
-476.303	-54.365	0.241	-0.109
-475.289	-17.341	0.075	-0.047
-474.274	-86.384	-0.251	-0.077
-473.259	-200.000	-0.037	0.331
-472.245	52.865	-0.218	-0.208
-471.230	-146.256	0.326	-0.028
-470.216	-4.062	0.128	-0.088
-469.201	-124.779	0.187	0.029
-468.186	-68.640	0.182	0.070
-467.172	166.572	-0.285	0.401
-466.157	-138.401	-0.263	-0.029
-465.143	195.540	0.029	-0.044
-464.128	-91.330	0.277	0.079
-463.113	-0.391	0.165	-0.116
-462.099	-200.000	-0.022	0.132
-461.084	181.459	0.142	-0.208
-460.070	800.000	0.055	-0.193
-459.055	255.848	-0.018	0.030
-458.040	308.788	-0.151	0.280
-457.026	-109.293	-0.132	0.028
-456.011	-200.000	-0.035	-0.183
-454.997	404.855	0.107	-0.223
-453.982	-200.000	0.014	0.276
-452.968	-113.553	-0.239	0.046
-451.953	800.000	0.039	0.127
-450.938	-149.048	0.098	-0.008
-449.924	-47.317	0.304	-0.147
-448.909	63.336	-0.207	-0.206
-447.895	-200.000	0.031	0.236
-446.880	-80.679	0.171	-0.057
-445.865	-62.324	0.349	-0.144
-444.851	800.000	0.092	-0.269
-443.836	13.824	-0.113	-0.087
-442.822	-130.356	-0.153	0.021
-441.807	800.000	-0.118	0.354
-440.792	138.867	0.072	-0.094
-439.778	253.878	-0.109	-0.185
-438.763	-5.352	0.084	-0.057
-437.749	-14.076	0.278	0.178
-436.734	-200.000	-0.002	0.124
-435.719	299.350	-0.094	-0.172
-434.705	-200.000	0.002	-0.237
-433.690	231.471	-0.123	0.200
-432.676	-200.000	0.001	0.062
-431.661	-115.479	-0.101	0.019
-430.646	59.926	0.276	0.270
-429.632	716.581	-0.046	0.121
-428.617	120.727	0.079	0.097
-427.603	800.000	0.073	0.250
-426.588	-38.889	-0.198	-0.104
-425.573	800.000	-0.029	0.105
-424.559	-200.000	0.014	0.102
-423.544	800.000	-0.070	0.199
-422.530	-200.000	-0.071	0.395
-421.515	252.484	0.132	0.223
-420.500	-17.598	0.321	-0.201
-419.486	-82.424	-0.138	-0.045
-418.471	800.000	0.102	0.329
-417.457	-26.610	-0.474	-0.276
-416.442	-36.711	0.182	-0.097
-415.428	226.350	0.291	-0.469
-414.413	64.730	0.292	0.293
-413.398	-200.000	-0.013	-0.145
-412.384	-93.698	0.503	-0.138
-411.369	-43.753	0.075	-0.038
-410.355	-1.397	0.321	0.225
-409.340	764.374	-0.061	0.164
-408.325	-94.267	-0.019	0.005
-407.311	-14.851	0.290	-0.184
-406.296	329.996	0.098	0.188
-405.282	14.128	-0.225	-0.174
-404.267	31.747	-0.285	0.244
-403.252	363.618	0.254	0.507
-402.238	-174.636	-0.133	0.004
-401.223	-200.000	-0.048	-0.330
-400.209	-200.000	-0.017	0.094
-399.194	377.147	-0.044	-0.089
-398.179	-200.000	0.004	0.125
-397.165	62.110	0.242	0.239
-396.150	-101.716	0.182	-0.044
-395.136	-33.143	0.136	0.075
-394.121	39.408	-0.292	-0.259
-393.106	82.357	-0.104	-0.112
-392.092	173.690	0.144	-0.206
-391.077	-200.000	0.016	-0.073
-390.063	-170.886	-0.399	0.014
-389.048	205.157	0.110	0.169
-388.033	-176.576	0.258	0.007
-387.019	27.203	-0.253	-0.211
-386.004	-200.000	-0.031	-0.207
-384.990	20.700	0.093	-0.075
-383.975	22.286	-0.116	0.094
-382.960	-32.075	0.122	-0.068
-381.946	-83.164	0.151	-0.048
-380.931	-200.000	-0.028	0.299
-379.917	96.786	-0.259	0.294
-378.902	71.739	-0.133	0.137
-377.888	38.545	-0.156	0.138
-376.873	25.154	0.231	0.190
-375.858	-61.689	0.138	0.057
-374.844	28.763	-0.209	0.176
-373.829	41.690	0.180	-0.162
-372.815	-29.703	-0.024	0.013
-371.800	22.961	-0.110	0.089
-370.785	106.167	0.141	0.166
-369.771	-116.696	-0.140	0.026
-368.756	88.398	0.152	-0.167
-367.742	134.077	-0.095	-0.122
-366.727	-200.000	-0.007	-0.318
-365.712	22.044	-0.270	0.218
-364.698	-73.671	-0.090	0.032
-363.683	800.000	0.080	0.220
-362.669	22.703	0.143	0.116
-361.654	-200.000	-0.074	-0.378
-360.639	347.452	-0.146	0.286
-359.625	308.246	-0.022	0.041
-358.610	-49.024	-0.044	-0.021
-357.596	800.000	0.042	-0.126
-356.581	-200.000	0.013	0.069
-355.566	-26.723	-0.126	0.073
-354.552	-94.653	-0.177	0.048
-353.537	180.271	0.097	0.141
-352.523	800.000	-0.132	0.458
-351.508	78.825	0.092	0.097
-350.493	240.501	0.093	-0.153
-349.479	800.000	0.043	-0.137
-348.464	102.676	0.172	0.199
-347.450	800.000	-0.084	-0.253
-346.435	-12.100	-0.128	-0.083
-345.420	-89.892	-0.169	-0.049
-344.406	-11.221	0.139	-0.090
-343.391	-117.745	-0.264	0.047
-342.377	-200.000	-0.006	-0.069
-341.362	382.278	-0.126	-0.256
-340.348	63.469	0.258	-0.256
-339.333	-200.000	-0.013	-0.114
-338.318	171.896	-0.120	-0.171
-337.304	727.095	-0.056	-0.149
-336.289	29.198	-0.362	-0.304
-335.275	-59.582	0.271	0.115
-334.260	-200.000	-0.020	-0.125
-333.245	-98.121	-0.362	-0.092
-332.231	-41.149	0.285	-0.146
-331.216	-104.347	0.128	0.029
-330.202	-200.000	-0.012	-0.239
-329.187	-200.000	0.013	-0.196
-328.172	-125.347	0.289	-0.044
-327.158	-100.067	0.083	-0.020
-326.143	623.718	-0.025	0.063
-325.129	-200.000	-0.012	0.126
-324.114	-144.060	-0.136	0.013
-323.099	219.932	-0.177	-0.281
-322.085	-46.259	-0.128	-0.062
-321.070	-149.311	0.545	-0.043
-320.056	-38.161	0.206	-0.108
-319.041	-200.000	0.017	-0.075
-318.026	-200.000	-0.007	0.096
-317.012	-117.935	-0.087	-0.015
-315.997	-200.000	0.001	0.071
-314.983	154.889	0.203	-0.276
-313.968	-200.000	0.023	0.223
-312.953	142.465	-0.217	0.285
-311.939	-97.420	0.365	-0.094
-310.924	800.000	-0.108	0.385
-309.910	-42.662	0.287	-0.144
-308.895	10.670	-0.263	-0.198
-307.880	-160.385	-0.463	0.025
-306.866	800.000	0.060	0.230
-305.851	18.057	-0.254	-0.200
-304.837	43.440	-0.141	-0.127
-303.822	124.108	0.096	0.119
-302.807	800.000	0.064	-0.249
-301.793	73.101	0.070	0.072
-300.778	120.550	0.144	0.177
-299.764	-74.455	0.048	0.017
-298.749	-200.000	0.007	0.217
-297.735	22.407	-0.276	-0.223
-296.720	800.000	-0.091	-0.251
-295.705	-124.121	0.282	0.044
-294.691	-200.000	0.007	0.064
-293.676	124.389	0.084	0.105
-292.662	155.284	-0.073	-0.099
-291.647	-69.121	-0.204	0.078
-290.632	-166.604	-0.302	-0.012
-289.618	-105.935	-0.133	-0.030
-288.603	-46.346	0.152	0.074
-287.589	215.024	-0.048	0.075
-286.574	800.000	0.076	0.239
-285.559	800.000	-0.049	0.177
-284.545	20.621	-0.140	0.112
-283.530	-200.000	-0.020	-0.146
-282.516	127.360	-0.101	0.126
-281.501	114.973	0.076	0.092
-280.486	35.770	0.204	0.177
-279.472	178.211	-0.090	0.129
-278.457	-102.951	-0.130	-0.030
-277.443	-137.316	0.210	0.024
-276.428	-16.469	-0.293	-0.183
-275.413	-200.000	-0.031	0.145
-274.399	368.258	0.115	-0.229
-273.384	-200.000	-0.012	-0.154
-272.370	-88.778	0.139	0.041
-271.355	-88.439	0.167	-0.049
-270.340	-85.750	0.336	-0.103
-269.326	-3.785	-0.226	-0.155
-268.311	800.000	-0.036	0.136
-267.297	25.526	-0.115	0.094
-266.282	-147.119	0.037	0.003
-265.267	-200.000	0.004	0.200
-264.253	-50.597	0.352	0.164
-263.238	25.562	-0.095	0.078
-262.224	-135.363	-0.245	-0.029
-261.209	-5.267	0.081	0.055
-260.195	800.000	-0.036	-0.099
-259.180	137.523	0.191	0.247
-258.165	-98.073	0.094	-0.024
-257.151	179.837	0.056	0.081
-256.136	800.000	0.049	0.161
-255.122	-143.746	-0.508	-0.047
-254.107	800.000	-0.013	-0.052
-253.092	-104.006	-0.203	-0.047
-252.078	-79.239	-0.342	0.114
-251.063	-152.506	-0.153	-0.011
-250.049	-108.080	0.283	-0.060
-249.034	30.505	-0.106	0.089
-248.019	800.000	0.125	-0.345
-247.005	-144.387	0.023	-0.002
-245.990	-29.262	0.387	-0.219
-244.976	111.874	-0.219	0.261
-243.961	56.906	-0.150	-0.144
-242.946	-117.934	0.125	-0.022
-241.932	-181.873	0.136	0.003
-240.917	-85.939	-0.217	-0.066
-239.903	-142.613	0.142	-0.014
-238.888	53.936	-0.148	-0.140
-237.873	19.764	0.123	-0.098
-236.859	56.551	0.247	0.237
-235.844	-200.000	0.075	-0.378
-234.830	-200.000	-0.015	0.119
-233.815	155.784	-0.211	-0.286
-232.800	800.000	0.065	0.272
-231.786	-200.000	-0.029	0.193
-230.771	432.932	0.202	-0.432
-229.757	-153.913	0.448	0.030
-228.742	392.899	0.115	-0.235
-227.727	11.422	-0.208	0.157
-226.713	-20.611	0.303	-0.183
-225.698	-116.255	-0.352	-0.064
-224.684	-200.000	-0.052	-0.406
-223.669	-64.307	0.088	0.035
-222.655	-88.907	-0.309	-0.090
-221.640	-116.725	-0.213	0.038
-220.625	-116.107	0.559	0.102
-219.611	-111.916	0.360	-0.072
-218.596	13.072	-0.329	-0.251
-217.582	-49.533	-0.188	-0.088
-216.567	-134.711	0.459	0.055
-215.552	-55.211	0.176	0.078
-214.538	208.718	-0.068	-0.104
-213.523	-26.457	-0.200	0.115
-212.509	-93.609	-0.334	0.091
-211.494	451.706	-0.060	0.131
-210.479	800.000	-0.031	-0.097
-209.465	-20.550	-0.126	-0.076
-208.450	-30.753	0.407	-0.227
-207.436	-111.099	-0.146	-0.029
-206.421	215.542	-0.086	0.134
-205.406	-114.760	-0.154	-0.029
-204.392	-200.000	0.047	0.237
-203.377	-82.907	0.112	-0.036
-202.363	331.202	-0.176	0.334
-201.348	800.000	-0.059	0.166
-200.333	158.148	0.078	-0.107
-199.319	-5.142	0.292	0.198
-198.304	-85.637	-0.045	0.014
-197.290	3.259	0.109	0.078
-196.275	333.111	-0.099	0.189
-195.260	95.220	0.216	0.243
-194.246	-200.000	0.009	0.250
-193.231	149.579	0.062	-0.083
-192.217	243.497	-0.115	0.191
-191.202	-102.136	0.055	0.013
-190.187	-200.000	-0.030	0.270
-189.173	126.379	-0.136	-0.169
-188.158	-89.933	0.138	0.040
-187.144	21.585	-0.114	-0.091
-186.129	8.921	-0.387	-0.287
-185.114	-31.392	0.284	-0.157
-184.100	123.343	-0.277	-0.341
-183.085	-200.000	-0.104	-0.508
-182.071	-140.831	0.233	-0.024
-181.056	-92.305	0.207	0.057
-180.042	-0.377	-0.206	-0.144
-179.027	-178.900	0.284	-0.006
-178.012	72.537	-0.291	0.298
-176.998	99.386	-0.059	-0.067
-175.983	61.510	-0.092	-0.090
-174.969	-22.648	0.091	-0.054
-173.954	-200.000	0.030	0.347
-172.939	54.003	-0.187	0.177
-171.925	129.772	0.335	-0.422
-170.910	134.015	-0.215	0.274
-169.896	81.061	-0.086	-0.091
-168.881	800.000	0.157	0.466
-167.866	-77.398	0.325	0.111
-166.852	334.674	-0.096	0.184
-165.837	-82.006	0.430	0.138
-164.823	-93.823	-0.081	-0.022
-163.808	570.889	-0.136	-0.326
-162.793	398.669	0.099	-0.204
-161.779	51.924	-0.140	0.131
-160.764	-75.824	-0.105	-0.036
-159.750	-200.000	0.072	0.317
-158.735	-42.894	-0.060	0.030
-157.720	-200.000	-0.052	-0.414
-156.706	-200.000	-0.008	-0.149
-155.691	80.714	-0.186	-0.197
-154.677	-80.735	0.157	-0.051
-153.662	-121.872	0.218	-0.035
-152.647	25.336	-0.188	0.154
-151.633	-70.631	0.195	0.072
-150.618	266.386	0.218	0.373
-149.604	-67.335	0.172	-0.066
-148.589	3.416	-0.207	-0.148
-147.574	-176.832	0.166	0.004
-146.560	-200.000	0.001	0.342
-145.545	8.479	-0.328	-0.242
-144.531	-200.000	-0.008	0.133
-143.516	-21.208	0.052	-0.031
-142.502	99.924	0.143	0.162
-141.487	40.978	-0.176	0.156
-140.472	-147.193	0.476	-0.040
-139.458	800.000	0.050	0.177
-138.443	800.000	0.046	0.162
-137.429	-200.000	0.055	-0.330
-136.414	44.147	-0.041	-0.037
-135.399	-102.119	0.119	-0.028
-134.385	562.357	-0.189	0.448
-133.370	127.471	0.152	0.190
-132.356	-70.372	0.374	-0.139
-131.341	261.436	0.094	-0.160
-130.326	5.431	0.167	-0.121
-129.312	-44.181	-0.107	0.053
-128.297	554.049	0.117	0.277
-127.283	1.487	0.115	-0.081
-126.268	-12.678	0.141	-0.090
-125.253	-200.000	0.008	0.087
-124.239	-75.167	-0.175	-0.061
-123.224	-200.000	-0.062	0.360
-122.210	800.000	0.054	0.190
-121.195	245.311	-0.155	-0.256
-120.180	-28.401	-0.190	-0.107
-119.166	800.000	0.071	0.292
-118.151	28.720	0.165	0.137
-117.137	139.672	0.190	0.245
-116.122	145.078	0.038	-0.051
-115.107	-169.879	-0.252	0.009
-114.093	-200.000	0.076	-0.429
-113.078	-200.000	-0.004	0.140
-112.064	372.750	0.067	0.133
-111.049	43.003	0.143	0.128
-110.034	800.000	-0.039	0.162
-109.020	-191.685	-0.288	0.003
-108.005	-150.025	-0.399	0.030
-106.991	-72.374	0.187	-0.068
-105.976	120.526	-0.188	-0.230
-104.962	-117.085	-0.180	-0.032
-103.947	-113.423	-0.195	0.038
-102.932	800.000	0.107	0.348
-101.918	-125.742	0.099	0.015
-100.903	-200.000	-0.016	0.217
-99.889	-32.230	-0.455	-0.249
-98.874	-86.887	-0.148	0.044
-97.859	-200.000	0.012	0.256
-96.845	2.892	0.262	0.187
-95.830	-103.911	-0.345	-0.079
-94.816	-21.034	0.350	-0.210
-93.801	-200.000	0.030	0.281
-92.786	-200.000	0.051	0.268
-91.772	77.444	-0.070	-0.073
-90.757	800.000	0.059	-0.197
-89.743	-200.000	-0.174	-0.000
-88.728	-200.000	0.010	0.390
-87.713	-137.265	0.315	-0.035
-86.699	-73.824	0.030	-0.011
-85.684	-61.030	0.373	0.154
-84.670	-200.000	0.003	0.250
-83.655	-33.339	-0.056	-0.031
-82.640	55.558	0.265	0.251
-81.626	-6.924	-0.035	-0.023
-80.611	-200.000	0.076	0.524
-79.597	-122.361	0.163	-0.026
-78.582	-91.931	-0.119	0.033
-77.567	-106.179	0.037	0.008
-76.553	160.493	0.006	-0.008
-75.538	-144.446	0.049	0.004
-74.524	28.181	0.061	-0.050
-73.509	-44.823	0.059	-0.029
-72.494	-53.731	0.248	0.111
-71.480	-200.000	0.046	0.286
-70.465	14.488	-0.071	-0.054
-69.451	105.481	-0.059	0.069
-68.436	800.000	-0.028	0.111
-67.422	-200.000	0.010	-0.073
-66.407	-182.238	0.137	0.003
-65.392	-200.000	-0.012	-0.357
-64.378	-145.285	0.208	-0.018
-63.363	-200.000	-0.003	0.216
-62.349	-200.000	-0.030	0.496
-61.334	90.418	-0.934	-1.023
-60.319	-2.123	0.654	0.449
-59.305	-200.000	-0.243	-1.079
-58.290	580.804	0.465	1.114
-57.276	800.000	0.489	1.591
-56.261	-200.000	114.405	656.221
-55.246	538.284	1529.548	3558.620
-54.232	174.910	2711.627	3841.871
-53.217	101.549	2302.566	2626.264
-52.203	36.365	1905.669	1644.495
-51.188	30.253	1693.594	1414.981
-50.173	27.801	1651.542	1361.529
-49.159	49.685	1707.048	1573.645
-48.144	47.984	1721.578	1574.103
-47.130	29.832	1678.836	1399.246
-46.115	27.209	1663.869	1367.020
-45.100	27.085	1658.997	1362.039
-44.086	26.948	1656.872	1359.209
-43.071	27.039	1653.820	1357.336
-42.057	27.056	1651.169	1355.234
-41.042	27.071	1649.178	1353.659
-40.027	27.100	1646.715	1351.798
-39.013	26.917	1645.563	1349.438
-37.998	26.899	1644.118	1348.065
-36.984	27.003	1642.998	1347.862
-35.969	27.058	1641.355	1346.868
-34.954	27.090	1639.674	1345.673
-33.940	27.165	1637.193	1344.139
-32.925	27.164	1635.899	1343.018
-31.911	27.035	1634.336	1340.724
-30.896	26.960	1632.868	1338.915
-29.881	27.071	1630.940	1338.102
-28.867	27.084	1629.127	1336.658
-27.852	27.079	1627.624	1335.332
-26.838	27.119	1625.759	1334.043
-25.823	27.114	1624.526	1332.943
-24.809	27.189	1623.779	1332.829
-23.794	27.118	1622.059	1330.841
-22.779	27.164	1620.510	1329.850
-21.765	27.080	1618.680	1327.682
-20.750	27.021	1617.681	1326.385
-19.736	27.035	1616.421	1325.397
-18.721	27.132	1614.551	1324.519
-17.706	27.119	1613.073	1323.164
-16.692	27.130	1611.410	1321.825
-15.677	27.160	1609.915	1320.761
-14.663	27.174	1608.865	1319.952
-13.648	27.177	1607.369	1318.693
-12.633	27.087	1606.124	1316.968
-11.619	27.084	1604.265	1315.369
-10.604	27.186	1602.736	1314.803
-9.590	27.159	1601.720	1313.721
-8.575	27.129	1600.517	1312.463
-7.560	27.222	1598.975	1311.818
-6.546	27.161	1597.691	1310.271
-5.531	27.142	1596.829	1309.380
-4.517	27.063	1596.207	1308.246
-3.502	27.091	1594.787	1307.233
-2.487	27.242	1592.960	1306.765
-1.473	26.985	1581.483	1295.465
-0.458	24.432	1562.116	1261.531
0.556	23.063	1563.616	1231.179
1.571	20.720	1588.046	1233.714
2.586	20.152	1600.140	1238.944
3.600	17.963	1546.268	1181.989
4.615	11.126	1439.496	1056.077
5.629	5.308	1379.478	975.715
6.644	4.265	1371.810	963.726
7.659	4.254	1371.305	963.223
8.673	4.273	1370.447	962.652
9.688	4.268	1368.348	961.057
10.702	4.234	1365.313	958.635
11.717	7.072	1370.592	979.847
12.731	14.572	1384.076	1036.139
13.746	20.847	1394.212	1082.766
14.761	22.521	1396.551	1094.900
15.775	21.864	1394.845	1089.387
16.790	21.014	1392.120	1081.890
17.804	20.312	1389.815	1075.656
18.819	19.991	1388.480	1072.542
19.834	19.846	1387.930	1071.119
20.848	19.770	1386.870	1069.739
21.863	19.553	1385.656	1067.364
22.877	19.456	1384.838	1066.044
23.892	19.491	1383.602	1065.212
24.907	19.434	1382.431	1063.869
25.921	19.370	1381.735	1062.843
26.936	19.509	1380.595	1062.728
27.950	19.514	1379.997	1062.203
28.965	19.644	1378.989	1062.132
29.980	19.743	1377.743	1061.684
30.994	19.749	1377.381	1061.352
32.009	19.864	1376.158	1061.019
33.023	19.829	1375.045	1059.852
34.038	19.696	1373.829	1058.010
35.053	19.709	1371.771	1056.406
36.067	19.603	1371.196	1055.224
37.082	19.639	1370.013	1054.439
38.096	19.796	1369.188	1054.672
39.111	19.727	1369.069	1054.066
40.126	19.515	1368.412	1052.172
41.140	19.245	1366.559	1049.010
42.155	19.220	1365.427	1047.897
43.169	19.093	1365.783	1047.309
44.184	19.121	1365.341	1047.046
45.199	19.149	1365.230	1047.035
46.213	19.311	1365.197	1047.906
47.228	19.438	1364.605	1048.128
48.242	19.541	1363.346	1047.696
49.257	19.513	1361.431	1045.960
50.271	19.498	1360.220	1044.849
51.286	19.463	1359.260	1043.803
52.301	19.517	1357.542	1042.722
53.315	19.394	1356.341	1040.964
54.330	19.273	1355.447	1039.453
55.344	19.255	1354.154	1038.262
56.359	19.257	1352.938	1037.253
57.374	19.185	1351.967	1035.981
58.388	19.047	1351.587	1034.766
59.403	19.060	1350.566	1033.973
60.417	19.060	1350.156	1033.568
61.432	18.962	1349.209	1032.160
62.447	18.860	1348.287	1030.756
63.461	18.827	1347.103	1029.563
64.476	18.854	1345.442	1028.363
65.490	18.825	1344.424	1027.320
66.505	18.884	1343.246	1026.678
67.520	18.906	1342.279	1025.979
68.534	18.889	1341.016	1024.825
69.549	18.891	1340.170	1024.097
70.563	18.815	1339.050	1022.702
71.578	18.726	1337.968	1021.254
72.593	18.670	1336.909	1020.022
73.607	18.590	1336.626	1019.242
74.622	18.759	1335.390	1019.211
75.636	18.636	1335.080	1018.154
76.651	18.793	1334.298	1018.396
77.666	18.814	1333.923	1018.148
78.680	18.855	1333.577	1018.036
79.695	18.985	1332.673	1018.026
80.709	18.969	1332.581	1017.770
81.724	19.004	1331.742	1017.249
82.739	19.192	1330.814	1017.559
83.753	19.335	1330.427	1018.017
84.768	19.609	1328.798	1018.294
85.782	19.748	1328.296	1018.643
86.797	19.602	1327.122	1016.792
87.812	19.582	1325.324	1015.205
88.826	19.561	1324.104	1014.059
89.841	19.630	1323.320	1013.772
90.855	19.651	1322.587	1013.245
91.870	19.781	1321.807	1013.321
92.884	19.752	1321.272	1012.651
93.899	19.776	1320.269	1011.931
94.914	19.781	1319.797	1011.510
95.928	19.787	1318.786	1010.679
96.943	19.839	1317.309	1009.763
97.957	19.663	1316.911	1008.338
98.972	19.691	1315.577	1007.393
99.987	19.718	1314.731	1006.814
101.001	19.627	1314.524	1006.033
102.016	19.717	1313.399	1005.610
103.030	19.661	1312.528	1004.530
104.045	19.637	1311.599	1003.587
105.060	19.542	1309.856	1001.616
106.074	19.118	1308.795	998.256
107.089	19.004	1306.608	995.838
108.103	18.944	1304.886	994.094
109.118	18.920	1304.223	993.362
110.133	18.877	1302.900	992.019
111.147	18.854	1301.649	990.847
112.162	19.018	1300.392	990.745
113.176	19.132	1299.111	990.335
114.191	19.115	1298.068	989.355
115.206	19.133	1297.242	988.741
116.220	19.145	1295.641	987.502
117.235	19.028	1295.003	986.259
118.249	19.043	1293.789	985.337
119.264	18.881	1292.703	983.490
120.279	18.894	1291.449	982.528
121.293	18.896	1290.360	981.620
122.308	18.762	1289.192	979.880
123.322	18.689	1288.352	978.744
124.337	18.651	1287.615	977.877
125.352	18.654	1286.457	976.928
126.366	18.621	1285.020	975.561
127.381	18.622	1284.036	974.734
128.395	18.711	1282.788	974.208
129.410	18.795	1281.978	973.984
130.424	18.758	1281.697	973.474
131.439	18.905	1280.984	973.677
132.454	18.943	1280.155	973.174
133.468	18.919	1279.514	972.467
134.483	19.115	1278.520	972.732
135.497	18.954	1277.563	971.010
136.512	19.097	1276.330	970.795
137.527	19.037	1275.163	969.484
138.541	19.128	1273.949	968.985
139.556	19.296	1272.543	968.775
140.570	19.376	1271.630	968.446
141.585	19.496	1270.877	968.459
142.600	19.523	1270.043	967.887
143.614	19.671	1269.050	967.877
144.629	19.739	1268.073	967.427
145.643	19.665	1267.035	966.133
146.658	19.407	1265.577	963.492
147.673	19.319	1264.241	961.900
148.687	19.147	1262.800	959.763
149.702	19.079	1261.163	958.053
150.716	19.124	1260.118	957.425
151.731	19.049	1258.927	956.021
152.746	19.173	1257.454	955.505
153.760	19.234	1256.671	955.162
154.775	19.291	1256.046	954.918
155.789	19.270	1255.018	953.936
156.804	19.379	1254.189	953.826
157.819	19.421	1253.157	953.190
158.833	19.538	1252.651	953.365
159.848	19.799	1251.861	954.118
160.862	19.601	1250.668	952.034
161.877	19.456	1248.907	949.812
162.892	19.156	1247.637	947.112
163.906	19.035	1247.223	946.047
164.921	19.127	1245.921	945.483
165.935	19.347	1245.217	946.072
166.950	19.401	1244.407	945.668
167.964	19.337	1244.025	944.944
168.979	19.223	1243.532	943.860
169.994	19.219	1242.482	942.957
171.008	19.288	1241.261	942.326
172.023	19.395	1241.199	942.780
173.037	19.661	1240.462	943.590
174.052	19.656	1239.087	942.437
175.067	19.270	1237.947	939.377
176.081	19.094	1236.900	937.545
177.096	19.201	1235.868	937.259
178.110	19.222	1234.562	936.301
179.125	19.298	1233.614	935.913
180.140	19.337	1232.810	935.432
181.154	19.486	1231.731	935.335
182.169	19.548	1230.917	934.971
183.183	19.587	1229.650	934.138
184.198	19.763	1227.917	933.692
185.213	19.748	1227.057	932.871
186.227	19.787	1226.227	932.368
187.242	19.883	1225.205	932.025
188.256	19.858	1224.657	931.393
189.271	19.939	1223.709	931.024
190.286	19.618	1222.646	928.408
191.300	19.295	1221.506	925.727
192.315	19.201	1220.148	924.111
193.329	19.125	1220.171	923.637
194.344	19.166	1219.376	923.173
195.359	19.347	1218.897	923.703
196.373	19.513	1218.455	924.173
197.388	19.508	1217.964	923.689
198.402	19.727	1217.965	924.780
199.417	19.980	1217.221	925.490
200.432	20.043	1216.715	925.360
201.446	20.134	1216.253	925.408
202.461	20.230	1215.351	925.156
203.475	20.253	1214.029	924.192
204.490	20.031	1212.785	921.976
205.504	19.737	1211.303	919.210
206.519	19.728	1210.047	918.125
207.534	19.639	1209.028	916.800
208.548	19.654	1207.947	915.980
209.563	19.678	1207.981	916.047
210.577	19.678	1206.586	914.909
211.592	19.931	1205.507	915.348
212.607	19.920	1205.064	914.874
213.621	19.962	1204.092	914.274
214.636	19.880	1203.366	913.210
215.650	20.040	1202.118	913.030
216.665	20.114	1201.227	912.658
217.680	20.147	1201.308	912.815
218.694	20.176	1200.490	912.265
219.709	20.148	1199.491	911.279
220.723	20.169	1198.155	910.290
221.738	20.119	1197.528	909.475
222.753	20.047	1196.814	908.469
223.767	20.031	1196.202	907.842
224.782	20.226	1195.896	908.550
225.796	20.359	1195.091	908.557
226.811	20.320	1194.391	907.738
227.826	20.190	1193.624	906.396
228.840	20.077	1192.672	905.005
229.855	20.040	1191.795	904.064
230.869	20.088	1190.827	903.499
231.884	20.110	1189.803	902.759
232.899	19.915	1189.074	901.113
233.913	19.832	1188.411	900.095
234.928	19.728	1187.860	899.059
235.942	19.711	1187.190	898.387
236.957	19.880	1186.103	898.357
237.972	19.689	1185.370	896.732
238.986	19.713	1185.239	896.681
240.001	19.753	1184.353	896.137
241.015	19.820	1183.298	895.608
242.030	19.907	1182.842	895.631
243.045	19.939	1182.319	895.323
244.059	20.042	1180.827	894.646
245.074	20.242	1179.991	894.965
246.088	20.171	1179.648	894.257
247.103	20.261	1179.389	894.449
248.117	20.407	1178.289	894.285
249.132	20.537	1178.292	894.879
250.147	20.808	1177.804	895.821
251.161	20.936	1177.250	895.982
252.176	20.978	1176.423	895.490
253.190	21.047	1176.194	895.591
254.205	21.183	1175.310	895.537
255.220	21.180	1174.716	894.986
256.234	21.167	1173.856	894.184
257.249	21.112	1172.971	893.151
258.263	21.024	1172.612	892.351
259.278	21.037	1171.456	891.454
260.293	21.056	1171.509	891.516
261.307	21.165	1170.719	891.389
262.322	21.082	1170.464	890.696
263.336	21.114	1169.387	889.962
264.351	21.181	1168.715	889.710
265.366	21.283	1168.150	889.723
266.380	21.240	1167.858	889.202
267.395	21.158	1166.406	887.599
268.409	20.938	1165.535	885.741
269.424	21.076	1164.632	885.677
270.439	21.018	1164.307	885.058
271.453	20.985	1163.417	884.135
272.468	20.788	1162.538	882.391
273.482	20.621	1161.754	880.869
274.497	20.670	1161.236	880.651
275.512	20.827	1160.470	880.783
276.526	20.751	1159.832	879.840
277.541	20.832	1159.016	879.548
278.555	20.874	1158.359	879.185
279.570	21.061	1157.724	879.570
280.585	21.151	1157.325	879.643
281.599	21.197	1156.077	878.844
282.614	21.077	1154.813	877.205
283.628	20.919	1153.679	875.474
284.643	20.928	1152.925	874.865
285.657	20.858	1152.034	873.762
286.672	20.937	1150.829	873.170
287.687	20.950	1150.250	872.715
288.701	21.013	1149.301	872.232
289.716	21.053	1148.749	871.940
290.730	21.019	1147.989	871.115
291.745	21.146	1147.032	870.945
292.760	21.149	1146.768	870.682
293.774	21.214	1146.461	870.697
294.789	21.275	1145.920	870.513
295.803	21.258	1145.026	869.672
296.818	21.023	1144.235	867.823
297.833	20.962	1143.477	866.868
298.847	21.015	1142.848	866.577
299.862	21.087	1141.938	866.171
300.876	21.200	1140.903	865.871
301.891	21.358	1140.409	866.200
302.906	21.297	1140.486	865.881
303.920	21.495	1139.504	866.037
304.935	21.517	1138.922	865.630
305.949	21.645	1138.578	865.920
306.964	21.684	1137.538	865.249
307.979	21.497	1136.845	863.719
308.993	21.407	1136.192	862.706
310.008	21.555	1135.670	862.962
311.022	21.628	1134.644	862.463
312.037	21.576	1133.819	861.505
313.052	21.340	1132.729	859.442
314.066	21.319	1131.288	858.169
315.081	21.127	1130.429	856.497
316.095	21.038	1129.888	855.577
317.110	21.120	1128.976	855.209
318.125	21.056	1128.352	854.350
319.139	21.059	1127.690	853.787
320.154	21.010	1126.835	852.823
321.168	21.024	1126.373	852.471
322.183	21.080	1126.134	852.487
323.197	21.165	1125.463	852.318
324.212	21.267	1124.847	852.275
325.227	21.277	1124.079	851.666
326.241	21.224	1123.542	850.923
327.256	21.137	1122.683	849.775
328.270	21.156	1121.922	849.214
329.285	21.249	1120.793	848.738
330.300	21.127	1119.905	847.400
331.314	21.114	1118.971	846.552
332.329	21.126	1118.046	845.838
333.343	21.278	1116.983	845.696
334.358	21.388	1116.584	845.851
335.373	21.554	1115.866	846.034
336.387	21.500	1115.343	845.298
337.402	21.568	1114.343	844.795
338.416	21.524	1114.259	844.446
339.431	21.653	1113.589	844.483
340.446	21.868	1113.140	845.108
341.460	21.913	1112.566	844.813
342.475	22.021	1111.848	844.713
343.489	21.991	1110.592	843.540
344.504	22.086	1110.295	843.696
345.519	22.268	1108.687	843.269
346.533	22.227	1108.207	842.632
347.548	22.325	1107.441	842.448
348.562	22.167	1106.600	840.977
349.577	21.974	1105.449	839.104
350.592	21.841	1104.655	837.795
351.606	21.694	1103.588	836.207
352.621	21.448	1103.649	835.007
353.635	21.417	1102.445	833.870
354.650	21.565	1101.503	833.790
355.665	21.574	1100.991	833.372
356.679	21.685	1100.514	833.465
357.694	21.799	1099.717	833.333
358.708	21.839	1099.474	833.262
359.723	22.014	1098.718	833.447
360.738	21.915	1098.079	832.419
361.752	21.810	1097.403	831.337
362.767	21.973	1096.700	831.501
363.781	21.889	1096.626	830.976
364.796	22.079	1096.052	831.367
365.810	22.175	1095.915	831.641
366.825	22.346	1095.109	831.763
367.840	22.553	1094.746	832.394
368.854	22.524	1093.885	831.530
369.869	22.446	1093.593	830.866
370.883	22.325	1092.368	829.289
371.898	22.247	1091.138	827.915
372.913	22.253	1091.004	827.771
373.927	22.389	1090.475	827.932
374.942	22.485	1089.939	827.906
375.956	22.461	1089.152	827.123
376.971	22.403	1089.075	826.715
377.986	22.407	1088.296	826.072
379.000	22.671	1087.757	826.828
380.015	22.680	1087.328	826.471
381.029	22.710	1086.625	826.003
382.044	22.708	1085.874	825.350
383.059	22.644	1084.960	824.281
384.073	22.607	1084.434	823.639
385.088	22.599	1083.209	822.598
386.102	22.727	1082.216	822.367
387.117	22.525	1080.960	820.399
388.132	22.309	1080.337	818.850
389.146	22.333	1079.616	818.341
390.161	22.212	1079.082	817.301
391.175	22.277	1078.372	816.995
392.190	22.424	1077.498	816.940
393.205	22.586	1076.902	817.169
394.219	22.458	1076.302	816.046
395.234	22.330	1075.164	814.521
396.248	22.224	1074.097	813.149
397.263	22.387	1073.187	813.139
398.278	22.186	1072.415	811.555
399.292	22.122	1071.310	810.351
400.307	22.148	1070.289	809.631
401.321	22.111	1070.138	809.272
402.336	21.982	1069.205	807.904
403.350	22.160	1068.466	808.092
404.365	22.293	1067.706	808.055
405.380	22.320	1067.289	807.791
406.394	22.428	1066.689	807.761
407.409	22.531	1065.899	807.565
408.423	22.704	1065.586	808.049
409.438	22.759	1065.064	807.834
410.453	22.839	1064.565	807.748
411.467	22.969	1063.433	807.415
412.482	22.944	1063.602	807.355
413.496	23.010	1062.601	806.824
414.511	23.016	1061.976	806.306
415.526	23.117	1062.008	806.722
416.540	23.239	1061.398	806.739
417.555	23.168	1060.588	805.732
418.569	23.172	1059.859	805.123
419.584	23.090	1059.526	804.429
420.599	22.952	1059.270	803.536
421.613	157.346	1402.928	1795.578
422.628	144.690	1452.957	1795.648
