DTS Sentinel unit serial number:	SN413079Multiplexer serial number:	ORYXHardware model number:	OX4-SRSoftware version number:	ORYX F/W v4.00 Oryx Data Collector v3.7.2.0data status	okinstallation	princeton_trtdifferential loss correction	single-endedforward channel	channel 2reverse channel	N/Adate	2019/09/13time	11:47:35forward acquisition time	60.00reverse acquisition time	0.00gamma	496.2192k internal	0.2318k external	0.2318temperature offset calibration	1.0211default loss term (dB/km)	0.3790temperature slope calibration	1.0000multiplexer offset coefficient	1.0000multiplexer slope coefficient	1.0000fibre end	0.00T internal ref (°C)	33.25T ext. ref 1 (°C)	4.54T ext. ref 2 (°C)	30.24length (m)	temperature (°C)	Stokes	anti-Stokes-747.200	64.272	0.167	0.170
-746.185	-26.260	-0.181	0.108
-745.171	-200.000	-0.007	0.417
-744.156	561.813	0.124	0.304
-743.142	64.765	0.229	-0.234
-742.127	-2.236	0.285	0.203
-741.112	-117.263	-0.151	-0.028
-740.098	-200.000	0.007	0.419
-739.083	-36.737	0.046	0.025
-738.069	-200.000	-0.020	0.221
-737.054	800.000	-0.070	-0.266
-736.039	96.019	-0.026	0.030
-735.025	800.000	-0.064	0.231
-734.010	-200.000	0.020	-0.098
-732.996	-150.378	0.296	0.023
-731.981	-64.702	0.126	-0.052
-730.966	136.812	-0.146	0.193
-729.952	800.000	-0.058	-0.241
-728.937	-84.931	-0.264	-0.084
-727.923	-200.000	0.006	-0.043
-726.908	-32.125	-0.082	0.046
-725.894	-111.644	-0.224	0.046
-724.879	474.146	0.073	-0.167
-723.864	23.203	0.016	-0.013
-722.850	-200.000	0.052	-0.286
-721.835	-200.000	0.002	-0.128
-720.821	-52.347	-0.176	-0.082
-719.806	-122.463	-0.326	-0.054
-718.791	-76.962	-0.283	0.100
-717.777	-157.525	-0.258	-0.016
-716.762	116.415	-0.119	-0.148
-715.748	6.728	0.175	0.131
-714.733	800.000	0.044	0.165
-713.718	380.689	0.151	-0.312
-712.704	111.877	-0.077	0.094
-711.689	-101.485	-0.035	-0.009
-710.675	94.069	-0.171	-0.196
-709.660	74.004	-0.035	-0.037
-708.645	-200.000	0.003	-0.056
-707.631	800.000	-0.052	0.151
-706.616	-137.077	0.049	0.006
-705.602	-34.700	0.226	-0.125
-704.587	15.740	0.391	-0.310
-703.572	-200.000	-0.030	-0.187
-702.558	272.728	0.079	-0.141
-701.543	-77.205	-0.250	0.088
-700.529	-130.830	-0.159	-0.022
-699.514	-56.045	0.130	0.058
-698.499	-14.526	-0.197	0.128
-697.485	-155.155	0.158	0.010
-696.470	-170.019	-0.199	0.007
-695.456	800.000	-0.079	0.250
-694.441	-192.938	-0.137	0.001
-693.426	-132.884	-0.168	-0.022
-692.412	299.376	-0.133	-0.248
-691.397	52.000	0.072	0.069
-690.383	-117.562	-0.243	-0.044
-689.368	502.792	-0.087	-0.204
-688.354	800.000	-0.013	-0.051
-687.339	86.527	0.065	-0.072
-686.324	222.770	-0.080	0.131
-685.310	-56.679	-0.200	0.089
-684.295	800.000	0.066	0.215
-683.281	-125.994	-0.083	-0.013
-682.266	-9.576	0.106	-0.072
-681.251	264.146	0.130	-0.228
-680.237	-100.879	-0.162	0.040
-679.222	-200.000	-0.029	-0.144
-678.208	-10.999	0.215	0.144
-677.193	-117.385	-0.164	0.030
-676.178	800.000	0.006	0.019
-675.164	106.643	0.192	-0.230
-674.149	-77.588	0.068	0.024
-673.135	-173.559	-0.096	-0.003
-672.120	678.504	0.091	-0.240
-671.105	-200.000	-0.008	-0.397
-670.091	-6.740	-0.381	-0.261
-669.076	239.837	-0.122	-0.206
-668.062	103.999	0.070	-0.083
-667.047	-94.623	-0.172	0.047
-666.032	647.987	-0.062	0.160
-665.018	800.000	-0.023	0.065
-664.003	-57.245	0.201	0.089
-662.989	-112.371	-0.179	0.036
-661.974	-200.000	0.051	0.364
-660.959	-200.000	-0.035	-0.162
-659.945	468.285	-0.126	-0.286
-658.930	192.894	0.135	-0.205
-657.916	-200.000	0.052	-0.310
-656.901	23.096	0.091	-0.075
-655.886	-200.000	-0.040	0.361
-654.872	35.241	-0.252	-0.223
-653.857	94.148	0.067	0.077
-652.843	-137.196	0.144	-0.017
-651.828	-110.028	-0.148	0.031
-650.814	-200.000	0.033	-0.306
-649.799	-50.183	0.168	-0.080
-648.784	140.186	-0.150	-0.199
-647.770	-163.642	-0.238	0.011
-646.755	800.000	0.046	0.176
-645.741	108.841	0.078	-0.094
-644.726	-200.000	0.013	-0.100
-643.711	-200.000	-0.020	-0.224
-642.697	-102.355	-0.315	-0.076
-641.682	-98.124	0.182	0.047
-640.668	-104.642	-0.251	-0.058
-639.653	-112.956	-0.352	0.070
-638.638	146.014	-0.139	-0.188
-637.624	297.409	0.165	-0.306
-636.609	-200.000	-0.063	-0.475
-635.595	20.995	-0.255	0.208
-634.580	133.017	-0.175	-0.228
-633.565	119.984	-0.029	0.036
-632.551	800.000	0.042	-0.177
-631.536	-44.098	-0.146	-0.074
-630.522	4.512	0.173	-0.128
-629.507	150.517	0.097	-0.132
-628.492	543.299	0.029	0.071
-627.478	22.806	-0.245	-0.202
-626.463	-200.000	-0.038	0.207
-625.449	492.495	-0.056	0.128
-624.434	460.620	0.094	0.212
-623.419	-200.000	0.009	-0.063
-622.405	190.388	0.040	-0.060
-621.390	-46.446	-0.474	0.234
-620.376	16.485	0.081	-0.065
-619.361	-200.000	-0.024	-0.148
-618.346	-49.083	-0.128	-0.062
-617.332	131.226	-0.134	-0.174
-616.317	-22.279	-0.259	-0.158
-615.303	-103.492	-0.251	-0.060
-614.288	-158.760	-0.230	0.013
-613.273	-116.731	0.263	0.049
-612.259	70.735	-0.015	-0.016
-611.244	313.788	-0.018	-0.035
-610.230	-21.977	0.252	-0.154
-609.215	157.733	0.111	-0.155
-608.201	118.747	-0.266	0.331
-607.186	-153.295	-0.206	-0.014
-606.171	-70.341	0.270	-0.103
-605.157	800.000	-0.085	-0.300
-604.142	642.613	-0.124	0.319
-603.128	-136.037	-0.107	0.013
-602.113	-141.036	-0.238	-0.025
-601.098	131.970	0.165	0.214
-600.084	-37.982	-0.066	-0.035
-599.069	-152.213	-0.331	-0.024
-598.055	416.335	0.071	-0.152
-597.040	-12.074	-0.131	-0.087
-596.025	800.000	-0.108	-0.399
-595.011	-92.689	-0.202	-0.057
-593.996	208.488	-0.030	0.047
-592.982	-0.765	-0.353	-0.252
-591.967	-78.319	0.068	0.023
-590.952	-80.204	-0.133	-0.045
-589.938	-95.998	-0.315	-0.084
-588.923	-148.587	-0.543	-0.045
-587.909	-200.000	0.031	0.191
-586.894	-137.786	-0.291	0.033
-585.879	-200.000	0.016	0.262
-584.865	-200.000	-0.048	0.452
-583.850	800.000	0.072	-0.238
-582.836	122.401	0.279	0.350
-581.821	-200.000	-0.046	0.210
-580.806	800.000	-0.064	-0.213
-579.792	57.658	0.039	0.038
-578.777	-93.144	0.344	-0.096
-577.763	800.000	0.023	0.065
-576.748	101.644	-0.052	0.061
-575.733	-200.000	0.001	-0.205
-574.719	-200.000	0.016	-0.138
-573.704	-90.809	-0.241	0.070
-572.690	-88.929	0.134	-0.040
-571.675	-104.769	0.024	-0.006
-570.661	-120.296	-0.244	0.042
-569.646	584.647	-0.200	-0.494
-568.631	-74.095	0.069	-0.025
-567.617	-130.631	0.279	-0.038
-566.602	800.000	0.123	0.483
-565.588	414.734	-0.044	0.094
-564.573	158.643	-0.052	-0.072
-563.558	36.386	-0.309	0.274
-562.544	-200.000	0.021	-0.184
-561.529	5.411	-0.219	0.163
-560.515	44.824	-0.247	0.228
-559.500	-33.301	-0.132	0.074
-558.485	-72.596	-0.078	-0.029
-557.471	-97.203	-0.076	-0.020
-556.456	-101.217	-0.154	-0.038
-555.442	26.839	0.364	0.306
-554.427	-64.281	0.135	0.055
-553.412	326.300	0.176	0.338
-552.398	-200.000	-0.014	-0.089
-551.383	-35.637	0.150	0.082
-550.369	117.724	-0.257	-0.318
-549.354	44.484	-0.355	-0.328
-548.339	20.637	-0.025	0.020
-547.325	-200.000	-0.027	0.305
-546.310	-33.087	-0.248	0.138
-545.296	-115.934	0.233	0.044
-544.281	199.362	-0.048	0.074
-543.266	-74.925	-0.390	0.141
-542.252	114.791	0.087	0.107
-541.237	-13.391	0.017	0.011
-540.223	470.853	-0.010	-0.022
-539.208	-15.771	0.121	0.077
-538.193	-200.000	0.011	-0.194
-537.179	-200.000	-0.018	-0.521
-536.164	-67.887	-0.242	0.095
-535.150	-78.016	-0.136	-0.047
-534.135	-129.718	0.348	-0.048
-533.121	-124.256	0.254	-0.040
-532.106	-200.000	0.023	0.104
-531.091	239.146	0.074	0.123
-530.077	21.380	0.111	0.091
-529.062	-200.000	-0.047	-0.330
-528.048	-1.650	-0.254	-0.180
-527.033	-200.000	0.008	0.130
-526.018	-125.579	-0.425	0.065
-525.004	84.600	0.066	-0.073
-523.989	-8.620	0.066	-0.044
-522.975	-152.609	0.264	-0.019
-521.960	80.964	0.238	0.257
-520.945	800.000	-0.036	0.137
-519.931	-148.210	-0.235	0.019
-518.916	-68.447	-0.100	0.039
-517.902	33.942	-0.119	-0.104
-516.887	-55.386	-0.180	-0.081
-515.872	-32.177	-0.129	-0.072
-514.858	800.000	-0.062	0.237
-513.843	2.244	0.365	0.264
-512.829	637.405	0.086	-0.220
-511.814	-29.293	-0.109	0.063
-510.799	-103.862	-0.240	-0.056
-509.785	378.244	0.055	-0.113
-508.770	-30.560	0.159	-0.090
-507.756	-109.447	0.214	-0.045
-506.741	28.381	0.144	-0.122
-505.726	244.588	0.230	0.387
-504.712	-85.976	-0.199	-0.062
-503.697	-85.065	-0.162	0.051
-502.683	443.051	-0.145	-0.319
-501.668	-59.669	0.180	0.077
-500.653	108.644	-0.303	-0.363
-499.639	-22.203	-0.338	-0.206
-498.624	-92.929	-0.145	0.041
-497.610	-200.000	-0.022	0.251
-496.595	90.823	-0.052	0.058
-495.581	800.000	0.081	-0.259
-494.566	233.688	-0.073	0.120
-493.551	-200.000	0.001	0.095
-492.537	800.000	-0.088	-0.367
-491.522	-79.938	0.309	-0.104
-490.508	50.880	0.053	-0.051
-489.493	185.762	-0.118	-0.176
-488.478	-200.000	-0.032	0.330
-487.464	-20.383	-0.027	-0.016
-486.449	-119.279	-0.234	0.041
-485.435	-78.548	0.345	0.118
-484.420	-200.000	0.037	-0.234
-483.405	-88.426	0.227	-0.068
-482.391	450.759	-0.024	0.052
-481.376	-92.409	-0.210	-0.059
-480.362	415.752	-0.123	-0.263
-479.347	-97.706	0.274	0.071
-478.332	-200.000	0.049	0.253
-477.318	-71.215	0.062	0.023
-476.303	574.761	0.056	0.137
-475.289	-200.000	0.029	0.312
-474.274	-97.984	0.313	-0.081
-473.259	-113.330	0.062	-0.012
-472.245	-57.844	0.223	0.098
-471.230	-24.734	0.058	-0.034
-470.216	167.250	0.130	0.185
-469.201	-37.272	-0.157	-0.084
-468.186	45.215	-0.126	0.116
-467.172	548.757	0.052	0.124
-466.157	-146.148	-0.248	-0.022
-465.143	309.502	-0.171	0.320
-464.128	317.679	0.004	0.008
-463.113	-200.000	0.059	-0.326
-462.099	-200.000	-0.053	-0.244
-461.084	-72.715	-0.056	-0.021
-460.070	-153.437	-0.172	-0.012
-459.055	-200.000	-0.024	0.196
-458.040	9.329	-0.185	-0.140
-457.026	-111.235	-0.061	-0.012
-456.011	475.570	-0.165	0.373
-454.997	-200.000	-0.008	0.133
-453.982	-200.000	0.018	0.238
-452.968	-200.000	-0.024	-0.243
-451.953	-188.540	-0.219	0.003
-450.938	168.481	-0.114	-0.163
-449.924	274.786	-0.079	0.140
-448.909	-200.000	-0.029	-0.169
-447.895	-200.000	0.025	0.117
-446.880	368.506	0.155	0.313
-445.865	-68.889	-0.232	0.090
-444.851	113.238	-0.102	-0.123
-443.836	-172.122	-0.237	-0.008
-442.822	-200.000	0.009	0.338
-441.807	-96.566	0.181	0.048
-440.792	58.534	-0.203	-0.199
-439.778	-123.488	0.204	-0.032
-438.763	-200.000	-0.018	-0.349
-437.749	-200.000	0.065	-0.324
-436.734	35.862	0.119	0.104
-435.719	301.323	-0.061	0.114
-434.705	-46.501	-0.114	-0.056
-433.690	290.400	-0.033	0.059
-432.676	-24.455	0.317	0.189
-431.661	81.224	0.073	0.079
-430.646	210.336	-0.038	-0.060
-429.632	-200.000	0.033	0.191
-428.617	-25.732	-0.202	0.119
-427.603	-29.502	0.285	0.163
-426.588	-200.000	0.006	-0.069
-425.573	800.000	-0.057	-0.195
-424.559	-100.188	0.188	0.047
-423.544	30.215	-0.057	-0.049
-422.530	800.000	0.023	0.068
-421.515	-200.000	-0.012	-0.063
-420.500	-190.754	-0.050	-0.001
-419.486	-200.000	0.015	-0.134
-418.471	800.000	-0.086	0.285
-417.457	-200.000	-0.001	0.101
-416.442	-108.179	0.539	-0.117
-415.428	-190.108	0.218	0.002
-414.413	-142.879	0.083	0.008
-413.398	-200.000	-0.049	0.214
-412.384	-32.680	-0.235	0.131
-411.369	13.905	0.354	-0.275
-410.355	800.000	-0.047	-0.135
-409.340	-99.474	0.203	0.051
-408.325	-146.123	0.429	0.038
-407.311	432.351	-0.072	0.156
-406.296	-200.000	-0.042	-0.225
-405.282	48.290	0.285	0.267
-404.267	-126.836	0.192	-0.028
-403.252	-200.000	0.042	-0.240
-402.238	-200.000	0.017	0.401
-401.223	800.000	0.054	-0.211
-400.209	73.721	-0.255	-0.267
-399.194	-80.041	0.156	0.052
-398.179	587.622	0.068	-0.168
-397.165	-102.805	0.106	0.025
-396.150	-200.000	0.033	0.204
-395.136	-200.000	0.006	-0.255
-394.121	-200.000	-0.058	-0.410
-393.106	77.637	0.077	0.081
-392.092	-38.206	0.285	-0.151
-391.077	0.811	-0.204	-0.146
-390.063	-200.000	-0.005	0.073
-389.048	56.011	0.101	0.098
-388.033	468.051	-0.048	-0.108
-387.019	-200.000	0.000	0.257
-386.004	-200.000	-0.011	0.053
-384.990	-42.279	0.250	0.128
-383.975	281.570	0.095	-0.170
-382.960	-73.480	0.219	0.080
-381.946	249.832	-0.101	-0.170
-380.931	800.000	-0.046	-0.181
-379.917	141.436	0.198	-0.261
-378.902	100.290	0.061	0.070
-377.888	-200.000	0.068	0.347
-376.873	-66.572	0.478	0.189
-375.858	222.508	0.086	0.137
-374.844	57.022	-0.188	-0.183
-373.829	-71.058	0.035	0.013
-372.815	-88.991	0.114	0.034
-371.800	800.000	-0.046	0.156
-370.785	119.089	-0.163	0.201
-369.771	35.996	0.151	-0.132
-368.756	-88.246	0.165	-0.049
-367.742	-200.000	0.011	0.202
-366.727	800.000	-0.009	-0.039
-365.712	-74.686	-0.067	-0.024
-364.698	52.383	0.197	0.188
-363.683	31.277	0.129	-0.110
-362.669	33.757	0.064	0.056
-361.654	176.349	-0.075	-0.109
-360.639	-146.323	-0.284	0.025
-359.625	-200.000	0.001	-0.036
-358.610	-94.135	0.236	0.064
-357.596	-17.350	-0.151	0.095
-356.581	2.350	-0.148	-0.107
-355.566	-100.278	0.204	-0.051
-354.552	92.084	0.108	0.122
-353.537	97.276	0.117	0.134
-352.523	-187.654	-0.117	0.002
-351.508	98.303	0.129	0.148
-350.493	328.971	0.035	-0.067
-349.479	-200.000	-0.021	0.194
-348.464	-122.960	0.085	0.014
-347.450	-1.133	0.066	0.047
-346.435	800.000	-0.042	0.154
-345.420	-200.000	-0.012	0.276
-344.406	335.969	-0.167	-0.323
-343.391	-51.612	-0.093	-0.043
-342.377	-122.286	-0.016	-0.003
-341.362	-158.822	0.275	0.016
-340.348	139.799	0.096	-0.126
-339.333	-28.719	0.297	-0.170
-338.318	-45.316	-0.162	-0.080
-337.304	-200.000	-0.019	-0.192
-336.289	8.546	0.669	0.502
-335.275	56.597	0.074	0.071
-334.260	114.794	-0.205	-0.249
-333.245	-79.865	-0.286	-0.096
-332.231	191.405	-0.063	0.094
-331.216	267.373	0.187	0.326
-330.202	64.230	0.165	-0.166
-329.187	57.546	0.206	0.201
-328.172	-100.437	-0.454	0.112
-327.158	-196.775	-0.306	-0.002
-326.143	-37.399	-0.218	0.116
-325.129	438.290	-0.071	-0.155
-324.114	-200.000	0.039	0.228
-323.099	-68.262	0.268	0.104
-322.085	200.216	0.110	0.169
-321.070	107.745	0.252	-0.299
-320.056	-200.000	-0.038	-0.415
-319.041	22.907	-0.146	0.119
-318.026	800.000	-0.038	0.126
-317.012	-200.000	-0.033	-0.167
-315.997	-200.000	0.039	0.191
-314.983	-79.783	0.158	0.053
-313.968	293.002	-0.141	0.256
-312.953	-29.034	-0.033	-0.019
-311.939	-200.000	-0.068	0.636
-310.924	-33.345	0.272	0.150
-309.910	-200.000	0.021	0.326
-308.895	-57.409	0.210	0.092
-307.880	151.279	-0.129	0.174
-306.866	57.915	-0.211	0.205
-305.851	-200.000	0.007	-0.121
-304.837	74.184	0.089	-0.093
-303.822	-200.000	-0.021	-0.188
-302.807	-200.000	0.001	0.013
-301.793	-104.190	0.341	-0.079
-300.778	129.839	-0.101	0.128
-299.764	-14.926	0.223	-0.142
-298.749	-200.000	-0.027	-0.151
-297.735	-55.741	0.310	0.138
-296.720	-127.330	0.247	0.036
-295.705	-92.059	-0.317	0.089
-294.691	800.000	0.036	-0.117
-293.676	-96.207	-0.451	-0.119
-292.662	-200.000	-0.015	0.272
-291.647	-200.000	0.021	-0.137
-290.632	267.195	-0.084	-0.147
-289.618	-57.860	0.370	0.161
-288.603	-170.099	-0.120	-0.004
-287.589	64.971	-0.215	0.216
-286.574	-200.000	-0.011	0.303
-285.559	-200.000	-0.050	0.308
-284.545	-200.000	-0.026	-0.198
-283.530	218.618	0.168	-0.268
-282.516	450.238	0.162	-0.355
-281.501	91.650	0.062	-0.069
-280.486	89.415	-0.063	0.070
-279.472	-20.518	-0.420	0.257
-278.457	-18.962	0.368	0.228
-277.443	-200.000	-0.000	0.042
-276.428	-15.213	-0.164	0.104
-275.413	74.226	-0.137	-0.143
-274.399	-60.850	-0.547	0.230
-273.384	184.635	-0.065	-0.095
-272.370	176.064	0.188	0.271
-271.355	346.241	0.106	-0.207
-270.340	-113.898	0.292	0.056
-269.326	100.273	0.296	0.341
-268.311	-200.000	-0.043	-0.244
-267.297	325.117	0.026	-0.050
-266.282	141.925	0.064	-0.084
-265.267	27.364	0.139	-0.116
-264.253	-57.742	0.207	-0.090
-263.238	-95.095	-0.080	-0.021
-262.224	800.000	-0.051	0.149
-261.209	632.841	0.043	-0.108
-260.195	41.116	-0.095	0.086
-259.180	-82.485	-0.296	-0.095
-258.165	-184.453	0.528	-0.009
-257.151	242.415	0.083	-0.138
-256.136	-54.554	-0.041	-0.019
-255.122	16.778	0.223	-0.175
-254.107	-69.982	0.292	-0.111
-253.092	9.965	-0.097	-0.074
-252.078	-125.212	-0.143	-0.022
-251.063	-35.570	-0.208	-0.112
-250.049	-76.212	0.050	-0.018
-249.034	-125.665	-0.393	0.059
-248.019	-140.527	-0.353	-0.036
-247.005	-105.391	0.234	0.053
-245.990	-127.182	-0.060	-0.009
-244.976	590.192	-0.048	0.118
-243.961	800.000	-0.088	-0.241
-242.946	41.421	0.140	0.126
-241.932	-200.000	0.033	-0.149
-240.917	631.702	0.055	-0.138
-239.903	-43.474	0.148	-0.074
-238.888	-95.628	0.146	-0.039
-237.873	148.345	-0.114	0.152
-236.859	284.603	0.076	0.136
-235.844	-9.951	-0.213	-0.140
-234.830	-52.000	0.321	-0.148
-233.815	-34.526	-0.310	0.168
-232.800	-200.000	0.007	0.177
-231.786	109.550	0.262	-0.312
-230.771	-200.000	0.033	-0.169
-229.757	800.000	-0.097	-0.281
-228.742	344.960	0.158	-0.308
-227.727	-200.000	0.008	-0.304
-226.713	-46.510	-0.196	-0.095
-225.698	800.000	-0.120	0.346
-224.684	-27.540	0.158	-0.091
-223.669	113.581	-0.212	-0.255
-222.655	146.893	0.060	0.080
-221.640	-97.553	-0.194	0.050
-220.625	-66.077	0.134	0.053
-219.611	2.923	-0.059	-0.043
-218.596	167.569	0.428	0.603
-217.582	-200.000	-0.007	-0.194
-216.567	-200.000	0.047	-0.294
-215.552	10.327	-0.141	0.107
-214.538	-200.000	-0.053	0.270
-213.523	17.257	-0.290	-0.228
-212.509	-200.000	-0.001	-0.102
-211.494	51.235	-0.077	-0.073
-210.479	-106.633	0.205	-0.045
-209.465	148.546	0.044	-0.059
-208.450	137.866	-0.127	0.165
-207.436	-146.951	0.316	-0.027
-206.421	-42.160	-0.190	0.096
-205.406	-43.790	0.067	0.034
-204.392	800.000	0.035	-0.144
-203.377	-200.000	0.004	0.093
-202.363	-124.308	0.260	0.040
-201.348	-51.707	0.219	0.101
-200.333	45.617	0.144	-0.132
-199.319	-126.649	0.565	-0.083
-198.304	99.254	0.129	-0.148
-197.290	800.000	0.106	0.439
-196.275	-47.196	0.095	0.046
-195.260	357.500	0.069	0.136
-194.246	-93.148	0.008	-0.002
-193.231	-200.000	-0.007	0.115
-192.217	-152.783	0.372	0.026
-191.202	65.234	-0.023	-0.023
-190.187	33.585	0.109	-0.094
-189.173	621.394	0.059	-0.146
-188.158	-165.669	-0.264	0.011
-187.144	-113.964	-0.305	-0.059
-186.129	75.218	0.164	-0.171
-185.114	-101.633	-0.316	0.076
-184.100	228.273	0.138	0.222
-183.085	-123.092	0.305	-0.048
-182.071	-129.481	0.240	0.033
-181.056	194.555	-0.162	0.244
-180.042	-44.187	-0.172	0.085
-179.027	-9.577	-0.046	-0.030
-178.012	-89.450	-0.236	0.069
-176.998	-200.000	0.059	-0.277
-175.983	60.932	-0.314	-0.309
-174.969	58.536	0.159	0.154
-173.954	-71.541	-0.120	-0.045
-172.939	800.000	0.061	0.256
-171.925	-200.000	0.019	0.115
-170.910	25.606	0.375	0.309
-169.896	2.260	0.235	-0.168
-168.881	365.573	0.095	-0.189
-167.866	169.771	-0.242	-0.343
-166.852	53.583	0.195	0.185
-165.837	-78.261	0.205	-0.070
-164.823	-18.139	0.343	-0.213
-163.808	-200.000	-0.021	-0.135
-162.793	-120.682	-0.226	0.038
-161.779	-119.123	-0.104	-0.018
-160.764	185.077	-0.129	-0.190
-159.750	800.000	0.064	0.208
-158.735	8.730	-0.243	0.181
-157.720	-102.794	-0.102	0.024
-156.706	-2.823	0.304	-0.210
-155.691	-86.347	0.147	0.045
-154.677	-55.798	-0.226	0.100
-153.662	45.028	-0.210	0.192
-152.647	-94.229	-0.180	-0.049
-151.633	-200.000	0.008	-0.412
-150.618	-200.000	-0.027	0.227
-149.604	23.352	0.216	-0.175
-148.589	-15.853	0.054	0.034
-147.574	452.868	0.052	-0.113
-146.560	-125.524	0.089	-0.013
-145.545	290.868	0.054	0.096
-144.531	-200.000	-0.009	0.068
-143.516	32.472	0.130	0.111
-142.502	-200.000	0.006	0.039
-141.487	613.983	-0.058	0.144
-140.472	420.712	0.050	0.106
-139.458	-200.000	0.005	0.057
-138.443	119.915	0.098	0.121
-137.429	-112.835	-0.108	0.021
-136.414	-135.570	0.037	-0.004
-135.399	800.000	0.074	-0.284
-134.385	-144.826	-0.261	0.024
-133.370	21.253	0.111	0.089
-132.356	-177.050	0.230	0.006
-131.341	800.000	0.021	0.061
-130.326	-200.000	-0.025	-0.323
-129.312	118.984	-0.048	0.059
-128.297	-86.700	0.298	-0.090
-127.283	178.770	-0.023	0.033
-126.268	-37.668	0.148	-0.078
-125.253	-56.480	0.092	-0.040
-124.239	78.573	-0.228	-0.241
-123.224	45.405	0.051	0.046
-122.210	-91.868	-0.283	0.079
-121.195	-61.526	0.189	0.079
-120.180	-200.000	-0.009	0.145
-119.166	-139.026	0.402	0.043
-118.151	790.204	-0.087	0.236
-117.137	33.968	-0.110	-0.095
-116.122	-91.195	0.217	-0.061
-115.107	-105.748	-0.169	-0.038
-114.093	331.038	-0.119	0.226
-113.078	-2.289	-0.283	0.196
-112.064	5.210	-0.319	0.232
-111.049	-79.390	-0.049	0.016
-110.034	-154.820	-0.215	-0.014
-109.020	409.825	0.155	-0.324
-108.005	310.275	0.055	-0.102
-106.991	83.090	0.287	-0.308
-105.976	-96.936	-0.239	0.062
-104.962	49.513	0.051	-0.047
-103.947	44.623	0.188	-0.171
-102.932	800.000	0.105	0.334
-101.918	189.839	-0.093	-0.138
-100.903	-200.000	-0.021	0.329
-99.889	345.259	-0.143	0.278
-98.874	195.418	0.174	0.260
-97.859	-67.067	-0.206	-0.080
-96.845	-178.614	0.414	0.009
-95.830	-7.561	0.273	0.182
-94.816	-88.981	0.246	-0.072
-93.801	-200.000	-0.040	-0.235
-92.786	471.878	-0.136	0.302
-91.772	338.126	-0.052	0.101
-90.757	-99.764	0.132	0.033
-89.743	549.685	0.201	0.476
-88.728	193.594	-0.071	-0.106
-87.713	39.168	-0.281	-0.248
-86.699	-200.000	0.007	-0.122
-85.684	-84.572	0.201	0.063
-84.670	-17.360	0.323	0.201
-83.655	402.853	-0.042	-0.086
-82.640	545.251	-0.067	0.157
-81.626	50.040	0.167	-0.156
-80.611	800.000	-0.077	-0.243
-79.597	475.486	0.048	0.106
-78.582	65.886	0.275	-0.275
-77.567	250.863	-0.034	0.056
-76.553	14.064	-0.211	0.162
-75.538	-81.920	-0.421	-0.136
-74.524	-148.270	-0.355	-0.029
-73.509	180.322	0.051	0.074
-72.494	236.704	0.047	0.076
-71.480	-81.570	0.125	0.040
-70.465	-131.936	0.078	-0.010
-69.451	-80.759	0.369	-0.121
-68.436	604.948	0.128	0.314
-67.422	-103.349	0.135	0.031
-66.407	296.574	-0.031	0.056
-65.392	-164.753	0.028	0.001
-64.378	-34.816	-0.077	-0.041
-63.363	88.297	0.055	0.060
-62.349	247.856	-0.133	0.221
-61.334	35.868	-0.827	-0.717
-60.319	297.784	0.253	0.458
-59.305	226.940	-0.567	-0.907
-58.290	144.072	0.637	0.837
-57.276	800.000	0.511	1.470
-56.261	-200.000	97.892	593.228
-55.246	615.495	1433.033	3539.756
-54.232	181.425	2649.753	3840.027
-53.217	112.956	2322.177	2772.917
-52.203	42.694	1931.997	1733.267
-51.188	36.461	1720.409	1495.332
-50.173	33.759	1676.206	1436.442
-49.159	51.591	1724.654	1615.116
-48.144	53.906	1740.867	1647.963
-47.130	36.126	1698.756	1473.716
-46.115	33.330	1683.629	1439.312
-45.100	33.157	1678.601	1433.649
-44.086	33.188	1675.777	1431.412
-43.071	33.119	1673.259	1428.685
-42.057	33.079	1671.059	1426.445
-41.042	33.041	1668.974	1424.328
-40.027	33.119	1666.686	1422.904
-39.013	33.136	1664.286	1420.923
-37.998	33.053	1663.444	1419.524
-36.984	33.152	1661.595	1418.634
-35.969	33.288	1660.272	1418.469
-34.954	33.273	1658.920	1417.143
-33.940	33.330	1657.020	1415.893
-32.925	33.231	1655.236	1413.575
-31.911	33.261	1653.579	1412.323
-30.896	33.267	1651.792	1410.787
-29.881	33.228	1649.872	1408.798
-28.867	33.211	1648.397	1407.362
-27.852	33.222	1646.552	1405.810
-26.838	33.305	1644.859	1404.928
-25.823	33.262	1643.574	1403.453
-24.809	33.223	1642.372	1402.083
-23.794	33.275	1640.455	1400.772
-22.779	33.296	1639.618	1400.162
-21.765	33.241	1637.106	1397.553
-20.750	33.262	1636.143	1396.826
-19.736	33.280	1634.080	1395.149
-18.721	33.267	1632.673	1393.796
-17.706	33.269	1631.645	1392.877
-16.692	33.328	1629.782	1391.660
-15.677	33.304	1628.507	1390.339
-14.663	33.294	1626.786	1388.745
-13.648	33.360	1625.066	1387.707
-12.633	33.241	1623.914	1385.792
-11.619	33.299	1622.259	1384.749
-10.604	33.258	1620.896	1383.233
-9.590	33.288	1619.509	1382.216
-8.575	33.253	1618.451	1380.999
-7.560	33.254	1617.251	1379.931
-6.546	33.241	1616.289	1378.956
-5.531	33.303	1614.728	1378.023
-4.517	33.185	1613.830	1376.347
-3.502	33.252	1612.623	1375.750
-2.487	33.392	1610.682	1375.055
-1.473	33.221	1599.717	1364.405
-0.458	30.701	1580.496	1329.975
0.556	29.421	1579.631	1294.742
1.571	26.845	1603.740	1296.004
2.586	25.790	1615.908	1298.127
3.600	22.508	1560.644	1230.730
4.615	13.560	1448.877	1084.185
5.629	6.110	1383.164	988.221
6.644	4.523	1374.847	972.267
7.659	4.477	1374.150	971.401
8.673	4.617	1372.618	971.110
9.688	4.553	1371.712	969.984
10.702	4.594	1368.533	967.906
11.717	8.239	1375.787	995.725
12.731	16.980	1391.964	1062.312
13.746	22.582	1399.727	1103.314
14.761	22.814	1399.262	1104.307
15.775	22.015	1397.011	1097.436
16.790	21.064	1395.038	1089.849
17.804	20.251	1392.777	1082.917
18.819	19.926	1391.372	1079.700
19.834	19.819	1390.465	1078.232
20.848	19.676	1389.284	1076.334
21.863	19.471	1388.148	1074.082
22.877	19.365	1386.728	1072.230
23.892	19.288	1386.104	1071.173
24.907	19.312	1384.704	1070.145
25.921	19.310	1383.797	1069.337
26.936	19.326	1383.030	1068.749
27.950	19.378	1382.202	1068.338
28.965	19.471	1380.959	1067.856
29.980	19.539	1380.591	1067.896
30.994	19.655	1379.601	1067.755
32.009	19.723	1378.834	1067.486
33.023	19.729	1377.084	1066.076
34.038	19.553	1375.715	1063.838
35.053	19.604	1374.140	1062.837
36.067	19.456	1373.579	1061.401
37.082	19.484	1372.639	1060.753
38.096	19.584	1371.478	1060.377
39.111	19.672	1370.411	1059.995
40.126	19.541	1369.585	1058.459
41.140	19.269	1368.328	1055.728
42.155	19.064	1367.433	1053.693
43.169	19.147	1367.608	1054.241
44.184	18.985	1367.505	1053.073
45.199	19.014	1367.182	1052.909
46.213	19.327	1366.646	1054.321
47.228	19.387	1365.909	1054.026
48.242	19.497	1364.646	1053.627
49.257	19.385	1363.403	1051.892
50.271	19.390	1361.974	1050.725
51.286	19.494	1360.214	1049.910
52.301	19.484	1358.819	1048.679
53.315	19.296	1358.075	1046.869
54.330	19.184	1356.754	1045.080
55.344	19.070	1355.718	1043.498
56.359	19.156	1354.508	1042.993
57.374	19.145	1353.746	1042.250
58.388	18.998	1352.916	1040.630
59.403	18.981	1352.107	1039.813
60.417	19.015	1351.155	1039.191
61.432	18.891	1350.215	1037.628
62.447	18.853	1349.496	1036.758
63.461	18.767	1348.594	1035.452
64.476	18.746	1347.269	1034.219
65.490	18.706	1346.192	1033.057
66.505	18.751	1344.640	1032.045
67.520	18.780	1343.572	1031.307
68.534	18.795	1342.667	1030.614
69.549	18.784	1341.728	1029.738
70.563	18.712	1340.750	1028.461
71.578	18.644	1339.180	1026.761
72.593	18.740	1337.948	1026.301
73.607	18.536	1337.429	1024.593
74.622	18.660	1336.352	1024.414
75.636	18.588	1335.795	1023.470
76.651	18.710	1335.541	1023.911
77.666	18.805	1334.915	1023.909
78.680	18.853	1334.569	1023.838
79.695	18.854	1333.768	1023.136
80.709	18.925	1333.568	1023.318
81.724	19.103	1332.501	1023.463
82.739	19.236	1331.878	1023.685
83.753	19.286	1331.534	1023.631
84.768	19.412	1330.088	1023.176
85.782	19.565	1329.496	1023.538
86.797	19.613	1327.405	1022.119
87.812	19.418	1326.631	1020.276
88.826	19.457	1325.611	1019.634
89.841	19.523	1324.208	1018.858
90.855	19.546	1323.588	1018.426
91.870	19.576	1322.689	1017.819
92.884	19.684	1321.809	1017.687
93.899	19.705	1320.810	1016.953
94.914	19.653	1320.562	1016.362
95.928	19.703	1319.325	1015.620
96.943	19.600	1318.463	1014.260
97.957	19.590	1317.379	1013.276
98.972	19.607	1316.378	1012.517
99.987	19.641	1315.286	1011.788
101.001	19.612	1314.647	1011.035
102.016	19.608	1313.766	1010.244
103.030	19.584	1312.908	1009.356
104.045	19.567	1311.843	1008.346
105.060	19.450	1311.061	1006.977
106.074	19.111	1308.928	1003.275
107.089	18.844	1307.416	1000.468
108.103	18.778	1306.331	999.168
109.118	18.857	1304.539	998.165
110.133	18.948	1303.159	997.550
111.147	18.897	1302.169	996.409
112.162	18.996	1300.917	995.934
113.176	19.039	1300.093	995.464
114.191	19.014	1299.418	994.717
115.206	19.084	1298.277	994.159
116.220	19.032	1297.001	992.795
117.235	18.972	1296.002	991.595
118.249	18.973	1295.036	990.777
119.264	18.954	1293.676	989.540
120.279	18.856	1292.308	987.842
121.293	18.659	1292.077	986.444
122.308	18.662	1290.232	984.965
123.322	18.605	1289.383	983.904
124.337	18.612	1287.937	982.751
125.352	18.583	1287.024	981.804
126.366	18.564	1285.953	980.793
127.381	18.590	1284.922	980.064
128.395	18.653	1283.937	979.589
129.410	18.807	1282.793	979.507
130.424	18.879	1281.775	979.055
131.439	18.984	1280.719	978.760
132.454	18.993	1280.460	978.526
133.468	18.936	1279.605	977.457
134.483	19.007	1278.812	977.171
135.497	19.003	1278.010	976.449
136.512	19.086	1276.623	975.774
137.527	19.043	1275.621	974.680
138.541	19.094	1273.719	973.424
139.556	19.179	1272.891	973.187
140.570	19.287	1272.078	973.091
141.585	19.376	1270.756	972.496
142.600	19.430	1269.732	971.926
143.614	19.557	1268.750	971.807
144.629	19.568	1268.066	971.255
145.643	19.547	1266.794	970.078
146.658	19.455	1265.119	968.198
147.673	19.294	1264.033	966.378
148.687	19.123	1262.846	964.424
149.702	19.113	1261.056	962.916
150.716	19.023	1259.555	961.185
151.731	19.059	1259.024	960.894
152.746	19.162	1257.447	960.178
153.760	19.267	1256.244	959.762
154.775	19.122	1255.596	958.375
155.789	19.263	1254.431	958.183
156.804	19.451	1253.315	958.293
157.819	19.461	1252.323	957.506
158.833	19.435	1251.466	956.618
159.848	19.652	1250.778	957.211
160.862	19.631	1249.627	956.130
161.877	19.274	1248.283	953.041
162.892	19.110	1247.040	951.103
163.906	19.069	1246.228	950.175
164.921	19.030	1245.405	949.248
165.935	19.287	1244.101	949.583
166.950	19.277	1243.835	949.242
167.964	19.365	1242.921	948.946
168.979	19.243	1242.434	947.820
169.994	19.178	1241.711	946.827
171.008	19.315	1240.824	946.818
172.023	19.507	1239.893	947.079
173.037	19.489	1239.777	946.806
174.052	19.482	1238.703	945.866
175.067	19.249	1237.639	943.690
176.081	19.140	1236.081	941.823
177.096	19.075	1235.335	940.819
178.110	19.144	1234.242	940.277
179.125	19.292	1232.808	939.910
180.140	19.296	1231.491	938.842
181.154	19.370	1231.045	938.825
182.169	19.460	1229.903	938.360
183.183	19.543	1229.005	938.044
184.198	19.532	1227.671	936.883
185.213	19.642	1226.750	936.691
186.227	19.542	1225.574	935.168
187.242	19.631	1224.597	934.823
188.256	19.773	1223.960	935.021
189.271	19.858	1222.779	934.495
190.286	19.606	1221.813	932.317
191.300	19.223	1220.479	929.151
192.315	19.127	1218.859	927.318
193.329	19.106	1218.864	927.126
194.344	19.213	1218.599	927.419
195.359	19.273	1218.090	927.270
196.373	19.388	1217.877	927.645
197.388	19.607	1217.113	928.159
198.402	19.690	1217.237	928.619
199.417	19.881	1216.789	929.222
200.432	19.999	1216.095	929.239
201.446	20.137	1215.307	929.293
202.461	20.069	1214.537	928.258
203.475	20.060	1213.732	927.515
204.490	19.880	1211.997	925.146
205.504	19.700	1210.689	923.104
206.519	19.741	1209.037	921.981
207.534	19.669	1207.996	920.721
208.548	19.630	1207.449	920.014
209.563	19.609	1206.467	919.075
210.577	19.600	1206.134	918.690
211.592	19.754	1205.029	918.588
212.607	20.004	1203.870	918.951
213.621	19.999	1203.468	918.531
214.636	19.838	1202.796	917.084
215.650	19.798	1201.786	916.021
216.665	20.055	1200.646	916.431
217.680	20.273	1199.908	916.942
218.694	20.271	1199.001	916.155
219.709	20.212	1198.188	915.140
220.723	20.111	1197.702	914.159
221.738	20.098	1196.667	913.215
222.753	20.151	1195.479	912.509
223.767	20.144	1194.752	911.837
224.782	20.084	1194.952	911.593
225.796	20.339	1194.150	912.243
226.811	20.319	1193.208	911.333
227.826	20.102	1192.362	909.470
228.840	20.013	1191.597	908.339
229.855	20.011	1190.974	907.771
230.869	20.077	1189.551	906.953
231.884	19.966	1188.888	905.787
232.899	19.937	1187.847	904.762
233.913	19.689	1187.905	903.429
234.928	19.697	1187.093	902.777
235.942	19.684	1186.114	901.882
236.957	19.771	1185.032	901.433
237.972	19.722	1184.401	900.617
238.986	19.752	1183.922	900.333
240.001	19.824	1182.836	899.801
241.015	19.903	1181.699	899.264
242.030	19.976	1181.181	899.174
243.045	20.107	1180.628	899.353
244.059	20.077	1180.232	898.813
245.074	20.104	1179.295	898.158
246.088	20.137	1178.426	897.590
247.103	20.346	1177.345	897.767
248.117	20.398	1177.068	897.747
249.132	20.553	1176.590	898.102
250.147	20.765	1176.203	898.823
251.161	20.857	1175.543	898.712
252.176	20.874	1174.880	898.217
253.190	20.938	1174.377	898.080
254.205	21.065	1173.706	898.142
255.220	21.065	1173.412	897.837
256.234	20.992	1172.731	896.862
257.249	20.941	1171.960	895.933
258.263	20.888	1171.282	895.060
259.278	20.901	1170.425	894.395
260.293	20.913	1169.902	893.976
261.307	21.189	1169.287	894.844
262.322	21.077	1168.749	893.779
263.336	21.141	1168.045	893.490
264.351	21.159	1167.125	892.797
265.366	21.049	1167.105	892.141
266.380	21.216	1165.686	891.832
267.395	21.016	1165.410	890.519
268.409	20.809	1164.576	888.748
269.424	20.917	1163.337	888.272
270.439	20.933	1163.013	888.027
271.453	20.879	1161.981	886.884
272.468	20.748	1160.983	885.378
273.482	20.725	1160.523	884.832
274.497	20.651	1160.105	884.061
275.512	20.745	1159.226	883.788
276.526	20.754	1158.433	883.151
277.541	20.763	1157.895	882.709
278.555	20.810	1157.173	882.319
279.570	21.076	1156.052	882.733
280.585	21.218	1155.823	883.201
281.599	21.126	1154.958	881.995
282.614	20.984	1153.323	879.951
283.628	20.927	1151.992	878.571
284.643	20.828	1151.726	877.791
285.657	20.873	1150.632	877.106
286.672	20.900	1149.850	876.566
287.687	21.071	1148.594	876.392
288.701	21.011	1148.133	875.661
289.716	21.070	1147.025	875.033
290.730	21.051	1146.573	874.515
291.745	20.945	1146.178	873.609
292.760	21.011	1145.602	873.420
293.774	21.070	1144.915	873.114
294.789	21.268	1144.339	873.588
295.803	21.234	1143.771	872.908
296.818	20.891	1143.322	870.775
297.833	21.062	1141.953	870.507
298.847	21.023	1141.197	869.660
299.862	21.116	1140.314	869.375
300.876	21.103	1139.874	868.898
301.891	21.119	1139.316	868.474
302.906	21.377	1138.840	869.317
303.920	21.470	1138.067	869.112
304.935	21.521	1137.550	868.893
305.949	21.672	1136.436	868.715
306.964	21.514	1136.174	867.653
307.979	21.492	1135.229	866.750
308.993	21.402	1134.913	865.982
310.008	21.496	1133.861	865.569
311.022	21.582	1133.268	865.464
312.037	21.670	1131.905	864.781
313.052	21.333	1131.345	862.615
314.066	21.157	1130.569	861.078
315.081	21.086	1129.364	859.738
316.095	21.138	1128.371	859.158
317.110	21.123	1127.489	858.339
318.125	21.006	1127.355	857.585
319.139	21.095	1126.506	857.300
320.154	21.013	1125.958	856.407
321.168	21.157	1125.237	856.487
322.183	21.171	1124.563	855.966
323.197	21.150	1124.317	855.604
324.212	21.080	1123.608	854.643
325.227	21.244	1122.583	854.590
326.241	21.291	1122.321	854.544
327.256	21.228	1121.396	853.458
328.270	21.145	1120.796	852.520
329.285	21.286	1119.341	852.024
330.300	21.274	1117.992	850.863
331.314	21.117	1117.546	849.686
332.329	21.381	1116.349	849.982
333.343	21.266	1115.849	848.969
334.358	21.347	1114.956	848.609
335.373	21.415	1114.751	848.709
336.387	21.476	1113.885	848.267
337.402	21.546	1113.195	848.008
338.416	21.620	1112.627	847.858
339.431	21.744	1111.667	847.650
340.446	21.693	1111.379	847.112
341.460	21.937	1110.845	847.809
342.475	22.007	1110.108	847.509
343.489	21.915	1109.207	846.300
344.504	22.049	1108.251	846.141
345.519	22.084	1107.468	845.640
346.533	22.180	1106.827	845.536
347.548	22.223	1106.176	845.168
348.562	22.237	1105.097	844.339
349.577	22.019	1104.121	842.471
350.592	21.824	1103.189	840.749
351.606	21.608	1102.586	839.182
352.621	21.492	1101.964	838.080
353.635	21.511	1101.167	837.492
354.650	21.615	1100.251	837.216
355.665	21.622	1099.888	836.902
356.679	21.795	1099.198	837.127
357.694	21.661	1099.062	836.310
358.708	21.793	1098.135	836.160
359.723	21.910	1097.517	836.173
360.738	21.856	1096.931	835.394
361.752	21.911	1095.934	834.821
362.767	21.897	1095.630	834.449
363.781	21.916	1095.283	834.204
364.796	22.059	1094.266	834.032
365.810	22.191	1094.209	834.545
366.825	22.379	1093.436	834.773
367.840	22.455	1093.101	834.802
368.854	22.524	1092.374	834.502
369.869	22.453	1091.944	833.763
370.883	22.314	1090.785	832.144
371.898	22.332	1090.032	831.581
372.913	22.154	1089.466	830.237
373.927	22.254	1089.079	830.342
374.942	22.501	1088.112	830.696
375.956	22.377	1087.753	829.761
376.971	22.271	1087.373	828.899
377.986	22.446	1086.601	829.063
379.000	22.584	1086.183	829.321
380.015	22.497	1085.878	828.605
381.029	22.667	1085.382	828.953
382.044	22.621	1084.437	827.940
383.059	22.621	1083.612	827.235
384.073	22.459	1083.068	825.988
385.088	22.650	1082.123	826.087
386.102	22.557	1080.900	824.648
387.117	22.441	1079.750	823.152
388.132	22.243	1078.491	821.198
389.146	22.225	1077.963	820.641
390.161	22.193	1077.318	819.925
391.175	22.281	1076.296	819.485
392.190	22.491	1075.838	820.044
393.205	22.571	1075.414	820.017
394.219	22.573	1074.558	819.304
395.234	22.448	1073.667	817.971
396.248	22.387	1072.528	816.749
397.263	22.291	1071.048	815.104
398.278	22.198	1070.461	814.152
399.292	22.086	1070.177	813.346
400.307	22.088	1069.355	812.661
401.321	22.023	1068.755	811.830
402.336	22.155	1067.431	811.361
403.350	22.256	1066.933	811.377
404.365	22.233	1066.573	810.927
405.380	22.349	1066.061	810.999
406.394	22.344	1065.608	810.561
407.409	22.531	1064.607	810.586
408.423	22.608	1064.637	810.893
409.438	22.835	1063.615	811.087
410.453	22.905	1062.401	810.411
411.467	22.894	1061.853	809.870
412.482	22.879	1061.794	809.686
413.496	22.917	1061.043	809.216
414.511	22.981	1060.462	808.993
415.526	23.092	1059.954	809.043
416.540	23.358	1059.477	809.824
417.555	23.202	1058.966	808.646
418.569	23.123	1057.988	807.467
419.584	22.989	1057.776	806.621
420.599	22.973	1057.415	806.205
421.613	155.387	1401.150	1792.729
422.628	142.826	1451.208	1792.821
