DTS Sentinel unit serial number:	SN413079Multiplexer serial number:	ORYXHardware model number:	OX4-SRSoftware version number:	ORYX F/W v4.00 Oryx Data Collector v3.7.2.0data status	okinstallation	princeton_trtdifferential loss correction	single-endedforward channel	channel 2reverse channel	N/Adate	2019/09/15time	18:47:35forward acquisition time	60.00reverse acquisition time	0.00gamma	496.2192k internal	0.2289k external	0.2289temperature offset calibration	0.9921default loss term (dB/km)	0.3790temperature slope calibration	1.0000multiplexer offset coefficient	1.0000multiplexer slope coefficient	1.0000fibre end	0.00T internal ref (°C)	43.27T ext. ref 1 (°C)	6.90T ext. ref 2 (°C)	34.70length (m)	temperature (°C)	Stokes	anti-Stokes-747.200	-132.945	-0.228	-0.030
-746.185	299.266	-0.234	0.442
-745.171	-140.898	0.200	-0.021
-744.156	328.684	0.073	0.144
-743.142	646.436	0.084	0.220
-742.127	308.569	-0.133	0.255
-741.112	-84.546	-0.440	0.142
-740.098	800.000	-0.045	-0.150
-739.083	731.472	0.118	0.323
-738.069	301.117	0.128	0.243
-737.054	318.039	0.137	-0.265
-736.039	-56.661	-0.176	0.080
-735.025	-14.817	0.225	0.148
-734.010	183.626	0.138	0.209
-732.996	602.195	-0.084	-0.213
-731.981	739.331	0.025	-0.069
-730.966	-58.589	0.113	0.050
-729.952	44.465	-0.120	-0.113
-728.937	-53.840	-0.094	0.044
-727.923	-131.478	0.112	-0.015
-726.908	151.023	0.139	-0.193
-725.894	121.323	-0.290	-0.370
-724.879	-3.000	-0.266	0.190
-723.864	375.205	-0.046	-0.097
-722.850	-90.086	-0.308	0.092
-721.835	82.320	0.034	-0.038
-720.821	-200.000	-0.003	-0.058
-719.806	-65.101	-0.221	0.091
-718.791	503.442	-0.050	-0.119
-717.777	247.027	-0.093	0.160
-716.762	-80.539	-0.225	-0.077
-715.748	334.940	-0.033	-0.066
-714.733	59.687	-0.170	-0.172
-713.718	-16.437	0.105	0.068
-712.704	129.597	-0.209	-0.274
-711.689	-81.873	0.316	0.106
-710.675	64.949	-0.073	-0.076
-709.660	-88.828	0.439	-0.133
-708.645	57.129	-0.037	-0.037
-707.631	50.070	-0.100	-0.096
-706.616	43.480	0.093	-0.087
-705.602	-61.915	0.083	0.035
-704.587	529.590	-0.091	-0.220
-703.572	-33.583	-0.274	-0.155
-702.558	20.533	0.234	-0.194
-701.543	-46.681	0.167	-0.084
-700.529	-37.004	0.138	-0.076
-699.514	-58.765	-0.315	-0.139
-698.499	-11.959	0.173	0.116
-697.485	-154.911	0.385	-0.026
-696.470	-173.178	-0.160	0.005
-695.456	-25.662	-0.177	-0.107
-694.441	-108.719	-0.171	0.038
-693.426	-70.183	0.354	0.138
-692.412	-38.712	-0.222	0.120
-691.397	-153.710	-0.198	-0.014
-690.383	25.656	-0.216	0.184
-689.368	50.161	-0.319	-0.308
-688.354	-139.174	0.500	0.055
-687.339	-89.831	0.065	0.019
-686.324	-110.201	-0.330	0.070
-685.310	603.107	-0.050	0.127
-684.295	15.794	-0.171	-0.138
-683.281	74.852	0.067	-0.073
-682.266	-163.931	0.399	-0.019
-681.251	208.489	-0.179	-0.286
-680.237	-1.334	0.194	-0.140
-679.222	-200.000	-0.012	-0.217
-678.208	-123.305	0.160	-0.026
-677.193	-200.000	-0.021	-0.180
-676.178	800.000	-0.108	-0.318
-675.164	800.000	0.070	-0.261
-674.149	-74.563	0.154	-0.057
-673.135	225.361	-0.089	0.148
-672.120	-200.000	-0.033	-0.169
-671.105	800.000	0.038	-0.143
-670.091	-145.622	-0.292	-0.027
-669.076	352.732	-0.142	-0.288
-668.062	66.499	-0.120	0.124
-667.047	196.131	-0.236	-0.367
-666.032	-200.000	-0.049	0.237
-665.018	-83.759	0.076	-0.025
-664.003	-56.639	-0.100	0.045
-662.989	800.000	-0.066	0.287
-661.974	-188.859	-0.178	0.002
-660.959	1.815	-0.198	0.146
-659.945	-47.563	-0.207	0.103
-658.930	20.284	0.049	0.041
-657.916	75.778	-0.107	-0.116
-656.901	-200.000	0.015	0.114
-655.886	-200.000	-0.059	-0.303
-654.872	141.054	-0.154	-0.208
-653.857	51.177	0.146	0.142
-652.843	-131.092	-0.082	-0.011
-651.828	800.000	-0.065	0.244
-650.814	14.898	-0.334	-0.267
-649.799	386.174	-0.082	-0.174
-648.784	13.926	-0.273	0.217
-647.770	17.360	-0.247	-0.200
-646.755	800.000	0.038	0.126
-645.741	201.447	0.024	-0.037
-644.726	67.921	0.228	0.238
-643.711	-46.361	0.220	-0.111
-642.697	-53.822	-0.127	-0.059
-641.682	-4.808	-0.089	-0.063
-640.668	30.802	-0.168	0.147
-639.653	-200.000	-0.012	0.064
-638.638	-116.758	0.131	0.024
-637.624	270.280	-0.111	-0.200
-636.609	-88.037	0.058	-0.018
-635.595	-138.959	0.174	-0.019
-634.580	95.756	0.009	-0.010
-633.565	-124.588	0.298	0.047
-632.551	720.290	0.070	0.189
-631.536	-74.937	-0.400	0.146
-630.522	286.902	0.061	-0.112
-629.507	243.075	0.112	-0.191
-628.492	800.000	-0.067	-0.272
-627.478	-40.421	-0.074	0.039
-626.463	1.419	-0.053	-0.039
-625.449	-80.059	-0.146	0.050
-624.434	800.000	0.118	0.418
-623.419	141.889	0.136	0.184
-622.405	42.703	-0.160	-0.149
-621.390	-100.650	-0.149	-0.037
-620.376	30.583	-0.234	-0.204
-619.361	-130.980	-0.230	0.031
-618.346	-2.673	0.270	-0.192
-617.332	5.284	0.253	0.191
-616.317	-200.000	-0.044	-0.446
-615.303	-164.603	0.100	-0.005
-614.288	64.407	0.152	0.156
-613.273	110.106	0.165	-0.202
-612.259	-200.000	-0.015	-0.329
-611.244	800.000	-0.054	-0.241
-610.230	-66.282	-0.242	-0.098
-609.215	-43.442	0.171	-0.088
-608.201	-18.450	-0.324	0.206
-607.186	-200.000	-0.027	-0.291
-606.171	223.061	0.211	-0.346
-605.157	732.507	-0.027	-0.073
-604.142	15.435	0.175	-0.140
-603.128	-33.258	-0.107	-0.060
-602.113	132.954	0.188	-0.247
-601.098	345.023	0.132	0.265
-600.084	-41.592	0.180	-0.094
-599.069	-200.000	0.017	0.183
-598.055	660.179	-0.159	0.417
-597.040	136.469	0.071	-0.094
-596.025	-115.110	0.068	-0.013
-595.011	-85.610	-0.251	-0.079
-593.996	-200.000	0.060	-0.296
-592.982	7.968	0.095	-0.073
-591.967	-47.574	-0.137	0.068
-590.952	-61.203	-0.333	-0.143
-589.938	5.621	-0.132	0.099
-588.923	-7.040	-0.314	-0.217
-587.909	-59.710	-0.288	0.126
-586.894	-4.494	-0.030	0.021
-585.879	329.317	-0.171	-0.334
-584.865	-162.574	0.302	-0.015
-583.850	-152.209	0.278	0.020
-582.836	-36.622	-0.201	-0.110
-581.821	677.365	-0.009	-0.025
-580.806	154.187	-0.143	0.200
-579.792	-102.600	0.264	-0.064
-578.777	-200.000	-0.060	0.294
-577.763	198.619	0.073	0.114
-576.748	-141.276	0.194	-0.020
-575.733	-94.031	-0.220	-0.062
-574.719	17.166	0.186	-0.150
-573.704	-75.121	-0.320	-0.117
-572.690	345.110	0.128	-0.256
-571.675	37.365	0.170	0.154
-570.661	-45.639	-0.317	-0.160
-569.646	-200.000	-0.010	-0.144
-568.631	338.706	-0.068	0.136
-567.617	-42.129	0.050	0.026
-566.602	-76.585	0.064	-0.023
-565.588	-200.000	0.036	0.233
-564.573	-47.652	0.099	-0.049
-563.558	56.095	-0.107	0.106
-562.544	374.582	-0.112	-0.233
-561.529	-200.000	0.002	-0.218
-560.515	-192.748	0.237	0.002
-559.500	492.502	0.089	-0.207
-558.485	155.707	0.059	0.082
-557.471	48.403	0.186	-0.177
-556.456	35.257	-0.247	-0.220
-555.442	-137.075	0.145	-0.017
-554.427	800.000	0.072	-0.303
-553.412	19.276	-0.435	-0.355
-552.398	-200.000	0.043	0.344
-551.383	129.610	0.446	0.580
-550.369	-15.136	-0.092	0.060
-549.354	-159.615	0.237	0.013
-548.339	13.684	0.169	0.133
-547.325	15.705	-0.090	0.072
-546.310	324.330	-0.067	0.131
-545.296	-200.000	-0.025	0.151
-544.281	178.467	-0.112	-0.166
-543.266	12.169	-0.210	-0.165
-542.252	99.396	-0.114	0.134
-541.237	60.610	-0.065	0.066
-540.223	-148.605	-0.170	0.014
-539.208	-37.125	-0.456	-0.248
-538.193	-64.610	-0.155	-0.064
-537.179	117.528	0.059	0.074
-536.164	-200.000	0.008	-0.040
-535.150	-2.317	-0.138	0.099
-534.135	88.382	0.133	0.150
-533.121	800.000	-0.035	-0.151
-532.106	-200.000	0.013	-0.215
-531.091	-136.131	0.178	0.021
-530.077	43.204	0.157	-0.146
-529.062	-185.612	0.386	-0.006
-528.048	19.134	-0.198	-0.161
-527.033	-51.064	-0.303	-0.144
-526.018	30.736	-0.094	-0.082
-525.004	-200.000	0.028	-0.371
-523.989	-139.893	0.170	-0.018
-522.975	-0.850	-0.099	0.072
-521.960	791.033	-0.010	-0.027
-520.945	800.000	0.068	-0.226
-519.931	-132.900	0.053	-0.007
-518.916	59.865	0.130	-0.131
-517.902	-9.716	-0.050	-0.034
-516.887	768.782	-0.155	-0.428
-515.872	424.387	-0.142	-0.310
-514.858	319.272	-0.152	-0.292
-513.843	800.000	-0.030	0.088
-512.829	-200.000	-0.029	0.186
-511.814	34.222	0.033	0.029
-510.799	-57.459	-0.152	0.068
-509.785	-200.000	0.007	-0.213
-508.770	80.227	0.219	-0.239
-507.756	800.000	-0.048	-0.134
-506.741	-139.856	0.233	0.025
-505.726	-39.389	-0.213	-0.114
-504.712	-161.462	-0.227	-0.012
-503.697	-110.353	-0.074	0.016
-502.683	-37.926	-0.338	0.182
-501.668	-200.000	-0.094	0.434
-500.653	-169.614	-0.149	0.005
-499.639	160.937	0.104	0.147
-498.624	273.026	0.214	0.383
-497.610	-114.134	-0.120	-0.023
-496.595	-200.000	-0.026	-0.175
-495.581	-110.888	0.180	0.038
-494.566	-200.000	0.003	0.310
-493.551	-100.106	0.069	0.017
-492.537	-55.373	0.249	-0.113
-491.522	-200.000	-0.008	0.142
-490.508	44.127	-0.070	-0.065
-489.493	48.948	0.158	0.151
-488.478	355.991	-0.047	0.094
-487.464	-175.662	-0.423	-0.012
-486.449	234.176	-0.283	-0.473
-485.435	167.067	-0.205	-0.295
-484.420	369.797	-0.053	0.108
-483.405	-82.187	-0.073	0.024
-482.391	-185.869	-0.089	0.001
-481.376	800.000	-0.078	0.226
-480.362	-200.000	0.015	0.172
-479.347	-97.333	0.166	-0.044
-478.332	-200.000	0.051	-0.228
-477.318	65.107	0.236	-0.242
-476.303	-105.448	-0.319	0.074
-475.289	-62.322	0.151	0.064
-474.274	329.035	-0.066	-0.129
-473.259	-15.045	-0.201	0.130
-472.245	436.413	-0.085	-0.188
-471.230	19.813	-0.135	0.110
-470.216	-7.137	-0.108	0.074
-469.201	-75.960	0.248	0.089
-468.186	112.557	-0.078	-0.096
-467.172	-200.000	-0.063	0.303
-466.157	-48.246	0.266	0.130
-465.143	-126.682	-0.107	-0.016
-464.128	-53.248	0.071	-0.033
-463.113	100.230	0.089	0.105
-462.099	-18.653	-0.278	-0.176
-461.084	800.000	0.137	-0.413
-460.070	-15.876	0.155	-0.100
-459.055	102.518	0.030	-0.036
-458.040	-119.523	0.245	0.043
-457.026	-143.663	0.412	0.040
-456.011	-200.000	-0.043	0.320
-454.997	-200.000	-0.036	-0.272
-453.982	523.658	0.053	-0.127
-452.968	128.918	0.032	-0.041
-451.953	-200.000	-0.006	-0.143
-450.938	-200.000	0.062	-0.279
-449.924	41.199	0.231	-0.212
-448.909	-168.912	0.192	-0.007
-447.895	-174.345	0.192	-0.006
-446.880	684.327	0.125	-0.329
-445.865	225.149	0.044	-0.073
-444.851	-200.000	0.047	0.225
-443.836	800.000	-0.023	0.088
-442.822	3.430	-0.161	0.119
-441.807	-200.000	0.022	0.231
-440.792	-67.575	-0.238	-0.095
-439.778	-4.065	-0.124	-0.087
-438.763	-59.882	-0.395	0.171
-437.749	-175.792	0.175	-0.005
-436.734	-36.252	-0.403	0.220
-435.719	100.831	0.153	0.180
-434.705	-79.275	-0.222	0.076
-433.690	96.058	0.112	-0.130
-432.676	-42.527	-0.136	0.070
-431.661	-200.000	-0.052	0.442
-430.646	-66.566	-0.101	-0.040
-429.632	70.805	0.153	-0.161
-428.617	130.361	-0.069	0.089
-427.603	-200.000	0.000	0.184
-426.588	22.924	0.145	0.121
-425.573	11.746	0.165	0.128
-424.559	-28.396	0.335	-0.195
-423.544	-103.886	-0.216	-0.051
-422.530	670.720	0.026	-0.069
-421.515	800.000	-0.075	-0.276
-420.500	204.431	-0.083	0.130
-419.486	800.000	0.129	0.461
-418.471	42.943	0.089	0.082
-417.457	-79.942	-0.293	-0.100
-416.442	-200.000	0.060	0.376
-415.428	-113.468	0.165	0.033
-414.413	374.852	-0.111	0.228
-413.398	97.623	0.241	-0.281
-412.384	800.000	-0.017	-0.069
-411.369	514.121	-0.094	-0.223
-410.355	800.000	-0.042	0.130
-409.340	44.501	-0.073	-0.068
-408.325	163.042	0.147	-0.209
-407.311	448.435	-0.156	0.348
-406.296	-10.435	-0.098	-0.066
-405.282	131.431	-0.250	-0.326
-404.267	81.255	0.174	-0.190
-403.252	126.109	0.052	-0.066
-402.238	-158.487	-0.068	0.004
-401.223	1.490	-0.074	0.054
-400.209	-200.000	-0.035	0.156
-399.194	1.386	-0.078	-0.057
-398.179	129.738	-0.044	-0.057
-397.165	65.225	-0.195	0.200
-396.150	-89.982	-0.259	0.077
-395.136	-60.569	-0.068	0.029
-394.121	-200.000	-0.004	-0.160
-393.106	1.077	0.276	-0.200
-392.092	1.092	-0.178	0.129
-391.077	-200.000	-0.032	-0.251
-390.063	-11.184	-0.457	0.304
-389.048	800.000	-0.160	0.486
-388.033	0.237	-0.129	0.093
-387.019	-126.839	-0.136	-0.020
-386.004	319.152	-0.085	-0.163
-384.990	-77.803	0.286	-0.100
-383.975	172.784	0.124	-0.181
-382.960	-32.822	-0.123	-0.069
-381.946	800.000	0.058	-0.175
-380.931	-200.000	0.006	-0.031
-379.917	-108.599	-0.421	-0.091
-378.902	-59.579	-0.391	-0.169
-377.888	-200.000	0.002	0.089
-376.873	-200.000	-0.057	-0.505
-375.858	-200.000	0.003	-0.029
-374.844	168.219	0.222	-0.320
-373.829	800.000	-0.073	0.218
-372.815	-30.985	-0.279	0.159
-371.800	-200.000	0.009	0.052
-370.785	800.000	-0.067	0.190
-369.771	402.499	-0.071	-0.151
-368.756	12.158	-0.226	0.176
-367.742	-77.717	0.059	0.021
-366.727	-150.548	0.261	0.020
-365.712	-200.000	-0.031	0.155
-364.698	291.269	-0.153	0.282
-363.683	-95.492	-0.268	0.073
-362.669	188.650	-0.095	0.143
-361.654	753.207	-0.074	-0.202
-360.639	-200.000	0.012	0.126
-359.625	102.376	0.127	-0.149
-358.610	304.285	-0.212	0.398
-357.596	-47.403	0.420	0.206
-356.581	-135.876	-0.117	0.014
-355.566	-109.312	-0.116	0.025
-354.552	-77.365	0.249	-0.087
-353.537	313.353	0.116	0.220
-352.523	-44.534	-0.081	-0.041
-351.508	48.464	0.327	0.309
-350.493	800.000	0.079	0.240
-349.479	-148.724	0.315	0.026
-348.464	-200.000	0.002	0.285
-347.450	-83.887	-0.350	0.112
-346.435	-200.000	0.055	0.422
-345.420	-162.170	-0.284	0.014
-344.406	119.868	-0.078	-0.097
-343.391	282.632	-0.291	-0.527
-342.377	8.631	0.084	-0.064
-341.362	225.657	-0.045	0.074
-340.348	392.808	0.004	-0.008
-339.333	-200.000	0.009	0.383
-338.318	-1.731	0.114	0.081
-337.304	-108.727	0.103	0.022
-336.289	-21.416	-0.159	0.098
-335.275	16.403	0.043	0.035
-334.260	-86.935	0.136	-0.042
-333.245	-132.603	0.111	-0.014
-332.231	-44.464	0.413	-0.208
-331.216	-121.090	0.482	0.081
-330.202	-88.623	0.072	0.022
-329.187	-93.186	-0.356	-0.100
-328.172	36.762	0.195	0.174
-327.158	349.053	0.056	-0.112
-326.143	-162.014	-0.207	-0.011
-325.129	195.058	0.165	0.252
-324.114	-9.596	0.240	0.161
-323.099	338.399	0.126	0.247
-322.085	-118.634	0.155	0.028
-321.070	-200.000	-0.014	0.064
-320.056	-102.138	-0.171	-0.042
-319.041	-94.563	0.122	-0.033
-318.026	82.243	-0.051	-0.056
-317.012	-200.000	0.017	-0.081
-315.997	-20.397	0.046	-0.029
-314.983	-51.954	0.246	-0.115
-313.968	291.364	-0.121	0.221
-312.953	196.526	-0.128	-0.196
-311.939	800.000	0.041	-0.160
-310.924	-153.196	-0.252	0.018
-309.910	-13.897	-0.047	-0.031
-308.895	-66.144	0.080	0.032
-307.880	-200.000	0.032	-0.299
-306.866	-200.000	0.016	-0.122
-305.851	-200.000	0.018	0.149
-304.837	-41.305	0.198	0.103
-303.822	89.327	-0.184	-0.206
-302.807	22.833	0.246	0.203
-301.793	454.263	0.122	-0.273
-300.778	-200.000	0.064	0.310
-299.764	-130.874	0.184	0.025
-298.749	800.000	-0.058	0.196
-297.735	6.518	-0.340	0.254
-296.720	-165.471	-0.230	-0.010
-295.705	-200.000	0.029	-0.308
-294.691	800.000	0.064	-0.248
-293.676	-95.973	-0.311	-0.083
-292.662	-143.967	0.210	0.020
-291.647	800.000	0.035	0.098
-290.632	147.357	-0.188	0.254
-289.618	-200.000	0.004	0.274
-288.603	-27.192	-0.065	-0.038
-287.589	-141.422	-0.095	0.010
-286.574	-161.247	0.428	0.022
-285.559	304.088	0.084	0.157
-284.545	294.677	0.109	0.201
-283.530	-102.791	-0.182	-0.044
-282.516	800.000	-0.061	0.244
-281.501	-69.915	-0.243	-0.093
-280.486	800.000	0.077	-0.309
-279.472	-31.185	-0.013	-0.008
-278.457	-3.106	0.128	0.090
-277.443	800.000	0.122	0.358
-276.428	-154.231	-0.265	-0.018
-275.413	659.200	-0.065	-0.167
-274.399	-200.000	-0.012	0.109
-273.384	-32.717	-0.300	0.168
-272.370	800.000	-0.058	-0.180
-271.355	-84.435	-0.154	-0.049
-270.340	-27.992	-0.154	-0.089
-269.326	-82.042	-0.296	0.097
-268.311	245.005	-0.076	-0.129
-267.297	51.442	0.024	-0.023
-266.282	-200.000	-0.015	-0.183
-265.267	-200.000	0.021	-0.322
-264.253	-52.069	0.148	0.069
-263.238	-122.211	0.101	-0.017
-262.224	-13.398	0.066	0.043
-261.209	108.894	-0.396	0.476
-260.195	-200.000	0.038	0.435
-259.180	2.788	0.266	0.194
-258.165	-79.251	0.111	-0.038
-257.151	800.000	0.018	-0.063
-256.136	34.074	0.229	0.201
-255.122	52.474	0.370	0.355
-254.107	-4.138	-0.177	0.123
-253.092	-109.567	0.031	-0.007
-252.078	70.050	0.176	-0.183
-251.063	-159.920	0.307	-0.017
-250.049	172.035	-0.126	-0.182
-249.034	498.524	-0.068	0.157
-248.019	188.681	0.247	0.372
-247.005	-107.041	-0.124	-0.027
-245.990	-52.533	-0.061	-0.029
-244.976	429.014	0.069	0.151
-243.961	207.182	0.045	0.070
-242.946	21.715	0.145	0.118
-241.932	800.000	-0.045	-0.182
-240.917	67.857	0.160	-0.165
-239.903	158.145	0.182	-0.254
-238.888	288.060	-0.071	-0.129
-237.873	19.840	0.217	-0.175
-236.859	-23.496	0.172	0.104
-235.844	-88.538	-0.152	-0.046
-234.830	800.000	0.017	0.073
-233.815	-11.991	-0.211	0.139
-232.800	-200.000	0.029	0.237
-231.786	66.228	-0.150	0.153
-230.771	435.988	-0.161	0.353
-229.757	-85.234	-0.257	0.081
-228.742	28.706	-0.165	-0.140
-227.727	-200.000	0.040	0.229
-226.713	207.984	-0.152	0.239
-225.698	87.827	0.125	0.139
-224.684	23.352	0.108	0.089
-223.669	608.845	0.039	0.097
-222.655	161.916	-0.196	0.276
-221.640	11.605	0.191	0.147
-220.625	-200.000	0.012	0.106
-219.611	800.000	0.086	-0.243
-218.596	231.291	-0.197	-0.324
-217.582	248.664	0.087	0.149
-216.567	800.000	-0.080	0.329
-215.552	-153.483	0.155	0.011
-214.538	42.969	0.256	-0.235
-213.523	-49.398	0.170	0.082
-212.509	-200.000	0.002	-0.090
-211.494	800.000	0.045	0.124
-210.479	125.074	-0.019	-0.024
-209.465	48.007	-0.152	-0.142
-208.450	-116.910	0.288	0.053
-207.436	102.780	-0.341	0.400
-206.421	800.000	-0.051	-0.219
-205.406	-173.136	0.116	-0.004
-204.392	603.543	0.081	0.203
-203.377	131.804	-0.117	-0.151
-202.363	800.000	-0.070	0.216
-201.348	-200.000	-0.003	0.317
-200.333	-66.715	0.362	-0.144
-199.319	800.000	-0.048	-0.208
-198.304	19.112	0.124	-0.100
-197.290	-22.425	-0.106	0.065
-196.275	-200.000	0.037	-0.235
-195.260	-152.357	0.360	-0.026
-194.246	133.939	0.113	0.147
-193.231	-200.000	0.031	0.139
-192.217	144.695	0.044	-0.058
-191.202	385.891	0.047	0.097
-190.187	9.487	-0.157	-0.119
-189.173	-200.000	-0.002	0.283
-188.158	-200.000	0.037	-0.198
-187.144	-183.507	0.189	-0.003
-186.129	-46.625	0.098	-0.048
-185.114	-200.000	-0.005	0.030
-184.100	-200.000	0.009	0.129
-183.085	194.416	-0.159	0.241
-182.071	800.000	0.061	0.262
-181.056	-200.000	-0.010	-0.274
-180.042	800.000	-0.062	0.180
-179.027	272.966	0.163	-0.289
-178.012	-54.162	0.296	0.135
-176.998	-5.696	0.211	-0.145
-175.983	800.000	0.104	-0.387
-174.969	800.000	0.069	-0.250
-173.954	304.834	0.166	-0.309
-172.939	108.321	-0.151	0.181
-171.925	72.436	0.282	0.294
-170.910	-77.324	0.440	0.153
-169.896	2.377	0.187	0.135
-168.881	670.626	0.142	-0.368
-167.866	123.364	0.339	-0.426
-166.852	-200.000	-0.035	-0.377
-165.837	-200.000	0.069	0.486
-164.823	-57.097	0.402	0.178
-163.808	-160.291	0.173	-0.009
-162.793	-200.000	-0.028	-0.140
-161.779	322.936	0.164	-0.314
-160.764	-200.000	-0.020	0.156
-159.750	666.836	0.034	-0.088
-158.735	230.851	-0.115	-0.188
-157.720	800.000	-0.060	0.243
-156.706	662.493	0.109	-0.282
-155.691	800.000	-0.056	0.172
-154.677	227.077	-0.129	-0.210
-153.662	-200.000	-0.033	-0.346
-152.647	-200.000	-0.020	-0.178
-151.633	-192.748	-0.292	0.003
-150.618	58.107	0.207	0.203
-149.604	-199.305	-0.223	-0.001
-148.589	-129.423	0.358	0.050
-147.574	42.663	-0.255	-0.232
-146.560	-200.000	-0.040	-0.310
-145.545	-152.872	-0.245	0.017
-144.531	132.125	0.063	-0.082
-143.516	-50.727	0.008	-0.004
-142.502	113.171	0.124	0.150
-141.487	-12.600	0.132	0.086
-140.472	-114.128	0.454	0.088
-139.458	-200.000	-0.029	-0.230
-138.443	133.317	0.095	-0.123
-137.429	-200.000	-0.037	0.235
-136.414	43.411	0.084	0.077
-135.399	-69.451	0.170	0.065
-134.385	-200.000	-0.046	0.421
-133.370	431.272	-0.062	0.135
-132.356	-200.000	0.001	0.104
-131.341	800.000	-0.066	-0.261
-130.326	439.884	-0.093	0.204
-129.312	-1.769	-0.206	0.145
-128.297	315.502	0.027	-0.051
-127.283	-171.791	0.168	0.005
-126.268	485.987	-0.108	0.246
-125.253	-64.019	0.215	-0.088
-124.239	-200.000	-0.006	-0.032
-123.224	-17.041	-0.175	0.110
-122.210	-200.000	-0.001	0.415
-121.195	-95.266	-0.204	0.055
-120.180	646.127	-0.089	0.226
-119.166	102.324	0.108	-0.126
-118.151	800.000	-0.036	0.107
-117.137	-200.000	0.060	-0.353
-116.122	-149.574	-0.049	-0.004
-115.107	47.141	-0.224	0.209
-114.093	-174.750	0.230	0.007
-113.078	-5.430	-0.108	-0.074
-112.064	-78.288	-0.258	-0.088
-111.049	-36.541	-0.116	0.062
-110.034	-139.286	-0.403	0.043
-109.020	309.509	0.152	0.285
-108.005	-200.000	0.005	0.106
-106.991	-175.451	-0.136	-0.004
-105.976	-88.839	0.068	0.020
-104.962	800.000	0.038	-0.133
-103.947	247.459	0.137	-0.231
-102.932	800.000	0.091	0.314
-101.918	-157.030	-0.180	-0.011
-100.903	-51.407	-0.020	0.009
-99.889	276.492	-0.103	-0.183
-98.874	-200.000	-0.073	0.404
-97.859	573.658	0.166	0.406
-96.845	-68.467	-0.065	-0.025
-95.830	-14.818	0.276	0.177
-94.816	-200.000	-0.029	-0.351
-93.801	17.338	-0.143	-0.114
-92.786	99.227	0.113	0.130
-91.772	50.208	-0.160	0.151
-90.757	-47.644	0.290	-0.140
-89.743	-11.248	0.155	-0.102
-88.728	-200.000	0.019	0.557
-87.713	-25.052	-0.248	0.147
-86.699	15.237	0.147	-0.115
-85.684	-80.185	0.054	0.018
-84.670	800.000	-0.079	0.235
-83.655	202.872	0.221	0.342
-82.640	-42.588	0.230	-0.117
-81.626	223.621	-0.118	-0.190
-80.611	-39.623	0.098	0.051
-79.597	1.287	0.297	-0.213
-78.582	191.366	-0.119	-0.179
-77.567	-124.830	0.054	0.008
-76.553	-200.000	-0.002	-0.057
-75.538	-163.150	-0.173	0.008
-74.524	784.900	-0.081	0.223
-73.509	-200.000	-0.013	0.085
-72.494	-114.863	-0.237	0.045
-71.480	-107.535	0.190	-0.042
-70.465	99.269	0.129	0.149
-69.451	68.609	0.182	0.187
-68.436	-28.876	0.243	-0.139
-67.422	-200.000	-0.001	-0.147
-66.407	9.836	-0.151	0.115
-65.392	-58.984	-0.209	0.090
-64.378	29.392	-0.043	-0.036
-63.363	800.000	0.032	0.117
-62.349	51.274	0.158	-0.150
-61.334	-3.179	-0.862	-0.600
-60.319	-167.209	0.507	0.020
-59.305	-200.000	0.054	-0.900
-58.290	259.027	0.401	0.690
-57.276	655.753	0.613	1.571
-56.261	-200.000	76.154	563.058
-55.246	565.525	1314.906	3180.902
-54.232	144.806	2530.232	3373.969
-53.217	115.354	2342.554	2854.728
-52.203	53.203	1960.640	1873.339
-51.188	46.795	1752.429	1624.115
-50.173	43.778	1707.171	1558.920
-49.159	58.517	1741.369	1704.659
-48.144	64.948	1759.116	1771.672
-47.130	46.759	1722.989	1596.296
-46.115	43.320	1709.387	1557.161
-45.100	43.090	1705.120	1551.441
-44.086	43.145	1702.283	1549.221
-43.071	43.122	1699.889	1546.803
-42.057	43.110	1697.562	1544.540
-41.042	43.049	1695.227	1541.882
-40.027	43.127	1693.508	1540.859
-39.013	43.114	1691.577	1538.941
-37.998	43.039	1689.672	1536.574
-36.984	43.164	1688.469	1536.371
-35.969	43.265	1686.812	1535.567
-34.954	43.284	1685.201	1534.187
-33.940	43.283	1682.868	1531.997
-32.925	43.247	1681.057	1530.012
-31.911	43.282	1679.202	1528.529
-30.896	43.311	1677.874	1527.476
-29.881	43.184	1676.156	1524.891
-28.867	43.282	1674.321	1523.905
-27.852	43.239	1672.800	1522.135
-26.838	43.276	1670.960	1520.681
-25.823	43.289	1670.061	1519.899
-24.809	43.309	1668.286	1518.369
-23.794	43.225	1667.358	1516.832
-22.779	43.270	1665.215	1515.164
-21.765	43.286	1663.970	1514.092
-20.750	43.276	1662.179	1512.324
-19.736	43.343	1660.568	1511.303
-18.721	43.379	1659.254	1510.315
-17.706	43.284	1657.685	1508.117
-16.692	43.348	1655.538	1506.585
-15.677	43.349	1654.852	1505.908
-14.663	43.349	1653.339	1504.469
-13.648	43.328	1651.953	1502.988
-12.633	43.253	1650.491	1501.045
-11.619	43.261	1648.704	1499.415
-10.604	43.240	1647.386	1498.003
-9.590	43.237	1646.405	1497.029
-8.575	43.319	1644.790	1496.107
-7.560	43.346	1643.320	1494.911
-6.546	43.317	1641.800	1493.257
-5.531	43.322	1640.870	1492.391
-4.517	43.291	1639.475	1490.829
-3.502	43.233	1639.045	1489.951
-2.487	43.285	1637.125	1488.533
-1.473	42.774	1624.893	1473.609
-0.458	38.897	1600.196	1423.111
0.556	30.310	1594.827	1368.770
1.571	26.272	1615.969	1356.545
2.586	24.629	1628.080	1354.146
3.600	21.645	1576.689	1289.355
4.615	14.801	1468.061	1153.336
5.629	8.337	1401.470	1058.208
6.644	7.019	1391.602	1041.992
7.659	6.928	1389.703	1039.876
8.673	6.878	1388.880	1038.837
9.688	6.765	1387.287	1036.817
10.702	6.511	1384.172	1032.734
11.717	9.177	1388.802	1053.600
12.731	14.831	1399.509	1098.901
13.746	17.710	1403.371	1120.788
14.761	16.987	1400.944	1114.009
15.775	15.882	1398.401	1104.640
16.790	14.825	1395.363	1095.217
17.804	14.056	1392.876	1088.139
18.819	13.501	1391.665	1083.463
19.834	13.189	1390.054	1080.075
20.848	12.947	1388.907	1077.507
21.863	12.724	1387.682	1075.006
22.877	12.560	1386.278	1072.754
23.892	12.506	1385.450	1071.672
24.907	12.542	1384.532	1071.097
25.921	12.635	1383.438	1070.763
26.936	12.530	1383.053	1069.689
27.950	12.641	1381.703	1069.270
28.965	12.709	1380.535	1068.709
29.980	12.721	1379.265	1067.714
30.994	12.869	1378.038	1067.625
32.009	12.904	1377.237	1067.138
33.023	12.886	1375.680	1065.719
34.038	12.780	1374.660	1064.152
35.053	12.736	1372.854	1062.377
36.067	12.840	1371.904	1062.218
37.082	12.808	1370.487	1060.822
38.096	12.760	1369.823	1059.900
39.111	12.820	1368.900	1059.479
40.126	12.731	1368.528	1058.527
41.140	12.607	1367.391	1056.757
42.155	12.442	1367.455	1055.656
43.169	12.466	1366.847	1055.242
44.184	12.472	1366.767	1055.127
45.199	12.493	1366.362	1054.858
46.213	12.587	1365.741	1054.885
47.228	12.639	1364.750	1054.364
48.242	12.737	1363.563	1053.976
49.257	12.682	1362.021	1052.340
50.271	12.649	1360.176	1050.612
51.286	12.755	1358.981	1050.269
52.301	12.689	1357.733	1048.796
53.315	12.629	1356.601	1047.446
54.330	12.675	1355.437	1046.743
55.344	12.520	1354.738	1045.128
56.359	12.529	1353.980	1044.511
57.374	12.509	1352.963	1043.505
58.388	12.436	1352.166	1042.331
59.403	12.475	1351.462	1041.948
60.417	12.490	1350.765	1041.414
61.432	12.496	1349.614	1040.468
62.447	12.418	1348.924	1039.351
63.461	12.427	1347.640	1038.328
64.476	12.290	1346.753	1036.691
65.490	12.381	1345.961	1036.560
66.505	12.316	1344.173	1034.685
67.520	12.481	1342.512	1034.349
68.534	12.519	1341.426	1033.663
69.549	12.483	1340.394	1032.547
70.563	12.396	1339.408	1031.152
71.578	12.354	1338.275	1029.926
72.593	12.278	1337.346	1028.644
73.607	12.316	1336.513	1028.152
74.622	12.372	1335.757	1027.826
75.636	12.239	1335.235	1026.505
76.651	12.211	1334.956	1026.022
77.666	12.332	1333.889	1025.866
78.680	12.379	1333.398	1025.694
79.695	12.382	1332.570	1024.981
80.709	12.435	1331.680	1024.538
81.724	12.563	1330.374	1024.241
82.739	12.470	1330.079	1023.344
83.753	12.501	1329.439	1022.957
84.768	12.696	1328.007	1022.971
85.782	12.698	1326.888	1022.031
86.797	12.698	1325.900	1021.181
87.812	12.518	1324.732	1019.079
88.826	12.667	1323.258	1018.773
89.841	12.677	1322.417	1018.097
90.855	12.733	1321.621	1017.743
91.870	12.671	1321.002	1016.793
92.884	12.724	1320.028	1016.279
93.899	12.737	1319.307	1015.716
94.914	12.823	1318.228	1015.323
95.928	12.749	1317.306	1014.068
96.943	12.835	1316.446	1013.845
97.957	12.820	1315.434	1012.886
98.972	12.729	1314.517	1011.528
99.987	12.701	1313.804	1010.721
101.001	12.639	1312.658	1009.369
102.016	12.731	1311.373	1008.854
103.030	12.759	1310.322	1008.128
104.045	12.732	1309.679	1007.381
105.060	12.754	1308.074	1006.192
106.074	12.683	1306.712	1004.621
107.089	12.484	1305.531	1002.408
108.103	12.526	1303.868	1001.301
109.118	12.500	1302.492	999.995
110.133	12.420	1301.512	998.672
111.147	12.443	1300.295	997.788
112.162	12.450	1298.615	996.454
113.176	12.596	1297.721	996.562
114.191	12.530	1296.659	995.258
115.206	12.549	1295.559	994.443
116.220	12.547	1294.048	993.185
117.235	12.569	1293.091	992.493
118.249	12.538	1292.012	991.392
119.264	12.482	1290.970	990.168
120.279	12.408	1290.201	989.045
121.293	12.456	1288.956	988.287
122.308	12.426	1288.147	987.400
123.322	12.470	1287.045	986.732
124.337	12.500	1285.839	985.901
125.352	12.480	1284.694	984.818
126.366	12.440	1283.515	983.587
127.381	12.475	1282.475	982.910
128.395	12.380	1281.820	981.754
129.410	12.514	1280.727	981.631
130.424	12.538	1279.628	980.844
131.439	12.646	1278.663	980.662
132.454	12.556	1277.809	979.385
133.468	12.542	1277.111	978.678
134.483	12.567	1276.866	978.554
135.497	12.652	1275.377	977.829
136.512	12.733	1273.707	976.947
137.527	12.710	1272.327	975.661
138.541	12.717	1271.020	974.618
139.556	12.636	1270.050	973.309
140.570	12.767	1268.696	972.960
141.585	12.809	1267.688	972.346
142.600	12.731	1266.386	970.801
143.614	12.851	1265.120	970.454
144.629	12.885	1264.382	970.000
145.643	12.828	1263.053	968.558
146.658	12.736	1261.829	966.992
147.673	12.732	1259.930	965.430
148.687	12.644	1259.070	964.170
149.702	12.699	1257.605	963.283
150.716	12.693	1256.065	961.985
151.731	12.595	1255.413	960.831
152.746	12.653	1253.657	959.737
153.760	12.729	1252.855	959.483
154.775	12.738	1251.520	958.426
155.789	12.749	1250.621	957.720
156.804	12.797	1249.240	956.857
157.819	12.814	1248.402	956.225
158.833	12.791	1247.694	955.466
159.848	12.820	1246.938	954.970
160.862	12.878	1245.838	954.379
161.877	12.816	1244.573	952.965
162.892	12.613	1243.493	950.881
163.906	12.743	1242.166	950.534
164.921	12.672	1241.491	949.523
165.935	12.701	1240.594	948.924
166.950	12.805	1239.869	948.884
167.964	12.799	1239.381	948.393
168.979	12.838	1238.626	947.950
169.994	12.830	1237.721	947.130
171.008	12.812	1237.159	946.511
172.023	12.869	1236.055	945.914
173.037	12.989	1235.258	945.906
174.052	12.965	1234.273	944.930
175.067	12.912	1233.249	943.761
176.081	12.826	1232.344	942.490
177.096	12.873	1231.493	942.028
178.110	12.972	1230.387	941.660
179.125	12.925	1229.033	940.277
180.140	12.966	1227.824	939.503
181.154	12.915	1226.712	938.278
182.169	12.873	1225.741	937.211
183.183	12.934	1224.988	936.897
184.198	13.059	1223.281	936.219
185.213	13.010	1222.587	935.329
186.227	13.126	1221.197	934.837
187.242	13.169	1220.461	934.435
188.256	13.184	1219.241	933.502
189.271	13.260	1218.089	932.967
190.286	12.974	1217.211	930.600
191.300	12.828	1216.321	929.012
192.315	12.980	1215.656	929.278
193.329	12.864	1214.926	927.988
194.344	12.920	1213.987	927.503
195.359	12.996	1213.807	927.712
196.373	13.034	1213.473	927.585
197.388	13.029	1213.054	927.154
198.402	13.137	1212.818	927.501
199.417	13.340	1211.613	927.635
200.432	13.456	1210.564	927.399
201.446	13.373	1209.770	926.244
202.461	13.375	1209.313	925.822
203.475	13.415	1208.085	925.025
204.490	13.306	1207.071	923.558
205.504	13.409	1205.175	922.601
206.519	13.275	1204.373	921.156
207.534	13.298	1203.319	920.401
208.548	13.314	1202.383	919.689
209.563	13.348	1201.498	919.124
210.577	13.411	1200.294	918.471
211.592	13.355	1199.395	917.392
212.607	13.513	1198.490	917.489
213.621	13.520	1197.386	916.602
214.636	13.449	1197.196	915.984
215.650	13.407	1195.875	914.661
216.665	13.409	1195.008	913.927
217.680	13.471	1194.160	913.539
218.694	13.480	1193.730	913.178
219.709	13.592	1192.586	912.844
220.723	13.609	1191.639	912.130
221.738	13.578	1190.925	911.333
222.753	13.563	1190.349	910.725
223.767	13.607	1189.488	910.230
224.782	13.686	1189.035	910.235
225.796	13.661	1188.332	909.479
226.811	13.757	1187.325	909.153
227.826	13.686	1186.716	908.220
228.840	13.587	1186.101	907.127
229.855	13.559	1185.240	906.235
230.869	13.696	1184.118	906.047
231.884	13.703	1183.311	905.385
232.899	13.553	1182.773	904.074
233.913	13.548	1181.934	903.329
234.928	13.583	1181.299	902.950
235.942	13.478	1180.506	901.696
236.957	13.616	1179.454	901.563
237.972	13.446	1179.291	900.434
238.986	13.558	1178.246	900.163
240.001	13.599	1177.301	899.585
241.015	13.623	1176.477	899.007
242.030	13.728	1175.436	898.702
243.045	13.633	1174.744	897.577
244.059	13.676	1174.296	897.389
245.074	13.715	1173.386	896.826
246.088	13.732	1172.607	896.239
247.103	13.803	1171.620	895.791
248.117	13.897	1171.299	895.976
249.132	13.900	1170.982	895.670
250.147	14.032	1169.793	895.388
251.161	14.157	1169.235	895.559
252.176	14.200	1168.352	895.033
253.190	14.160	1167.947	894.428
254.205	14.151	1167.474	893.937
255.220	14.191	1167.034	893.735
256.234	14.163	1166.313	892.956
257.249	14.121	1165.699	892.181
258.263	14.134	1164.750	891.445
259.278	14.229	1163.920	891.241
260.293	14.081	1164.093	890.501
261.307	14.313	1162.821	890.689
262.322	14.365	1162.126	890.360
263.336	14.330	1161.567	889.664
264.351	14.350	1161.000	889.255
265.366	14.375	1160.559	888.971
266.380	14.401	1159.633	888.325
267.395	14.372	1158.888	887.521
268.409	14.380	1157.840	886.680
269.424	14.250	1157.440	885.606
270.439	14.346	1156.640	885.424
271.453	14.245	1156.070	884.374
272.468	14.260	1154.862	883.453
273.482	14.208	1154.447	882.782
274.497	14.194	1153.819	882.150
275.512	14.289	1153.457	882.294
276.526	14.364	1152.241	881.684
277.541	14.377	1151.341	880.987
278.555	14.431	1150.219	880.334
279.570	14.450	1150.377	880.481
280.585	14.481	1149.138	879.618
281.599	14.359	1148.365	878.302
282.614	14.475	1146.999	877.792
283.628	14.484	1145.999	876.998
284.643	14.426	1145.129	875.948
285.657	14.499	1144.111	875.478
286.672	14.468	1143.359	874.662
287.687	14.550	1142.316	874.216
288.701	14.629	1141.862	874.206
289.716	14.486	1141.071	872.772
290.730	14.620	1140.212	872.740
291.745	14.529	1139.566	871.691
292.760	14.605	1139.003	871.580
293.774	14.668	1138.147	871.177
294.789	14.849	1137.673	871.680
295.803	14.650	1137.100	870.130
296.818	14.565	1136.690	869.296
297.833	14.614	1135.618	868.650
298.847	14.651	1135.163	868.420
299.862	14.658	1133.928	867.435
300.876	14.759	1133.187	867.316
301.891	14.737	1132.790	866.822
302.906	14.738	1132.235	866.324
303.920	14.861	1131.386	866.233
304.935	14.876	1130.620	865.650
305.949	14.977	1130.136	865.727
306.964	14.955	1129.286	864.886
307.979	14.833	1128.488	863.569
308.993	14.895	1127.917	863.371
310.008	14.945	1127.010	862.861
311.022	15.008	1126.299	862.563
312.037	14.861	1125.496	861.118
313.052	14.878	1124.349	860.252
314.066	14.898	1123.520	859.641
315.081	14.859	1122.208	858.363
316.095	14.760	1122.037	857.649
317.110	14.788	1121.231	857.100
318.125	14.850	1120.103	856.479
319.139	14.810	1119.718	855.903
320.154	14.889	1118.796	855.526
321.168	14.853	1118.635	855.145
322.183	14.936	1118.073	855.063
323.197	14.884	1117.169	854.030
324.212	14.918	1116.756	853.811
325.227	14.930	1116.107	853.299
326.241	14.940	1115.276	852.644
327.256	14.922	1114.550	851.918
328.270	14.909	1113.382	850.884
329.285	14.945	1112.710	850.479
330.300	14.984	1111.722	849.848
331.314	14.975	1111.042	849.206
332.329	15.027	1109.819	848.461
333.343	14.917	1109.155	847.318
334.358	15.122	1108.052	847.442
335.373	15.190	1107.275	847.116
336.387	15.182	1106.859	846.683
337.402	15.228	1105.702	845.954
338.416	15.240	1105.180	845.541
339.431	15.218	1104.975	845.198
340.446	15.326	1103.860	844.815
341.460	15.469	1103.313	845.041
342.475	15.364	1102.642	843.921
343.489	15.314	1101.728	842.897
344.504	15.336	1100.800	842.223
345.519	15.501	1099.796	842.209
346.533	15.506	1098.899	841.473
347.548	15.528	1098.427	841.144
348.562	15.413	1097.720	839.954
349.577	15.373	1097.012	839.138
350.592	15.378	1096.064	838.366
351.606	15.317	1095.314	837.412
352.621	15.342	1094.734	837.018
353.635	15.245	1093.992	835.895
354.650	15.316	1093.652	835.915
355.665	15.268	1092.649	834.836
356.679	15.440	1092.028	835.144
357.694	15.439	1091.225	834.449
358.708	15.462	1090.664	834.061
359.723	15.457	1090.111	833.539
360.738	15.508	1089.315	833.112
361.752	15.604	1088.650	833.003
362.767	15.576	1087.892	832.210
363.781	15.596	1087.214	831.719
364.796	15.567	1086.963	831.311
365.810	15.632	1086.644	831.312
366.825	15.753	1085.692	831.107
367.840	15.839	1085.155	831.049
368.854	15.853	1084.771	830.752
369.869	15.908	1083.968	830.332
370.883	15.812	1082.950	829.007
371.898	15.805	1082.242	828.355
372.913	15.728	1081.957	827.689
373.927	15.790	1081.582	827.630
374.942	15.848	1080.792	827.237
375.956	15.902	1080.278	827.037
376.971	15.917	1079.589	826.509
377.986	15.908	1078.901	825.867
379.000	15.990	1078.317	825.750
380.015	16.008	1077.785	825.359
381.029	16.074	1077.103	825.083
382.044	16.085	1076.137	824.327
383.059	16.003	1075.748	823.554
384.073	16.005	1075.057	822.961
385.088	16.059	1073.947	822.301
386.102	16.124	1072.899	821.745
387.117	15.977	1072.422	820.587
388.132	16.025	1071.456	820.011
389.146	15.912	1070.497	818.656
390.161	15.917	1069.646	817.957
391.175	15.898	1069.229	817.475
392.190	15.962	1068.653	817.273
393.205	16.233	1067.518	817.644
394.219	16.070	1067.014	816.396
395.234	16.115	1066.100	815.841
396.248	16.146	1064.814	814.938
397.263	15.964	1063.818	813.222
398.278	15.949	1063.212	812.617
399.292	16.068	1062.402	812.499
400.307	16.053	1061.801	811.893
401.321	16.019	1061.295	811.272
402.336	16.083	1060.578	810.962
403.350	16.052	1059.861	810.189
404.365	15.964	1059.498	809.416
405.380	16.207	1058.110	809.451
406.394	16.284	1057.643	809.394
407.409	16.178	1056.869	808.222
408.423	16.210	1056.665	808.148
409.438	16.385	1055.695	808.171
410.453	16.292	1054.887	807.036
411.467	16.349	1054.376	806.846
412.482	16.413	1053.458	806.376
413.496	16.417	1053.127	806.075
414.511	16.438	1052.613	805.709
415.526	16.618	1051.805	805.877
416.540	16.594	1051.358	805.346
417.555	16.426	1051.222	804.372
418.569	16.548	1050.564	804.378
419.584	16.576	1049.552	803.666
420.599	16.523	1049.295	803.142
421.613	77.941	1283.832	1325.898
422.628	71.577	1318.010	1326.021
