DTS Sentinel unit serial number:	SN413079Multiplexer serial number:	ORYXHardware model number:	OX4-SRSoftware version number:	ORYX F/W v4.00 Oryx Data Collector v3.7.2.0data status	okinstallation	princeton_trtdifferential loss correction	single-endedforward channel	channel 2reverse channel	N/Adate	2019/09/18time	23:07:34forward acquisition time	60.00reverse acquisition time	0.00gamma	496.2192k internal	0.2350k external	0.2350temperature offset calibration	1.0016default loss term (dB/km)	0.3790temperature slope calibration	1.0000multiplexer offset coefficient	1.0000multiplexer slope coefficient	1.0000fibre end	0.00T internal ref (°C)	24.00T ext. ref 1 (°C)	0.77T ext. ref 2 (°C)	17.58length (m)	temperature (°C)	Stokes	anti-Stokes-747.200	-113.463	-0.457	-0.089
-746.185	664.433	-0.049	0.126
-745.171	334.913	0.134	0.259
-744.156	-76.083	0.048	0.017
-743.142	-125.077	-0.267	-0.041
-742.127	-200.000	-0.022	0.248
-741.112	-45.360	0.109	-0.054
-740.098	800.000	-0.056	0.239
-739.083	75.993	0.365	0.385
-738.069	-144.947	-0.385	0.035
-737.054	-200.000	-0.041	-0.194
-736.039	-98.887	-0.295	-0.075
-735.025	11.291	-0.180	0.137
-734.010	-200.000	-0.004	-0.252
-732.996	800.000	0.128	-0.422
-731.981	-99.031	0.204	0.052
-730.966	203.033	-0.097	-0.150
-729.952	293.196	-0.108	-0.196
-728.937	-159.033	-0.152	-0.009
-727.923	626.158	-0.061	-0.154
-726.908	212.405	0.065	0.102
-725.894	147.185	0.236	-0.317
-724.879	234.203	-0.144	0.237
-723.864	-51.716	-0.115	-0.053
-722.850	228.885	-0.052	-0.085
-721.835	597.364	0.033	-0.083
-720.821	-170.615	-0.171	-0.006
-719.806	4.241	-0.347	-0.254
-718.791	-200.000	0.010	-0.113
-717.777	-79.196	-0.109	-0.037
-716.762	-126.817	-0.209	-0.031
-715.748	-110.210	0.359	0.075
-714.733	136.620	-0.081	0.106
-713.718	-125.261	-0.075	-0.011
-712.704	-106.359	-0.080	-0.018
-711.689	9.506	0.172	-0.130
-710.675	800.000	0.111	-0.319
-709.660	800.000	0.061	-0.193
-708.645	75.331	0.144	-0.151
-707.631	-83.946	0.303	-0.096
-706.616	-72.754	-0.315	-0.116
-705.602	685.534	0.142	-0.369
-704.587	-148.132	0.127	-0.011
-703.572	54.082	-0.104	0.100
-702.558	800.000	0.172	-0.484
-701.543	198.091	-0.139	0.212
-700.529	-0.091	0.104	0.074
-699.514	-21.619	-0.228	-0.138
-698.499	800.000	0.077	-0.269
-697.485	10.391	0.165	0.126
-696.470	28.919	0.041	-0.035
-695.456	-200.000	0.010	-0.062
-694.441	55.123	0.231	0.222
-693.426	-200.000	-0.011	0.121
-692.412	211.486	0.040	0.062
-691.397	-112.884	-0.136	-0.027
-690.383	-18.436	-0.333	-0.207
-689.368	143.688	0.149	-0.198
-688.354	-200.000	-0.000	0.204
-687.339	-134.018	0.192	-0.024
-686.324	167.176	-0.090	-0.128
-685.310	10.636	-0.127	-0.096
-684.295	179.844	-0.134	-0.196
-683.281	-119.705	-0.269	-0.046
-682.266	-200.000	0.054	0.242
-681.251	217.893	0.159	0.253
-680.237	800.000	0.063	-0.204
-679.222	436.915	0.163	0.354
-678.208	650.087	0.038	0.096
-677.193	187.001	-0.105	0.156
-676.178	227.035	-0.034	-0.055
-675.164	-37.634	-0.178	0.095
-674.149	-46.843	-0.143	0.069
-673.135	-83.957	-0.113	-0.036
-672.120	-70.586	-0.361	-0.136
-671.105	21.048	-0.109	-0.088
-670.091	-109.567	-0.165	-0.035
-669.076	-144.484	0.203	0.019
-668.062	-147.086	0.235	-0.020
-667.047	607.352	0.109	-0.271
-666.032	19.637	0.151	-0.121
-665.018	-41.767	0.189	-0.097
-664.003	358.859	-0.159	-0.316
-662.989	611.694	-0.090	0.224
-661.974	-42.501	0.109	0.055
-660.959	-200.000	-0.012	0.116
-659.945	19.090	-0.069	-0.055
-658.930	-169.713	-0.526	-0.019
-657.916	-2.282	0.221	-0.154
-656.901	-146.172	0.082	0.007
-655.886	6.309	-0.162	-0.120
-654.872	-76.393	-0.361	-0.126
-653.857	-155.599	0.421	-0.027
-652.843	262.215	0.120	0.207
-651.828	84.444	0.212	-0.231
-650.814	-152.922	0.048	-0.003
-649.799	-200.000	-0.005	0.219
-648.784	322.826	0.021	-0.039
-647.770	-200.000	0.006	-0.038
-646.755	226.472	0.096	0.154
-645.741	491.354	0.050	0.114
-644.726	800.000	0.037	0.162
-643.711	-15.952	-0.027	0.017
-642.697	-100.970	0.135	-0.033
-641.682	18.403	-0.113	-0.090
-640.668	-76.766	0.150	-0.052
-639.653	375.067	0.100	0.203
-638.638	56.089	0.141	-0.136
-637.624	-76.735	0.531	0.185
-636.609	5.479	-0.077	0.057
-635.595	80.862	-0.058	-0.063
-634.580	-34.651	-0.128	-0.069
-633.565	116.475	0.201	-0.245
-632.551	-78.296	-0.280	0.096
-631.536	-200.000	0.018	0.093
-630.522	-30.496	-0.275	0.155
-629.507	-86.468	0.289	0.088
-628.492	-72.375	-0.142	-0.052
-627.478	-200.000	-0.063	-0.321
-626.463	-200.000	0.013	0.350
-625.449	-148.692	0.272	0.022
-624.434	789.430	0.165	0.450
-623.419	-105.986	-0.280	0.063
-622.405	36.326	-0.176	-0.154
-621.390	82.923	-0.173	0.187
-620.376	-200.000	0.026	-0.217
-619.361	-115.314	-0.481	0.090
-618.346	182.337	0.125	-0.182
-617.332	-52.862	-0.284	0.130
-616.317	-99.439	-0.173	-0.043
-615.303	-57.655	0.569	0.248
-614.288	21.933	0.138	0.112
-613.273	-139.587	0.094	0.010
-612.259	741.525	-0.018	0.049
-611.244	315.629	0.025	-0.047
-610.230	-200.000	0.010	0.092
-609.215	-46.472	0.150	0.073
-608.201	-13.852	0.306	-0.196
-607.186	339.673	0.159	0.307
-606.171	75.437	0.213	0.223
-605.157	669.843	0.016	0.041
-604.142	-108.765	0.097	-0.021
-603.128	27.781	0.134	-0.112
-602.113	-181.550	-0.250	-0.005
-601.098	800.000	-0.022	-0.066
-600.084	-117.179	0.206	0.037
-599.069	-81.431	0.171	0.056
-598.055	800.000	-0.080	-0.312
-597.040	446.280	-0.119	0.260
-596.025	-42.282	-0.134	-0.068
-595.011	800.000	0.042	0.155
-593.996	138.860	0.169	-0.221
-592.982	800.000	-0.149	-0.416
-591.967	-200.000	-0.010	-0.291
-590.952	-151.417	0.408	-0.030
-589.938	800.000	0.054	-0.192
-588.923	-90.569	0.137	0.039
-587.909	141.460	-0.036	0.048
-586.894	-143.530	0.447	0.042
-585.879	-151.795	0.119	0.009
-584.865	800.000	-0.093	0.295
-583.850	210.861	0.144	0.224
-582.836	-122.629	-0.343	-0.055
-581.821	133.672	-0.147	0.189
-580.806	-141.752	-0.234	-0.023
-579.792	-46.644	0.088	-0.043
-578.777	-200.000	-0.005	0.350
-577.763	93.748	-0.152	0.171
-576.748	36.365	-0.159	-0.139
-575.733	-16.382	-0.202	-0.127
-574.719	-115.260	0.194	-0.036
-573.704	-16.021	-0.194	0.122
-572.690	773.058	0.090	0.242
-571.675	535.775	0.160	-0.377
-570.661	-117.062	0.225	-0.041
-569.646	399.010	0.175	-0.363
-568.631	-73.687	-0.348	-0.126
-567.617	-111.518	-0.264	0.053
-566.602	40.550	-0.203	0.181
-565.588	174.796	-0.154	-0.221
-564.573	70.513	-0.261	-0.268
-563.558	256.282	0.125	-0.212
-562.544	800.000	0.038	0.115
-561.529	800.000	0.148	0.419
-560.515	32.766	0.170	0.146
-559.500	107.825	0.139	0.164
-558.485	171.409	-0.068	-0.097
-557.471	-200.000	0.026	0.164
-556.456	-84.803	0.444	-0.138
-555.442	-74.788	0.249	0.089
-554.427	386.535	-0.103	0.211
-553.412	663.288	0.069	0.176
-552.398	256.035	0.150	-0.255
-551.383	267.678	-0.146	0.252
-550.369	215.964	0.098	-0.154
-549.354	-109.942	0.323	0.067
-548.339	205.394	-0.150	0.231
-547.325	-114.621	0.208	-0.040
-546.310	78.206	0.199	-0.211
-545.296	23.348	-0.267	-0.217
-544.281	-200.000	0.026	-0.227
-543.266	-200.000	0.009	0.041
-542.252	-25.868	-0.206	-0.120
-541.237	-200.000	-0.003	-0.198
-540.223	-19.636	-0.210	0.129
-539.208	-106.910	0.274	0.060
-538.193	800.000	-0.042	-0.136
-537.179	12.455	0.303	-0.231
-536.164	-75.050	0.079	0.028
-535.150	-115.879	-0.125	0.023
-534.135	206.827	0.169	0.261
-533.121	405.606	0.083	0.172
-532.106	-185.979	0.225	0.003
-531.091	-200.000	-0.017	0.290
-530.077	-200.000	0.024	-0.208
-529.062	166.989	-0.211	-0.296
-528.048	101.592	-0.108	-0.125
-527.033	-200.000	0.042	0.201
-526.018	-15.063	0.222	-0.141
-525.004	-30.984	-0.385	0.215
-523.989	40.473	-0.182	-0.163
-522.975	-200.000	-0.018	-0.202
-521.960	580.919	-0.101	-0.245
-520.945	266.958	0.184	0.319
-519.931	553.547	-0.099	0.235
-518.916	11.284	-0.139	-0.106
-517.902	-115.145	-0.158	-0.030
-516.887	456.593	-0.042	0.092
-515.872	-58.301	-0.308	-0.133
-514.858	492.406	-0.063	0.143
-513.843	-200.000	0.030	0.358
-512.829	-124.767	-0.281	-0.043
-511.814	-200.000	0.011	-0.477
-510.799	-65.493	-0.104	-0.041
-509.785	800.000	-0.113	0.342
-508.770	-29.540	-0.215	0.122
-507.756	-200.000	-0.055	0.282
-506.741	-132.070	-0.225	0.029
-505.726	-86.637	0.392	0.119
-504.712	136.020	-0.086	-0.111
-503.697	225.523	-0.167	-0.267
-502.683	-56.840	-0.289	-0.126
-501.668	316.330	0.164	0.305
-500.653	-52.157	0.262	0.120
-499.639	-200.000	0.001	-0.160
-498.624	-0.608	-0.205	0.144
-497.610	136.728	-0.228	0.294
-496.595	-200.000	0.023	-0.381
-495.581	-44.177	-0.133	0.066
-494.566	-200.000	-0.003	-0.063
-493.551	-44.340	0.046	-0.023
-492.537	235.959	-0.246	0.402
-491.522	334.416	0.148	-0.282
-490.508	116.611	0.219	-0.266
-489.493	-11.641	0.195	0.127
-488.478	88.092	-0.238	-0.261
-487.464	-68.357	-0.190	-0.073
-486.449	-129.467	-0.079	-0.011
-485.435	-60.579	-0.347	-0.146
-484.420	123.448	-0.125	-0.154
-483.405	451.681	0.098	0.213
-482.391	-75.766	0.325	0.114
-481.376	80.867	0.140	-0.149
-480.362	-61.021	-0.289	0.120
-479.347	44.249	0.162	-0.147
-478.332	-122.510	0.163	0.026
-477.318	150.573	0.099	0.133
-476.303	-200.000	-0.065	0.406
-475.289	397.395	0.238	0.491
-474.274	-70.641	0.198	0.074
-473.259	66.862	-0.222	0.224
-472.245	102.839	-0.051	-0.059
-471.230	154.890	-0.224	-0.304
-470.216	10.335	0.230	0.173
-469.201	-136.129	-0.268	-0.031
-468.186	-129.018	-0.155	-0.021
-467.172	609.837	0.056	0.139
-466.157	-200.000	0.030	0.224
-465.143	165.559	-0.249	0.348
-464.128	13.811	-0.156	-0.120
-463.113	374.480	-0.153	0.308
-462.099	-98.343	0.288	0.073
-461.084	-26.027	-0.113	-0.066
-460.070	800.000	0.087	-0.302
-459.055	-200.000	-0.004	-0.115
-458.040	133.156	-0.229	0.292
-457.026	-200.000	0.040	0.396
-456.011	800.000	-0.074	-0.276
-454.997	224.920	0.020	-0.033
-453.982	800.000	-0.050	0.153
-452.968	62.709	0.270	0.266
-451.953	511.119	0.071	0.162
-450.938	26.862	0.184	-0.153
-449.924	5.756	-0.186	0.135
-448.909	800.000	0.105	0.314
-447.895	-93.476	0.089	-0.024
-446.880	-0.855	-0.293	-0.205
-445.865	800.000	0.071	0.218
-444.851	611.772	-0.008	0.020
-443.836	-200.000	-0.036	-0.259
-442.822	-200.000	0.030	-0.140
-441.807	106.083	-0.176	0.206
-440.792	-200.000	-0.000	-0.228
-439.778	-90.231	-0.128	-0.037
-438.763	-48.049	-0.169	-0.081
-437.749	-200.000	0.046	-0.271
-436.734	144.906	-0.169	-0.222
-435.719	39.033	-0.372	0.328
-434.705	-200.000	0.016	0.272
-433.690	-136.442	-0.306	-0.035
-432.676	-106.113	-0.329	-0.073
-431.661	389.741	-0.089	0.182
-430.646	-200.000	-0.023	-0.273
-429.632	-17.986	-0.120	-0.074
-428.617	-196.447	0.129	-0.001
-427.603	-66.285	0.098	0.038
-426.588	-74.210	-0.275	0.098
-425.573	-200.000	0.005	-0.190
-424.559	56.219	0.133	-0.127
-423.544	541.776	0.127	-0.298
-422.530	-200.000	0.020	-0.120
-421.515	-139.530	0.067	0.007
-420.500	335.723	0.176	-0.337
-419.486	-200.000	0.001	0.159
-418.471	57.521	-0.300	-0.289
-417.457	-85.405	0.313	0.096
-416.442	-200.000	0.012	-0.186
-415.428	-200.000	-0.057	0.369
-414.413	-144.227	-0.252	0.023
-413.398	24.477	-0.040	0.033
-412.384	390.874	-0.201	0.411
-411.369	-200.000	0.034	0.167
-410.355	-200.000	-0.065	-0.295
-409.340	800.000	0.042	-0.148
-408.325	-200.000	-0.026	-0.393
-407.311	463.548	-0.098	-0.215
-406.296	-200.000	0.000	-0.037
-405.282	-200.000	0.009	0.081
-404.267	-200.000	0.009	0.086
-403.252	279.309	-0.089	0.156
-402.238	-53.367	0.235	-0.106
-401.223	-9.062	0.138	-0.091
-400.209	-200.000	0.030	0.139
-399.194	390.668	0.079	0.161
-398.179	258.648	-0.103	0.175
-397.165	800.000	0.050	0.139
-396.150	-66.977	0.158	0.062
-395.136	63.658	-0.188	0.186
-394.121	720.196	-0.042	-0.111
-393.106	35.031	0.116	0.100
-392.092	382.498	-0.104	-0.211
-391.077	-200.000	-0.011	0.062
-390.063	349.653	0.147	-0.285
-389.048	-67.299	-0.418	-0.162
-388.033	-9.908	0.440	0.288
-387.019	-52.937	-0.040	0.018
-386.004	-180.415	-0.443	0.009
-384.990	220.428	0.306	-0.482
-383.975	-55.246	-0.220	-0.097
-382.960	-80.937	-0.247	0.081
-381.946	-200.000	-0.002	-0.017
-380.931	-123.306	0.372	0.058
-379.917	800.000	0.033	0.138
-378.902	-200.000	0.029	0.144
-377.888	-20.253	-0.085	0.052
-376.873	-108.498	0.106	-0.022
-375.858	-200.000	0.022	-0.202
-374.844	-49.357	0.308	-0.145
-373.829	87.993	0.183	0.199
-372.815	14.547	0.251	-0.193
-371.800	-171.617	-0.200	-0.007
-370.785	5.748	0.054	-0.039
-369.771	-44.484	0.342	-0.168
-368.756	-200.000	0.013	-0.259
-367.742	11.729	-0.096	0.072
-366.727	571.750	0.095	-0.228
-365.712	124.692	0.126	0.156
-364.698	800.000	0.051	-0.152
-363.683	463.269	-0.172	-0.379
-362.669	800.000	0.059	0.193
-361.654	548.622	-0.125	-0.295
-360.639	-164.578	-0.208	-0.009
-359.625	-137.581	0.135	-0.015
-358.610	-167.304	0.795	-0.032
-357.596	800.000	-0.062	0.197
-356.581	-143.057	0.063	-0.006
-355.566	-7.859	0.202	0.134
-354.552	-4.031	0.295	-0.201
-353.537	160.154	-0.102	-0.140
-352.523	-70.657	-0.306	0.114
-351.508	-166.818	0.363	0.015
-350.493	-200.000	0.046	0.201
-349.479	800.000	-0.029	0.111
-348.464	-4.507	-0.120	0.081
-347.450	-71.983	-0.161	-0.059
-346.435	-141.655	0.095	0.009
-345.420	-22.760	-0.201	0.119
-344.406	-2.605	-0.290	0.200
-343.391	800.000	0.018	0.069
-342.377	147.587	0.144	0.190
-341.362	532.359	0.138	0.322
-340.348	124.006	0.205	0.253
-339.333	711.945	0.085	-0.222
-338.318	743.427	-0.085	-0.225
-337.304	23.113	-0.108	-0.087
-336.289	14.097	0.220	-0.169
-335.275	175.081	-0.060	-0.086
-334.260	-108.548	-0.193	-0.041
-333.245	8.131	0.280	-0.206
-332.231	-167.288	-0.469	0.019
-331.216	-200.000	0.114	0.492
-330.202	-129.730	-0.191	0.026
-329.187	80.032	-0.242	-0.255
-328.172	-148.589	-0.208	-0.017
-327.158	800.000	0.063	-0.230
-326.143	74.279	-0.155	-0.159
-325.129	-200.000	0.053	-0.329
-324.114	776.608	0.098	-0.262
-323.099	-200.000	0.027	-0.125
-322.085	75.705	-0.296	0.307
-321.070	800.000	0.052	-0.183
-320.056	-27.891	0.158	-0.090
-319.041	104.310	-0.188	-0.218
-318.026	707.807	0.040	-0.103
-317.012	442.659	-0.036	0.077
-315.997	-200.000	0.008	0.344
-314.983	-57.573	-0.444	0.191
-313.968	271.228	-0.071	0.122
-312.953	-154.701	-0.175	0.011
-311.939	48.316	0.088	-0.081
-310.924	496.623	0.048	0.109
-309.910	-175.578	0.181	0.005
-308.895	-113.312	0.058	0.011
-307.880	-200.000	0.001	0.036
-306.866	800.000	0.071	0.266
-305.851	800.000	0.031	0.118
-304.837	108.040	-0.141	0.165
-303.822	253.950	-0.057	-0.096
-302.807	-159.423	0.323	0.018
-301.793	-77.388	0.143	0.049
-300.778	107.319	0.092	-0.107
-299.764	87.220	-0.334	0.362
-298.749	-22.238	-0.226	0.135
-297.735	-82.086	0.193	0.062
-296.720	-151.697	0.107	0.008
-295.705	-63.167	0.252	0.102
-294.691	241.664	-0.070	0.114
-293.676	142.453	-0.117	-0.153
-292.662	-65.917	0.172	-0.068
-291.647	772.924	-0.094	-0.251
-290.632	129.687	0.105	-0.131
-289.618	800.000	0.034	-0.144
-288.603	-107.776	0.183	0.039
-287.589	-144.002	-0.414	-0.038
-286.574	-86.781	0.267	0.080
-285.559	-58.028	0.166	-0.071
-284.545	86.911	-0.126	-0.136
-283.530	70.095	0.169	0.171
-282.516	-123.061	-0.098	-0.015
-281.501	85.777	-0.146	0.158
-280.486	-16.687	-0.194	0.121
-279.472	-73.851	-0.033	-0.012
-278.457	145.080	0.027	-0.036
-277.443	-5.496	0.263	-0.177
-276.428	48.661	0.176	-0.161
-275.413	478.233	0.145	-0.322
-274.399	19.977	0.167	0.132
-273.384	316.934	-0.011	0.021
-272.370	116.010	0.092	0.111
-271.355	-170.082	0.087	0.003
-270.340	-2.300	0.540	0.371
-269.326	143.601	-0.087	-0.114
-268.311	-200.000	-0.049	-0.369
-267.297	75.985	-0.260	0.269
-266.282	-172.926	-0.321	-0.010
-265.267	-42.959	-0.069	0.034
-264.253	800.000	-0.164	0.443
-263.238	-200.000	0.009	0.050
-262.224	46.804	0.273	-0.248
-261.209	476.554	-0.119	0.263
-260.195	-200.000	0.037	-0.279
-259.180	-118.028	-0.136	-0.024
-258.165	800.000	0.054	0.185
-257.151	129.906	-0.034	-0.043
-256.136	-200.000	0.018	0.266
-255.122	247.467	-0.127	0.210
-254.107	-200.000	-0.066	-0.301
-253.092	-64.695	-0.032	-0.013
-252.078	84.976	0.096	0.103
-251.063	111.591	0.212	-0.250
-250.049	106.004	-0.075	0.087
-249.034	-80.353	-0.455	-0.149
-248.019	212.088	-0.183	0.282
-247.005	-73.221	0.100	-0.036
-245.990	-106.954	-0.325	0.070
-244.976	200.783	-0.112	-0.169
-243.961	-42.624	-0.318	-0.158
-242.946	-60.956	-0.113	-0.047
-241.932	74.079	0.093	-0.095
-240.917	-200.000	0.048	-0.403
-239.903	74.948	0.150	0.155
-238.888	-200.000	0.017	-0.326
-237.873	-200.000	-0.004	-0.353
-236.859	36.252	-0.302	-0.261
-235.844	-200.000	-0.025	0.284
-234.830	-200.000	0.025	-0.108
-233.815	3.963	0.138	0.099
-232.800	56.258	0.081	0.077
-231.786	174.899	0.136	0.192
-230.771	800.000	-0.039	-0.150
-229.757	145.596	-0.099	-0.130
-228.742	300.052	0.226	0.408
-227.727	-149.867	-0.079	-0.006
-226.713	175.710	0.098	0.139
-225.698	-39.453	-0.348	-0.179
-224.684	-158.132	0.162	-0.009
-223.669	7.001	0.320	0.233
-222.655	-42.360	-0.138	-0.069
-221.640	259.181	0.174	-0.293
-220.625	-200.000	-0.030	0.243
-219.611	-13.097	-0.356	0.227
-218.596	-87.566	0.165	-0.049
-217.582	438.639	0.095	0.202
-216.567	-79.878	0.505	0.166
-215.552	800.000	0.084	0.297
-214.538	-96.836	-0.150	-0.038
-213.523	164.658	0.070	-0.096
-212.509	800.000	0.063	0.223
-211.494	28.745	0.076	-0.063
-210.479	-200.000	-0.047	-0.378
-209.465	213.203	0.113	-0.175
-208.450	-195.807	-0.031	0.000
-207.436	346.878	-0.145	-0.278
-206.421	-20.100	0.252	-0.152
-205.406	-92.859	-0.205	-0.056
-204.392	70.767	-0.224	-0.227
-203.377	-116.340	-0.253	0.046
-202.363	800.000	0.029	0.085
-201.348	-78.257	0.162	0.054
-200.333	65.584	0.188	-0.186
-199.319	-34.942	-0.398	0.212
-198.304	-144.126	-0.382	0.035
-197.290	-113.793	-0.052	-0.010
-196.275	-36.592	0.143	-0.075
-195.260	800.000	0.025	-0.103
-194.246	-44.864	0.221	-0.108
-193.231	-6.761	-0.178	-0.118
-192.217	379.618	-0.124	0.248
-191.202	-200.000	-0.032	-0.150
-190.187	-141.196	0.467	0.046
-189.173	-48.678	0.213	-0.100
-188.158	-58.684	-0.363	0.154
-187.144	375.329	-0.119	-0.237
-186.129	95.055	0.108	-0.120
-185.114	541.145	-0.149	-0.347
-184.100	-29.263	-0.179	0.100
-183.085	37.802	-0.294	-0.255
-182.071	-130.436	0.154	0.020
-181.056	669.643	-0.154	0.389
-180.042	59.135	0.103	-0.099
-179.027	-200.000	0.032	-0.165
-178.012	-200.000	0.012	-0.347
-176.998	-75.501	-0.133	0.046
-175.983	36.458	-0.171	-0.147
-174.969	-64.020	0.218	0.087
-173.954	-200.000	0.010	0.079
-172.939	800.000	0.083	0.245
-171.925	-123.955	0.440	-0.068
-170.910	314.204	0.038	0.069
-169.896	219.476	0.134	-0.209
-168.881	160.494	-0.072	-0.098
-167.866	78.628	0.146	0.152
-166.852	800.000	0.092	0.280
-165.837	-48.695	0.116	0.054
-164.823	-30.273	0.375	-0.208
-163.808	-200.000	0.013	-0.149
-162.793	33.766	0.143	-0.122
-161.779	126.694	-0.247	-0.306
-160.764	800.000	-0.109	-0.304
-159.750	635.332	0.046	0.115
-158.735	-75.848	0.258	0.089
-157.720	-32.031	-0.120	-0.066
-156.706	-6.327	0.146	-0.097
-155.691	-87.042	-0.291	0.087
-154.677	-173.581	0.161	-0.005
-153.662	64.287	0.228	0.224
-152.647	-6.902	0.050	-0.033
-151.633	-97.512	0.025	0.006
-150.618	5.669	-0.240	0.173
-149.604	800.000	0.020	0.065
-148.589	299.688	0.006	-0.011
-147.574	-200.000	0.061	-0.295
-146.560	45.462	0.114	0.102
-145.545	160.904	0.152	-0.207
-144.531	51.860	-0.104	0.096
-143.516	-200.000	0.046	-0.527
-142.502	-200.000	0.040	0.300
-141.487	-200.000	0.028	0.121
-140.472	-137.432	-0.043	0.005
-139.458	-46.560	-0.345	-0.165
-138.443	392.739	0.051	-0.103
-137.429	23.250	0.238	0.190
-136.414	-175.321	-0.106	0.003
-135.399	-116.081	-0.083	0.015
-134.385	733.268	0.078	0.203
-133.370	391.645	-0.140	0.284
-132.356	-122.885	-0.196	-0.031
-131.341	-200.000	0.028	-0.337
-130.326	204.258	-0.287	-0.433
-129.312	-179.293	-0.250	0.005
-128.297	566.206	-0.098	0.232
-127.283	-200.000	-0.022	-0.277
-126.268	132.320	0.208	-0.261
-125.253	-138.882	-0.475	-0.050
-124.239	-200.000	-0.032	-0.342
-123.224	800.000	0.057	0.172
-122.210	50.781	0.195	0.180
-121.195	-168.180	0.088	0.003
-120.180	-1.810	0.351	0.241
-119.166	-176.805	-0.237	-0.006
-118.151	-200.000	-0.034	-0.187
-117.137	74.539	-0.140	0.143
-116.122	83.085	0.097	-0.103
-115.107	800.000	-0.093	0.306
-114.093	291.954	-0.133	0.236
-113.078	-200.000	-0.003	-0.199
-112.064	-103.438	0.231	0.053
-111.049	800.000	-0.057	0.227
-110.034	800.000	0.030	0.126
-109.020	56.460	-0.087	0.082
-108.005	478.187	0.112	-0.247
-106.991	204.635	-0.155	0.233
-105.976	111.636	-0.052	0.061
-104.962	-200.000	0.262	0.000
-103.947	129.322	-0.188	0.233
-102.932	-66.315	-0.036	-0.014
-101.918	-108.561	0.213	-0.045
-100.903	-72.920	0.139	-0.050
-99.889	-150.072	0.182	-0.014
-98.874	55.776	0.103	-0.097
-97.859	389.875	-0.099	-0.201
-96.845	-8.669	0.261	-0.171
-95.830	533.642	0.032	-0.074
-94.816	-122.560	0.289	-0.046
-93.801	207.833	0.114	-0.173
-92.786	-69.860	0.038	-0.014
-91.772	-141.735	0.138	-0.013
-90.757	-119.944	0.059	0.010
-89.743	-1.580	0.152	0.104
-88.728	-200.000	-0.002	-0.158
-87.713	-200.000	0.029	0.213
-86.699	800.000	-0.031	0.119
-85.684	163.986	0.109	-0.149
-84.670	759.033	-0.046	0.120
-83.655	-60.126	-0.050	-0.021
-82.640	-200.000	0.011	-0.344
-81.626	181.756	-0.112	0.161
-80.611	-86.300	0.026	0.008
-79.597	50.851	0.194	-0.179
-78.582	800.000	-0.156	-0.521
-77.567	459.050	0.086	0.185
-76.553	2.908	-0.132	0.093
-75.538	-80.846	0.141	-0.046
-74.524	293.593	-0.046	-0.083
-73.509	800.000	0.042	0.163
-72.494	-107.937	-0.265	0.056
-71.480	274.829	0.213	0.367
-70.465	-200.000	-0.071	0.523
-69.451	-160.014	0.420	0.022
-68.436	800.000	0.094	0.317
-67.422	-156.670	-0.309	0.019
-66.407	13.808	0.273	0.207
-65.392	-100.726	0.162	-0.039
-64.378	-76.761	-0.348	-0.118
-63.363	-72.617	0.259	0.093
-62.349	-200.000	-0.006	-0.025
-61.334	110.928	-1.070	-1.252
-60.319	78.546	0.541	0.562
-59.305	800.000	-0.223	-0.902
-58.290	365.303	0.603	1.180
-57.276	273.329	0.747	1.283
-56.261	-200.000	122.595	646.674
-55.246	435.393	1545.107	3266.302
-54.232	146.655	2708.958	3537.440
-53.217	92.170	2286.088	2502.652
-52.203	33.108	1899.912	1600.513
-51.188	27.112	1696.190	1383.350
-50.173	24.917	1656.890	1334.902
-49.159	45.942	1725.334	1551.138
-48.144	44.060	1737.304	1547.492
-47.130	26.629	1688.867	1373.497
-46.115	24.058	1673.801	1341.838
-45.100	23.826	1669.023	1336.212
-44.086	23.897	1666.578	1334.730
-43.071	23.854	1663.868	1332.188
-42.057	23.819	1661.959	1330.343
-41.042	23.990	1659.345	1329.481
-40.027	23.892	1658.066	1327.671
-39.013	23.846	1656.208	1325.782
-37.998	23.856	1653.923	1323.978
-36.984	23.868	1653.180	1323.419
-35.969	23.956	1651.503	1322.675
-34.954	23.996	1649.652	1321.440
-33.940	23.985	1648.323	1320.244
-32.925	23.939	1646.714	1318.557
-31.911	24.007	1645.474	1318.021
-30.896	24.092	1642.992	1316.604
-29.881	23.987	1641.438	1314.533
-28.867	24.000	1640.515	1313.842
-27.852	23.948	1639.500	1312.592
-26.838	23.980	1637.835	1311.444
-25.823	24.015	1636.171	1310.317
-24.809	24.076	1634.565	1309.422
-23.794	24.087	1633.091	1308.274
-22.779	24.028	1631.662	1306.645
-21.765	23.991	1630.016	1305.000
-20.750	24.021	1628.284	1303.783
-19.736	24.080	1627.396	1303.452
-18.721	23.980	1626.011	1301.558
-17.706	23.997	1624.457	1300.390
-16.692	24.007	1622.905	1299.170
-15.677	24.014	1621.638	1298.155
-14.663	24.041	1620.438	1297.334
-13.648	24.046	1618.889	1296.081
-12.633	24.048	1617.259	1294.740
-11.619	24.077	1615.955	1293.858
-10.604	24.075	1614.179	1292.369
-9.590	24.033	1612.992	1291.058
-8.575	24.065	1611.731	1290.235
-7.560	24.069	1610.558	1289.272
-6.546	24.049	1609.653	1288.350
-5.531	23.980	1608.890	1287.190
-4.517	24.019	1607.083	1285.974
-3.502	23.991	1606.073	1284.912
-2.487	24.131	1604.407	1284.538
-1.473	23.772	1592.308	1272.235
-0.458	20.607	1573.327	1234.583
0.556	15.979	1574.861	1202.699
1.571	13.658	1597.874	1203.332
2.586	13.381	1609.376	1209.865
3.600	12.413	1556.076	1162.843
4.615	7.156	1450.001	1048.739
5.629	1.811	1391.257	972.125
6.644	0.871	1383.494	960.647
7.659	0.799	1382.323	959.293
8.673	0.674	1381.678	957.969
9.688	0.747	1379.334	956.723
10.702	0.501	1376.057	952.812
11.717	3.196	1379.714	972.302
12.731	10.108	1389.024	1022.614
13.746	15.630	1397.975	1064.176
14.761	17.294	1399.917	1076.100
15.775	16.722	1397.368	1070.431
16.790	15.771	1395.040	1062.549
17.804	15.015	1392.641	1055.857
18.819	14.584	1391.347	1052.068
19.834	14.399	1390.171	1049.921
20.848	14.162	1388.932	1047.398
21.863	13.961	1387.378	1044.868
22.877	13.661	1386.196	1042.001
23.892	13.620	1385.334	1041.001
24.907	13.702	1384.531	1040.821
25.921	13.653	1383.857	1039.915
26.936	13.734	1382.849	1039.576
27.950	13.688	1381.907	1038.484
28.965	13.784	1380.931	1038.264
29.980	13.756	1380.175	1037.430
30.994	13.906	1379.034	1037.415
32.009	13.878	1377.967	1036.345
33.023	13.927	1376.686	1035.595
34.038	13.826	1375.695	1034.132
35.053	13.789	1374.439	1032.866
36.067	13.833	1373.237	1032.141
37.082	13.853	1372.165	1031.370
38.096	13.809	1371.632	1030.603
39.111	13.816	1370.642	1029.813
40.126	13.755	1369.755	1028.680
41.140	13.692	1368.831	1027.502
42.155	13.653	1368.913	1027.232
43.169	13.619	1368.553	1026.658
44.184	13.571	1368.126	1025.950
45.199	13.591	1367.967	1025.866
46.213	13.779	1366.717	1025.999
47.228	13.762	1365.724	1025.059
48.242	13.741	1364.599	1023.995
49.257	13.708	1363.073	1022.554
50.271	13.763	1361.823	1021.866
51.286	13.774	1360.477	1020.833
52.301	13.745	1359.181	1019.591
53.315	13.762	1358.002	1018.721
54.330	13.667	1357.402	1017.599
55.344	13.713	1356.016	1016.749
56.359	13.745	1354.868	1015.998
57.374	13.738	1353.880	1015.121
58.388	13.617	1353.245	1013.817
59.403	13.676	1353.088	1013.970
60.417	13.596	1352.171	1012.700
61.432	13.552	1351.077	1011.526
62.447	13.544	1349.758	1010.400
63.461	13.552	1348.413	1009.349
64.476	13.541	1347.730	1008.687
65.490	13.664	1346.117	1008.138
66.505	13.564	1344.915	1006.538
67.520	13.610	1343.574	1005.726
68.534	13.704	1342.353	1005.295
69.549	13.658	1341.808	1004.515
70.563	13.634	1340.622	1003.394
71.578	13.572	1339.211	1001.877
72.593	13.549	1338.144	1000.851
73.607	13.552	1337.504	1000.297
74.622	13.574	1336.502	999.593
75.636	13.560	1335.784	998.887
76.651	13.549	1335.402	998.448
77.666	13.538	1334.844	997.872
78.680	13.575	1334.203	997.530
79.695	13.484	1333.494	996.361
80.709	13.505	1332.409	995.589
81.724	13.540	1331.486	995.020
82.739	13.696	1330.317	994.999
83.753	13.578	1330.153	994.076
84.768	13.638	1329.076	993.546
85.782	13.684	1327.439	992.508
86.797	13.771	1326.063	991.915
87.812	13.641	1325.063	990.302
88.826	13.718	1323.896	989.798
89.841	13.671	1322.551	988.429
90.855	13.715	1321.619	987.907
91.870	13.746	1320.767	987.365
92.884	13.839	1319.873	987.163
93.899	13.723	1319.310	985.964
94.914	13.818	1317.968	985.435
95.928	13.877	1317.483	985.337
96.943	13.794	1316.704	984.179
97.957	13.705	1315.755	982.851
98.972	13.837	1314.286	982.449
99.987	13.730	1313.298	980.992
101.001	13.817	1312.427	980.767
102.016	13.816	1311.302	979.837
103.030	13.783	1310.747	979.137
104.045	13.747	1310.212	978.441
105.060	13.775	1309.008	977.621
106.074	13.699	1307.240	975.762
107.089	13.694	1305.989	974.715
108.103	13.705	1304.705	973.734
109.118	13.653	1303.592	972.512
110.133	13.697	1301.914	971.436
111.147	13.662	1300.715	970.249
112.162	13.680	1299.767	969.560
113.176	13.748	1298.536	968.957
114.191	13.796	1297.156	968.116
115.206	13.774	1296.246	967.226
116.220	13.803	1294.682	966.139
117.235	13.836	1293.808	965.596
118.249	13.728	1292.985	964.268
119.264	13.722	1291.848	963.300
120.279	13.604	1291.412	962.204
121.293	13.716	1290.020	961.731
122.308	13.695	1288.635	960.493
123.322	13.694	1287.348	959.445
124.337	13.685	1286.583	958.737
125.352	13.693	1285.219	957.681
126.366	13.662	1284.235	956.686
127.381	13.705	1282.852	955.817
128.395	13.669	1281.547	954.553
129.410	13.651	1281.066	954.008
130.424	13.842	1280.024	954.243
131.439	13.791	1279.271	953.306
132.454	13.712	1278.370	952.094
133.468	13.768	1276.984	951.299
134.483	13.662	1276.747	950.433
135.497	13.716	1275.031	949.380
136.512	13.666	1274.180	948.375
137.527	13.603	1273.020	947.067
138.541	13.690	1271.663	946.473
139.556	13.743	1269.826	945.321
140.570	13.765	1269.049	944.784
141.585	13.781	1267.775	943.849
142.600	13.819	1266.565	943.078
143.614	13.902	1265.457	942.638
144.629	13.950	1264.327	941.989
145.643	13.808	1263.188	940.252
146.658	13.767	1262.557	939.467
147.673	13.879	1260.562	938.530
148.687	13.693	1259.837	936.856
149.702	13.898	1257.648	936.303
150.716	13.791	1257.033	935.157
151.731	13.840	1255.828	934.457
152.746	13.805	1254.694	933.335
153.760	13.927	1253.106	932.755
154.775	14.041	1251.903	932.418
155.789	13.864	1251.081	930.731
156.804	13.996	1249.680	930.341
157.819	14.046	1248.730	929.836
158.833	13.933	1248.264	928.773
159.848	14.094	1246.901	928.573
160.862	14.132	1246.123	928.123
161.877	14.019	1244.773	926.407
162.892	13.903	1243.969	925.081
163.906	13.983	1242.988	924.714
164.921	13.989	1242.411	924.240
165.935	13.996	1241.393	923.440
166.950	14.063	1240.584	923.128
167.964	14.023	1239.932	922.338
168.979	14.078	1239.267	922.067
169.994	14.122	1238.034	921.311
171.008	14.154	1237.188	920.776
172.023	14.026	1236.802	919.699
173.037	14.118	1235.787	919.370
174.052	14.166	1234.970	918.947
175.067	14.147	1233.644	917.777
176.081	14.110	1232.759	916.834
177.096	14.177	1231.629	916.280
178.110	14.125	1230.772	915.273
179.125	14.142	1229.481	914.325
180.140	14.126	1228.169	913.182
181.154	14.238	1226.958	912.814
182.169	14.215	1225.457	911.494
183.183	14.285	1224.848	911.341
184.198	14.269	1223.188	909.938
185.213	14.332	1222.098	909.389
186.227	14.292	1221.398	908.570
187.242	14.278	1220.215	907.535
188.256	14.326	1219.479	907.169
189.271	14.260	1218.379	905.913
190.286	14.292	1217.187	905.116
191.300	14.243	1216.885	904.546
192.315	14.210	1215.851	903.520
193.329	14.158	1215.504	902.899
194.344	14.121	1214.608	901.956
195.359	14.287	1214.159	902.442
196.373	14.353	1213.528	902.248
197.388	14.419	1212.937	902.085
198.402	14.451	1212.386	901.773
199.417	14.524	1211.444	901.386
200.432	14.480	1210.501	900.366
201.446	14.506	1209.764	899.879
202.461	14.633	1208.402	899.468
203.475	14.631	1207.651	898.821
204.490	14.626	1206.228	897.656
205.504	14.443	1205.561	896.093
206.519	14.593	1204.178	895.796
207.534	14.561	1202.882	894.581
208.548	14.555	1201.958	893.779
209.563	14.626	1201.295	893.587
210.577	14.600	1200.420	892.719
211.592	14.751	1199.521	892.776
212.607	14.721	1198.541	891.809
213.621	14.576	1198.107	890.635
214.636	14.571	1197.256	889.899
215.650	14.643	1196.286	889.479
216.665	14.658	1195.053	888.567
217.680	14.682	1194.300	888.056
218.694	14.872	1192.755	887.835
219.709	14.783	1192.169	886.849
220.723	14.829	1191.460	886.485
221.738	14.751	1190.959	885.624
222.753	14.856	1190.192	885.527
223.767	14.711	1189.521	884.187
224.782	14.772	1188.652	883.783
225.796	14.929	1188.163	884.170
226.811	14.809	1188.141	883.442
227.826	14.804	1186.896	882.414
228.840	14.898	1186.103	882.240
229.855	14.871	1185.275	881.406
230.869	14.844	1184.323	880.475
231.884	14.897	1183.633	880.165
232.899	14.908	1182.903	879.600
233.913	14.837	1182.219	878.639
234.928	14.805	1181.366	877.760
235.942	14.897	1180.702	877.674
236.957	14.887	1180.084	877.084
237.972	14.850	1179.397	876.303
238.986	14.829	1178.444	875.405
240.001	14.779	1177.914	874.673
241.015	14.914	1176.706	874.406
242.030	14.999	1175.636	873.975
243.045	14.953	1175.188	873.323
244.059	14.892	1174.617	872.506
245.074	15.028	1173.548	872.341
246.088	15.048	1172.993	871.960
247.103	15.077	1171.677	871.052
248.117	15.204	1171.275	871.337
249.132	15.148	1170.550	870.433
250.147	15.211	1169.916	870.209
251.161	15.213	1169.319	869.697
252.176	15.312	1168.551	869.564
253.190	15.301	1167.495	868.643
254.205	15.435	1166.753	868.710
255.220	15.287	1166.705	867.831
256.234	15.281	1165.959	867.168
257.249	15.370	1164.854	866.728
258.263	15.315	1164.570	866.156
259.278	15.363	1163.934	865.853
260.293	15.440	1163.384	865.764
261.307	15.353	1162.664	864.704
262.322	15.465	1162.151	864.824
263.336	15.523	1161.337	864.442
264.351	15.418	1160.842	863.453
265.366	15.499	1159.925	863.115
266.380	15.555	1159.451	862.971
267.395	15.535	1158.244	861.896
268.409	15.528	1157.723	861.393
269.424	15.490	1157.232	860.761
270.439	15.563	1156.534	860.536
271.453	15.471	1155.953	859.558
272.468	15.457	1155.001	858.701
273.482	15.575	1154.085	858.550
274.497	15.528	1154.014	858.178
275.512	15.588	1153.129	857.753
276.526	15.637	1152.386	857.371
277.541	15.592	1151.564	856.454
278.555	15.552	1151.506	856.134
279.570	15.659	1150.154	855.599
280.585	15.819	1148.876	855.383
281.599	15.738	1148.306	854.472
282.614	15.842	1147.257	854.142
283.628	15.779	1146.288	853.025
284.643	15.769	1145.356	852.210
285.657	15.684	1144.646	851.175
286.672	15.799	1143.827	851.069
287.687	15.873	1143.184	850.892
288.701	15.866	1141.581	849.590
289.716	15.896	1141.391	849.521
290.730	15.821	1140.494	848.403
291.745	15.845	1139.970	848.057
292.760	15.941	1139.068	847.794
293.774	15.931	1138.701	847.397
294.789	15.964	1138.234	847.139
295.803	16.000	1137.515	846.713
296.818	15.904	1136.906	845.699
297.833	15.826	1136.205	844.715
298.847	15.947	1135.318	844.585
299.862	16.020	1134.567	844.318
300.876	16.070	1133.857	843.965
301.891	16.089	1133.079	843.407
302.906	16.111	1132.239	842.816
303.920	16.083	1131.659	842.171
304.935	16.114	1131.054	841.799
305.949	16.074	1130.683	841.248
306.964	16.168	1129.699	840.909
307.979	16.196	1128.797	840.306
308.993	16.184	1127.911	839.511
310.008	16.288	1127.094	839.349
311.022	16.272	1126.147	838.489
312.037	16.209	1125.731	837.790
313.052	16.164	1124.950	836.913
314.066	16.183	1123.699	836.000
315.081	16.195	1123.174	835.598
316.095	16.218	1122.273	834.968
317.110	16.250	1121.687	834.616
318.125	16.294	1121.084	834.310
319.139	16.234	1120.445	833.466
320.154	16.231	1119.905	832.974
321.168	16.238	1119.134	832.359
322.183	16.200	1118.661	831.749
323.197	16.211	1117.980	831.225
324.212	16.257	1116.907	830.578
325.227	16.347	1116.383	830.555
326.241	16.289	1116.054	829.953
327.256	16.279	1114.890	828.965
328.270	16.420	1114.032	828.946
329.285	16.406	1112.932	827.986
330.300	16.416	1112.098	827.339
331.314	16.410	1111.231	826.595
332.329	16.382	1110.279	825.674
333.343	16.414	1109.052	824.847
334.358	16.486	1108.202	824.492
335.373	16.510	1107.868	824.288
336.387	16.370	1107.554	823.300
337.402	16.466	1106.696	823.056
338.416	16.489	1106.037	822.603
339.431	16.450	1105.207	821.724
340.446	16.545	1104.649	821.698
341.460	16.656	1103.847	821.568
342.475	16.632	1103.024	820.768
343.489	16.626	1102.004	819.906
344.504	16.721	1101.219	819.709
345.519	16.681	1100.245	818.719
346.533	16.696	1099.597	818.236
347.548	16.833	1098.981	818.365
348.562	16.792	1098.010	817.373
349.577	16.792	1097.265	816.745
350.592	16.711	1096.674	815.842
351.606	16.708	1095.767	815.082
352.621	16.710	1095.410	814.754
353.635	16.773	1094.471	814.288
354.650	16.831	1093.668	813.896
355.665	16.813	1093.116	813.326
356.679	16.776	1092.419	812.559
357.694	16.646	1091.922	811.496
358.708	16.847	1091.078	811.760
359.723	16.873	1090.346	811.264
360.738	16.825	1089.791	810.550
361.752	16.916	1089.395	810.621
362.767	16.982	1088.472	810.177
363.781	16.831	1088.349	809.291
364.796	16.844	1087.446	808.612
365.810	16.890	1087.233	808.602
366.825	17.050	1086.113	808.461
367.840	17.104	1085.545	808.221
368.854	17.114	1085.049	807.828
369.869	17.061	1084.855	807.361
370.883	17.081	1083.551	806.412
371.898	16.983	1082.995	805.461
372.913	16.989	1082.259	804.874
373.927	17.144	1081.872	805.249
374.942	17.220	1081.154	805.001
375.956	17.184	1080.539	804.302
376.971	17.139	1079.996	803.616
377.986	17.205	1079.271	803.318
379.000	17.189	1079.071	803.023
380.015	17.268	1078.177	802.659
381.029	17.261	1077.774	802.252
382.044	17.256	1076.942	801.540
383.059	17.370	1076.095	801.375
384.073	17.350	1075.514	800.777
385.088	17.269	1074.450	799.536
386.102	17.348	1073.331	799.003
387.117	17.354	1072.898	798.638
388.132	17.348	1071.807	797.727
389.146	17.272	1071.032	796.720
390.161	17.428	1070.164	796.738
391.175	17.417	1069.710	796.275
392.190	17.251	1069.008	794.905
393.205	17.476	1067.662	794.889
394.219	17.450	1067.467	794.549
395.234	17.420	1066.790	793.837
396.248	17.566	1065.109	793.193
397.263	17.492	1064.170	792.081
398.278	17.413	1064.106	791.594
399.292	17.461	1063.076	790.984
400.307	17.421	1062.354	790.190
401.321	17.433	1061.343	789.423
402.336	17.466	1060.851	789.138
403.350	17.498	1060.437	788.910
404.365	17.522	1059.780	788.463
405.380	17.698	1058.568	788.304
406.394	17.542	1058.116	787.179
407.409	17.537	1057.466	786.604
408.423	17.680	1056.566	786.524
409.438	17.643	1056.480	786.221
410.453	17.704	1055.461	785.671
411.467	17.693	1054.634	784.934
412.482	17.697	1054.479	784.768
413.496	17.677	1053.830	784.125
414.511	17.825	1052.722	783.912
415.526	17.878	1052.326	783.789
416.540	17.894	1051.383	783.093
417.555	17.899	1051.152	782.871
418.569	17.850	1050.769	782.294
419.584	17.886	1050.331	782.063
420.599	17.923	1049.666	781.668
421.613	109.726	1329.741	1490.127
422.628	101.052	1370.497	1490.218
