DTS Sentinel unit serial number:	SN413079Multiplexer serial number:	ORYXHardware model number:	OX4-SRSoftware version number:	ORYX F/W v4.00 Oryx Data Collector v3.7.2.0data status	okinstallation	princeton_trtdifferential loss correction	single-endedforward channel	channel 2reverse channel	N/Adate	2019/09/17time	23:39:35forward acquisition time	60.00reverse acquisition time	0.00gamma	496.2192k internal	0.2349k external	0.2349temperature offset calibration	0.9982default loss term (dB/km)	0.3790temperature slope calibration	1.0000multiplexer offset coefficient	1.0000multiplexer slope coefficient	1.0000fibre end	0.00T internal ref (°C)	24.12T ext. ref 1 (°C)	0.17T ext. ref 2 (°C)	17.55length (m)	temperature (°C)	Stokes	anti-Stokes-747.200	92.716	-0.145	-0.164
-746.185	420.787	0.132	0.284
-745.171	-200.000	-0.043	-0.209
-744.156	-200.000	-0.056	0.496
-743.142	-200.000	0.025	0.345
-742.127	800.000	0.083	0.297
-741.112	-200.000	0.018	0.297
-740.098	126.821	-0.102	0.129
-739.083	800.000	0.077	-0.224
-738.069	-200.000	0.013	0.083
-737.054	-98.197	0.279	0.072
-736.039	800.000	-0.086	-0.286
-735.025	-200.000	-0.030	0.219
-734.010	-14.105	0.333	0.214
-732.996	-52.258	-0.256	-0.119
-731.981	-132.330	0.132	0.017
-730.966	-96.343	-0.126	0.033
-729.952	380.028	0.157	0.320
-728.937	143.071	-0.154	0.204
-727.923	304.294	-0.201	-0.372
-726.908	525.540	0.066	-0.155
-725.894	-67.522	0.121	-0.047
-724.879	-53.471	0.129	0.059
-723.864	96.976	-0.105	-0.120
-722.850	-35.199	0.172	-0.093
-721.835	-191.933	-0.129	-0.001
-720.821	-197.950	-0.407	-0.002
-719.806	-200.000	0.048	-0.331
-718.791	-112.858	0.306	-0.060
-717.777	-200.000	0.027	0.259
-716.762	-36.780	0.188	-0.101
-715.748	800.000	0.073	-0.246
-714.733	-50.111	0.025	0.012
-713.718	243.350	0.178	-0.298
-712.704	800.000	-0.142	-0.436
-711.689	138.974	0.105	0.138
-710.675	-169.323	0.216	-0.008
-709.660	160.654	0.055	0.077
-708.645	51.528	0.204	0.194
-707.631	-200.000	0.014	-0.098
-706.616	-68.590	-0.324	-0.125
-705.602	-126.736	-0.234	-0.035
-704.587	800.000	0.074	-0.242
-703.572	29.144	-0.192	-0.162
-702.558	152.047	-0.307	0.417
-701.543	-135.786	-0.287	0.034
-700.529	-200.000	-0.070	-0.425
-699.514	-200.000	-0.047	-0.313
-698.499	800.000	-0.036	-0.131
-697.485	731.598	0.023	0.062
-696.470	119.300	0.128	0.158
-695.456	494.251	0.076	0.173
-694.441	30.781	-0.284	-0.242
-693.426	106.197	0.230	-0.271
-692.412	34.148	0.265	-0.230
-691.397	123.465	-0.113	0.141
-690.383	800.000	-0.107	-0.352
-689.368	181.362	-0.095	0.139
-688.354	121.204	0.223	-0.277
-687.339	400.076	-0.033	0.068
-686.324	-0.719	0.328	0.231
-685.310	110.349	-0.201	-0.240
-684.295	800.000	-0.071	-0.296
-683.281	-87.742	0.241	-0.073
-682.266	-9.607	-0.241	-0.160
-681.251	-200.000	0.016	-0.109
-680.237	-103.127	0.233	-0.055
-679.222	281.314	-0.112	-0.199
-678.208	45.777	0.201	0.185
-677.193	279.410	0.134	0.238
-676.178	-200.000	0.043	-0.311
-675.164	-137.002	-0.363	-0.041
-674.149	-200.000	-0.199	0.000
-673.135	-200.000	0.036	-0.216
-672.120	-9.219	-0.222	0.148
-671.105	-53.920	0.204	-0.093
-670.091	-176.480	-0.221	-0.006
-669.076	246.513	-0.204	0.343
-668.062	92.988	0.199	-0.224
-667.047	122.400	0.119	-0.149
-666.032	800.000	-0.035	0.104
-665.018	-65.746	0.055	0.022
-664.003	-140.883	-0.134	-0.014
-662.989	-200.000	0.049	0.226
-661.974	-100.286	0.077	0.019
-660.959	128.365	-0.079	-0.100
-659.945	-67.962	0.251	-0.097
-658.930	-68.040	-0.308	0.119
-657.916	-200.000	0.179	0.000
-656.901	89.049	0.097	0.107
-655.886	800.000	-0.031	-0.085
-654.872	723.151	-0.052	0.137
-653.857	191.912	-0.069	-0.103
-652.843	115.477	0.069	0.084
-651.828	-129.938	-0.362	0.049
-650.814	-134.794	0.180	-0.022
-649.799	800.000	-0.150	-0.626
-648.784	120.124	-0.133	0.165
-647.770	-16.995	0.153	0.096
-646.755	86.187	-0.054	0.059
-645.741	75.230	0.246	0.258
-644.726	-200.000	0.039	0.177
-643.711	257.929	0.154	0.265
-642.697	1.871	-0.187	-0.134
-641.682	116.141	0.262	-0.320
-640.668	62.993	-0.235	-0.234
-639.653	73.763	0.045	-0.047
-638.638	-200.000	-0.023	-0.282
-637.624	-25.091	-0.297	-0.175
-636.609	177.670	0.193	-0.279
-635.595	321.743	0.185	0.350
-634.580	69.009	-0.242	0.247
-633.565	-130.781	0.471	0.063
-632.551	-8.581	0.062	-0.041
-631.536	-105.673	0.063	-0.014
-630.522	-75.206	-0.098	-0.035
-629.507	-200.000	-0.036	0.338
-628.492	-56.937	0.173	-0.076
-627.478	324.878	0.053	-0.101
-626.463	-41.847	-0.235	-0.120
-625.449	86.366	0.150	-0.165
-624.434	-153.850	-0.198	0.013
-623.419	-200.000	-0.072	-0.377
-622.405	349.957	0.147	0.288
-621.390	-37.436	-0.184	0.098
-620.376	-115.512	-0.086	-0.016
-619.361	313.703	-0.153	0.286
-618.346	-118.751	-0.172	0.030
-617.332	-11.081	-0.182	0.119
-616.317	483.733	0.110	-0.249
-615.303	-73.184	0.115	-0.042
-614.288	210.689	-0.138	-0.216
-613.273	-112.083	0.459	0.092
-612.259	800.000	-0.101	0.336
-611.244	-113.544	-0.194	-0.038
-610.230	-200.000	-0.005	0.358
-609.215	137.423	-0.171	0.223
-608.201	168.367	-0.108	-0.153
-607.186	324.899	-0.077	-0.146
-606.171	300.167	0.043	0.078
-605.157	69.617	-0.256	0.262
-604.142	-80.320	-0.239	-0.080
-603.128	-200.000	0.016	-0.436
-602.113	375.093	-0.071	0.145
-601.098	-200.000	-0.014	0.216
-600.084	3.212	0.286	0.207
-599.069	-200.000	-0.009	-0.077
-598.055	3.291	-0.093	-0.067
-597.040	-128.307	-0.183	0.026
-596.025	-200.000	0.041	0.217
-595.011	408.097	0.057	-0.120
-593.996	-115.179	-0.318	-0.060
-592.982	-51.797	-0.155	-0.072
-591.967	-100.404	0.393	-0.097
-590.952	88.166	0.019	0.021
-589.938	49.810	0.117	-0.109
-588.923	262.321	0.033	0.056
-587.909	-200.000	0.015	0.084
-586.894	-200.000	0.015	-0.102
-585.879	5.676	-0.036	0.026
-584.865	-126.285	-0.322	-0.048
-583.850	-128.364	0.147	0.021
-582.836	54.335	0.101	-0.096
-581.821	-5.605	-0.342	0.233
-580.806	-162.735	-0.106	0.005
-579.792	800.000	-0.064	0.229
-578.777	393.783	-0.050	-0.104
-577.763	-57.888	0.165	-0.071
-576.748	800.000	-0.058	-0.159
-575.733	100.795	0.114	0.131
-574.719	54.971	-0.269	0.257
-573.704	264.349	-0.209	-0.362
-572.690	800.000	-0.053	-0.202
-571.675	165.398	0.160	0.224
-570.661	-127.704	0.215	0.031
-569.646	412.404	0.041	-0.086
-568.631	-26.676	-0.087	0.050
-567.617	183.665	-0.173	0.254
-566.602	124.629	-0.120	0.149
-565.588	226.709	0.151	0.244
-564.573	-200.000	0.043	0.324
-563.558	-77.632	0.091	-0.031
-562.544	84.532	-0.265	0.288
-561.529	-161.590	0.241	-0.012
-560.515	-45.331	0.092	-0.045
-559.500	-171.095	-0.360	-0.012
-558.485	211.950	-0.224	-0.350
-557.471	234.950	-0.143	-0.233
-556.456	-176.199	0.162	-0.004
-555.442	800.000	0.042	0.147
-554.427	-48.223	-0.234	0.112
-553.412	176.281	-0.143	-0.206
-552.398	-200.000	-0.010	-0.081
-551.383	133.408	-0.195	-0.250
-550.369	260.834	-0.125	0.214
-549.354	-151.557	0.135	0.010
-548.339	800.000	-0.085	0.295
-547.325	-134.260	0.286	-0.035
-546.310	197.069	-0.154	0.233
-545.296	-200.000	0.043	0.219
-544.281	-200.000	0.014	-0.117
-543.266	337.101	-0.144	0.278
-542.252	127.699	0.268	-0.337
-541.237	-172.499	0.078	0.002
-540.223	800.000	-0.032	-0.098
-539.208	-200.000	0.001	0.178
-538.193	-200.000	-0.014	-0.070
-537.179	-32.929	0.087	-0.048
-536.164	494.654	0.155	-0.352
-535.150	-96.488	-0.156	-0.041
-534.135	800.000	-0.008	-0.035
-533.121	-102.752	0.250	0.059
-532.106	-129.174	-0.119	0.016
-531.091	258.960	-0.200	-0.342
-530.077	-200.000	-0.008	0.063
-529.062	-96.950	-0.112	0.029
-528.048	215.159	-0.072	0.114
-527.033	-12.498	-0.233	-0.150
-526.018	-200.000	-0.155	0.000
-525.004	-200.000	-0.005	0.156
-523.989	145.939	0.044	0.059
-522.975	-61.730	-0.256	0.106
-521.960	186.101	-0.084	0.124
-520.945	-200.000	-0.005	0.119
-519.931	800.000	0.065	-0.251
-518.916	800.000	-0.058	0.217
-517.902	-136.665	0.135	0.015
-516.887	-21.201	-0.227	-0.138
-515.872	403.319	0.089	-0.184
-514.858	-146.625	0.215	0.018
-513.843	101.597	-0.314	-0.362
-512.829	-176.377	-0.112	-0.003
-511.814	-200.000	0.034	-0.392
-510.799	-57.667	-0.222	0.096
-509.785	800.000	-0.039	0.140
-508.770	155.845	-0.216	-0.294
-507.756	-179.011	-0.031	0.001
-506.741	192.316	0.117	-0.175
-505.726	800.000	0.039	0.144
-504.712	7.600	-0.355	0.263
-503.697	226.001	-0.153	0.246
-502.683	110.368	-0.143	-0.170
-501.668	-152.486	-0.225	0.016
-500.653	96.797	-0.173	-0.196
-499.639	158.323	-0.157	-0.216
-498.624	-46.422	-0.354	0.172
-497.610	-119.149	0.370	0.064
-496.595	-102.616	-0.166	-0.039
-495.581	800.000	-0.101	-0.396
-494.566	800.000	-0.103	-0.320
-493.551	-36.058	-0.075	0.040
-492.537	-71.525	-0.279	-0.103
-491.522	-200.000	-0.030	0.259
-490.508	-45.668	0.171	-0.084
-489.493	46.721	0.213	0.195
-488.478	189.207	0.068	-0.100
-487.464	383.949	-0.122	-0.247
-486.449	-24.445	0.171	-0.101
-485.435	-99.466	0.289	-0.072
-484.420	6.935	-0.152	0.112
-483.405	-0.118	0.044	-0.031
-482.391	-118.703	-0.273	0.048
-481.376	-61.904	0.188	0.078
-480.362	122.141	-0.134	0.165
-479.347	-14.525	0.066	-0.042
-478.332	-94.859	0.423	-0.113
-477.318	-62.142	0.428	0.176
-476.303	55.157	-0.025	-0.024
-475.289	22.127	0.118	0.095
-474.274	-43.292	0.129	-0.064
-473.259	-101.692	0.344	0.082
-472.245	-79.749	0.415	-0.138
-471.230	135.167	-0.030	-0.039
-470.216	236.183	0.144	-0.236
-469.201	800.000	-0.084	-0.257
-468.186	800.000	0.073	0.221
-467.172	-91.869	-0.138	0.039
-466.157	-0.678	-0.360	-0.252
-465.143	348.025	0.080	0.155
-464.128	22.453	0.056	0.045
-463.113	800.000	-0.047	0.153
-462.099	-180.447	-0.105	-0.002
-461.084	800.000	0.080	0.238
-460.070	-87.082	-0.110	-0.033
-459.055	-200.000	0.001	-0.139
-458.040	140.142	-0.118	-0.154
-457.026	125.344	-0.078	-0.097
-456.011	-102.091	0.125	0.030
-454.997	399.791	0.078	0.161
-453.982	-200.000	-0.011	0.065
-452.968	95.093	-0.163	-0.184
-451.953	526.620	-0.072	0.167
-450.938	800.000	-0.043	0.156
-449.924	-159.529	-0.126	0.007
-448.909	-200.000	0.071	0.312
-447.895	201.343	-0.226	-0.343
-446.880	-99.915	0.130	0.032
-445.865	-200.000	-0.019	-0.093
-444.851	-34.636	0.274	-0.148
-443.836	-200.000	-0.005	-0.127
-442.822	-155.162	-0.048	0.003
-441.807	800.000	0.105	-0.293
-440.792	494.677	0.141	-0.320
-439.778	6.499	0.027	-0.020
-438.763	-76.006	-0.271	-0.095
-437.749	15.061	-0.264	-0.204
-436.734	800.000	-0.029	0.097
-435.719	30.608	-0.097	-0.082
-434.705	-200.000	0.008	-0.120
-433.690	-200.000	-0.025	0.144
-432.676	308.745	-0.066	-0.121
-431.661	77.755	-0.077	0.081
-430.646	26.589	0.146	-0.120
-429.632	770.006	0.036	-0.097
-428.617	-67.777	0.020	0.008
-427.603	-137.676	0.097	0.011
-426.588	31.354	-0.046	-0.039
-425.573	-200.000	0.016	-0.145
-424.559	-172.280	0.116	0.004
-423.544	-200.000	0.012	-0.083
-422.530	-60.147	0.181	-0.076
-421.515	-200.000	-0.067	-0.377
-420.500	800.000	-0.043	-0.128
-419.486	600.083	0.110	-0.268
-418.471	46.001	-0.093	0.085
-417.457	-29.267	0.050	-0.028
-416.442	15.270	0.198	0.153
-415.428	609.913	-0.080	-0.197
-414.413	213.446	0.019	0.029
-413.398	800.000	-0.061	0.233
-412.384	-200.000	0.008	0.177
-411.369	-115.469	-0.123	0.023
-410.355	100.762	-0.082	0.094
-409.340	-200.000	0.005	-0.124
-408.325	-200.000	0.006	0.136
-407.311	-12.059	0.119	-0.077
-406.296	800.000	0.094	0.265
-405.282	122.100	-0.118	0.145
-404.267	800.000	-0.118	0.426
-403.252	800.000	-0.085	0.268
-402.238	124.151	0.194	0.240
-401.223	389.467	0.076	-0.156
-400.209	-194.744	0.199	-0.002
-399.194	800.000	0.046	-0.151
-398.179	92.011	0.142	-0.158
-397.165	-81.065	0.138	0.045
-396.150	24.478	-0.139	0.113
-395.136	232.191	0.088	-0.143
-394.121	-28.527	-0.117	0.066
-393.106	800.000	0.034	-0.095
-392.092	-200.000	-0.003	0.258
-391.077	-200.000	0.016	0.104
-390.063	-200.000	-0.086	-0.519
-389.048	222.732	0.171	-0.272
-388.033	-200.000	0.025	-0.201
-387.019	-53.786	-0.320	-0.144
-386.004	-111.345	-0.192	-0.039
-384.990	-23.823	0.071	-0.042
-383.975	-136.183	0.327	0.038
-382.960	1.272	0.244	-0.172
-381.946	709.036	-0.093	0.241
-380.931	-49.045	0.152	0.072
-379.917	-5.531	-0.140	0.095
-378.902	-69.900	0.169	0.063
-377.888	-187.202	-0.192	-0.003
-376.873	26.233	-0.237	-0.195
-375.858	681.889	-0.126	-0.324
-374.844	-129.228	0.278	-0.038
-373.829	407.043	-0.014	-0.029
-372.815	-200.000	-0.000	-0.299
-371.800	-47.808	-0.147	-0.070
-370.785	800.000	0.102	-0.389
-369.771	-109.615	-0.080	-0.017
-368.756	77.471	-0.090	0.094
-367.742	14.855	-0.253	0.195
-366.727	683.003	0.189	0.484
-365.712	-134.368	-0.316	-0.038
-364.698	96.953	0.362	0.409
-363.683	156.384	0.090	-0.123
-362.669	13.163	0.031	0.024
-361.654	-114.832	-0.073	0.014
-360.639	708.362	0.048	-0.125
-359.625	-81.692	-0.059	0.019
-358.610	112.360	0.176	-0.209
-357.596	-30.358	0.240	0.134
-356.581	58.368	0.112	0.108
-355.566	-200.000	-0.070	0.374
-354.552	-174.695	0.141	0.004
-353.537	-200.000	0.035	0.496
-352.523	620.053	0.046	-0.115
-351.508	141.665	0.138	0.180
-350.493	-112.367	0.096	0.019
-349.479	52.412	0.202	0.190
-348.464	800.000	0.074	0.244
-347.450	-62.039	-0.088	-0.036
-346.435	44.855	0.288	-0.261
-345.420	-31.284	-0.094	0.052
-344.406	-80.628	-0.207	0.068
-343.391	-2.604	0.159	-0.109
-342.377	-69.075	-0.304	-0.115
-341.362	573.722	-0.074	-0.177
-340.348	800.000	-0.052	-0.184
-339.333	-97.977	0.190	-0.048
-338.318	-200.000	-0.012	-0.123
-337.304	-162.459	-0.172	-0.008
-336.289	619.471	0.062	-0.154
-335.275	-181.026	-0.201	0.004
-334.260	-92.512	0.216	-0.060
-333.245	80.115	0.370	-0.391
-332.231	-117.003	-0.062	-0.011
-331.216	800.000	-0.078	-0.273
-330.202	77.491	0.161	0.168
-329.187	215.722	0.143	-0.223
-328.172	-63.181	-0.222	0.090
-327.158	286.378	-0.054	-0.095
-326.143	17.960	-0.143	0.112
-325.129	-27.310	-0.142	-0.081
-324.114	61.258	0.165	-0.161
-323.099	-200.000	0.046	-0.356
-322.085	251.085	0.084	-0.141
-321.070	117.206	-0.002	0.002
-320.056	12.499	-0.197	0.149
-319.041	231.755	-0.184	-0.297
-318.026	-200.000	0.015	0.225
-317.012	51.482	0.145	-0.135
-315.997	155.566	0.128	0.173
-314.983	229.514	-0.055	0.088
-313.968	-200.000	0.003	-0.244
-312.953	800.000	-0.064	-0.269
-311.939	-33.629	-0.120	-0.065
-310.924	-84.901	0.206	-0.064
-309.910	4.939	0.085	-0.061
-308.895	354.772	0.048	-0.095
-307.880	-200.000	-0.038	-0.305
-306.866	-153.807	-0.057	0.004
-305.851	732.110	-0.118	0.309
-304.837	557.925	0.112	-0.265
-303.822	-75.870	-0.295	0.103
-302.807	-200.000	-0.018	-0.098
-301.793	-119.605	0.251	0.043
-300.778	117.063	-0.143	-0.172
-299.764	-80.601	-0.194	-0.063
-298.749	48.295	0.104	-0.096
-297.735	124.974	0.035	0.044
-296.720	411.167	-0.028	0.059
-295.705	-13.624	0.178	0.113
-294.691	48.498	0.103	0.094
-293.676	-200.000	0.055	0.324
-292.662	-38.172	-0.165	-0.086
-291.647	800.000	-0.062	-0.182
-290.632	-71.033	-0.085	0.031
-289.618	97.755	-0.039	0.044
-288.603	69.113	-0.084	-0.085
-287.589	51.100	-0.157	0.146
-286.574	800.000	0.025	0.102
-285.559	543.040	0.026	0.060
-284.545	-200.000	0.026	0.133
-283.530	-116.575	0.271	0.049
-282.516	154.359	-0.103	0.139
-281.501	87.198	-0.084	-0.091
-280.486	11.870	0.157	-0.118
-279.472	150.548	0.183	0.244
-278.457	32.266	-0.197	0.167
-277.443	72.011	-0.128	0.130
-276.428	-97.403	0.051	0.013
-275.413	-19.205	-0.141	0.086
-274.399	-97.065	0.317	0.081
-273.384	-153.306	-0.297	0.020
-272.370	-106.403	0.259	0.057
-271.355	-200.000	0.013	0.541
-270.340	-112.369	-0.372	-0.073
-269.326	476.899	-0.175	0.388
-268.311	3.436	0.057	-0.041
-267.297	-200.000	0.051	0.248
-266.282	-200.000	-0.084	0.438
-265.267	-110.148	0.256	-0.052
-264.253	-33.437	0.240	-0.130
-263.238	94.564	0.130	0.145
-262.224	-35.960	0.210	-0.112
-261.209	800.000	-0.163	0.524
-260.195	791.771	0.149	0.402
-259.180	28.077	0.236	-0.195
-258.165	71.790	0.197	-0.201
-257.151	-102.823	0.264	-0.062
-256.136	800.000	-0.106	0.297
-255.122	162.729	0.416	0.572
-254.107	1.707	0.082	0.058
-253.092	382.950	0.094	0.190
-252.078	145.284	0.179	-0.235
-251.063	170.245	-0.100	0.140
-250.049	-170.414	-0.270	-0.009
-249.034	182.614	0.200	0.290
-248.019	-28.510	0.178	0.100
-247.005	265.592	-0.163	-0.278
-245.990	-123.895	-0.221	-0.034
-244.976	-22.084	0.140	0.083
-243.961	-57.590	0.298	0.128
-242.946	9.791	-0.078	-0.058
-241.932	2.622	-0.283	-0.201
-240.917	-190.894	-0.137	0.001
-239.903	-200.000	0.010	-0.062
-238.888	-164.858	-0.157	0.007
-237.873	317.123	-0.087	0.161
-236.859	102.377	0.085	-0.097
-235.844	292.670	0.076	0.136
-234.830	632.189	0.044	-0.109
-233.815	129.713	-0.097	0.122
-232.800	-200.000	0.017	-0.277
-231.786	800.000	-0.062	0.202
-230.771	139.750	-0.190	0.245
-229.757	427.287	0.054	0.114
-228.742	-77.543	0.270	0.092
-227.727	-104.838	0.188	-0.042
-226.713	351.743	0.124	0.240
-225.698	-104.375	-0.230	0.052
-224.684	279.689	-0.107	-0.187
-223.669	317.965	0.071	0.131
-222.655	800.000	0.070	0.197
-221.640	141.148	-0.166	-0.215
-220.625	727.250	-0.121	-0.315
-219.611	187.576	-0.093	-0.136
-218.596	720.444	0.058	-0.150
-217.582	464.146	-0.190	-0.416
-216.567	-85.493	0.018	-0.006
-215.552	-72.544	0.150	-0.054
-214.538	800.000	-0.067	0.204
-213.523	-44.550	-0.141	-0.069
-212.509	-200.000	0.007	0.164
-211.494	464.200	-0.083	-0.182
-210.479	-71.948	0.184	0.067
-209.465	-90.014	0.124	-0.035
-208.450	23.485	0.207	0.166
-207.436	157.271	0.083	0.113
-206.421	-7.661	-0.204	0.135
-205.406	-200.000	-0.014	0.236
-204.392	211.476	0.046	-0.070
-203.377	-126.826	0.401	0.058
-202.363	576.234	-0.153	-0.365
-201.348	-40.782	0.186	0.094
-200.333	195.931	0.130	-0.193
-199.319	205.655	-0.190	-0.289
-198.304	98.776	0.086	-0.097
-197.290	-200.000	0.032	-0.152
-196.275	-153.258	0.055	-0.004
-195.260	-27.290	0.025	-0.014
-194.246	-53.496	0.323	-0.144
-193.231	-28.192	-0.105	-0.060
-192.217	-200.000	0.040	-0.201
-191.202	0.162	0.384	0.268
-190.187	363.203	0.091	0.179
-189.173	759.396	0.056	0.148
-188.158	171.359	0.125	-0.176
-187.144	35.369	-0.203	0.174
-186.129	-200.000	-0.026	0.180
-185.114	251.854	0.094	0.157
-184.100	474.300	0.069	0.152
-183.085	45.077	0.061	-0.055
-182.071	687.362	0.123	0.315
-181.056	93.006	0.182	0.201
-180.042	455.004	0.118	-0.256
-179.027	244.376	-0.041	0.067
-178.012	113.898	0.162	-0.192
-176.998	483.475	-0.015	0.034
-175.983	-200.000	0.004	0.047
-174.969	61.916	-0.127	0.123
-173.954	13.156	-0.076	-0.058
-172.939	-26.485	0.169	0.097
-171.925	-112.839	0.419	0.081
-170.910	14.153	-0.186	-0.142
-169.896	26.837	-0.173	0.141
-168.881	-200.000	0.021	-0.111
-167.866	62.589	0.058	0.057
-166.852	-74.108	-0.326	-0.115
-165.837	352.400	0.219	-0.424
-164.823	-80.636	-0.251	-0.081
-163.808	539.192	0.061	-0.143
-162.793	-161.306	-0.248	0.013
-161.779	-200.000	0.051	0.259
-160.764	124.551	0.152	-0.187
-159.750	-131.331	-0.103	-0.013
-158.735	800.000	0.035	0.142
-157.720	105.678	-0.005	0.006
-156.706	-64.686	-0.330	-0.131
-155.691	184.764	0.031	0.044
-154.677	-200.000	0.075	0.322
-153.662	414.249	-0.053	-0.109
-152.647	-71.085	0.185	0.068
-151.633	-200.000	-0.081	0.351
-150.618	-105.227	0.498	0.111
-149.604	-200.000	-0.023	-0.220
-148.589	800.000	-0.075	-0.316
-147.574	-142.237	-0.139	-0.013
-146.560	-199.294	-0.096	-0.000
-145.545	-157.853	0.076	-0.004
-144.531	436.229	0.172	0.366
-143.516	-29.231	0.341	0.191
-142.502	550.982	-0.124	-0.290
-141.487	121.151	-0.215	-0.260
-140.472	-135.474	0.203	0.024
-139.458	-200.000	0.022	-0.262
-138.443	-200.000	-0.003	0.232
-137.429	159.084	-0.207	0.280
-136.414	-200.000	-0.006	0.151
-135.399	24.104	-0.112	-0.090
-134.385	-200.000	-0.002	0.234
-133.370	-200.000	0.012	-0.060
-132.356	-98.062	0.379	0.095
-131.341	13.493	0.430	-0.326
-130.326	572.048	0.033	-0.077
-129.312	-200.000	-0.013	-0.181
-128.297	-0.276	-0.161	0.111
-127.283	164.711	0.061	0.084
-126.268	192.085	-0.112	0.165
-125.253	314.423	0.098	0.180
-124.239	-130.599	-0.084	-0.011
-123.224	-85.716	-0.197	0.059
-122.210	-200.000	-0.013	0.122
-121.195	800.000	0.037	0.150
-120.180	-88.193	0.120	-0.035
-119.166	-200.000	-0.024	-0.201
-118.151	44.908	0.052	0.046
-117.137	174.275	0.159	0.224
-116.122	119.224	0.115	0.139
-115.107	-32.829	0.350	0.190
-114.093	-118.414	0.110	-0.019
-113.078	-200.000	0.018	0.105
-112.064	-114.125	0.160	0.030
-111.049	54.918	-0.191	-0.180
-110.034	-19.989	0.141	0.085
-109.020	-200.000	0.005	-0.131
-108.005	-63.380	-0.400	-0.160
-106.991	-200.000	0.059	-0.259
-105.976	-136.896	-0.103	-0.011
-104.962	800.000	0.056	0.190
-103.947	-92.343	0.275	0.075
-102.932	51.117	-0.128	-0.118
-101.918	-157.978	-0.069	0.004
-100.903	-185.598	0.338	0.005
-99.889	72.105	0.185	0.188
-98.874	800.000	-0.094	0.309
-97.859	-126.322	0.059	-0.009
-96.845	126.396	0.161	0.198
-95.830	-49.027	0.157	-0.073
-94.816	487.998	-0.012	-0.027
-93.801	-179.355	0.454	0.010
-92.786	-200.000	0.034	-0.230
-91.772	-33.214	-0.182	-0.098
-90.757	-120.645	0.323	0.053
-89.743	-30.750	-0.239	0.131
-88.728	800.000	-0.078	-0.297
-87.713	42.205	-0.119	0.105
-86.699	-200.000	-0.004	0.030
-85.684	-30.240	-0.245	0.136
-84.670	47.212	-0.162	0.147
-83.655	-200.000	0.065	0.322
-82.640	171.621	0.142	-0.198
-81.626	-164.956	-0.460	0.020
-80.611	319.899	-0.101	-0.187
-79.597	800.000	0.092	0.302
-78.582	252.410	-0.026	0.044
-77.567	-200.000	-0.124	0.630
-76.553	-156.411	0.233	-0.014
-75.538	5.577	0.062	-0.044
-74.524	88.740	0.208	0.225
-73.509	-118.176	-0.086	0.015
-72.494	-21.551	0.238	0.141
-71.480	-63.525	-0.182	0.073
-70.465	5.613	-0.160	-0.115
-69.451	800.000	-0.059	0.207
-68.436	-192.995	-0.162	0.001
-67.422	198.332	-0.013	0.019
-66.407	324.344	0.103	0.192
-65.392	632.202	-0.061	0.150
-64.378	-92.097	-0.152	0.042
-63.363	-134.965	-0.120	-0.014
-62.349	-200.000	0.002	0.032
-61.334	28.708	-1.217	-1.002
-60.319	18.114	0.527	0.408
-59.305	527.512	-0.503	-1.152
-58.290	567.950	0.606	1.431
-57.276	329.916	0.671	1.255
-56.261	-200.000	122.486	648.578
-55.246	443.479	1533.499	3268.342
-54.232	149.227	2686.482	3534.362
-53.217	93.146	2270.680	2495.454
-52.203	33.183	1889.267	1592.595
-51.188	27.369	1686.588	1377.825
-50.173	25.001	1648.263	1328.924
-49.159	45.301	1716.183	1538.493
-48.144	43.658	1728.216	1536.747
-47.130	26.758	1679.931	1367.562
-46.115	24.301	1664.660	1336.682
-45.100	24.023	1660.187	1330.957
-44.086	23.993	1658.201	1329.088
-43.071	24.024	1655.323	1326.965
-42.057	23.977	1652.688	1324.448
-41.042	24.037	1650.646	1323.204
-40.027	23.980	1649.310	1321.655
-39.013	23.960	1647.220	1319.784
-37.998	23.927	1645.572	1318.167
-36.984	24.037	1644.421	1318.001
-35.969	24.091	1642.525	1316.835
-34.954	24.124	1641.612	1316.293
-33.940	24.042	1640.242	1314.536
-32.925	24.067	1638.102	1312.955
-31.911	24.165	1636.886	1312.644
-30.896	24.110	1635.048	1310.714
-29.881	24.122	1633.171	1309.251
-28.867	24.051	1631.840	1307.605
-27.852	24.101	1629.938	1306.397
-26.838	24.182	1628.583	1305.855
-25.823	24.100	1627.770	1304.549
-24.809	24.206	1626.072	1303.912
-23.794	24.188	1624.966	1302.842
-22.779	24.177	1623.286	1301.361
-21.765	24.196	1621.770	1300.239
-20.750	24.128	1620.191	1298.425
-19.736	24.210	1618.534	1297.638
-18.721	24.100	1617.540	1295.990
-17.706	24.123	1616.220	1295.052
-16.692	24.213	1614.576	1294.335
-15.677	24.158	1613.104	1292.707
-14.663	24.143	1611.962	1291.628
-13.648	24.176	1610.189	1290.399
-12.633	24.184	1609.066	1289.502
-11.619	24.198	1607.165	1288.031
-10.604	24.144	1605.641	1286.369
-9.590	24.170	1605.009	1285.999
-8.575	24.205	1603.108	1284.677
-7.560	24.183	1601.944	1283.530
-6.546	24.124	1601.106	1282.384
-5.531	24.187	1599.990	1281.896
-4.517	24.197	1599.173	1281.259
-3.502	24.141	1598.040	1279.896
-2.487	24.264	1595.480	1278.684
-1.473	23.811	1583.827	1266.065
-0.458	20.697	1564.411	1228.548
0.556	15.525	1566.097	1197.155
1.571	13.220	1589.083	1197.930
2.586	13.000	1601.089	1205.266
3.600	11.915	1546.666	1156.538
4.615	6.524	1441.266	1042.069
5.629	1.168	1382.376	965.371
6.644	0.240	1375.136	954.353
7.659	0.234	1374.152	953.551
8.673	0.132	1372.739	951.837
9.688	0.064	1371.117	950.202
10.702	-0.084	1367.970	947.001
11.717	2.773	1370.926	966.988
12.731	9.543	1381.592	1017.310
13.746	15.318	1390.356	1060.284
14.761	16.809	1391.686	1070.634
15.775	16.162	1389.342	1064.653
16.790	15.204	1386.646	1056.455
17.804	14.495	1384.234	1050.061
18.819	14.071	1383.377	1046.651
19.834	13.789	1382.181	1043.879
20.848	13.601	1381.039	1041.744
21.863	13.312	1379.816	1038.910
22.877	13.238	1378.335	1037.243
23.892	13.192	1377.720	1036.399
24.907	13.199	1376.519	1035.445
25.921	13.175	1375.724	1034.606
26.936	13.267	1374.564	1034.221
27.950	13.185	1373.722	1032.978
28.965	13.300	1372.732	1032.863
29.980	13.412	1371.824	1032.788
30.994	13.406	1370.835	1031.916
32.009	13.440	1369.800	1031.254
33.023	13.514	1368.490	1030.639
34.038	13.427	1367.414	1029.196
35.053	13.248	1366.649	1027.420
36.067	13.314	1365.631	1026.971
37.082	13.358	1364.036	1025.957
38.096	13.389	1363.143	1025.384
39.111	13.410	1362.479	1024.924
40.126	13.386	1361.699	1024.095
41.140	13.263	1361.447	1023.053
42.155	13.215	1360.622	1022.049
43.169	13.171	1360.464	1021.567
44.184	13.135	1360.622	1021.375
45.199	13.185	1359.616	1020.837
46.213	13.241	1359.347	1020.888
47.228	13.227	1358.205	1019.857
48.242	13.242	1356.962	1018.926
49.257	13.285	1355.462	1017.971
50.271	13.246	1353.990	1016.538
51.286	13.270	1352.837	1015.731
52.301	13.358	1351.320	1015.040
53.315	13.134	1350.792	1013.179
54.330	13.253	1349.314	1012.711
55.344	13.201	1348.087	1011.381
56.359	13.211	1347.046	1010.574
57.374	13.147	1346.353	1009.571
58.388	12.987	1345.789	1008.085
59.403	13.051	1345.127	1007.890
60.417	13.157	1343.891	1007.517
61.432	12.976	1343.898	1006.329
62.447	13.151	1341.925	1005.829
63.461	13.140	1340.774	1004.814
64.476	13.027	1340.215	1003.619
65.490	12.982	1339.086	1002.409
66.505	13.142	1337.178	1001.865
67.520	13.107	1335.798	1000.530
68.534	13.146	1334.664	999.829
69.549	13.131	1333.961	999.120
70.563	13.057	1333.074	997.918
71.578	13.087	1331.697	996.983
72.593	13.021	1331.073	996.029
73.607	12.977	1330.160	994.991
74.622	13.085	1328.971	994.666
75.636	13.024	1328.229	993.656
76.651	12.957	1327.470	992.597
77.666	12.965	1327.305	992.434
78.680	12.981	1326.912	992.146
79.695	13.051	1325.413	991.357
80.709	13.130	1324.360	990.960
81.724	13.090	1324.170	990.486
82.739	13.173	1323.193	990.169
83.753	13.133	1322.025	988.964
84.768	13.227	1321.096	988.746
85.782	13.199	1320.289	987.888
86.797	13.304	1318.293	986.935
87.812	13.194	1316.925	985.164
88.826	13.150	1315.900	984.053
89.841	13.317	1315.144	984.394
90.855	13.286	1313.966	983.240
91.870	13.342	1313.438	983.087
92.884	13.367	1312.669	982.574
93.899	13.285	1311.854	981.391
94.914	13.368	1310.836	981.035
95.928	13.418	1309.878	980.528
96.943	13.415	1308.760	979.586
97.957	13.378	1307.845	978.595
98.972	13.343	1306.759	977.490
99.987	13.348	1306.178	976.996
101.001	13.399	1304.571	976.012
102.016	13.289	1303.847	974.734
103.030	13.367	1302.892	974.391
104.045	13.335	1302.364	973.724
105.060	13.284	1301.301	972.544
106.074	13.269	1299.754	971.211
107.089	13.179	1298.257	969.483
108.103	13.090	1297.559	968.350
109.118	13.100	1296.510	967.543
110.133	13.135	1294.509	966.168
111.147	13.165	1293.415	965.438
112.162	13.140	1292.118	964.240
113.176	13.321	1291.016	964.390
114.191	13.309	1289.761	963.297
115.206	13.339	1288.775	962.652
116.220	13.124	1287.871	960.639
117.235	13.232	1286.677	960.293
118.249	13.240	1285.441	959.332
119.264	13.206	1284.454	958.312
120.279	13.221	1283.270	957.430
121.293	13.188	1282.498	956.577
122.308	13.070	1281.923	955.382
123.322	13.278	1280.247	955.248
124.337	13.059	1279.517	953.356
125.352	13.168	1278.113	952.853
126.366	13.188	1276.970	952.032
127.381	13.285	1275.501	951.411
128.395	13.087	1275.135	949.917
129.410	13.193	1273.894	949.519
130.424	13.289	1272.915	949.253
131.439	13.324	1271.945	948.645
132.454	13.314	1271.101	947.879
133.468	13.299	1270.007	946.890
134.483	13.255	1269.511	946.187
135.497	13.235	1268.746	945.418
136.512	13.316	1267.251	944.685
137.527	13.254	1265.656	943.056
138.541	13.230	1264.160	941.720
139.556	13.320	1263.050	941.322
140.570	13.371	1261.892	940.665
141.585	13.383	1260.841	939.869
142.600	13.375	1259.993	939.107
143.614	13.315	1259.191	938.088
144.629	13.478	1257.761	937.862
145.643	13.358	1257.158	936.651
146.658	13.430	1255.678	935.870
147.673	13.351	1254.133	934.193
148.687	13.294	1253.101	933.020
149.702	13.279	1252.016	932.044
150.716	13.341	1250.730	931.352
151.731	13.414	1249.076	930.449
152.746	13.454	1248.050	929.827
153.760	13.306	1247.385	928.419
154.775	13.370	1245.865	927.564
155.789	13.367	1244.998	926.821
156.804	13.436	1243.525	926.028
157.819	13.542	1242.381	925.687
158.833	13.586	1241.626	925.287
159.848	13.511	1241.137	924.422
160.862	13.524	1239.960	923.535
161.877	13.495	1238.586	922.272
162.892	13.475	1237.783	921.479
163.906	13.448	1236.914	920.601
164.921	13.460	1235.925	919.846
165.935	13.530	1234.567	919.143
166.950	13.604	1233.677	918.813
167.964	13.616	1233.026	918.312
168.979	13.544	1232.587	917.503
169.994	13.526	1232.054	916.927
171.008	13.545	1231.457	916.508
172.023	13.668	1230.269	916.220
173.037	13.689	1229.418	915.625
174.052	13.719	1228.284	914.861
175.067	13.708	1227.193	913.911
176.081	13.711	1226.453	913.293
177.096	13.541	1225.676	911.700
178.110	13.586	1224.506	910.993
179.125	13.543	1223.461	909.900
180.140	13.648	1222.230	909.480
181.154	13.655	1221.363	908.791
182.169	13.721	1220.120	908.149
183.183	13.754	1218.680	907.175
184.198	13.762	1217.572	906.315
185.213	13.841	1216.236	905.673
186.227	13.760	1215.502	904.605
187.242	13.856	1214.088	903.995
188.256	13.921	1213.281	903.667
189.271	13.835	1212.772	902.743
190.286	13.832	1211.377	901.608
191.300	13.638	1210.625	899.912
192.315	13.732	1209.763	899.703
193.329	13.615	1209.225	898.590
194.344	13.698	1208.730	898.592
195.359	13.742	1207.935	898.157
196.373	13.882	1207.471	898.491
197.388	13.911	1206.806	898.077
198.402	13.933	1206.800	898.108
199.417	14.007	1205.796	897.682
200.432	13.972	1204.930	896.772
201.446	14.055	1204.075	896.502
202.461	14.088	1202.592	895.498
203.475	14.035	1202.017	894.706
204.490	14.128	1200.756	894.188
205.504	13.932	1199.662	892.240
206.519	14.041	1198.650	891.993
207.534	14.082	1197.260	891.100
208.548	13.967	1196.589	889.906
209.563	14.014	1195.603	889.344
210.577	14.066	1194.755	888.913
211.592	14.190	1193.343	888.447
212.607	14.247	1192.812	888.279
213.621	14.070	1192.265	886.845
214.636	14.153	1191.215	886.430
215.650	14.108	1190.051	885.245
216.665	14.228	1189.365	885.295
217.680	14.288	1188.358	884.786
218.694	14.244	1188.185	884.346
219.709	14.248	1187.082	883.466
220.723	14.309	1186.012	882.914
221.738	14.258	1185.667	882.310
222.753	14.189	1185.122	881.461
223.767	14.248	1184.237	881.036
224.782	14.400	1183.348	881.103
225.796	14.369	1182.802	880.456
226.811	14.493	1181.966	880.406
227.826	14.319	1181.445	879.024
228.840	14.302	1180.523	878.172
229.855	14.383	1179.727	877.929
230.869	14.427	1178.720	877.333
231.884	14.404	1178.082	876.660
232.899	14.266	1177.902	875.722
233.913	14.338	1176.847	875.239
234.928	14.368	1176.183	874.823
235.942	14.259	1175.233	873.470
236.957	14.404	1174.196	873.381
237.972	14.309	1173.725	872.454
238.986	14.457	1172.629	872.339
240.001	14.408	1172.406	871.836
241.015	14.415	1171.525	871.143
242.030	14.497	1170.087	870.426
243.045	14.446	1169.987	870.008
244.059	14.445	1169.085	869.251
245.074	14.618	1167.906	869.202
246.088	14.565	1167.537	868.576
247.103	14.605	1166.543	867.966
248.117	14.598	1166.114	867.535
249.132	14.588	1164.597	866.277
250.147	14.770	1164.001	866.699
251.161	14.736	1163.614	866.160
252.176	14.717	1163.126	865.621
253.190	14.912	1162.013	865.726
254.205	14.853	1161.243	864.768
255.220	14.957	1160.667	864.800
256.234	14.928	1160.489	864.445
257.249	14.786	1159.852	863.161
258.263	14.896	1159.254	863.205
259.278	14.940	1158.712	862.951
260.293	14.906	1157.949	862.131
261.307	14.990	1157.400	862.082
262.322	14.965	1156.740	861.382
263.336	14.917	1156.027	860.529
264.351	14.948	1155.420	860.158
265.366	15.024	1154.664	859.912
266.380	15.075	1153.882	859.513
267.395	15.040	1152.970	858.581
268.409	15.048	1152.629	858.289
269.424	15.084	1151.817	857.796
270.439	15.034	1151.198	857.002
271.453	14.967	1150.918	856.373
272.468	14.954	1149.662	855.301
273.482	15.094	1148.769	855.274
274.497	15.057	1148.028	854.456
275.512	15.129	1147.240	854.164
276.526	15.112	1146.972	853.799
277.541	15.226	1145.795	853.431
278.555	15.217	1145.315	852.950
279.570	15.145	1144.787	852.115
280.585	15.230	1143.770	851.715
281.599	15.260	1143.285	851.429
282.614	15.315	1141.749	850.488
283.628	15.258	1140.933	849.520
284.643	15.268	1139.758	848.621
285.657	15.206	1139.339	847.919
286.672	15.261	1138.287	847.341
287.687	15.380	1137.146	847.016
288.701	15.288	1136.727	846.163
289.716	15.395	1135.309	845.571
290.730	15.372	1134.923	845.093
291.745	15.385	1134.558	844.813
292.760	15.469	1133.431	844.323
293.774	15.496	1132.866	843.963
294.789	15.410	1132.763	843.377
295.803	15.429	1132.178	842.962
296.818	15.373	1131.447	842.063
297.833	15.398	1130.556	841.452
298.847	15.409	1129.722	840.812
299.862	15.502	1128.548	840.331
300.876	15.481	1128.559	840.157
301.891	15.620	1127.356	839.884
302.906	15.592	1126.537	839.060
303.920	15.643	1126.002	838.839
304.935	15.569	1125.444	837.979
305.949	15.642	1124.766	837.768
306.964	15.697	1124.030	837.419
307.979	15.640	1123.530	836.687
308.993	15.676	1122.618	836.115
310.008	15.787	1121.575	835.813
311.022	15.755	1120.693	834.922
312.037	15.770	1120.079	834.466
313.052	15.745	1119.228	833.637
314.066	15.667	1118.443	832.591
315.081	15.586	1117.553	831.454
316.095	15.657	1116.836	831.197
317.110	15.716	1116.179	830.924
318.125	15.757	1115.485	830.540
319.139	15.687	1114.986	829.747
320.154	15.657	1113.891	828.710
321.168	15.688	1113.433	828.449
322.183	15.729	1113.044	828.291
323.197	15.692	1112.376	827.538
324.212	15.862	1111.656	827.766
325.227	15.732	1111.222	826.728
326.241	15.709	1110.394	825.925
327.256	15.767	1109.217	825.264
328.270	15.884	1108.400	825.154
329.285	15.784	1107.493	823.919
330.300	15.837	1106.765	823.562
331.314	15.774	1106.125	822.706
332.329	15.827	1104.911	821.990
333.343	15.907	1104.288	821.843
334.358	15.887	1103.536	821.115
335.373	15.834	1102.632	820.112
336.387	15.966	1101.632	819.937
337.402	15.891	1101.400	819.325
338.416	16.013	1100.115	818.890
339.431	15.997	1099.806	818.511
340.446	16.069	1099.256	818.377
341.460	16.114	1098.425	817.904
342.475	16.165	1097.265	817.218
343.489	16.125	1096.883	816.664
344.504	16.223	1095.622	816.126
345.519	16.206	1094.791	815.356
346.533	16.338	1093.911	815.265
347.548	16.226	1093.482	814.335
348.562	16.303	1092.342	813.782
349.577	16.175	1092.144	812.944
350.592	16.064	1091.378	811.771
351.606	16.186	1090.383	811.543
352.621	16.161	1089.825	810.935
353.635	16.294	1088.829	810.764
354.650	16.198	1088.116	809.699
355.665	16.195	1087.634	809.256
356.679	16.276	1087.056	809.143
357.694	16.315	1086.116	808.555
358.708	16.228	1085.983	807.969
359.723	16.280	1085.058	807.459
360.738	16.380	1084.154	807.193
361.752	16.319	1084.295	806.936
362.767	16.374	1083.592	806.603
363.781	16.410	1082.359	805.787
364.796	16.389	1082.383	805.633
365.810	16.454	1081.656	805.332
366.825	16.594	1080.844	805.321
367.840	16.596	1080.153	804.744
368.854	16.567	1079.912	804.356
369.869	16.684	1078.763	803.982
370.883	16.447	1078.147	802.330
371.898	16.564	1077.470	802.308
372.913	16.501	1077.241	801.769
373.927	16.506	1076.168	800.922
374.942	16.596	1075.949	801.114
375.956	16.667	1075.588	801.109
376.971	16.606	1075.052	800.350
377.986	16.667	1074.333	800.036
379.000	16.632	1073.627	799.271
380.015	16.755	1073.397	799.612
381.029	16.797	1072.072	798.750
382.044	16.783	1071.515	798.199
383.059	16.844	1070.863	797.933
384.073	16.712	1070.108	796.676
385.088	16.834	1069.127	796.451
386.102	16.952	1068.151	796.207
387.117	16.938	1067.081	795.272
388.132	16.828	1066.625	794.346
389.146	16.825	1065.501	793.423
390.161	16.715	1065.261	792.659
391.175	16.760	1064.620	792.325
392.190	16.787	1063.864	791.819
393.205	17.037	1063.042	792.302
394.219	16.970	1062.144	791.250
395.234	16.925	1061.223	790.287
396.248	16.863	1060.416	789.327
397.263	16.933	1059.162	788.648
398.278	16.832	1058.526	787.634
399.292	16.834	1057.974	787.164
400.307	16.963	1057.006	786.972
401.321	16.837	1056.682	786.076
402.336	16.888	1056.069	785.790
403.350	16.907	1055.217	785.171
404.365	17.007	1054.371	784.935
405.380	16.896	1053.944	784.035
406.394	17.092	1052.670	783.925
407.409	17.074	1052.265	783.471
408.423	17.064	1051.836	783.034
409.438	17.243	1051.128	783.264
410.453	17.166	1050.457	782.342
411.467	17.232	1049.493	781.855
412.482	17.221	1049.234	781.544
413.496	17.240	1048.456	780.981
414.511	17.236	1047.699	780.332
415.526	17.370	1047.316	780.592
416.540	17.259	1047.431	780.099
417.555	17.342	1046.254	779.534
418.569	17.342	1045.643	779.009
419.584	17.368	1045.415	778.890
420.599	17.494	1044.726	778.886
421.613	108.060	1329.616	1487.013
422.628	99.312	1371.080	1487.083
