DTS Sentinel unit serial number:	SN413079Multiplexer serial number:	ORYXHardware model number:	OX4-SRSoftware version number:	ORYX F/W v4.00 Oryx Data Collector v3.7.2.0data status	okinstallation	princeton_trtdifferential loss correction	single-endedforward channel	channel 2reverse channel	N/Adate	2019/09/16time	21:27:35forward acquisition time	60.00reverse acquisition time	0.00gamma	496.2192k internal	0.2329k external	0.2329temperature offset calibration	0.9969default loss term (dB/km)	0.3790temperature slope calibration	1.0000multiplexer offset coefficient	1.0000multiplexer slope coefficient	1.0000fibre end	0.00T internal ref (°C)	31.52T ext. ref 1 (°C)	0.05T ext. ref 2 (°C)	25.50length (m)	temperature (°C)	Stokes	anti-Stokes-747.200	193.731	-0.078	0.118
-746.185	-200.000	0.017	0.330
-745.171	-38.787	-0.090	-0.048
-744.156	703.615	-0.223	0.591
-743.142	-165.818	0.173	0.008
-742.127	70.790	-0.148	0.155
-741.112	284.290	-0.159	-0.289
-740.098	187.821	-0.122	0.184
-739.083	-200.000	-0.008	0.047
-738.069	-200.000	-0.022	0.217
-737.054	-25.252	-0.116	-0.069
-736.039	396.323	-0.105	0.221
-735.025	-130.370	0.128	0.017
-734.010	-125.883	-0.383	-0.058
-732.996	37.036	-0.112	0.100
-731.981	248.904	-0.018	-0.031
-730.966	-200.000	0.040	0.454
-729.952	-80.817	-0.140	-0.047
-728.937	-200.000	-0.036	-0.429
-727.923	-31.557	-0.170	0.096
-726.908	12.484	0.397	0.308
-725.894	-75.285	0.255	-0.092
-724.879	337.810	0.055	0.107
-723.864	-109.230	0.134	0.029
-722.850	123.519	0.225	-0.284
-721.835	-88.706	0.277	0.083
-720.821	-160.921	-0.136	0.007
-719.806	-125.180	-0.205	-0.032
-718.791	-86.183	-0.216	-0.067
-717.777	-200.000	-0.068	0.456
-716.762	800.000	0.101	0.373
-715.748	65.898	-0.123	0.125
-714.733	-200.000	-0.004	-0.400
-713.718	-84.546	-0.091	-0.029
-712.704	-200.000	-0.001	-0.041
-711.689	-32.710	0.018	0.010
-710.675	-113.249	-0.245	-0.048
-709.660	-143.220	-0.302	0.029
-708.645	-41.708	0.030	-0.016
-707.631	-176.759	0.222	-0.006
-706.616	54.794	0.165	-0.161
-705.602	68.845	0.179	0.185
-704.587	-200.000	0.003	0.078
-703.572	-200.000	0.029	-0.174
-702.558	800.000	0.071	-0.218
-701.543	539.786	-0.051	0.122
-700.529	-17.422	0.341	-0.216
-699.514	-27.382	0.228	0.133
-698.499	-19.312	-0.214	0.134
-697.485	-200.000	-0.033	-0.164
-696.470	-120.264	0.234	0.040
-695.456	-1.980	-0.156	-0.110
-694.441	-68.792	-0.384	0.149
-693.426	-45.056	-0.155	-0.078
-692.412	483.917	0.173	-0.396
-691.397	190.656	0.353	-0.533
-690.383	-57.770	-0.281	-0.123
-689.368	800.000	0.036	0.132
-688.354	129.706	-0.136	0.174
-687.339	19.310	-0.164	0.133
-686.324	155.450	-0.221	0.305
-685.310	-200.000	-0.024	-0.320
-684.295	800.000	-0.107	-0.297
-683.281	299.512	-0.046	0.085
-682.266	-194.137	-0.083	0.001
-681.251	-70.730	0.292	0.111
-680.237	207.076	0.123	-0.193
-679.222	37.611	-0.256	-0.229
-678.208	49.090	-0.224	0.211
-677.193	587.264	-0.166	-0.412
-676.178	100.250	0.211	0.246
-675.164	160.561	-0.144	0.201
-674.149	-198.922	-0.151	0.001
-673.135	-25.879	-0.218	0.129
-672.120	315.024	0.135	-0.255
-671.105	-32.576	-0.180	-0.101
-670.091	491.731	0.176	-0.405
-669.076	-200.000	-0.001	0.094
-668.062	-63.783	0.219	-0.090
-667.047	-57.480	0.228	-0.101
-666.032	-200.000	0.041	0.194
-665.018	-200.000	0.067	0.334
-664.003	-139.596	-0.109	-0.012
-662.989	-200.000	-0.008	-0.264
-661.974	371.493	-0.073	-0.148
-660.959	-200.000	-0.051	0.308
-659.945	-200.000	0.022	0.168
-658.930	800.000	0.038	-0.165
-657.916	-40.375	0.160	0.083
-656.901	-200.000	0.043	0.276
-655.886	-200.000	0.045	0.207
-654.872	44.599	0.264	0.244
-653.857	-140.022	0.258	0.027
-652.843	-29.893	-0.292	0.167
-651.828	162.852	-0.160	0.226
-650.814	242.691	-0.098	0.164
-649.799	-80.860	0.154	-0.051
-648.784	747.239	0.095	-0.257
-647.770	84.321	-0.292	-0.320
-646.755	-135.060	-0.401	0.049
-645.741	25.696	-0.092	0.077
-644.726	800.000	0.055	0.240
-643.711	-0.500	0.154	-0.109
-642.697	-70.756	0.161	-0.061
-641.682	124.807	0.171	-0.216
-640.668	-28.203	-0.179	-0.104
-639.653	-153.478	-0.430	-0.030
-638.638	225.654	-0.113	-0.184
-637.624	-123.659	0.361	0.057
-636.609	800.000	0.057	0.163
-635.595	-200.000	-0.039	0.181
-634.580	69.495	-0.119	-0.123
-633.565	800.000	0.058	-0.183
-632.551	107.711	-0.276	0.329
-631.536	-94.668	0.065	0.018
-630.522	-99.069	-0.202	0.051
-629.507	-94.616	0.273	-0.074
-628.492	170.592	0.125	0.180
-627.478	-12.752	-0.204	0.133
-626.463	-200.000	-0.023	0.439
-625.449	800.000	0.027	0.099
-624.434	338.944	0.103	0.201
-623.419	364.872	0.124	0.250
-622.405	-171.489	0.297	0.010
-621.390	108.194	0.101	0.121
-620.376	18.886	0.175	-0.140
-619.361	162.448	-0.085	-0.120
-618.346	295.458	-0.151	-0.277
-617.332	89.453	0.144	0.161
-616.317	800.000	-0.097	-0.333
-615.303	103.139	0.162	-0.190
-614.288	790.596	-0.121	0.333
-613.273	177.875	-0.204	0.298
-612.259	-200.000	-0.052	-0.320
-611.244	-92.196	-0.385	0.109
-610.230	35.359	-0.044	0.039
-609.215	800.000	0.080	-0.312
-608.201	-81.291	-0.246	0.081
-607.186	21.733	0.101	-0.083
-606.171	-200.000	-0.030	-0.178
-605.157	-200.000	0.004	0.182
-604.142	515.430	0.091	-0.213
-603.128	-133.445	0.220	-0.028
-602.113	-112.284	-0.219	0.044
-601.098	10.928	-0.152	0.116
-600.084	-39.090	-0.143	0.075
-599.069	-71.179	-0.253	0.095
-598.055	-77.278	-0.101	-0.035
-597.040	337.245	-0.090	0.175
-596.025	274.448	-0.081	0.143
-595.011	-143.131	-0.242	0.023
-593.996	-14.519	0.094	-0.060
-592.982	71.882	-0.106	0.110
-591.967	-93.419	0.205	-0.057
-590.952	0.685	-0.269	-0.193
-589.938	202.673	0.044	0.068
-588.923	-101.964	0.290	0.070
-587.909	-44.164	-0.295	0.148
-586.894	800.000	-0.044	0.131
-585.879	-200.000	0.095	-0.494
-584.865	-13.694	0.101	0.066
-583.850	-110.493	0.238	-0.049
-582.836	-16.904	-0.402	0.254
-581.821	-200.000	0.038	0.178
-580.806	-200.000	0.027	0.342
-579.792	-81.684	-0.179	0.059
-578.777	264.981	0.049	-0.086
-577.763	-193.534	0.117	0.001
-576.748	36.005	-0.214	0.188
-575.733	13.976	0.149	0.116
-574.719	181.633	-0.125	-0.184
-573.704	564.296	0.063	0.152
-572.690	39.177	0.352	0.315
-571.675	800.000	-0.030	-0.094
-570.661	80.575	-0.024	0.026
-569.646	98.950	-0.301	-0.348
-568.631	-200.000	-0.028	0.178
-567.617	742.165	-0.024	0.065
-566.602	-72.367	-0.191	-0.071
-565.588	-138.461	-0.491	-0.054
-564.573	224.539	-0.227	-0.367
-563.558	-172.135	0.225	0.007
-562.544	88.061	-0.226	0.251
-561.529	800.000	0.159	0.496
-560.515	-68.812	0.127	0.049
-559.500	-25.300	-0.126	-0.075
-558.485	-129.519	-0.256	-0.035
-557.471	592.153	-0.118	-0.291
-556.456	161.766	0.189	-0.265
-555.442	800.000	-0.051	-0.149
-554.427	217.456	0.076	-0.121
-553.412	30.390	-0.168	0.144
-552.398	-190.798	0.247	0.003
-551.383	303.957	0.055	0.103
-550.369	92.046	-0.264	0.297
-549.354	62.702	0.166	0.166
-548.339	800.000	-0.046	-0.146
-547.325	117.692	0.100	0.123
-546.310	800.000	-0.142	-0.444
-545.296	-200.000	0.035	-0.348
-544.281	-165.740	0.156	-0.007
-543.266	-185.090	0.321	0.005
-542.252	-74.700	-0.076	0.027
-541.237	-55.345	-0.264	-0.119
-540.223	-102.722	0.272	0.065
-539.208	749.006	0.088	-0.236
-538.193	-67.309	-0.344	0.135
-537.179	190.777	-0.142	0.214
-536.164	-200.000	-0.001	0.082
-535.150	-158.603	0.358	0.021
-534.135	75.106	0.009	-0.010
-533.121	-200.000	-0.037	-0.253
-532.106	-200.000	-0.012	-0.250
-531.091	-22.402	-0.242	0.147
-530.077	-72.946	0.491	-0.180
-529.062	-159.548	-0.233	-0.013
-528.048	-47.845	-0.322	-0.156
-527.033	-200.000	0.002	-0.088
-526.018	448.512	0.130	0.286
-525.004	-122.161	0.153	-0.025
-523.989	800.000	0.089	-0.307
-522.975	800.000	0.088	-0.282
-521.960	-74.604	0.139	-0.050
-520.945	-200.000	0.003	-0.092
-519.931	-200.000	-0.007	-0.212
-518.916	-102.806	-0.110	0.026
-517.902	-200.000	-0.012	-0.240
-516.887	-200.000	-0.046	0.371
-515.872	-133.753	-0.141	0.018
-514.858	-200.000	0.032	0.304
-513.843	91.925	-0.059	-0.067
-512.829	-187.292	-0.145	-0.002
-511.814	-84.528	-0.333	0.105
-510.799	-60.588	0.199	0.084
-509.785	57.399	-0.139	-0.135
-508.770	245.385	0.227	-0.382
-507.756	-200.000	-0.051	-0.244
-506.741	800.000	-0.009	-0.029
-505.726	310.370	0.167	-0.312
-504.712	-29.655	-0.253	-0.144
-503.697	-163.525	0.240	0.011
-502.683	-86.907	0.396	-0.121
-501.668	22.787	-0.088	-0.072
-500.653	152.629	0.131	0.178
-499.639	-188.192	-0.157	-0.002
-498.624	-79.011	0.266	0.090
-497.610	121.769	-0.109	0.136
-496.595	-75.243	0.180	0.064
-495.581	-32.984	-0.037	-0.021
-494.566	-200.000	-0.001	-0.085
-493.551	800.000	-0.015	0.048
-492.537	800.000	0.070	0.200
-491.522	-114.234	0.226	-0.044
-490.508	50.719	-0.262	0.247
-489.493	-23.145	-0.122	0.073
-488.478	-200.000	0.010	0.289
-487.464	196.825	-0.164	-0.249
-486.449	174.347	0.131	-0.189
-485.435	800.000	-0.081	0.275
-484.420	-144.980	-0.099	0.009
-483.405	515.113	-0.067	0.156
-482.391	653.514	0.062	0.158
-481.376	-53.991	-0.256	0.116
-480.362	-200.000	0.011	-0.092
-479.347	0.450	-0.174	-0.124
-478.332	-108.961	-0.113	-0.024
-477.318	2.006	-0.133	0.095
-476.303	23.647	0.151	-0.124
-475.289	-107.990	-0.301	-0.065
-474.274	-31.357	-0.170	-0.095
-473.259	11.284	-0.277	-0.211
-472.245	-200.000	-0.014	0.067
-471.230	-0.005	0.135	-0.096
-470.216	18.991	-0.251	0.201
-469.201	-92.197	0.123	-0.035
-468.186	800.000	0.026	-0.097
-467.172	-18.929	-0.139	0.086
-466.157	-200.000	-0.005	0.037
-465.143	-200.000	-0.009	-0.041
-464.128	463.588	0.050	0.110
-463.113	47.591	0.214	-0.199
-462.099	18.343	-0.377	-0.300
-461.084	126.110	-0.110	-0.139
-460.070	47.872	0.114	0.106
-459.055	442.284	-0.111	-0.242
-458.040	-200.000	0.006	-0.249
-457.026	800.000	-0.032	0.116
-456.011	-9.123	-0.092	0.061
-454.997	468.693	0.153	0.341
-453.982	470.103	-0.033	0.074
-452.968	-200.000	-0.007	-0.257
-451.953	-117.882	0.150	0.027
-450.938	-107.910	-0.157	0.034
-449.924	93.915	0.223	-0.252
-448.909	-200.000	0.008	0.122
-447.895	-200.000	0.145	-0.681
-446.880	-200.000	0.012	-0.062
-445.865	-15.018	-0.213	0.136
-444.851	7.904	-0.127	-0.095
-443.836	-37.196	0.083	0.044
-442.822	-6.908	0.076	-0.051
-441.807	29.868	-0.131	0.111
-440.792	-200.000	-0.019	-0.179
-439.778	-200.000	0.044	0.215
-438.763	-48.528	0.325	-0.156
-437.749	800.000	0.106	-0.337
-436.734	-7.338	0.230	0.155
-435.719	30.162	-0.161	-0.137
-434.705	330.876	-0.126	-0.241
-433.690	800.000	0.108	-0.333
-432.676	271.537	-0.081	0.143
-431.661	-127.249	0.155	0.023
-430.646	-200.000	-0.033	0.340
-429.632	-58.873	-0.302	0.130
-428.617	485.646	-0.020	-0.045
-427.603	-7.617	-0.311	0.209
-426.588	-87.243	-0.303	-0.092
-425.573	-111.953	-0.350	-0.070
-424.559	-140.830	0.160	-0.016
-423.544	-28.570	-0.022	0.013
-422.530	-156.264	-0.139	-0.009
-421.515	42.558	0.261	0.236
-420.500	8.645	0.223	0.167
-419.486	104.009	-0.122	0.142
-418.471	-83.647	0.185	0.059
-417.457	800.000	0.110	0.308
-416.442	-90.184	-0.104	-0.030
-415.428	43.129	-0.215	-0.195
-414.413	-200.000	0.021	0.201
-413.398	-100.223	-0.129	0.032
-412.384	-40.242	-0.124	0.064
-411.369	89.678	-0.177	0.196
-410.355	800.000	0.088	0.259
-409.340	175.837	-0.066	0.096
-408.325	-93.005	-0.357	0.099
-407.311	800.000	-0.067	0.202
-406.296	800.000	0.055	-0.194
-405.282	265.521	0.018	-0.031
-404.267	222.091	-0.194	0.310
-403.252	47.035	0.283	0.261
-402.238	-200.000	-0.015	-0.226
-401.223	-9.499	-0.264	0.175
-400.209	-176.257	0.019	-0.001
-399.194	363.789	-0.137	-0.274
-398.179	322.441	0.119	0.225
-397.165	129.016	0.253	-0.321
-396.150	800.000	0.060	0.251
-395.136	800.000	-0.041	0.154
-394.121	272.264	0.233	0.408
-393.106	-11.637	0.195	-0.128
-392.092	184.320	0.132	-0.194
-391.077	-9.775	-0.208	-0.138
-390.063	206.948	0.111	-0.172
-389.048	-7.534	-0.112	0.076
-388.033	-128.098	-0.254	-0.036
-387.019	-73.946	-0.276	-0.100
-386.004	212.503	0.030	0.047
-384.990	110.809	-0.224	-0.268
-383.975	65.723	0.354	-0.356
-382.960	-200.000	-0.001	0.252
-381.946	-200.000	-0.003	-0.053
-380.931	-142.819	-0.251	-0.024
-379.917	35.142	-0.218	0.190
-378.902	-200.000	0.002	-0.227
-377.888	-29.121	0.079	0.045
-376.873	-198.444	0.267	-0.002
-375.858	-20.601	0.146	0.089
-374.844	-63.272	-0.198	-0.081
-373.829	120.392	0.187	-0.230
-372.815	-158.412	-0.110	0.006
-371.800	-188.058	-0.053	0.001
-370.785	198.904	0.146	-0.221
-369.771	800.000	0.051	0.171
-368.756	-194.552	0.165	0.001
-367.742	-200.000	0.017	0.093
-366.727	-51.026	0.330	-0.154
-365.712	800.000	-0.119	-0.368
-364.698	-123.196	0.322	0.051
-363.683	-11.653	0.289	0.188
-362.669	-149.604	-0.210	0.016
-361.654	-34.442	-0.136	0.074
-360.639	127.684	0.118	0.148
-359.625	-137.509	0.226	0.025
-358.610	-72.436	-0.110	0.040
-357.596	-200.000	-0.017	0.123
-356.581	-200.000	0.037	0.239
-355.566	46.178	0.072	0.067
-354.552	55.096	0.271	0.260
-353.537	-200.000	-0.012	0.062
-352.523	-182.750	0.109	-0.002
-351.508	-163.321	-0.306	0.014
-350.493	-200.000	-0.095	-0.463
-349.479	190.590	0.268	0.400
-348.464	-107.742	0.134	0.029
-347.450	-200.000	0.004	0.035
-346.435	-143.717	0.221	0.021
-345.420	112.335	-0.122	0.146
-344.406	-200.000	0.063	0.313
-343.391	147.890	0.254	-0.339
-342.377	349.909	-0.125	0.245
-341.362	-125.193	-0.215	0.033
-340.348	30.302	-0.145	0.122
-339.333	800.000	-0.101	-0.298
-338.318	-200.000	-0.008	0.179
-337.304	800.000	0.090	0.292
-336.289	72.391	0.137	0.141
-335.275	93.290	0.142	0.160
-334.260	-163.421	0.430	0.020
-333.245	-4.151	0.067	-0.046
-332.231	356.864	-0.103	-0.203
-331.216	800.000	-0.046	0.195
-330.202	-69.610	0.235	0.089
-329.187	800.000	0.075	0.308
-328.172	-134.483	-0.327	-0.040
-327.158	-67.995	-0.247	0.095
-326.143	-55.377	0.170	0.076
-325.129	112.778	-0.245	-0.294
-324.114	-200.000	0.008	-0.124
-323.099	-77.761	0.057	0.020
-322.085	-123.282	-0.023	-0.004
-321.070	-0.202	0.111	0.078
-320.056	800.000	-0.041	-0.169
-319.041	245.615	-0.194	-0.324
-318.026	109.397	0.133	-0.158
-317.012	800.000	-0.076	-0.268
-315.997	-34.914	0.023	0.012
-314.983	65.994	-0.196	-0.196
-313.968	-101.987	-0.318	0.076
-312.953	66.657	0.165	0.166
-311.939	-200.000	0.008	-0.054
-310.924	36.429	0.125	0.109
-309.910	-75.404	0.259	-0.091
-308.895	800.000	0.098	0.284
-307.880	349.222	-0.043	0.084
-306.866	175.069	-0.018	0.025
-305.851	495.304	-0.059	0.135
-304.837	-98.030	-0.184	0.047
-303.822	395.749	0.121	-0.250
-302.807	488.750	-0.073	0.166
-301.793	120.339	0.198	0.243
-300.778	-1.591	-0.032	0.022
-299.764	-103.103	-0.088	-0.021
-298.749	-135.215	0.022	0.003
-297.735	800.000	-0.090	0.262
-296.720	-187.478	-0.399	0.005
-295.705	800.000	-0.075	0.249
-294.691	-107.042	0.284	0.062
-293.676	124.424	-0.115	-0.144
-292.662	-189.781	0.124	-0.001
-291.647	800.000	-0.115	-0.362
-290.632	-94.256	-0.116	-0.031
-289.618	394.342	-0.110	0.227
-288.603	800.000	-0.128	0.370
-287.589	679.897	0.085	-0.218
-286.574	-6.372	0.335	-0.226
-285.559	760.587	-0.022	0.058
-284.545	119.315	0.094	0.115
-283.530	-200.000	-0.013	0.219
-282.516	28.788	-0.182	-0.153
-281.501	-156.331	0.311	0.019
-280.486	212.206	0.147	0.230
-279.472	723.847	0.057	-0.149
-278.457	26.406	-0.079	0.066
-277.443	345.503	-0.112	-0.218
-276.428	129.126	0.144	0.182
-275.413	357.695	-0.096	0.190
-274.399	215.392	0.081	0.127
-273.384	-200.000	-0.228	0.000
-272.370	-200.000	0.031	0.419
-271.355	176.096	-0.140	-0.202
-270.340	-42.267	0.190	0.096
-269.326	-102.330	0.073	-0.017
-268.311	65.242	-0.432	-0.432
-267.297	-200.000	-0.002	-0.200
-266.282	3.481	0.263	-0.190
-265.267	-146.060	-0.376	-0.033
-264.253	800.000	0.040	-0.112
-263.238	-122.256	0.224	-0.036
-262.224	249.088	0.315	-0.528
-261.209	-200.000	0.036	0.168
-260.195	-162.601	-0.301	0.015
-259.180	288.681	0.195	-0.349
-258.165	558.333	0.065	0.155
-257.151	61.584	-0.159	-0.157
-256.136	-126.201	-0.310	-0.046
-255.122	20.571	-0.178	0.142
-254.107	-200.000	-0.025	-0.157
-253.092	401.755	-0.161	-0.335
-252.078	-200.000	-0.024	0.109
-251.063	-200.000	-0.033	0.225
-250.049	130.256	0.008	-0.010
-249.034	209.700	0.171	0.265
-248.019	-200.000	0.019	-0.095
-247.005	-59.655	-0.104	0.044
-245.990	-200.000	0.005	0.321
-244.976	-76.247	0.213	0.074
-243.961	-14.723	0.299	0.190
-242.946	728.315	-0.047	0.124
-241.932	-102.016	0.185	0.044
-240.917	-76.120	0.283	0.099
-239.903	20.577	-0.220	-0.176
-238.888	-54.543	-0.258	0.115
-237.873	-58.505	-0.226	0.097
-236.859	800.000	0.021	-0.065
-235.844	172.778	0.379	-0.539
-234.830	-130.046	0.142	0.019
-233.815	-5.953	-0.236	-0.160
-232.800	118.189	0.211	0.257
-231.786	280.744	0.107	-0.189
-230.771	-63.486	0.381	-0.155
-229.757	-70.248	0.303	0.114
-228.742	-92.368	-0.136	0.038
-227.727	-73.704	0.323	-0.116
-226.713	260.892	0.168	0.287
-225.698	41.913	0.295	-0.264
-224.684	-111.872	0.208	-0.041
-223.669	79.517	-0.127	0.135
-222.655	800.000	-0.123	0.415
-221.640	-25.161	0.144	-0.084
-220.625	74.692	-0.117	-0.121
-219.611	-53.298	0.158	0.071
-218.596	-57.313	-0.168	-0.073
-217.582	171.845	0.066	0.093
-216.567	444.041	-0.144	0.312
-215.552	-62.198	0.085	0.035
-214.538	528.184	0.072	0.168
-213.523	648.131	0.076	-0.191
-212.509	-200.000	-0.061	0.286
-211.494	-58.225	0.198	0.085
-210.479	60.140	0.062	0.061
-209.465	-93.385	0.216	-0.059
-208.450	140.166	-0.151	-0.196
-207.436	-200.000	-0.007	-0.350
-206.421	-200.000	0.058	0.267
-205.406	-152.533	-0.270	-0.019
-204.392	-140.625	0.199	0.020
-203.377	516.792	0.096	-0.222
-202.363	-200.000	-0.058	-0.442
-201.348	4.009	-0.135	-0.097
-200.333	-122.330	0.285	-0.046
-199.319	800.000	0.107	0.314
-198.304	-108.297	-0.298	0.063
-197.290	123.303	0.215	-0.266
-196.275	-200.000	-0.026	-0.151
-195.260	-117.428	-0.351	-0.063
-194.246	-106.762	0.161	0.035
-193.231	-47.709	0.259	-0.124
-192.217	238.227	0.160	-0.262
-191.202	100.270	0.168	-0.192
-190.187	662.633	-0.067	0.171
-189.173	-100.357	0.327	0.080
-188.158	-200.000	0.052	0.335
-187.144	-49.794	-0.279	-0.131
-186.129	66.303	-0.415	-0.416
-185.114	-200.000	0.010	0.181
-184.100	-67.270	0.131	-0.051
-183.085	-47.438	0.321	0.154
-182.071	225.626	0.078	-0.125
-181.056	88.423	-0.164	0.180
-180.042	-117.920	0.247	-0.044
-179.027	-170.013	0.362	0.013
-178.012	-200.000	0.026	-0.379
-176.998	-200.000	0.002	0.157
-175.983	-200.000	0.037	-0.208
-174.969	-200.000	0.004	-0.125
-173.954	248.820	-0.060	-0.100
-172.939	-200.000	-0.026	-0.192
-171.925	288.180	0.095	-0.170
-170.910	-5.324	-0.065	-0.044
-169.896	-200.000	-0.006	0.211
-168.881	164.872	0.162	0.226
-167.866	-134.865	0.364	0.043
-166.852	-65.679	0.193	0.076
-165.837	-97.298	0.296	0.076
-164.823	438.905	0.101	-0.216
-163.808	-200.000	0.046	-0.250
-162.793	318.123	-0.026	-0.048
-161.779	-45.886	0.110	-0.053
-160.764	-3.422	-0.184	0.126
-159.750	-52.947	-0.196	0.089
-158.735	800.000	-0.018	-0.052
-157.720	676.972	0.024	-0.061
-156.706	246.351	-0.150	0.249
-155.691	-110.761	-0.114	0.023
-154.677	57.593	-0.096	0.092
-153.662	-114.278	0.149	-0.028
-152.647	-100.550	-0.336	-0.082
-151.633	110.342	0.149	0.177
-150.618	-200.000	-0.083	0.390
-149.604	-200.000	0.027	0.562
-148.589	-200.000	-0.023	0.278
-147.574	800.000	-0.085	-0.346
-146.560	292.976	0.113	0.203
-145.545	800.000	0.056	0.237
-144.531	800.000	0.015	0.056
-143.516	-200.000	0.003	0.304
-142.502	108.755	-0.173	0.203
-141.487	57.788	-0.088	0.084
-140.472	-2.236	0.471	-0.325
-139.458	64.120	-0.099	-0.098
-138.443	23.198	-0.177	0.143
-137.429	-119.866	-0.385	0.065
-136.414	-147.750	0.093	0.008
-135.399	304.091	0.025	-0.045
-134.385	57.800	-0.108	0.104
-133.370	-200.000	0.015	0.096
-132.356	800.000	-0.153	-0.443
-131.341	-130.614	0.290	-0.038
-130.326	-200.000	-0.005	-0.183
-129.312	-169.183	-0.221	-0.008
-128.297	-59.532	-0.285	-0.120
-127.283	215.757	0.116	-0.181
-126.268	-31.357	-0.152	0.084
-125.253	800.000	0.027	-0.083
-124.239	800.000	0.040	0.170
-123.224	-200.000	0.003	-0.051
-122.210	-53.925	-0.087	0.039
-121.195	800.000	-0.035	0.127
-120.180	-200.000	-0.034	-0.365
-119.166	-112.495	-0.373	0.073
-118.151	-200.000	0.009	-0.208
-117.137	-9.219	0.237	-0.156
-116.122	-121.161	-0.238	0.039
-115.107	282.233	0.206	0.363
-114.093	-178.632	-0.160	-0.004
-113.078	85.156	-0.272	-0.294
-112.064	368.782	0.093	0.184
-111.049	-97.253	0.186	0.048
-110.034	-20.633	0.067	0.040
-109.020	88.001	0.200	0.217
-108.005	49.626	0.195	-0.180
-106.991	53.375	0.177	0.167
-105.976	-52.629	-0.350	-0.159
-104.962	-200.000	-0.074	-0.461
-103.947	-93.653	0.280	0.076
-102.932	541.842	0.158	0.370
-101.918	452.396	0.113	-0.246
-100.903	-200.000	-0.017	0.087
-99.889	800.000	0.037	0.126
-98.874	727.107	-0.029	-0.075
-97.859	-120.748	0.428	0.071
-96.845	-7.194	0.165	0.110
-95.830	800.000	0.082	0.225
-94.816	360.715	0.056	0.110
-93.801	-146.976	-0.221	0.019
-92.786	-200.000	-0.070	-0.436
-91.772	-170.237	-0.281	0.010
-90.757	249.627	-0.166	0.277
-89.743	-200.000	0.001	0.096
-88.728	-168.279	0.056	-0.002
-87.713	248.178	-0.110	0.182
-86.699	8.036	-0.328	-0.242
-85.684	473.358	-0.132	0.291
-84.670	-84.091	-0.287	-0.089
-83.655	21.525	0.148	0.119
-82.640	-149.451	0.358	0.028
-81.626	-200.000	0.034	0.313
-80.611	-146.316	0.062	0.005
-79.597	-200.000	-0.019	0.455
-78.582	27.427	-0.108	-0.089
-77.567	-120.449	0.552	-0.092
-76.553	247.342	-0.027	-0.044
-75.538	-183.122	0.234	-0.004
-74.524	-118.809	0.110	0.019
-73.509	166.546	0.074	0.103
-72.494	-78.235	0.511	0.172
-71.480	258.202	0.028	-0.047
-70.465	-124.975	0.162	-0.025
-69.451	-200.000	-0.029	-0.129
-68.436	144.675	0.166	0.218
-67.422	-0.913	-0.065	0.045
-66.407	-147.110	0.435	0.036
-65.392	800.000	-0.024	0.101
-64.378	800.000	-0.103	-0.297
-63.363	26.368	-0.093	0.076
-62.349	800.000	-0.071	0.246
-61.334	28.462	-0.904	-0.749
-60.319	800.000	0.322	0.951
-59.305	800.000	-0.280	-1.065
-58.290	268.878	0.567	0.976
-57.276	800.000	0.453	1.619
-56.261	-200.000	98.163	591.663
-55.246	529.020	1394.971	3228.950
-54.232	159.610	2572.102	3511.083
-53.217	105.478	2265.177	2624.474
-52.203	40.687	1891.529	1671.977
-51.188	34.704	1682.373	1442.045
-50.173	32.135	1638.742	1385.667
-49.159	50.133	1687.482	1561.957
-48.144	51.364	1704.181	1586.565
-47.130	34.401	1664.462	1424.200
-46.115	31.704	1650.039	1391.795
-45.100	31.556	1645.229	1386.588
-44.086	31.443	1642.693	1383.556
-43.071	31.474	1640.350	1381.758
-42.057	31.481	1637.765	1379.576
-41.042	31.419	1636.207	1377.755
-40.027	31.437	1633.944	1375.926
-39.013	31.421	1631.864	1374.005
-37.998	31.346	1630.834	1372.531
-36.984	31.477	1629.434	1372.255
-35.969	31.490	1627.749	1370.876
-34.954	31.488	1626.627	1369.863
-33.940	31.487	1624.325	1367.868
-32.925	31.414	1622.792	1365.987
-31.911	31.460	1621.377	1365.078
-30.896	31.487	1619.171	1363.360
-29.881	31.474	1617.812	1362.069
-28.867	31.563	1616.028	1361.162
-27.852	31.530	1614.653	1359.709
-26.838	31.520	1613.230	1358.384
-25.823	31.485	1611.764	1356.841
-24.809	31.544	1610.658	1356.282
-23.794	31.611	1608.545	1354.938
-22.779	31.554	1607.998	1354.008
-21.765	31.578	1606.085	1352.521
-20.750	31.454	1604.859	1350.537
-19.736	31.451	1603.704	1349.491
-18.721	31.593	1601.785	1348.844
-17.706	31.529	1600.605	1347.333
-16.692	31.559	1598.968	1346.120
-15.677	31.585	1597.585	1345.091
-14.663	31.669	1595.704	1344.053
-13.648	31.622	1594.780	1342.886
-12.633	31.548	1593.489	1341.214
-11.619	31.560	1591.946	1339.952
-10.604	31.514	1590.330	1338.206
-9.590	31.608	1589.187	1337.863
-8.575	31.588	1587.514	1336.262
-7.560	31.545	1587.150	1335.593
-6.546	31.466	1586.012	1334.020
-5.531	31.560	1584.173	1333.089
-4.517	31.576	1583.531	1332.613
-3.502	31.554	1581.976	1331.090
-2.487	31.592	1580.752	1330.282
-1.473	31.301	1568.532	1317.891
-0.458	28.371	1548.904	1280.896
0.556	22.837	1549.982	1248.717
1.571	20.460	1573.621	1250.556
2.586	19.951	1586.847	1257.259
3.600	18.142	1534.612	1203.054
4.615	10.097	1425.242	1064.444
5.629	1.938	1359.200	963.637
6.644	0.171	1350.333	946.168
7.659	0.042	1349.475	944.671
8.673	-0.070	1348.384	943.123
9.688	0.057	1346.019	942.180
10.702	-0.140	1343.201	938.896
11.717	3.693	1349.706	967.395
12.731	12.476	1363.419	1032.511
13.746	17.695	1369.816	1070.104
14.761	17.400	1368.162	1066.869
15.775	16.313	1365.117	1057.595
16.790	15.251	1362.528	1048.855
17.804	14.298	1361.008	1041.634
18.819	14.034	1359.477	1038.720
19.834	13.831	1357.852	1036.120
20.848	13.553	1356.229	1033.055
21.863	13.302	1355.404	1030.774
22.877	13.136	1354.264	1028.779
23.892	13.113	1353.175	1027.716
24.907	13.155	1352.153	1027.112
25.921	13.157	1351.540	1026.567
26.936	13.203	1350.692	1026.119
27.950	13.267	1349.594	1025.590
28.965	13.272	1348.856	1024.973
29.980	13.279	1347.823	1024.142
30.994	13.250	1347.126	1023.338
32.009	13.342	1346.130	1023.059
33.023	13.410	1344.683	1022.288
34.038	13.225	1343.702	1020.310
35.053	13.270	1342.499	1019.586
36.067	13.246	1341.885	1018.883
37.082	13.325	1340.749	1018.414
38.096	13.312	1340.079	1017.737
39.111	13.287	1339.087	1016.740
40.126	13.141	1338.462	1015.276
41.140	13.146	1337.643	1014.597
42.155	13.237	1336.971	1014.555
43.169	13.145	1336.761	1013.743
44.184	13.178	1336.526	1013.675
45.199	13.082	1336.277	1012.809
46.213	13.170	1335.576	1012.728
47.228	13.214	1334.913	1012.408
48.242	13.185	1333.864	1011.342
49.257	13.253	1332.273	1010.464
50.271	13.290	1330.144	1008.986
51.286	13.304	1329.172	1008.246
52.301	13.255	1328.421	1007.288
53.315	13.143	1327.236	1005.616
54.330	13.194	1325.849	1004.788
55.344	13.186	1324.783	1003.844
56.359	13.138	1323.900	1002.791
57.374	13.136	1323.237	1002.190
58.388	13.116	1322.090	1001.107
59.403	13.074	1321.732	1000.494
60.417	13.064	1321.021	999.808
61.432	13.009	1320.213	998.776
62.447	13.029	1318.769	997.718
63.461	13.048	1317.713	996.944
64.476	12.959	1317.124	995.871
65.490	12.982	1315.782	994.910
66.505	13.044	1313.987	993.837
67.520	13.050	1312.646	992.771
68.534	13.054	1312.128	992.313
69.549	13.078	1310.916	991.454
70.563	13.018	1309.928	990.261
71.578	13.032	1308.908	989.486
72.593	12.882	1307.939	987.766
73.607	12.840	1307.172	986.845
74.622	12.856	1306.245	986.155
75.636	13.029	1305.244	986.346
76.651	12.966	1304.759	985.518
77.666	12.977	1304.188	985.062
78.680	13.016	1303.534	984.718
79.695	12.859	1302.857	983.182
80.709	12.991	1302.246	983.422
81.724	12.997	1301.274	982.634
82.739	13.053	1300.204	982.072
83.753	13.200	1299.119	982.039
84.768	13.173	1298.124	981.039
85.782	13.135	1297.367	980.157
86.797	13.272	1295.774	979.677
87.812	13.199	1294.591	978.263
88.826	13.256	1293.101	977.390
89.841	13.289	1292.287	976.885
90.855	13.208	1291.923	976.041
91.870	13.212	1290.632	975.004
92.884	13.244	1289.517	974.264
93.899	13.278	1289.319	974.228
94.914	13.370	1288.098	973.762
95.928	13.276	1287.530	972.691
96.943	13.337	1286.403	972.116
97.957	13.245	1285.641	970.914
98.972	13.295	1284.244	970.067
99.987	13.267	1283.566	969.302
101.001	13.251	1282.759	968.513
102.016	13.188	1281.821	967.350
103.030	13.276	1280.984	967.149
104.045	13.260	1280.117	966.312
105.060	13.257	1278.674	965.120
106.074	13.201	1277.629	963.924
107.089	13.144	1276.122	962.367
108.103	13.194	1274.514	961.359
109.118	13.145	1273.352	960.114
110.133	13.111	1272.435	959.142
111.147	13.076	1270.996	957.768
112.162	13.151	1269.954	957.330
113.176	13.213	1269.089	956.956
114.191	13.229	1268.073	956.194
115.206	13.202	1267.269	955.347
116.220	13.140	1266.017	953.961
117.235	13.196	1264.623	953.151
118.249	13.103	1264.140	952.168
119.264	13.104	1263.232	951.404
120.279	13.048	1261.889	949.988
121.293	13.041	1261.026	949.210
122.308	13.022	1259.907	948.175
123.322	13.043	1259.109	947.611
124.337	13.184	1257.926	947.445
125.352	13.120	1256.645	946.030
126.366	13.211	1255.213	945.390
127.381	13.083	1254.305	943.895
128.395	13.124	1253.841	943.696
129.410	13.078	1252.500	942.337
130.424	13.218	1251.795	942.524
131.439	13.242	1251.132	942.078
132.454	13.050	1250.323	940.291
133.468	13.113	1249.245	939.755
134.483	13.171	1248.120	939.155
135.497	13.195	1247.378	938.653
136.512	13.133	1246.096	937.252
137.527	13.148	1244.818	936.294
138.541	13.196	1243.191	935.258
139.556	13.314	1241.565	934.620
140.570	13.312	1241.029	934.122
141.585	13.338	1239.786	933.250
142.600	13.304	1238.718	932.169
143.614	13.415	1237.367	931.695
144.629	13.459	1236.602	931.288
145.643	13.465	1235.410	930.339
146.658	13.290	1234.783	928.800
147.673	13.250	1233.502	927.534
148.687	13.180	1232.152	926.041
149.702	13.202	1230.951	925.184
150.716	13.163	1229.790	924.007
151.731	13.290	1228.530	923.691
152.746	13.320	1227.030	922.651
153.760	13.349	1226.003	921.954
154.775	13.447	1225.006	921.671
155.789	13.332	1223.913	920.126
156.804	13.441	1222.752	919.779
157.819	13.470	1221.574	918.970
158.833	13.446	1221.124	918.421
159.848	13.525	1219.918	917.865
160.862	13.566	1219.293	917.543
161.877	13.462	1218.037	915.939
162.892	13.269	1217.254	914.203
163.906	13.397	1216.213	914.050
164.921	13.422	1215.536	913.597
165.935	13.441	1214.372	912.748
166.950	13.457	1213.825	912.341
167.964	13.496	1213.075	911.912
168.979	13.496	1212.229	911.199
169.994	13.415	1211.779	910.334
171.008	13.531	1210.472	909.906
172.023	13.506	1210.113	909.417
173.037	13.601	1209.078	909.084
174.052	13.508	1208.313	907.916
175.067	13.556	1206.830	906.986
176.081	13.465	1206.119	905.874
177.096	13.545	1205.023	905.405
178.110	13.439	1204.306	904.208
179.125	13.637	1202.758	904.047
180.140	13.560	1201.745	902.788
181.154	13.616	1200.430	902.021
182.169	13.593	1199.512	901.130
183.183	13.713	1198.176	900.698
184.198	13.749	1197.055	899.971
185.213	13.709	1195.986	898.871
186.227	13.712	1195.172	898.194
187.242	13.815	1193.915	897.727
188.256	13.889	1193.056	897.403
189.271	13.770	1191.946	895.844
190.286	13.597	1191.117	894.209
191.300	13.493	1190.168	892.856
192.315	13.567	1189.962	893.021
193.329	13.630	1188.946	892.520
194.344	13.558	1188.523	891.736
195.359	13.772	1187.672	892.170
196.373	13.763	1187.281	891.751
197.388	13.813	1186.549	891.387
198.402	13.804	1186.445	891.184
199.417	13.910	1185.315	890.826
200.432	13.927	1184.791	890.444
201.446	14.124	1183.616	890.533
202.461	13.960	1183.077	889.172
203.475	14.045	1181.822	888.605
204.490	13.954	1180.910	887.353
205.504	14.015	1179.331	886.414
206.519	13.989	1178.002	885.199
207.534	14.041	1176.860	884.538
208.548	13.955	1175.913	883.295
209.563	13.991	1174.912	882.653
210.577	13.962	1174.835	882.363
211.592	14.070	1173.680	881.991
212.607	14.078	1172.869	881.349
213.621	14.107	1172.003	880.769
214.636	14.079	1171.490	880.161
215.650	14.014	1170.455	878.961
216.665	14.158	1169.152	878.665
217.680	14.211	1168.580	878.439
218.694	14.196	1167.841	877.722
219.709	14.157	1167.085	876.871
220.723	14.280	1165.888	876.544
221.738	14.283	1165.547	876.227
222.753	14.232	1164.772	875.295
223.767	14.341	1163.991	875.209
224.782	14.341	1163.385	874.670
225.796	14.297	1162.705	873.855
226.811	14.355	1161.998	873.548
227.826	14.394	1160.825	872.793
228.840	14.261	1160.507	871.783
229.855	14.308	1159.831	871.444
230.869	14.291	1159.025	870.672
231.884	14.333	1158.433	870.369
232.899	14.238	1157.517	869.108
233.913	14.245	1156.727	868.471
234.928	14.252	1155.918	867.823
235.942	14.184	1155.280	866.917
236.957	14.394	1154.272	867.176
237.972	14.339	1153.365	866.130
238.986	14.285	1153.194	865.647
240.001	14.362	1152.737	865.626
241.015	14.301	1151.612	864.388
242.030	14.328	1150.803	863.844
243.045	14.405	1150.010	863.574
244.059	14.443	1149.137	863.037
245.074	14.569	1148.449	863.098
246.088	14.485	1147.516	861.882
247.103	14.384	1147.086	860.962
248.117	14.463	1146.395	860.778
249.132	14.599	1145.469	860.705
250.147	14.695	1144.842	860.654
251.161	14.745	1144.043	860.233
252.176	14.657	1143.783	859.511
253.190	14.730	1143.178	859.352
254.205	14.738	1142.461	858.778
255.220	14.883	1141.603	858.802
256.234	14.809	1141.033	857.922
257.249	14.813	1140.411	857.397
258.263	14.811	1139.493	856.619
259.278	14.929	1138.718	856.567
260.293	14.936	1138.216	856.147
261.307	14.897	1138.111	855.794
262.322	15.020	1137.091	855.580
263.336	14.932	1136.931	854.933
264.351	15.001	1136.197	854.659
265.366	15.005	1135.065	853.751
266.380	15.071	1134.470	853.566
267.395	15.023	1133.345	852.400
268.409	14.958	1132.834	851.609
269.424	15.024	1132.045	851.278
270.439	14.955	1131.738	850.619
271.453	14.985	1131.069	850.195
272.468	14.989	1129.950	849.300
273.482	14.965	1129.600	848.840
274.497	14.955	1129.318	848.502
275.512	15.077	1127.909	847.982
276.526	15.091	1127.217	847.459
277.541	15.097	1126.623	846.967
278.555	15.031	1126.047	846.125
279.570	15.106	1125.402	845.948
280.585	15.192	1124.626	845.722
281.599	15.183	1123.399	844.678
282.614	15.078	1122.683	843.537
283.628	15.194	1121.448	843.119
284.643	15.205	1120.743	842.569
285.657	15.104	1120.285	841.643
286.672	15.203	1119.013	841.108
287.687	15.292	1117.634	840.446
288.701	15.218	1117.562	839.945
289.716	15.296	1116.303	839.315
290.730	15.187	1116.224	838.637
291.745	15.309	1115.011	838.260
292.760	15.298	1114.926	838.069
293.774	15.349	1113.761	837.374
294.789	15.375	1113.366	837.132
295.803	15.307	1113.268	836.642
296.818	15.289	1112.151	835.642
297.833	15.313	1111.381	835.106
298.847	15.397	1110.453	834.753
299.862	15.437	1109.527	834.183
300.876	15.430	1108.959	833.645
301.891	15.446	1108.600	833.385
302.906	15.481	1107.630	832.753
303.920	15.445	1107.016	832.041
304.935	15.585	1106.058	831.942
305.949	15.448	1105.882	831.057
306.964	15.687	1104.852	831.390
307.979	15.589	1104.156	830.308
308.993	15.595	1103.292	829.614
310.008	15.786	1102.622	829.983
311.022	15.694	1102.275	829.192
312.037	15.647	1101.348	828.189
313.052	15.481	1100.776	826.866
314.066	15.605	1099.857	826.713
315.081	15.503	1098.670	825.246
316.095	15.492	1098.319	824.857
317.110	15.469	1097.507	824.064
318.125	15.648	1096.292	823.955
319.139	15.454	1095.980	822.697
320.154	15.542	1095.129	822.414
321.168	15.656	1094.439	822.381
322.183	15.728	1093.670	822.085
323.197	15.659	1093.158	821.287
324.212	15.757	1092.237	821.004
325.227	15.718	1092.340	820.816
326.241	15.771	1091.364	820.270
327.256	15.667	1090.814	819.277
328.270	15.664	1089.695	818.351
329.285	15.829	1088.606	818.260
330.300	15.774	1087.946	817.424
331.314	15.690	1087.456	816.579
332.329	15.747	1085.965	815.663
333.343	15.876	1084.892	815.408
334.358	15.790	1084.508	814.629
335.373	15.878	1083.804	814.455
336.387	15.767	1083.532	813.643
337.402	15.937	1082.452	813.580
338.416	16.053	1081.536	813.378
339.431	15.941	1080.909	812.299
340.446	15.882	1080.883	811.920
341.460	16.002	1080.230	811.938
342.475	16.013	1078.901	810.919
343.489	16.186	1077.624	810.719
344.504	16.049	1077.115	809.605
345.519	16.108	1076.460	809.326
346.533	16.085	1075.702	808.573
347.548	16.244	1075.077	808.794
348.562	16.178	1073.970	807.575
349.577	16.144	1073.599	807.061
350.592	16.098	1072.625	806.036
351.606	16.038	1072.147	805.320
352.621	15.981	1071.632	804.589
353.635	16.052	1070.830	804.255
354.650	16.117	1070.089	803.938
355.665	16.099	1069.384	803.253
356.679	16.110	1068.628	802.665
357.694	16.193	1068.186	802.656
358.708	16.183	1067.202	801.801
359.723	16.268	1066.942	801.936
360.738	16.282	1065.975	801.205
361.752	16.242	1065.493	800.580
362.767	16.188	1065.219	800.051
363.781	16.350	1064.441	800.160
364.796	16.477	1063.946	800.320
365.810	16.269	1063.540	798.962
366.825	16.359	1062.845	798.793
367.840	16.609	1061.956	799.236
368.854	16.548	1061.400	798.457
369.869	16.512	1060.719	797.706
370.883	16.514	1059.990	797.094
371.898	16.447	1059.254	796.158
372.913	16.459	1059.010	795.957
373.927	16.522	1058.291	795.645
374.942	16.507	1057.969	795.262
375.956	16.480	1057.341	794.590
376.971	16.533	1056.629	794.237
377.986	16.609	1056.353	794.315
379.000	16.598	1055.773	793.757
380.015	16.732	1054.844	793.614
381.029	16.586	1054.850	792.864
382.044	16.708	1053.818	792.591
383.059	16.774	1053.097	792.287
384.073	16.762	1052.053	791.374
385.088	16.781	1051.089	790.669
386.102	16.834	1050.013	790.035
387.117	16.814	1048.938	789.063
388.132	16.714	1048.423	788.144
389.146	16.709	1048.116	787.820
390.161	16.658	1047.525	787.066
391.175	16.716	1046.327	786.365
392.190	16.809	1045.559	786.153
393.205	16.765	1045.033	785.482
394.219	16.865	1044.000	785.100
395.234	16.925	1043.301	784.780
396.248	16.809	1042.487	783.564
397.263	16.798	1041.365	782.598
398.278	16.843	1040.702	782.239
399.292	16.809	1040.243	781.669
400.307	16.744	1039.136	780.468
401.321	16.712	1039.115	780.235
402.336	16.761	1038.569	779.985
403.350	16.805	1037.353	779.203
404.365	16.950	1036.547	779.196
405.380	17.037	1036.057	779.159
406.394	16.960	1035.354	778.206
407.409	17.031	1034.531	777.846
408.423	17.006	1034.147	777.373
409.438	17.187	1033.062	777.315
410.453	17.221	1032.454	776.945
411.467	17.170	1032.071	776.358
412.482	17.217	1031.025	775.716
413.496	17.118	1030.627	774.895
414.511	17.210	1030.064	774.822
415.526	17.265	1029.781	774.790
416.540	17.183	1029.385	774.051
417.555	17.174	1029.211	773.813
418.569	17.362	1028.144	773.795
419.584	17.279	1027.703	773.018
420.599	17.313	1027.011	772.586
421.613	102.587	1319.968	1463.119
422.628	93.794	1362.622	1463.218
