DTS Sentinel unit serial number:	SN413079Multiplexer serial number:	ORYXHardware model number:	OX4-SRSoftware version number:	ORYX F/W v4.00 Oryx Data Collector v3.7.2.0data status	okinstallation	princeton_trtdifferential loss correction	single-endedforward channel	channel 2reverse channel	N/Adate	2019/09/16time	14:47:35forward acquisition time	60.00reverse acquisition time	0.00gamma	496.2192k internal	0.2299k external	0.2299temperature offset calibration	0.9940default loss term (dB/km)	0.3790temperature slope calibration	1.0000multiplexer offset coefficient	1.0000multiplexer slope coefficient	1.0000fibre end	0.00T internal ref (°C)	41.50T ext. ref 1 (°C)	14.36T ext. ref 2 (°C)	35.65length (m)	temperature (°C)	Stokes	anti-Stokes-747.200	97.660	-0.146	0.171
-746.185	-200.000	-0.102	0.558
-745.171	800.000	-0.059	-0.245
-744.156	326.018	-0.101	0.198
-743.142	-42.556	0.100	0.052
-742.127	-200.000	-0.111	0.507
-741.112	-33.084	0.134	0.076
-740.098	-66.083	-0.224	0.091
-739.083	-185.120	-0.109	-0.002
-738.069	-200.000	-0.016	0.355
-737.054	-5.348	0.201	-0.141
-736.039	-32.521	-0.252	-0.143
-735.025	211.799	0.050	0.080
-734.010	174.665	-0.192	0.284
-732.996	10.905	0.124	-0.097
-731.981	-81.042	0.090	-0.030
-730.966	-200.000	0.002	0.137
-729.952	-114.414	-0.444	0.087
-728.937	426.861	0.047	-0.104
-727.923	-200.000	0.010	-0.090
-726.908	-179.810	-0.145	0.003
-725.894	-44.115	-0.306	0.157
-724.879	-39.591	-0.100	0.054
-723.864	167.574	-0.096	-0.138
-722.850	119.297	0.092	0.115
-721.835	800.000	0.050	0.166
-720.821	-101.880	-0.558	0.137
-719.806	-92.055	0.148	-0.043
-718.791	-200.000	0.020	0.362
-717.777	150.811	0.178	-0.246
-716.762	-120.528	0.336	-0.058
-715.748	-121.230	0.065	0.011
-714.733	-105.663	-0.334	0.077
-713.718	-173.582	-0.222	0.007
-712.704	-50.852	-0.127	-0.061
-711.689	11.972	-0.190	0.149
-710.675	-36.634	-0.115	-0.063
-709.660	-20.520	0.148	0.093
-708.645	-7.619	-0.207	-0.143
-707.631	-142.456	-0.417	-0.042
-706.616	-144.049	-0.083	0.008
-705.602	-200.000	-0.026	0.122
-704.587	800.000	-0.087	0.387
-703.572	-200.000	-0.005	0.267
-702.558	232.334	-0.019	0.032
-701.543	-200.000	0.025	0.143
-700.529	-90.326	-0.132	0.039
-699.514	116.982	0.034	0.043
-698.499	158.763	-0.208	0.294
-697.485	-133.862	-0.217	0.027
-696.470	2.290	0.100	0.073
-695.456	-2.760	-0.163	-0.116
-694.441	-134.750	-0.278	-0.034
-693.426	800.000	-0.081	0.356
-692.412	-34.720	-0.130	0.073
-691.397	-195.277	-0.355	-0.003
-690.383	40.986	0.158	-0.145
-689.368	35.395	0.159	0.142
-688.354	267.796	-0.065	-0.116
-687.339	-200.000	-0.008	-0.109
-686.324	-61.305	-0.276	0.118
-685.310	-200.000	0.007	-0.289
-684.295	-29.391	0.114	-0.067
-683.281	-3.729	-0.041	-0.029
-682.266	-126.249	-0.212	-0.032
-681.251	33.923	-0.117	0.104
-680.237	-138.571	-0.173	0.019
-679.222	-113.434	-0.368	0.073
-678.208	-200.000	-0.042	-0.273
-677.193	-200.000	0.046	0.266
-676.178	-200.000	-0.066	0.462
-675.164	472.002	-0.152	0.347
-674.149	133.543	-0.044	-0.057
-673.135	-136.221	0.301	0.036
-672.120	66.696	-0.141	-0.146
-671.105	-27.269	-0.290	0.172
-670.091	-200.000	-0.000	0.224
-669.076	-200.000	-0.011	-0.129
-668.062	-87.677	-0.119	0.036
-667.047	394.127	0.092	-0.194
-666.032	-128.458	0.415	0.060
-665.018	202.935	0.176	0.277
-664.003	-121.918	-0.146	0.024
-662.989	104.086	0.127	0.152
-661.974	448.918	-0.024	0.053
-660.959	-104.225	-0.281	-0.066
-659.945	-144.834	0.115	0.011
-658.930	-200.000	0.019	0.190
-657.916	-99.584	-0.266	0.068
-656.901	190.384	0.134	0.204
-655.886	-200.000	-0.036	0.316
-654.872	-81.444	0.116	0.039
-653.857	68.561	0.175	-0.182
-652.843	273.461	-0.119	-0.214
-651.828	-200.000	0.009	-0.239
-650.814	-200.000	0.022	0.165
-649.799	525.875	0.023	-0.055
-648.784	37.851	0.107	-0.097
-647.770	2.303	0.167	0.122
-646.755	29.477	-0.392	-0.339
-645.741	-107.419	-0.308	0.069
-644.726	800.000	-0.054	0.167
-643.711	277.693	0.134	-0.242
-642.697	800.000	-0.104	0.310
-641.682	-9.512	0.124	-0.084
-640.668	72.304	-0.102	0.108
-639.653	-76.065	0.330	-0.118
-638.638	79.983	0.034	0.037
-637.624	243.237	0.221	-0.377
-636.609	94.532	-0.160	-0.185
-635.595	287.580	-0.097	0.178
-634.580	61.738	0.156	-0.158
-633.565	-200.000	-0.015	-0.101
-632.551	74.699	0.176	0.188
-631.536	-93.547	-0.141	0.040
-630.522	-6.486	-0.273	-0.189
-629.507	374.211	0.116	-0.240
-628.492	197.449	0.092	-0.143
-627.478	301.454	-0.216	-0.406
-626.463	-81.345	0.060	-0.020
-625.449	-32.120	-0.070	-0.040
-624.434	-2.697	0.107	0.076
-623.419	33.032	-0.161	0.141
-622.405	-46.542	-0.156	-0.078
-621.390	-137.879	0.296	0.034
-620.376	800.000	0.088	0.329
-619.361	-105.734	0.153	0.035
-618.346	-1.549	0.234	0.167
-617.332	626.902	-0.100	0.256
-616.317	-129.884	0.249	-0.035
-615.303	22.540	0.062	-0.051
-614.288	-174.941	0.184	-0.005
-613.273	-53.508	0.163	-0.076
-612.259	20.813	-0.139	-0.114
-611.244	-80.066	0.408	0.139
-610.230	371.035	0.112	-0.231
-609.215	-16.933	-0.221	-0.142
-608.201	-21.270	0.113	0.070
-607.186	-200.000	-0.039	-0.530
-606.171	318.202	0.126	-0.242
-605.157	79.594	-0.094	0.102
-604.142	-10.809	0.138	0.093
-603.128	800.000	0.041	-0.171
-602.113	-200.000	-0.057	-0.270
-601.098	-83.143	-0.115	0.037
-600.084	159.883	-0.122	0.172
-599.069	-200.000	0.007	-0.090
-598.055	-142.924	0.200	0.020
-597.040	94.818	-0.150	-0.173
-596.025	97.027	-0.260	-0.302
-595.011	-46.547	-0.496	-0.247
-593.996	17.815	-0.203	0.164
-592.982	-200.000	0.023	-0.493
-591.967	188.711	0.046	0.070
-590.952	-72.851	0.108	0.040
-589.938	-115.288	0.223	0.043
-588.923	-200.000	-0.019	0.204
-587.909	-152.257	0.272	-0.020
-586.894	368.770	0.117	-0.239
-585.879	28.920	-0.106	0.091
-584.865	-200.000	-0.018	0.218
-583.850	-100.715	0.193	-0.048
-582.836	-19.496	0.224	0.141
-581.821	-166.500	-0.232	-0.010
-580.806	59.942	-0.150	-0.150
-579.792	9.499	-0.161	0.124
-578.777	172.010	0.049	-0.071
-577.763	-200.000	0.049	0.266
-576.748	-65.510	-0.107	0.044
-575.733	800.000	0.137	-0.485
-574.719	-111.604	-0.186	0.038
-573.704	-88.748	0.087	0.026
-572.690	-41.468	0.278	-0.145
-571.675	800.000	0.061	0.213
-570.661	181.146	-0.171	0.254
-569.646	-126.972	-0.376	0.056
-568.631	-163.530	-0.231	-0.011
-567.617	-26.576	0.168	-0.100
-566.602	-200.000	0.020	-0.277
-565.588	195.573	-0.122	-0.188
-564.573	12.647	-0.164	-0.128
-563.558	294.754	0.125	-0.231
-562.544	-200.000	0.019	-0.144
-561.529	-200.000	-0.008	0.249
-560.515	45.712	-0.036	-0.034
-559.500	103.584	-0.264	0.314
-558.485	388.881	-0.048	-0.101
-557.471	-52.214	-0.454	0.213
-556.456	800.000	-0.013	-0.042
-555.442	-200.000	0.015	-0.178
-554.427	-9.344	-0.060	0.041
-553.412	81.615	0.180	0.197
-552.398	800.000	0.039	0.169
-551.383	-71.322	-0.179	0.068
-550.369	240.098	-0.076	0.128
-549.354	-111.888	-0.304	0.062
-548.339	226.280	-0.016	-0.027
-547.325	16.491	0.023	-0.018
-546.310	11.471	0.095	0.074
-545.296	332.633	-0.144	0.282
-544.281	-99.706	0.130	-0.033
-543.266	-184.627	-0.262	0.004
-542.252	-104.506	0.068	-0.016
-541.237	361.642	0.026	0.052
-540.223	-111.196	-0.098	0.020
-539.208	-200.000	0.056	0.401
-538.193	110.799	0.288	-0.350
-537.179	56.924	0.373	0.368
-536.164	-200.000	0.043	0.268
-535.150	-95.187	-0.068	0.019
-534.135	800.000	-0.062	0.191
-533.121	136.511	0.164	-0.217
-532.106	8.862	0.171	-0.131
-531.091	259.517	0.081	-0.142
-530.077	-121.017	0.242	0.041
-529.062	-55.778	-0.015	-0.007
-528.048	402.573	0.094	-0.199
-527.033	286.161	0.038	-0.069
-526.018	800.000	0.038	-0.122
-525.004	800.000	0.050	0.200
-523.989	370.869	-0.146	-0.299
-522.975	423.363	0.053	0.115
-521.960	79.783	-0.174	0.189
-520.945	-76.383	0.180	0.064
-519.931	-200.000	0.158	0.001
-518.916	410.594	0.052	-0.111
-517.902	-7.183	-0.090	0.062
-516.887	75.598	0.171	-0.182
-515.872	-185.480	-0.234	0.004
-514.858	-200.000	0.067	-0.423
-513.843	138.146	-0.158	0.209
-512.829	51.219	0.142	-0.137
-511.814	-200.000	-0.043	-0.462
-510.799	1.059	-0.172	-0.125
-509.785	-123.861	-0.181	0.029
-508.770	487.182	-0.236	0.544
-507.756	49.319	-0.286	-0.272
-506.741	462.914	-0.029	-0.065
-505.726	-122.687	0.076	0.012
-504.712	-200.000	-0.004	-0.287
-503.697	69.455	-0.158	0.164
-502.683	781.506	0.083	0.229
-501.668	-200.000	-0.071	0.378
-500.653	-10.060	-0.135	0.090
-499.639	800.000	0.065	-0.252
-498.624	-174.652	-0.226	0.007
-497.610	-200.000	0.036	-0.218
-496.595	35.562	0.143	0.127
-495.581	800.000	-0.023	-0.071
-494.566	44.975	0.265	-0.247
-493.551	592.908	0.095	-0.237
-492.537	800.000	0.155	0.433
-491.522	397.440	-0.077	0.163
-490.508	252.944	-0.107	-0.184
-489.493	-128.987	0.225	-0.032
-488.478	800.000	0.108	0.317
-487.464	-200.000	-0.040	0.182
-486.449	172.817	0.079	-0.115
-485.435	-54.823	0.204	-0.093
-484.420	-109.276	-0.178	0.038
-483.405	-200.000	-0.030	0.187
-482.391	-113.585	-0.074	0.015
-481.376	-66.164	0.345	-0.139
-480.362	-200.000	0.022	0.214
-479.347	-162.316	0.098	0.005
-478.332	685.353	0.096	0.252
-477.318	268.640	0.242	-0.429
-476.303	581.511	0.048	-0.119
-475.289	114.030	-0.059	0.072
-474.274	215.980	-0.055	0.088
-473.259	289.325	0.081	-0.147
-472.245	-79.892	-0.252	0.086
-471.230	135.381	-0.147	-0.193
-470.216	42.282	0.205	0.188
-469.201	-26.768	0.229	-0.135
-468.186	673.056	-0.141	-0.368
-467.172	-27.321	-0.116	0.068
-466.157	-136.937	-0.120	-0.014
-465.143	800.000	0.145	0.480
-464.128	217.583	-0.284	0.458
-463.113	-93.977	-0.074	0.021
-462.099	-127.804	-0.135	0.020
-461.084	35.436	0.077	-0.068
-460.070	-125.207	-0.179	-0.028
-459.055	-200.000	0.140	0.001
-458.040	-88.794	-0.093	0.028
-457.026	-40.714	0.261	0.137
-456.011	-200.000	0.024	-0.273
-454.997	38.029	-0.326	-0.293
-453.982	296.058	0.075	-0.139
-452.968	429.784	-0.065	-0.142
-451.953	380.563	0.046	-0.096
-450.938	-190.839	-0.260	-0.003
-449.924	-113.038	-0.231	0.046
-448.909	-43.920	0.123	-0.062
-447.895	563.648	0.070	-0.170
-446.880	-200.000	0.013	0.195
-445.865	-200.000	0.007	-0.123
-444.851	435.909	-0.032	-0.070
-443.836	399.686	-0.157	-0.333
-442.822	-103.773	0.145	-0.034
-441.807	-200.000	0.040	0.274
-440.792	352.359	-0.035	-0.069
-439.778	-63.264	-0.373	0.155
-438.763	-42.659	-0.419	0.215
-437.749	75.817	-0.149	-0.159
-436.734	-5.648	-0.119	0.082
-435.719	-72.026	0.313	0.117
-434.705	-200.000	-0.061	-0.365
-433.690	800.000	0.148	0.421
-432.676	-95.664	-0.360	0.097
-431.661	226.874	0.096	0.158
-430.646	-160.214	-0.172	0.009
-429.632	-200.000	0.029	0.136
-428.617	-153.997	0.239	0.016
-427.603	800.000	-0.067	-0.286
-426.588	88.842	-0.151	-0.170
-425.573	63.015	-0.096	-0.097
-424.559	800.000	-0.036	-0.134
-423.544	63.829	0.133	-0.135
-422.530	93.654	-0.232	0.265
-421.515	-35.736	0.423	-0.231
-420.500	-110.851	0.224	-0.047
-419.486	-200.000	0.053	0.298
-418.471	-37.403	0.164	-0.088
-417.457	525.322	-0.105	-0.249
-416.442	800.000	0.066	-0.208
-415.428	419.068	0.083	-0.178
-414.413	-73.136	-0.296	0.109
-413.398	800.000	0.055	0.207
-412.384	211.274	0.076	0.120
-411.369	16.488	-0.133	0.106
-410.355	23.302	0.141	0.117
-409.340	318.979	0.138	-0.263
-408.325	-70.659	0.020	-0.008
-407.311	112.553	-0.144	0.176
-406.296	66.877	0.137	-0.141
-405.282	800.000	-0.126	0.435
-404.267	211.276	-0.066	0.104
-403.252	128.347	0.129	0.166
-402.238	-96.988	0.256	0.067
-401.223	170.172	-0.107	-0.153
-400.209	777.725	-0.025	0.070
-399.194	-152.090	-0.295	-0.022
-398.179	-188.160	-0.281	0.004
-397.165	-164.061	-0.181	0.008
-396.150	-48.258	0.317	0.154
-395.136	800.000	-0.014	-0.053
-394.121	53.456	-0.187	0.181
-393.106	800.000	-0.132	-0.388
-392.092	209.512	0.146	0.230
-391.077	800.000	-0.078	-0.341
-390.063	81.346	0.286	0.312
-389.048	-149.325	0.208	-0.017
-388.033	-50.025	0.048	-0.023
-387.019	-109.688	-0.087	0.018
-386.004	-38.150	0.243	0.130
-384.990	-20.357	-0.153	-0.095
-383.975	-55.257	-0.154	0.070
-382.960	0.875	0.100	0.072
-381.946	-1.947	-0.262	-0.185
-380.931	247.254	-0.146	-0.248
-379.917	209.990	-0.192	0.303
-378.902	-200.000	-0.061	0.285
-377.888	-200.000	0.015	0.149
-376.873	409.762	0.179	-0.382
-375.858	6.673	-0.362	0.271
-374.844	404.129	-0.088	-0.185
-373.829	52.981	0.144	-0.139
-372.815	-141.879	0.297	-0.030
-371.800	142.840	-0.030	-0.040
-370.785	-119.623	-0.340	-0.059
-369.771	-106.766	0.117	-0.026
-368.756	800.000	0.012	-0.041
-367.742	-130.334	-0.048	0.007
-366.727	48.772	0.139	0.131
-365.712	-200.000	0.025	0.114
-364.698	-5.012	0.210	-0.146
-363.683	775.972	0.090	-0.246
-362.669	-54.357	-0.314	-0.143
-361.654	272.039	-0.106	0.189
-360.639	-97.923	-0.242	-0.063
-359.625	800.000	-0.086	0.304
-358.610	-4.776	-0.215	0.149
-357.596	415.972	0.034	0.074
-356.581	55.741	-0.294	-0.286
-355.566	-14.501	0.245	0.159
-354.552	-200.000	0.022	-0.297
-353.537	637.961	-0.026	0.066
-352.523	-82.268	0.325	-0.106
-351.508	91.129	-0.091	-0.103
-350.493	15.113	0.239	0.188
-349.479	53.140	0.317	-0.305
-348.464	-80.631	0.083	-0.028
-347.450	704.777	0.164	-0.435
-346.435	800.000	-0.022	0.094
-345.420	-57.252	0.043	0.019
-344.406	800.000	0.041	-0.146
-343.391	222.520	-0.067	-0.108
-342.377	-200.000	-0.039	0.223
-341.362	-200.000	0.020	0.089
-340.348	-171.470	-0.285	-0.010
-339.333	-200.000	-0.031	-0.274
-338.318	-127.836	0.086	0.012
-337.304	50.225	-0.178	-0.169
-336.289	800.000	-0.043	-0.129
-335.275	800.000	0.055	-0.197
-334.260	-200.000	-0.001	-0.078
-333.245	12.823	-0.191	0.149
-332.231	800.000	0.002	0.006
-331.216	790.798	0.080	0.222
-330.202	-93.343	-0.254	-0.071
-329.187	-102.799	0.272	0.065
-328.172	44.308	0.190	0.175
-327.158	19.776	0.228	0.184
-326.143	-119.592	0.173	-0.030
-325.129	-154.589	0.168	-0.011
-324.114	6.485	0.220	0.164
-323.099	270.728	0.133	0.236
-322.085	29.360	0.098	0.084
-321.070	-11.957	-0.119	0.078
-320.056	-170.721	0.205	0.007
-319.041	-145.371	-0.165	-0.015
-318.026	44.575	0.231	-0.213
-317.012	-0.927	-0.244	-0.173
-315.997	-1.009	0.216	0.154
-314.983	381.469	0.090	-0.185
-313.968	37.463	0.041	0.036
-312.953	38.627	0.087	0.078
-311.939	800.000	-0.066	-0.186
-310.924	-61.027	0.271	-0.115
-309.910	-117.830	0.316	0.057
-308.895	-83.059	-0.208	0.067
-307.880	53.984	-0.040	0.038
-306.866	48.679	-0.389	0.366
-305.851	-200.000	-0.014	0.116
-304.837	304.720	-0.176	0.327
-303.822	800.000	-0.090	0.394
-302.807	-49.475	0.371	0.177
-301.793	78.358	0.108	0.116
-300.778	-113.680	-0.222	0.043
-299.764	-51.308	-0.147	-0.069
-298.749	-66.028	-0.157	0.063
-297.735	226.987	-0.060	-0.098
-296.720	-184.156	0.217	0.004
-295.705	46.379	0.307	0.286
-294.691	-200.000	-0.039	0.185
-293.676	-60.541	0.082	-0.035
-292.662	67.954	0.188	-0.193
-291.647	326.335	0.052	0.099
-290.632	28.209	-0.270	0.228
-289.618	43.960	-0.234	-0.215
-288.603	-29.414	0.073	-0.042
-287.589	-154.070	0.111	0.008
-286.574	-130.931	0.224	0.030
-285.559	-91.769	0.334	0.095
-284.545	-43.252	0.504	0.256
-283.530	133.679	-0.095	0.123
-282.516	190.799	0.210	-0.317
-281.501	800.000	-0.027	-0.101
-280.486	-200.000	0.001	-0.105
-279.472	-200.000	0.022	-0.432
-278.457	388.801	-0.029	0.059
-277.443	45.216	0.139	0.128
-276.428	22.112	-0.213	0.174
-275.413	-149.731	-0.134	-0.011
-274.399	800.000	0.064	0.207
-273.384	-200.000	0.024	0.189
-272.370	-189.295	-0.033	-0.000
-271.355	-107.040	0.241	0.053
-270.340	-9.719	-0.285	-0.190
-269.326	-200.000	-0.024	0.492
-268.311	-183.802	-0.554	0.009
-267.297	-49.669	-0.065	0.031
-266.282	-149.762	-0.186	-0.015
-265.267	-23.500	0.188	0.113
-264.253	-8.342	-0.369	-0.249
-263.238	-177.225	0.118	0.003
-262.224	-178.050	0.110	-0.003
-261.209	-93.115	-0.318	0.089
-260.195	428.924	-0.053	0.114
-259.180	-89.873	0.127	0.037
-258.165	-59.358	0.131	-0.056
-257.151	88.784	-0.112	-0.125
-256.136	-106.214	-0.211	0.047
-255.122	101.755	-0.292	-0.341
-254.107	142.180	-0.075	0.100
-253.092	141.215	0.064	-0.085
-252.078	40.593	-0.043	0.039
-251.063	800.000	0.074	0.297
-250.049	-169.435	-0.331	-0.012
-249.034	26.074	-0.130	0.109
-248.019	-11.171	-0.123	-0.081
-247.005	-165.620	-0.095	0.004
-245.990	35.759	0.326	0.287
-244.976	-200.000	-0.068	0.315
-243.961	-19.480	0.158	-0.098
-242.946	219.421	0.108	0.173
-241.932	152.381	-0.193	0.264
-240.917	-113.735	-0.299	-0.058
-239.903	800.000	0.071	0.296
-238.888	-200.000	0.010	0.051
-237.873	182.856	0.331	-0.489
-236.859	168.793	-0.209	-0.298
-235.844	-200.000	-0.046	0.321
-234.830	775.909	-0.200	-0.546
-233.815	27.286	0.107	-0.090
-232.800	-123.842	0.366	0.058
-231.786	-200.000	0.012	-0.161
-230.771	-146.354	0.137	0.012
-229.757	319.349	0.198	0.376
-228.742	682.890	0.077	-0.202
-227.727	81.434	0.185	0.200
-226.713	-184.666	-0.307	-0.005
-225.698	84.294	-0.130	-0.142
-224.684	800.000	0.071	-0.263
-223.669	-1.713	-0.148	0.104
-222.655	-200.000	-0.003	-0.440
-221.640	-111.608	-0.218	-0.044
-220.625	-200.000	0.027	-0.226
-219.611	729.748	0.050	-0.133
-218.596	-200.000	0.047	-0.223
-217.582	800.000	-0.036	0.146
-216.567	-200.000	0.015	-0.342
-215.552	195.003	0.173	-0.262
-214.538	145.532	-0.057	0.076
-213.523	-200.000	0.011	-0.070
-212.509	169.972	0.134	0.192
-211.494	74.879	0.199	0.209
-210.479	-94.238	-0.128	-0.035
-209.465	-200.000	-0.000	-0.130
-208.450	-200.000	-0.002	-0.093
-207.436	-200.000	-0.009	0.352
-206.421	30.542	0.148	-0.126
-205.406	800.000	-0.029	0.083
-204.392	89.733	-0.270	0.301
-203.377	-111.964	-0.115	0.023
-202.363	340.324	-0.085	0.165
-201.348	-66.410	0.070	-0.028
-200.333	62.927	-0.103	-0.103
-199.319	37.779	-0.060	0.053
-198.304	120.621	0.121	-0.151
-197.290	-28.746	0.209	0.120
-196.275	235.237	0.110	0.181
-195.260	800.000	0.010	-0.029
-194.246	-10.675	0.194	-0.128
-193.231	-69.015	-0.156	0.060
-192.217	149.307	0.143	0.194
-191.202	-165.573	0.135	0.006
-190.187	-23.524	0.176	-0.105
-189.173	27.434	-0.209	0.175
-188.158	-200.000	-0.103	-0.514
-187.144	249.505	0.138	-0.233
-186.129	699.628	0.039	-0.104
-185.114	-149.164	0.168	0.013
-184.100	800.000	-0.043	0.122
-183.085	-200.000	0.026	0.230
-182.071	189.455	0.167	0.250
-181.056	800.000	0.057	0.158
-180.042	-150.444	0.081	0.006
-179.027	194.730	-0.150	-0.228
-178.012	-200.000	-0.027	0.207
-176.998	-124.489	0.306	-0.047
-175.983	-200.000	-0.015	0.329
-174.969	67.523	0.067	-0.068
-173.954	109.657	-0.108	0.129
-172.939	-14.757	-0.151	0.097
-171.925	-19.870	-0.205	-0.126
-170.910	24.982	-0.234	-0.194
-169.896	573.460	0.052	-0.126
-168.881	-200.000	-0.041	-0.198
-167.866	-110.771	0.058	-0.012
-166.852	800.000	0.008	-0.031
-165.837	800.000	0.088	-0.357
-164.823	143.117	-0.112	-0.148
-163.808	800.000	-0.152	0.437
-162.793	800.000	-0.065	0.234
-161.779	330.652	0.118	-0.227
-160.764	-46.725	0.246	0.120
-159.750	800.000	0.099	0.326
-158.735	-200.000	0.071	0.618
-157.720	-4.975	-0.185	0.127
-156.706	188.269	-0.157	0.233
-155.691	-200.000	0.011	-0.056
-154.677	393.204	0.127	-0.264
-153.662	800.000	0.076	0.280
-152.647	223.498	-0.079	-0.128
-151.633	-200.000	0.052	-0.258
-150.618	222.598	-0.042	0.067
-149.604	-119.084	0.236	0.041
-148.589	319.038	-0.027	-0.052
-147.574	800.000	-0.057	-0.174
-146.560	-200.000	0.016	-0.105
-145.545	333.213	0.117	-0.225
-144.531	800.000	-0.037	0.142
-143.516	756.352	0.133	-0.358
-142.502	153.245	-0.055	-0.075
-141.487	31.517	0.093	0.080
-140.472	800.000	-0.057	-0.226
-139.458	242.266	0.094	-0.156
-138.443	-38.487	-0.174	-0.092
-137.429	-200.000	0.040	0.240
-136.414	-137.504	0.047	0.005
-135.399	583.903	-0.162	-0.396
-134.385	137.275	0.116	0.151
-133.370	-101.991	-0.114	-0.027
-132.356	-200.000	-0.003	0.411
-131.341	396.856	0.116	-0.241
-130.326	-177.628	0.291	0.007
-129.312	-200.000	0.004	0.141
-128.297	-200.000	0.015	0.218
-127.283	35.822	-0.152	-0.133
-126.268	398.176	-0.080	0.167
-125.253	-117.865	0.348	-0.062
-124.239	-81.625	0.336	0.110
-123.224	-94.329	0.113	0.031
-122.210	235.751	-0.127	-0.209
-121.195	-24.746	-0.129	-0.076
-120.180	-87.210	-0.129	-0.039
-119.166	-200.000	0.023	0.171
-118.151	99.473	-0.144	0.166
-117.137	-200.000	0.055	0.320
-116.122	-200.000	0.013	-0.098
-115.107	138.109	-0.241	-0.314
-114.093	-148.527	0.442	0.036
-113.078	-52.557	0.138	-0.064
-112.064	208.536	0.103	0.161
-111.049	197.076	-0.087	-0.133
-110.034	-200.000	-0.027	0.125
-109.020	-200.000	-0.006	-0.070
-108.005	800.000	-0.085	0.314
-106.991	800.000	0.053	0.170
-105.976	-200.000	-0.027	0.191
-104.962	-27.513	-0.101	-0.059
-103.947	-108.245	-0.246	-0.053
-102.932	162.403	-0.158	0.221
-101.918	800.000	0.034	0.139
-100.903	24.943	-0.014	-0.012
-99.889	-7.009	-0.153	0.104
-98.874	97.303	0.303	-0.346
-97.859	68.740	-0.121	0.124
-96.845	248.793	0.155	0.261
-95.830	-200.000	-0.009	0.159
-94.816	177.328	0.032	0.046
-93.801	43.674	0.140	-0.127
-92.786	-74.025	-0.094	0.034
-91.772	-76.897	-0.326	0.113
-90.757	-200.000	-0.086	-0.413
-89.743	340.699	0.197	-0.382
-88.728	-83.683	-0.056	0.018
-87.713	547.188	0.078	-0.185
-86.699	56.241	-0.242	-0.233
-85.684	-200.000	0.021	0.210
-84.670	28.127	-0.145	0.121
-83.655	121.144	-0.053	0.066
-82.640	-85.147	-0.146	-0.045
-81.626	-87.936	-0.170	-0.051
-80.611	-200.000	0.022	0.362
-79.597	-200.000	-0.068	-0.414
-78.582	92.392	-0.192	0.215
-77.567	-16.730	-0.141	0.089
-76.553	-200.000	0.003	-0.059
-75.538	203.011	0.056	0.086
-74.524	-132.361	-0.254	0.033
-73.509	-49.795	-0.179	-0.084
-72.494	800.000	0.069	0.234
-71.480	-73.665	-0.302	0.109
-70.465	-200.000	-0.022	0.338
-69.451	680.303	0.099	-0.257
-68.436	-200.000	0.059	0.267
-67.422	312.988	-0.183	0.341
-66.407	-200.000	0.009	-0.152
-65.392	26.957	-0.136	0.113
-64.378	800.000	0.028	0.084
-63.363	-178.982	0.303	-0.007
-62.349	-200.000	-0.040	0.211
-61.334	41.070	-0.796	-0.715
-60.319	-124.676	0.254	0.039
-59.305	-200.000	-0.007	-0.551
-58.290	206.201	0.536	0.829
-57.276	701.847	0.648	1.695
-56.261	-200.000	76.481	523.025
-55.246	537.890	1316.762	3108.661
-54.232	147.366	2552.642	3414.094
-53.217	111.977	2354.517	2825.392
-52.203	50.870	1972.649	1856.438
-51.188	44.734	1762.753	1610.522
-50.173	41.831	1717.492	1546.692
-49.159	56.426	1751.927	1691.637
-48.144	61.523	1770.338	1748.996
-47.130	44.767	1733.786	1584.059
-46.115	41.572	1719.930	1546.638
-45.100	41.344	1715.831	1541.129
-44.086	41.360	1712.694	1538.370
-43.071	41.416	1709.484	1535.855
-42.057	41.395	1707.148	1533.534
-41.042	41.329	1705.548	1531.535
-40.027	41.436	1703.235	1530.217
-39.013	41.317	1701.436	1527.627
-37.998	41.373	1700.254	1526.931
-36.984	41.400	1698.267	1525.297
-35.969	41.475	1697.139	1524.796
-34.954	41.532	1695.502	1523.698
-33.940	41.560	1693.319	1521.887
-32.925	41.516	1691.708	1520.046
-31.911	41.424	1689.994	1517.746
-30.896	41.510	1687.716	1516.294
-29.881	41.523	1686.039	1514.822
-28.867	41.465	1684.711	1513.131
-27.852	41.468	1683.225	1511.761
-26.838	41.533	1681.423	1510.573
-25.823	41.510	1679.856	1508.928
-24.809	41.566	1678.831	1508.378
-23.794	41.541	1677.211	1506.669
-22.779	41.545	1675.768	1505.348
-21.765	41.581	1674.233	1504.179
-20.750	41.634	1672.236	1502.718
-19.736	41.507	1671.182	1500.759
-18.721	41.570	1668.953	1499.172
-17.706	41.591	1667.689	1498.134
-16.692	41.492	1666.365	1496.143
-15.677	41.528	1664.872	1495.014
-14.663	41.513	1664.005	1494.062
-13.648	41.534	1662.405	1492.724
-12.633	41.559	1660.514	1491.157
-11.619	41.404	1659.800	1489.300
-10.604	41.467	1657.536	1487.673
-9.590	41.554	1656.045	1486.928
-8.575	41.508	1654.984	1485.575
-7.560	41.495	1653.535	1484.113
-6.546	41.519	1652.262	1483.092
-5.531	41.554	1650.857	1482.036
-4.517	41.490	1650.089	1480.807
-3.502	41.438	1648.823	1479.228
-2.487	41.516	1647.482	1478.547
-1.473	41.312	1635.100	1465.876
-0.458	38.110	1613.459	1423.129
0.556	31.096	1610.328	1379.419
1.571	27.901	1633.450	1375.096
2.586	26.904	1647.244	1379.012
3.600	24.911	1597.823	1322.813
4.615	20.138	1492.799	1202.725
5.629	15.546	1427.755	1119.677
6.644	14.487	1418.505	1105.302
7.659	14.340	1417.420	1103.386
8.673	14.359	1415.931	1102.254
9.688	14.255	1414.269	1100.179
10.702	14.094	1411.751	1097.057
11.717	16.175	1415.917	1113.959
12.731	19.989	1422.102	1143.969
13.746	20.050	1420.247	1142.779
14.761	17.722	1414.375	1122.644
15.775	16.300	1411.162	1110.642
16.790	15.185	1408.161	1100.863
17.804	14.352	1405.954	1093.572
18.819	13.919	1404.197	1089.268
19.834	13.498	1402.186	1084.855
20.848	13.249	1401.366	1082.496
21.863	13.029	1400.193	1080.053
22.877	12.911	1398.221	1077.666
23.892	12.761	1398.058	1076.462
24.907	12.781	1397.050	1075.724
25.921	12.838	1396.056	1075.236
26.936	12.821	1395.379	1074.508
27.950	12.831	1394.560	1073.850
28.965	12.904	1393.320	1073.270
29.980	13.029	1391.920	1072.909
30.994	13.081	1390.543	1072.092
32.009	13.139	1389.286	1071.402
33.023	13.068	1387.784	1069.690
34.038	12.992	1386.916	1068.437
35.053	12.943	1385.387	1066.849
36.067	12.904	1384.638	1065.921
37.082	12.923	1383.412	1065.007
38.096	12.955	1382.154	1064.152
39.111	12.985	1381.442	1063.703
40.126	13.007	1380.024	1062.659
41.140	12.844	1379.538	1061.140
42.155	12.715	1379.240	1059.989
43.169	12.721	1379.365	1060.029
44.184	12.668	1378.802	1059.164
45.199	12.749	1378.163	1059.094
46.213	12.765	1377.819	1058.843
47.228	12.854	1376.693	1058.457
48.242	12.837	1375.756	1057.529
49.257	12.845	1374.136	1056.243
50.271	12.799	1372.651	1054.717
51.286	12.909	1371.261	1054.256
52.301	12.899	1369.863	1053.027
53.315	12.916	1368.458	1051.958
54.330	12.815	1367.442	1050.444
55.344	12.768	1366.372	1049.227
56.359	12.786	1365.383	1048.492
57.374	12.771	1364.363	1047.517
58.388	12.644	1363.964	1046.313
59.403	12.641	1363.179	1045.599
60.417	12.627	1362.930	1045.228
61.432	12.678	1361.502	1044.364
62.447	12.686	1360.586	1043.620
63.461	12.599	1359.239	1041.942
64.476	12.670	1358.164	1041.472
65.490	12.554	1357.544	1040.173
66.505	12.621	1355.733	1039.116
67.520	12.600	1354.422	1037.889
68.534	12.651	1353.220	1037.198
69.549	12.706	1352.183	1036.657
70.563	12.670	1351.307	1035.664
71.578	12.603	1350.004	1034.156
72.593	12.642	1349.185	1033.678
73.607	12.606	1348.028	1032.474
74.622	12.589	1347.131	1031.592
75.636	12.570	1346.813	1031.139
76.651	12.556	1345.997	1030.332
77.666	12.600	1345.566	1030.190
78.680	12.546	1344.909	1029.257
79.695	12.621	1344.335	1029.193
80.709	12.677	1343.630	1028.912
81.724	12.707	1342.564	1028.194
82.739	12.693	1341.718	1027.369
83.753	12.781	1340.916	1027.211
84.768	12.865	1339.575	1026.618
85.782	12.903	1338.189	1025.697
86.797	12.919	1337.107	1024.878
87.812	12.821	1335.960	1023.301
88.826	12.817	1334.615	1022.153
89.841	12.738	1333.926	1021.046
90.855	12.888	1332.862	1021.073
91.870	12.830	1332.020	1019.979
92.884	13.024	1331.154	1020.423
93.899	13.014	1330.195	1019.537
94.914	13.019	1329.447	1018.902
95.928	13.015	1328.513	1018.075
96.943	12.999	1327.531	1017.130
97.957	12.961	1326.603	1016.095
98.972	12.842	1325.565	1014.477
99.987	12.853	1324.472	1013.623
101.001	12.936	1323.319	1013.161
102.016	12.882	1322.556	1012.153
103.030	12.909	1321.230	1011.217
104.045	12.806	1320.940	1010.271
105.060	12.888	1319.212	1009.364
106.074	12.893	1317.544	1008.029
107.089	12.762	1316.545	1006.374
108.103	12.695	1315.350	1004.964
109.118	12.693	1314.043	1003.861
110.133	12.629	1312.972	1002.568
111.147	12.729	1311.024	1001.596
112.162	12.724	1310.388	1000.993
113.176	12.824	1308.845	1000.335
114.191	12.721	1307.848	998.858
115.206	12.771	1306.989	998.419
116.220	12.740	1305.475	996.985
117.235	12.872	1303.866	996.464
118.249	12.745	1303.509	995.336
119.264	12.704	1302.356	994.119
120.279	12.832	1300.604	993.466
121.293	12.725	1300.056	992.315
122.308	12.739	1298.757	991.323
123.322	12.700	1297.724	990.212
124.337	12.724	1296.420	989.269
125.352	12.847	1295.150	988.954
126.366	12.698	1294.407	987.405
127.381	12.719	1293.268	986.572
128.395	12.672	1292.409	985.549
129.410	12.793	1291.131	985.214
130.424	12.747	1290.489	984.361
131.439	12.810	1289.306	983.746
132.454	12.729	1288.634	982.662
133.468	12.884	1287.871	982.921
134.483	12.845	1286.994	981.929
135.497	12.856	1286.091	981.219
136.512	12.898	1284.797	980.393
137.527	12.938	1283.162	979.301
138.541	12.892	1281.905	977.978
139.556	12.889	1280.294	976.646
140.570	12.902	1279.612	976.116
141.585	12.928	1278.444	975.292
142.600	12.929	1277.240	974.294
143.614	13.053	1276.177	974.133
144.629	13.088	1275.024	973.369
145.643	13.059	1274.263	972.532
146.658	13.069	1272.400	971.084
147.673	13.021	1271.039	969.677
148.687	12.903	1269.538	967.754
149.702	12.967	1268.380	967.161
150.716	12.843	1267.504	965.679
151.731	12.818	1266.209	964.459
152.746	12.922	1264.740	963.864
153.760	12.932	1263.630	962.994
154.775	13.021	1262.471	962.542
155.789	13.025	1261.471	961.718
156.804	13.056	1260.197	960.842
157.819	12.975	1259.778	959.969
158.833	13.028	1258.675	959.350
159.848	13.146	1257.499	959.056
160.862	13.037	1257.012	957.964
161.877	13.057	1255.075	956.521
162.892	12.973	1254.463	955.483
163.906	12.960	1253.158	954.326
164.921	13.007	1252.430	953.961
165.935	13.030	1251.544	953.336
166.950	13.052	1250.917	952.899
167.964	13.001	1250.320	952.070
168.979	13.099	1248.883	951.454
169.994	13.156	1247.973	951.002
171.008	13.114	1247.458	950.285
172.023	13.198	1246.520	949.972
173.037	13.234	1245.584	949.380
174.052	13.182	1244.573	948.229
175.067	13.194	1243.598	947.469
176.081	12.986	1242.710	945.515
177.096	13.095	1242.029	945.539
178.110	13.082	1241.000	944.596
179.125	13.060	1239.586	943.310
180.140	13.198	1238.105	942.888
181.154	13.119	1237.502	941.893
182.169	13.229	1235.786	941.133
183.183	13.248	1234.722	940.347
184.198	13.287	1233.674	939.689
185.213	13.287	1232.646	938.821
186.227	13.255	1231.700	937.835
187.242	13.317	1230.072	936.867
188.256	13.332	1229.236	936.227
189.271	13.395	1228.352	935.828
190.286	13.309	1227.316	934.475
191.300	13.100	1226.764	932.792
192.315	13.072	1225.955	931.933
193.329	13.128	1225.290	931.663
194.344	13.136	1224.121	930.732
195.359	13.155	1223.741	930.468
196.373	13.247	1223.432	930.669
197.388	13.318	1223.136	930.762
198.402	13.464	1222.176	930.774
199.417	13.532	1221.662	930.680
200.432	13.569	1220.678	930.055
201.446	13.615	1219.911	929.649
202.461	13.582	1218.874	928.588
203.475	13.656	1218.093	928.327
204.490	13.656	1216.477	927.013
205.504	13.556	1215.337	925.503
206.519	13.525	1214.182	924.367
207.534	13.536	1212.867	923.346
208.548	13.560	1212.399	923.044
209.563	13.582	1211.285	922.234
210.577	13.616	1210.217	921.531
211.592	13.602	1209.467	920.802
212.607	13.694	1208.571	920.548
213.621	13.748	1207.904	920.256
214.636	13.669	1207.024	919.069
215.650	13.658	1206.274	918.355
216.665	13.664	1205.025	917.354
217.680	13.800	1204.241	917.426
218.694	13.908	1203.100	917.078
219.709	13.760	1202.725	915.892
220.723	13.742	1201.949	915.122
221.738	13.835	1200.876	914.735
222.753	13.871	1200.334	914.442
223.767	13.853	1199.599	913.697
224.782	13.852	1199.021	913.174
225.796	13.869	1198.592	912.861
226.811	13.876	1197.536	912.013
227.826	13.969	1196.753	911.846
228.840	13.934	1196.092	911.067
229.855	13.900	1195.180	910.108
230.869	13.926	1194.043	909.303
231.884	13.887	1193.638	908.700
232.899	13.899	1192.439	907.771
233.913	13.851	1192.361	907.374
234.928	13.852	1191.230	906.438
235.942	13.799	1190.620	905.600
236.957	13.926	1189.498	905.361
237.972	13.857	1188.843	904.408
238.986	13.843	1188.513	904.001
240.001	13.730	1187.852	902.800
241.015	13.936	1186.726	902.984
242.030	13.907	1186.171	902.324
243.045	13.958	1185.161	901.752
244.059	13.912	1184.280	900.755
245.074	14.049	1183.496	900.821
246.088	14.123	1182.467	900.359
247.103	14.086	1181.868	899.621
248.117	14.107	1181.434	899.329
249.132	14.184	1180.583	899.018
250.147	14.311	1179.674	898.931
251.161	14.302	1179.064	898.339
252.176	14.396	1177.917	897.891
253.190	14.321	1177.951	897.434
254.205	14.316	1177.523	897.002
255.220	14.282	1176.692	896.102
256.234	14.369	1175.929	895.910
257.249	14.554	1175.083	896.180
258.263	14.434	1174.572	895.068
259.278	14.521	1173.698	894.793
260.293	14.480	1173.119	894.051
261.307	14.559	1172.555	893.963
262.322	14.499	1172.152	893.258
263.336	14.580	1170.938	892.687
264.351	14.601	1170.555	892.428
265.366	14.557	1170.168	891.817
266.380	14.531	1169.148	890.823
267.395	14.538	1168.477	890.267
268.409	14.467	1167.708	889.225
269.424	14.553	1166.650	888.799
270.439	14.497	1165.981	887.914
271.453	14.539	1165.671	887.824
272.468	14.527	1164.541	886.818
273.482	14.527	1163.961	886.297
274.497	14.618	1163.472	886.333
275.512	14.563	1163.017	885.614
276.526	14.598	1162.109	885.032
277.541	14.599	1161.177	884.249
278.555	14.583	1160.392	883.489
279.570	14.605	1159.831	883.097
280.585	14.832	1158.178	882.963
281.599	14.680	1157.740	881.748
282.614	14.743	1156.745	881.241
283.628	14.790	1155.630	880.561
284.643	14.827	1154.519	879.835
285.657	14.748	1154.144	879.052
286.672	14.847	1152.908	878.555
287.687	14.823	1151.913	877.596
288.701	14.769	1151.547	876.955
289.716	14.781	1150.702	876.296
290.730	14.880	1149.781	876.035
291.745	14.885	1149.207	875.547
292.760	14.863	1148.868	875.095
293.774	14.862	1148.339	874.613
294.789	14.849	1147.779	874.037
295.803	14.843	1147.020	873.351
296.818	14.915	1145.797	872.720
297.833	14.898	1144.870	871.848
298.847	14.904	1144.437	871.473
299.862	14.947	1143.648	871.018
300.876	14.931	1142.831	870.234
301.891	15.011	1142.151	870.058
302.906	14.973	1141.485	869.276
303.920	15.126	1140.730	869.419
304.935	15.090	1139.845	868.477
305.949	15.207	1139.394	868.664
306.964	15.196	1139.000	868.229
307.979	15.201	1137.947	867.376
308.993	15.172	1137.160	866.552
310.008	15.280	1136.172	866.279
311.022	15.258	1135.626	865.672
312.037	15.180	1135.120	864.808
313.052	15.252	1134.011	864.260
314.066	15.140	1133.045	862.867
315.081	15.069	1132.080	861.692
316.095	15.189	1131.324	861.654
317.110	15.127	1130.611	860.720
318.125	15.128	1130.207	860.342
319.139	15.139	1129.360	859.676
320.154	15.082	1128.651	858.766
321.168	15.064	1128.356	858.376
322.183	15.258	1127.019	858.273
323.197	15.189	1126.565	857.501
324.212	15.279	1125.887	857.367
325.227	15.251	1125.695	857.003
326.241	15.156	1125.029	855.933
327.256	15.282	1124.157	855.837
328.270	15.145	1123.214	854.345
329.285	15.171	1122.509	853.870
330.300	15.183	1121.304	852.937
331.314	15.196	1120.606	852.396
332.329	15.272	1119.334	851.737
333.343	15.312	1118.846	851.493
334.358	15.287	1118.111	850.734
335.373	15.386	1116.982	850.302
336.387	15.382	1116.075	849.513
337.402	15.416	1115.373	849.077
338.416	15.511	1114.717	848.983
339.431	15.522	1113.806	848.270
340.446	15.639	1113.119	848.260
341.460	15.612	1112.583	847.644
342.475	15.565	1111.665	846.630
343.489	15.665	1110.569	846.228
344.504	15.560	1110.126	845.284
345.519	15.654	1109.287	845.041
346.533	15.744	1108.312	844.678
347.548	15.591	1108.112	843.685
348.562	15.807	1106.603	843.540
349.577	15.601	1106.391	842.275
350.592	15.583	1105.694	841.580
351.606	15.633	1104.330	840.713
352.621	15.657	1103.819	840.371
353.635	15.722	1102.932	839.948
354.650	15.689	1102.309	839.235
355.665	15.787	1101.453	838.997
356.679	15.703	1101.394	838.460
357.694	15.783	1100.687	838.243
358.708	15.793	1099.799	837.546
359.723	15.853	1098.947	837.120
360.738	15.847	1098.640	836.781
361.752	15.893	1097.938	836.404
362.767	15.894	1097.352	835.886
363.781	15.743	1096.991	834.786
364.796	15.786	1096.635	834.658
365.810	15.863	1095.893	834.397
366.825	15.989	1094.986	834.257
367.840	16.041	1094.196	833.843
368.854	16.076	1094.230	833.967
369.869	15.996	1093.309	832.795
370.883	15.937	1092.614	831.902
371.898	15.939	1091.506	830.992
372.913	15.987	1091.542	831.182
373.927	15.914	1090.836	830.210
374.942	16.060	1089.868	830.123
375.956	16.141	1089.250	829.975
376.971	16.142	1088.872	829.620
377.986	16.176	1087.929	828.996
379.000	16.148	1087.640	828.562
380.015	16.303	1086.757	828.576
381.029	16.325	1086.071	828.089
382.044	16.208	1085.933	827.336
383.059	16.293	1084.990	826.961
384.073	16.265	1084.135	826.102
385.088	16.359	1082.861	825.515
386.102	16.351	1081.843	824.627
387.117	16.292	1081.406	823.933
388.132	16.340	1080.241	823.205
389.146	16.231	1079.583	822.100
390.161	16.238	1079.017	821.633
391.175	16.117	1078.238	820.378
392.190	16.276	1077.414	820.450
393.205	16.361	1077.009	820.482
394.219	16.300	1076.017	819.357
395.234	16.412	1074.595	818.746
396.248	16.361	1073.845	817.857
397.263	16.324	1073.165	817.088
398.278	16.255	1072.643	816.283
399.292	16.307	1071.841	815.851
400.307	16.315	1070.938	815.128
401.321	16.304	1070.365	814.567
402.336	16.253	1069.796	813.818
403.350	16.271	1068.971	813.206
404.365	16.312	1068.383	812.881
405.380	16.373	1067.645	812.543
406.394	16.395	1066.702	811.860
407.409	16.479	1065.868	811.558
408.423	16.558	1065.200	811.356
409.438	16.627	1064.738	811.263
410.453	16.699	1063.788	810.810
411.467	16.652	1063.108	809.996
412.482	16.791	1062.045	809.778
413.496	16.801	1061.477	809.323
414.511	16.725	1061.095	808.598
415.526	16.797	1060.604	808.491
416.540	16.770	1060.904	808.522
417.555	16.866	1059.899	808.140
418.569	16.720	1059.391	806.988
419.584	16.864	1058.739	807.108
420.599	16.912	1058.313	806.937
421.613	84.733	1295.603	1366.014
422.628	78.110	1330.166	1366.147
