DTS Sentinel unit serial number:	SN413079Multiplexer serial number:	ORYXHardware model number:	OX4-SRSoftware version number:	ORYX F/W v4.00 Oryx Data Collector v3.7.2.0data status	okinstallation	princeton_trtdifferential loss correction	single-endedforward channel	channel 2reverse channel	N/Adate	2019/09/18time	13:39:35forward acquisition time	60.00reverse acquisition time	0.00gamma	496.2192k internal	0.2319k external	0.2319temperature offset calibration	0.9995default loss term (dB/km)	0.3790temperature slope calibration	1.0000multiplexer offset coefficient	1.0000multiplexer slope coefficient	1.0000fibre end	0.00T internal ref (°C)	34.44T ext. ref 1 (°C)	0.63T ext. ref 2 (°C)	30.53length (m)	temperature (°C)	Stokes	anti-Stokes-747.200	-76.802	0.127	-0.045
-746.185	-200.000	0.059	0.448
-745.171	-21.057	0.190	0.118
-744.156	516.325	0.045	0.107
-743.142	381.907	-0.029	-0.060
-742.127	-200.000	0.093	0.486
-741.112	-100.327	0.118	-0.030
-740.098	-43.356	-0.281	0.144
-739.083	800.000	0.034	-0.128
-738.069	-79.011	-0.190	0.065
-737.054	-200.000	-0.035	0.165
-736.039	-117.735	-0.142	-0.026
-735.025	91.422	-0.093	0.106
-734.010	7.881	-0.440	0.334
-732.996	83.233	0.057	-0.063
-731.981	79.149	-0.179	0.194
-730.966	-10.563	-0.034	0.023
-729.952	76.573	-0.123	0.131
-728.937	-32.552	-0.126	0.071
-727.923	48.975	0.184	0.175
-726.908	-200.000	-0.046	-0.317
-725.894	68.384	0.099	0.103
-724.879	-52.605	-0.189	0.088
-723.864	330.420	0.096	0.187
-722.850	458.312	-0.118	0.265
-721.835	267.455	-0.101	0.179
-720.821	800.000	-0.090	0.393
-719.806	-80.450	-0.459	0.155
-718.791	-62.944	0.138	-0.058
-717.777	94.644	-0.249	-0.287
-716.762	47.302	-0.080	0.075
-715.748	-101.498	-0.372	0.091
-714.733	-111.566	-0.291	-0.060
-713.718	800.000	0.033	0.122
-712.704	222.455	-0.140	0.228
-711.689	-200.000	0.021	-0.150
-710.675	-98.129	0.177	-0.046
-709.660	-200.000	0.068	0.382
-708.645	-74.560	0.282	-0.102
-707.631	-54.924	-0.086	-0.039
-706.616	-125.679	0.118	-0.018
-705.602	534.422	0.074	0.176
-704.587	-58.776	0.275	0.120
-703.572	47.864	-0.067	0.063
-702.558	-143.779	-0.036	0.003
-701.543	-66.972	0.273	-0.109
-700.529	71.977	0.120	0.126
-699.514	-200.000	0.032	-0.153
-698.499	-70.399	-0.346	0.132
-697.485	540.881	-0.042	-0.101
-696.470	678.702	-0.071	-0.187
-695.456	-200.000	-0.033	0.286
-694.441	689.051	-0.042	-0.110
-693.426	-79.620	-0.250	-0.085
-692.412	-187.913	0.523	0.007
-691.397	-200.000	0.028	-0.316
-690.383	-200.000	-0.020	0.137
-689.368	800.000	0.006	-0.020
-688.354	800.000	0.042	0.121
-687.339	-169.148	0.034	0.001
-686.324	-106.986	-0.092	-0.021
-685.310	-12.657	-0.335	-0.221
-684.295	-81.468	-0.227	-0.075
-683.281	-200.000	0.012	-0.203
-682.266	-144.785	-0.165	-0.015
-681.251	414.707	-0.040	-0.085
-680.237	66.568	0.069	0.070
-679.222	800.000	0.023	-0.063
-678.208	800.000	-0.028	-0.107
-677.193	52.442	0.281	0.270
-676.178	647.275	-0.123	0.318
-675.164	6.298	0.174	0.130
-674.149	-119.615	-0.468	0.082
-673.135	42.849	-0.146	0.135
-672.120	800.000	0.044	0.152
-671.105	80.467	-0.124	-0.135
-670.091	-35.601	0.288	-0.158
-669.076	134.445	0.164	-0.215
-668.062	-30.674	-0.319	-0.182
-667.047	-2.586	0.137	-0.096
-666.032	-177.315	-0.138	0.003
-665.018	41.596	-0.070	0.063
-664.003	100.249	0.194	-0.227
-662.989	-12.572	-0.061	-0.040
-661.974	186.456	0.013	-0.019
-660.959	-129.215	-0.329	-0.046
-659.945	-77.585	0.354	0.124
-658.930	-118.614	0.083	0.015
-657.916	800.000	0.006	-0.025
-656.901	95.194	-0.198	0.227
-655.886	9.331	-0.069	0.053
-654.872	-95.381	-0.241	-0.065
-653.857	-200.000	0.012	0.166
-652.843	-200.000	-0.010	0.077
-651.828	800.000	0.052	0.146
-650.814	-59.242	0.226	0.098
-649.799	-6.493	-0.063	-0.043
-648.784	93.370	-0.203	-0.232
-647.770	-200.000	-0.017	0.116
-646.755	-200.000	-0.025	-0.276
-645.741	-73.562	0.460	-0.169
-644.726	12.311	-0.197	-0.153
-643.711	-2.595	0.097	-0.069
-642.697	-55.929	-0.320	-0.144
-641.682	-96.015	0.205	-0.055
-640.668	800.000	-0.049	-0.192
-639.653	-200.000	0.031	0.140
-638.638	800.000	0.061	0.255
-637.624	-25.194	-0.224	0.134
-636.609	800.000	0.024	0.093
-635.595	45.933	0.173	-0.161
-634.580	29.884	0.320	0.275
-633.565	-200.000	-0.046	-0.217
-632.551	-200.000	0.017	-0.121
-631.536	800.000	-0.074	-0.213
-630.522	-118.634	-0.315	0.056
-629.507	-87.511	-0.270	-0.082
-628.492	-115.693	-0.116	-0.022
-627.478	800.000	0.027	-0.109
-626.463	481.438	-0.108	-0.248
-625.449	309.670	-0.101	-0.191
-624.434	-200.000	0.024	0.122
-623.419	-82.741	-0.255	-0.083
-622.405	-54.276	0.379	0.173
-621.390	344.363	-0.065	-0.128
-620.376	-78.348	0.154	-0.053
-619.361	57.111	-0.041	-0.040
-618.346	152.516	-0.061	0.084
-617.332	-78.746	0.113	-0.039
-616.317	-67.401	-0.137	0.054
-615.303	-40.652	-0.088	-0.046
-614.288	-200.000	-0.007	0.039
-613.273	41.041	0.138	0.126
-612.259	329.568	-0.017	-0.033
-611.244	-28.694	-0.272	0.157
-610.230	800.000	0.031	0.122
-609.215	800.000	0.061	0.185
-608.201	-141.341	-0.222	0.023
-607.186	-58.095	-0.406	0.178
-606.171	-106.958	0.321	0.072
-605.157	209.680	-0.173	-0.273
-604.142	221.731	-0.088	0.142
-603.128	61.474	-0.107	0.107
-602.113	87.081	0.183	0.204
-601.098	800.000	0.057	-0.247
-600.084	4.147	-0.224	0.165
-599.069	-107.754	0.181	-0.040
-598.055	151.473	-0.073	0.100
-597.040	105.951	-0.206	-0.245
-596.025	447.131	-0.111	-0.245
-595.011	-106.352	0.163	-0.037
-593.996	-162.570	-0.047	0.002
-592.982	-12.256	0.215	-0.141
-591.967	-200.000	0.034	0.369
-590.952	-58.241	0.127	-0.056
-589.938	-200.000	-0.011	0.082
-588.923	-54.998	0.097	-0.044
-587.909	-200.000	-0.041	0.557
-586.894	-32.049	0.238	0.134
-585.879	123.310	-0.033	-0.041
-584.865	800.000	-0.069	0.257
-583.850	410.447	0.067	-0.142
-582.836	-53.319	0.158	-0.073
-581.821	708.743	0.054	0.143
-580.806	594.420	-0.128	-0.318
-579.792	-138.124	0.296	0.033
-578.777	-10.632	-0.163	0.109
-577.763	-32.508	0.212	-0.119
-576.748	-26.880	-0.146	0.086
-575.733	-200.000	-0.006	-0.166
-574.719	-41.358	-0.255	0.132
-573.704	-199.220	0.148	-0.001
-572.690	-61.337	0.064	0.027
-571.675	-49.097	0.174	0.084
-570.661	-84.312	0.160	0.051
-569.646	239.114	-0.166	0.278
-568.631	800.000	-0.013	-0.053
-567.617	20.598	0.085	0.069
-566.602	91.965	0.072	0.081
-565.588	-200.000	-0.016	-0.271
-564.573	-107.871	0.309	0.068
-563.558	137.364	-0.108	0.142
-562.544	-127.721	-0.363	0.053
-561.529	-59.295	0.193	-0.083
-560.515	-53.793	-0.109	-0.050
-559.500	184.488	0.041	0.062
-558.485	-64.390	0.185	0.075
-557.471	80.091	-0.064	0.069
-556.456	-83.073	0.241	-0.078
-555.442	800.000	-0.078	-0.230
-554.427	-78.291	0.159	0.055
-553.412	-130.665	-0.148	0.020
-552.398	-65.039	-0.124	0.050
-551.383	-73.231	0.260	0.096
-550.369	-76.693	-0.395	0.139
-549.354	282.252	0.087	-0.157
-548.339	54.697	-0.101	0.098
-547.325	800.000	0.049	0.198
-546.310	-79.379	0.126	-0.043
-545.296	548.340	-0.106	-0.256
-544.281	58.226	0.040	-0.039
-543.266	404.979	-0.135	-0.285
-542.252	109.571	0.047	-0.057
-541.237	-23.776	-0.221	-0.133
-540.223	-98.082	0.141	0.036
-539.208	-200.000	-0.017	0.121
-538.193	-97.324	-0.211	-0.055
-537.179	280.857	0.197	-0.353
-536.164	268.717	-0.130	-0.229
-535.150	13.550	0.172	0.134
-534.135	-151.946	-0.114	0.008
-533.121	-147.939	-0.033	-0.003
-532.106	73.463	-0.039	0.041
-531.091	-200.000	-0.033	0.169
-530.077	3.180	0.192	-0.140
-529.062	18.378	0.265	-0.213
-528.048	394.455	-0.067	0.140
-527.033	-114.673	-0.230	-0.044
-526.018	-173.995	0.172	0.005
-525.004	-17.804	-0.135	-0.085
-523.989	-14.266	-0.059	0.038
-522.975	606.610	-0.072	0.181
-521.960	372.825	0.151	0.308
-520.945	-12.084	-0.182	-0.119
-519.931	-200.000	-0.059	0.388
-518.916	72.392	-0.125	-0.131
-517.902	145.025	-0.238	-0.319
-516.887	-110.237	-0.074	0.015
-515.872	-121.581	-0.323	0.054
-514.858	30.125	-0.042	-0.036
-513.843	-46.635	-0.181	-0.089
-512.829	144.218	0.104	-0.140
-511.814	125.767	0.209	-0.265
-510.799	342.809	-0.128	-0.250
-509.785	-102.428	-0.264	-0.063
-508.770	-14.226	-0.149	-0.096
-507.756	437.150	-0.140	-0.305
-506.741	800.000	-0.058	-0.184
-505.726	409.835	-0.060	-0.128
-504.712	30.405	0.097	-0.083
-503.697	-200.000	-0.001	0.182
-502.683	-90.627	0.233	-0.067
-501.668	-200.000	0.015	-0.088
-500.653	80.943	0.243	-0.262
-499.639	144.933	-0.124	-0.166
-498.624	-200.000	0.029	-0.168
-497.610	-116.270	0.145	-0.027
-496.595	-104.192	0.160	-0.037
-495.581	44.897	-0.086	-0.079
-494.566	-200.000	0.056	0.247
-493.551	-104.568	0.054	0.013
-492.537	120.057	-0.122	0.152
-491.522	523.211	0.038	-0.088
-490.508	-116.534	-0.071	0.013
-489.493	-190.548	0.154	0.002
-488.478	800.000	0.114	0.364
-487.464	-87.836	0.265	0.080
-486.449	58.762	-0.129	-0.127
-485.435	-155.016	0.505	-0.033
-484.420	-166.128	-0.146	0.006
-483.405	-54.324	-0.407	-0.185
-482.391	67.224	0.117	-0.120
-481.376	-200.000	-0.047	0.248
-480.362	97.139	0.280	0.321
-479.347	99.065	0.147	-0.170
-478.332	572.574	0.103	0.252
-477.318	373.543	-0.168	-0.342
-476.303	151.308	0.163	-0.222
-475.289	86.078	0.104	0.114
-474.274	-76.806	-0.200	-0.070
-473.259	265.744	-0.229	-0.400
-472.245	-68.186	0.139	0.054
-471.230	83.457	-0.241	-0.263
-470.216	61.629	0.198	-0.198
-469.201	-200.000	-0.043	-0.302
-468.186	-129.426	-0.483	0.067
-467.172	-97.910	-0.328	-0.085
-466.157	407.118	0.011	0.023
-465.143	4.837	0.101	-0.075
-464.128	-200.000	-0.036	0.185
-463.113	55.576	-0.266	0.257
-462.099	313.953	-0.109	-0.206
-461.084	330.921	0.183	0.353
-460.070	-54.523	0.172	-0.078
-459.055	68.102	-0.062	-0.063
-458.040	-90.293	-0.257	-0.075
-457.026	-41.706	0.132	0.068
-456.011	-45.949	0.105	0.052
-454.997	31.155	0.198	-0.170
-453.982	-79.874	-0.248	0.084
-452.968	162.327	-0.068	0.096
-451.953	423.269	-0.204	0.439
-450.938	116.424	0.264	0.323
-449.924	-55.062	-0.246	0.111
-448.909	209.845	0.143	0.225
-447.895	480.538	0.008	-0.019
-446.880	-66.721	0.446	-0.177
-445.865	-70.363	-0.176	0.067
-444.851	267.038	0.039	-0.068
-443.836	800.000	0.088	0.291
-442.822	412.446	0.106	-0.225
-441.807	18.416	-0.062	0.050
-440.792	-200.000	-0.008	0.110
-439.778	430.003	0.151	0.326
-438.763	800.000	0.085	-0.244
-437.749	353.185	-0.011	-0.022
-436.734	-200.000	-0.051	-0.417
-435.719	-200.000	0.057	-0.460
-434.705	-104.313	0.074	0.017
-433.690	-200.000	-0.024	-0.333
-432.676	386.561	0.120	-0.247
-431.661	49.998	0.146	-0.138
-430.646	-130.671	0.149	-0.020
-429.632	800.000	-0.108	0.309
-428.617	-22.753	-0.082	-0.050
-427.603	16.724	0.253	0.200
-426.588	526.779	0.168	0.396
-425.573	119.362	0.014	-0.018
-424.559	-71.579	0.174	0.065
-423.544	83.124	-0.152	-0.165
-422.530	-82.659	-0.051	0.017
-421.515	31.948	0.120	0.104
-420.500	-28.084	0.194	-0.112
-419.486	-84.003	0.040	0.013
-418.471	800.000	0.022	0.067
-417.457	-123.718	0.198	-0.031
-416.442	117.533	-0.112	-0.137
-415.428	-61.845	0.147	0.061
-414.413	-30.200	-0.347	-0.197
-413.398	14.629	0.329	0.257
-412.384	26.597	0.096	-0.080
-411.369	-91.609	-0.061	0.017
-410.355	-152.953	-0.406	-0.029
-409.340	-200.000	0.022	0.134
-408.325	-200.000	0.006	-0.067
-407.311	-152.551	-0.164	0.012
-406.296	800.000	0.130	-0.370
-405.282	800.000	-0.062	0.239
-404.267	272.349	-0.130	0.228
-403.252	233.516	0.146	0.240
-402.238	151.020	0.051	0.069
-401.223	-200.000	0.009	-0.123
-400.209	-29.776	0.205	0.117
-399.194	113.832	0.148	0.180
-398.179	-200.000	-0.057	-0.442
-397.165	-10.458	-0.160	0.106
-396.150	-90.384	0.426	0.123
-395.136	-147.394	0.428	0.036
-394.121	61.051	0.146	-0.144
-393.106	11.075	-0.181	0.138
-392.092	396.156	0.083	-0.174
-391.077	81.315	0.151	-0.163
-390.063	800.000	-0.056	-0.191
-389.048	-200.000	-0.034	-0.211
-388.033	22.023	-0.107	0.087
-387.019	122.291	-0.154	0.192
-386.004	-67.616	-0.136	-0.053
-384.990	-200.000	0.013	-0.150
-383.975	156.819	0.122	-0.169
-382.960	109.709	0.231	0.276
-381.946	248.777	0.170	0.287
-380.931	-14.230	-0.349	0.224
-379.917	60.342	-0.075	0.074
-378.902	-81.537	0.079	-0.026
-377.888	800.000	-0.087	-0.280
-376.873	382.302	-0.039	0.081
-375.858	-58.737	-0.052	0.022
-374.844	-182.071	0.287	-0.005
-373.829	9.414	0.171	-0.129
-372.815	83.047	-0.232	0.252
-371.800	-73.304	-0.334	-0.122
-370.785	-200.000	-0.028	0.210
-369.771	201.417	0.154	0.236
-368.756	-129.886	-0.119	-0.016
-367.742	62.490	0.174	0.173
-366.727	28.139	-0.054	-0.046
-365.712	-98.915	0.310	-0.078
-364.698	800.000	0.093	-0.343
-363.683	-200.000	0.028	0.438
-362.669	207.854	-0.114	-0.178
-361.654	-110.885	-0.140	0.029
-360.639	22.984	-0.265	0.216
-359.625	202.595	0.241	0.370
-358.610	196.561	-0.168	-0.255
-357.596	-166.134	0.331	0.014
-356.581	7.337	0.153	-0.114
-355.566	-66.970	-0.240	-0.095
-354.552	-59.925	-0.279	0.119
-353.537	-200.000	-0.015	-0.255
-352.523	78.511	-0.045	0.047
-351.508	-137.324	-0.231	-0.026
-350.493	800.000	-0.111	0.312
-349.479	-135.008	0.381	0.046
-348.464	-2.131	0.104	0.073
-347.450	-200.000	-0.029	-0.193
-346.435	-41.957	-0.126	-0.064
-345.420	-200.000	0.018	0.138
-344.406	-56.052	0.066	0.029
-343.391	42.353	0.118	-0.107
-342.377	-14.329	0.366	-0.235
-341.362	418.409	-0.171	0.364
-340.348	-135.685	-0.152	0.018
-339.333	-101.115	-0.228	0.056
-338.318	42.813	0.037	-0.034
-337.304	-200.000	-0.041	-0.331
-336.289	120.785	-0.078	0.097
-335.275	-7.143	0.275	0.186
-334.260	184.347	-0.096	-0.142
-333.245	83.639	-0.186	-0.202
-332.231	-51.807	-0.120	0.055
-331.216	-200.000	-0.002	0.014
-330.202	25.661	0.236	0.195
-329.187	641.310	0.149	0.379
-328.172	-144.190	-0.118	0.011
-327.158	14.464	0.158	0.122
-326.143	360.525	0.204	-0.406
-325.129	-46.525	-0.266	0.130
-324.114	541.300	0.069	0.164
-323.099	5.280	0.221	0.162
-322.085	-115.311	0.176	-0.033
-321.070	-5.805	-0.257	0.175
-320.056	-45.823	0.259	-0.127
-319.041	-28.935	0.113	-0.064
-318.026	-78.655	0.025	-0.008
-317.012	800.000	-0.056	0.153
-315.997	-133.252	0.088	0.011
-314.983	800.000	0.142	0.397
-313.968	800.000	-0.053	0.164
-312.953	800.000	0.119	0.410
-311.939	490.402	0.105	0.238
-310.924	-50.956	-0.078	0.036
-309.910	595.709	0.139	0.343
-308.895	-200.000	-0.003	0.163
-307.880	-5.011	0.155	0.106
-306.866	800.000	0.026	-0.098
-305.851	-9.181	-0.104	-0.069
-304.837	28.285	0.136	-0.114
-303.822	36.191	-0.201	-0.176
-302.807	-27.913	-0.066	0.038
-301.793	-200.000	-0.037	0.164
-300.778	412.282	-0.080	-0.168
-299.764	285.991	-0.142	-0.255
-298.749	-71.476	-0.139	0.052
-297.735	296.823	-0.144	0.262
-296.720	-200.000	-0.007	0.244
-295.705	-77.196	0.110	0.038
-294.691	18.743	-0.171	-0.136
-293.676	618.498	-0.037	-0.092
-292.662	-200.000	-0.029	0.253
-291.647	-36.179	0.012	0.006
-290.632	159.163	-0.158	0.218
-289.618	-200.000	-0.018	0.209
-288.603	800.000	0.043	0.144
-287.589	-200.000	0.015	0.073
-286.574	-124.222	-0.115	0.018
-285.559	32.429	-0.295	0.253
-284.545	-70.657	-0.289	0.108
-283.530	145.305	-0.074	-0.099
-282.516	-107.989	-0.291	0.063
-281.501	-66.659	0.210	0.083
-280.486	732.944	-0.173	-0.459
-279.472	-5.806	-0.148	-0.100
-278.457	-200.000	-0.045	0.214
-277.443	-200.000	0.001	0.111
-276.428	132.320	0.216	0.276
-275.413	654.291	0.030	0.077
-274.399	800.000	-0.074	0.230
-273.384	-55.250	0.101	0.045
-272.370	-69.297	-0.321	-0.123
-271.355	137.059	-0.315	-0.408
-270.340	-58.645	-0.205	-0.088
-269.326	-59.467	-0.094	-0.040
-268.311	455.181	-0.145	0.319
-267.297	-23.198	0.196	-0.117
-266.282	391.413	0.055	0.114
-265.267	800.000	-0.035	-0.149
-264.253	304.045	0.044	-0.082
-263.238	123.450	0.019	0.024
-262.224	-93.361	0.150	-0.041
-261.209	171.095	0.214	-0.305
-260.195	-200.000	0.030	-0.172
-259.180	-200.000	-0.027	-0.196
-258.165	800.000	-0.059	0.256
-257.151	465.857	0.063	-0.141
-256.136	-168.090	0.241	-0.009
-255.122	-169.709	-0.143	0.005
-254.107	322.231	0.152	0.287
-253.092	15.061	0.059	-0.046
-252.078	579.067	0.106	-0.259
-251.063	-200.000	0.035	-0.240
-250.049	-185.496	0.185	-0.003
-249.034	138.478	-0.088	0.114
-248.019	267.041	-0.026	-0.046
-247.005	800.000	-0.107	-0.387
-245.990	-200.000	-0.030	-0.155
-244.976	62.851	0.207	-0.206
-243.961	-200.000	-0.036	0.450
-242.946	112.813	-0.105	0.126
-241.932	131.982	-0.168	-0.215
-240.917	800.000	0.140	0.452
-239.903	-142.196	0.095	0.009
-238.888	116.871	-0.150	0.182
-237.873	109.548	0.176	-0.210
-236.859	-26.382	-0.130	-0.076
-235.844	111.568	-0.017	-0.020
-234.830	711.474	-0.103	0.271
-233.815	-107.548	-0.181	-0.039
-232.800	73.578	0.230	-0.239
-231.786	800.000	0.049	0.195
-230.771	-11.400	-0.198	-0.129
-229.757	-86.297	-0.294	-0.090
-228.742	-13.027	0.398	0.257
-227.727	254.044	-0.148	0.250
-226.713	139.641	-0.123	-0.161
-225.698	-81.809	0.165	-0.054
-224.684	-200.000	0.022	-0.162
-223.669	-87.694	-0.151	0.045
-222.655	-25.720	0.151	0.088
-221.640	-158.983	0.338	0.019
-220.625	-200.000	0.013	0.072
-219.611	595.651	0.123	0.302
-218.596	-200.000	0.025	-0.200
-217.582	-200.000	0.010	-0.174
-216.567	-200.000	-0.160	0.000
-215.552	-67.658	-0.086	-0.034
-214.538	27.755	-0.343	-0.286
-213.523	237.569	0.110	-0.180
-212.509	48.965	0.230	0.214
-211.494	800.000	0.078	0.231
-210.479	293.959	0.142	0.256
-209.465	-58.387	-0.125	-0.054
-208.450	516.567	0.127	0.293
-207.436	127.447	0.195	0.246
-206.421	-91.923	-0.349	-0.098
-205.406	-200.000	-0.076	0.346
-204.392	-200.000	-0.005	-0.032
-203.377	3.784	0.218	0.158
-202.363	-36.184	0.084	-0.045
-201.348	-200.000	0.038	-0.170
-200.333	13.073	-0.270	-0.207
-199.319	-98.632	0.071	-0.018
-198.304	-72.581	-0.169	0.062
-197.290	-162.975	0.213	-0.010
-196.275	-22.160	0.289	0.174
-195.260	-76.106	-0.260	-0.091
-194.246	-166.349	-0.311	-0.013
-193.231	255.822	-0.067	-0.114
-192.217	800.000	0.042	-0.146
-191.202	-200.000	-0.011	-0.256
-190.187	800.000	-0.056	0.158
-189.173	107.676	-0.141	-0.166
-188.158	-200.000	-0.059	-0.461
-187.144	86.374	-0.160	-0.175
-186.129	-200.000	-0.005	-0.319
-185.114	659.703	0.011	-0.027
-184.100	12.922	-0.267	-0.204
-183.085	800.000	-0.033	0.130
-182.071	-111.090	0.110	0.022
-181.056	-118.842	-0.022	0.004
-180.042	-106.340	0.354	0.078
-179.027	-200.000	-0.000	0.563
-178.012	-121.277	0.112	0.019
-176.998	800.000	-0.009	0.035
-175.983	-200.000	-0.025	-0.163
-174.969	-121.445	-0.251	-0.041
-173.954	-77.193	0.117	-0.040
-172.939	800.000	0.111	-0.338
-171.925	584.840	-0.081	-0.198
-170.910	-133.918	-0.268	0.033
-169.896	662.447	-0.112	-0.285
-168.881	-200.000	0.025	0.224
-167.866	-164.283	-0.289	-0.013
-166.852	718.266	0.219	0.574
-165.837	-98.878	-0.211	0.053
-164.823	501.805	-0.086	-0.196
-163.808	134.539	0.270	-0.347
-162.793	635.969	-0.156	-0.392
-161.779	-73.988	0.120	-0.043
-160.764	-200.000	0.015	-0.220
-159.750	292.955	-0.026	0.046
-158.735	-28.862	0.263	-0.149
-157.720	-178.853	0.240	-0.005
-156.706	-104.768	0.048	-0.011
-155.691	158.112	-0.178	0.243
-154.677	165.216	0.049	0.069
-153.662	51.142	0.149	-0.139
-152.647	-200.000	0.048	0.332
-151.633	-140.268	0.452	-0.047
-150.618	-133.221	0.212	0.026
-149.604	646.064	0.024	0.062
-148.589	-12.803	0.198	0.128
-147.574	-200.000	0.266	0.000
-146.560	800.000	-0.056	0.174
-145.545	-155.809	0.388	0.024
-144.531	-7.225	-0.177	-0.118
-143.516	-200.000	-0.059	0.438
-142.502	-200.000	-0.060	0.304
-141.487	-134.608	0.255	0.031
-140.472	-200.000	0.001	0.160
-139.458	-2.853	0.041	-0.028
-138.443	206.161	-0.110	-0.169
-137.429	-200.000	-0.042	-0.300
-136.414	65.902	-0.089	-0.089
-135.399	160.154	0.139	0.191
-134.385	51.955	-0.155	-0.146
-133.370	800.000	0.055	-0.184
-132.356	-200.000	0.005	0.025
-131.341	94.090	0.129	0.145
-130.326	33.165	-0.442	-0.379
-129.312	-118.918	0.250	0.043
-128.297	118.416	-0.132	0.161
-127.283	322.320	0.060	-0.112
-126.268	29.705	-0.036	-0.031
-125.253	800.000	-0.018	0.063
-124.239	273.182	0.111	-0.193
-123.224	750.602	0.172	0.458
-122.210	-98.908	-0.166	-0.042
-121.195	35.016	-0.278	-0.240
-120.180	-200.000	0.020	0.160
-119.166	551.721	-0.112	-0.265
-118.151	-44.329	-0.085	-0.042
-117.137	-80.662	0.457	0.150
-116.122	-101.164	0.159	0.038
-115.107	-200.000	0.043	-0.229
-114.093	-4.831	0.055	-0.037
-113.078	294.391	0.174	0.314
-112.064	378.635	-0.107	-0.217
-111.049	-95.245	-0.082	-0.022
-110.034	102.460	-0.109	0.125
-109.020	-125.201	0.290	-0.044
-108.005	-200.000	-0.007	-0.152
-106.991	741.369	0.061	-0.162
-105.976	53.005	-0.189	-0.178
-104.962	800.000	-0.061	0.241
-103.947	-200.000	0.010	-0.287
-102.932	-127.518	0.252	0.036
-101.918	-200.000	0.037	-0.176
-100.903	-95.577	-0.322	-0.085
-99.889	-1.992	-0.055	-0.038
-98.874	-27.729	-0.164	-0.094
-97.859	211.908	-0.093	-0.144
-96.845	800.000	-0.037	0.142
-95.830	57.710	0.158	0.153
-94.816	63.655	-0.243	-0.241
-93.801	-200.000	0.015	0.348
-92.786	800.000	-0.076	-0.268
-91.772	800.000	0.011	0.031
-90.757	-100.765	-0.490	-0.119
-89.743	-143.273	-0.267	0.025
-88.728	67.736	0.110	-0.111
-87.713	116.620	0.424	0.513
-86.699	-140.569	0.230	0.024
-85.684	-120.462	0.060	0.010
-84.670	800.000	0.094	-0.259
-83.655	-200.000	-0.025	-0.170
-82.640	-33.406	0.184	-0.100
-81.626	-118.927	0.216	0.037
-80.611	74.474	0.179	-0.186
-79.597	223.475	0.158	-0.251
-78.582	321.480	-0.169	0.317
-77.567	343.558	-0.067	-0.129
-76.553	193.214	-0.078	0.117
-75.538	47.702	-0.140	-0.129
-74.524	-8.609	0.259	-0.171
-73.509	-200.000	-0.042	0.204
-72.494	-83.182	0.214	0.068
-71.480	-200.000	-0.043	-0.220
-70.465	-200.000	0.006	-0.140
-69.451	-143.152	0.094	0.009
-68.436	-200.000	0.055	0.288
-67.422	-169.474	-0.083	0.003
-66.407	-200.000	0.013	0.292
-65.392	-17.579	-0.064	-0.040
-64.378	-149.030	0.177	-0.014
-63.363	-92.878	0.445	0.122
-62.349	-200.000	0.065	0.281
-61.334	65.793	-0.898	-0.897
-60.319	567.643	0.251	0.601
-59.305	-200.000	0.057	-0.740
-58.290	353.364	0.500	0.976
-57.276	800.000	0.430	1.417
-56.261	-200.000	95.844	546.281
-55.246	508.102	1419.769	3245.562
-54.232	144.737	2654.716	3493.146
-53.217	104.641	2353.221	2729.673
-52.203	43.787	1959.230	1765.996
-51.188	37.588	1744.103	1523.683
-50.173	34.867	1699.430	1463.799
-49.159	50.567	1746.569	1626.598
-48.144	53.310	1763.888	1663.949
-47.130	37.281	1720.969	1500.862
-46.115	34.589	1705.495	1466.657
-45.100	34.445	1700.635	1461.310
-44.086	34.298	1698.004	1457.873
-43.071	34.290	1695.511	1455.609
-42.057	34.286	1693.156	1453.502
-41.042	34.338	1690.742	1451.768
-40.027	34.355	1688.578	1449.979
-39.013	34.266	1686.989	1447.883
-37.998	34.404	1684.656	1446.871
-36.984	34.362	1683.859	1445.808
-35.969	34.431	1682.090	1444.756
-34.954	34.391	1680.887	1443.365
-33.940	34.471	1678.719	1442.046
-32.925	34.378	1676.402	1439.296
-31.911	34.416	1674.829	1438.176
-30.896	34.405	1673.105	1436.559
-29.881	34.374	1671.433	1434.830
-28.867	34.368	1669.912	1433.420
-27.852	34.455	1668.388	1432.708
-26.838	34.411	1666.814	1430.975
-25.823	34.416	1665.428	1429.763
-24.809	34.562	1663.578	1429.213
-23.794	34.348	1662.530	1426.650
-22.779	34.531	1660.921	1426.582
-21.765	34.449	1659.289	1424.510
-20.750	34.475	1657.509	1423.121
-19.736	34.489	1656.021	1421.890
-18.721	34.488	1654.573	1420.589
-17.706	34.420	1653.110	1418.767
-16.692	34.412	1651.547	1417.311
-15.677	34.521	1649.709	1416.485
-14.663	34.502	1648.607	1415.343
-13.648	34.500	1646.881	1413.789
-12.633	34.475	1645.462	1412.329
-11.619	34.424	1644.441	1411.023
-10.604	34.495	1642.023	1409.415
-9.590	34.511	1641.157	1408.734
-8.575	34.465	1639.796	1407.168
-7.560	34.414	1638.643	1405.750
-6.546	34.521	1637.318	1405.347
-5.531	34.568	1635.832	1404.359
-4.517	34.451	1635.216	1402.910
-3.502	34.417	1633.998	1401.563
-2.487	34.619	1632.174	1401.424
-1.473	34.364	1621.461	1390.311
-0.458	31.699	1600.984	1353.471
0.556	26.262	1600.338	1316.101
1.571	23.303	1623.646	1313.251
2.586	22.201	1636.390	1315.196
3.600	19.670	1582.948	1253.795
4.615	11.217	1467.613	1105.241
5.629	2.655	1398.546	997.600
6.644	0.796	1389.363	978.939
7.659	0.725	1387.902	977.361
8.673	0.545	1387.283	975.674
9.688	0.474	1385.704	974.023
10.702	0.380	1382.229	970.887
11.717	4.259	1388.257	1000.083
12.731	12.864	1402.486	1066.106
13.746	17.586	1408.598	1101.256
14.761	17.397	1406.948	1098.646
15.775	16.587	1404.332	1091.279
16.790	15.613	1401.957	1083.065
17.804	14.860	1399.412	1076.159
18.819	14.439	1397.869	1072.166
19.834	14.115	1396.490	1068.933
20.848	13.822	1395.362	1066.091
21.863	13.633	1393.879	1063.652
22.877	13.388	1392.909	1061.247
23.892	13.385	1391.713	1060.226
24.907	13.404	1391.062	1059.757
25.921	13.432	1389.792	1058.875
26.936	13.486	1388.800	1058.368
27.950	13.527	1388.195	1058.075
28.965	13.622	1387.201	1057.830
29.980	13.621	1386.338	1057.075
30.994	13.533	1385.548	1055.818
32.009	13.622	1384.719	1055.660
33.023	13.597	1383.525	1054.498
34.038	13.691	1381.729	1053.628
35.053	13.652	1380.723	1052.521
36.067	13.559	1379.818	1051.150
37.082	13.548	1378.894	1050.285
38.096	13.544	1377.757	1049.300
39.111	13.512	1377.016	1048.438
40.126	13.584	1375.884	1047.940
41.140	13.468	1375.205	1046.598
42.155	13.435	1374.975	1046.123
43.169	13.422	1374.892	1045.885
44.184	13.361	1374.796	1045.333
45.199	13.443	1374.320	1045.394
46.213	13.480	1373.523	1044.929
47.228	13.468	1372.544	1044.014
48.242	13.540	1371.053	1043.240
49.257	13.547	1369.761	1042.212
50.271	13.477	1368.142	1040.447
51.286	13.506	1366.889	1039.585
52.301	13.514	1365.584	1038.550
53.315	13.507	1364.226	1037.385
54.330	13.528	1363.686	1037.009
55.344	13.376	1362.553	1035.106
56.359	13.429	1361.223	1034.338
57.374	13.449	1360.231	1033.617
58.388	13.407	1359.250	1032.520
59.403	13.415	1358.959	1032.257
60.417	13.317	1358.330	1031.074
61.432	13.397	1357.390	1030.767
62.447	13.333	1356.032	1029.249
63.461	13.313	1355.002	1028.252
64.476	13.388	1353.731	1027.662
65.490	13.327	1352.949	1026.600
66.505	13.361	1351.234	1025.415
67.520	13.379	1349.983	1024.490
68.534	13.378	1348.787	1023.485
69.549	13.314	1348.310	1022.636
70.563	13.351	1347.034	1021.804
71.578	13.193	1345.753	1019.769
72.593	13.242	1344.874	1019.317
73.607	13.267	1343.751	1018.528
74.622	13.243	1342.962	1017.689
75.636	13.165	1342.187	1016.533
76.651	13.283	1341.323	1016.517
77.666	13.262	1341.450	1016.389
78.680	13.407	1340.065	1016.141
79.695	13.249	1339.241	1014.457
80.709	13.362	1338.174	1014.256
81.724	13.392	1337.406	1013.767
82.739	13.434	1336.746	1013.431
83.753	13.438	1335.485	1012.409
84.768	13.492	1334.679	1012.040
85.782	13.533	1333.218	1011.091
86.797	13.440	1332.096	1009.584
87.812	13.413	1330.852	1008.388
88.826	13.424	1329.718	1007.506
89.841	13.432	1328.522	1006.561
90.855	13.447	1327.863	1006.064
91.870	13.535	1326.877	1005.764
92.884	13.558	1325.881	1005.057
93.899	13.610	1324.836	1004.490
94.914	13.490	1324.546	1003.458
95.928	13.612	1323.328	1003.181
96.943	13.527	1322.507	1001.958
97.957	13.525	1321.444	1001.052
98.972	13.643	1320.147	1000.692
99.987	13.601	1318.913	999.419
101.001	13.549	1317.957	998.288
102.016	13.500	1317.429	997.506
103.030	13.544	1316.492	996.974
104.045	13.647	1314.993	996.366
105.060	13.503	1314.082	994.724
106.074	13.444	1313.054	993.505
107.089	13.433	1311.427	992.123
108.103	13.369	1310.125	990.663
109.118	13.387	1309.248	990.022
110.133	13.287	1307.948	988.356
111.147	13.386	1306.693	987.907
112.162	13.444	1304.956	986.854
113.176	13.423	1304.486	986.288
114.191	13.469	1303.204	985.504
115.206	13.481	1302.152	984.691
116.220	13.419	1301.319	983.604
117.235	13.534	1300.119	983.295
118.249	13.474	1298.621	981.718
119.264	13.474	1297.461	980.758
120.279	13.475	1296.325	979.814
121.293	13.471	1295.696	979.228
122.308	13.396	1294.638	977.902
123.322	13.397	1293.524	976.980
124.337	13.395	1292.691	976.250
125.352	13.443	1291.637	975.650
126.366	13.467	1290.012	974.479
127.381	13.359	1289.351	973.258
128.395	13.502	1287.762	972.816
129.410	13.397	1287.817	972.154
130.424	13.465	1286.707	971.625
131.439	13.552	1285.664	971.262
132.454	13.459	1284.880	970.043
133.468	13.585	1283.044	969.305
134.483	13.502	1282.609	968.409
135.497	13.558	1281.404	967.739
136.512	13.586	1280.044	966.787
137.527	13.427	1278.933	964.934
138.541	13.592	1277.241	964.538
139.556	13.648	1275.853	963.725
140.570	13.682	1274.958	963.165
141.585	13.611	1273.478	961.551
142.600	13.665	1272.635	961.141
143.614	13.616	1272.041	960.321
144.629	13.677	1270.600	959.501
145.643	13.725	1269.506	958.869
146.658	13.581	1268.410	957.123
147.673	13.640	1266.902	956.245
148.687	13.529	1265.831	954.712
149.702	13.635	1263.994	953.848
150.716	13.607	1262.584	952.539
151.731	13.607	1261.402	951.564
152.746	13.533	1260.465	950.349
153.760	13.550	1259.632	949.732
154.775	13.599	1258.208	948.859
155.789	13.800	1256.755	948.828
156.804	13.623	1256.487	947.529
157.819	13.681	1255.285	946.867
158.833	13.617	1254.182	945.590
159.848	13.710	1252.867	945.046
160.862	13.796	1251.438	944.373
161.877	13.761	1250.745	943.565
162.892	13.702	1249.613	942.291
163.906	13.548	1249.203	941.025
164.921	13.693	1247.822	940.724
165.935	13.694	1247.099	940.104
166.950	13.796	1246.509	940.150
167.964	13.831	1245.192	939.272
168.979	13.757	1244.823	938.493
169.994	13.687	1244.146	937.504
171.008	13.873	1242.776	937.440
172.023	13.756	1242.356	936.378
173.037	13.870	1241.613	936.378
174.052	13.895	1240.443	935.557
175.067	13.813	1239.442	934.258
176.081	13.848	1238.520	933.677
177.096	13.920	1237.544	933.263
178.110	13.852	1236.365	931.909
179.125	13.886	1235.324	931.234
180.140	13.909	1234.072	930.332
181.154	13.976	1232.485	929.432
182.169	13.966	1231.474	928.530
183.183	13.986	1230.033	927.472
184.198	13.956	1229.244	926.628
185.213	13.933	1228.103	925.557
186.227	14.074	1226.667	925.180
187.242	14.087	1225.675	924.422
188.256	14.216	1224.980	924.534
189.271	14.153	1223.675	923.119
190.286	14.023	1222.718	921.592
191.300	13.989	1222.115	920.868
192.315	13.867	1221.539	919.675
193.329	13.907	1221.032	919.433
194.344	13.950	1219.946	918.772
195.359	14.006	1219.465	918.637
196.373	13.997	1219.107	918.238
197.388	14.162	1218.049	918.269
198.402	14.138	1218.050	918.056
199.417	14.285	1216.837	917.871
200.432	14.258	1216.894	917.689
201.446	14.240	1216.067	916.883
202.461	14.276	1214.722	915.983
203.475	14.276	1213.639	915.088
204.490	14.357	1212.535	914.621
205.504	14.353	1211.010	913.365
206.519	14.296	1210.161	912.332
207.534	14.277	1209.073	911.325
208.548	14.299	1207.808	910.414
209.563	14.184	1207.679	909.604
210.577	14.307	1206.816	909.549
211.592	14.304	1205.565	908.511
212.607	14.284	1205.150	908.006
213.621	14.342	1203.936	907.325
214.636	14.386	1203.307	907.015
215.650	14.359	1202.343	906.056
216.665	14.497	1200.859	905.609
217.680	14.484	1200.194	904.958
218.694	14.463	1199.264	904.064
219.709	14.603	1198.312	904.026
220.723	14.589	1197.431	903.205
221.738	14.486	1196.929	902.189
222.753	14.459	1196.505	901.639
223.767	14.515	1195.658	901.224
224.782	14.584	1194.929	900.971
225.796	14.678	1193.940	900.654
226.811	14.693	1193.536	900.348
227.826	14.646	1192.315	899.096
228.840	14.573	1192.313	898.619
229.855	14.588	1191.144	897.738
230.869	14.608	1190.814	897.519
231.884	14.549	1189.783	896.345
232.899	14.557	1189.112	895.806
233.913	14.545	1188.355	895.091
234.928	14.547	1186.974	893.979
235.942	14.562	1186.960	893.972
236.957	14.612	1185.851	893.325
237.972	14.555	1185.342	892.559
238.986	14.671	1184.318	892.330
240.001	14.557	1183.901	891.325
241.015	14.647	1182.666	890.799
242.030	14.707	1181.853	890.428
243.045	14.621	1181.580	889.680
244.059	14.742	1180.150	889.172
245.074	14.689	1179.739	888.499
246.088	14.795	1178.515	888.064
247.103	14.754	1178.574	887.813
248.117	14.950	1176.939	887.543
249.132	14.937	1176.499	887.064
250.147	14.923	1175.755	886.347
251.161	14.862	1175.235	885.558
252.176	14.955	1174.669	885.545
253.190	15.058	1173.746	885.315
254.205	15.059	1173.202	884.829
255.220	15.187	1172.398	884.824
256.234	15.068	1171.759	883.633
257.249	15.061	1171.365	883.219
258.263	15.180	1170.196	882.890
259.278	15.121	1169.945	882.311
260.293	15.183	1169.464	882.195
261.307	15.245	1168.721	881.886
262.322	15.201	1167.942	880.988
263.336	15.207	1167.206	880.386
264.351	15.200	1166.765	879.939
265.366	15.171	1166.258	879.324
266.380	15.215	1165.622	878.997
267.395	15.196	1164.711	878.135
268.409	15.265	1163.742	877.686
269.424	15.263	1163.282	877.250
270.439	15.311	1162.760	877.033
271.453	15.281	1161.784	876.062
272.468	15.235	1160.759	874.972
273.482	15.223	1159.936	874.209
274.497	15.312	1159.576	874.323
275.512	15.346	1158.447	873.572
276.526	15.412	1157.892	873.421
277.541	15.389	1157.370	872.830
278.555	15.393	1156.548	872.154
279.570	15.397	1155.924	871.625
280.585	15.497	1154.954	871.340
281.599	15.530	1153.837	870.588
282.614	15.523	1152.882	869.755
283.628	15.464	1152.503	869.087
284.643	15.507	1150.824	867.968
285.657	15.446	1150.387	867.243
286.672	15.490	1149.487	866.716
287.687	15.550	1148.220	865.996
288.701	15.530	1147.973	865.631
289.716	15.598	1146.852	865.055
290.730	15.508	1146.396	864.175
291.745	15.666	1145.516	864.247
292.760	15.521	1145.093	863.103
293.774	15.611	1144.403	862.970
294.789	15.758	1143.905	863.274
295.803	15.702	1142.907	862.155
296.818	15.771	1142.264	861.947
297.833	15.619	1141.942	860.853
298.847	15.563	1140.845	859.661
299.862	15.683	1139.642	859.291
300.876	15.687	1138.992	858.749
301.891	15.769	1138.263	858.541
302.906	15.738	1138.051	858.146
303.920	15.793	1137.276	857.764
304.935	15.861	1136.359	857.346
305.949	15.953	1135.352	856.978
306.964	16.010	1134.708	856.705
307.979	15.918	1134.497	856.003
308.993	15.816	1133.741	854.838
310.008	15.913	1132.655	854.433
311.022	15.921	1132.245	854.089
312.037	16.018	1131.357	853.836
313.052	15.831	1130.455	852.136
314.066	15.957	1129.344	851.858
315.081	15.988	1128.416	851.239
316.095	15.905	1127.587	850.119
317.110	15.914	1127.376	849.929
318.125	15.927	1126.184	849.020
319.139	15.903	1125.740	848.492
320.154	15.847	1125.210	847.735
321.168	15.941	1124.450	847.560
322.183	15.935	1123.883	847.027
323.197	15.981	1122.982	846.506
324.212	15.952	1122.390	845.839
325.227	16.003	1121.985	845.714
326.241	16.003	1121.295	845.120
327.256	15.921	1120.515	844.045
328.270	15.938	1119.665	843.419
329.285	16.106	1118.560	843.350
330.300	16.160	1117.438	842.701
331.314	16.011	1116.550	841.212
332.329	16.062	1115.861	840.870
333.343	16.012	1114.621	839.615
334.358	16.119	1113.890	839.519
335.373	16.080	1113.232	838.759
336.387	16.173	1112.699	838.743
337.402	16.172	1111.913	838.074
338.416	16.239	1110.861	837.540
339.431	16.237	1110.259	836.998
340.446	16.257	1109.475	836.434
341.460	16.259	1109.024	836.030
342.475	16.398	1108.064	835.920
343.489	16.362	1107.113	834.952
344.504	16.470	1106.227	834.743
345.519	16.372	1105.474	833.615
346.533	16.420	1104.350	832.931
347.548	16.523	1103.899	833.025
348.562	16.386	1103.443	831.932
349.577	16.407	1102.372	831.157
350.592	16.360	1101.750	830.380
351.606	16.457	1101.096	830.290
352.621	16.561	1100.014	829.911
353.635	16.393	1099.674	828.760
354.650	16.383	1098.616	827.836
355.665	16.491	1097.868	827.731
356.679	16.493	1097.660	827.509
357.694	16.605	1096.915	827.424
358.708	16.606	1096.530	827.063
359.723	16.527	1095.836	826.083
360.738	16.576	1094.933	825.569
361.752	16.503	1094.423	824.752
362.767	16.641	1093.980	825.021
363.781	16.609	1093.274	824.256
364.796	16.538	1092.933	823.583
365.810	16.608	1092.233	823.320
366.825	16.761	1090.973	823.042
367.840	16.785	1090.823	822.975
368.854	16.752	1090.224	822.289
369.869	16.734	1089.219	821.370
370.883	16.794	1088.400	820.970
371.898	16.802	1087.678	820.392
372.913	16.817	1086.985	819.871
373.927	16.893	1086.622	819.891
374.942	16.907	1085.874	819.321
375.956	16.845	1085.678	818.800
376.971	16.880	1084.986	818.377
377.986	16.920	1084.176	817.887
379.000	16.992	1083.880	817.938
380.015	16.959	1083.431	817.365
381.029	16.929	1082.719	816.613
382.044	17.028	1082.001	816.478
383.059	17.017	1081.121	815.687
384.073	17.082	1080.113	815.167
385.088	17.014	1079.490	814.296
386.102	16.990	1078.506	813.369
387.117	16.957	1077.582	812.442
388.132	16.989	1076.792	811.926
389.146	17.030	1076.070	811.507
390.161	17.118	1075.299	811.277
391.175	17.037	1074.611	810.299
392.190	17.044	1074.067	809.848
393.205	17.185	1072.910	809.578
394.219	17.097	1071.940	808.355
395.234	17.066	1071.162	807.547
396.248	17.143	1069.717	806.753
397.263	17.171	1068.982	806.259
398.278	17.194	1068.471	805.912
399.292	17.101	1068.164	805.169
400.307	17.083	1067.430	804.457
401.321	17.182	1066.433	804.107
402.336	17.077	1066.113	803.294
403.350	17.143	1065.700	803.227
404.365	17.145	1064.729	802.430
405.380	17.171	1064.085	801.999
406.394	17.237	1063.292	801.640
407.409	17.167	1062.323	800.509
408.423	17.247	1061.516	800.210
409.438	17.299	1060.657	799.736
410.453	17.338	1060.198	799.498
411.467	17.404	1059.301	799.063
412.482	17.438	1058.772	798.751
413.496	17.492	1058.248	798.540
414.511	17.347	1057.583	797.288
415.526	17.623	1056.937	798.022
416.540	17.402	1056.614	796.674
417.555	17.545	1055.976	796.791
418.569	17.482	1055.771	796.272
419.584	17.525	1055.109	795.904
420.599	17.526	1054.597	795.450
421.613	99.381	1316.754	1445.098
422.628	91.604	1354.917	1445.217
