DTS Sentinel unit serial number:	SN413079Multiplexer serial number:	ORYXHardware model number:	OX4-SRSoftware version number:	ORYX F/W v4.00 Oryx Data Collector v3.7.2.0data status	okinstallation	princeton_trtdifferential loss correction	single-endedforward channel	channel 2reverse channel	N/Adate	2019/09/12time	20:02:49forward acquisition time	15.00reverse acquisition time	0.00gamma	496.2192k internal	0.2328k external	0.2328temperature offset calibration	1.0154default loss term (dB/km)	0.3790temperature slope calibration	1.0000multiplexer offset coefficient	1.0000multiplexer slope coefficient	1.0000fibre end	0.00T internal ref (°C)	31.75T ext. ref 1 (°C)	3.49T ext. ref 2 (°C)	26.39length (m)	temperature (°C)	Stokes	anti-Stokes-747.200	-31.374	-0.204	0.116
-746.185	800.000	-0.203	-0.790
-745.171	4.436	0.210	-0.155
-744.156	73.086	-0.267	-0.282
-743.142	-200.000	0.009	-0.498
-742.127	639.390	0.179	0.460
-741.112	-74.844	0.348	-0.126
-740.098	-143.732	0.354	-0.034
-739.083	73.463	0.283	0.299
-738.069	800.000	-0.175	-0.573
-737.054	34.136	-0.918	0.806
-736.039	800.000	-0.056	-0.170
-735.025	-172.447	0.341	-0.011
-734.010	44.376	0.367	-0.340
-732.996	-39.105	-0.767	-0.406
-731.981	275.011	0.513	0.916
-730.966	-188.257	-0.309	-0.004
-729.952	-8.868	0.429	0.290
-728.937	1.952	-0.349	0.253
-727.923	-109.356	1.084	0.231
-726.908	-200.000	0.058	0.386
-725.894	110.212	-0.463	0.560
-724.879	-184.449	0.510	0.008
-723.864	85.083	0.343	0.378
-722.850	-200.000	-0.027	-0.278
-721.835	-200.000	-0.227	-1.012
-720.821	-200.000	-0.000	0.410
-719.806	800.000	0.098	0.425
-718.791	-200.000	0.040	-0.281
-717.777	388.586	0.055	0.114
-716.762	584.939	-0.159	0.394
-715.748	800.000	0.356	-1.055
-714.733	99.645	0.276	0.322
-713.718	-128.535	-0.690	0.098
-712.704	-155.035	-0.689	0.046
-711.689	283.456	-0.122	0.221
-710.675	167.118	-0.732	-1.046
-709.660	-92.990	-0.668	-0.188
-708.645	158.499	-0.084	0.118
-707.631	-200.000	-0.016	-0.330
-706.616	10.015	-0.629	-0.481
-705.602	-113.793	-0.296	0.058
-704.587	-200.000	0.004	0.406
-703.572	-91.739	0.487	-0.139
-702.558	94.625	0.096	0.110
-701.543	-200.000	-0.058	-0.541
-700.529	800.000	-0.591	-1.710
-699.514	-200.000	-0.028	0.293
-698.499	800.000	-0.378	-1.050
-697.485	-155.642	0.810	0.052
-696.470	-200.000	-0.074	-0.410
-695.456	-35.121	0.173	-0.095
-694.441	129.343	-0.438	0.563
-693.426	-9.339	-0.399	-0.268
-692.412	-200.000	0.009	-0.525
-691.397	-49.735	-0.653	0.312
-690.383	-73.425	0.421	0.155
-689.368	-200.000	0.076	0.367
-688.354	238.332	0.377	0.630
-687.339	-73.465	-0.280	-0.103
-686.324	-9.911	-0.448	-0.299
-685.310	-200.000	0.008	-0.483
-684.295	110.708	-0.300	0.363
-683.281	4.293	-0.843	-0.621
-682.266	56.005	0.460	0.449
-681.251	-48.330	-0.097	0.047
-680.237	-138.189	-0.426	-0.048
-679.222	-43.638	-0.692	-0.351
-678.208	3.831	-0.272	-0.200
-677.193	417.653	0.241	0.518
-676.178	-104.679	-0.578	0.134
-675.164	-164.217	0.638	0.030
-674.149	-79.982	0.253	-0.085
-673.135	465.484	0.226	-0.509
-672.120	174.252	-0.359	0.522
-671.105	85.447	0.159	-0.176
-670.091	-166.021	-0.357	0.015
-669.076	-78.347	-0.430	-0.148
-668.062	85.608	0.401	0.442
-667.047	-10.360	-0.634	0.423
-666.032	-200.000	0.059	-0.735
-665.018	-13.934	-0.290	0.188
-664.003	333.270	0.273	-0.530
-662.989	-81.649	0.404	0.133
-661.974	-71.892	0.604	-0.226
-660.959	-200.000	-0.015	-0.077
-659.945	572.279	-0.122	-0.298
-658.930	-147.850	-0.652	0.055
-657.916	-82.762	-0.343	0.111
-656.901	-4.782	0.668	-0.463
-655.886	198.259	0.263	-0.403
-654.872	-36.011	-0.239	-0.130
-653.857	-120.908	0.595	0.101
-652.843	-80.442	-0.513	-0.172
-651.828	-200.000	-0.017	-0.175
-650.814	-95.024	-0.784	0.213
-649.799	-151.452	-0.695	0.052
-648.784	-139.732	-0.686	0.073
-647.770	-200.000	-0.130	-0.744
-646.755	-200.000	-0.112	-0.612
-645.741	-110.262	0.792	0.166
-644.726	800.000	0.064	-0.243
-643.711	-21.000	-0.860	-0.529
-642.697	-124.325	-0.806	-0.126
-641.682	-118.661	0.731	-0.130
-640.668	-183.856	0.702	-0.012
-639.653	-134.918	-0.351	-0.043
-638.638	-183.516	0.423	-0.007
-637.624	-200.000	0.013	0.156
-636.609	-4.022	-0.733	0.510
-635.595	-160.742	-0.711	0.038
-634.580	164.621	-0.041	0.058
-633.565	-140.073	0.747	0.079
-632.551	-22.788	0.033	-0.020
-631.536	800.000	0.113	0.338
-630.522	-46.963	-0.437	0.214
-629.507	800.000	0.202	-0.647
-628.492	563.111	0.283	-0.688
-627.478	-112.418	-0.668	0.134
-626.463	199.185	-0.499	0.767
-625.449	-7.271	-0.594	0.404
-624.434	170.257	0.304	-0.436
-623.419	-57.681	-0.700	-0.307
-622.405	-54.954	0.927	-0.419
-621.390	120.365	0.371	-0.462
-620.376	-200.000	-0.018	0.198
-619.361	484.403	0.328	0.750
-618.346	42.635	0.089	-0.081
-617.332	48.505	0.550	0.517
-616.317	-200.000	0.101	0.641
-615.303	-128.068	0.742	0.107
-614.288	102.525	-0.238	-0.279
-613.273	20.014	-0.266	-0.215
-612.259	-68.593	0.129	0.050
-611.244	-99.627	-0.483	-0.121
-610.230	152.052	0.403	0.551
-609.215	48.649	0.349	0.328
-608.201	-96.910	-0.735	-0.193
-607.186	-36.038	0.216	0.117
-606.171	-189.573	-0.517	0.006
-605.157	143.573	0.511	0.682
-604.142	-200.000	0.058	-0.630
-603.128	-88.066	-0.798	0.240
-602.113	686.141	-0.324	0.849
-601.098	-200.000	-0.092	0.882
-600.084	94.895	-0.280	0.319
-599.069	-200.000	0.019	-0.180
-598.055	93.078	0.725	0.821
-597.040	800.000	-0.171	-0.484
-596.025	-200.000	-0.018	-0.772
-595.011	-161.824	-0.362	0.018
-593.996	-200.000	-0.166	-0.856
-592.982	245.775	-0.076	-0.129
-591.967	360.534	-0.196	0.394
-590.952	-200.000	-0.120	0.566
-589.938	364.139	-0.066	-0.134
-588.923	555.469	-0.234	0.564
-587.909	-137.526	-0.671	-0.076
-586.894	-41.722	-0.669	0.344
-585.879	147.285	-0.452	-0.609
-584.865	184.716	0.151	-0.225
-583.850	-30.922	-0.289	-0.163
-582.836	-37.858	-0.430	-0.229
-581.821	158.210	0.473	-0.656
-580.806	564.164	-0.333	-0.809
-579.792	93.995	0.420	-0.477
-578.777	242.397	0.185	-0.311
-577.763	69.591	0.111	0.115
-576.748	-25.371	0.485	-0.287
-575.733	306.695	-0.270	-0.504
-574.719	176.562	0.572	-0.832
-573.704	460.956	-0.227	-0.507
-572.690	-200.000	-0.021	-0.365
-571.675	-135.656	0.567	0.067
-570.661	-200.000	-0.034	0.406
-569.646	-46.451	-0.326	-0.160
-568.631	-73.140	0.701	-0.257
-567.617	-25.398	-0.521	0.309
-566.602	61.013	0.095	-0.094
-565.588	-112.661	0.660	0.131
-564.573	587.803	-0.298	-0.735
-563.558	-79.122	0.701	0.238
-562.544	207.949	0.056	-0.087
-561.529	800.000	-0.078	-0.241
-560.515	-35.112	-0.669	-0.365
-559.500	87.560	0.264	-0.293
-558.485	676.095	0.316	0.822
-557.471	-84.446	0.919	0.290
-556.456	82.130	0.486	-0.527
-555.442	-64.322	-0.657	0.268
-554.427	-85.882	-0.388	0.120
-553.412	799.501	-0.360	-0.994
-552.398	-1.517	-0.355	-0.251
-551.383	432.125	-0.084	-0.183
-550.369	-200.000	0.087	-0.407
-549.354	614.840	-0.175	0.440
-548.339	229.661	-0.274	0.448
-547.325	-136.899	0.808	-0.093
-546.310	-125.600	-0.381	-0.058
-545.296	-200.000	-0.076	0.812
-544.281	339.920	-0.205	0.399
-543.266	-200.000	-0.042	0.344
-542.252	800.000	-0.241	0.758
-541.237	-119.403	0.645	-0.112
-540.223	-101.528	0.228	-0.055
-539.208	120.836	0.475	-0.590
-538.193	-165.628	0.454	0.020
-537.179	800.000	-0.245	0.749
-536.164	-10.644	-0.461	0.305
-535.150	-4.044	0.354	-0.245
-534.135	566.575	0.203	0.492
-533.121	-168.074	-0.346	-0.013
-532.106	729.924	0.123	-0.329
-531.091	35.803	-0.410	0.360
-530.077	-181.178	-0.424	-0.008
-529.062	36.216	-0.793	-0.698
-528.048	-200.000	-0.051	-0.869
-527.033	642.299	-0.099	0.251
-526.018	-56.698	0.372	-0.165
-525.004	-82.437	0.515	0.167
-523.989	18.827	0.729	-0.584
-522.975	-200.000	-0.014	0.289
-521.960	800.000	0.145	-0.534
-520.945	87.103	-0.421	0.465
-519.931	-37.926	-0.181	0.096
-518.916	118.169	-0.266	0.328
-517.902	-112.091	-0.735	-0.148
-516.887	-200.000	0.021	0.099
-515.872	-105.529	-0.512	0.116
-514.858	-200.000	0.036	-0.686
-513.843	800.000	-0.183	-0.679
-512.829	-200.000	-0.104	-0.464
-511.814	290.687	0.129	0.234
-510.799	143.585	-0.047	-0.062
-509.785	275.985	-0.405	-0.719
-508.770	-39.092	-0.205	-0.108
-507.756	-200.000	-0.016	0.125
-506.741	800.000	0.265	-0.811
-505.726	314.694	0.533	-1.003
-504.712	-27.146	0.377	-0.220
-503.697	-98.776	-0.417	0.106
-502.683	-200.000	0.064	-0.606
-501.668	112.274	0.728	0.879
-500.653	61.697	-0.316	-0.314
-499.639	82.591	0.733	0.794
-498.624	-200.000	0.013	-0.649
-497.610	53.009	0.787	0.751
-496.595	160.254	0.139	-0.193
-495.581	800.000	0.095	-0.306
-494.566	-78.090	0.333	-0.114
-493.551	-76.320	0.445	0.156
-492.537	-142.894	1.395	-0.135
-491.522	430.079	0.173	-0.374
-490.508	-200.000	-0.034	0.728
-489.493	123.875	0.304	-0.381
-488.478	800.000	-0.032	-0.099
-487.464	800.000	0.272	0.775
-486.449	46.617	0.208	-0.192
-485.435	-68.877	0.232	-0.089
-484.420	-172.568	-0.304	-0.010
-483.405	30.871	0.426	-0.364
-482.391	-145.129	0.191	0.017
-481.376	353.563	-0.196	0.388
-480.362	51.999	-0.465	0.442
-479.347	800.000	-0.107	-0.444
-478.332	125.260	-0.035	-0.045
-477.318	682.596	0.081	0.211
-476.303	-39.486	-0.547	0.286
-475.289	326.602	0.311	-0.594
-474.274	37.547	-0.113	-0.100
-473.259	82.359	-0.233	0.252
-472.245	-200.000	-0.059	-0.322
-471.230	800.000	-0.114	0.419
-470.216	-56.296	0.193	0.086
-469.201	-35.023	0.518	-0.282
-468.186	-53.075	0.355	-0.163
-467.172	-200.000	0.012	0.756
-466.157	17.864	-0.191	0.152
-465.143	-130.818	0.219	-0.029
-464.128	163.642	0.444	0.623
-463.113	620.430	0.277	-0.693
-462.099	800.000	0.314	1.094
-461.084	1.479	-0.933	0.669
-460.070	-200.000	-0.087	-0.544
-459.055	120.524	0.076	-0.095
-458.040	-73.744	-0.547	0.198
-457.026	800.000	-0.040	0.123
-456.011	767.836	-0.159	0.432
-454.997	800.000	0.230	0.818
-453.982	360.302	0.239	-0.477
-452.968	800.000	0.203	-0.696
-451.953	-200.000	0.008	-0.174
-450.938	54.333	-0.397	-0.381
-449.924	-133.164	0.120	0.015
-448.909	-200.000	0.079	0.771
-447.895	468.818	-0.253	0.566
-446.880	114.472	0.357	-0.434
-445.865	14.216	-0.496	-0.385
-444.851	-58.664	0.265	-0.114
-443.836	-200.000	-0.079	0.389
-442.822	-16.506	-0.712	-0.449
-441.807	27.286	-0.544	0.455
-440.792	800.000	-0.236	0.653
-439.778	-41.106	-0.209	-0.108
-438.763	31.995	-0.653	-0.561
-437.749	800.000	-0.187	-0.627
-436.734	-200.000	0.013	0.170
-435.719	-200.000	-0.063	-0.514
-434.705	54.341	-0.201	-0.193
-433.690	-77.635	0.918	-0.316
-432.676	-78.327	0.566	0.193
-431.661	-32.589	0.456	-0.253
-430.646	15.995	-0.307	0.241
-429.632	176.417	0.492	0.712
-428.617	55.375	0.309	-0.298
-427.603	800.000	-0.176	0.547
-426.588	155.716	0.455	0.624
-425.573	-116.515	0.369	0.068
-424.559	223.879	0.211	0.339
-423.544	800.000	-0.198	-0.771
-422.530	-177.370	0.280	-0.007
-421.515	378.738	-0.236	0.481
-420.500	-4.932	0.086	0.059
-419.486	25.262	-0.334	-0.276
-418.471	432.445	-0.033	-0.072
-417.457	-65.100	0.366	0.147
-416.442	-58.355	-0.461	-0.199
-415.428	-200.000	0.146	0.644
-414.413	-40.463	0.624	-0.322
-413.398	115.918	0.524	0.638
-412.384	-39.936	-0.353	0.184
-411.369	693.609	-0.156	-0.407
-410.355	800.000	-0.081	0.293
-409.340	224.528	0.622	1.001
-408.325	29.071	-0.765	0.646
-407.311	-144.280	-0.314	0.029
-406.296	-97.649	-0.442	-0.114
-405.282	800.000	-0.051	-0.145
-404.267	-200.000	0.023	-0.214
-403.252	-55.933	0.908	-0.403
-402.238	93.751	0.772	-0.870
-401.223	800.000	0.001	-0.003
-400.209	482.419	-0.299	-0.675
-399.194	422.064	0.413	-0.881
-398.179	-79.259	0.673	-0.227
-397.165	-161.425	0.472	-0.024
-396.150	-192.568	-0.531	0.005
-395.136	115.951	-0.507	-0.617
-394.121	460.565	0.135	0.300
-393.106	-84.727	0.260	0.081
-392.092	-166.752	-0.519	-0.021
-391.077	-80.734	1.340	-0.443
-390.063	427.422	-0.227	0.486
-389.048	350.961	-0.178	0.350
-388.033	121.187	-0.372	0.460
-387.019	-96.698	-1.071	0.280
-386.004	-164.620	0.454	-0.020
-384.990	-115.210	0.504	-0.095
-383.975	-32.236	-0.361	0.200
-382.960	-200.000	0.026	-0.382
-381.946	118.728	-0.444	-0.545
-380.931	755.621	-0.244	-0.655
-379.917	298.658	-0.088	0.161
-378.902	52.188	0.415	0.393
-377.888	74.154	-0.256	0.267
-376.873	328.360	-0.220	-0.420
-375.858	463.085	0.293	0.649
-374.844	-104.508	-0.272	-0.063
-373.829	-42.419	0.256	0.130
-372.815	-0.228	0.571	0.403
-371.800	72.443	0.213	-0.220
-370.785	307.792	-0.198	-0.367
-369.771	69.249	-0.223	-0.228
-368.756	127.113	0.696	-0.876
-367.742	308.135	0.195	-0.361
-366.727	-138.007	-0.497	0.055
-365.712	73.009	0.611	-0.634
-364.698	-131.964	0.718	0.093
-363.683	-139.829	-0.507	0.053
-362.669	800.000	-0.198	0.737
-361.654	42.582	1.037	-0.937
-360.639	48.127	0.530	-0.492
-359.625	800.000	0.126	-0.500
-358.610	102.206	-0.186	-0.215
-357.596	-200.000	-0.004	0.091
-356.581	-111.173	-0.380	0.077
-355.566	-109.791	-0.124	-0.026
-354.552	148.275	-0.289	0.387
-353.537	-182.199	-0.936	-0.017
-352.523	117.720	0.377	0.461
-351.508	550.129	0.169	-0.401
-350.493	-77.065	-0.214	-0.074
-349.479	542.821	-0.232	-0.550
-348.464	-35.065	1.143	-0.618
-347.450	-46.064	0.572	-0.280
-346.435	-75.248	0.102	-0.036
-345.420	-200.000	-0.061	1.006
-344.406	-200.000	-0.030	0.318
-343.391	-69.524	0.523	-0.199
-342.377	293.206	0.293	0.531
-341.362	31.130	-0.292	-0.248
-340.348	800.000	0.125	0.524
-339.333	246.399	-0.261	-0.436
-338.318	123.147	-0.030	0.037
-337.304	-49.104	-0.556	0.264
-336.289	-200.000	-0.048	-0.296
-335.275	-200.000	-0.119	-0.628
-334.260	-56.146	-0.367	-0.162
-333.245	-44.954	0.819	0.404
-332.231	91.589	0.319	-0.356
-331.216	-169.613	0.391	0.014
-330.202	41.347	-0.246	-0.221
-329.187	800.000	-0.492	1.350
-328.172	-128.688	0.468	-0.066
-327.158	-132.143	1.052	-0.135
-326.143	800.000	-0.117	-0.394
-325.129	-97.959	0.537	-0.137
-324.114	8.198	0.383	0.285
-323.099	-123.340	0.130	0.021
-322.085	794.726	-0.298	0.812
-321.070	2.279	0.410	0.294
-320.056	121.381	0.141	-0.174
-319.041	-0.120	-0.102	0.072
-318.026	-200.000	0.068	0.794
-317.012	-113.172	0.607	0.118
-315.997	37.518	-0.736	-0.647
-314.983	-87.957	0.890	0.265
-313.968	688.410	0.273	-0.707
-312.953	-200.000	0.090	-0.657
-311.939	-25.845	0.243	-0.142
-310.924	-33.699	0.596	0.326
-309.910	-200.000	0.169	1.086
-308.895	800.000	-0.150	0.585
-307.880	205.923	0.387	0.597
-306.866	607.974	-0.190	0.470
-305.851	-200.000	-0.098	0.586
-304.837	93.109	0.331	0.371
-303.822	-200.000	0.026	-0.321
-302.807	-88.018	-0.731	0.218
-301.793	-200.000	0.028	-0.411
-300.778	-163.493	0.440	0.021
-299.764	-200.000	0.031	0.381
-298.749	-105.551	-0.673	0.151
-297.735	118.681	0.103	0.126
-296.720	19.670	0.477	0.380
-295.705	800.000	0.185	0.515
-294.691	-200.000	0.025	0.274
-293.676	54.254	0.341	0.325
-292.662	-200.000	-0.078	0.398
-291.647	-58.496	-0.176	-0.076
-290.632	-44.764	-0.793	0.392
-289.618	-94.865	-0.402	-0.108
-288.603	-200.000	-0.029	0.432
-287.589	-1.296	-0.502	0.351
-286.574	299.338	0.413	-0.754
-285.559	-200.000	0.004	-0.140
-284.545	726.755	-0.099	-0.263
-283.530	-94.138	-0.024	0.007
-282.516	-71.999	-0.596	-0.219
-281.501	325.119	-0.282	-0.533
-280.486	16.618	-0.710	0.555
-279.472	-151.640	-0.275	0.020
-278.457	-55.112	-0.207	0.092
-277.443	-200.000	0.012	-0.140
-276.428	-153.945	0.243	0.016
-275.413	800.000	-0.246	-0.723
-274.399	13.987	-0.735	0.566
-273.384	-200.000	0.012	-0.277
-272.370	-40.709	-0.468	-0.240
-271.355	-126.820	-0.526	-0.077
-270.340	650.502	0.135	0.342
-269.326	147.289	0.444	0.591
-268.311	800.000	-0.203	-0.668
-267.297	18.686	-0.618	-0.489
-266.282	167.593	0.287	-0.404
-265.267	-114.783	-0.456	0.086
-264.253	9.254	-0.399	-0.298
-263.238	134.226	-0.063	-0.081
-262.224	800.000	0.167	-0.668
-261.209	256.297	0.188	0.320
-260.195	-41.376	0.512	0.261
-259.180	-65.771	-0.349	-0.138
-258.165	173.361	-0.405	-0.577
-257.151	387.391	-0.149	-0.305
-256.136	-111.199	1.154	-0.234
-255.122	-114.706	0.246	-0.046
-254.107	-52.884	-0.796	-0.362
-253.092	-0.581	-1.181	-0.829
-252.078	-69.382	-0.355	0.135
-251.063	-200.000	-0.068	0.335
-250.049	417.729	-0.226	-0.477
-249.034	-76.319	0.729	-0.254
-248.019	166.320	-0.630	0.882
-247.005	-200.000	0.029	0.362
-245.990	-200.000	-0.090	0.886
-244.976	665.790	-0.055	0.141
-243.961	232.093	0.205	-0.333
-242.946	800.000	-0.090	-0.306
-241.932	-113.783	0.862	-0.166
-240.917	-59.818	-0.496	0.210
-239.903	800.000	-0.207	0.870
-238.888	-200.000	-0.023	0.894
-237.873	-31.073	0.249	0.139
-236.859	-21.267	0.987	0.596
-235.844	-173.575	0.235	-0.007
-234.830	-134.607	0.340	0.041
-233.815	366.540	-0.135	0.269
-232.800	-200.000	0.036	-0.432
-231.786	-49.075	-0.594	-0.281
-230.771	55.361	-0.261	0.249
-229.757	800.000	-0.164	-0.548
-228.742	-7.811	-0.249	0.166
-227.727	-120.478	-0.516	-0.086
-226.713	800.000	0.078	0.276
-225.698	800.000	0.194	0.591
-224.684	-200.000	-0.029	0.819
-223.669	664.101	0.429	1.093
-222.655	699.425	-0.286	-0.742
-221.640	800.000	-0.097	-0.280
-220.625	-200.000	-0.005	0.633
-219.611	-21.836	1.022	-0.614
-218.596	800.000	-0.138	-0.485
-217.582	-200.000	-0.007	0.142
-216.567	-200.000	0.036	0.428
-215.552	-173.221	-0.409	-0.012
-214.538	107.688	0.718	-0.844
-213.523	-200.000	0.008	0.231
-212.509	-1.072	-0.388	0.271
-211.494	268.214	0.094	-0.163
-210.479	-200.000	0.046	0.333
-209.465	-145.411	0.521	0.046
-208.450	-128.098	0.146	-0.021
-207.436	97.366	-0.160	0.182
-206.421	30.463	-0.787	-0.664
-205.406	266.468	-0.060	-0.104
-204.392	-0.521	0.243	0.170
-203.377	800.000	-0.291	-0.937
-202.363	-27.292	-0.138	0.079
-201.348	-124.649	0.528	0.081
-200.333	-94.641	0.193	-0.052
-199.319	85.303	-0.156	-0.168
-198.304	-25.930	0.048	-0.028
-197.290	-87.077	-1.264	0.380
-196.275	-188.253	0.398	-0.005
-195.260	407.747	0.028	-0.059
-194.246	50.909	0.278	-0.259
-193.231	432.711	-0.286	0.613
-192.217	26.031	0.288	0.237
-191.202	-21.129	0.735	-0.443
-190.187	20.962	-0.165	0.132
-189.173	-42.951	0.070	-0.035
-188.158	190.470	0.453	-0.671
-187.144	-200.000	0.002	1.022
-186.129	-200.000	0.075	0.357
-185.114	377.786	-0.239	-0.481
-184.100	-11.546	-0.511	0.331
-183.085	-83.374	0.573	-0.181
-182.071	23.034	-0.209	-0.169
-181.056	-88.393	0.387	-0.114
-180.042	-138.637	0.445	-0.048
-179.027	-200.000	0.021	-0.965
-178.012	-200.000	-0.165	1.011
-176.998	300.360	0.388	-0.705
-175.983	35.030	-0.251	0.216
-174.969	-4.804	-0.450	-0.306
-173.954	-80.915	-0.799	-0.261
-172.939	-80.012	-0.428	-0.142
-171.925	-161.693	0.420	0.021
-170.910	282.950	-0.385	0.680
-169.896	198.479	-0.448	0.675
-168.881	-200.000	-0.034	-0.241
-167.866	630.785	-0.169	0.421
-166.852	-65.485	-0.303	0.120
-165.837	144.980	0.357	-0.471
-164.823	-200.000	-0.039	0.838
-163.808	66.389	-0.465	-0.465
-162.793	-168.307	-0.241	0.009
-161.779	315.872	-0.225	0.418
-160.764	84.262	-0.108	-0.116
-159.750	-166.857	-0.767	-0.031
-158.735	-112.124	1.236	-0.245
-157.720	90.642	-0.634	0.699
-156.706	-91.083	-0.558	0.158
-155.691	-169.457	0.061	-0.002
-154.677	-200.000	-0.060	0.678
-153.662	-172.201	-0.568	-0.018
-152.647	-115.413	-0.627	-0.116
-151.633	-15.836	0.167	0.105
-150.618	800.000	-0.186	0.581
-149.604	111.239	-0.579	-0.687
-148.589	-166.322	0.541	-0.022
-147.574	69.381	0.338	-0.342
-146.560	117.948	0.271	0.328
-145.545	-98.102	-0.725	0.184
-144.531	-200.000	0.005	-0.193
-143.516	800.000	-0.163	-0.635
-142.502	63.106	-0.338	-0.333
-141.487	-132.828	-0.551	-0.069
-140.472	103.026	0.348	0.401
-139.458	84.997	-0.600	-0.648
-138.443	488.758	0.235	0.529
-137.429	-13.930	-0.272	0.173
-136.414	-103.627	0.367	0.085
-135.399	387.365	0.258	0.524
-134.385	-200.000	-0.064	-0.773
-133.370	-200.000	0.102	0.479
-132.356	-91.807	0.526	-0.147
-131.341	70.008	-0.209	-0.212
-130.326	-103.525	0.356	-0.082
-129.312	296.721	0.054	0.098
-128.297	260.188	-0.376	0.639
-127.283	-200.000	0.150	-0.888
-126.268	62.816	-0.376	-0.370
-125.253	-139.637	0.884	0.093
-124.239	352.576	-0.243	-0.475
-123.224	-25.585	0.991	-0.576
-122.210	32.829	0.353	0.301
-121.195	-108.503	0.675	0.143
-120.180	-56.124	0.342	-0.150
-119.166	327.346	-0.517	-0.975
-118.151	-200.000	-0.094	-0.705
-117.137	-125.135	-0.694	0.105
-116.122	-200.000	-0.148	0.803
-115.107	-75.872	1.050	0.366
-114.093	423.977	-0.087	0.185
-113.078	-200.000	-0.015	-0.535
-112.064	-200.000	0.122	-0.779
-111.049	-45.125	-0.427	-0.209
-110.034	800.000	0.244	-0.802
-109.020	-155.751	0.327	-0.021
-108.005	343.516	-0.200	0.386
-106.991	-117.796	1.056	0.187
-105.976	318.539	0.150	-0.279
-104.962	-36.085	0.234	0.124
-103.947	22.110	0.700	0.562
-102.932	-74.936	0.366	-0.129
-101.918	75.806	-0.442	0.460
-100.903	-200.000	-0.026	-1.420
-99.889	497.833	-0.300	0.679
-98.874	54.727	0.665	-0.630
-97.859	-31.659	0.610	0.336
-96.845	9.684	-0.710	0.529
-95.830	-18.250	0.522	-0.321
-94.816	-148.841	-0.732	-0.058
-93.801	-200.000	-0.018	0.185
-92.786	-166.144	0.955	0.040
-91.772	-128.035	-0.891	-0.125
-90.757	-2.476	-0.463	-0.318
-89.743	118.206	0.220	-0.266
-88.728	277.255	0.203	0.354
-87.713	-18.878	0.677	0.414
-86.699	335.033	0.398	-0.757
-85.684	90.192	-0.344	-0.378
-84.670	-200.000	-0.073	-0.778
-83.655	209.744	-0.453	-0.697
-82.640	-97.030	-0.212	-0.054
-81.626	-200.000	-0.130	-0.637
-80.611	-17.189	-0.379	-0.235
-79.597	-131.672	-0.601	0.077
-78.582	-200.000	0.064	-0.335
-77.567	338.531	-0.144	0.275
-76.553	142.585	0.112	0.146
-75.538	51.383	0.421	-0.392
-74.524	-31.384	-0.165	0.091
-73.509	-200.000	0.041	-0.339
-72.494	121.317	-0.093	-0.114
-71.480	-200.000	0.084	0.435
-70.465	19.090	-0.556	0.438
-69.451	-43.826	-0.694	0.343
-68.436	-24.424	1.227	-0.718
-67.422	74.610	0.471	-0.487
-66.407	-162.378	-0.451	0.022
-65.392	800.000	0.272	-0.760
-64.378	800.000	-0.159	-0.679
-63.363	-88.949	0.679	0.198
-62.349	-99.515	0.726	-0.179
-61.334	-19.369	-1.440	-0.876
-60.319	-200.000	0.148	1.118
-59.305	-200.000	0.084	-0.997
-58.290	246.136	0.567	0.937
-57.276	182.395	0.642	0.929
-56.261	-200.000	99.589	604.262
-55.246	621.614	1376.007	3397.139
-54.232	200.408	2548.169	3841.300
-53.217	111.420	2248.352	2659.462
-52.203	41.195	1879.739	1666.557
-51.188	35.063	1671.899	1436.400
-50.173	32.659	1629.341	1382.181
-49.159	51.209	1680.105	1563.774
-48.144	51.315	1697.877	1581.037
-47.130	34.594	1657.316	1420.161
-46.115	31.847	1641.617	1386.368
-45.100	31.885	1635.696	1381.597
-44.086	31.773	1635.204	1380.302
-43.071	31.786	1631.693	1377.375
-42.057	31.590	1629.263	1373.830
-41.042	31.729	1627.849	1373.607
-40.027	31.651	1625.926	1371.352
-39.013	31.570	1623.878	1368.981
-37.998	31.483	1621.996	1366.706
-36.984	31.814	1620.361	1367.692
-35.969	31.899	1618.667	1366.824
-34.954	31.882	1617.350	1365.535
-33.940	31.667	1615.797	1362.606
-32.925	31.781	1614.670	1362.429
-31.911	31.655	1613.607	1360.559
-30.896	31.848	1610.381	1359.188
-29.881	31.777	1609.401	1357.791
-28.867	31.717	1608.227	1356.315
-27.852	31.854	1604.861	1354.408
-26.838	31.727	1604.298	1352.963
-25.823	31.560	1604.042	1351.490
-24.809	31.710	1602.511	1351.225
-23.794	31.762	1600.694	1350.016
-22.779	31.843	1598.967	1349.090
-21.765	31.724	1598.150	1347.493
-20.750	31.526	1596.786	1344.864
-19.736	31.757	1594.508	1344.550
-18.721	31.914	1593.311	1344.615
-17.706	31.922	1591.615	1343.188
-16.692	31.806	1590.984	1341.772
-15.677	31.679	1589.824	1339.832
-14.663	31.693	1588.153	1338.465
-13.648	31.909	1586.751	1338.777
-12.633	32.005	1583.177	1336.389
-11.619	31.755	1583.512	1334.839
-10.604	31.579	1582.255	1332.475
-9.590	31.884	1580.722	1333.295
-8.575	31.744	1578.918	1330.731
-7.560	31.728	1578.514	1330.225
-6.546	31.824	1576.995	1329.569
-5.531	31.752	1575.708	1327.920
-4.517	31.959	1573.772	1327.704
-3.502	31.897	1573.310	1326.820
-2.487	31.911	1571.826	1325.619
-1.473	31.525	1560.725	1313.493
-0.458	28.520	1542.079	1276.867
0.556	26.498	1541.755	1245.199
1.571	23.963	1564.707	1245.898
2.586	23.494	1576.579	1251.928
3.600	21.016	1523.961	1193.105
4.615	12.271	1416.276	1052.855
5.629	5.014	1352.533	960.799
6.644	3.446	1345.267	945.936
7.659	3.513	1343.747	945.198
8.673	3.633	1343.042	945.349
9.688	3.369	1340.470	941.841
10.702	3.112	1337.646	938.210
11.717	6.635	1345.721	965.377
12.731	15.710	1361.551	1032.608
13.746	23.166	1372.916	1087.131
14.761	24.865	1374.485	1098.715
15.775	24.467	1373.484	1095.375
16.790	24.122	1372.312	1092.227
17.804	23.657	1371.091	1088.309
18.819	23.600	1369.972	1086.974
19.834	23.613	1369.759	1086.792
20.848	23.839	1368.164	1086.813
21.863	23.697	1367.515	1085.333
22.877	23.864	1366.663	1085.576
23.892	23.566	1365.992	1083.128
24.907	23.512	1365.141	1082.028
25.921	23.655	1363.760	1081.712
26.936	23.662	1362.754	1080.861
27.950	23.693	1362.586	1080.819
28.965	23.997	1360.602	1080.998
29.980	23.685	1360.102	1078.607
30.994	23.759	1359.760	1078.690
32.009	24.119	1357.682	1079.130
33.023	24.148	1356.194	1078.027
34.038	24.070	1355.720	1077.083
35.053	23.843	1354.022	1074.266
36.067	23.618	1354.346	1073.067
37.082	23.957	1352.415	1073.490
38.096	23.729	1351.787	1071.522
39.111	23.796	1351.751	1071.805
40.126	23.825	1350.955	1071.252
41.140	23.292	1349.153	1066.518
42.155	23.347	1349.122	1066.731
43.169	23.139	1348.284	1064.723
44.184	23.052	1348.859	1064.561
45.199	23.321	1348.730	1065.980
46.213	23.392	1348.219	1065.910
47.228	23.441	1348.690	1066.485
48.242	23.897	1346.052	1067.040
49.257	23.716	1345.035	1065.055
50.271	23.578	1342.845	1062.400
51.286	23.847	1341.660	1062.979
52.301	23.553	1341.232	1060.786
53.315	23.694	1339.804	1060.408
54.330	23.377	1339.247	1057.979
55.344	23.490	1336.712	1056.558
56.359	23.522	1336.249	1056.285
57.374	23.359	1335.639	1054.739
58.388	23.261	1336.298	1054.585
59.403	23.258	1334.489	1053.047
60.417	23.194	1335.208	1053.137
61.432	23.222	1333.389	1051.774
62.447	23.318	1331.878	1051.064
63.461	23.372	1330.893	1050.514
64.476	23.297	1329.541	1048.907
65.490	22.902	1330.432	1047.175
66.505	23.071	1327.212	1045.546
67.520	23.170	1325.814	1044.942
68.534	22.999	1326.119	1044.075
69.549	23.132	1322.877	1042.216
70.563	23.054	1323.039	1041.794
71.578	22.890	1322.818	1040.559
72.593	22.695	1321.418	1038.220
73.607	23.000	1320.406	1039.127
74.622	22.676	1321.066	1037.644
75.636	23.173	1319.309	1039.092
76.651	22.874	1318.851	1036.888
77.666	22.869	1318.519	1036.503
78.680	23.078	1318.020	1037.248
79.695	23.387	1316.434	1037.717
80.709	23.005	1316.734	1035.621
81.724	23.366	1315.492	1036.665
82.739	23.372	1315.229	1036.404
83.753	23.402	1315.962	1037.064
84.768	23.665	1314.310	1037.208
85.782	23.681	1314.794	1037.592
86.797	24.043	1312.169	1037.540
87.812	23.990	1309.972	1035.401
88.826	23.787	1309.737	1033.942
89.841	23.868	1308.890	1033.654
90.855	23.767	1308.938	1033.010
91.870	23.953	1307.438	1032.817
92.884	23.999	1306.161	1031.981
93.899	23.979	1305.983	1031.637
94.914	24.080	1304.284	1030.784
95.928	24.199	1304.399	1031.476
96.943	23.757	1304.687	1029.055
97.957	24.021	1303.207	1029.319
98.972	24.156	1301.022	1028.287
99.987	23.908	1300.894	1026.659
101.001	23.844	1300.319	1025.747
102.016	23.699	1298.991	1023.772
103.030	23.895	1298.164	1024.155
104.045	23.834	1297.136	1022.904
105.060	23.482	1295.459	1019.472
106.074	23.602	1294.335	1019.187
107.089	23.523	1292.294	1017.033
108.103	22.968	1291.661	1013.263
109.118	23.150	1290.616	1013.397
110.133	23.104	1288.283	1011.211
111.147	23.232	1288.069	1011.685
112.162	23.458	1285.833	1011.132
113.176	23.115	1286.515	1009.620
114.191	23.269	1285.518	1009.628
115.206	23.217	1284.622	1008.538
116.220	23.280	1283.544	1007.959
117.235	23.400	1281.053	1006.594
118.249	23.232	1280.119	1004.817
119.264	23.085	1279.375	1003.313
120.279	22.984	1278.619	1002.057
121.293	23.218	1277.513	1002.429
122.308	22.865	1277.104	1000.021
123.322	22.831	1275.727	998.660
124.337	22.830	1274.443	997.563
125.352	22.761	1273.679	996.486
126.366	22.874	1273.018	996.517
127.381	22.815	1272.091	995.370
128.395	22.758	1270.178	993.468
129.410	22.618	1270.374	992.743
130.424	22.611	1270.041	992.358
131.439	22.735	1269.492	992.538
132.454	23.054	1269.166	993.987
133.468	23.035	1268.100	992.959
134.483	23.057	1267.473	992.506
135.497	23.529	1265.633	993.619
136.512	23.147	1265.425	991.226
137.527	23.403	1262.497	990.275
138.541	23.378	1261.919	989.599
139.556	23.557	1261.316	990.036
140.570	23.664	1260.941	990.251
141.585	23.493	1259.778	988.297
142.600	23.791	1259.682	989.793
143.614	23.859	1259.147	989.662
144.629	23.678	1258.822	988.313
145.643	23.508	1258.050	986.675
146.658	23.659	1255.536	985.455
147.673	23.446	1254.304	983.218
148.687	23.535	1252.958	982.571
149.702	23.304	1251.890	980.366
150.716	22.830	1250.465	976.542
151.731	22.874	1249.527	975.966
152.746	23.102	1248.459	976.306
153.760	22.894	1248.077	974.770
154.775	23.313	1246.582	975.826
155.789	23.618	1245.031	976.203
156.804	23.491	1244.636	975.109
157.819	23.424	1243.186	973.520
158.833	23.349	1243.609	973.355
159.848	23.457	1242.774	973.205
160.862	23.763	1241.431	973.745
161.877	23.559	1239.544	971.063
162.892	23.112	1238.166	967.456
163.906	22.832	1238.050	965.747
164.921	23.139	1236.719	966.299
165.935	23.453	1236.326	967.623
166.950	22.939	1236.505	964.871
167.964	23.214	1235.977	965.872
168.979	23.216	1235.463	965.394
169.994	23.355	1233.113	964.232
171.008	23.309	1232.560	963.464
172.023	23.179	1232.612	962.711
173.037	23.253	1233.607	963.809
174.052	23.452	1231.302	963.003
175.067	23.313	1229.891	961.058
176.081	23.076	1228.895	958.908
177.096	23.238	1227.709	958.776
178.110	23.343	1227.280	958.927
179.125	23.139	1226.575	957.185
180.140	23.267	1224.748	956.368
181.154	23.230	1224.377	955.796
182.169	23.789	1222.776	957.472
183.183	23.808	1222.001	956.883
184.198	23.728	1221.319	955.834
185.213	23.477	1220.393	953.674
186.227	23.593	1219.797	953.750
187.242	23.532	1218.704	952.483
188.256	23.690	1217.517	952.319
189.271	23.889	1217.594	953.359
190.286	23.739	1216.269	951.433
191.300	23.459	1214.050	948.118
192.315	23.395	1213.969	947.626
193.329	23.407	1213.636	947.348
194.344	23.140	1212.781	945.170
195.359	23.112	1212.510	944.727
196.373	23.265	1211.177	944.423
197.388	23.136	1211.318	943.760
198.402	23.417	1212.068	945.762
199.417	24.215	1211.003	949.098
200.432	24.065	1211.395	948.520
201.446	23.947	1210.361	946.998
202.461	23.847	1209.417	945.647
203.475	23.791	1208.915	944.870
204.490	23.489	1207.298	941.920
205.504	23.472	1206.233	940.916
206.519	23.326	1205.459	939.456
207.534	23.206	1204.435	937.936
208.548	23.403	1202.558	937.433
209.563	23.397	1201.256	936.304
210.577	23.253	1201.124	935.357
211.592	23.326	1201.184	935.705
212.607	23.971	1200.624	938.594
213.621	24.021	1198.420	937.052
214.636	23.641	1197.561	934.298
215.650	23.177	1198.611	932.585
216.665	23.636	1197.647	934.169
217.680	23.948	1196.083	934.507
218.694	23.989	1195.561	934.235
219.709	23.615	1193.984	930.959
220.723	23.773	1193.882	931.624
221.738	23.911	1192.615	931.274
222.753	23.728	1191.865	929.649
223.767	23.652	1191.121	928.590
224.782	23.820	1191.057	929.336
225.796	24.171	1190.319	930.512
226.811	24.230	1189.491	930.089
227.826	23.792	1189.181	927.482
228.840	23.660	1187.785	925.619
229.855	23.815	1186.796	925.575
230.869	23.357	1186.500	922.879
231.884	23.612	1184.522	922.583
232.899	23.276	1183.898	920.267
233.913	23.205	1183.323	919.370
234.928	23.432	1182.395	919.746
235.942	23.286	1182.940	919.331
236.957	22.990	1181.690	916.746
237.972	22.798	1180.647	914.861
238.986	23.244	1180.108	916.670
240.001	23.142	1179.569	915.643
241.015	23.001	1179.205	914.551
242.030	23.266	1177.463	914.485
243.045	23.235	1177.949	914.623
244.059	23.635	1176.720	915.652
245.074	23.870	1176.286	916.446
246.088	23.750	1175.821	915.382
247.103	23.951	1174.819	915.555
248.117	24.063	1174.087	915.482
249.132	23.872	1174.828	914.996
250.147	24.443	1174.399	917.513
251.161	24.874	1173.425	918.886
252.176	24.627	1172.947	917.165
253.190	24.761	1171.935	916.979
254.205	24.812	1172.058	917.253
255.220	24.831	1171.711	917.000
256.234	25.117	1170.935	917.776
257.249	24.807	1169.561	915.034
258.263	24.615	1169.520	913.935
259.278	24.496	1168.841	912.717
260.293	24.530	1168.172	912.288
261.307	24.828	1166.984	912.799
262.322	24.998	1166.049	912.857
263.336	24.583	1166.643	911.122
264.351	24.720	1165.856	911.123
265.366	24.748	1165.141	910.627
266.380	24.834	1164.132	910.199
267.395	24.594	1163.920	908.729
268.409	24.423	1162.844	906.939
269.424	24.651	1161.820	907.217
270.439	24.322	1161.282	905.050
271.453	24.770	1159.277	905.675
272.468	24.561	1158.316	903.788
273.482	24.158	1158.276	901.638
274.497	24.219	1158.695	902.194
275.512	23.965	1157.938	900.236
276.526	24.283	1155.531	899.892
277.541	24.247	1155.858	899.882
278.555	24.279	1155.630	899.787
279.570	24.543	1155.810	901.182
280.585	24.908	1155.176	902.449
281.599	24.765	1153.532	900.364
282.614	24.484	1152.344	897.942
283.628	24.377	1150.710	896.052
284.643	24.304	1149.712	894.832
285.657	24.120	1149.305	893.512
286.672	24.260	1148.450	893.471
287.687	24.244	1147.882	892.870
288.701	24.326	1147.416	892.838
289.716	24.331	1146.561	892.117
290.730	24.383	1145.050	891.123
291.745	24.366	1144.984	890.907
292.760	24.425	1143.862	890.250
293.774	24.169	1145.123	889.878
294.789	24.446	1143.811	890.157
295.803	24.870	1143.464	891.922
296.818	24.630	1142.398	889.818
297.833	24.479	1141.175	888.036
298.847	24.357	1140.324	886.689
299.862	24.383	1139.826	886.350
300.876	24.304	1139.463	885.599
301.891	24.545	1139.089	886.423
302.906	24.607	1138.187	885.952
303.920	24.905	1137.574	886.874
304.935	24.929	1137.495	886.854
305.949	25.031	1136.889	886.807
306.964	25.112	1135.815	886.289
307.979	24.987	1134.885	884.870
308.993	24.559	1133.894	881.908
310.008	24.611	1134.256	882.367
311.022	24.893	1133.565	883.140
312.037	25.053	1132.239	882.817
313.052	24.989	1130.422	881.009
314.066	24.679	1129.744	878.880
315.081	24.276	1128.445	875.814
316.095	23.827	1128.575	873.630
317.110	24.082	1127.841	874.236
318.125	23.939	1127.161	872.931
319.139	24.240	1126.363	873.707
320.154	24.393	1124.736	873.121
321.168	24.280	1124.532	872.332
322.183	24.352	1124.574	872.638
323.197	24.140	1124.416	871.400
324.212	24.550	1123.354	872.504
325.227	24.508	1122.343	871.437
326.241	24.439	1122.765	871.350
327.256	24.196	1121.624	869.200
328.270	24.181	1120.786	868.405
329.285	24.056	1119.450	866.681
330.300	24.610	1118.391	868.478
331.314	24.193	1119.231	867.027
332.329	24.169	1117.429	865.436
333.343	24.566	1115.772	866.001
334.358	24.378	1115.567	864.857
335.373	24.662	1115.264	865.920
336.387	24.533	1115.505	865.407
337.402	25.027	1113.755	866.363
338.416	25.103	1113.226	866.241
339.431	24.950	1112.583	864.922
340.446	25.420	1111.115	865.974
341.460	25.297	1112.041	866.026
342.475	25.167	1112.007	865.296
343.489	25.552	1110.777	866.116
344.504	25.804	1109.551	866.296
345.519	25.569	1108.944	864.615
346.533	25.537	1107.521	863.275
347.548	25.563	1108.280	863.914
348.562	25.353	1106.870	861.733
349.577	25.455	1106.036	861.495
350.592	24.733	1104.476	856.749
351.606	24.722	1103.662	855.989
352.621	24.676	1103.003	855.179
353.635	24.515	1102.734	854.125
354.650	24.617	1100.308	852.658
355.665	24.869	1099.944	853.500
356.679	24.539	1101.077	852.730
357.694	24.931	1099.696	853.453
358.708	24.937	1100.353	853.918
359.723	25.112	1099.346	853.892
360.738	25.212	1098.056	853.290
361.752	25.019	1097.756	852.064
362.767	24.966	1096.708	850.926
363.781	25.003	1096.019	850.489
364.796	25.290	1096.135	851.867
365.810	25.424	1096.188	852.470
366.825	25.623	1095.280	852.629
367.840	25.807	1095.418	853.535
368.854	25.510	1095.070	851.780
369.869	25.686	1094.049	851.746
370.883	25.394	1093.081	849.536
371.898	25.431	1092.018	848.807
372.913	25.437	1091.001	847.969
373.927	25.275	1091.005	847.132
374.942	25.474	1090.938	847.946
375.956	25.386	1089.441	846.295
376.971	25.033	1090.466	845.349
377.986	25.515	1088.392	845.938
379.000	25.631	1088.730	846.669
380.015	25.619	1087.836	845.845
381.029	25.696	1087.345	845.750
382.044	25.712	1086.285	844.922
383.059	25.801	1085.298	844.500
384.073	25.575	1085.016	843.145
385.088	25.586	1084.700	842.879
386.102	25.556	1083.055	841.386
387.117	25.840	1080.740	840.837
388.132	25.251	1081.356	838.490
389.146	25.465	1079.906	838.292
390.161	24.967	1079.722	835.751
391.175	25.116	1078.437	835.378
392.190	25.158	1078.517	835.559
393.205	25.532	1078.606	837.296
394.219	25.470	1077.125	835.785
395.234	25.273	1075.706	833.696
396.248	25.108	1074.833	832.180
397.263	25.031	1074.322	831.352
398.278	24.987	1073.197	830.204
399.292	25.015	1072.314	829.576
400.307	25.008	1072.308	829.466
401.321	25.429	1070.717	830.107
402.336	24.878	1070.836	827.578
403.350	24.689	1070.201	826.143
404.365	25.075	1069.438	827.261
405.380	25.034	1069.463	827.018
406.394	25.436	1067.604	827.361
407.409	25.836	1067.271	828.872
408.423	25.906	1067.557	829.342
409.438	25.837	1066.493	828.121
410.453	25.616	1066.116	826.742
411.467	25.880	1065.312	827.259
412.482	25.820	1064.218	826.059
413.496	25.941	1064.559	826.807
414.511	26.215	1063.097	826.853
415.526	26.054	1063.066	826.018
416.540	26.080	1063.062	826.063
417.555	26.190	1062.199	825.818
418.569	25.871	1060.917	823.294
419.584	25.828	1060.938	823.040
420.599	25.987	1060.753	823.548
421.613	154.618	1403.773	1794.596
422.628	142.147	1453.719	1794.666
