DTS Sentinel unit serial number:	SN413079Multiplexer serial number:	ORYXHardware model number:	OX4-SRSoftware version number:	ORYX F/W v4.00 Oryx Data Collector v3.7.2.0data status	okinstallation	princeton_trtdifferential loss correction	single-endedforward channel	channel 2reverse channel	N/Adate	2019/09/16time	19:43:35forward acquisition time	60.00reverse acquisition time	0.00gamma	496.2192k internal	0.2325k external	0.2325temperature offset calibration	0.9965default loss term (dB/km)	0.3790temperature slope calibration	1.0000multiplexer offset coefficient	1.0000multiplexer slope coefficient	1.0000fibre end	0.00T internal ref (°C)	34.00T ext. ref 1 (°C)	0.06T ext. ref 2 (°C)	26.98length (m)	temperature (°C)	Stokes	anti-Stokes-747.200	234.247	-0.102	0.170
-746.185	800.000	0.013	-0.040
-745.171	-130.753	0.022	-0.003
-744.156	800.000	0.033	-0.125
-743.142	-93.197	-0.096	0.027
-742.127	101.064	-0.235	-0.276
-741.112	21.046	0.188	-0.154
-740.098	-6.505	0.279	0.192
-739.083	13.976	-0.263	-0.207
-738.069	46.652	0.165	0.154
-737.054	135.009	-0.154	0.202
-736.039	-200.000	-0.007	-0.155
-735.025	-137.696	0.246	-0.028
-734.010	201.022	0.166	0.258
-732.996	208.282	0.059	-0.094
-731.981	-116.162	-0.270	-0.050
-730.966	225.905	0.251	-0.410
-729.952	177.946	0.123	-0.181
-728.937	87.266	-0.140	0.156
-727.923	15.337	-0.153	-0.121
-726.908	-200.000	-0.000	-0.240
-725.894	-35.331	-0.272	-0.149
-724.879	800.000	-0.113	-0.391
-723.864	197.458	0.130	-0.200
-722.850	40.189	0.202	-0.183
-721.835	-2.860	0.157	-0.110
-720.821	95.647	-0.065	-0.075
-719.806	184.158	0.141	-0.210
-718.791	800.000	-0.052	-0.174
-717.777	100.491	0.162	0.189
-716.762	203.605	-0.167	-0.260
-715.748	-105.453	0.139	0.032
-714.733	644.691	-0.066	-0.170
-713.718	-113.318	0.216	-0.043
-712.704	-57.648	-0.235	0.104
-711.689	-200.000	-0.032	0.144
-710.675	-200.000	0.022	0.275
-709.660	-200.000	-0.032	0.347
-708.645	-121.714	0.144	0.024
-707.631	476.049	0.062	0.142
-706.616	-200.000	0.003	0.446
-705.602	625.806	-0.092	0.233
-704.587	11.993	-0.276	-0.214
-703.572	800.000	-0.051	-0.175
-702.558	-200.000	0.017	-0.082
-701.543	57.306	0.198	0.195
-700.529	34.176	-0.083	0.073
-699.514	-200.000	-0.017	0.096
-698.499	140.739	0.086	0.115
-697.485	-58.358	-0.048	0.021
-696.470	-44.478	-0.252	-0.127
-695.456	-200.000	-0.047	-0.248
-694.441	12.615	0.103	0.080
-693.426	50.000	-0.122	-0.116
-692.412	21.178	0.259	0.212
-691.397	-88.947	0.570	0.170
-690.383	-118.180	0.125	0.023
-689.368	-1.662	0.142	-0.101
-688.354	79.285	-0.077	0.083
-687.339	132.414	0.094	-0.122
-686.324	309.201	-0.145	-0.273
-685.310	139.275	0.148	-0.196
-684.295	123.751	-0.113	-0.142
-683.281	-200.000	-0.054	0.301
-682.266	-100.453	-0.060	0.015
-681.251	-200.000	0.043	-0.196
-680.237	-87.633	-0.099	-0.030
-679.222	800.000	0.079	-0.287
-678.208	78.157	-0.109	-0.117
-677.193	30.357	0.121	-0.104
-676.178	56.281	0.108	-0.106
-675.164	-48.185	-0.237	0.115
-674.149	406.942	-0.031	-0.066
-673.135	13.464	-0.166	-0.130
-672.120	242.216	-0.136	-0.228
-671.105	179.825	0.075	-0.111
-670.091	427.392	-0.097	-0.211
-669.076	-25.288	0.043	-0.026
-668.062	-31.469	0.129	0.073
-667.047	-96.371	-0.104	0.028
-666.032	2.483	-0.119	-0.087
-665.018	-108.437	0.608	-0.132
-664.003	800.000	-0.094	0.310
-662.989	-142.664	0.120	0.012
-661.974	-200.000	0.013	0.100
-660.959	-153.605	-0.240	-0.017
-659.945	162.568	-0.204	0.288
-658.930	287.743	-0.230	-0.419
-657.916	486.242	0.132	-0.303
-656.901	-5.587	0.007	-0.005
-655.886	-200.000	-0.074	-0.566
-654.872	-38.226	-0.286	-0.153
-653.857	313.510	0.066	0.125
-652.843	-200.000	0.077	0.420
-651.828	32.133	-0.313	0.271
-650.814	7.553	0.122	-0.091
-649.799	96.943	-0.108	0.124
-648.784	-200.000	-0.016	0.287
-647.770	800.000	-0.125	-0.417
-646.755	-53.314	0.222	0.102
-645.741	91.238	-0.095	0.107
-644.726	-200.000	-0.034	0.281
-643.711	-200.000	-0.056	-0.284
-642.697	-61.095	0.472	0.200
-641.682	289.109	-0.241	-0.440
-640.668	-152.348	0.097	-0.007
-639.653	-75.692	-0.212	-0.075
-638.638	-98.077	-0.050	0.013
-637.624	203.020	0.167	0.260
-636.609	34.268	-0.270	-0.237
-635.595	-200.000	0.008	-0.138
-634.580	-200.000	0.006	-0.063
-633.565	800.000	0.066	0.212
-632.551	-141.084	0.183	-0.019
-631.536	-200.000	0.016	0.220
-630.522	26.690	-0.246	-0.207
-629.507	128.618	-0.052	0.067
-628.492	2.289	0.046	0.033
-627.478	-74.952	-0.357	-0.128
-626.463	800.000	0.026	0.092
-625.449	659.925	-0.099	0.256
-624.434	800.000	0.083	0.341
-623.419	-200.000	-0.029	0.153
-622.405	800.000	-0.092	0.343
-621.390	-84.047	-0.063	0.020
-620.376	-38.645	0.211	0.112
-619.361	-48.279	-0.045	-0.022
-618.346	27.069	-0.072	0.061
-617.332	-200.000	-0.042	0.191
-616.317	-17.892	-0.211	-0.133
-615.303	-103.112	-0.176	-0.042
-614.288	-86.504	0.232	-0.072
-613.273	800.000	0.081	0.271
-612.259	-200.000	-0.014	-0.096
-611.244	12.832	-0.092	-0.071
-610.230	-110.355	-0.426	0.089
-609.215	800.000	0.054	-0.205
-608.201	-12.806	0.298	-0.195
-607.186	800.000	-0.051	0.200
-606.171	800.000	-0.076	0.244
-605.157	292.461	-0.100	0.184
-604.142	85.126	0.225	0.247
-603.128	-6.124	-0.138	0.094
-602.113	-200.000	-0.017	-0.122
-601.098	-77.699	0.057	-0.020
-600.084	-45.677	0.094	0.046
-599.069	-155.529	0.367	-0.024
-598.055	550.162	-0.015	-0.036
-597.040	483.762	-0.176	0.401
-596.025	-200.000	0.030	-0.339
-595.011	-200.000	0.098	-0.511
-593.996	122.993	0.136	-0.171
-592.982	-200.000	-0.003	-0.061
-591.967	-200.000	-0.053	-0.338
-590.952	-103.504	-0.216	-0.051
-589.938	-91.368	-0.102	0.029
-588.923	-42.343	-0.083	-0.042
-587.909	48.568	-0.165	-0.155
-586.894	-65.631	0.255	0.103
-585.879	-119.115	-0.056	0.010
-584.865	2.001	-0.137	0.099
-583.850	-39.689	-0.292	-0.153
-582.836	392.556	0.050	-0.104
-581.821	-106.272	0.261	-0.059
-580.806	-200.000	0.046	0.288
-579.792	-46.384	-0.194	-0.095
-578.777	142.560	0.078	-0.104
-577.763	61.750	0.107	-0.106
-576.748	-37.088	-0.217	0.117
-575.733	-174.647	-0.148	-0.004
-574.719	-124.642	-0.186	0.029
-573.704	-200.000	-0.028	-0.330
-572.690	-85.474	0.170	0.053
-571.675	210.924	-0.169	0.267
-570.661	191.704	-0.248	0.374
-569.646	-129.143	0.292	-0.041
-568.631	69.865	-0.081	-0.084
-567.617	800.000	0.055	-0.190
-566.602	109.959	-0.022	0.027
-565.588	10.739	-0.202	-0.155
-564.573	27.802	0.138	0.117
-563.558	72.121	-0.114	-0.119
-562.544	-149.636	0.193	0.015
-561.529	800.000	-0.032	-0.123
-560.515	265.508	-0.134	-0.234
-559.500	350.794	0.105	-0.208
-558.485	-117.950	-0.042	-0.008
-557.471	-200.000	-0.030	-0.305
-556.456	492.741	-0.078	-0.179
-555.442	800.000	0.045	0.147
-554.427	117.284	-0.101	0.124
-553.412	248.987	-0.116	0.197
-552.398	-45.763	0.208	-0.103
-551.383	-200.000	-0.009	0.191
-550.369	-200.000	-0.088	-0.395
-549.354	690.755	-0.096	-0.251
-548.339	-200.000	-0.018	-0.117
-547.325	404.243	0.087	0.184
-546.310	8.385	-0.311	-0.234
-545.296	800.000	-0.080	0.254
-544.281	146.418	-0.201	0.270
-543.266	157.690	-0.175	-0.243
-542.252	-95.656	0.075	0.020
-541.237	-200.000	0.030	0.210
-540.223	-11.220	0.159	-0.105
-539.208	241.455	0.037	0.061
-538.193	163.088	-0.070	-0.098
-537.179	800.000	-0.013	-0.051
-536.164	248.987	-0.100	0.170
-535.150	-89.610	0.346	0.102
-534.135	442.320	0.148	-0.324
-533.121	-182.694	-0.330	0.006
-532.106	47.756	-0.202	-0.189
-531.091	-118.891	-0.311	-0.055
-530.077	312.672	-0.083	0.157
-529.062	34.838	0.022	0.019
-528.048	68.573	0.308	0.316
-527.033	-96.349	-0.037	0.010
-526.018	-95.397	0.260	-0.070
-525.004	256.845	0.111	-0.190
-523.989	221.208	0.082	-0.132
-522.975	-2.960	0.081	0.056
-521.960	800.000	-0.101	0.352
-520.945	91.900	-0.083	-0.093
-519.931	453.587	-0.035	0.077
-518.916	71.904	0.172	0.179
-517.902	-200.000	0.098	0.550
-516.887	241.156	0.062	0.104
-515.872	-200.000	-0.018	0.113
-514.858	800.000	-0.023	-0.069
-513.843	-121.989	0.107	-0.018
-512.829	-200.000	-0.007	-0.166
-511.814	-96.665	-0.143	-0.038
-510.799	-74.678	0.361	0.130
-509.785	509.268	0.082	0.191
-508.770	-122.099	-0.191	-0.031
-507.756	-200.000	-0.075	0.426
-506.741	281.765	-0.079	0.142
-505.726	-101.380	-0.090	0.022
-504.712	96.604	-0.254	0.291
-503.697	-119.697	0.125	-0.022
-502.683	221.278	0.149	-0.239
-501.668	-200.000	0.050	0.255
-500.653	537.678	-0.030	-0.070
-499.639	453.600	0.051	-0.114
-498.624	-200.000	-0.001	0.258
-497.610	-200.000	-0.000	-0.197
-496.595	-105.811	-0.202	0.046
-495.581	516.306	0.037	-0.085
-494.566	23.602	0.069	-0.057
-493.551	-82.148	-0.262	-0.085
-492.537	-119.571	-0.092	0.016
-491.522	-114.680	-0.112	-0.021
-490.508	-200.000	-0.003	-0.069
-489.493	-200.000	0.001	-0.183
-488.478	-106.459	-0.210	-0.047
-487.464	-92.997	0.143	-0.040
-486.449	-94.553	0.123	-0.034
-485.435	72.007	-0.158	0.164
-484.420	800.000	0.063	0.182
-483.405	256.147	-0.205	0.352
-482.391	223.804	-0.229	0.369
-481.376	-21.447	-0.245	0.149
-480.362	151.753	-0.083	0.114
-479.347	-91.261	0.285	-0.081
-478.332	718.598	-0.034	0.091
-477.318	-74.759	-0.181	0.065
-476.303	89.112	0.063	0.070
-475.289	-43.450	-0.189	-0.095
-474.274	91.980	0.105	-0.118
-473.259	532.484	-0.079	-0.187
-472.245	800.000	0.013	-0.048
-471.230	49.505	-0.164	-0.155
-470.216	-200.000	0.024	0.107
-469.201	-102.986	0.075	0.018
-468.186	249.555	-0.092	0.155
-467.172	-200.000	0.117	-0.000
-466.157	108.503	0.137	-0.163
-465.143	239.334	0.363	-0.603
-464.128	243.020	0.088	0.147
-463.113	218.975	-0.073	-0.116
-462.099	300.754	-0.138	-0.255
-461.084	-200.000	0.051	0.249
-460.070	-200.000	0.059	-0.378
-459.055	158.247	0.302	0.418
-458.040	292.716	0.110	-0.200
-457.026	42.619	-0.050	-0.045
-456.011	-92.286	0.119	0.033
-454.997	-32.140	0.329	0.183
-453.982	-81.241	-0.061	-0.020
-452.968	-70.244	0.203	-0.077
-451.953	424.541	-0.068	-0.145
-450.938	-81.707	0.139	-0.045
-449.924	18.962	-0.140	-0.112
-448.909	91.031	0.128	-0.143
-447.895	-161.389	-0.237	0.012
-446.880	800.000	-0.028	0.084
-445.865	-42.432	-0.124	-0.063
-444.851	83.933	0.240	-0.261
-443.836	147.807	0.163	0.219
-442.822	-200.000	0.001	-0.074
-441.807	95.220	-0.099	0.113
-440.792	-172.490	0.323	0.010
-439.778	203.085	-0.252	0.389
-438.763	800.000	0.115	-0.403
-437.749	513.455	-0.126	-0.293
-436.734	-200.000	-0.021	-0.101
-435.719	4.230	0.020	0.015
-434.705	334.355	0.058	-0.112
-433.690	-64.162	-0.165	-0.067
-432.676	-200.000	-0.007	-0.299
-431.661	246.661	0.054	0.091
-430.646	-110.103	0.091	0.019
-429.632	312.379	0.032	-0.060
-428.617	481.868	-0.080	0.181
-427.603	-149.273	0.117	-0.009
-426.588	225.248	0.077	-0.125
-425.573	-137.443	-0.082	0.009
-424.559	-200.000	0.002	0.339
-423.544	4.455	0.353	0.258
-422.530	-200.000	0.067	0.378
-421.515	800.000	-0.011	-0.042
-420.500	142.006	-0.074	-0.097
-419.486	303.331	0.096	0.178
-418.471	-200.000	-0.005	-0.045
-417.457	-200.000	-0.030	0.305
-416.442	-114.841	0.248	-0.047
-415.428	-200.000	0.006	-0.052
-414.413	131.615	0.149	-0.191
-413.398	-158.888	-0.273	-0.015
-412.384	16.713	-0.112	-0.089
-411.369	764.522	-0.082	-0.222
-410.355	-10.081	-0.080	0.053
-409.340	-66.823	0.209	0.083
-408.325	38.013	-0.140	-0.124
-407.311	-92.284	-0.104	-0.029
-406.296	-200.000	0.059	-0.356
-405.282	800.000	0.051	0.164
-404.267	-200.000	-0.022	-0.149
-403.252	-200.000	0.007	0.155
-402.238	8.194	-0.480	0.359
-401.223	-67.038	-0.370	-0.145
-400.209	-71.643	0.170	0.063
-399.194	-120.949	0.144	0.024
-398.179	-77.404	0.205	0.071
-397.165	69.169	0.180	-0.185
-396.150	800.000	0.035	0.117
-395.136	-200.000	0.008	-0.047
-394.121	245.140	-0.156	-0.260
-393.106	-69.316	0.264	-0.101
-392.092	212.129	-0.085	-0.133
-391.077	113.058	0.060	0.073
-390.063	439.737	-0.159	0.345
-389.048	800.000	0.074	0.218
-388.033	-194.516	0.241	0.002
-387.019	55.917	0.090	0.087
-386.004	-115.540	0.272	0.051
-384.990	-57.033	-0.204	-0.090
-383.975	555.408	-0.157	-0.377
-382.960	-75.936	-0.137	0.048
-381.946	3.282	0.109	0.079
-380.931	-93.333	-0.152	-0.042
-379.917	112.111	0.051	-0.062
-378.902	-144.014	0.164	0.015
-377.888	800.000	0.038	-0.157
-376.873	-86.717	0.180	0.055
-375.858	239.869	-0.169	-0.280
-374.844	-44.508	-0.514	0.256
-373.829	76.705	0.211	0.223
-372.815	529.338	-0.056	-0.132
-371.800	186.476	0.249	-0.369
-370.785	-200.000	-0.008	-0.389
-369.771	182.277	0.198	-0.290
-368.756	651.833	-0.031	-0.079
-367.742	324.424	0.185	0.351
-366.727	-63.109	-0.234	-0.096
-365.712	84.524	-0.250	-0.272
-364.698	-200.000	0.026	-0.124
-363.683	-115.624	0.126	0.024
-362.669	153.362	-0.132	-0.180
-361.654	315.227	0.086	0.160
-360.639	800.000	0.052	-0.180
-359.625	-32.737	0.082	0.045
-358.610	76.842	-0.218	0.230
-357.596	25.088	-0.425	0.351
-356.581	-200.000	0.008	0.123
-355.566	-82.321	0.265	0.086
-354.552	442.735	-0.103	-0.225
-353.537	119.809	-0.103	-0.127
-352.523	-58.838	-0.212	0.091
-351.508	-79.171	-0.276	0.093
-350.493	-76.490	-0.206	-0.072
-349.479	-200.000	0.018	0.200
-348.464	750.658	0.104	0.278
-347.450	392.849	-0.039	-0.081
-346.435	800.000	0.044	0.187
-345.420	-115.542	-0.398	0.074
-344.406	6.363	-0.143	0.106
-343.391	-200.000	0.007	0.090
-342.377	-111.662	0.234	0.047
-341.362	118.559	0.079	0.097
-340.348	440.598	0.113	-0.246
-339.333	-69.812	0.158	-0.060
-338.318	-24.827	0.263	0.155
-337.304	-15.678	0.095	0.060
-336.289	-200.000	0.006	0.074
-335.275	-200.000	-0.008	-0.305
-334.260	-26.272	-0.175	-0.102
-333.245	83.570	0.147	-0.159
-332.231	-200.000	0.008	-0.228
-331.216	91.400	-0.355	-0.396
-330.202	-116.570	-0.389	-0.071
-329.187	301.707	-0.065	0.120
-328.172	-134.854	-0.242	-0.029
-327.158	38.457	0.159	0.141
-326.143	108.517	0.180	-0.213
-325.129	-114.936	-0.108	0.020
-324.114	154.299	0.178	0.243
-323.099	800.000	-0.012	0.044
-322.085	-114.930	0.151	-0.029
-321.070	-65.740	-0.074	-0.029
-320.056	-111.015	-0.118	0.024
-319.041	-200.000	0.016	0.084
-318.026	800.000	0.016	-0.056
-317.012	-88.084	-0.075	0.022
-315.997	-29.511	-0.184	0.104
-314.983	-9.922	0.096	0.063
-313.968	354.493	-0.150	0.296
-312.953	-200.000	0.002	0.178
-311.939	-67.961	-0.401	-0.155
-310.924	-200.000	-0.042	0.451
-309.910	-200.000	0.057	-0.248
-308.895	217.843	-0.036	0.058
-307.880	16.427	0.295	0.231
-306.866	-200.000	-0.013	0.261
-305.851	-193.321	0.230	-0.002
-304.837	-118.403	-0.505	0.089
-303.822	101.807	-0.164	0.190
-302.807	93.857	0.372	-0.418
-301.793	800.000	-0.107	-0.324
-300.778	-200.000	0.006	0.222
-299.764	82.711	0.072	0.078
-298.749	716.889	-0.044	0.116
-297.735	-68.425	-0.209	-0.080
-296.720	-200.000	0.021	0.279
-295.705	-89.424	-0.220	-0.064
-294.691	-37.616	-0.113	-0.060
-293.676	-0.618	0.041	-0.029
-292.662	-38.255	0.069	0.036
-291.647	130.428	0.316	-0.401
-290.632	297.381	-0.062	0.112
-289.618	-126.777	0.344	-0.050
-288.603	-200.000	0.022	-0.122
-287.589	-29.761	-0.128	0.072
-286.574	174.994	-0.118	0.169
-285.559	0.960	-0.243	-0.173
-284.545	-119.156	-0.171	-0.030
-283.530	-138.918	0.279	-0.030
-282.516	-200.000	-0.029	0.309
-281.501	-56.652	-0.194	0.085
-280.486	-58.504	0.326	-0.140
-279.472	-83.956	0.131	0.041
-278.457	23.718	-0.039	-0.032
-277.443	20.718	0.089	0.072
-276.428	-16.371	0.219	0.138
-275.413	-200.000	-0.017	-0.108
-274.399	95.134	-0.142	0.160
-273.384	33.779	-0.191	-0.165
-272.370	7.114	0.189	0.140
-271.355	57.081	0.180	-0.174
-270.340	48.346	0.143	-0.133
-269.326	-200.000	0.007	-0.055
-268.311	-96.803	0.257	0.067
-267.297	-20.319	-0.144	-0.088
-266.282	113.846	-0.110	-0.132
-265.267	14.757	0.295	0.229
-264.253	-34.423	0.098	0.053
-263.238	115.773	0.130	0.158
-262.224	188.883	-0.051	-0.076
-261.209	141.291	0.061	0.079
-260.195	-200.000	0.004	-0.100
-259.180	800.000	0.048	-0.204
-258.165	-167.054	-0.154	0.006
-257.151	-76.123	-0.192	-0.067
-256.136	67.669	-0.142	0.144
-255.122	-200.000	0.014	0.196
-254.107	-200.000	-0.008	0.149
-253.092	270.202	-0.068	-0.118
-252.078	-125.328	-0.140	-0.021
-251.063	-58.855	0.562	0.241
-250.049	630.931	0.024	0.060
-249.034	-75.761	-0.192	-0.068
-248.019	-53.159	0.194	-0.088
-247.005	745.464	-0.116	-0.309
-245.990	635.903	0.084	-0.212
-244.976	800.000	-0.022	0.080
-243.961	-57.527	-0.200	0.087
-242.946	696.312	0.171	0.445
-241.932	800.000	0.041	-0.172
-240.917	-158.424	0.185	0.011
-239.903	556.683	-0.082	-0.197
-238.888	800.000	0.105	-0.374
-237.873	-200.000	-0.099	-0.460
-236.859	-177.137	0.273	0.007
-235.844	-109.713	0.343	-0.071
-234.830	47.685	0.228	0.210
-233.815	800.000	0.061	-0.187
-232.800	378.652	0.111	-0.224
-231.786	156.371	0.132	0.180
-230.771	124.473	0.124	-0.155
-229.757	223.134	-0.085	-0.136
-228.742	-139.918	0.259	0.027
-227.727	404.202	0.155	0.322
-226.713	-51.022	0.125	-0.058
-225.698	90.603	0.149	-0.165
-224.684	-200.000	-0.025	-0.240
-223.669	442.268	0.163	-0.353
-222.655	-179.053	-0.311	0.007
-221.640	1.712	0.309	-0.220
-220.625	-115.221	0.104	-0.019
-219.611	163.480	-0.148	0.206
-218.596	-129.387	0.100	-0.014
-217.582	800.000	0.080	-0.224
-216.567	85.452	0.239	0.259
-215.552	184.480	0.125	0.184
-214.538	-59.973	0.394	0.166
-213.523	-56.607	-0.134	0.059
-212.509	30.803	-0.218	-0.185
-211.494	-148.651	-0.166	-0.013
-210.479	223.216	-0.135	0.216
-209.465	-127.177	-0.047	-0.007
-208.450	100.190	0.089	-0.102
-207.436	669.777	-0.221	0.566
-206.421	800.000	0.070	0.217
-205.406	447.079	-0.059	0.129
-204.392	47.199	0.174	0.160
-203.377	144.042	0.066	-0.087
-202.363	103.074	-0.200	0.231
-201.348	800.000	-0.057	0.226
-200.333	-113.767	-0.250	-0.048
-199.319	332.069	-0.063	-0.120
-198.304	588.189	-0.084	-0.204
-197.290	-171.532	0.376	-0.012
-196.275	-189.745	0.269	-0.003
-195.260	-114.557	0.428	0.081
-194.246	510.285	0.094	-0.217
-193.231	215.024	-0.090	-0.140
-192.217	88.095	0.048	0.052
-191.202	227.772	-0.044	0.071
-190.187	24.341	-0.328	0.268
-189.173	-101.264	-0.199	0.048
-188.158	-200.000	0.021	0.124
-187.144	-155.498	0.225	0.014
-186.129	130.724	-0.062	-0.078
-185.114	308.940	-0.189	0.350
-184.100	-4.949	0.008	-0.005
-183.085	213.898	-0.083	-0.129
-182.071	28.839	0.189	0.158
-181.056	-68.974	-0.264	0.101
-180.042	-200.000	0.016	0.266
-179.027	-42.592	0.220	-0.111
-178.012	178.643	0.084	-0.122
-176.998	49.218	-0.150	0.139
-175.983	-200.000	-0.010	0.071
-174.969	-144.007	-0.387	0.036
-173.954	-78.252	-0.386	0.131
-172.939	81.693	-0.110	-0.117
-171.925	-83.845	0.136	0.043
-170.910	-200.000	0.042	-0.260
-169.896	183.416	-0.064	-0.093
-168.881	-114.741	0.222	-0.042
-167.866	-200.000	-0.018	-0.189
-166.852	159.639	0.101	-0.139
-165.837	-200.000	0.005	0.101
-164.823	-87.407	0.267	-0.080
-163.808	-146.640	0.223	-0.019
-162.793	258.735	0.141	-0.239
-161.779	-200.000	0.003	0.348
-160.764	-86.831	-0.063	-0.019
-159.750	-118.360	-0.302	0.053
-158.735	-200.000	0.003	-0.253
-157.720	-200.000	0.009	-0.167
-156.706	4.562	-0.324	-0.235
-155.691	-2.802	0.064	0.044
-154.677	800.000	0.103	-0.283
-153.662	-43.114	0.480	-0.240
-152.647	177.527	-0.079	0.114
-151.633	-85.798	0.013	-0.004
-150.618	-140.359	-0.177	0.018
-149.604	-18.330	-0.168	-0.104
-148.589	-128.961	0.208	-0.029
-147.574	251.229	0.214	0.359
-146.560	800.000	0.069	0.253
-145.545	-67.891	-0.076	0.029
-144.531	-200.000	-0.008	0.194
-143.516	-86.754	0.194	0.059
-142.502	-200.000	-0.038	0.241
-141.487	-200.000	-0.012	-0.223
-140.472	11.487	-0.042	0.032
-139.458	152.317	0.136	-0.182
-138.443	-98.656	0.305	-0.077
-137.429	-200.000	-0.022	-0.227
-136.414	-62.034	-0.398	-0.164
-135.399	-174.389	0.154	-0.004
-134.385	-52.628	-0.218	-0.099
-133.370	-120.131	0.285	0.048
-132.356	-67.733	-0.076	-0.029
-131.341	-78.435	0.068	0.023
-130.326	44.666	-0.175	0.158
-129.312	-200.000	-0.018	-0.153
-128.297	800.000	-0.081	0.259
-127.283	346.215	0.108	0.210
-126.268	-12.851	-0.162	-0.104
-125.253	82.562	0.278	-0.298
-124.239	81.178	-0.129	-0.137
-123.224	26.936	0.097	-0.080
-122.210	1.809	-0.082	0.058
-121.195	-49.863	-0.136	-0.064
-120.180	-24.980	-0.442	0.258
-119.166	134.863	-0.045	-0.058
-118.151	176.841	-0.246	0.353
-117.137	149.908	0.102	0.136
-116.122	-200.000	-0.031	0.206
-115.107	-86.093	0.221	0.067
-114.093	59.224	-0.164	0.159
-113.078	202.680	0.145	0.220
-112.064	-200.000	-0.047	0.289
-111.049	-51.785	0.087	0.040
-110.034	800.000	-0.120	-0.430
-109.020	-23.971	-0.139	-0.082
-108.005	-113.032	-0.104	0.020
-106.991	-30.966	0.080	0.045
-105.976	170.457	-0.084	-0.119
-104.962	800.000	-0.073	-0.226
-103.947	-200.000	-0.052	-0.247
-102.932	800.000	-0.065	-0.178
-101.918	-200.000	-0.055	0.461
-100.903	772.861	0.043	0.115
-99.889	-30.411	0.137	-0.077
-98.874	34.058	-0.145	-0.125
-97.859	3.254	-0.183	0.131
-96.845	31.915	-0.241	-0.204
-95.830	318.366	-0.113	-0.211
-94.816	-105.619	0.142	0.032
-93.801	-48.650	0.076	-0.036
-92.786	-102.355	0.252	0.059
-91.772	34.160	0.171	-0.147
-90.757	247.393	0.152	-0.252
-89.743	235.254	-0.227	-0.369
-88.728	-4.595	0.292	0.198
-87.713	-112.894	0.050	-0.010
-86.699	-200.000	0.048	-0.242
-85.684	106.741	0.143	-0.167
-84.670	-200.000	0.046	0.298
-83.655	-166.437	0.100	0.004
-82.640	-9.182	0.184	0.121
-81.626	800.000	0.049	0.159
-80.611	-200.000	-0.028	0.158
-79.597	-1.778	-0.146	0.101
-78.582	176.209	0.173	0.247
-77.567	301.425	0.042	0.077
-76.553	73.966	0.306	-0.316
-75.538	1.922	-0.136	-0.096
-74.524	-30.781	-0.099	-0.055
-73.509	-159.895	0.069	0.004
-72.494	800.000	0.130	0.547
-71.480	0.830	-0.210	0.148
-70.465	-200.000	0.001	0.142
-69.451	-40.136	-0.151	-0.077
-68.436	19.123	0.145	-0.114
-67.422	94.114	-0.047	0.052
-66.407	-41.399	-0.106	-0.053
-65.392	-200.000	-0.045	-0.254
-64.378	-102.532	0.149	0.035
-63.363	-101.422	-0.288	-0.069
-62.349	-20.612	-0.131	-0.079
-61.334	178.412	-0.683	-0.980
-60.319	800.000	0.228	0.639
-59.305	-200.000	-0.013	-1.193
-58.290	55.814	0.724	0.690
-57.276	278.859	0.754	1.321
-56.261	-200.000	93.891	551.838
-55.246	545.284	1372.179	3221.087
-54.232	159.591	2557.062	3496.467
-53.217	106.662	2278.924	2655.833
-52.203	43.112	1903.350	1705.917
-51.188	37.264	1694.006	1474.010
-50.173	34.521	1649.886	1415.252
-49.159	52.174	1694.913	1586.781
-48.144	54.156	1711.186	1616.817
-47.130	36.865	1672.083	1451.715
-46.115	34.033	1658.022	1418.362
-45.100	33.942	1653.069	1413.391
-44.086	33.827	1650.407	1410.210
-43.071	33.885	1647.711	1408.274
-42.057	33.900	1645.009	1406.021
-41.042	33.880	1643.436	1404.476
-40.027	33.869	1641.671	1402.829
-39.013	33.946	1639.031	1401.090
-37.998	33.777	1638.154	1399.033
-36.984	33.896	1636.878	1398.769
-35.969	33.970	1635.489	1398.066
-34.954	33.993	1633.640	1396.597
-33.940	33.971	1631.624	1394.660
-32.925	34.005	1630.329	1393.747
-31.911	33.979	1628.269	1391.744
-30.896	33.949	1627.256	1390.599
-29.881	33.977	1624.952	1388.781
-28.867	34.001	1623.673	1387.806
-27.852	34.070	1621.621	1386.498
-26.838	34.017	1620.017	1384.690
-25.823	34.036	1619.204	1384.081
-24.809	34.015	1617.600	1382.498
-23.794	34.061	1615.848	1381.282
-22.779	34.043	1614.717	1380.130
-21.765	34.007	1613.104	1378.432
-20.750	34.024	1611.516	1377.143
-19.736	34.034	1610.037	1375.901
-18.721	34.025	1609.091	1374.975
-17.706	33.986	1607.672	1373.426
-16.692	34.137	1605.049	1372.214
-15.677	34.058	1604.142	1370.814
-14.663	34.006	1602.801	1369.241
-13.648	34.006	1601.126	1367.760
-12.633	34.018	1600.002	1366.831
-11.619	33.962	1598.366	1364.974
-10.604	34.066	1596.997	1364.499
-9.590	34.106	1595.407	1363.374
-8.575	34.021	1594.515	1361.948
-7.560	34.069	1593.578	1361.436
-6.546	34.051	1592.275	1360.139
-5.531	33.976	1591.312	1358.728
-4.517	34.102	1589.414	1357.954
-3.502	33.977	1588.544	1356.261
-2.487	34.061	1587.191	1355.653
-1.473	33.606	1574.986	1341.960
-0.458	30.318	1554.024	1301.042
0.556	24.174	1553.659	1263.871
1.571	21.563	1576.918	1263.853
2.586	20.960	1590.362	1270.122
3.600	19.092	1538.337	1215.290
4.615	10.769	1428.243	1073.434
5.629	2.106	1360.363	967.610
6.644	0.133	1351.628	948.881
7.659	0.027	1350.280	947.182
8.673	0.050	1348.593	946.062
9.688	0.040	1347.148	944.898
10.702	-0.167	1344.676	941.785
11.717	3.723	1350.959	970.574
12.731	12.605	1364.999	1036.749
13.746	17.780	1371.364	1074.166
14.761	17.240	1369.733	1069.396
15.775	16.208	1366.664	1060.421
16.790	15.076	1363.958	1051.124
17.804	14.312	1361.437	1044.302
18.819	14.021	1360.006	1041.287
19.834	13.750	1358.997	1038.728
20.848	13.534	1357.462	1036.110
21.863	13.253	1356.284	1033.361
22.877	13.050	1355.482	1031.392
23.892	13.037	1354.374	1030.374
24.907	13.024	1353.539	1029.566
25.921	13.022	1352.619	1028.766
26.936	13.049	1352.023	1028.389
27.950	13.240	1350.286	1028.165
28.965	13.283	1349.475	1027.725
29.980	13.246	1349.271	1027.247
30.994	13.320	1347.876	1026.551
32.009	13.288	1347.457	1025.944
33.023	13.235	1346.086	1024.483
34.038	13.273	1344.769	1023.625
35.053	13.189	1343.629	1022.145
36.067	13.194	1342.852	1021.494
37.082	13.135	1341.630	1020.113
38.096	13.311	1340.704	1020.403
39.111	13.191	1340.611	1019.505
40.126	13.237	1339.111	1018.554
41.140	13.144	1338.148	1017.163
42.155	13.091	1337.822	1016.493
43.169	12.991	1337.759	1015.745
44.184	12.954	1337.703	1015.384
45.199	13.079	1336.828	1015.399
46.213	13.115	1336.457	1015.246
47.228	13.140	1334.857	1014.094
48.242	13.105	1333.946	1013.096
49.257	13.195	1332.396	1012.381
50.271	13.144	1331.180	1011.059
51.286	13.179	1330.029	1010.305
52.301	13.158	1328.635	1009.034
53.315	13.121	1327.844	1008.117
54.330	13.057	1326.454	1006.580
55.344	13.069	1325.231	1005.637
56.359	13.076	1324.282	1004.870
57.374	13.030	1323.532	1003.930
58.388	12.983	1322.526	1002.797
59.403	13.032	1321.473	1002.207
60.417	13.027	1321.204	1001.881
61.432	13.050	1320.404	1001.328
62.447	12.972	1319.289	999.918
63.461	12.965	1318.008	998.816
64.476	12.943	1317.176	997.963
65.490	12.916	1315.988	996.811
66.505	13.029	1314.424	996.224
67.520	13.069	1313.128	995.393
68.534	12.982	1312.530	994.329
69.549	12.941	1311.685	993.355
70.563	12.939	1310.151	992.092
71.578	13.007	1308.751	991.351
72.593	12.868	1308.363	990.134
73.607	12.905	1307.064	989.288
74.622	12.902	1306.307	988.612
75.636	12.955	1305.672	988.355
76.651	12.990	1304.888	987.885
77.666	12.947	1304.398	987.169
78.680	13.000	1303.525	986.739
79.695	12.954	1303.188	986.124
80.709	12.913	1302.775	985.478
81.724	13.059	1301.523	985.316
82.739	13.082	1300.200	984.364
83.753	13.207	1299.261	984.313
84.768	13.127	1298.420	983.112
85.782	13.323	1297.013	983.123
86.797	13.206	1296.037	981.604
87.812	13.041	1295.455	980.096
88.826	13.022	1294.342	979.051
89.841	13.253	1292.998	979.317
90.855	13.206	1291.901	978.124
91.870	13.279	1290.738	977.589
92.884	13.258	1290.070	976.869
93.899	13.183	1289.587	975.976
94.914	13.244	1288.638	975.528
95.928	13.269	1287.590	974.799
96.943	13.268	1287.190	974.403
97.957	13.200	1286.026	973.038
98.972	13.207	1284.937	972.166
99.987	13.240	1283.889	971.478
101.001	13.177	1283.044	970.387
102.016	13.227	1282.052	969.844
103.030	13.351	1280.855	969.578
104.045	13.268	1280.009	968.367
105.060	13.313	1278.701	967.556
106.074	13.175	1277.608	965.834
107.089	13.069	1276.557	964.335
108.103	13.023	1275.193	962.953
109.118	13.032	1273.704	961.797
110.133	13.057	1272.563	960.996
111.147	13.097	1271.223	960.130
112.162	13.065	1270.093	959.004
113.176	13.022	1269.132	957.944
114.191	13.104	1268.467	957.833
115.206	13.118	1266.769	956.547
116.220	13.150	1265.381	955.602
117.235	13.062	1264.142	954.074
118.249	13.052	1264.118	953.913
119.264	13.106	1262.507	952.923
120.279	13.025	1261.562	951.659
121.293	13.013	1260.245	950.513
122.308	13.024	1259.487	949.916
123.322	13.065	1258.285	949.166
124.337	12.974	1257.529	947.986
125.352	12.989	1256.383	947.128
126.366	12.959	1255.418	946.140
127.381	13.044	1254.109	945.561
128.395	13.037	1253.072	944.654
129.410	13.071	1252.027	943.978
130.424	13.082	1251.183	943.317
131.439	13.034	1250.551	942.485
132.454	13.060	1249.401	941.686
133.468	13.135	1248.509	941.355
134.483	13.174	1247.842	940.992
135.497	13.035	1247.160	939.606
136.512	13.174	1245.235	938.859
137.527	13.152	1244.745	938.282
138.541	13.138	1243.032	936.831
139.556	13.280	1241.546	936.428
140.570	13.321	1240.981	936.153
141.585	13.189	1239.233	934.004
142.600	13.289	1238.467	933.913
143.614	13.309	1237.460	933.179
144.629	13.283	1236.380	932.136
145.643	13.311	1234.735	930.971
146.658	13.287	1233.609	929.906
147.673	13.259	1232.214	928.614
148.687	13.152	1231.480	927.377
149.702	13.108	1230.713	926.473
150.716	13.218	1228.797	925.563
151.731	13.171	1227.570	924.294
152.746	13.262	1226.495	923.912
153.760	13.269	1225.274	922.950
154.775	13.360	1223.598	922.114
155.789	13.310	1223.087	921.365
156.804	13.277	1222.332	920.535
157.819	13.457	1220.889	920.365
158.833	13.311	1220.348	919.065
159.848	13.461	1219.455	919.146
160.862	13.434	1218.186	917.959
161.877	13.398	1217.155	916.898
162.892	13.223	1216.279	915.193
163.906	13.290	1215.345	914.780
164.921	13.329	1214.331	914.150
165.935	13.324	1213.522	913.430
166.950	13.460	1212.766	913.530
167.964	13.421	1211.645	912.392
168.979	13.397	1211.275	911.902
169.994	13.376	1210.839	911.373
171.008	13.403	1210.308	911.046
172.023	13.504	1208.972	910.514
173.037	13.539	1208.170	910.018
174.052	13.508	1207.241	909.071
175.067	13.393	1206.575	907.859
176.081	13.438	1205.399	907.138
177.096	13.396	1204.415	906.090
178.110	13.444	1203.011	905.213
179.125	13.509	1202.048	904.767
180.140	13.416	1200.645	903.120
181.154	13.435	1199.502	902.285
182.169	13.481	1198.704	901.853
183.183	13.554	1197.509	901.272
184.198	13.619	1196.030	900.436
185.213	13.626	1195.071	899.669
186.227	13.597	1194.388	898.922
187.242	13.667	1192.949	898.138
188.256	13.742	1192.081	897.809
189.271	13.682	1191.139	896.698
190.286	13.638	1190.021	895.536
191.300	13.545	1189.487	894.555
192.315	13.427	1188.807	893.325
193.329	13.534	1187.878	893.127
194.344	13.555	1187.135	892.601
195.359	13.587	1186.753	892.409
196.373	13.659	1186.076	892.206
197.388	13.696	1185.909	892.204
198.402	13.740	1185.228	891.845
199.417	13.884	1184.885	892.282
200.432	13.904	1183.650	891.384
201.446	13.841	1183.053	890.516
202.461	13.870	1182.144	889.908
203.475	13.990	1181.048	889.646
204.490	13.842	1179.812	887.849
205.504	13.877	1178.417	886.904
206.519	13.944	1177.250	886.304
207.534	13.947	1175.988	885.292
208.548	14.001	1175.203	884.912
209.563	13.824	1174.984	883.724
210.577	13.772	1174.078	882.687
211.592	13.853	1172.837	882.111
212.607	14.077	1171.845	882.473
213.621	14.005	1170.777	881.212
214.636	14.000	1170.265	880.718
215.650	14.039	1169.283	880.108
216.665	14.014	1167.950	878.898
217.680	14.117	1167.525	879.041
218.694	14.257	1166.523	878.950
219.709	14.170	1165.913	877.955
220.723	14.098	1165.428	877.129
221.738	14.040	1164.984	876.412
222.753	14.119	1163.730	875.808
223.767	14.108	1163.029	875.146
224.782	14.224	1162.735	875.459
225.796	14.239	1161.799	874.751
226.811	14.266	1161.051	874.257
227.826	14.199	1160.539	873.442
228.840	14.158	1160.061	872.789
229.855	14.145	1159.271	872.047
230.869	14.094	1158.641	871.229
231.884	14.073	1157.537	870.212
232.899	14.210	1156.408	870.006
233.913	14.157	1155.822	869.210
234.928	14.287	1154.706	868.970
235.942	14.184	1154.394	868.123
236.957	14.174	1153.692	867.464
237.972	14.197	1152.796	866.836
238.986	14.151	1152.172	866.048
240.001	14.173	1151.834	865.831
241.015	14.313	1150.581	865.541
242.030	14.219	1150.152	864.652
243.045	14.328	1149.471	864.633
244.059	14.262	1148.671	863.609
245.074	14.343	1147.441	863.029
246.088	14.382	1146.931	862.770
247.103	14.491	1145.640	862.288
248.117	14.450	1145.147	861.628
249.132	14.608	1144.609	861.964
250.147	14.635	1143.848	861.453
251.161	14.673	1142.875	860.840
252.176	14.717	1142.401	860.635
253.190	14.752	1141.736	860.237
254.205	14.782	1141.288	859.978
255.220	14.732	1140.913	859.362
256.234	14.660	1140.422	858.543
257.249	14.745	1139.511	858.221
258.263	14.696	1139.324	857.752
259.278	14.741	1138.710	857.446
260.293	14.757	1137.895	856.838
261.307	14.854	1136.980	856.567
262.322	14.854	1136.141	855.860
263.336	14.801	1135.748	855.218
264.351	14.884	1135.026	855.022
265.366	14.868	1134.406	854.400
266.380	15.016	1133.299	854.245
267.395	14.973	1132.602	853.426
268.409	14.909	1132.102	852.647
269.424	14.994	1131.298	852.399
270.439	14.888	1131.263	851.757
271.453	14.934	1130.245	851.148
272.468	14.812	1129.488	849.882
273.482	14.858	1128.663	849.423
274.497	14.842	1128.062	848.813
275.512	14.846	1127.430	848.282
276.526	14.887	1127.178	848.225
277.541	14.887	1126.139	847.370
278.555	15.031	1124.933	847.114
279.570	14.967	1124.934	846.715
280.585	15.043	1123.391	845.863
281.599	15.138	1122.475	845.579
282.614	15.156	1121.344	844.746
283.628	15.140	1120.324	843.822
284.643	15.022	1119.831	842.781
285.657	15.163	1119.035	842.816
286.672	15.117	1118.266	841.931
287.687	15.211	1116.985	841.363
288.701	15.010	1117.004	840.294
289.716	15.229	1115.931	840.513
290.730	15.227	1115.223	839.892
291.745	15.253	1114.096	839.101
292.760	15.068	1113.879	837.935
293.774	15.104	1113.226	837.554
294.789	15.315	1112.375	837.892
295.803	15.317	1111.904	837.474
296.818	15.225	1111.300	836.486
297.833	15.263	1110.774	836.205
298.847	15.174	1110.050	835.141
299.862	15.134	1109.261	834.273
300.876	15.218	1108.463	834.017
301.891	15.359	1107.861	834.193
302.906	15.399	1106.879	833.581
303.920	15.382	1106.405	833.062
304.935	15.412	1105.528	832.480
305.949	15.483	1105.016	832.371
306.964	15.407	1104.397	831.456
307.979	15.425	1103.521	830.810
308.993	15.487	1103.264	830.850
310.008	15.539	1102.015	830.096
311.022	15.456	1101.605	829.300
312.037	15.551	1100.701	829.017
313.052	15.439	1099.785	827.701
314.066	15.408	1098.723	826.677
315.081	15.450	1097.747	826.077
316.095	15.558	1096.828	825.840
317.110	15.512	1096.095	824.991
318.125	15.492	1095.702	824.523
319.139	15.588	1095.160	824.514
320.154	15.552	1094.504	823.768
321.168	15.521	1093.900	823.092
322.183	15.532	1093.261	822.593
323.197	15.486	1092.428	821.666
324.212	15.508	1092.232	821.552
325.227	15.537	1091.791	821.291
326.241	15.514	1091.251	820.698
327.256	15.519	1090.308	819.945
328.270	15.653	1089.015	819.552
329.285	15.625	1088.514	818.963
330.300	15.700	1087.013	818.127
331.314	15.562	1086.481	816.984
332.329	15.556	1085.788	816.360
333.343	15.571	1084.942	815.728
334.358	15.607	1084.177	815.254
335.373	15.684	1083.603	815.123
336.387	15.729	1082.764	814.641
337.402	15.757	1081.929	814.072
338.416	15.827	1080.986	813.629
339.431	15.890	1080.490	813.488
340.446	15.861	1079.982	812.897
341.460	15.998	1079.310	812.977
342.475	15.823	1078.937	811.781
343.489	15.965	1078.164	811.813
344.504	16.016	1076.749	810.919
345.519	16.066	1075.869	810.425
346.533	16.133	1074.810	809.879
347.548	16.057	1074.536	809.237
348.562	16.184	1073.553	809.031
349.577	16.022	1073.360	808.040
350.592	15.809	1072.854	806.565
351.606	15.949	1071.597	806.222
352.621	15.941	1070.866	805.562
353.635	15.984	1070.414	805.356
354.650	16.003	1069.491	804.680
355.665	16.056	1068.750	804.301
356.679	16.050	1068.195	803.787
357.694	16.027	1067.690	803.224
358.708	16.148	1066.822	803.076
359.723	16.060	1066.460	802.316
360.738	16.109	1065.983	802.118
361.752	16.196	1065.405	802.028
362.767	16.038	1065.277	801.110
363.781	16.221	1064.370	801.226
364.796	16.230	1063.640	800.647
365.810	16.323	1062.996	800.529
366.825	16.395	1062.025	800.072
367.840	16.502	1061.581	800.170
368.854	16.474	1061.152	799.647
369.869	16.404	1060.697	798.899
370.883	16.416	1059.387	797.900
371.898	16.315	1058.963	797.032
372.913	16.313	1058.474	796.583
373.927	16.425	1057.732	796.481
374.942	16.448	1057.343	796.228
375.956	16.419	1057.146	795.873
376.971	16.544	1056.098	795.600
377.986	16.599	1055.488	795.330
379.000	16.532	1055.028	794.600
380.015	16.664	1054.581	794.812
381.029	16.584	1053.779	793.759
382.044	16.612	1053.127	793.332
383.059	16.802	1052.330	793.553
384.073	16.686	1051.826	792.560
385.088	16.672	1050.969	791.777
386.102	16.671	1050.009	790.980
387.117	16.678	1048.854	790.069
388.132	16.659	1048.013	789.278
389.146	16.729	1046.877	788.678
390.161	16.641	1046.610	788.000
391.175	16.588	1045.916	787.160
392.190	16.508	1045.543	786.438
393.205	16.679	1044.604	786.455
394.219	16.665	1044.144	785.975
395.234	16.743	1042.872	785.310
396.248	16.839	1041.237	784.455
397.263	16.905	1040.350	784.020
398.278	16.686	1040.211	782.834
399.292	16.690	1039.280	782.083
400.307	16.721	1038.732	781.746
401.321	16.612	1038.176	780.755
402.336	16.697	1037.768	780.770
403.350	16.782	1037.121	780.608
404.365	16.776	1036.095	779.739
405.380	16.822	1035.469	779.408
406.394	16.866	1034.820	779.053
407.409	17.017	1033.900	778.985
408.423	16.846	1033.635	777.931
409.438	16.919	1032.536	777.370
410.453	16.978	1031.745	776.977
411.467	16.970	1031.459	776.654
412.482	17.015	1030.708	776.227
413.496	16.943	1030.275	775.504
414.511	17.010	1029.598	775.230
415.526	17.178	1028.974	775.459
416.540	17.137	1028.911	775.157
417.555	17.227	1027.964	774.786
418.569	17.147	1027.373	773.907
419.584	17.225	1027.010	773.919
420.599	17.273	1026.342	773.565
421.613	100.045	1315.743	1448.493
422.628	91.435	1357.921	1448.586
