DTS Sentinel unit serial number:	SN413079Multiplexer serial number:	ORYXHardware model number:	OX4-SRSoftware version number:	ORYX F/W v4.00 Oryx Data Collector v3.7.2.0data status	okinstallation	princeton_trtdifferential loss correction	single-endedforward channel	channel 2reverse channel	N/Adate	2019/09/14time	07:35:34forward acquisition time	60.00reverse acquisition time	0.00gamma	496.2192k internal	0.2338k external	0.2338temperature offset calibration	1.0130default loss term (dB/km)	0.3790temperature slope calibration	1.0000multiplexer offset coefficient	1.0000multiplexer slope coefficient	1.0000fibre end	0.00T internal ref (°C)	26.25T ext. ref 1 (°C)	3.45T ext. ref 2 (°C)	21.44length (m)	temperature (°C)	Stokes	anti-Stokes-747.200	226.127	-0.075	-0.122
-746.185	222.498	-0.258	0.417
-745.171	-200.000	-0.071	-0.426
-744.156	-7.576	0.078	-0.053
-743.142	-13.856	-0.307	-0.199
-742.127	520.791	0.209	0.491
-741.112	-83.805	0.236	-0.076
-740.098	-170.959	0.386	-0.013
-739.083	800.000	0.069	0.245
-738.069	800.000	-0.121	0.340
-737.054	357.296	-0.061	-0.123
-736.039	75.358	-0.259	-0.274
-735.025	800.000	-0.013	-0.047
-734.010	-79.864	-0.184	0.062
-732.996	13.009	-0.152	-0.118
-731.981	-82.074	-0.175	-0.057
-730.966	-200.000	-0.007	0.064
-729.952	800.000	0.048	0.162
-728.937	25.094	-0.030	-0.025
-727.923	330.183	-0.130	-0.252
-726.908	-200.000	-0.019	-0.123
-725.894	-179.779	-0.083	-0.002
-724.879	251.953	-0.096	-0.164
-723.864	-200.000	0.368	0.001
-722.850	-73.165	-0.280	0.103
-721.835	-88.592	-0.415	0.124
-720.821	236.124	0.193	-0.320
-719.806	-99.826	0.309	-0.078
-718.791	-72.975	-0.176	-0.065
-717.777	-124.886	0.365	0.056
-716.762	227.899	0.174	-0.283
-715.748	800.000	0.033	-0.116
-714.733	-80.573	-0.218	-0.073
-713.718	-33.938	-0.195	-0.108
-712.704	68.274	-0.125	-0.128
-711.689	-96.644	-0.088	-0.023
-710.675	51.143	0.363	0.345
-709.660	-40.478	0.054	0.028
-708.645	800.000	0.061	0.190
-707.631	800.000	0.118	-0.331
-706.616	127.722	-0.139	-0.177
-705.602	-196.433	-0.347	0.002
-704.587	-66.721	-0.193	0.076
-703.572	-200.000	0.000	0.092
-702.558	-55.314	-0.163	0.073
-701.543	-200.000	-0.001	-0.095
-700.529	-200.000	0.003	-0.027
-699.514	-200.000	0.003	-0.039
-698.499	114.629	-0.110	-0.134
-697.485	-6.713	0.040	-0.027
-696.470	-200.000	0.035	-0.243
-695.456	800.000	-0.050	0.152
-694.441	-53.953	-0.132	0.060
-693.426	-24.879	0.199	0.118
-692.412	-37.973	-0.167	-0.089
-691.397	-200.000	0.075	-0.496
-690.383	46.160	0.017	-0.016
-689.368	-200.000	0.069	-0.369
-688.354	485.502	-0.052	0.119
-687.339	-158.451	0.067	-0.004
-686.324	-21.790	-0.207	0.126
-685.310	16.923	0.089	-0.070
-684.295	-58.854	0.170	-0.074
-683.281	-50.550	-0.051	0.024
-682.266	267.832	0.052	0.092
-681.251	-200.000	-0.026	0.288
-680.237	13.768	0.275	0.214
-679.222	-200.000	0.051	-0.343
-678.208	-137.114	-0.058	0.007
-677.193	28.261	0.033	-0.028
-676.178	119.425	0.186	0.230
-675.164	-114.874	-0.345	-0.066
-674.149	70.363	-0.274	-0.284
-673.135	104.952	0.096	0.113
-672.120	-108.171	0.052	0.011
-671.105	-55.177	-0.142	-0.064
-670.091	318.921	-0.156	0.295
-669.076	-69.232	-0.304	0.117
-668.062	16.981	-0.075	-0.060
-667.047	117.774	0.088	0.108
-666.032	-65.663	-0.182	-0.073
-665.018	-200.000	-0.020	0.139
-664.003	-200.000	0.055	-0.354
-662.989	89.192	0.109	0.121
-661.974	405.399	-0.114	-0.241
-660.959	78.629	-0.107	0.114
-659.945	-108.440	-0.274	-0.059
-658.930	-102.512	-0.059	0.014
-657.916	45.749	0.156	-0.144
-656.901	161.167	0.055	0.077
-655.886	-127.625	-0.581	-0.084
-654.872	419.138	-0.088	0.188
-653.857	85.688	0.234	0.257
-652.843	67.132	-0.100	0.102
-651.828	648.189	0.065	0.167
-650.814	800.000	-0.105	-0.314
-649.799	-159.424	0.477	0.027
-648.784	-200.000	-0.035	0.188
-647.770	-111.871	0.191	-0.038
-646.755	-200.000	0.033	0.152
-645.741	-200.000	0.023	0.153
-644.726	-162.237	0.033	-0.002
-643.711	-41.708	-0.486	-0.250
-642.697	-36.548	-0.287	-0.154
-641.682	-142.025	0.138	0.014
-640.668	34.548	-0.236	-0.206
-639.653	-106.271	0.288	0.065
-638.638	-200.000	0.055	0.265
-637.624	-20.098	0.110	0.068
-636.609	-172.243	-0.398	0.013
-635.595	-76.065	-0.078	0.028
-634.580	87.521	0.043	0.048
-633.565	800.000	-0.060	-0.249
-632.551	-28.811	-0.034	0.019
-631.536	-200.000	0.038	-0.468
-630.522	46.448	-0.326	0.302
-629.507	10.126	-0.270	0.205
-628.492	-57.194	-0.152	0.067
-627.478	219.245	0.059	0.095
-626.463	-47.968	0.350	-0.169
-625.449	-200.000	0.003	-0.165
-624.434	411.276	0.086	0.183
-623.419	-143.032	-0.385	0.037
-622.405	-200.000	-0.041	0.293
-621.390	18.432	0.173	0.138
-620.376	-181.727	0.077	0.001
-619.361	800.000	-0.042	0.126
-618.346	181.524	-0.132	-0.194
-617.332	163.176	0.184	-0.259
-616.317	800.000	-0.043	-0.126
-615.303	153.915	-0.190	0.260
-614.288	552.847	-0.135	-0.324
-613.273	93.440	-0.258	-0.292
-612.259	33.934	0.283	0.246
-611.244	-200.000	-0.056	-0.311
-610.230	202.924	0.040	0.061
-609.215	-100.837	0.060	0.015
-608.201	62.915	0.176	-0.175
-607.186	-200.000	0.054	-0.297
-606.171	227.906	-0.124	0.202
-605.157	-78.424	0.279	0.096
-604.142	2.532	-0.224	-0.162
-603.128	22.338	0.243	-0.198
-602.113	-31.074	-0.048	0.027
-601.098	51.851	-0.079	0.075
-600.084	173.986	-0.188	-0.271
-599.069	-141.935	0.211	0.021
-598.055	163.976	-0.183	-0.258
-597.040	-92.326	-0.459	-0.129
-596.025	-149.157	-0.273	-0.022
-595.011	17.103	-0.099	0.078
-593.996	-46.329	-0.292	-0.143
-592.982	-138.341	-0.190	0.021
-591.967	-167.245	0.298	-0.012
-590.952	790.728	-0.116	0.319
-589.938	-25.719	-0.226	0.133
-588.923	-74.344	0.082	0.029
-587.909	-107.794	-0.196	0.043
-586.894	-6.230	0.074	0.050
-585.879	-5.039	0.126	-0.087
-584.865	-51.658	0.246	0.115
-583.850	13.701	-0.360	0.279
-582.836	30.310	0.091	0.078
-581.821	-118.581	0.179	0.032
-580.806	-79.606	0.090	-0.030
-579.792	-122.568	-0.387	-0.063
-578.777	-15.281	-0.119	0.076
-577.763	800.000	-0.070	0.303
-576.748	692.177	-0.067	-0.175
-575.733	238.742	-0.116	-0.193
-574.719	70.085	-0.201	0.207
-573.704	31.611	0.176	-0.151
-572.690	1.667	-0.262	-0.188
-571.675	-131.535	0.240	0.032
-570.661	400.220	0.167	0.349
-569.646	225.041	0.197	-0.317
-568.631	-47.163	-0.154	0.075
-567.617	-100.369	-0.294	-0.073
-566.602	104.489	-0.203	-0.238
-565.588	221.619	0.073	0.118
-564.573	-48.698	0.176	-0.084
-563.558	46.241	0.169	0.156
-562.544	-40.343	0.421	0.218
-561.529	-158.786	-0.271	-0.015
-560.515	800.000	0.078	0.237
-559.500	502.121	0.079	-0.182
-558.485	7.624	0.185	0.138
-557.471	-200.000	-0.009	-0.282
-556.456	-111.410	0.212	-0.043
-555.442	-55.853	0.054	0.024
-554.427	31.666	-0.160	0.137
-553.412	217.979	-0.125	0.198
-552.398	-54.255	-0.320	-0.145
-551.383	-55.791	0.087	0.039
-550.369	208.163	-0.168	-0.261
-549.354	410.703	-0.062	-0.132
-548.339	75.114	-0.168	-0.177
-547.325	1.260	0.089	0.064
-546.310	-200.000	0.001	-0.134
-545.296	-29.911	0.367	-0.208
-544.281	79.700	-0.123	-0.132
-543.266	211.012	0.052	-0.081
-542.252	69.969	-0.165	0.170
-541.237	-117.011	-0.138	-0.025
-540.223	107.626	-0.041	-0.049
-539.208	-147.173	-0.082	0.007
-538.193	82.151	0.132	0.142
-537.179	75.484	-0.088	-0.092
-536.164	-46.438	0.078	-0.038
-535.150	-200.000	0.041	0.238
-534.135	291.873	-0.135	0.244
-533.121	699.114	0.101	0.264
-532.106	-200.000	-0.079	-0.383
-531.091	363.353	0.078	-0.156
-530.077	-10.043	-0.168	0.111
-529.062	485.910	0.081	0.184
-528.048	800.000	-0.034	-0.130
-527.033	-91.674	0.105	-0.030
-526.018	-110.383	0.212	0.044
-525.004	63.112	0.096	0.095
-523.989	-113.753	-0.124	0.024
-522.975	-101.239	0.151	-0.037
-521.960	-200.000	-0.061	-0.286
-520.945	238.644	0.180	-0.298
-519.931	-135.270	0.065	0.008
-518.916	-152.063	-0.139	0.010
-517.902	527.315	0.093	0.218
-516.887	800.000	-0.024	0.094
-515.872	800.000	0.107	-0.359
-514.858	-13.828	-0.425	-0.273
-513.843	-124.790	-0.423	-0.065
-512.829	-143.009	0.199	0.019
-511.814	-200.000	0.004	0.093
-510.799	-93.360	-0.052	0.014
-509.785	-51.998	0.125	0.058
-508.770	800.000	0.058	-0.177
-507.756	-103.953	0.560	-0.130
-506.741	-94.909	0.413	-0.111
-505.726	-200.000	-0.011	0.147
-504.712	396.223	-0.118	0.244
-503.697	-127.977	-0.466	0.067
-502.683	800.000	-0.040	-0.159
-501.668	800.000	-0.046	-0.144
-500.653	46.515	0.512	0.472
-499.639	-3.970	-0.145	-0.100
-498.624	23.799	0.210	0.172
-497.610	-200.000	-0.088	-0.404
-496.595	14.966	0.195	0.152
-495.581	-7.661	-0.168	-0.113
-494.566	114.994	-0.211	0.256
-493.551	-90.873	-0.229	0.066
-492.537	-119.921	0.201	0.034
-491.522	-200.000	0.033	0.261
-490.508	-79.327	0.183	0.062
-489.493	27.307	-0.055	0.046
-488.478	800.000	0.089	-0.300
-487.464	48.465	-0.140	-0.130
-486.449	89.582	0.122	0.135
-485.435	-57.730	-0.284	0.123
-484.420	-200.000	0.079	-0.408
-483.405	288.092	-0.057	-0.102
-482.391	-200.000	0.048	-0.318
-481.376	-112.964	0.133	0.026
-480.362	119.184	-0.126	0.155
-479.347	60.701	0.128	-0.126
-478.332	95.844	-0.058	0.065
-477.318	430.348	-0.012	-0.026
-476.303	-46.156	-0.301	-0.147
-475.289	-200.000	0.010	-0.313
-474.274	-59.518	-0.100	0.043
-473.259	358.765	0.144	0.285
-472.245	-200.000	0.007	0.038
-471.230	-200.000	0.004	0.171
-470.216	567.375	0.009	0.021
-469.201	295.224	0.032	-0.058
-468.186	-162.598	0.161	-0.008
-467.172	181.363	-0.154	-0.225
-466.157	-29.116	0.178	0.102
-465.143	-190.680	-0.203	-0.002
-464.128	160.807	-0.202	0.280
-463.113	11.131	-0.241	0.183
-462.099	-200.000	-0.004	0.078
-461.084	193.415	0.222	0.333
-460.070	-78.316	0.487	0.166
-459.055	74.160	0.115	0.120
-458.040	-28.959	0.069	-0.039
-457.026	174.378	-0.083	-0.119
-456.011	-79.317	-0.341	-0.114
-454.997	800.000	0.040	-0.141
-453.982	-0.133	-0.144	0.102
-452.968	117.040	0.137	0.166
-451.953	-83.882	-0.261	-0.082
-450.938	-19.928	-0.152	-0.093
-449.924	521.476	-0.098	-0.229
-448.909	-200.000	0.019	0.099
-447.895	-30.787	-0.156	-0.087
-446.880	800.000	-0.059	-0.218
-445.865	800.000	-0.058	0.196
-444.851	49.548	-0.109	0.102
-443.836	-171.107	0.371	-0.012
-442.822	33.217	0.202	-0.174
-441.807	38.994	0.114	0.101
-440.792	-88.133	-0.193	0.057
-439.778	17.984	0.246	0.195
-438.763	-83.285	0.239	-0.076
-437.749	800.000	-0.043	0.136
-436.734	-86.599	0.169	0.051
-435.719	-76.363	-0.063	0.022
-434.705	-42.739	-0.316	-0.159
-433.690	47.915	0.215	0.199
-432.676	-69.072	0.256	0.098
-431.661	800.000	-0.030	0.084
-430.646	-94.558	0.293	-0.079
-429.632	-200.000	0.023	-0.389
-428.617	-200.000	0.015	-0.467
-427.603	-54.536	-0.150	-0.067
-426.588	-152.469	-0.193	-0.014
-425.573	-200.000	0.046	-0.286
-424.559	281.708	0.087	-0.155
-423.544	574.564	-0.101	0.243
-422.530	479.822	-0.161	0.361
-421.515	800.000	-0.056	-0.197
-420.500	-159.813	0.078	-0.004
-419.486	24.573	-0.101	-0.083
-418.471	-200.000	-0.016	0.104
-417.457	3.633	-0.210	-0.152
-416.442	-200.000	0.015	0.312
-415.428	-98.436	0.197	-0.050
-414.413	-200.000	-0.003	0.080
-413.398	-53.173	-0.191	0.087
-412.384	-200.000	-0.017	-0.169
-411.369	-68.834	0.314	-0.120
-410.355	145.244	-0.109	0.145
-409.340	353.115	-0.063	-0.124
-408.325	-200.000	-0.006	0.117
-407.311	387.662	-0.093	-0.190
-406.296	-200.000	0.005	0.181
-405.282	-200.000	-0.019	-0.300
-404.267	232.776	-0.135	-0.220
-403.252	167.303	0.114	-0.161
-402.238	-33.396	-0.459	0.251
-401.223	-200.000	-0.000	-0.036
-400.209	-106.612	0.250	0.055
-399.194	-86.796	-0.242	0.073
-398.179	50.979	-0.067	0.063
-397.165	625.988	-0.072	0.181
-396.150	-200.000	0.025	-0.107
-395.136	-4.509	0.188	-0.129
-394.121	-92.332	-0.221	-0.062
-393.106	496.705	-0.157	-0.357
-392.092	800.000	-0.090	-0.360
-391.077	606.980	0.070	0.174
-390.063	800.000	-0.107	0.358
-389.048	-123.967	0.031	-0.005
-388.033	-200.000	-0.009	0.095
-387.019	36.551	0.211	0.184
-386.004	-178.801	-0.056	-0.001
-384.990	800.000	0.064	-0.198
-383.975	-140.577	0.108	-0.011
-382.960	-114.631	0.222	-0.042
-381.946	118.362	0.203	0.248
-380.931	-27.906	-0.225	-0.129
-379.917	53.228	-0.101	0.096
-378.902	-5.671	-0.135	-0.092
-377.888	552.454	0.116	-0.275
-376.873	26.747	0.386	0.320
-375.858	800.000	0.043	0.128
-374.844	-146.712	0.258	-0.022
-373.829	-123.699	-0.235	0.037
-372.815	166.375	0.174	0.244
-371.800	-100.329	0.176	-0.043
-370.785	800.000	-0.006	0.019
-369.771	-100.154	0.362	0.089
-368.756	259.810	0.146	0.249
-367.742	74.341	-0.146	-0.152
-366.727	-146.145	0.146	0.013
-365.712	139.371	0.016	-0.020
-364.698	478.507	-0.049	0.110
-363.683	-91.440	0.250	-0.071
-362.669	-200.000	0.005	-0.305
-361.654	800.000	-0.041	-0.138
-360.639	554.521	0.049	-0.116
-359.625	800.000	-0.097	-0.280
-358.610	130.180	0.097	-0.122
-357.596	-200.000	-0.025	-0.217
-356.581	-63.282	0.057	0.023
-355.566	260.207	0.102	-0.175
-354.552	22.429	0.248	-0.201
-353.537	44.189	0.153	0.139
-352.523	141.708	-0.063	-0.083
-351.508	-200.000	0.028	-0.276
-350.493	-18.925	-0.097	0.060
-349.479	38.252	-0.072	0.064
-348.464	-200.000	-0.009	-0.102
-347.450	800.000	-0.024	0.102
-346.435	16.488	-0.226	-0.177
-345.420	11.211	-0.238	-0.180
-344.406	-200.000	0.023	-0.112
-343.391	-78.589	-0.246	-0.083
-342.377	323.789	0.167	-0.314
-341.362	-95.975	-0.042	0.011
-340.348	-6.126	0.219	0.148
-339.333	26.096	0.103	0.085
-338.318	296.351	-0.080	0.145
-337.304	800.000	-0.052	0.163
-336.289	-78.477	-0.082	-0.028
-335.275	245.773	-0.068	-0.112
-334.260	174.264	-0.041	-0.058
-333.245	221.759	-0.230	0.365
-332.231	-180.379	-0.303	0.006
-331.216	-144.450	-0.393	-0.036
-330.202	800.000	-0.022	-0.068
-329.187	-26.973	0.111	-0.064
-328.172	800.000	-0.070	0.216
-327.158	-176.402	0.037	0.001
-326.143	108.053	0.204	-0.240
-325.129	-200.000	0.016	-0.143
-324.114	774.164	0.096	-0.258
-323.099	-64.834	0.036	0.014
-322.085	40.933	-0.216	-0.193
-321.070	-10.818	0.254	-0.165
-320.056	-64.101	-0.088	-0.035
-319.041	-100.049	-0.049	0.012
-318.026	56.179	0.215	0.206
-317.012	12.424	0.271	-0.206
-315.997	-200.000	0.016	-0.217
-314.983	-61.262	-0.105	-0.044
-313.968	577.568	0.089	0.215
-312.953	120.790	-0.110	0.135
-311.939	-200.000	0.018	-0.105
-310.924	-28.752	-0.158	-0.090
-309.910	-111.510	0.298	-0.060
-308.895	-5.839	0.212	-0.143
-307.880	95.524	0.147	-0.165
-306.866	-47.325	0.270	0.130
-305.851	800.000	0.108	-0.344
-304.837	-200.000	-0.016	-0.101
-303.822	-200.000	0.031	-0.236
-302.807	220.205	0.124	0.196
-301.793	-35.930	0.218	0.116
-300.778	-58.282	-0.148	-0.063
-299.764	177.110	-0.149	0.215
-298.749	-40.080	0.244	-0.125
-297.735	-200.000	-0.020	-0.192
-296.720	-200.000	-0.010	-0.147
-295.705	800.000	-0.056	0.191
-294.691	-141.396	0.225	0.022
-293.676	565.830	0.082	-0.196
-292.662	-57.586	-0.094	-0.041
-291.647	-200.000	0.002	0.101
-290.632	-87.787	0.261	-0.077
-289.618	-64.162	0.073	-0.030
-288.603	188.135	0.077	0.114
-287.589	39.885	-0.174	0.154
-286.574	-92.486	-0.059	0.016
-285.559	-128.264	-0.175	-0.025
-284.545	800.000	-0.065	0.194
-283.530	-200.000	0.058	0.266
-282.516	74.474	-0.256	0.265
-281.501	800.000	0.094	0.354
-280.486	155.326	0.322	0.437
-279.472	-104.062	-0.291	-0.067
-278.457	-0.916	-0.321	-0.224
-277.443	-63.915	0.328	-0.132
-276.428	-47.176	0.227	0.109
-275.413	-156.198	-0.225	0.014
-274.399	-200.000	-0.003	-0.211
-273.384	-50.921	-0.094	-0.043
-272.370	-70.804	-0.205	-0.076
-271.355	-92.736	-0.323	-0.089
-270.340	-60.631	0.107	0.045
-269.326	-63.481	-0.393	-0.159
-268.311	-152.277	-0.220	0.016
-267.297	232.080	-0.077	0.124
-266.282	83.598	-0.135	0.145
-265.267	-200.000	-0.094	0.436
-264.253	-200.000	-0.043	-0.224
-263.238	140.376	-0.217	0.282
-262.224	13.095	-0.144	-0.110
-261.209	86.737	-0.102	0.111
-260.195	-24.373	0.082	0.048
-259.180	800.000	0.076	0.232
-258.165	28.942	0.149	-0.125
-257.151	634.291	-0.046	0.114
-256.136	216.695	-0.094	0.148
-255.122	-20.384	0.160	-0.097
-254.107	90.758	-0.246	0.272
-253.092	16.715	0.318	0.248
-252.078	-200.000	0.025	0.209
-251.063	-3.927	0.076	-0.052
-250.049	-152.569	0.189	-0.013
-249.034	88.950	-0.169	-0.186
-248.019	348.068	-0.083	-0.162
-247.005	32.279	0.354	0.301
-245.990	692.972	-0.108	0.278
-244.976	574.442	0.024	0.058
-243.961	-130.235	0.040	-0.005
-242.946	125.632	-0.034	0.042
-241.932	-42.507	0.436	0.219
-240.917	105.473	-0.046	-0.053
-239.903	168.264	-0.190	0.266
-238.888	460.094	-0.140	-0.308
-237.873	14.447	0.125	0.096
-236.859	-68.682	0.134	-0.051
-235.844	-200.000	-0.049	-0.235
-234.830	800.000	0.117	0.442
-233.815	207.162	-0.139	0.213
-232.800	358.293	0.080	0.156
-231.786	-200.000	-0.011	0.245
-230.771	133.024	-0.163	0.207
-229.757	-34.746	0.219	-0.118
-228.742	102.096	0.206	-0.236
-227.727	-32.394	0.107	-0.059
-226.713	-97.792	-0.067	0.017
-225.698	60.956	0.224	0.218
-224.684	-72.690	-0.217	0.079
-223.669	16.647	-0.148	0.115
-222.655	-66.623	-0.232	-0.090
-221.640	-200.000	-0.015	-0.111
-220.625	-200.000	-0.002	0.202
-219.611	800.000	0.036	0.107
-218.596	37.758	-0.158	-0.138
-217.582	-200.000	0.028	-0.145
-216.567	-200.000	-0.007	-0.213
-215.552	-200.000	0.036	-0.289
-214.538	-111.423	-0.226	-0.045
-213.523	-53.464	0.372	0.167
-212.509	-84.304	-0.098	-0.030
-211.494	-200.000	0.053	-0.245
-210.479	800.000	-0.062	-0.259
-209.465	98.336	0.090	-0.102
-208.450	800.000	-0.047	0.163
-207.436	436.216	0.101	0.215
-206.421	800.000	0.031	0.133
-205.406	97.349	-0.146	0.165
-204.392	800.000	-0.038	-0.161
-203.377	-200.000	-0.051	-0.277
-202.363	-102.018	-0.299	0.071
-201.348	625.427	0.169	0.420
-200.333	-80.017	0.189	-0.062
-199.319	-95.550	0.311	0.082
-198.304	326.758	-0.079	-0.149
-197.290	366.850	0.112	-0.222
-196.275	-200.000	-0.045	0.266
-195.260	314.450	-0.068	0.125
-194.246	800.000	-0.043	-0.142
-193.231	-134.636	0.239	-0.029
-192.217	691.433	-0.156	0.402
-191.202	249.281	0.140	-0.234
-190.187	800.000	0.109	0.305
-189.173	78.415	-0.210	0.220
-188.158	-16.818	-0.128	-0.080
-187.144	800.000	-0.141	-0.408
-186.129	-81.959	0.397	-0.128
-185.114	-150.725	0.356	0.027
-184.100	447.673	0.160	0.346
-183.085	800.000	0.077	0.287
-182.071	70.768	0.145	0.147
-181.056	800.000	0.131	-0.387
-180.042	-200.000	0.018	0.097
-179.027	-141.600	-0.106	0.010
-178.012	-89.756	0.342	-0.098
-176.998	110.390	-0.152	0.179
-175.983	774.013	-0.047	0.125
-174.969	-172.138	0.143	0.005
-173.954	800.000	-0.053	0.179
-172.939	800.000	0.076	0.271
-171.925	800.000	0.074	-0.215
-170.910	-200.000	-0.041	0.340
-169.896	50.441	-0.271	-0.251
-168.881	5.364	-0.298	-0.216
-167.866	-200.000	-0.033	0.209
-166.852	42.258	0.091	-0.081
-165.837	424.976	0.150	-0.316
-164.823	190.989	0.208	0.307
-163.808	-29.028	-0.249	-0.140
-162.793	102.172	-0.054	0.062
-161.779	-3.452	0.182	-0.124
-160.764	32.533	-0.043	0.037
-159.750	158.600	-0.175	0.239
-158.735	-153.577	0.380	0.026
-157.720	-41.873	0.153	0.077
-156.706	-149.803	-0.086	-0.007
-155.691	-200.000	0.027	0.278
-154.677	800.000	0.011	-0.039
-153.662	129.747	-0.051	-0.065
-152.647	-88.095	-0.157	-0.046
-151.633	-8.244	0.092	0.061
-150.618	214.025	0.257	-0.398
-149.604	-97.749	0.067	0.017
-148.589	800.000	-0.033	-0.110
-147.574	-52.966	0.276	-0.125
-146.560	49.448	0.217	0.201
-145.545	800.000	0.056	-0.234
-144.531	800.000	0.059	0.189
-143.516	-185.803	0.141	0.002
-142.502	77.764	0.119	-0.124
-141.487	-200.000	0.019	-0.115
-140.472	214.887	0.158	0.245
-139.458	40.266	0.087	0.076
-138.443	-109.351	-0.071	0.015
-137.429	-173.341	-0.119	0.004
-136.414	297.499	0.090	-0.162
-135.399	-200.000	-0.023	0.324
-134.385	-99.948	0.161	0.039
-133.370	32.247	0.022	-0.019
-132.356	28.771	-0.294	-0.244
-131.341	800.000	0.062	-0.238
-130.326	572.026	-0.126	-0.302
-129.312	337.461	-0.050	-0.094
-128.297	-63.367	0.226	-0.091
-127.283	286.089	0.209	0.369
-126.268	178.158	0.080	-0.114
-125.253	23.673	-0.201	-0.162
-124.239	-35.862	-0.093	-0.049
-123.224	-200.000	-0.036	-0.321
-122.210	-200.000	-0.014	0.170
-121.195	-119.247	0.377	-0.064
-120.180	-25.019	0.065	-0.038
-119.166	800.000	-0.016	0.052
-118.151	-200.000	-0.028	0.231
-117.137	-200.000	-0.006	0.135
-116.122	108.958	0.105	0.123
-115.107	113.248	0.179	-0.213
-114.093	153.337	0.092	-0.124
-113.078	-200.000	0.003	-0.149
-112.064	153.531	0.065	-0.087
-111.049	-131.477	-0.068	-0.009
-110.034	-134.514	-0.172	0.021
-109.020	94.573	-0.141	-0.157
-108.005	787.011	-0.097	0.260
-106.991	-200.000	-0.035	0.187
-105.976	-128.874	-0.096	0.013
-104.962	214.289	0.064	0.099
-103.947	156.746	-0.116	0.157
-102.932	708.820	-0.045	0.117
-101.918	-200.000	-0.055	0.338
-100.903	135.442	-0.110	-0.140
-99.889	-115.178	0.194	0.036
-98.874	-112.508	-0.125	-0.024
-97.859	-134.493	0.183	-0.022
-96.845	-200.000	-0.010	0.101
-95.830	-200.000	-0.031	0.463
-94.816	800.000	0.034	0.101
-93.801	116.593	-0.184	-0.221
-92.786	-149.010	-0.149	-0.012
-91.772	93.649	0.187	0.208
-90.757	219.644	0.123	0.193
-89.743	-50.656	-0.244	0.112
-88.728	-153.168	0.086	0.006
-87.713	95.608	-0.204	0.228
-86.699	-200.000	0.032	0.201
-85.684	-69.211	0.094	-0.036
-84.670	340.081	-0.072	0.138
-83.655	-96.783	0.263	-0.068
-82.640	-30.830	-0.118	-0.065
-81.626	-66.814	-0.280	-0.108
-80.611	-84.654	-0.463	-0.143
-79.597	273.998	0.082	-0.142
-78.582	-131.731	-0.231	-0.030
-77.567	-170.263	0.355	0.012
-76.553	-25.312	-0.223	-0.129
-75.538	-200.000	0.396	-0.001
-74.524	331.927	0.086	-0.163
-73.509	-200.000	0.000	0.237
-72.494	800.000	-0.050	-0.193
-71.480	38.782	-0.191	-0.166
-70.465	-136.708	-0.134	0.015
-69.451	-107.476	-0.398	0.085
-68.436	-200.000	0.011	0.122
-67.422	-98.980	-0.125	-0.031
-66.407	295.371	0.250	0.448
-65.392	135.084	0.029	-0.037
-64.378	-71.358	0.209	0.077
-63.363	-29.938	-0.088	-0.049
-62.349	-42.038	-0.379	0.189
-61.334	48.990	-1.112	-1.020
-60.319	-12.978	0.877	0.557
-59.305	800.000	-0.356	-1.006
-58.290	515.390	0.539	1.229
-57.276	800.000	0.506	1.564
-56.261	-200.000	116.532	640.985
-55.246	492.002	1548.643	3465.677
-54.232	172.529	2732.668	3841.607
-53.217	98.789	2304.626	2598.022
-52.203	35.454	1908.848	1636.375
-51.188	29.379	1701.573	1412.286
-50.173	26.963	1659.906	1359.577
-49.159	47.455	1717.495	1563.495
-48.144	45.906	1730.940	1563.877
-47.130	28.899	1688.388	1397.477
-46.115	26.293	1674.110	1365.929
-45.100	26.132	1669.055	1360.536
-44.086	26.159	1666.777	1358.831
-43.071	26.159	1663.775	1356.331
-42.057	26.115	1661.246	1353.887
-41.042	26.046	1659.782	1352.124
-40.027	26.076	1657.489	1350.426
-39.013	26.063	1655.387	1348.564
-37.998	26.060	1654.147	1347.474
-36.984	26.170	1652.754	1347.110
-35.969	26.182	1651.051	1345.758
-34.954	26.307	1649.312	1345.213
-33.940	26.248	1648.190	1343.809
-32.925	26.249	1645.798	1341.809
-31.911	26.290	1644.163	1340.732
-30.896	26.260	1642.440	1339.050
-29.881	26.180	1641.364	1337.527
-28.867	26.213	1639.646	1336.320
-27.852	26.180	1638.306	1334.928
-26.838	26.312	1636.219	1334.149
-25.823	26.248	1635.596	1333.117
-24.809	26.250	1633.694	1331.530
-23.794	26.258	1632.314	1330.406
-22.779	26.322	1630.408	1329.270
-21.765	26.334	1628.879	1328.062
-20.750	26.337	1627.540	1326.941
-19.736	26.245	1626.605	1325.450
-18.721	26.289	1624.934	1324.361
-17.706	26.281	1623.347	1322.950
-16.692	26.251	1622.107	1321.672
-15.677	26.291	1620.518	1320.616
-14.663	26.260	1619.066	1319.152
-13.648	26.283	1617.735	1318.184
-12.633	26.388	1615.715	1317.248
-11.619	26.247	1614.409	1315.111
-10.604	26.374	1612.618	1314.519
-9.590	26.222	1612.105	1312.947
-8.575	26.335	1610.040	1312.029
-7.560	26.277	1608.973	1310.686
-6.546	26.284	1607.964	1309.870
-5.531	26.254	1607.308	1309.062
-4.517	26.314	1605.857	1308.266
-3.502	26.240	1604.837	1306.847
-2.487	26.308	1602.958	1305.754
-1.473	26.043	1590.953	1294.022
-0.458	23.396	1571.318	1259.220
0.556	20.781	1574.693	1229.220
1.571	18.779	1599.266	1233.924
2.586	18.458	1611.422	1240.867
3.600	16.271	1555.555	1182.440
4.615	9.594	1447.484	1056.537
5.629	4.198	1389.553	980.118
6.644	3.603	1381.454	970.579
7.659	3.365	1380.835	968.565
8.673	3.431	1379.383	967.875
9.688	3.411	1377.777	966.539
10.702	3.349	1374.898	964.042
11.717	6.001	1379.324	983.689
12.731	13.010	1392.585	1037.255
13.746	18.800	1401.491	1080.312
14.761	20.034	1403.496	1089.529
15.775	19.537	1400.985	1084.364
16.790	18.582	1398.318	1076.211
17.804	17.775	1395.952	1069.241
18.819	17.389	1394.849	1065.881
19.834	17.324	1393.456	1064.319
20.848	16.987	1392.934	1061.716
21.863	16.926	1390.921	1059.704
22.877	16.896	1389.835	1058.598
23.892	16.644	1389.641	1056.783
24.907	16.621	1388.356	1055.568
25.921	16.658	1387.858	1055.327
26.936	16.790	1386.493	1055.021
27.950	16.784	1385.589	1054.203
28.965	16.857	1384.949	1054.072
29.980	16.880	1383.963	1053.374
30.994	17.020	1382.346	1052.920
32.009	17.027	1381.564	1052.273
33.023	17.064	1380.355	1051.489
34.038	17.027	1378.854	1050.026
35.053	16.846	1377.510	1047.790
36.067	16.895	1376.665	1047.354
37.082	16.934	1375.153	1046.356
38.096	16.975	1374.236	1045.817
39.111	17.034	1373.067	1045.193
40.126	16.854	1372.596	1043.637
41.140	16.672	1371.677	1041.723
42.155	16.640	1370.938	1040.873
43.169	16.620	1370.963	1040.679
44.184	16.717	1370.054	1040.491
45.199	16.545	1370.313	1039.540
46.213	16.739	1369.565	1040.072
47.228	16.822	1368.590	1039.753
48.242	16.903	1367.477	1039.307
49.257	16.904	1366.287	1038.318
50.271	16.805	1364.656	1036.382
51.286	16.730	1363.884	1035.243
52.301	16.752	1362.369	1034.139
53.315	16.677	1361.079	1032.610
54.330	16.655	1359.606	1031.267
55.344	16.544	1358.915	1029.977
56.359	16.642	1357.963	1029.761
57.374	16.584	1357.050	1028.623
58.388	16.383	1356.657	1027.011
59.403	16.427	1355.906	1026.618
60.417	16.531	1354.605	1026.178
61.432	16.470	1353.990	1025.251
62.447	16.423	1352.765	1023.946
63.461	16.345	1351.213	1022.209
64.476	16.336	1350.451	1021.487
65.490	16.434	1349.199	1021.043
66.505	16.502	1347.488	1020.064
67.520	16.438	1346.577	1018.901
68.534	16.495	1345.502	1018.342
69.549	16.465	1344.786	1017.529
70.563	16.443	1343.651	1016.448
71.578	16.255	1342.045	1014.014
72.593	16.296	1341.166	1013.506
73.607	16.274	1340.838	1013.036
74.622	16.299	1339.921	1012.404
75.636	16.265	1339.274	1011.622
76.651	16.186	1338.672	1010.604
77.666	16.273	1338.179	1010.665
78.680	16.428	1337.385	1010.904
79.695	16.465	1336.727	1010.533
80.709	16.546	1335.772	1010.210
81.724	16.428	1335.402	1009.134
82.739	16.667	1334.186	1009.553
83.753	16.698	1333.856	1009.397
84.768	16.794	1332.362	1008.749
85.782	16.760	1331.537	1007.830
86.797	16.805	1329.841	1006.729
87.812	16.812	1328.477	1005.650
88.826	16.914	1327.080	1005.107
89.841	16.844	1326.421	1004.104
90.855	16.868	1325.286	1003.294
91.870	17.027	1324.462	1003.523
92.884	17.000	1323.680	1002.681
93.899	17.071	1323.175	1002.631
94.914	17.052	1322.177	1001.674
95.928	17.132	1321.341	1001.427
96.943	16.879	1320.774	999.415
97.957	16.868	1319.741	998.479
98.972	16.921	1318.770	997.970
99.987	16.840	1317.983	996.811
101.001	16.881	1316.970	996.195
102.016	16.855	1315.895	995.143
103.030	16.968	1314.388	994.576
104.045	16.849	1313.633	993.218
105.060	16.773	1312.699	991.978
106.074	16.680	1310.880	989.973
107.089	16.563	1309.218	987.948
108.103	16.437	1308.200	986.358
109.118	16.554	1306.798	985.895
110.133	16.501	1305.742	984.703
111.147	16.543	1304.271	983.748
112.162	16.578	1303.033	982.934
113.176	16.588	1302.342	982.382
114.191	16.680	1301.216	981.983
115.206	16.620	1299.914	980.564
116.220	16.643	1298.605	979.624
117.235	16.613	1297.751	978.718
118.249	16.527	1296.767	977.391
119.264	16.479	1295.746	976.260
120.279	16.516	1294.332	975.322
121.293	16.504	1292.967	974.138
122.308	16.392	1292.114	972.763
123.322	16.419	1290.901	971.919
124.337	16.271	1290.328	970.549
125.352	16.318	1289.126	969.828
126.366	16.381	1287.727	969.054
127.381	16.331	1286.920	968.072
128.395	16.205	1286.202	966.725
129.410	16.323	1285.177	966.545
130.424	16.477	1284.314	966.692
131.439	16.482	1283.463	965.996
132.454	16.537	1282.472	965.478
133.468	16.608	1281.528	965.087
134.483	16.640	1280.623	964.504
135.497	16.509	1280.029	963.225
136.512	16.583	1278.665	962.529
137.527	16.650	1277.177	961.708
138.541	16.684	1275.683	960.692
139.556	16.644	1274.785	959.702
140.570	16.850	1273.794	960.037
141.585	16.895	1272.436	959.187
142.600	16.914	1271.187	958.268
143.614	16.970	1270.619	958.070
144.629	16.877	1269.621	956.705
145.643	16.973	1268.287	956.157
146.658	16.826	1267.459	954.620
147.673	16.816	1265.582	953.065
148.687	16.640	1264.679	951.315
149.702	16.599	1263.315	949.976
150.716	16.736	1261.846	949.555
151.731	16.619	1261.211	948.336
152.746	16.682	1259.821	947.557
153.760	16.738	1258.497	946.795
154.775	16.847	1257.309	946.421
155.789	16.867	1256.392	945.760
156.804	16.973	1254.902	945.146
157.819	16.915	1254.384	944.347
158.833	16.870	1253.712	943.510
159.848	17.093	1252.835	944.005
160.862	17.066	1251.807	942.999
161.877	16.879	1250.162	940.636
162.892	16.739	1249.273	939.109
163.906	16.815	1248.258	938.683
164.921	16.724	1247.436	937.481
165.935	16.851	1246.229	937.190
166.950	16.903	1245.910	937.156
167.964	16.738	1245.760	936.050
168.979	16.884	1244.710	935.985
169.994	16.795	1244.095	934.948
171.008	16.921	1243.303	934.963
172.023	17.019	1241.989	934.434
173.037	17.000	1241.455	933.845
174.052	17.056	1240.170	933.101
175.067	16.799	1239.215	930.889
176.081	16.774	1238.090	929.825
177.096	16.840	1237.403	929.591
178.110	16.897	1235.912	928.700
179.125	16.899	1234.994	927.939
180.140	16.860	1233.677	926.651
181.154	17.083	1232.457	926.873
182.169	17.088	1231.448	926.060
183.183	17.134	1230.372	925.419
184.198	17.166	1229.189	924.621
185.213	17.223	1227.938	923.907
186.227	17.143	1227.397	922.984
187.242	17.340	1225.916	922.856
188.256	17.258	1225.087	921.710
189.271	17.331	1224.253	921.397
190.286	17.213	1222.788	919.573
191.300	16.767	1222.242	916.666
192.315	16.746	1221.366	915.814
193.329	16.764	1220.581	915.240
194.344	16.910	1220.245	915.700
195.359	16.922	1219.780	915.334
196.373	17.059	1219.248	915.591
197.388	17.316	1218.666	916.459
198.402	17.347	1218.271	916.248
199.417	17.359	1217.706	915.806
200.432	17.534	1216.969	916.111
201.446	17.521	1216.256	915.423
202.461	17.527	1215.420	914.747
203.475	17.660	1214.092	914.382
204.490	17.476	1212.728	912.285
205.504	17.413	1211.327	910.811
206.519	17.354	1210.273	909.625
207.534	17.366	1209.253	908.840
208.548	17.366	1207.996	907.816
209.563	17.397	1207.525	907.550
210.577	17.401	1206.143	906.450
211.592	17.446	1205.734	906.303
212.607	17.504	1205.085	906.045
213.621	17.613	1204.212	905.888
214.636	17.438	1203.192	904.109
215.650	17.415	1202.385	903.302
216.665	17.563	1201.407	903.270
217.680	17.731	1200.118	903.113
218.694	17.649	1199.654	902.248
219.709	17.721	1199.073	902.115
220.723	17.722	1198.413	901.544
221.738	17.681	1197.385	900.472
222.753	17.633	1196.947	899.809
223.767	17.746	1196.222	899.783
224.782	17.710	1195.700	899.117
225.796	17.863	1194.653	899.060
226.811	17.814	1193.939	898.182
227.826	17.724	1193.281	897.135
228.840	17.731	1192.237	896.307
229.855	17.696	1191.520	895.506
230.869	17.800	1190.706	895.360
231.884	17.705	1189.703	894.029
232.899	17.581	1189.097	892.844
233.913	17.552	1188.126	891.887
234.928	17.553	1187.436	891.294
235.942	17.543	1186.442	890.414
236.957	17.517	1186.063	889.918
237.972	17.544	1185.292	889.401
238.986	17.558	1184.867	889.075
240.001	17.646	1184.002	888.805
241.015	17.665	1182.990	888.070
242.030	17.721	1182.039	887.565
243.045	17.859	1181.373	887.707
244.059	17.770	1180.787	886.726
245.074	17.845	1179.963	886.417
246.088	17.817	1179.170	885.599
247.103	17.985	1178.296	885.735
248.117	18.045	1177.830	885.614
249.132	17.999	1177.722	885.219
250.147	18.212	1176.671	885.454
251.161	18.245	1175.718	884.827
252.176	18.419	1175.247	885.295
253.190	18.397	1174.734	884.718
254.205	18.372	1174.400	884.257
255.220	18.504	1173.139	883.911
256.234	18.472	1172.821	883.428
257.249	18.462	1172.242	882.864
258.263	18.429	1171.362	881.950
259.278	18.464	1170.618	881.491
260.293	18.465	1170.520	881.346
261.307	18.494	1169.802	880.874
262.322	18.561	1169.072	880.595
263.336	18.547	1168.303	879.861
264.351	18.556	1167.723	879.398
265.366	18.538	1167.285	878.895
266.380	18.588	1166.270	878.310
267.395	18.511	1165.448	877.220
268.409	18.524	1164.967	876.848
269.424	18.410	1163.971	875.435
270.439	18.395	1163.716	875.092
271.453	18.458	1162.118	874.133
272.468	18.338	1161.876	873.258
273.482	18.312	1161.184	872.529
274.497	18.329	1160.156	871.768
275.512	18.526	1159.313	872.058
276.526	18.439	1158.909	871.236
277.541	18.349	1158.301	870.245
278.555	18.467	1157.114	869.872
279.570	18.760	1156.302	870.673
280.585	18.679	1155.877	869.865
281.599	18.659	1155.079	869.088
282.614	18.583	1154.098	867.886
283.628	18.571	1153.053	866.965
284.643	18.592	1151.367	865.725
285.657	18.513	1151.222	865.141
286.672	18.524	1150.309	864.432
287.687	18.644	1149.059	864.024
288.701	18.766	1148.451	864.101
289.716	18.764	1147.392	863.218
290.730	18.648	1147.567	862.691
291.745	18.700	1146.544	862.108
292.760	18.718	1145.818	861.577
293.774	18.759	1145.045	861.121
294.789	18.815	1144.852	861.185
295.803	18.831	1143.957	860.513
296.818	18.718	1143.288	859.368
297.833	18.712	1142.263	858.490
298.847	18.705	1141.298	857.657
299.862	18.722	1140.652	857.182
300.876	18.715	1140.301	856.806
301.891	18.944	1139.463	857.241
302.906	18.883	1139.113	856.600
303.920	18.944	1138.417	856.301
304.935	19.085	1137.718	856.401
305.949	19.070	1136.839	855.590
306.964	19.093	1136.280	855.207
307.979	19.063	1135.517	854.409
308.993	19.047	1134.569	853.543
310.008	18.970	1134.394	852.954
311.022	19.083	1133.553	852.803
312.037	19.093	1132.138	851.716
313.052	19.051	1131.293	850.793
314.066	18.990	1130.278	849.653
315.081	18.826	1129.315	848.048
316.095	18.813	1128.683	847.433
317.110	18.811	1128.132	846.937
318.125	18.944	1127.033	846.691
319.139	18.910	1126.616	846.136
320.154	18.874	1126.007	845.423
321.168	18.892	1125.323	844.924
322.183	18.942	1124.575	844.536
323.197	18.903	1124.453	844.174
324.212	18.934	1123.764	843.734
325.227	19.062	1122.918	843.652
326.241	19.015	1122.324	842.903
327.256	18.950	1121.368	841.791
328.270	19.013	1120.005	841.002
329.285	18.957	1119.388	840.190
330.300	18.989	1118.219	839.395
331.314	18.986	1117.813	839.003
332.329	19.018	1116.693	838.242
333.343	19.030	1115.860	837.603
334.358	19.146	1114.974	837.427
335.373	19.030	1114.712	836.591
336.387	19.175	1113.939	836.642
337.402	19.157	1113.058	835.821
338.416	19.295	1112.442	835.951
339.431	19.415	1111.440	835.706
340.446	19.321	1111.301	835.073
341.460	19.431	1110.819	835.170
342.475	19.465	1109.399	834.191
343.489	19.500	1108.719	833.775
344.504	19.560	1107.896	833.371
345.519	19.670	1106.904	833.083
346.533	19.712	1106.109	832.616
347.548	19.703	1105.828	832.287
348.562	19.664	1104.499	831.026
349.577	19.490	1103.969	829.717
350.592	19.519	1102.831	828.923
351.606	19.294	1102.136	827.251
352.621	19.264	1101.743	826.738
353.635	19.359	1100.575	826.245
354.650	19.404	1099.779	825.790
355.665	19.455	1099.442	825.708
356.679	19.555	1098.329	825.274
357.694	19.533	1098.327	825.096
358.708	19.505	1097.515	824.278
359.723	19.575	1096.874	824.058
360.738	19.630	1096.237	823.768
361.752	19.687	1095.293	823.259
362.767	19.676	1094.905	822.840
363.781	19.696	1094.492	822.554
364.796	19.702	1093.993	822.136
365.810	19.767	1093.394	821.920
366.825	19.903	1093.118	822.288
367.840	19.834	1092.772	821.627
368.854	20.012	1091.944	821.776
369.869	20.124	1090.737	821.327
370.883	20.077	1089.852	820.361
371.898	19.796	1089.481	818.680
372.913	19.989	1088.539	818.816
373.927	19.917	1088.188	818.138
374.942	19.993	1087.725	818.074
375.956	19.909	1087.715	817.600
376.971	19.912	1086.702	816.778
377.986	20.065	1086.390	817.195
379.000	20.192	1085.465	817.026
380.015	20.320	1084.847	817.088
381.029	20.223	1084.598	816.374
382.044	20.056	1084.339	815.321
383.059	20.272	1082.660	815.002
384.073	20.191	1081.895	813.972
385.088	20.178	1081.006	813.169
386.102	20.320	1080.145	813.114
387.117	20.031	1079.294	811.051
388.132	20.008	1078.157	810.019
389.146	20.038	1077.570	809.646
390.161	20.030	1077.050	809.144
391.175	19.976	1075.913	807.968
392.190	20.139	1075.195	808.115
393.205	20.294	1074.495	808.242
394.219	20.200	1074.018	807.374
395.234	20.280	1073.021	806.923
396.248	20.012	1071.817	804.701
397.263	19.988	1071.254	804.094
398.278	19.995	1070.472	803.472
399.292	19.988	1069.771	802.841
400.307	19.974	1068.593	801.822
401.321	19.983	1067.838	801.225
402.336	20.018	1067.563	801.111
403.350	20.006	1066.869	800.464
404.365	19.992	1066.094	799.747
405.380	20.177	1065.266	799.909
406.394	20.097	1064.848	799.155
407.409	20.286	1063.895	799.238
408.423	20.410	1063.150	799.177
409.438	20.352	1062.788	798.571
410.453	20.578	1061.831	798.819
411.467	20.541	1061.194	798.096
412.482	20.550	1060.591	797.618
413.496	20.717	1059.651	797.602
414.511	20.662	1059.419	797.107
415.526	20.576	1059.430	796.651
416.540	20.806	1058.712	797.094
417.555	20.742	1058.123	796.287
418.569	20.661	1057.438	795.328
419.584	20.699	1056.874	795.009
420.599	20.598	1056.872	794.477
421.613	155.278	1404.996	1796.059
422.628	142.604	1455.686	1796.144
