DTS Sentinel unit serial number:	SN413079Multiplexer serial number:	ORYXHardware model number:	OX4-SRSoftware version number:	ORYX F/W v4.00 Oryx Data Collector v3.7.2.0data status	okinstallation	princeton_trtdifferential loss correction	single-endedforward channel	channel 2reverse channel	N/Adate	2019/09/12time	10:21:10forward acquisition time	60.00reverse acquisition time	0.00gamma	496.2192k internal	0.2312k external	0.2312temperature offset calibration	1.0067default loss term (dB/km)	0.3790temperature slope calibration	1.0000multiplexer offset coefficient	1.0000multiplexer slope coefficient	1.0000fibre end	0.00T internal ref (°C)	36.75T ext. ref 1 (°C)	1.88T ext. ref 2 (°C)	34.85length (m)	temperature (°C)	Stokes	anti-Stokes-747.200	353.427	-0.117	0.236
-746.185	218.398	-0.266	0.432
-745.171	-25.259	0.300	0.180
-744.156	224.370	0.171	0.281
-743.142	-200.000	-0.001	-0.225
-742.127	-200.000	0.045	0.290
-741.112	-78.906	0.101	0.035
-740.098	-74.752	-0.460	0.168
-739.083	101.185	0.425	0.502
-738.069	-107.267	-0.103	0.023
-737.054	104.055	0.119	0.142
-736.039	-178.938	-0.272	0.006
-735.025	-156.740	-0.181	-0.011
-734.010	-200.000	-0.009	-0.071
-732.996	-200.000	0.003	-0.159
-731.981	256.445	-0.265	-0.461
-730.966	-200.000	-0.006	-0.164
-729.952	-128.079	-0.128	-0.019
-728.937	158.084	-0.051	-0.072
-727.923	409.107	-0.100	-0.215
-726.908	-77.775	0.260	0.091
-725.894	-99.252	0.009	-0.002
-724.879	-55.237	-0.155	0.071
-723.864	64.899	-0.229	0.234
-722.850	17.273	0.032	-0.025
-721.835	630.987	-0.125	-0.320
-720.821	800.000	-0.052	-0.176
-719.806	-82.010	0.168	-0.056
-718.791	383.432	0.069	-0.144
-717.777	-139.802	0.215	0.023
-716.762	-200.000	0.005	-0.106
-715.748	800.000	-0.115	-0.490
-714.733	800.000	-0.047	-0.198
-713.718	-67.669	-0.275	-0.109
-712.704	-74.220	-0.309	0.113
-711.689	-70.492	-0.051	0.020
-710.675	196.479	-0.198	-0.306
-709.660	-90.138	-0.194	0.057
-708.645	-120.200	0.262	-0.045
-707.631	-9.992	0.086	0.058
-706.616	-200.000	0.017	-0.120
-705.602	-200.000	0.031	-0.292
-704.587	800.000	-0.066	-0.213
-703.572	294.305	-0.106	0.197
-702.558	-127.004	0.073	0.011
-701.543	-200.000	-0.017	-0.138
-700.529	53.610	0.306	-0.297
-699.514	-149.940	0.349	0.028
-698.499	-36.731	-0.223	0.121
-697.485	439.484	-0.121	0.269
-696.470	138.026	0.219	-0.291
-695.456	89.177	-0.220	0.249
-694.441	-57.898	-0.257	-0.114
-693.426	-64.608	0.080	-0.033
-692.412	167.326	-0.247	-0.355
-691.397	-52.838	0.150	0.070
-690.383	-53.367	-0.284	0.132
-689.368	-152.195	-0.105	-0.008
-688.354	-111.635	-0.208	-0.043
-687.339	-184.954	0.417	-0.007
-686.324	-200.000	0.082	0.366
-685.310	-118.184	-0.228	0.041
-684.295	43.604	-0.074	-0.069
-683.281	168.172	0.033	-0.048
-682.266	59.960	-0.100	-0.100
-681.251	-195.666	0.143	0.001
-680.237	-200.000	-0.085	-0.486
-679.222	32.165	0.453	-0.395
-678.208	201.422	-0.042	-0.065
-677.193	-149.589	-0.148	-0.012
-676.178	-94.323	0.419	-0.116
-675.164	-116.305	-0.257	-0.048
-674.149	680.405	0.074	-0.194
-673.135	169.946	-0.064	0.093
-672.120	70.453	-0.161	-0.168
-671.105	-62.220	-0.139	-0.059
-670.091	26.517	-0.126	0.106
-669.076	-100.880	0.128	-0.032
-668.062	90.119	-0.248	0.280
-667.047	388.833	0.190	0.397
-666.032	-60.366	-0.441	0.190
-665.018	-194.811	0.300	-0.002
-664.003	-124.727	-0.140	0.022
-662.989	-161.611	0.224	0.012
-661.974	61.242	-0.090	-0.090
-660.959	-188.845	-0.338	0.004
-659.945	-99.228	-0.354	-0.091
-658.930	800.000	0.028	-0.120
-657.916	123.889	-0.185	0.235
-656.901	364.096	0.149	0.304
-655.886	13.803	0.057	0.045
-654.872	800.000	-0.078	-0.340
-653.857	12.358	0.173	0.135
-652.843	-74.789	0.167	-0.061
-651.828	-138.305	0.221	0.025
-650.814	-200.000	0.061	-0.279
-649.799	-12.001	0.131	0.087
-648.784	140.252	0.277	-0.370
-647.770	477.673	0.086	0.197
-646.755	388.738	-0.074	-0.155
-645.741	122.185	-0.097	-0.122
-644.726	95.815	-0.098	0.113
-643.711	-133.784	0.182	-0.023
-642.697	800.000	0.085	0.326
-641.682	-168.489	-0.332	-0.013
-640.668	90.353	0.169	-0.191
-639.653	-2.398	-0.177	-0.126
-638.638	800.000	-0.061	-0.251
-637.624	-98.950	0.289	0.074
-636.609	-200.000	-0.060	0.297
-635.595	800.000	0.142	0.445
-634.580	64.355	0.144	0.146
-633.565	-7.482	-0.145	0.099
-632.551	-24.017	-0.247	-0.149
-631.536	646.894	-0.077	-0.198
-630.522	-62.603	-0.129	0.054
-629.507	-26.645	-0.294	0.174
-628.492	-65.304	0.128	0.052
-627.478	-200.000	-0.037	0.379
-626.463	-180.592	-0.285	-0.006
-625.449	-200.000	-0.027	0.244
-624.434	-200.000	-0.025	-0.151
-623.419	-95.845	-0.235	0.063
-622.405	-14.098	0.149	-0.097
-621.390	-91.486	0.171	0.049
-620.376	-180.123	-0.112	0.002
-619.361	800.000	-0.079	-0.308
-618.346	-200.000	-0.054	-0.272
-617.332	-193.854	0.220	-0.002
-616.317	-200.000	-0.074	-0.594
-615.303	-39.575	-0.231	0.122
-614.288	-100.941	-0.200	-0.050
-613.273	137.521	0.151	-0.200
-612.259	16.169	-0.163	0.130
-611.244	-117.092	-0.183	-0.034
-610.230	130.461	-0.127	-0.164
-609.215	-200.000	0.032	-0.204
-608.201	24.394	-0.103	-0.086
-607.186	-163.788	-0.427	0.020
-606.171	54.469	-0.198	-0.192
-605.157	328.009	0.033	0.064
-604.142	-200.000	-0.016	-0.075
-603.128	-8.514	0.117	0.079
-602.113	-200.000	0.018	-0.231
-601.098	-143.549	-0.184	0.018
-600.084	-31.848	0.127	0.072
-599.069	173.488	-0.075	-0.108
-598.055	-123.451	-0.100	0.016
-597.040	-130.348	0.267	0.037
-596.025	76.556	-0.186	0.199
-595.011	212.316	0.145	-0.230
-593.996	194.548	0.139	0.213
-592.982	-1.376	-0.144	-0.102
-591.967	12.951	-0.184	0.143
-590.952	246.300	-0.111	0.188
-589.938	800.000	-0.025	0.088
-588.923	-107.591	0.155	-0.034
-587.909	357.427	0.037	0.073
-586.894	-101.986	0.339	-0.082
-585.879	-9.773	0.031	0.021
-584.865	221.653	0.115	-0.186
-583.850	-200.000	-0.006	0.066
-582.836	800.000	-0.054	-0.227
-581.821	599.406	-0.026	-0.064
-580.806	183.790	0.135	0.201
-579.792	543.155	-0.099	0.239
-578.777	243.204	0.035	-0.060
-577.763	83.233	0.032	-0.035
-576.748	258.968	0.040	-0.069
-575.733	-34.848	-0.317	-0.175
-574.719	120.778	0.204	-0.255
-573.704	16.628	-0.332	0.264
-572.690	-132.915	-0.081	0.010
-571.675	58.214	0.013	0.012
-570.661	95.024	-0.046	-0.053
-569.646	-200.000	-0.033	0.174
-568.631	-200.000	0.017	-0.135
-567.617	96.039	-0.119	-0.137
-566.602	-59.301	-0.212	-0.092
-565.588	13.695	-0.231	-0.181
-564.573	-85.657	0.335	0.105
-563.558	125.659	0.035	0.044
-562.544	243.312	-0.128	-0.216
-561.529	-200.000	0.002	-0.180
-560.515	451.861	-0.035	0.079
-559.500	-111.173	0.302	0.062
-558.485	455.709	0.051	0.114
-557.471	48.673	-0.069	0.065
-556.456	-11.317	-0.052	-0.035
-555.442	115.351	0.128	-0.157
-554.427	-55.564	-0.386	0.174
-553.412	733.536	0.024	0.066
-552.398	-106.750	-0.269	0.060
-551.383	800.000	-0.056	0.172
-550.369	-47.476	-0.249	-0.122
-549.354	-200.000	-0.010	-0.118
-548.339	167.096	-0.072	-0.103
-547.325	-51.560	-0.113	0.053
-546.310	-62.275	-0.039	-0.016
-545.296	-13.677	0.212	-0.138
-544.281	35.646	-0.066	0.058
-543.266	33.894	-0.032	-0.028
-542.252	-100.399	0.046	0.011
-541.237	124.254	-0.093	-0.117
-540.223	491.851	0.107	-0.246
-539.208	-200.000	-0.028	-0.242
-538.193	222.875	-0.136	-0.220
-537.179	-144.178	0.183	-0.017
-536.164	75.760	0.283	0.301
-535.150	268.595	-0.232	-0.409
-534.135	800.000	0.092	-0.278
-533.121	-16.367	-0.159	-0.102
-532.106	-200.000	-0.010	0.155
-531.091	132.918	-0.228	-0.296
-530.077	-92.115	-0.135	0.038
-529.062	-79.172	-0.137	0.047
-528.048	89.783	0.129	0.145
-527.033	82.772	0.297	0.325
-526.018	56.743	-0.188	-0.184
-525.004	-49.516	0.340	-0.163
-523.989	189.212	-0.093	0.140
-522.975	510.652	-0.049	-0.116
-521.960	-161.352	0.178	-0.009
-520.945	230.701	-0.171	-0.281
-519.931	-147.465	-0.394	-0.033
-518.916	-163.959	-0.272	-0.013
-517.902	-105.623	0.300	-0.068
-516.887	-154.035	0.195	-0.013
-515.872	-6.292	-0.121	0.083
-514.858	39.743	-0.071	-0.064
-513.843	-72.763	-0.102	0.038
-512.829	-200.000	-0.043	-0.304
-511.814	108.459	0.199	0.239
-510.799	-6.785	-0.188	-0.129
-509.785	800.000	0.108	-0.451
-508.770	800.000	0.046	-0.174
-507.756	-118.678	0.012	-0.002
-506.741	135.737	-0.070	-0.091
-505.726	120.167	0.109	-0.136
-504.712	-113.107	0.082	0.016
-503.697	-200.000	0.015	0.109
-502.683	800.000	-0.062	-0.199
-501.668	-6.477	0.120	0.083
-500.653	25.018	0.181	0.151
-499.639	162.953	0.142	0.201
-498.624	52.358	-0.272	0.261
-497.610	261.087	-0.114	0.199
-496.595	-89.786	-0.413	-0.121
-495.581	-61.482	0.123	-0.052
-494.566	-200.000	0.005	0.114
-493.551	-120.679	-0.105	-0.018
-492.537	-189.679	0.192	-0.002
-491.522	-98.521	0.259	0.066
-490.508	-97.880	-0.382	0.099
-489.493	42.587	0.293	-0.268
-488.478	-200.000	-0.028	-0.337
-487.464	162.469	-0.141	-0.199
-486.449	800.000	0.123	0.386
-485.435	800.000	-0.049	0.173
-484.420	545.063	0.073	0.176
-483.405	-131.183	-0.267	0.036
-482.391	800.000	0.012	-0.044
-481.376	800.000	0.079	-0.328
-480.362	-200.000	-0.005	-0.332
-479.347	96.887	0.142	-0.163
-478.332	-161.516	0.379	0.020
-477.318	-85.027	0.120	-0.038
-476.303	-200.000	-0.010	0.164
-475.289	81.940	0.032	0.035
-474.274	371.261	-0.046	0.094
-473.259	-21.376	0.173	0.106
-472.245	-142.851	0.276	-0.027
-471.230	-148.981	-0.019	0.002
-470.216	23.661	-0.282	0.233
-469.201	-52.359	0.056	0.026
-468.186	-79.883	0.152	-0.051
-467.172	-124.705	-0.354	-0.055
-466.157	17.416	-0.288	-0.230
-465.143	16.479	-0.255	-0.203
-464.128	155.728	-0.140	0.194
-463.113	124.439	0.074	0.093
-462.099	-105.092	-0.207	-0.047
-461.084	-3.132	-0.190	-0.133
-460.070	800.000	-0.053	0.221
-459.055	-200.000	-0.051	-0.394
-458.040	185.475	0.144	-0.215
-457.026	-140.703	0.122	0.013
-456.011	10.005	0.164	0.125
-454.997	800.000	-0.046	-0.143
-453.982	800.000	-0.049	0.138
-452.968	416.296	-0.056	0.120
-451.953	149.224	0.068	-0.092
-450.938	128.391	0.086	0.110
-449.924	-20.327	0.128	0.079
-448.909	241.858	0.112	0.188
-447.895	-124.784	0.254	0.039
-446.880	-200.000	-0.010	0.173
-445.865	-166.222	-0.150	-0.006
-444.851	145.190	0.213	-0.286
-443.836	18.939	-0.159	-0.128
-442.822	728.029	-0.087	-0.232
-441.807	91.284	0.100	-0.113
-440.792	-166.289	-0.300	-0.013
-439.778	381.078	-0.006	-0.012
-438.763	15.170	0.138	0.108
-437.749	-4.461	-0.208	0.144
-436.734	-29.761	0.210	-0.120
-435.719	800.000	0.099	0.318
-434.705	-111.937	0.167	-0.034
-433.690	291.615	0.032	0.059
-432.676	-62.045	0.159	-0.066
-431.661	73.494	0.300	0.315
-430.646	246.009	0.015	0.026
-429.632	623.426	-0.139	-0.352
-428.617	32.370	0.179	-0.155
-427.603	357.588	-0.132	0.265
-426.588	-96.653	0.117	-0.031
-425.573	112.077	0.114	0.138
-424.559	187.234	-0.143	0.214
-423.544	800.000	-0.047	-0.154
-422.530	661.913	-0.130	0.336
-421.515	570.249	-0.088	-0.215
-420.500	-150.489	-0.354	-0.027
-419.486	-61.539	0.165	-0.069
-418.471	-33.047	0.499	0.277
-417.457	354.536	0.116	0.232
-416.442	-200.000	-0.022	-0.182
-415.428	-44.164	0.163	-0.082
-414.413	-200.000	0.007	0.129
-413.398	-2.070	-0.224	-0.157
-412.384	318.290	0.043	-0.081
-411.369	-119.119	-0.320	-0.056
-410.355	106.106	0.100	0.118
-409.340	800.000	-0.021	-0.079
-408.325	-113.464	0.205	-0.040
-407.311	-200.000	-0.019	0.126
-406.296	-172.642	-0.248	-0.008
-405.282	800.000	-0.019	0.054
-404.267	-200.000	0.008	0.060
-403.252	427.843	-0.077	-0.165
-402.238	-96.114	-0.290	0.077
-401.223	-10.949	-0.339	-0.224
-400.209	1.330	0.250	-0.180
-399.194	377.488	-0.167	0.341
-398.179	-155.079	0.103	0.007
-397.165	226.851	-0.091	-0.148
-396.150	-200.000	-0.040	-0.257
-395.136	-154.873	-0.298	-0.020
-394.121	800.000	0.093	-0.377
-393.106	33.282	-0.086	-0.074
-392.092	-73.206	-0.170	0.062
-391.077	651.476	-0.016	0.041
-390.063	-52.102	0.091	0.042
-389.048	182.493	0.141	-0.207
-388.033	800.000	0.055	0.195
-387.019	259.212	0.125	0.215
-386.004	-200.000	-0.022	-0.099
-384.990	-12.712	-0.327	-0.213
-383.975	105.055	0.128	0.151
-382.960	-161.113	0.139	0.007
-381.946	453.714	-0.158	0.349
-380.931	7.067	-0.156	0.117
-379.917	-111.215	-0.305	0.062
-378.902	-119.377	0.145	-0.025
-377.888	800.000	0.079	0.330
-376.873	-85.467	-0.016	-0.005
-375.858	131.715	0.139	-0.179
-374.844	61.220	0.208	-0.207
-373.829	-92.845	-0.132	0.037
-372.815	-139.171	0.191	-0.021
-371.800	-200.000	-0.031	0.283
-370.785	-200.000	-0.036	0.214
-369.771	800.000	-0.067	0.221
-368.756	37.816	0.148	-0.131
-367.742	-200.000	0.026	0.157
-366.727	800.000	0.033	0.105
-365.712	380.011	-0.273	-0.559
-364.698	56.618	0.158	0.153
-363.683	113.708	-0.278	-0.337
-362.669	-31.678	-0.383	-0.215
-361.654	-105.266	-0.183	0.042
-360.639	468.599	0.114	0.256
-359.625	-200.000	-0.017	0.370
-358.610	15.922	0.227	-0.179
-357.596	191.910	0.079	0.120
-356.581	45.677	0.081	0.075
-355.566	-200.000	-0.009	0.060
-354.552	-200.000	-0.007	0.145
-353.537	-125.948	0.167	0.025
-352.523	316.582	-0.051	0.096
-351.508	-64.691	-0.366	0.148
-350.493	-200.000	0.035	-0.371
-349.479	-89.452	0.186	0.055
-348.464	303.193	0.013	0.024
-347.450	-200.000	-0.006	-0.034
-346.435	-135.133	-0.125	-0.015
-345.420	-106.139	-0.588	0.132
-344.406	-188.242	0.174	-0.002
-343.391	114.416	-0.135	0.165
-342.377	74.675	-0.094	-0.098
-341.362	551.282	-0.055	0.132
-340.348	-114.469	0.260	-0.050
-339.333	34.674	-0.224	0.196
-338.318	45.790	0.306	0.282
-337.304	221.102	0.099	0.159
-336.289	-200.000	-0.023	0.408
-335.275	-92.763	-0.316	0.088
-334.260	-200.000	-0.003	-0.427
-333.245	-107.579	-0.092	-0.020
-332.231	601.879	0.129	-0.319
-331.216	250.611	0.087	0.147
-330.202	-105.575	0.128	0.029
-329.187	-21.587	0.155	-0.094
-328.172	-68.038	-0.212	-0.083
-327.158	348.744	-0.144	-0.283
-326.143	-200.000	-0.066	0.418
-325.129	70.917	-0.056	-0.058
-324.114	302.498	0.119	-0.221
-323.099	164.235	0.038	-0.053
-322.085	-31.337	0.282	0.159
-321.070	-100.701	0.141	-0.035
-320.056	-82.287	-0.140	-0.045
-319.041	-44.331	-0.384	-0.192
-318.026	93.054	0.042	-0.047
-317.012	-200.000	-0.035	0.196
-315.997	248.764	0.062	0.105
-314.983	-74.816	-0.040	-0.014
-313.968	-200.000	0.067	0.318
-312.953	800.000	0.093	-0.280
-311.939	-110.825	0.364	0.075
-310.924	197.108	0.072	0.110
-309.910	-127.015	0.170	-0.025
-308.895	-200.000	-0.015	-0.447
-307.880	-53.644	-0.174	0.079
-306.866	241.714	0.127	0.212
-305.851	-200.000	-0.023	0.354
-304.837	-200.000	0.026	-0.267
-303.822	-156.545	0.280	-0.017
-302.807	223.898	0.108	0.173
-301.793	347.595	0.122	0.239
-300.778	-200.000	0.002	0.054
-299.764	-200.000	-0.038	0.275
-298.749	-44.749	-0.255	-0.127
-297.735	79.775	-0.132	0.142
-296.720	321.769	0.018	0.033
-295.705	-56.727	0.258	-0.114
-294.691	-21.061	0.144	-0.088
-293.676	-200.000	-0.020	-0.092
-292.662	-200.000	0.002	0.265
-291.647	-156.259	-0.246	-0.015
-290.632	-200.000	-0.025	-0.114
-289.618	372.396	0.125	0.253
-288.603	-59.372	0.339	-0.145
-287.589	256.011	0.059	0.101
-286.574	-88.684	0.288	-0.086
-285.559	-4.654	-0.107	-0.074
-284.545	40.746	-0.100	-0.090
-283.530	-142.447	-0.410	0.040
-282.516	800.000	0.086	0.330
-281.501	-200.000	0.030	0.179
-280.486	800.000	0.038	0.139
-279.472	116.141	-0.097	0.119
-278.457	-200.000	-0.034	-0.227
-277.443	800.000	0.074	-0.279
-276.428	27.222	0.129	0.108
-275.413	-15.502	0.152	0.097
-274.399	800.000	0.010	0.035
-273.384	-76.677	0.228	0.080
-272.370	-30.637	0.111	-0.063
-271.355	-116.138	-0.196	0.036
-270.340	800.000	0.025	-0.069
-269.326	233.739	-0.019	-0.032
-268.311	-93.688	0.272	-0.075
-267.297	-200.000	0.071	0.424
-266.282	37.475	-0.095	-0.084
-265.267	-121.912	-0.143	-0.023
-264.253	35.121	-0.033	0.029
-263.238	255.651	-0.187	0.318
-262.224	-190.917	0.562	-0.006
-261.209	-105.593	0.193	-0.044
-260.195	-113.184	0.239	0.047
-259.180	-200.000	-0.029	0.155
-258.165	-126.497	0.128	-0.019
-257.151	8.513	0.112	-0.084
-256.136	-32.037	0.165	0.092
-255.122	-200.000	-0.052	-0.244
-254.107	19.908	-0.044	-0.036
-253.092	41.084	-0.116	-0.104
-252.078	-114.037	0.257	-0.050
-251.063	-63.250	0.257	-0.106
-250.049	221.066	0.179	-0.286
-249.034	18.427	0.139	0.110
-248.019	-176.400	-0.209	0.005
-247.005	510.866	-0.112	0.258
-245.990	-71.790	-0.190	-0.070
-244.976	538.608	-0.016	-0.039
-243.961	40.295	-0.114	0.102
-242.946	800.000	0.096	0.282
-241.932	-42.405	-0.460	-0.233
-240.917	9.263	-0.451	0.339
-239.903	-137.587	0.149	-0.017
-238.888	103.591	0.065	0.076
-237.873	-77.234	0.205	-0.071
-236.859	-15.942	0.179	-0.113
-235.844	-92.660	0.266	0.074
-234.830	505.334	-0.091	-0.209
-233.815	-77.691	-0.186	0.064
-232.800	747.049	-0.098	-0.263
-231.786	-200.000	-0.043	0.443
-230.771	99.563	0.135	-0.155
-229.757	-39.029	-0.482	0.252
-228.742	-83.340	0.215	-0.069
-227.727	800.000	0.104	0.336
-226.713	293.340	0.044	0.080
-225.698	-148.802	-0.158	-0.013
-224.684	800.000	-0.066	0.187
-223.669	190.294	-0.031	-0.047
-222.655	-20.991	0.282	0.172
-221.640	225.296	-0.117	-0.188
-220.625	-86.250	-0.123	0.038
-219.611	12.714	0.082	0.063
-218.596	777.606	-0.027	-0.073
-217.582	-72.211	-0.150	-0.055
-216.567	-153.322	-0.135	0.009
-215.552	800.000	0.021	0.059
-214.538	-59.701	0.274	0.117
-213.523	455.987	-0.173	-0.380
-212.509	800.000	0.037	0.129
-211.494	-200.000	-0.008	-0.204
-210.479	-27.157	-0.236	0.137
-209.465	138.808	0.085	0.110
-208.450	800.000	0.048	0.184
-207.436	-56.964	0.325	0.142
-206.421	233.080	0.234	-0.383
-205.406	121.396	0.140	-0.173
-204.392	-200.000	-0.008	-0.265
-203.377	9.059	-0.150	-0.112
-202.363	-31.365	-0.117	0.066
-201.348	-200.000	0.038	0.244
-200.333	-22.795	-0.244	-0.146
-199.319	465.893	0.145	-0.323
-198.304	156.204	-0.153	-0.209
-197.290	-116.170	0.507	0.093
-196.275	-4.572	0.067	0.046
-195.260	-16.713	-0.191	0.120
-194.246	170.927	0.095	0.135
-193.231	-63.389	-0.093	-0.038
-192.217	-200.000	0.004	-0.093
-191.202	323.352	0.125	-0.237
-190.187	-200.000	-0.027	-0.484
-189.173	-80.946	-0.103	-0.034
-188.158	-169.244	0.271	-0.010
-187.144	-171.007	-0.257	-0.009
-186.129	693.561	-0.093	0.243
-185.114	-107.858	0.331	-0.072
-184.100	-10.817	0.135	0.088
-183.085	-200.000	-0.016	-0.206
-182.071	-200.000	0.058	-0.255
-181.056	-158.805	-0.221	-0.013
-180.042	121.196	0.026	-0.032
-179.027	-1.232	-0.377	-0.264
-178.012	-109.238	0.263	-0.055
-176.998	51.512	0.075	-0.070
-175.983	-200.000	0.041	-0.205
-174.969	76.127	-0.174	0.182
-173.954	-43.293	0.215	-0.108
-172.939	800.000	-0.041	0.131
-171.925	-95.057	0.038	-0.010
-170.910	800.000	0.023	-0.091
-169.896	-41.962	0.228	0.116
-168.881	-147.987	0.021	0.002
-167.866	-43.860	0.442	0.221
-166.852	800.000	0.029	0.088
-165.837	656.922	-0.069	0.176
-164.823	-81.105	0.079	-0.026
-163.808	-157.428	0.218	-0.013
-162.793	-162.544	0.071	0.003
-161.779	-112.818	-0.204	0.040
-160.764	-200.000	0.083	0.478
-159.750	18.342	0.092	0.073
-158.735	224.151	-0.070	0.112
-157.720	800.000	0.069	0.252
-156.706	800.000	0.053	0.185
-155.691	228.365	0.099	-0.160
-154.677	115.767	0.209	0.254
-153.662	-39.284	-0.150	0.078
-152.647	-97.930	0.231	0.059
-151.633	31.430	0.224	0.191
-150.618	-44.097	0.036	-0.018
-149.604	53.426	-0.146	-0.139
-148.589	-200.000	-0.012	0.080
-147.574	-113.219	-0.312	0.061
-146.560	-200.000	0.007	0.128
-145.545	-165.760	0.108	0.005
-144.531	-125.972	0.171	0.026
-143.516	369.665	0.127	-0.254
-142.502	8.709	-0.008	-0.006
-141.487	-21.778	0.097	0.059
-140.472	31.621	0.033	-0.028
-139.458	-86.157	-0.204	0.062
-138.443	-200.000	-0.010	0.113
-137.429	800.000	-0.085	-0.257
-136.414	-200.000	-0.558	0.002
-135.399	-131.909	0.218	-0.028
-134.385	-35.097	0.357	-0.193
-133.370	-16.551	0.296	-0.186
-132.356	-44.810	0.175	-0.086
-131.341	-64.560	0.142	0.057
-130.326	-89.168	-0.216	0.063
-129.312	-100.019	0.292	-0.072
-128.297	-200.000	0.042	-0.215
-127.283	-112.821	-0.154	-0.030
-126.268	30.445	0.159	-0.135
-125.253	-117.429	0.191	-0.034
-124.239	-200.000	-0.006	-0.071
-123.224	-200.000	0.014	-0.183
-122.210	108.369	0.113	0.133
-121.195	800.000	0.019	-0.062
-120.180	-200.000	-0.011	-0.070
-119.166	-200.000	-0.034	-0.175
-118.151	-200.000	-0.026	-0.533
-117.137	51.908	-0.108	0.102
-116.122	-200.000	-0.016	-0.293
-115.107	-0.280	0.186	0.131
-114.093	800.000	-0.039	0.149
-113.078	92.223	0.103	-0.114
-112.064	-68.590	-0.094	-0.036
-111.049	-118.851	0.154	0.027
-110.034	-200.000	0.047	0.253
-109.020	117.084	0.155	0.188
-108.005	247.883	0.080	-0.134
-106.991	-58.099	0.146	0.063
-105.976	-200.000	0.041	0.332
-104.962	-41.957	0.205	0.104
-103.947	-84.534	-0.143	-0.045
-102.932	-93.590	0.281	-0.077
-101.918	-200.000	-0.021	0.182
-100.903	195.209	-0.099	0.149
-99.889	298.592	0.068	0.123
-98.874	91.320	0.088	-0.098
-97.859	-200.000	0.028	0.176
-96.845	17.566	0.403	-0.317
-95.830	531.446	0.074	-0.173
-94.816	-187.220	-0.188	0.003
-93.801	2.063	0.156	0.111
-92.786	-75.548	0.365	0.128
-91.772	1.332	-0.264	-0.188
-90.757	800.000	0.047	0.183
-89.743	-187.489	-0.119	-0.002
-88.728	330.053	0.077	0.147
-87.713	461.476	0.200	0.440
-86.699	-200.000	0.013	0.307
-85.684	-22.578	-0.206	0.123
-84.670	800.000	0.034	-0.096
-83.655	-200.000	-0.046	-0.345
-82.640	510.835	-0.089	-0.205
-81.626	-165.388	-0.152	0.007
-80.611	300.422	0.083	0.152
-79.597	-81.766	-0.104	0.034
-78.582	-14.188	-0.269	-0.171
-77.567	-67.460	0.153	0.059
-76.553	-137.025	0.172	0.019
-75.538	800.000	0.077	0.229
-74.524	28.153	0.155	-0.129
-73.509	181.557	-0.050	-0.073
-72.494	-200.000	-0.024	-0.141
-71.480	133.898	0.191	-0.244
-70.465	228.431	0.185	0.298
-69.451	99.436	0.107	-0.122
-68.436	27.961	-0.139	-0.116
-67.422	-72.765	-0.522	0.190
-66.407	-93.221	-0.206	0.057
-65.392	-34.249	0.155	-0.084
-64.378	282.222	0.194	0.344
-63.363	-156.934	0.126	-0.008
-62.349	800.000	0.107	-0.321
-61.334	141.933	-0.764	-1.000
-60.319	800.000	0.121	0.387
-59.305	64.631	-0.718	-0.715
-58.290	179.478	0.510	0.738
-57.276	338.065	0.918	1.764
-56.261	-200.000	88.036	493.997
-55.246	448.636	1403.572	3054.063
-54.232	145.871	2623.230	3473.183
-53.217	104.769	2344.022	2728.352
-52.203	45.514	1951.468	1779.295
-51.188	39.823	1738.304	1540.627
-50.173	37.212	1693.146	1480.664
-49.159	52.422	1737.386	1637.121
-48.144	55.965	1755.722	1681.698
-47.130	39.846	1714.308	1519.295
-46.115	36.744	1699.721	1482.591
-45.100	36.625	1695.160	1477.646
-44.086	36.655	1692.112	1475.163
-43.071	36.580	1689.523	1472.275
-42.057	36.469	1687.214	1469.355
-41.042	36.614	1684.808	1468.302
-40.027	36.587	1683.146	1466.592
-39.013	36.571	1681.497	1464.981
-37.998	36.567	1679.503	1463.154
-36.984	36.653	1677.849	1462.304
-35.969	36.761	1676.426	1461.825
-34.954	36.904	1674.457	1461.124
-33.940	36.732	1673.422	1458.871
-32.925	36.759	1671.585	1457.409
-31.911	36.748	1669.876	1455.779
-30.896	36.736	1667.932	1453.939
-29.881	36.750	1666.132	1452.419
-28.867	36.716	1664.863	1450.997
-27.852	36.812	1662.898	1449.946
-26.838	36.725	1661.947	1448.408
-25.823	36.737	1660.444	1447.131
-24.809	36.809	1659.025	1446.379
-23.794	36.746	1657.659	1444.655
-22.779	36.785	1656.206	1443.622
-21.765	36.837	1654.050	1442.073
-20.750	36.744	1652.496	1439.972
-19.736	36.785	1650.981	1438.900
-18.721	36.813	1649.536	1437.792
-17.706	36.826	1647.950	1436.446
-16.692	36.739	1646.813	1434.752
-15.677	36.710	1646.097	1433.858
-14.663	36.861	1644.176	1433.243
-13.648	36.840	1642.532	1431.602
-12.633	36.811	1640.662	1429.696
-11.619	36.733	1639.963	1428.457
-10.604	36.832	1637.769	1427.221
-9.590	36.782	1636.439	1425.635
-8.575	36.791	1634.837	1424.246
-7.560	36.705	1633.794	1422.651
-6.546	36.727	1633.014	1422.077
-5.531	36.711	1632.242	1421.234
-4.517	36.695	1630.783	1419.784
-3.502	36.807	1629.142	1419.126
-2.487	36.768	1628.114	1417.889
-1.473	36.787	1617.022	1408.309
-0.458	34.585	1598.370	1376.154
0.556	31.340	1598.726	1346.047
1.571	29.034	1623.646	1350.012
2.586	28.522	1637.969	1358.005
3.600	24.591	1581.205	1282.673
4.615	13.228	1462.342	1110.246
5.629	3.614	1391.762	994.846
6.644	1.999	1382.662	977.907
7.659	1.880	1381.357	976.134
8.673	1.918	1379.783	975.182
9.688	1.723	1378.186	972.721
10.702	1.486	1375.608	969.303
11.717	5.125	1382.861	997.623
12.731	15.966	1403.584	1082.498
13.746	24.581	1418.423	1149.536
14.761	26.228	1420.847	1162.006
15.775	26.485	1420.894	1163.597
16.790	26.674	1419.912	1163.905
17.804	26.712	1419.328	1163.568
18.819	26.900	1419.283	1164.635
19.834	27.019	1418.638	1164.765
20.848	26.993	1417.808	1163.813
21.863	27.085	1416.703	1163.394
22.877	27.098	1415.653	1162.509
23.892	27.061	1415.006	1161.638
24.907	27.038	1414.313	1160.821
25.921	26.990	1413.531	1159.767
26.936	27.112	1412.034	1159.219
27.950	27.115	1410.890	1158.196
28.965	27.031	1409.911	1156.752
29.980	26.963	1408.798	1155.306
30.994	27.057	1407.186	1154.480
32.009	27.085	1406.008	1153.589
33.023	27.017	1405.141	1152.339
34.038	27.065	1404.315	1151.867
35.053	27.129	1403.020	1151.107
36.067	27.013	1402.320	1149.696
37.082	27.077	1401.187	1149.075
38.096	27.064	1399.696	1147.668
39.111	27.034	1399.613	1147.305
40.126	27.052	1398.618	1146.502
41.140	26.938	1398.579	1145.648
42.155	26.974	1398.203	1145.468
43.169	27.067	1397.681	1145.525
44.184	27.050	1397.219	1144.937
45.199	27.003	1397.230	1144.549
46.213	26.980	1396.833	1143.980
47.228	27.047	1395.470	1143.179
48.242	27.003	1394.969	1142.394
49.257	27.060	1393.100	1141.118
50.271	27.118	1391.435	1140.019
51.286	26.945	1390.130	1137.766
52.301	26.984	1388.907	1136.905
53.315	26.995	1388.251	1136.337
54.330	26.980	1387.901	1135.857
55.344	26.914	1386.491	1134.189
56.359	27.001	1385.110	1133.507
57.374	26.903	1384.466	1132.267
58.388	27.039	1383.584	1132.289
59.403	26.975	1383.354	1131.607
60.417	26.998	1382.705	1131.116
61.432	27.093	1381.406	1130.546
62.447	27.005	1380.907	1129.489
63.461	27.107	1379.310	1128.714
64.476	27.033	1378.627	1127.600
65.490	26.957	1377.674	1126.251
66.505	27.070	1375.720	1125.249
67.520	27.073	1374.568	1124.230
68.534	27.102	1373.696	1123.596
69.549	27.028	1372.800	1122.302
70.563	27.101	1371.755	1121.805
71.578	27.081	1371.170	1121.098
72.593	27.105	1369.939	1120.142
73.607	27.146	1369.306	1119.776
74.622	27.152	1368.653	1119.182
75.636	27.017	1367.752	1117.516
76.651	27.081	1366.825	1117.056
77.666	26.987	1366.776	1116.340
78.680	27.058	1366.196	1116.198
79.695	27.027	1365.186	1115.084
80.709	26.996	1364.682	1114.388
81.724	27.129	1363.293	1113.968
82.739	27.116	1362.905	1113.475
83.753	26.987	1361.983	1111.829
84.768	27.091	1360.459	1111.128
85.782	27.053	1359.433	1109.959
86.797	27.015	1358.455	1108.829
87.812	27.111	1357.247	1108.329
88.826	27.034	1355.860	1106.628
89.841	27.133	1355.080	1106.500
90.855	27.054	1354.182	1105.183
91.870	27.114	1352.892	1104.398
92.884	27.048	1352.752	1103.786
93.899	27.078	1351.913	1103.187
94.914	27.157	1350.864	1102.713
95.928	27.045	1350.118	1101.328
96.943	27.097	1349.265	1100.851
97.957	27.095	1348.860	1100.406
98.972	27.114	1347.555	1099.359
99.987	27.050	1346.934	1098.372
101.001	27.117	1345.674	1097.649
102.016	27.008	1344.989	1096.337
103.030	27.074	1344.010	1095.841
104.045	27.122	1343.325	1095.471
105.060	27.160	1342.529	1094.957
106.074	27.117	1341.559	1093.811
107.089	27.071	1340.293	1092.403
108.103	27.093	1339.471	1091.770
109.118	27.139	1338.214	1090.926
110.133	27.163	1336.953	1089.943
111.147	27.205	1335.802	1089.163
112.162	27.087	1335.229	1087.894
113.176	27.142	1333.936	1087.070
114.191	27.225	1333.005	1086.711
115.206	27.161	1331.831	1085.275
116.220	27.119	1330.935	1084.201
117.235	27.123	1330.203	1083.534
118.249	27.176	1329.329	1083.038
119.264	27.245	1328.027	1082.291
120.279	27.162	1327.749	1081.474
121.293	27.179	1327.193	1081.027
122.308	27.203	1326.224	1080.287
123.322	27.196	1325.259	1079.362
124.337	27.236	1324.338	1078.758
125.352	27.186	1323.593	1077.756
126.366	27.148	1322.559	1076.597
127.381	27.199	1321.767	1076.156
128.395	27.243	1321.004	1075.700
129.410	27.235	1320.176	1074.886
130.424	27.287	1319.503	1074.546
131.439	27.217	1318.668	1073.360
132.454	27.300	1317.523	1072.824
133.468	27.191	1317.045	1071.697
134.483	27.206	1316.841	1071.522
135.497	27.205	1316.202	1070.899
136.512	27.286	1314.520	1069.918
137.527	27.240	1313.606	1068.805
138.541	27.162	1312.453	1067.314
139.556	27.320	1310.702	1066.725
140.570	27.146	1310.488	1065.437
141.585	27.188	1309.409	1064.708
142.600	27.127	1308.607	1063.605
143.614	27.186	1307.536	1062.987
144.629	27.113	1306.913	1061.962
145.643	27.064	1305.605	1060.515
146.658	27.081	1305.009	1060.040
147.673	27.165	1303.421	1059.146
148.687	27.181	1302.529	1058.417
149.702	27.080	1301.765	1057.117
150.716	27.109	1300.523	1056.184
151.731	27.231	1299.205	1055.728
152.746	27.147	1298.534	1054.599
153.760	27.183	1297.280	1053.701
154.775	27.264	1296.167	1053.173
155.789	27.149	1294.936	1051.409
156.804	27.220	1294.338	1051.243
157.819	27.123	1293.573	1049.970
158.833	27.281	1292.629	1050.023
159.848	27.254	1291.950	1049.220
160.862	27.267	1291.341	1048.711
161.877	27.247	1290.545	1047.854
162.892	27.181	1289.727	1046.716
163.906	27.265	1289.115	1046.613
164.921	27.219	1288.475	1045.735
165.935	27.261	1287.475	1045.073
166.950	27.223	1287.063	1044.426
167.964	27.380	1286.194	1044.533
168.979	27.289	1285.805	1043.600
169.994	27.314	1285.134	1043.106
171.008	27.384	1283.944	1042.447
172.023	27.265	1283.411	1041.243
173.037	27.295	1282.813	1040.838
174.052	27.329	1282.151	1040.404
175.067	27.412	1280.917	1039.781
176.081	27.260	1280.305	1038.324
177.096	27.367	1279.822	1038.452
178.110	27.350	1278.547	1037.229
179.125	27.328	1277.952	1036.531
180.140	27.299	1276.716	1035.269
181.154	27.305	1275.696	1034.384
182.169	27.349	1274.659	1033.705
183.183	27.342	1273.281	1032.454
184.198	27.469	1271.902	1031.963
185.213	27.430	1271.382	1031.234
186.227	27.362	1270.956	1030.412
187.242	27.354	1269.772	1029.314
188.256	27.413	1268.918	1028.861
189.271	27.458	1268.053	1028.324
190.286	27.309	1267.401	1026.867
191.300	27.361	1266.869	1026.634
192.315	27.387	1266.169	1026.125
193.329	27.416	1265.701	1025.815
194.344	27.394	1265.285	1025.264
195.359	27.429	1264.904	1025.062
196.373	27.365	1264.366	1024.178
197.388	27.360	1263.974	1023.739
198.402	27.428	1263.310	1023.492
199.417	27.460	1262.521	1022.946
200.432	27.475	1262.153	1022.639
201.446	27.332	1261.935	1021.571
202.461	27.361	1260.802	1020.724
203.475	27.383	1260.446	1020.469
204.490	27.324	1259.542	1019.316
205.504	27.399	1258.941	1019.162
206.519	27.518	1257.028	1018.184
207.534	27.427	1256.417	1017.095
208.548	27.280	1255.683	1015.589
209.563	27.530	1254.893	1016.257
210.577	27.558	1253.893	1015.510
211.592	27.477	1253.066	1014.301
212.607	27.499	1252.590	1013.945
213.621	27.508	1251.655	1013.148
214.636	27.476	1250.754	1012.156
215.650	27.568	1249.951	1011.925
216.665	27.559	1248.971	1010.995
217.680	27.450	1248.261	1009.724
218.694	27.616	1246.996	1009.530
219.709	27.569	1246.375	1008.677
220.723	27.464	1246.216	1007.882
221.738	27.402	1245.579	1006.931
222.753	27.474	1244.262	1006.176
223.767	27.420	1244.107	1005.663
224.782	27.579	1243.910	1006.293
225.796	27.669	1242.735	1005.750
226.811	27.638	1242.334	1005.165
227.826	27.705	1241.662	1004.901
228.840	27.672	1241.134	1004.206
229.855	27.597	1240.265	1003.002
230.869	27.598	1239.358	1002.183
231.884	27.624	1239.105	1002.031
232.899	27.450	1238.622	1000.598
233.913	27.589	1238.070	1000.825
234.928	27.653	1236.998	1000.224
235.942	27.632	1236.776	999.840
236.957	27.700	1235.800	999.334
237.972	27.653	1235.200	998.502
238.986	27.574	1234.300	997.257
240.001	27.674	1233.955	997.437
241.015	27.736	1233.328	997.181
242.030	27.805	1232.088	996.466
243.045	27.872	1231.148	995.983
244.059	27.721	1230.978	994.934
245.074	27.750	1230.182	994.361
246.088	27.800	1229.424	993.930
247.103	27.918	1228.166	993.467
248.117	27.816	1227.373	992.183
249.132	27.688	1227.018	991.115
250.147	27.859	1225.854	991.016
251.161	27.894	1225.082	990.492
252.176	27.905	1224.419	989.928
253.190	27.872	1223.798	989.157
254.205	27.861	1223.385	988.679
255.220	27.758	1223.217	987.898
256.234	27.848	1222.665	987.851
257.249	27.847	1221.614	986.910
258.263	27.885	1221.008	986.536
259.278	27.778	1220.940	985.815
260.293	27.958	1219.640	985.650
261.307	27.868	1219.536	984.995
262.322	27.872	1219.031	984.521
263.336	27.955	1217.981	984.034
264.351	27.957	1217.342	983.440
265.366	27.891	1217.218	982.901
266.380	27.943	1216.278	982.331
267.395	27.927	1215.437	981.478
268.409	27.980	1214.733	981.109
269.424	28.000	1214.365	980.831
270.439	27.876	1214.267	980.002
271.453	27.940	1213.008	979.242
272.468	27.934	1212.234	978.498
273.482	27.929	1211.160	977.518
274.497	27.989	1211.033	977.651
275.512	28.079	1210.592	977.689
276.526	28.044	1209.737	976.722
277.541	27.956	1209.084	975.643
278.555	28.077	1208.331	975.592
279.570	27.946	1208.066	974.593
280.585	28.089	1207.009	974.414
281.599	28.069	1206.228	973.592
282.614	27.955	1205.667	972.449
283.628	28.050	1204.290	971.758
284.643	28.211	1203.372	971.783
285.657	28.103	1202.859	970.712
286.672	28.085	1202.100	969.915
287.687	28.083	1201.235	969.124
288.701	28.090	1200.822	968.740
289.716	28.047	1200.393	968.080
290.730	28.161	1199.296	967.715
291.745	28.208	1198.233	967.019
292.760	28.247	1197.590	966.618
293.774	28.143	1197.273	965.730
294.789	28.291	1196.655	965.925
295.803	28.103	1196.235	964.511
296.818	28.247	1195.089	964.259
297.833	28.312	1194.516	964.056
298.847	28.160	1194.163	962.884
299.862	28.364	1193.154	963.058
300.876	28.182	1192.803	961.732
301.891	28.403	1191.602	961.840
302.906	28.438	1191.221	961.628
303.920	28.345	1191.157	961.005
304.935	28.326	1190.189	960.038
305.949	28.243	1189.734	959.152
306.964	28.330	1188.997	958.930
307.979	28.366	1188.323	958.487
308.993	28.395	1187.727	958.078
310.008	28.385	1186.573	957.010
311.022	28.362	1185.918	956.273
312.037	28.483	1185.172	956.222
313.052	28.312	1184.485	954.691
314.066	28.432	1183.394	954.351
315.081	28.394	1182.807	953.596
316.095	28.456	1182.035	953.212
317.110	28.374	1181.785	952.499
318.125	28.538	1180.845	952.508
319.139	28.412	1180.482	951.476
320.154	28.435	1179.582	950.789
321.168	28.506	1179.041	950.632
322.183	28.489	1178.887	950.340
323.197	28.264	1178.654	948.901
324.212	28.463	1177.435	948.867
325.227	28.439	1177.322	948.569
326.241	28.622	1176.610	948.855
327.256	28.594	1175.524	947.750
328.270	28.456	1174.870	946.426
329.285	28.518	1173.829	945.822
330.300	28.557	1173.250	945.474
331.314	28.461	1172.708	944.458
332.329	28.580	1171.636	944.127
333.343	28.621	1170.976	943.723
334.358	28.651	1170.166	943.138
335.373	28.697	1169.537	942.785
336.387	28.591	1169.165	941.857
337.402	28.709	1168.146	941.558
338.416	28.724	1167.294	940.864
339.431	28.739	1166.972	940.597
340.446	28.752	1166.262	940.012
341.460	28.808	1165.503	939.601
342.475	28.759	1164.841	938.734
343.489	28.619	1164.227	937.439
344.504	28.741	1163.230	937.177
345.519	28.738	1162.307	936.333
346.533	28.867	1161.388	936.168
347.548	28.746	1160.754	934.962
348.562	28.737	1159.990	934.215
349.577	28.799	1159.275	933.874
350.592	28.672	1158.759	932.728
351.606	28.652	1157.825	931.794
352.621	28.874	1157.117	932.266
353.635	28.807	1156.634	931.456
354.650	28.871	1155.827	931.050
355.665	28.820	1155.383	930.350
356.679	28.901	1154.515	929.978
357.694	28.863	1154.383	929.596
358.708	28.817	1153.417	928.506
359.723	28.830	1152.761	927.961
360.738	28.858	1152.071	927.463
361.752	28.824	1151.776	926.973
362.767	28.883	1151.178	926.705
363.781	28.964	1150.394	926.400
364.796	28.908	1149.777	925.540
365.810	28.918	1149.231	925.070
366.825	28.888	1148.811	924.500
367.840	29.071	1148.281	924.911
368.854	28.970	1147.795	923.928
369.869	29.005	1146.783	923.209
370.883	29.126	1145.512	922.710
371.898	29.055	1145.141	921.973
372.913	29.067	1144.909	921.765
373.927	29.086	1144.204	921.210
374.942	29.064	1143.904	920.780
375.956	29.080	1143.111	920.141
376.971	29.155	1142.596	920.016
377.986	29.006	1142.288	918.946
379.000	29.176	1141.552	919.122
380.015	29.137	1141.128	918.501
381.029	29.125	1140.525	917.874
382.044	29.130	1139.981	917.383
383.059	29.217	1139.220	917.121
384.073	29.186	1138.238	916.094
385.088	29.419	1137.152	916.298
386.102	29.287	1136.189	914.785
387.117	29.169	1135.480	913.550
388.132	29.186	1134.914	913.097
389.146	29.249	1134.137	912.702
390.161	29.239	1133.678	912.206
391.175	29.150	1133.161	911.268
392.190	29.156	1132.707	910.849
393.205	29.153	1132.067	910.241
394.219	29.202	1131.149	909.662
395.234	29.385	1130.250	909.761
396.248	29.488	1128.762	908.989
397.263	29.525	1128.201	908.642
398.278	29.433	1127.946	907.905
399.292	29.374	1127.651	907.293
400.307	29.418	1126.806	906.751
401.321	29.557	1125.988	906.695
402.336	29.268	1125.849	905.083
403.350	29.314	1124.950	904.507
404.365	29.386	1124.038	904.047
405.380	29.530	1123.376	904.141
406.394	29.521	1122.505	903.314
407.409	29.457	1121.934	902.461
408.423	29.518	1121.083	901.996
409.438	29.587	1120.544	901.818
410.453	29.509	1120.021	900.939
411.467	29.476	1119.551	900.318
412.482	29.558	1118.580	899.859
413.496	29.510	1118.092	899.152
414.511	29.555	1117.172	898.554
415.526	29.594	1116.732	898.306
416.540	29.610	1116.188	897.868
417.555	29.582	1116.000	897.500
418.569	29.613	1115.197	896.928
419.584	29.610	1115.034	896.700
420.599	29.626	1114.628	896.374
421.613	96.706	1316.623	1425.194
422.628	90.760	1346.044	1425.320
