DTS Sentinel unit serial number:	SN413079Multiplexer serial number:	ORYXHardware model number:	OX4-SRSoftware version number:	ORYX F/W v4.00 Oryx Data Collector v3.7.2.0data status	okinstallation	princeton_trtdifferential loss correction	single-endedforward channel	channel 2reverse channel	N/Adate	2019/09/13time	20:11:34forward acquisition time	60.00reverse acquisition time	0.00gamma	496.2192k internal	0.2333k external	0.2333temperature offset calibration	1.0141default loss term (dB/km)	0.3790temperature slope calibration	1.0000multiplexer offset coefficient	1.0000multiplexer slope coefficient	1.0000fibre end	0.00T internal ref (°C)	29.50T ext. ref 1 (°C)	3.30T ext. ref 2 (°C)	23.85length (m)	temperature (°C)	Stokes	anti-Stokes-747.200	51.362	-0.288	-0.275
-746.185	-58.279	-0.054	-0.024
-745.171	-167.413	-0.325	0.013
-744.156	-107.131	-0.224	-0.050
-743.142	63.782	0.128	-0.130
-742.127	220.744	0.136	0.220
-741.112	-113.286	-0.373	0.074
-740.098	74.737	-0.040	-0.043
-739.083	39.189	-0.259	0.233
-738.069	28.559	-0.187	0.159
-737.054	424.446	0.116	-0.250
-736.039	111.933	-0.138	-0.167
-735.025	124.560	0.086	0.109
-734.010	800.000	-0.041	-0.165
-732.996	-92.685	-0.486	-0.137
-731.981	41.854	0.274	-0.250
-730.966	800.000	-0.123	-0.405
-729.952	232.616	-0.026	-0.042
-728.937	-82.361	-0.264	-0.086
-727.923	-120.700	-0.262	0.044
-726.908	-200.000	0.036	-0.365
-725.894	800.000	0.020	-0.085
-724.879	800.000	-0.028	-0.101
-723.864	150.783	-0.115	0.157
-722.850	-17.994	-0.516	0.325
-721.835	-94.630	-0.080	0.022
-720.821	-47.372	0.133	0.065
-719.806	25.330	-0.191	-0.159
-718.791	-80.787	-0.296	0.099
-717.777	571.743	-0.148	-0.362
-716.762	30.633	-0.190	0.163
-715.748	20.587	0.059	0.048
-714.733	207.284	-0.102	-0.160
-713.718	282.223	-0.063	-0.113
-712.704	-33.960	-0.175	-0.096
-711.689	118.165	-0.221	0.274
-710.675	166.997	-0.043	-0.061
-709.660	-200.000	-0.025	0.184
-708.645	-150.240	0.155	0.012
-707.631	230.093	-0.089	0.147
-706.616	342.027	0.091	0.179
-705.602	9.350	-0.165	-0.125
-704.587	51.521	0.102	0.097
-703.572	-74.390	0.169	-0.061
-702.558	-68.716	0.196	-0.076
-701.543	-84.901	-0.172	-0.054
-700.529	-200.000	-0.071	-0.405
-699.514	-200.000	0.001	-0.348
-698.499	-128.014	0.176	0.025
-697.485	138.972	-0.087	0.114
-696.470	2.109	0.222	-0.161
-695.456	-25.221	-0.475	-0.282
-694.441	-122.855	0.099	-0.016
-693.426	-168.483	-0.100	-0.004
-692.412	-95.165	-0.289	-0.078
-691.397	-200.000	0.004	0.023
-690.383	-200.000	-0.023	0.248
-689.368	-200.000	-0.037	0.174
-688.354	-103.732	-0.159	-0.037
-687.339	-85.906	0.097	-0.030
-686.324	-200.000	0.011	-0.329
-685.310	-200.000	-0.001	-0.034
-684.295	30.992	-0.375	-0.323
-683.281	-124.020	-0.229	0.036
-682.266	105.936	-0.150	0.178
-681.251	-200.000	0.002	-0.033
-680.237	181.024	-0.119	-0.176
-679.222	-76.461	-0.305	0.108
-678.208	-142.403	-0.322	-0.032
-677.193	-200.000	-0.081	-0.406
-676.178	-200.000	-0.064	-0.418
-675.164	-200.000	-0.084	-0.402
-674.149	30.650	0.371	0.318
-673.135	151.338	0.028	0.038
-672.120	-200.000	-0.015	-0.402
-671.105	159.045	-0.142	0.198
-670.091	-147.362	0.325	0.028
-669.076	800.000	-0.030	0.119
-668.062	51.731	0.109	-0.104
-667.047	-98.996	-0.130	0.033
-666.032	-67.080	-0.095	-0.037
-665.018	-200.000	0.009	0.088
-664.003	-39.115	0.141	-0.074
-662.989	800.000	-0.025	0.077
-661.974	-167.812	-0.220	-0.009
-660.959	-200.000	-0.002	-0.231
-659.945	7.085	0.277	0.207
-658.930	800.000	0.069	-0.262
-657.916	21.335	-0.097	-0.079
-656.901	-53.488	0.052	-0.024
-655.886	116.333	-0.247	0.304
-654.872	800.000	-0.032	0.100
-653.857	-42.498	0.392	-0.200
-652.843	-200.000	0.006	-0.059
-651.828	95.902	0.029	-0.033
-650.814	149.808	-0.060	0.082
-649.799	-200.000	0.023	-0.430
-648.784	-97.340	-0.093	-0.024
-647.770	-64.509	-0.455	-0.185
-646.755	-43.113	0.196	-0.099
-645.741	686.743	-0.067	-0.176
-644.726	190.171	-0.239	0.359
-643.711	-200.000	-0.003	0.098
-642.697	-167.179	-0.172	0.007
-641.682	-200.000	-0.003	-0.114
-640.668	-159.194	-0.150	-0.008
-639.653	-147.314	-0.214	-0.018
-638.638	22.808	-0.120	-0.098
-637.624	-200.000	0.044	-0.217
-636.609	-62.669	-0.129	-0.054
-635.595	-122.806	-0.436	-0.071
-634.580	-32.731	0.167	-0.093
-633.565	800.000	-0.058	-0.200
-632.551	-65.876	-0.304	-0.122
-631.536	270.387	0.222	0.391
-630.522	-200.000	-0.004	0.155
-629.507	107.329	-0.177	-0.211
-628.492	800.000	-0.084	0.256
-627.478	34.984	0.204	-0.179
-626.463	-86.341	0.237	-0.073
-625.449	-130.377	-0.171	0.023
-624.434	-114.481	0.109	0.021
-623.419	-117.776	-0.093	0.017
-622.405	-155.415	-0.126	-0.008
-621.390	-200.000	-0.043	0.253
-620.376	96.707	0.189	-0.217
-619.361	-78.397	0.245	-0.084
-618.346	-200.000	0.020	0.177
-617.332	59.358	0.150	0.148
-616.317	47.679	-0.199	0.186
-615.303	115.705	0.203	-0.248
-614.288	-36.219	-0.478	-0.258
-613.273	-134.961	0.050	0.006
-612.259	-200.000	0.038	0.355
-611.244	-198.567	0.070	-0.000
-610.230	-75.522	0.145	-0.052
-609.215	-200.000	-0.020	-0.354
-608.201	-200.000	0.003	0.071
-607.186	-72.857	-0.209	0.077
-606.171	200.648	-0.153	0.235
-605.157	-79.803	-0.227	-0.076
-604.142	602.813	-0.102	-0.253
-603.128	-78.886	-0.181	-0.062
-602.113	-200.000	0.090	0.504
-601.098	320.902	-0.070	0.133
-600.084	220.065	0.181	-0.290
-599.069	800.000	-0.072	-0.285
-598.055	-50.836	-0.206	0.097
-597.040	-200.000	0.005	-0.035
-596.025	-6.966	0.013	-0.009
-595.011	800.000	0.046	0.186
-593.996	-187.935	-0.264	0.003
-592.982	800.000	0.091	-0.337
-591.967	-138.326	0.269	0.030
-590.952	800.000	0.057	0.166
-589.938	123.075	-0.144	-0.180
-588.923	147.281	0.078	0.104
-587.909	-77.421	-0.054	0.019
-586.894	218.367	-0.110	0.175
-585.879	-107.959	-0.266	-0.058
-584.865	-31.561	-0.127	0.072
-583.850	-158.630	0.292	0.017
-582.836	-25.310	-0.112	-0.066
-581.821	-200.000	-0.029	0.211
-580.806	-106.572	-0.196	-0.044
-579.792	-26.013	0.197	0.116
-578.777	34.958	0.293	-0.256
-577.763	54.254	-0.109	-0.105
-576.748	-200.000	0.040	0.272
-575.733	-200.000	0.046	0.362
-574.719	-177.343	-0.275	-0.007
-573.704	-17.919	-0.281	-0.176
-572.690	201.629	-0.061	-0.093
-571.675	-156.261	-0.310	0.019
-570.661	-173.756	0.221	0.007
-569.646	-26.357	0.182	-0.107
-568.631	-69.977	0.082	0.031
-567.617	-146.993	-0.092	-0.008
-566.602	-19.085	0.218	0.135
-565.588	-171.892	-0.032	0.001
-564.573	-101.376	0.052	-0.013
-563.558	800.000	-0.071	0.302
-562.544	21.983	0.101	0.082
-561.529	624.326	0.077	0.195
-560.515	3.921	0.155	0.113
-559.500	401.130	0.094	0.197
-558.485	-28.163	-0.166	-0.096
-557.471	-200.000	0.013	0.071
-556.456	-200.000	0.035	-0.258
-555.442	150.697	0.161	-0.218
-554.427	-29.585	0.115	-0.065
-553.412	74.845	0.045	0.047
-552.398	523.810	-0.046	-0.107
-551.383	800.000	-0.049	0.160
-550.369	-146.944	0.051	-0.004
-549.354	381.486	-0.086	-0.177
-548.339	-106.841	0.183	-0.041
-547.325	-80.620	0.206	-0.068
-546.310	147.950	-0.200	-0.269
-545.296	0.530	0.361	0.257
-544.281	43.898	0.220	0.201
-543.266	37.777	-0.271	-0.240
-542.252	-163.043	0.159	-0.008
-541.237	75.253	-0.151	0.158
-540.223	66.851	-0.097	0.098
-539.208	-103.216	-0.263	-0.062
-538.193	-38.142	0.168	0.089
-537.179	-82.087	-0.380	0.124
-536.164	232.849	-0.132	-0.217
-535.150	21.446	-0.139	-0.113
-534.135	123.154	-0.234	0.292
-533.121	402.361	-0.050	-0.105
-532.106	800.000	0.066	0.196
-531.091	47.240	-0.270	-0.251
-530.077	103.922	-0.076	-0.088
-529.062	-64.399	0.270	-0.109
-528.048	-200.000	-0.026	-0.224
-527.033	48.962	0.122	-0.115
-526.018	483.281	0.046	0.104
-525.004	-87.895	-0.400	-0.120
-523.989	38.497	0.099	-0.088
-522.975	-64.451	-0.053	-0.022
-521.960	-200.000	-0.042	-0.210
-520.945	-200.000	-0.021	0.195
-519.931	800.000	0.037	0.131
-518.916	-200.000	0.018	-0.109
-517.902	-182.242	0.268	-0.005
-516.887	102.725	0.190	-0.222
-515.872	73.129	-0.086	0.089
-514.858	-28.823	-0.348	0.199
-513.843	-200.000	0.039	0.211
-512.829	435.289	0.130	-0.281
-511.814	564.510	-0.118	-0.285
-510.799	-17.478	-0.337	-0.211
-509.785	-78.969	0.132	0.045
-508.770	195.280	0.042	-0.063
-507.756	800.000	0.046	-0.169
-506.741	78.496	-0.050	0.053
-505.726	800.000	0.093	0.360
-504.712	110.590	0.203	0.243
-503.697	266.563	-0.075	-0.131
-502.683	167.830	-0.119	-0.168
-501.668	-200.000	-0.037	-0.309
-500.653	48.380	-0.308	-0.287
-499.639	-182.216	0.385	0.007
-498.624	-138.409	0.200	0.022
-497.610	-110.547	0.172	-0.035
-496.595	-200.000	-0.087	0.440
-495.581	163.633	-0.136	-0.190
-494.566	71.774	-0.176	-0.182
-493.551	269.839	0.130	-0.228
-492.537	-165.432	0.177	-0.008
-491.522	109.900	-0.205	0.245
-490.508	-200.000	-0.003	-0.028
-489.493	16.238	0.321	0.252
-488.478	-95.657	0.168	-0.045
-487.464	-116.490	-0.273	0.050
-486.449	-137.322	-0.221	0.025
-485.435	-63.100	0.176	0.072
-484.420	57.732	-0.196	0.191
-483.405	-4.488	0.335	-0.231
-482.391	-114.483	-0.074	0.014
-481.376	-147.996	-0.101	0.008
-480.362	-18.220	0.146	-0.091
-479.347	-58.315	-0.078	-0.034
-478.332	-200.000	0.031	-0.247
-477.318	-200.000	0.014	-0.176
-476.303	35.172	0.105	0.092
-475.289	403.488	0.083	0.174
-474.274	-200.000	0.010	-0.277
-473.259	800.000	0.065	-0.205
-472.245	-47.839	-0.202	-0.097
-471.230	-85.383	-0.139	-0.043
-470.216	533.711	0.053	0.124
-469.201	-72.873	-0.161	-0.059
-468.186	800.000	0.066	-0.214
-467.172	375.210	-0.092	0.187
-466.157	33.169	0.257	-0.221
-465.143	42.097	-0.270	-0.244
-464.128	26.871	0.255	-0.212
-463.113	-200.000	-0.053	0.243
-462.099	309.430	0.076	0.142
-461.084	16.702	0.114	0.089
-460.070	-54.094	0.169	0.076
-459.055	795.449	0.066	-0.181
-458.040	-26.843	-0.060	0.035
-457.026	70.042	0.048	0.050
-456.011	800.000	0.042	-0.123
-454.997	-62.897	0.299	-0.123
-453.982	-67.698	0.161	-0.063
-452.968	800.000	-0.033	0.123
-451.953	-25.868	0.023	0.013
-450.938	-23.834	-0.125	-0.074
-449.924	124.687	-0.215	0.269
-448.909	3.061	0.207	-0.149
-447.895	-24.122	0.339	-0.202
-446.880	-200.000	0.004	0.075
-445.865	-37.208	-0.187	0.100
-444.851	-58.604	-0.315	0.136
-443.836	194.579	0.058	-0.087
-442.822	-200.000	-0.030	0.272
-441.807	489.365	0.178	-0.404
-440.792	800.000	-0.021	-0.088
-439.778	293.022	-0.105	0.190
-438.763	-200.000	-0.010	-0.133
-437.749	-62.240	0.371	0.154
-436.734	-200.000	-0.037	-0.320
-435.719	131.055	0.056	-0.071
-434.705	9.374	-0.045	0.034
-433.690	302.096	0.129	-0.237
-432.676	-37.386	-0.128	0.068
-431.661	-108.054	0.298	0.064
-430.646	-133.571	0.048	-0.006
-429.632	251.495	-0.075	-0.127
-428.617	-56.239	0.335	-0.148
-427.603	-200.000	-0.038	-0.365
-426.588	-148.067	-0.280	0.023
-425.573	-52.222	-0.336	0.155
-424.559	-200.000	0.012	0.059
-423.544	-21.549	-0.067	-0.040
-422.530	-161.689	0.127	0.006
-421.515	800.000	0.053	-0.184
-420.500	-183.991	-0.181	0.003
-419.486	-200.000	0.002	-0.131
-418.471	800.000	-0.019	-0.070
-417.457	248.547	0.091	-0.152
-416.442	-200.000	-0.018	0.081
-415.428	138.339	0.201	0.261
-414.413	-55.304	-0.244	0.109
-413.398	-34.088	-0.129	-0.071
-412.384	-149.243	0.216	-0.017
-411.369	458.240	-0.098	0.216
-410.355	243.390	0.039	0.065
-409.340	-200.000	-0.039	0.259
-408.325	-77.069	-0.208	0.072
-407.311	37.767	-0.153	0.135
-406.296	-28.223	-0.199	-0.114
-405.282	-62.131	0.215	0.089
-404.267	53.344	-0.138	-0.131
-403.252	-89.941	-0.260	0.075
-402.238	-10.170	-0.089	0.059
-401.223	800.000	0.043	0.153
-400.209	-97.975	0.201	0.051
-399.194	274.912	0.093	-0.164
-398.179	-70.039	0.261	-0.099
-397.165	102.793	0.101	-0.118
-396.150	-71.465	-0.108	-0.040
-395.136	121.433	-0.123	-0.152
-394.121	72.754	0.109	-0.112
-393.106	230.816	-0.063	-0.103
-392.092	30.803	-0.154	0.131
-391.077	43.538	0.090	-0.082
-390.063	71.628	-0.149	-0.154
-389.048	76.539	0.203	0.214
-388.033	-121.520	-0.331	-0.055
-387.019	-96.956	0.344	-0.089
-386.004	202.567	0.101	-0.154
-384.990	-32.970	-0.107	0.059
-383.975	657.685	-0.091	-0.233
-382.960	-112.369	0.165	-0.033
-381.946	391.067	0.122	0.251
-380.931	202.985	-0.215	0.329
-379.917	375.225	0.048	0.098
-378.902	-200.000	-0.007	0.120
-377.888	675.018	-0.028	-0.071
-376.873	-69.588	0.216	-0.082
-375.858	21.521	-0.229	-0.185
-374.844	-200.000	0.028	0.186
-373.829	-92.335	0.098	-0.027
-372.815	800.000	0.036	0.141
-371.800	134.262	0.139	-0.179
-370.785	-130.510	0.136	0.018
-369.771	-5.154	0.246	-0.168
-368.756	-90.455	-0.043	0.012
-367.742	-200.000	-0.005	-0.186
-366.727	22.188	-0.316	0.256
-365.712	580.382	-0.034	-0.083
-364.698	-151.149	0.309	-0.023
-363.683	44.132	0.202	0.183
-362.669	316.610	0.231	-0.432
-361.654	-84.596	-0.261	-0.082
-360.639	-143.204	-0.198	-0.019
-359.625	178.544	-0.022	0.032
-358.610	301.361	-0.068	0.125
-357.596	-80.098	0.514	0.171
-356.581	-10.988	0.282	-0.184
-355.566	306.985	0.105	-0.194
-354.552	531.262	0.095	0.222
-353.537	-200.000	0.021	-0.199
-352.523	210.314	0.212	0.329
-351.508	86.398	-0.172	0.188
-350.493	696.084	0.058	0.151
-349.479	73.048	-0.069	0.072
-348.464	-135.499	-0.225	-0.027
-347.450	101.034	-0.139	0.160
-346.435	-10.830	-0.212	0.139
-345.420	-56.448	-0.314	-0.138
-344.406	-132.506	-0.239	0.030
-343.391	-14.297	0.237	0.151
-342.377	645.266	0.062	0.156
-341.362	-77.997	0.065	0.022
-340.348	332.423	0.061	0.116
-339.333	79.205	0.131	0.139
-338.318	-163.303	-0.385	-0.018
-337.304	-104.981	0.040	-0.009
-336.289	76.641	-0.062	0.065
-335.275	685.278	0.043	-0.110
-334.260	249.267	0.073	0.122
-333.245	-149.513	0.166	-0.013
-332.231	-189.693	0.105	0.001
-331.216	136.135	-0.147	-0.189
-330.202	183.033	0.135	-0.197
-329.187	31.453	-0.288	0.245
-328.172	-6.685	-0.250	-0.168
-327.158	316.398	0.164	-0.307
-326.143	-93.061	0.062	-0.017
-325.129	-46.461	0.280	-0.136
-324.114	-32.645	0.134	-0.074
-323.099	182.555	-0.238	0.348
-322.085	-123.148	0.041	0.007
-321.070	25.169	0.092	0.075
-320.056	-128.012	-0.122	-0.017
-319.041	-34.971	-0.233	-0.126
-318.026	-200.000	-0.029	-0.145
-317.012	-200.000	-0.042	0.200
-315.997	431.202	-0.064	0.138
-314.983	-108.564	0.270	0.057
-313.968	-200.000	-0.039	0.174
-312.953	-169.401	-0.226	0.008
-311.939	-200.000	-0.006	0.167
-310.924	-200.000	0.006	0.513
-309.910	-91.122	0.204	0.058
-308.895	109.577	0.079	0.094
-307.880	-73.091	-0.170	-0.062
-306.866	-200.000	0.042	-0.222
-305.851	800.000	0.083	-0.232
-304.837	-54.655	0.434	-0.194
-303.822	126.717	-0.163	-0.204
-302.807	367.353	-0.132	0.264
-301.793	294.294	-0.094	0.170
-300.778	238.850	0.050	0.082
-299.764	284.992	0.128	-0.227
-298.749	800.000	0.111	-0.358
-297.735	-22.321	-0.157	0.094
-296.720	-200.000	0.006	0.310
-295.705	37.499	0.114	-0.100
-294.691	-7.493	-0.220	-0.147
-293.676	800.000	-0.072	0.206
-292.662	-200.000	0.357	0.000
-291.647	-200.000	-0.034	0.151
-290.632	754.990	0.080	0.213
-289.618	-34.799	-0.166	0.090
-288.603	-78.900	-0.288	0.097
-287.589	92.734	0.144	0.160
-286.574	800.000	0.099	-0.305
-285.559	-165.688	0.163	-0.007
-284.545	336.538	-0.361	0.693
-283.530	119.541	0.158	0.194
-282.516	-158.269	-0.120	-0.007
-281.501	-200.000	0.020	-0.201
-280.486	-160.768	-0.257	-0.013
-279.472	37.179	0.145	0.127
-278.457	-67.298	-0.119	0.046
-277.443	-101.211	-0.234	-0.056
-276.428	-92.392	-0.132	0.037
-275.413	-200.000	0.018	0.112
-274.399	800.000	-0.051	0.220
-273.384	800.000	-0.012	-0.039
-272.370	-97.630	0.215	0.055
-271.355	754.262	-0.093	-0.249
-270.340	-200.000	-0.016	0.142
-269.326	-156.393	-0.257	0.016
-268.311	-167.609	0.142	-0.006
-267.297	-60.445	-0.136	-0.057
-266.282	-3.425	-0.136	0.093
-265.267	-200.000	0.056	0.423
-264.253	-73.500	-0.398	0.143
-263.238	800.000	0.006	-0.015
-262.224	800.000	0.075	0.244
-261.209	-200.000	-0.043	-0.270
-260.195	215.014	-0.157	0.245
-259.180	528.491	0.068	-0.157
-258.165	-48.626	0.066	0.031
-257.151	-200.000	-0.008	-0.503
-256.136	73.886	-0.118	-0.122
-255.122	-184.552	0.185	-0.003
-254.107	656.953	-0.169	0.428
-253.092	-95.894	-0.233	-0.061
-252.078	76.649	0.083	-0.087
-251.063	301.741	-0.121	-0.221
-250.049	-88.207	-0.321	-0.095
-249.034	800.000	0.067	0.222
-248.019	33.325	0.143	-0.123
-247.005	-23.916	0.184	-0.108
-245.990	-84.114	0.192	-0.060
-244.976	196.947	0.034	-0.051
-243.961	-192.094	0.068	0.001
-242.946	-60.301	0.458	0.192
-241.932	800.000	0.064	0.184
-240.917	-200.000	0.024	-0.143
-239.903	-74.796	-0.342	0.121
-238.888	-200.000	-0.013	-0.179
-237.873	-186.955	0.145	0.002
-236.859	-200.000	0.046	0.318
-235.844	111.810	-0.168	0.200
-234.830	388.477	0.046	-0.094
-233.815	-64.326	-0.172	-0.069
-232.800	-200.000	0.005	-0.111
-231.786	-200.000	0.004	-0.102
-230.771	93.388	0.099	0.111
-229.757	-155.052	-0.387	-0.025
-228.742	-200.000	0.031	0.483
-227.727	-118.148	0.202	0.035
-226.713	-56.336	-0.194	0.085
-225.698	-5.185	-0.306	0.207
-224.684	113.110	0.050	-0.059
-223.669	117.930	0.200	0.243
-222.655	800.000	-0.062	-0.234
-221.640	-200.000	-0.002	-0.247
-220.625	143.437	0.235	-0.308
-219.611	-62.639	-0.210	0.086
-218.596	6.122	0.215	0.157
-217.582	-176.131	-0.227	-0.006
-216.567	-27.732	-0.140	-0.080
-215.552	-55.164	0.167	-0.074
-214.538	253.876	0.039	-0.066
-213.523	-123.830	0.081	0.013
-212.509	-200.000	0.070	-0.401
-211.494	152.322	-0.138	0.186
-210.479	800.000	0.125	0.344
-209.465	800.000	-0.031	-0.086
-208.450	800.000	-0.045	0.125
-207.436	-98.915	-0.164	0.041
-206.421	-123.866	-0.084	-0.013
-205.406	-153.300	0.356	-0.024
-204.392	-22.736	0.418	-0.248
-203.377	81.619	-0.092	-0.098
-202.363	-157.662	0.204	-0.012
-201.348	-183.027	0.333	0.006
-200.333	-200.000	-0.020	0.214
-199.319	179.852	0.296	0.427
-198.304	800.000	0.085	0.260
-197.290	-92.575	0.190	-0.053
-196.275	-43.866	0.275	0.136
-195.260	-200.000	-0.027	-0.339
-194.246	-200.000	-0.104	-0.000
-193.231	534.679	-0.124	-0.289
-192.217	56.245	-0.078	-0.075
-191.202	-55.419	-0.264	0.116
-190.187	-58.597	-0.116	-0.049
-189.173	-200.000	-0.016	0.205
-188.158	-200.000	0.008	-0.249
-187.144	-121.502	0.231	0.038
-186.129	69.136	-0.037	0.037
-185.114	-85.762	-0.116	0.035
-184.100	-34.508	0.369	-0.199
-183.085	-96.226	-0.111	-0.029
-182.071	-89.105	-0.194	-0.056
-181.056	-80.418	0.304	-0.100
-180.042	32.237	-0.081	0.068
-179.027	-200.000	0.028	0.269
-178.012	109.596	-0.229	-0.270
-176.998	800.000	0.100	-0.341
-175.983	-157.524	0.443	0.026
-174.969	-59.113	-0.362	0.154
-173.954	-200.000	-0.090	0.404
-172.939	20.414	0.239	0.190
-171.925	-21.974	-0.181	0.108
-170.910	-171.821	0.150	-0.005
-169.896	86.872	-0.209	0.227
-168.881	0.263	0.074	0.052
-167.866	86.961	-0.229	0.249
-166.852	58.785	0.224	0.217
-165.837	40.336	0.259	-0.229
-164.823	800.000	0.072	-0.261
-163.808	286.493	-0.046	-0.081
-162.793	200.786	-0.091	0.138
-161.779	-200.000	-0.009	-0.367
-160.764	55.001	-0.090	0.085
-159.750	-142.439	0.114	0.011
-158.735	-9.370	0.255	-0.168
-157.720	219.428	0.041	0.064
-156.706	-11.319	0.199	-0.129
-155.691	-62.708	-0.035	0.014
-154.677	21.890	0.211	0.169
-153.662	783.580	-0.037	-0.101
-152.647	-128.866	0.429	-0.059
-151.633	-85.166	0.242	0.074
-150.618	96.859	0.005	0.006
-149.604	-45.873	0.225	0.109
-148.589	225.888	0.147	-0.234
-147.574	800.000	-0.040	-0.168
-146.560	-38.990	-0.302	0.156
-145.545	-189.593	0.419	0.005
-144.531	84.376	-0.139	-0.149
-143.516	154.034	0.244	0.329
-142.502	800.000	-0.105	0.374
-141.487	257.872	-0.052	0.089
-140.472	108.347	0.086	-0.101
-139.458	-48.025	-0.121	0.057
-138.443	-200.000	0.004	-0.251
-137.429	-90.597	-0.215	0.061
-136.414	-93.970	0.110	-0.030
-135.399	800.000	0.065	-0.211
-134.385	800.000	-0.104	-0.286
-133.370	10.703	-0.232	-0.173
-132.356	-27.789	-0.118	-0.067
-131.341	-1.380	-0.220	-0.152
-130.326	142.692	-0.152	-0.199
-129.312	-200.000	-0.009	0.221
-128.297	309.401	-0.109	-0.201
-127.283	385.346	0.076	0.155
-126.268	-166.347	-0.044	0.002
-125.253	116.254	-0.339	-0.408
-124.239	800.000	0.013	0.035
-123.224	800.000	0.059	0.204
-122.210	14.344	0.070	0.053
-121.195	-38.795	0.511	0.265
-120.180	800.000	-0.073	0.263
-119.166	290.737	0.126	-0.225
-118.151	23.059	0.198	-0.159
-117.137	410.999	-0.147	-0.305
-116.122	478.069	0.174	-0.387
-115.107	-159.587	0.158	0.009
-114.093	144.546	0.179	-0.235
-113.078	-58.568	-0.223	0.095
-112.064	-45.254	-0.285	0.139
-111.049	425.601	0.087	0.185
-110.034	-12.049	-0.017	0.011
-109.020	719.240	-0.044	-0.116
-108.005	-76.183	0.390	-0.135
-106.991	-191.484	0.090	-0.001
-105.976	-22.697	-0.293	0.174
-104.962	-110.457	-0.268	-0.055
-103.947	-200.000	-0.003	0.088
-102.932	33.773	-0.076	-0.065
-101.918	714.054	-0.146	-0.380
-100.903	-21.205	0.076	-0.046
-99.889	-20.425	0.256	0.154
-98.874	-48.395	-0.218	-0.103
-97.859	-62.177	-0.248	-0.101
-96.845	-58.994	0.554	0.235
-95.830	772.457	-0.118	-0.316
-94.816	18.663	0.172	-0.135
-93.801	-134.173	0.220	0.027
-92.786	166.618	-0.139	0.193
-91.772	26.346	0.154	0.126
-90.757	800.000	0.107	-0.370
-89.743	-48.011	-0.355	-0.168
-88.728	23.670	-0.185	0.149
-87.713	-200.000	-0.009	0.190
-86.699	34.579	0.166	-0.142
-85.684	-200.000	-0.004	-0.242
-84.670	57.087	0.243	-0.232
-83.655	151.881	0.072	0.096
-82.640	74.967	-0.248	-0.256
-81.626	800.000	0.157	-0.638
-80.611	22.432	0.145	0.116
-79.597	139.741	0.134	0.174
-78.582	119.692	-0.185	0.225
-77.567	-54.005	-0.352	0.157
-76.553	-82.827	0.102	0.032
-75.538	122.857	-0.165	-0.202
-74.524	91.201	0.126	-0.138
-73.509	-200.000	0.168	-0.000
-72.494	-2.237	0.280	0.192
-71.480	112.768	0.082	0.098
-70.465	89.358	0.416	-0.454
-69.451	-98.364	-0.126	0.032
-68.436	-200.000	0.020	0.236
-67.422	-200.000	0.024	0.184
-66.407	-91.068	0.271	0.076
-65.392	-172.154	-0.251	0.008
-64.378	-112.875	0.308	-0.060
-63.363	-200.000	0.038	-0.284
-62.349	-200.000	-0.055	-0.434
-61.334	32.258	-1.310	-1.107
-60.319	159.870	0.365	0.497
-59.305	-200.000	-0.210	-0.942
-58.290	800.000	0.473	1.345
-57.276	338.825	0.794	1.513
-56.261	-200.000	110.077	624.370
-55.246	524.758	1502.433	3459.564
-54.232	177.715	2694.372	3843.906
-53.217	105.521	2282.459	2639.808
-52.203	38.660	1894.197	1654.031
-51.188	32.802	1684.616	1426.825
-50.173	30.190	1641.570	1371.026
-49.159	49.299	1697.581	1562.078
-48.144	49.689	1712.036	1578.244
-47.130	32.212	1669.175	1409.099
-46.115	29.530	1654.491	1376.682
-45.100	29.452	1649.607	1371.978
-44.086	29.321	1647.170	1368.929
-43.071	29.377	1644.058	1366.701
-42.057	29.337	1642.042	1364.674
-41.042	29.351	1639.906	1362.949
-40.027	29.409	1638.000	1361.738
-39.013	29.371	1635.658	1359.461
-37.998	29.339	1634.633	1358.319
-36.984	29.344	1633.054	1356.988
-35.969	29.477	1631.749	1356.826
-34.954	29.557	1629.480	1355.477
-33.940	29.604	1627.905	1354.452
-32.925	29.524	1626.751	1352.854
-31.911	29.519	1624.944	1351.265
-30.896	29.485	1623.023	1349.365
-29.881	29.487	1621.278	1347.869
-28.867	29.505	1619.778	1346.705
-27.852	29.417	1618.990	1345.351
-26.838	29.425	1617.383	1344.020
-25.823	29.480	1616.101	1343.307
-24.809	29.512	1614.397	1342.069
-23.794	29.570	1612.809	1341.116
-22.779	29.472	1611.736	1339.457
-21.765	29.459	1610.199	1338.033
-20.750	29.554	1608.259	1337.058
-19.736	29.584	1606.556	1335.802
-18.721	29.583	1605.409	1334.791
-17.706	29.538	1604.325	1333.513
-16.692	29.551	1602.431	1331.975
-15.677	29.531	1601.139	1330.707
-14.663	29.608	1599.716	1330.027
-13.648	29.615	1598.565	1329.068
-12.633	29.467	1597.143	1326.770
-11.619	29.480	1595.543	1325.480
-10.604	29.531	1593.723	1324.282
-9.590	29.501	1592.920	1323.348
-8.575	29.588	1591.249	1322.524
-7.560	29.529	1590.540	1321.467
-6.546	29.548	1589.321	1320.538
-5.531	29.490	1588.176	1319.117
-4.517	29.496	1587.203	1318.298
-3.502	29.470	1585.778	1316.874
-2.487	29.608	1583.824	1316.185
-1.473	29.109	1572.219	1302.961
-0.458	26.134	1551.996	1265.332
0.556	23.186	1552.432	1229.538
1.571	20.600	1575.666	1229.571
2.586	20.080	1587.579	1235.052
3.600	17.469	1533.633	1174.977
4.615	10.370	1426.843	1047.319
5.629	4.333	1366.185	965.241
6.644	3.308	1359.182	953.864
7.659	3.264	1357.676	952.449
8.673	3.265	1357.018	951.909
9.688	3.353	1355.048	950.988
10.702	3.217	1352.498	948.275
11.717	6.063	1356.939	968.877
12.731	13.625	1371.096	1025.867
13.746	19.898	1380.720	1071.950
14.761	20.907	1381.651	1078.827
15.775	20.212	1379.502	1072.759
16.790	19.249	1377.053	1064.813
17.804	18.346	1375.226	1057.729
18.819	18.043	1373.528	1054.462
19.834	17.946	1372.556	1053.022
20.848	17.690	1371.871	1050.826
21.863	17.557	1370.313	1048.720
22.877	17.473	1368.997	1047.105
23.892	17.491	1367.846	1046.244
24.907	17.309	1367.827	1045.019
25.921	17.445	1366.227	1044.536
26.936	17.383	1365.490	1043.500
27.950	17.460	1364.709	1043.280
28.965	17.516	1363.466	1042.585
29.980	17.676	1362.235	1042.526
30.994	17.771	1361.390	1042.372
32.009	17.777	1360.414	1041.570
33.023	17.797	1358.992	1040.505
34.038	17.637	1357.577	1038.359
35.053	17.562	1356.747	1037.174
36.067	17.618	1355.114	1036.177
37.082	17.693	1354.141	1035.792
38.096	17.640	1353.608	1034.971
39.111	17.742	1352.613	1034.742
40.126	17.583	1351.704	1032.992
41.140	17.193	1351.513	1030.387
42.155	17.229	1350.178	1029.498
43.169	17.097	1349.723	1028.261
44.184	17.074	1349.759	1028.057
45.199	17.248	1349.306	1028.670
46.213	17.330	1348.479	1028.447
47.228	17.471	1348.125	1028.941
48.242	17.547	1346.994	1028.445
49.257	17.534	1345.001	1026.754
50.271	17.473	1343.877	1025.439
51.286	17.500	1342.664	1024.583
52.301	17.622	1341.107	1024.037
53.315	17.403	1340.486	1022.155
54.330	17.311	1339.000	1020.379
55.344	17.338	1337.663	1019.435
56.359	17.369	1336.552	1018.683
57.374	17.162	1336.133	1017.032
58.388	17.092	1335.484	1016.031
59.403	17.118	1334.843	1015.609
60.417	17.163	1333.590	1014.834
61.432	17.250	1332.804	1014.664
62.447	16.956	1331.805	1012.063
63.461	16.919	1331.012	1011.150
64.476	16.958	1329.977	1010.505
65.490	16.998	1328.469	1009.508
66.505	17.097	1326.900	1008.813
67.520	17.005	1326.030	1007.518
68.534	17.152	1324.466	1007.112
69.549	17.045	1323.835	1005.910
70.563	17.005	1322.784	1004.786
71.578	16.925	1321.624	1003.344
72.593	16.875	1320.548	1002.142
73.607	16.871	1319.920	1001.552
74.622	16.771	1319.579	1000.613
75.636	16.854	1318.725	1000.365
76.651	16.850	1318.424	1000.028
77.666	16.905	1317.870	999.841
78.680	16.994	1317.026	999.638
79.695	17.017	1316.375	999.193
80.709	17.125	1315.876	999.359
81.724	17.188	1315.264	999.178
82.739	17.258	1314.098	998.613
83.753	17.444	1313.319	999.028
84.768	17.597	1312.369	999.112
85.782	17.662	1311.628	998.838
86.797	17.596	1310.413	997.439
87.812	17.465	1309.050	995.550
88.826	17.418	1307.896	994.311
89.841	17.503	1307.293	994.258
90.855	17.749	1305.751	994.433
91.870	17.713	1305.755	994.135
92.884	17.739	1304.524	993.265
93.899	17.693	1303.752	992.319
94.914	17.781	1302.885	992.085
95.928	17.733	1302.652	991.539
96.943	17.683	1301.159	990.027
97.957	17.593	1300.498	988.911
98.972	17.666	1298.861	988.005
99.987	17.632	1298.013	987.076
101.001	17.641	1296.980	986.250
102.016	17.550	1296.792	985.496
103.030	17.620	1295.756	985.029
104.045	17.583	1294.768	983.974
105.060	17.508	1293.287	982.329
106.074	17.353	1291.727	980.162
107.089	17.080	1290.194	977.340
108.103	16.940	1289.196	975.693
109.118	17.085	1287.630	975.255
110.133	17.010	1286.464	973.858
111.147	17.066	1284.838	972.860
112.162	17.196	1283.797	972.729
113.176	17.345	1282.665	972.640
114.191	17.258	1282.290	971.770
115.206	17.296	1280.436	970.497
116.220	17.283	1279.359	969.518
117.235	17.276	1278.138	968.469
118.249	17.187	1276.810	966.869
119.264	17.172	1275.776	965.918
120.279	17.135	1275.008	965.038
121.293	17.050	1273.994	963.703
122.308	16.959	1272.890	962.265
123.322	16.931	1271.832	961.227
124.337	16.915	1271.164	960.543
125.352	16.973	1269.753	959.720
126.366	17.001	1268.540	958.875
127.381	16.968	1267.509	957.828
128.395	17.000	1266.546	957.195
129.410	16.908	1265.838	956.054
130.424	17.048	1264.996	956.127
131.439	17.092	1264.217	955.698
132.454	17.184	1263.496	955.586
133.468	17.137	1262.303	954.333
134.483	17.185	1261.846	954.178
135.497	17.165	1260.680	953.099
136.512	17.199	1259.950	952.654
137.527	17.244	1258.471	951.704
138.541	17.302	1256.902	950.755
139.556	17.375	1255.363	949.916
140.570	17.419	1254.703	949.576
141.585	17.556	1253.615	949.433
142.600	17.658	1252.433	949.024
143.614	17.684	1251.579	948.434
144.629	17.659	1250.863	947.670
145.643	17.760	1249.113	946.820
146.658	17.611	1248.006	945.071
147.673	17.438	1246.603	942.966
148.687	17.359	1245.177	941.370
149.702	17.232	1243.871	939.592
150.716	17.153	1242.769	938.243
151.731	17.322	1241.383	938.047
152.746	17.400	1240.124	937.444
153.760	17.384	1239.520	936.811
154.775	17.426	1238.897	936.493
155.789	17.525	1237.656	936.016
156.804	17.459	1236.919	935.012
157.819	17.469	1235.769	934.116
158.833	17.623	1234.912	934.228
159.848	17.752	1233.828	934.034
160.862	17.689	1233.120	933.067
161.877	17.384	1231.924	930.412
162.892	17.373	1230.217	928.980
163.906	17.328	1229.543	928.146
164.921	17.350	1229.169	927.903
165.935	17.454	1228.300	927.732
166.950	17.447	1227.665	927.130
167.964	17.486	1226.464	926.353
168.979	17.431	1225.722	925.413
169.994	17.490	1225.016	925.114
171.008	17.467	1224.579	924.581
172.023	17.626	1223.922	924.866
173.037	17.688	1222.995	924.420
174.052	17.665	1222.557	923.884
175.067	17.426	1220.747	921.140
176.081	17.426	1219.558	920.161
177.096	17.398	1218.789	919.349
178.110	17.445	1217.721	918.711
179.125	17.406	1216.533	917.528
180.140	17.488	1215.769	917.308
181.154	17.567	1214.234	916.497
182.169	17.688	1213.406	916.442
183.183	17.734	1212.499	915.921
184.198	17.703	1211.565	914.970
185.213	17.684	1210.298	913.829
186.227	17.950	1208.838	914.071
187.242	17.820	1208.461	913.008
188.256	17.973	1207.269	912.845
189.271	17.922	1206.347	911.796
190.286	17.691	1205.524	909.860
191.300	17.471	1204.075	907.509
192.315	17.412	1202.944	906.266
193.329	17.409	1202.458	905.801
194.344	17.435	1202.265	905.717
195.359	17.544	1201.752	905.828
196.373	17.677	1200.998	905.886
197.388	17.859	1200.602	906.477
198.402	17.895	1200.560	906.554
199.417	17.976	1200.165	906.607
200.432	18.222	1198.969	906.928
201.446	18.282	1198.177	906.564
202.461	18.335	1197.307	906.107
203.475	18.186	1196.459	904.595
204.490	17.983	1195.188	902.482
205.504	17.930	1193.770	901.051
206.519	17.914	1191.986	899.543
207.534	17.822	1191.490	898.606
208.548	17.878	1190.357	897.964
209.563	18.005	1189.523	897.922
210.577	17.934	1188.886	896.992
211.592	18.014	1188.113	896.747
212.607	18.107	1187.354	896.586
213.621	18.220	1185.984	896.063
214.636	18.214	1184.912	895.142
215.650	18.116	1184.537	894.267
216.665	18.218	1183.768	894.142
217.680	18.293	1182.787	893.711
218.694	18.279	1182.249	893.155
219.709	18.291	1181.571	892.623
220.723	18.282	1180.755	891.881
221.738	18.189	1180.263	890.945
222.753	18.176	1179.227	890.019
223.767	18.284	1178.470	889.931
224.782	18.403	1178.052	890.155
225.796	18.463	1177.594	890.043
226.811	18.463	1176.358	889.026
227.826	18.300	1175.708	887.612
228.840	18.368	1174.600	887.049
229.855	18.316	1174.021	886.263
230.869	18.232	1173.070	885.036
231.884	18.337	1172.385	884.983
232.899	18.099	1171.577	883.067
233.913	18.030	1170.954	882.158
234.928	17.966	1170.546	881.446
235.942	18.024	1169.449	880.838
236.957	18.096	1168.279	880.249
237.972	18.103	1167.933	879.950
238.986	18.120	1167.360	879.526
240.001	18.150	1166.925	879.274
241.015	18.140	1165.563	878.117
242.030	18.138	1165.176	877.741
243.045	18.374	1164.185	878.127
244.059	18.388	1163.268	877.428
245.074	18.348	1162.678	876.698
246.088	18.466	1162.312	876.949
247.103	18.556	1161.333	876.595
248.117	18.628	1160.882	876.543
249.132	18.820	1159.740	876.585
250.147	18.930	1159.557	876.929
251.161	19.067	1158.984	877.118
252.176	19.092	1158.017	876.437
253.190	19.024	1157.738	875.801
254.205	19.110	1156.814	875.460
255.220	19.082	1156.939	875.338
256.234	19.150	1155.520	874.531
257.249	19.054	1155.097	873.647
258.263	19.106	1154.524	873.399
259.278	19.045	1153.642	872.343
260.293	19.032	1153.239	871.898
261.307	19.218	1152.883	872.493
262.322	19.197	1151.427	871.206
263.336	19.195	1151.032	870.820
264.351	19.260	1150.931	870.995
265.366	19.320	1149.720	870.307
266.380	19.367	1149.136	870.024
267.395	19.126	1148.299	868.096
268.409	19.143	1147.330	867.375
269.424	19.087	1146.875	866.672
270.439	19.227	1145.907	866.568
271.453	19.071	1145.470	865.376
272.468	18.939	1144.802	864.133
273.482	19.031	1143.884	863.822
274.497	18.965	1143.458	863.094
275.512	18.990	1142.610	862.502
276.526	18.992	1142.171	862.107
277.541	19.012	1141.538	861.652
278.555	19.130	1140.815	861.623
279.570	19.160	1139.928	861.027
280.585	19.197	1139.577	860.868
281.599	19.402	1138.255	860.816
282.614	19.319	1136.840	859.258
283.628	19.236	1135.722	857.924
284.643	19.155	1135.124	856.992
285.657	19.228	1133.944	856.390
286.672	19.098	1133.355	855.220
287.687	19.226	1132.239	854.940
288.701	19.271	1131.771	854.735
289.716	19.184	1131.079	853.703
290.730	19.214	1130.566	853.389
291.745	19.292	1129.528	852.918
292.760	19.228	1129.135	852.226
293.774	19.378	1128.458	852.382
294.789	19.483	1128.347	852.741
295.803	19.475	1127.580	852.048
296.818	19.314	1126.834	850.615
297.833	19.267	1125.451	849.262
298.847	19.251	1125.235	848.948
299.862	19.442	1124.035	848.906
300.876	19.373	1123.473	848.066
301.891	19.404	1122.905	847.716
302.906	19.495	1122.298	847.627
303.920	19.683	1121.855	848.142
304.935	19.691	1121.633	847.938
305.949	19.713	1120.513	847.124
306.964	19.740	1119.924	846.735
307.979	19.708	1119.039	845.834
308.993	19.622	1118.390	844.851
310.008	19.605	1117.565	844.067
311.022	19.762	1117.028	844.356
312.037	19.644	1116.059	842.971
313.052	19.601	1115.566	842.314
314.066	19.522	1114.092	840.744
315.081	19.388	1113.245	839.381
316.095	19.454	1112.296	838.909
317.110	19.491	1111.284	838.251
318.125	19.387	1111.193	837.603
319.139	19.402	1110.280	836.916
320.154	19.350	1110.147	836.489
321.168	19.502	1109.046	836.322
322.183	19.563	1108.345	836.011
323.197	19.497	1107.892	835.276
324.212	19.639	1107.309	835.453
325.227	19.600	1106.934	834.907
326.241	19.574	1106.124	834.094
327.256	19.587	1105.398	833.536
328.270	19.452	1104.668	832.261
329.285	19.396	1103.916	831.350
330.300	19.537	1102.888	831.184
331.314	19.609	1101.826	830.658
332.329	19.588	1100.729	829.655
333.343	19.636	1100.135	829.361
334.358	19.723	1099.063	828.898
335.373	19.812	1098.551	828.865
336.387	19.820	1097.861	828.309
337.402	19.853	1097.241	827.928
338.416	19.852	1096.535	827.315
339.431	19.981	1095.920	827.395
340.446	20.096	1095.482	827.540
341.460	20.057	1095.206	827.071
342.475	20.193	1094.294	826.961
343.489	20.275	1093.048	826.336
344.504	20.211	1092.552	825.582
345.519	20.291	1091.725	825.266
346.533	20.291	1091.332	824.897
347.548	20.393	1090.046	824.336
348.562	20.370	1089.203	823.515
349.577	20.133	1088.179	821.545
350.592	19.984	1087.549	820.289
351.606	19.991	1086.896	819.759
352.621	19.830	1086.001	818.249
353.635	19.897	1085.336	817.993
354.650	19.912	1084.437	817.312
355.665	19.833	1084.003	816.543
356.679	20.107	1083.308	817.238
357.694	20.117	1082.678	816.737
358.708	20.179	1082.501	816.823
359.723	20.085	1081.844	815.812
360.738	20.129	1081.455	815.655
361.752	20.148	1080.701	815.106
362.767	20.156	1080.017	814.552
363.781	20.179	1079.375	814.106
364.796	20.437	1078.592	814.652
365.810	20.361	1078.223	813.946
366.825	20.515	1078.103	814.504
367.840	20.749	1077.226	814.867
368.854	20.715	1076.699	814.234
369.869	20.638	1076.520	813.667
370.883	20.534	1075.191	812.106
371.898	20.448	1074.176	810.866
372.913	20.514	1074.229	811.142
373.927	20.472	1073.392	810.241
374.942	20.586	1073.257	810.599
375.956	20.598	1072.323	809.879
376.971	20.577	1071.749	809.277
377.986	20.701	1070.996	809.211
379.000	20.818	1070.621	809.402
380.015	20.932	1070.150	809.502
381.029	20.802	1069.370	808.236
382.044	20.832	1068.453	807.613
383.059	20.883	1067.777	807.266
384.073	20.790	1067.319	806.418
385.088	20.805	1066.363	805.696
386.102	20.730	1065.398	804.548
387.117	20.703	1064.583	803.736
388.132	20.558	1063.267	801.999
389.146	20.438	1062.400	800.725
390.161	20.593	1061.621	800.781
391.175	20.641	1061.338	800.717
392.190	20.628	1060.891	800.250
393.205	20.801	1059.976	800.281
394.219	20.789	1058.748	799.229
395.234	20.698	1058.057	798.218
396.248	20.572	1057.344	797.035
397.263	20.687	1056.072	796.530
398.278	20.570	1055.388	795.407
399.292	20.573	1054.635	794.785
400.307	20.415	1053.888	793.429
401.321	20.438	1053.511	793.179
402.336	20.491	1052.612	792.677
403.350	20.534	1052.060	792.386
404.365	20.590	1051.334	792.025
405.380	20.624	1050.955	791.823
406.394	20.696	1050.160	791.481
407.409	20.840	1049.157	791.308
408.423	20.874	1048.643	791.005
409.438	20.993	1048.268	791.195
410.453	20.986	1047.588	790.578
411.467	20.970	1047.201	790.144
412.482	21.201	1046.096	790.287
413.496	21.268	1045.196	789.838
414.511	21.276	1045.036	789.684
415.526	21.394	1044.446	789.703
416.540	21.456	1044.093	789.644
417.555	21.454	1043.498	789.118
418.569	21.308	1042.902	787.938
419.584	21.110	1042.851	786.934
420.599	21.259	1041.869	786.796
421.613	155.688	1403.313	1797.322
422.628	142.506	1455.987	1797.432
