DTS Sentinel unit serial number:	SN413079Multiplexer serial number:	ORYXHardware model number:	OX4-SRSoftware version number:	ORYX F/W v4.00 Oryx Data Collector v3.7.2.0data status	okinstallation	princeton_trtdifferential loss correction	single-endedforward channel	channel 2reverse channel	N/Adate	2019/09/18time	09:27:35forward acquisition time	60.00reverse acquisition time	0.00gamma	496.2192k internal	0.2337k external	0.2337temperature offset calibration	0.9977default loss term (dB/km)	0.3790temperature slope calibration	1.0000multiplexer offset coefficient	1.0000multiplexer slope coefficient	1.0000fibre end	0.00T internal ref (°C)	26.27T ext. ref 1 (°C)	0.27T ext. ref 2 (°C)	23.35length (m)	temperature (°C)	Stokes	anti-Stokes-747.200	527.342	0.148	0.351
-746.185	-119.052	-0.255	-0.045
-745.171	-102.213	-0.270	-0.065
-744.156	-200.000	-0.008	-0.260
-743.142	-200.000	0.045	-0.201
-742.127	-53.174	-0.146	0.067
-741.112	-72.143	-0.247	0.092
-740.098	800.000	-0.072	0.244
-739.083	33.342	-0.155	-0.135
-738.069	-119.008	-0.367	0.065
-737.054	800.000	-0.111	-0.458
-736.039	-86.192	-0.117	0.036
-735.025	91.196	0.042	0.047
-734.010	800.000	-0.153	-0.437
-732.996	8.282	0.113	-0.085
-731.981	-200.000	-0.105	-0.000
-730.966	24.538	0.146	0.121
-729.952	-200.000	-0.034	-0.182
-728.937	-21.552	0.089	-0.054
-727.923	-200.000	-0.024	-0.153
-726.908	-30.402	-0.103	-0.059
-725.894	177.013	0.200	-0.292
-724.879	34.891	-0.083	0.073
-723.864	-12.036	0.213	-0.140
-722.850	49.205	-0.262	0.247
-721.835	-200.000	0.029	-0.190
-720.821	-48.992	0.099	0.047
-719.806	-84.648	0.074	0.023
-718.791	-151.404	0.224	-0.017
-717.777	-200.000	0.014	0.076
-716.762	190.697	0.246	-0.370
-715.748	127.932	-0.080	0.102
-714.733	47.068	0.136	0.127
-713.718	280.793	-0.137	-0.246
-712.704	-200.000	-0.029	-0.170
-711.689	251.050	-0.104	0.177
-710.675	101.864	0.342	-0.400
-709.660	15.740	0.089	0.070
-708.645	-121.402	0.340	0.057
-707.631	-6.110	-0.224	-0.153
-706.616	-51.142	-0.162	-0.076
-705.602	301.099	0.073	-0.136
-704.587	-49.100	-0.086	0.041
-703.572	80.623	0.311	-0.336
-702.558	100.900	0.116	0.135
-701.543	-138.131	-0.168	0.019
-700.529	-70.353	-0.166	0.063
-699.514	-200.000	0.021	0.144
-698.499	-200.000	0.020	-0.177
-697.485	24.156	0.337	0.279
-696.470	-97.228	-0.192	0.050
-695.456	-37.581	0.152	-0.081
-694.441	-18.567	0.264	0.165
-693.426	-94.059	0.064	0.018
-692.412	-200.000	-0.021	-0.137
-691.397	112.202	0.051	-0.062
-690.383	107.029	-0.130	0.155
-689.368	-56.090	-0.029	-0.013
-688.354	134.791	-0.182	-0.236
-687.339	-135.287	0.110	-0.013
-686.324	-44.407	-0.378	-0.189
-685.310	-200.000	0.034	0.199
-684.295	-135.696	0.353	0.042
-683.281	-47.174	0.159	0.078
-682.266	-119.413	-0.268	-0.047
-681.251	281.396	-0.079	-0.141
-680.237	-200.000	0.013	0.160
-679.222	-200.000	0.040	0.000
-678.208	-36.046	-0.275	-0.149
-677.193	-123.087	-0.539	-0.087
-676.178	-121.880	-0.175	-0.029
-675.164	-115.617	-0.107	-0.020
-674.149	-33.850	0.184	0.101
-673.135	-200.000	0.016	-0.120
-672.120	416.250	0.074	0.159
-671.105	-119.015	0.167	0.029
-670.091	-67.306	-0.158	-0.062
-669.076	203.493	-0.102	-0.158
-668.062	-147.235	0.093	0.008
-667.047	-200.000	-0.008	-0.079
-666.032	-37.351	-0.197	0.105
-665.018	800.000	-0.069	0.259
-664.003	-200.000	0.010	0.112
-662.989	800.000	-0.076	-0.225
-661.974	19.376	-0.193	-0.155
-660.959	-19.696	-0.140	0.087
-659.945	-200.000	0.033	-0.500
-658.930	-83.146	0.095	0.031
-657.916	-22.352	-0.096	-0.058
-656.901	235.688	0.082	-0.136
-655.886	-43.915	-0.261	0.131
-654.872	139.355	-0.120	0.157
-653.857	-90.233	-0.202	-0.059
-652.843	-160.577	0.144	-0.008
-651.828	-200.000	0.043	-0.197
-650.814	30.127	-0.072	-0.062
-649.799	-200.000	0.059	0.348
-648.784	-68.895	-0.073	0.028
-647.770	767.451	-0.091	-0.248
-646.755	110.831	-0.217	0.261
-645.741	-200.000	0.429	0.000
-644.726	-120.350	0.060	-0.010
-643.711	265.841	-0.040	0.070
-642.697	198.111	0.099	0.151
-641.682	-32.655	0.186	0.104
-640.668	-200.000	0.017	0.173
-639.653	-200.000	-0.014	-0.254
-638.638	238.770	0.091	0.151
-637.624	550.308	-0.018	-0.042
-636.609	-148.048	-0.177	0.015
-635.595	297.868	-0.097	0.178
-634.580	-200.000	-0.040	-0.214
-633.565	-11.231	0.147	-0.097
-632.551	210.739	-0.071	-0.112
-631.536	230.084	0.129	-0.210
-630.522	-45.204	0.157	0.078
-629.507	-101.524	-0.077	0.019
-628.492	800.000	0.021	0.086
-627.478	134.449	0.193	0.250
-626.463	148.226	0.216	0.291
-625.449	224.740	-0.220	-0.356
-624.434	182.487	0.241	-0.355
-623.419	365.567	-0.149	-0.299
-622.405	-134.204	-0.400	-0.049
-621.390	-200.000	-0.100	-0.690
-620.376	90.345	-0.231	-0.258
-619.361	-172.152	0.252	-0.008
-618.346	780.435	-0.098	-0.268
-617.332	-95.701	-0.335	0.089
-616.317	254.236	-0.171	-0.292
-615.303	-32.197	-0.137	0.076
-614.288	242.591	-0.122	-0.204
-613.273	-2.927	-0.104	0.073
-612.259	-136.424	0.122	-0.014
-611.244	325.141	0.143	-0.273
-610.230	753.393	0.067	-0.181
-609.215	192.286	-0.049	0.074
-608.201	800.000	-0.032	0.109
-607.186	-71.834	-0.274	-0.102
-606.171	45.423	0.111	0.102
-605.157	584.981	-0.135	-0.331
-604.142	1.772	0.067	0.049
-603.128	-86.031	-0.171	-0.053
-602.113	-200.000	0.018	-0.242
-601.098	34.771	-0.351	-0.306
-600.084	-200.000	0.018	0.106
-599.069	13.611	-0.189	0.147
-598.055	-55.458	0.215	0.096
-597.040	-67.655	-0.228	-0.089
-596.025	-17.390	0.091	-0.057
-595.011	800.000	-0.063	-0.203
-593.996	322.222	0.042	0.080
-592.982	103.902	0.122	0.144
-591.967	193.749	0.203	0.307
-590.952	40.489	0.177	-0.159
-589.938	-150.319	0.099	0.008
-588.923	-37.983	-0.262	0.139
-587.909	-200.000	-0.000	0.516
-586.894	-200.000	-0.150	-0.000
-585.879	-200.000	-0.014	-0.297
-584.865	430.086	-0.145	-0.313
-583.850	-200.000	-0.092	0.566
-582.836	800.000	-0.068	-0.198
-581.821	-91.983	-0.334	0.094
-580.806	-107.077	-0.237	0.052
-579.792	-200.000	0.039	0.409
-578.777	111.356	-0.124	-0.149
-577.763	-200.000	-0.022	-0.223
-576.748	791.811	0.086	-0.235
-575.733	-93.485	-0.195	-0.054
-574.719	140.359	0.171	0.225
-573.704	-151.278	-0.391	0.029
-572.690	-29.462	-0.193	-0.110
-571.675	-84.686	-0.300	0.094
-570.661	286.676	0.055	-0.100
-569.646	508.069	-0.129	0.299
-568.631	-118.651	0.244	-0.043
-567.617	-200.000	-0.004	-0.124
-566.602	-200.000	-0.004	-0.026
-565.588	-200.000	-0.021	-0.321
-564.573	49.660	0.186	0.174
-563.558	-26.495	0.132	-0.077
-562.544	-65.371	0.160	0.064
-561.529	7.226	-0.424	-0.315
-560.515	153.398	0.081	-0.110
-559.500	-89.603	-0.251	-0.074
-558.485	-200.000	0.008	-0.057
-557.471	-200.000	-0.055	0.248
-556.456	-200.000	-0.042	-0.379
-555.442	-53.901	-0.084	-0.038
-554.427	-35.176	0.059	-0.032
-553.412	-200.000	-0.039	0.467
-552.398	40.050	0.174	-0.156
-551.383	123.526	-0.082	-0.102
-550.369	28.989	-0.032	-0.027
-549.354	-200.000	-0.004	0.092
-548.339	80.362	-0.073	0.079
-547.325	161.824	0.111	0.154
-546.310	739.208	0.067	-0.179
-545.296	-34.624	-0.463	-0.252
-544.281	-67.707	0.303	-0.118
-543.266	800.000	-0.037	-0.105
-542.252	238.141	-0.095	-0.157
-541.237	800.000	-0.104	0.437
-540.223	79.373	-0.082	-0.087
-539.208	-145.631	-0.191	-0.017
-538.193	-40.413	-0.094	0.049
-537.179	64.823	0.149	-0.150
-536.164	-200.000	0.023	0.275
-535.150	800.000	-0.029	0.095
-534.135	800.000	-0.055	-0.176
-533.121	-200.000	0.060	-0.501
-532.106	404.221	-0.065	0.137
-531.091	9.024	-0.130	-0.098
-530.077	-200.000	0.020	-0.180
-529.062	-74.942	-0.120	-0.043
-528.048	-66.791	0.079	-0.031
-527.033	800.000	-0.039	0.130
-526.018	-200.000	-0.015	0.129
-525.004	-200.000	-0.027	-0.177
-523.989	800.000	-0.093	-0.301
-522.975	58.108	0.092	0.090
-521.960	-143.766	-0.191	0.018
-520.945	25.044	0.146	-0.121
-519.931	-167.344	-0.034	0.001
-518.916	-69.483	0.126	0.048
-517.902	218.961	0.204	0.324
-516.887	159.612	-0.107	-0.148
-515.872	8.521	-0.210	0.157
-514.858	-110.866	0.130	0.027
-513.843	-154.664	0.040	-0.003
-512.829	51.585	-0.145	0.137
-511.814	64.524	-0.216	0.217
-510.799	800.000	0.089	-0.264
-509.785	800.000	-0.035	0.142
-508.770	154.535	0.136	0.186
-507.756	730.105	-0.001	0.002
-506.741	-102.292	-0.406	-0.097
-505.726	-8.104	-0.421	-0.282
-504.712	39.496	0.108	-0.096
-503.697	5.662	0.217	0.160
-502.683	-6.789	-0.284	0.192
-501.668	83.457	-0.033	-0.035
-500.653	-200.000	0.039	0.442
-499.639	99.449	0.064	-0.074
-498.624	-127.205	-0.297	0.043
-497.610	-125.089	0.271	-0.041
-496.595	112.836	-0.107	0.128
-495.581	-8.338	-0.179	-0.120
-494.566	800.000	-0.120	-0.351
-493.551	-200.000	0.007	0.037
-492.537	68.598	-0.027	-0.027
-491.522	800.000	-0.117	-0.449
-490.508	800.000	-0.030	-0.111
-489.493	-200.000	-0.005	0.103
-488.478	111.025	0.118	-0.141
-487.464	-158.169	-0.109	-0.006
-486.449	800.000	-0.050	-0.197
-485.435	-83.798	0.188	0.060
-484.420	-79.387	-0.153	-0.052
-483.405	-12.498	0.297	0.193
-482.391	511.725	-0.032	0.074
-481.376	-122.888	0.115	-0.018
-480.362	-200.000	-0.252	0.001
-479.347	800.000	-0.025	-0.080
-478.332	404.481	0.089	0.186
-477.318	315.539	0.068	0.128
-476.303	441.458	0.033	-0.073
-475.289	797.078	-0.141	0.385
-474.274	-180.911	-0.164	0.003
-473.259	-200.000	-0.048	-0.330
-472.245	-200.000	0.087	0.479
-471.230	-200.000	-0.215	-0.000
-470.216	114.159	0.086	0.104
-469.201	-200.000	0.034	0.162
-468.186	-200.000	-0.045	-0.200
-467.172	199.393	-0.107	0.163
-466.157	-131.170	-0.160	-0.021
-465.143	-67.199	-0.335	0.131
-464.128	80.158	0.131	-0.140
-463.113	170.894	0.217	-0.309
-462.099	-200.000	0.011	-0.130
-461.084	-146.587	-0.254	-0.022
-460.070	-58.089	0.245	0.106
-459.055	-200.000	0.004	0.203
-458.040	198.394	0.064	0.098
-457.026	57.261	0.177	0.172
-456.011	160.447	-0.294	0.407
-454.997	67.554	0.209	-0.212
-453.982	-114.178	0.186	0.036
-452.968	800.000	0.067	-0.242
-451.953	151.015	0.031	-0.041
-450.938	54.635	-0.427	0.409
-449.924	-143.354	-0.050	-0.005
-448.909	-101.584	0.228	0.055
-447.895	186.463	-0.078	0.115
-446.880	-200.000	0.052	-0.284
-445.865	-98.912	-0.202	-0.051
-444.851	118.072	0.157	-0.192
-443.836	63.552	0.175	-0.175
-442.822	73.989	0.389	-0.405
-441.807	-200.000	-0.042	-0.315
-440.792	-200.000	0.039	-0.415
-439.778	554.185	0.184	-0.439
-438.763	-26.774	0.062	0.036
-437.749	-22.228	0.226	-0.136
-436.734	135.082	0.205	0.264
-435.719	-69.854	-0.191	-0.072
-434.705	148.659	-0.109	-0.146
-433.690	-110.763	0.118	0.024
-432.676	61.714	0.069	-0.068
-431.661	-93.317	-0.372	0.102
-430.646	-37.643	0.259	0.137
-429.632	800.000	0.068	-0.215
-428.617	-2.087	0.058	-0.040
-427.603	-200.000	0.035	0.315
-426.588	150.233	-0.175	0.236
-425.573	-7.648	0.058	0.039
-424.559	800.000	0.050	-0.177
-423.544	-70.169	-0.035	-0.013
-422.530	-200.000	0.021	-0.112
-421.515	441.808	-0.096	-0.209
-420.500	-121.972	0.314	-0.051
-419.486	-128.398	-0.284	-0.040
-418.471	142.891	0.167	-0.220
-417.457	-200.000	0.015	0.095
-416.442	-38.385	-0.100	-0.053
-415.428	-97.799	0.208	-0.053
-414.413	419.260	0.254	0.540
-413.398	153.698	0.062	0.084
-412.384	800.000	-0.080	0.231
-411.369	106.996	0.043	0.051
-410.355	-94.579	0.457	-0.123
-409.340	417.244	0.043	-0.090
-408.325	-61.373	0.128	-0.053
-407.311	-200.000	0.050	0.260
-406.296	-200.000	-0.026	0.121
-405.282	46.997	-0.248	-0.228
-404.267	81.906	0.131	0.141
-403.252	-200.000	-0.006	-0.159
-402.238	247.509	-0.170	0.284
-401.223	-72.245	0.156	0.057
-400.209	-200.000	0.002	-0.134
-399.194	-124.644	0.063	0.010
-398.179	-200.000	0.026	-0.121
-397.165	795.163	-0.091	0.248
-396.150	800.000	-0.111	0.315
-395.136	-81.041	0.072	0.024
-394.121	-80.053	0.219	-0.073
-393.106	29.457	-0.166	-0.140
-392.092	24.184	0.254	-0.207
-391.077	-53.081	0.212	0.096
-390.063	-31.479	0.215	0.119
-389.048	-77.359	0.174	-0.060
-388.033	57.506	0.119	0.115
-387.019	418.662	0.103	0.219
-386.004	-148.182	0.116	-0.009
-384.990	67.050	0.189	-0.190
-383.975	-46.566	0.315	0.153
-382.960	-8.749	-0.287	-0.191
-381.946	99.628	-0.113	0.129
-380.931	14.998	0.156	0.121
-379.917	800.000	-0.082	0.229
-378.902	-73.523	-0.085	0.031
-377.888	166.349	-0.236	0.331
-376.873	-200.000	0.036	0.415
-375.858	210.719	0.105	0.163
-374.844	-16.731	0.113	-0.071
-373.829	-200.000	0.021	-0.115
-372.815	-43.202	0.213	-0.107
-371.800	42.303	-0.083	0.074
-370.785	-35.011	-0.124	-0.067
-369.771	-67.865	0.282	0.109
-368.756	-0.009	0.138	0.097
-367.742	-11.097	0.153	-0.100
-366.727	-76.182	0.315	-0.110
-365.712	-200.000	0.020	-0.315
-364.698	123.675	-0.153	-0.190
-363.683	172.638	0.152	-0.216
-362.669	-78.083	-0.226	0.077
-361.654	162.281	0.164	0.228
-360.639	-111.851	-0.227	0.045
-359.625	354.661	0.069	0.136
-358.610	-162.241	-0.242	-0.012
-357.596	107.251	-0.087	-0.103
-356.581	-200.000	-0.001	-0.111
-355.566	2.701	-0.466	-0.334
-354.552	-64.364	0.310	0.125
-353.537	-200.000	0.013	0.348
-352.523	-93.069	-0.192	0.053
-351.508	-95.428	0.025	-0.007
-350.493	18.714	-0.163	0.129
-349.479	-134.725	-0.269	-0.032
-348.464	-106.217	-0.316	-0.070
-347.450	-200.000	-0.006	0.408
-346.435	-60.166	0.218	0.092
-345.420	452.843	0.037	-0.081
-344.406	800.000	0.084	0.300
-343.391	-100.574	-0.194	0.047
-342.377	114.953	-0.040	-0.048
-341.362	-94.735	0.134	0.036
-340.348	-32.387	-0.077	-0.043
-339.333	-124.782	0.238	-0.036
-338.318	-23.840	0.079	-0.047
-337.304	-105.410	0.103	-0.023
-336.289	-118.528	-0.083	-0.014
-335.275	-200.000	-0.009	0.063
-334.260	-200.000	-0.016	0.251
-333.245	-92.762	-0.232	-0.064
-332.231	-76.409	0.365	-0.127
-331.216	22.268	-0.288	-0.232
-330.202	501.238	-0.101	-0.230
-329.187	-200.000	-0.008	0.044
-328.172	161.376	0.096	-0.133
-327.158	-27.391	0.136	0.078
-326.143	-43.735	0.128	-0.064
-325.129	-58.582	-0.171	-0.073
-324.114	-38.168	-0.061	-0.032
-323.099	386.215	-0.156	0.318
-322.085	86.170	-0.255	0.277
-321.070	-143.522	-0.034	-0.003
-320.056	-21.372	0.112	-0.067
-319.041	310.496	0.217	0.402
-318.026	-99.339	0.246	-0.061
-317.012	87.838	0.088	0.096
-315.997	-5.870	0.399	-0.270
-314.983	-65.548	-0.303	0.120
-313.968	-44.316	-0.271	0.134
-312.953	45.965	-0.213	-0.195
-311.939	-102.576	0.119	-0.028
-310.924	-126.704	-0.203	0.030
-309.910	-62.031	-0.283	0.117
-308.895	34.316	-0.096	0.083
-307.880	418.543	-0.096	-0.203
-306.866	-19.831	-0.155	0.095
-305.851	-58.400	0.086	0.037
-304.837	311.055	-0.139	0.257
-303.822	195.162	-0.202	0.303
-302.807	-90.168	-0.041	-0.012
-301.793	503.948	-0.153	-0.349
-300.778	334.759	-0.126	0.240
-299.764	-159.341	-0.238	-0.013
-298.749	-200.000	0.041	0.237
-297.735	112.738	0.098	0.117
-296.720	110.380	-0.201	-0.239
-295.705	800.000	-0.081	-0.324
-294.691	271.167	-0.052	0.090
-293.676	28.694	0.244	0.204
-292.662	800.000	0.050	0.212
-291.647	138.116	-0.135	0.175
-290.632	180.075	-0.263	0.381
-289.618	55.398	-0.157	-0.150
-288.603	155.248	0.014	-0.019
-287.589	2.361	0.129	0.092
-286.574	331.682	0.188	0.357
-285.559	-11.080	0.079	0.051
-284.545	-154.401	-0.119	0.008
-283.530	121.042	-0.154	0.189
-282.516	194.678	0.090	-0.135
-281.501	800.000	0.096	-0.395
-280.486	-200.000	-0.026	-0.145
-279.472	-109.135	0.348	-0.073
-278.457	-12.013	-0.179	-0.116
-277.443	263.439	0.163	-0.279
-276.428	-134.864	-0.143	-0.017
-275.413	-7.295	-0.129	0.086
-274.399	387.579	0.188	0.383
-273.384	645.314	-0.096	0.241
-272.370	-188.959	-0.221	-0.003
-271.355	189.421	0.203	0.300
-270.340	-14.391	0.178	-0.113
-269.326	800.000	-0.058	0.179
-268.311	235.354	-0.243	-0.395
-267.297	-3.865	0.297	-0.203
-266.282	15.923	-0.105	0.082
-265.267	68.771	0.196	-0.199
-264.253	66.626	-0.319	-0.320
-263.238	-15.738	0.463	0.291
-262.224	-200.000	-0.028	0.339
-261.209	596.745	0.058	-0.142
-260.195	186.365	0.184	0.269
-259.180	87.187	0.013	-0.014
-258.165	800.000	0.080	0.241
-257.151	-40.253	0.057	0.029
-256.136	-200.000	-0.011	0.054
-255.122	564.535	-0.148	0.354
-254.107	174.134	-0.033	0.047
-253.092	-11.184	0.211	0.137
-252.078	-50.116	-0.152	0.071
-251.063	800.000	0.009	-0.031
-250.049	-51.378	0.349	0.161
-249.034	-100.807	0.101	0.025
-248.019	-119.378	0.240	0.041
-247.005	-37.682	0.194	0.102
-245.990	-68.900	0.505	0.192
-244.976	392.386	0.023	-0.047
-243.961	-145.791	-0.222	0.019
-242.946	42.473	-0.227	-0.204
-241.932	-180.073	-0.261	-0.005
-240.917	98.252	-0.126	-0.143
-239.903	-8.964	0.125	-0.083
-238.888	-200.000	-0.037	0.166
-237.873	-27.948	0.227	-0.129
-236.859	-9.768	-0.182	0.119
-235.844	800.000	-0.122	-0.340
-234.830	800.000	0.080	-0.217
-233.815	-9.630	0.234	-0.153
-232.800	800.000	0.086	0.299
-231.786	-200.000	-0.018	-0.136
-230.771	-200.000	0.060	-0.422
-229.757	-17.364	-0.253	0.156
-228.742	475.192	-0.050	-0.111
-227.727	112.402	-0.135	-0.161
-226.713	-112.156	0.274	0.054
-225.698	284.006	-0.038	0.068
-224.684	366.330	0.140	0.277
-223.669	-130.921	-0.167	0.022
-222.655	31.839	0.095	0.081
-221.640	800.000	0.129	0.355
-220.625	32.026	0.224	0.190
-219.611	-200.000	-0.015	0.173
-218.596	-89.537	-0.224	0.065
-217.582	218.084	0.070	-0.110
-216.567	-200.000	-0.023	-0.185
-215.552	-98.199	0.244	-0.062
-214.538	-134.103	-0.196	0.024
-213.523	99.396	-0.027	0.031
-212.509	115.047	0.167	-0.200
-211.494	-83.282	0.258	-0.082
-210.479	-62.782	-0.154	-0.063
-209.465	800.000	-0.049	0.158
-208.450	-184.086	-0.161	-0.003
-207.436	199.369	0.208	0.313
-206.421	109.314	0.037	-0.043
-205.406	298.632	0.084	0.152
-204.392	-165.343	0.147	-0.006
-203.377	298.930	-0.040	0.072
-202.363	-27.445	0.087	-0.050
-201.348	137.847	0.131	0.169
-200.333	323.768	-0.127	-0.238
-199.319	800.000	-0.042	-0.120
-198.304	-200.000	0.017	0.220
-197.290	84.877	-0.134	-0.145
-196.275	178.799	0.170	0.244
-195.260	-94.810	-0.160	-0.043
-194.246	273.040	-0.052	0.091
-193.231	-167.244	0.150	0.006
-192.217	-89.796	0.338	-0.097
-191.202	-200.000	0.036	-0.220
-190.187	-46.355	0.323	0.156
-189.173	800.000	-0.071	0.296
-188.158	-157.099	0.080	0.005
-187.144	-200.000	0.032	0.174
-186.129	-55.266	0.216	-0.095
-185.114	252.213	-0.099	-0.166
-184.100	-59.504	-0.085	-0.036
-183.085	153.118	0.067	-0.091
-182.071	-200.000	-0.073	-0.355
-181.056	-120.119	0.154	0.026
-180.042	800.000	-0.141	-0.386
-179.027	-187.947	-0.084	0.001
-178.012	-135.336	0.133	0.016
-176.998	-200.000	-0.022	-0.218
-175.983	37.772	-0.171	-0.149
-174.969	54.223	-0.268	-0.253
-173.954	-51.956	-0.091	0.042
-172.939	106.626	-0.058	0.068
-171.925	-200.000	0.031	0.196
-170.910	-16.988	-0.293	-0.181
-169.896	-57.858	0.173	0.074
-168.881	17.035	0.204	0.159
-167.866	28.816	0.191	0.158
-166.852	130.272	-0.028	0.035
-165.837	-200.000	0.020	-0.198
-164.823	-200.000	-0.004	-0.316
-163.808	-37.170	0.212	-0.111
-162.793	765.537	-0.051	0.135
-161.779	-94.611	-0.109	0.029
-160.764	-32.978	0.232	-0.127
-159.750	260.648	0.067	0.113
-158.735	80.318	0.160	0.169
-157.720	37.912	0.258	-0.225
-156.706	-88.092	0.220	0.065
-155.691	-200.000	0.042	0.323
-154.677	-64.547	0.037	0.015
-153.662	3.075	0.174	-0.124
-152.647	800.000	-0.093	-0.299
-151.633	104.640	0.140	-0.162
-150.618	635.348	-0.082	-0.203
-149.604	-29.189	0.186	0.104
-148.589	-131.692	-0.173	-0.022
-147.574	10.582	-0.206	0.154
-146.560	-2.751	0.087	0.059
-145.545	51.858	-0.137	-0.128
-144.531	-101.616	-0.266	-0.063
-143.516	188.190	0.135	0.198
-142.502	800.000	-0.065	-0.223
-141.487	97.559	0.088	-0.099
-140.472	-200.000	-0.004	0.085
-139.458	800.000	0.090	0.286
-138.443	-200.000	0.013	-0.135
-137.429	197.186	-0.102	-0.152
-136.414	30.657	0.025	-0.021
-135.399	92.600	-0.087	0.096
-134.385	800.000	-0.064	0.263
-133.370	-200.000	0.010	-0.170
-132.356	-200.000	-0.020	-0.199
-131.341	600.851	-0.117	0.286
-130.326	347.999	-0.151	0.291
-129.312	-151.792	-0.191	-0.014
-128.297	-200.000	0.014	0.346
-127.283	110.183	-0.166	0.196
-126.268	68.930	-0.134	0.135
-125.253	714.273	-0.109	0.284
-124.239	-174.358	-0.090	0.003
-123.224	-95.847	0.372	-0.097
-122.210	-63.681	-0.280	-0.112
-121.195	-105.719	0.175	0.039
-120.180	251.472	-0.102	-0.171
-119.166	59.304	-0.177	0.171
-118.151	9.406	0.160	-0.119
-117.137	800.000	0.028	0.113
-116.122	-89.767	0.170	-0.049
-115.107	355.846	0.094	-0.183
-114.093	-200.000	-0.009	-0.101
-113.078	-99.938	0.278	-0.068
-112.064	147.881	-0.072	0.095
-111.049	-63.174	0.491	0.198
-110.034	-200.000	-0.080	0.347
-109.020	800.000	-0.056	0.215
-108.005	800.000	-0.101	0.310
-106.991	406.891	-0.121	0.251
-105.976	-200.000	-0.007	-0.070
-104.962	123.914	-0.279	0.343
-103.947	-1.459	-0.181	-0.125
-102.932	495.261	-0.088	-0.199
-101.918	76.608	-0.099	-0.103
-100.903	59.435	0.162	0.156
-99.889	210.917	-0.181	-0.278
-98.874	-8.137	0.022	-0.015
-97.859	-179.654	0.113	0.002
-96.845	107.222	-0.039	0.045
-95.830	-112.348	0.266	0.052
-94.816	-200.000	-0.002	0.118
-93.801	588.992	0.053	0.127
-92.786	-200.000	-0.008	0.191
-91.772	-12.099	0.058	0.037
-90.757	-107.172	-0.062	-0.013
-89.743	-23.935	-0.179	-0.105
-88.728	-200.000	0.010	-0.172
-87.713	167.251	0.213	-0.296
-86.699	262.850	-0.080	-0.135
-85.684	-109.724	0.170	-0.035
-84.670	42.339	0.088	0.078
-83.655	-95.864	0.188	0.049
-82.640	680.642	-0.121	-0.308
-81.626	-77.649	0.327	0.111
-80.611	800.000	-0.055	-0.192
-79.597	800.000	0.053	-0.190
-78.582	531.802	0.072	0.166
-77.567	800.000	0.011	-0.031
-76.553	22.901	0.236	-0.189
-75.538	2.461	0.325	0.230
-74.524	800.000	0.025	-0.101
-73.509	260.876	0.030	0.051
-72.494	800.000	-0.060	-0.187
-71.480	-200.000	-0.014	-0.340
-70.465	26.448	0.198	-0.162
-69.451	-21.349	0.050	-0.030
-68.436	-100.302	-0.279	-0.068
-67.422	251.505	0.127	-0.212
-66.407	168.382	0.113	-0.157
-65.392	800.000	0.041	0.114
-64.378	-168.280	0.227	-0.009
-63.363	19.936	-0.309	-0.243
-62.349	-92.697	0.052	0.014
-61.334	124.241	-0.935	-1.149
-60.319	81.613	0.474	0.502
-59.305	-200.000	-0.228	-1.110
-58.290	384.031	0.640	1.287
-57.276	487.941	0.620	1.384
-56.261	-200.000	114.566	611.319
-55.246	435.402	1524.969	3241.214
-54.232	142.387	2720.886	3529.146
-53.217	93.631	2320.620	2568.071
-52.203	35.209	1925.804	1649.219
-51.188	29.293	1715.008	1423.133
-50.173	26.895	1673.661	1370.673
-49.159	47.302	1728.804	1573.016
-48.144	46.078	1742.443	1575.980
-47.130	28.940	1701.152	1408.702
-46.115	26.321	1686.902	1376.926
-45.100	26.204	1682.133	1372.092
-44.086	26.197	1679.197	1369.584
-43.071	26.079	1677.040	1366.878
-42.057	26.175	1674.233	1365.265
-41.042	26.234	1672.211	1364.009
-40.027	26.159	1670.349	1361.869
-39.013	26.155	1668.089	1359.942
-37.998	25.999	1667.394	1358.145
-36.984	26.053	1665.898	1357.276
-35.969	26.212	1664.428	1357.221
-34.954	26.332	1662.351	1356.372
-33.940	26.282	1661.013	1354.854
-32.925	26.207	1658.964	1352.571
-31.911	26.318	1656.972	1351.721
-30.896	26.299	1655.370	1350.218
-29.881	26.231	1653.762	1348.347
-28.867	26.224	1652.273	1347.026
-27.852	26.244	1651.066	1346.138
-26.838	26.345	1649.043	1345.183
-25.823	26.300	1647.787	1343.777
-24.809	26.286	1646.968	1342.949
-23.794	26.292	1645.366	1341.636
-22.779	26.323	1643.770	1340.511
-21.765	26.290	1641.675	1338.502
-20.750	26.203	1640.358	1336.734
-19.736	26.295	1639.207	1336.418
-18.721	26.380	1637.080	1335.263
-17.706	26.303	1635.918	1333.692
-16.692	26.297	1634.185	1332.186
-15.677	26.319	1632.887	1331.236
-14.663	26.307	1631.544	1330.001
-13.648	26.302	1630.258	1328.859
-12.633	26.289	1628.719	1327.458
-11.619	26.313	1626.568	1325.831
-10.604	26.284	1625.405	1324.615
-9.590	26.247	1623.877	1323.046
-8.575	26.413	1622.277	1322.903
-7.560	26.203	1621.611	1320.771
-6.546	26.381	1620.227	1320.897
-5.531	26.344	1619.169	1319.712
-4.517	26.250	1618.048	1318.058
-3.502	26.321	1616.925	1317.611
-2.487	26.395	1615.317	1316.783
-1.473	26.232	1603.478	1305.901
-0.458	23.977	1585.335	1274.937
0.556	19.265	1587.820	1247.820
1.571	17.438	1612.780	1253.875
2.586	17.200	1625.800	1262.116
3.600	15.640	1570.908	1208.191
4.615	8.493	1460.149	1074.997
5.629	1.636	1397.432	984.483
6.644	0.303	1389.902	970.508
7.659	0.193	1388.870	968.998
8.673	0.256	1387.551	968.395
9.688	0.318	1384.546	966.613
10.702	0.073	1381.779	963.022
11.717	3.188	1386.871	986.482
12.731	10.838	1398.110	1043.666
13.746	15.867	1405.764	1081.679
14.761	16.707	1405.982	1087.150
15.775	16.163	1403.572	1081.699
16.790	15.172	1401.136	1073.383
17.804	14.346	1399.336	1066.622
18.819	14.039	1397.951	1063.509
19.834	13.775	1396.108	1060.321
20.848	13.526	1394.827	1057.667
21.863	13.256	1393.685	1054.986
22.877	13.187	1392.677	1053.687
23.892	13.057	1391.292	1051.721
24.907	13.102	1390.658	1051.431
25.921	13.114	1389.718	1050.709
26.936	13.149	1388.894	1050.214
27.950	13.133	1388.084	1049.404
28.965	13.157	1386.882	1048.557
29.980	13.261	1385.920	1048.397
30.994	13.201	1385.258	1047.422
32.009	13.177	1384.303	1046.455
33.023	13.345	1382.563	1046.108
34.038	13.265	1381.768	1044.908
35.053	13.275	1380.639	1044.025
36.067	13.249	1379.322	1042.777
37.082	13.359	1378.267	1042.575
38.096	13.288	1377.879	1041.743
39.111	13.344	1376.573	1041.016
40.126	13.233	1376.489	1040.166
41.140	13.141	1375.143	1038.473
42.155	13.129	1374.858	1038.095
43.169	13.111	1374.790	1037.836
44.184	13.156	1374.069	1037.485
45.199	13.157	1373.461	1036.937
46.213	13.167	1373.002	1036.565
47.228	13.197	1371.601	1035.600
48.242	13.286	1370.345	1035.122
49.257	13.172	1369.677	1033.808
50.271	13.160	1368.027	1032.399
51.286	13.185	1366.602	1031.386
52.301	13.147	1365.319	1030.089
53.315	13.156	1364.394	1029.359
54.330	13.004	1363.713	1027.805
55.344	13.069	1362.210	1026.990
56.359	13.152	1360.905	1026.431
57.374	13.037	1360.564	1025.364
58.388	13.101	1359.565	1024.919
59.403	13.049	1359.323	1024.321
60.417	13.058	1358.283	1023.508
61.432	13.019	1357.587	1022.650
62.447	13.025	1356.369	1021.678
63.461	13.000	1355.245	1020.585
64.476	13.012	1353.987	1019.624
65.490	12.937	1353.045	1018.359
66.505	13.093	1351.878	1018.351
67.520	12.962	1350.471	1016.396
68.534	13.048	1349.509	1016.115
69.549	13.197	1347.951	1015.763
70.563	13.122	1346.662	1014.246
71.578	13.019	1346.205	1013.176
72.593	12.992	1345.107	1012.094
73.607	13.019	1344.059	1011.385
74.622	13.086	1342.771	1010.737
75.636	12.971	1342.825	1009.982
76.651	13.023	1341.931	1009.538
77.666	13.021	1341.392	1009.029
78.680	12.972	1341.113	1008.434
79.695	13.003	1340.221	1007.859
80.709	13.017	1339.431	1007.265
81.724	13.139	1338.276	1007.049
82.739	13.069	1337.466	1005.923
83.753	13.146	1336.496	1005.575
84.768	13.188	1335.722	1005.159
85.782	13.221	1334.079	1004.037
86.797	13.169	1332.704	1002.592
87.812	13.195	1331.299	1001.610
88.826	13.157	1330.494	1000.683
89.841	13.156	1329.617	999.930
90.855	13.257	1328.262	999.432
91.870	13.313	1327.191	998.874
92.884	13.287	1326.768	998.313
93.899	13.210	1325.759	996.999
94.914	13.308	1324.812	996.790
95.928	13.317	1324.010	996.155
96.943	13.325	1323.166	995.477
97.957	13.218	1322.405	994.176
98.972	13.174	1321.249	992.952
99.987	13.247	1319.862	992.259
101.001	13.238	1318.816	991.333
102.016	13.308	1317.929	990.995
103.030	13.241	1317.385	990.098
104.045	13.203	1316.589	989.183
105.060	13.264	1314.854	988.157
106.074	13.219	1313.116	986.497
107.089	13.106	1312.252	985.088
108.103	13.097	1311.446	984.339
109.118	13.295	1309.698	984.118
110.133	13.154	1308.710	982.452
111.147	13.119	1306.714	980.662
112.162	13.152	1305.967	980.209
113.176	13.226	1304.754	979.651
114.191	13.217	1303.605	978.647
115.206	13.212	1302.739	977.881
116.220	13.152	1301.530	976.532
117.235	13.195	1300.415	975.862
118.249	13.261	1299.158	975.223
119.264	13.239	1298.062	974.183
120.279	13.253	1296.330	972.881
121.293	13.160	1295.954	971.964
122.308	13.104	1295.298	971.055
123.322	13.097	1293.575	969.638
124.337	13.168	1292.653	969.279
125.352	13.083	1291.669	967.957
126.366	13.253	1289.962	967.587
127.381	13.178	1289.348	966.599
128.395	13.125	1288.584	965.635
129.410	13.088	1287.415	964.454
130.424	13.202	1286.239	964.156
131.439	13.180	1285.506	963.391
132.454	13.160	1285.031	962.835
133.468	13.097	1283.952	961.573
134.483	13.186	1283.069	961.344
135.497	13.168	1281.967	960.330
136.512	13.186	1280.195	959.021
137.527	13.270	1279.355	958.797
138.541	13.192	1277.520	956.884
139.556	13.289	1276.253	956.412
140.570	13.223	1276.229	955.928
141.585	13.258	1274.327	954.619
142.600	13.313	1272.796	953.703
143.614	13.320	1272.199	953.216
144.629	13.368	1270.893	952.428
145.643	13.322	1269.807	951.264
146.658	13.352	1268.331	950.247
147.673	13.374	1266.920	949.233
148.687	13.348	1265.390	947.851
149.702	13.262	1264.736	946.786
150.716	13.322	1263.278	945.954
151.731	13.262	1262.085	944.634
152.746	13.385	1260.566	944.115
153.760	13.294	1259.759	942.907
154.775	13.322	1258.909	942.347
155.789	13.503	1257.091	941.937
156.804	13.469	1256.259	941.035
157.819	13.395	1255.250	939.778
158.833	13.559	1254.585	940.123
159.848	13.523	1253.307	938.881
160.862	13.517	1252.200	937.931
161.877	13.485	1250.873	936.675
162.892	13.476	1250.124	935.979
163.906	13.510	1249.204	935.405
164.921	13.484	1248.487	934.634
165.935	13.456	1247.829	933.904
166.950	13.556	1246.688	933.528
167.964	13.411	1246.214	932.273
168.979	13.493	1245.478	932.101
169.994	13.494	1244.599	931.371
171.008	13.519	1243.871	930.884
172.023	13.584	1242.637	930.243
173.037	13.601	1241.566	929.453
174.052	13.739	1240.534	929.373
175.067	13.532	1239.967	927.702
176.081	13.623	1238.706	927.190
177.096	13.563	1237.884	926.153
178.110	13.572	1236.828	925.335
179.125	13.557	1235.751	924.364
180.140	13.616	1234.005	923.306
181.154	13.663	1233.082	922.790
182.169	13.765	1231.794	922.314
183.183	13.662	1231.177	921.197
184.198	13.656	1229.901	920.129
185.213	13.744	1228.333	919.360
186.227	13.654	1227.505	918.163
187.242	13.871	1226.105	918.232
188.256	13.827	1225.817	917.694
189.271	13.788	1224.332	916.285
190.286	13.689	1223.318	914.899
191.300	13.621	1222.755	914.024
192.315	13.599	1221.905	913.185
193.329	13.707	1221.106	913.104
194.344	13.724	1220.493	912.657
195.359	13.746	1220.173	912.460
196.373	13.979	1218.889	912.697
197.388	13.756	1218.881	911.385
198.402	13.847	1219.172	912.020
199.417	14.046	1217.415	911.721
200.432	13.988	1216.805	910.861
201.446	14.038	1215.754	910.271
202.461	13.934	1215.228	909.226
203.475	13.960	1214.223	908.536
204.490	14.011	1212.720	907.611
205.504	13.932	1211.436	906.136
206.519	14.047	1210.023	905.624
207.534	14.037	1209.156	904.843
208.548	14.042	1207.893	903.844
209.563	14.011	1207.359	903.196
210.577	14.021	1206.541	902.561
211.592	14.198	1205.493	902.657
212.607	14.112	1204.757	901.558
213.621	14.090	1203.599	900.491
214.636	14.054	1203.270	899.972
215.650	14.097	1202.270	899.375
216.665	14.103	1200.963	898.353
217.680	14.213	1200.032	898.169
218.694	14.223	1199.074	897.430
219.709	14.291	1198.231	897.085
220.723	14.252	1197.344	896.132
221.738	14.244	1196.972	895.729
222.753	14.220	1196.481	895.153
223.767	14.267	1195.693	894.739
224.782	14.429	1194.823	894.878
225.796	14.500	1193.767	894.390
226.811	14.234	1193.235	892.486
227.826	14.353	1192.640	892.596
228.840	14.325	1191.663	891.640
229.855	14.275	1190.889	890.714
230.869	14.317	1190.736	890.746
231.884	14.336	1189.550	889.880
232.899	14.226	1188.626	888.522
233.913	14.308	1188.168	888.540
234.928	14.222	1187.563	887.547
235.942	14.238	1186.541	886.790
236.957	14.235	1185.590	885.988
237.972	14.393	1184.763	886.132
238.986	14.310	1184.240	885.222
240.001	14.268	1183.387	884.281
241.015	14.411	1182.586	884.365
242.030	14.342	1181.944	883.440
243.045	14.454	1180.862	883.143
244.059	14.459	1179.978	882.430
245.074	14.477	1179.273	881.922
246.088	14.481	1178.742	881.468
247.103	14.578	1177.757	881.164
248.117	14.609	1177.011	880.691
249.132	14.739	1175.958	880.515
250.147	14.710	1175.243	879.746
251.161	14.680	1174.753	879.146
252.176	14.680	1174.558	878.920
253.190	14.719	1173.436	878.209
254.205	14.772	1173.158	878.202
255.220	14.835	1172.082	877.652
256.234	14.743	1171.901	876.955
257.249	14.832	1170.962	876.642
258.263	14.910	1169.988	876.243
259.278	14.900	1169.251	875.560
260.293	14.869	1169.195	875.278
261.307	14.878	1168.483	874.717
262.322	14.794	1168.293	874.055
263.336	14.958	1167.075	873.926
264.351	14.876	1166.586	873.054
265.366	14.964	1166.227	873.163
266.380	14.962	1165.299	872.383
267.395	14.948	1164.082	871.322
268.409	14.985	1163.404	870.928
269.424	15.067	1162.596	870.673
270.439	14.965	1162.168	869.747
271.453	15.021	1161.357	869.352
272.468	15.080	1160.183	868.706
273.482	14.968	1160.132	868.007
274.497	15.065	1159.121	867.676
275.512	15.053	1158.290	866.916
276.526	15.112	1157.749	866.741
277.541	15.100	1156.836	865.916
278.555	15.081	1156.244	865.298
279.570	15.191	1155.631	865.334
280.585	15.147	1154.338	864.060
281.599	15.271	1153.778	864.204
282.614	15.215	1152.651	862.995
283.628	15.152	1151.756	861.926
284.643	15.208	1151.057	861.616
285.657	15.197	1149.925	860.633
286.672	15.224	1148.945	859.964
287.687	15.143	1148.513	859.149
288.701	15.283	1147.717	859.193
289.716	15.368	1146.483	858.631
290.730	15.264	1145.945	857.621
291.745	15.325	1145.073	857.204
292.760	15.426	1144.404	857.143
293.774	15.389	1143.971	856.550
294.789	15.399	1143.922	856.490
295.803	15.403	1142.513	855.377
296.818	15.425	1142.096	855.103
297.833	15.430	1141.301	854.459
298.847	15.427	1140.327	853.637
299.862	15.492	1139.325	853.142
300.876	15.381	1139.216	852.422
301.891	15.393	1138.295	851.717
302.906	15.514	1137.675	851.791
303.920	15.610	1136.595	851.397
304.935	15.557	1136.539	851.009
305.949	15.629	1135.718	850.686
306.964	15.687	1134.887	850.280
307.979	15.689	1134.059	849.597
308.993	15.647	1133.408	848.821
310.008	15.715	1132.475	848.389
311.022	15.650	1132.050	847.668
312.037	15.738	1130.741	847.053
313.052	15.689	1129.924	846.122
314.066	15.505	1129.356	844.694
315.081	15.596	1128.178	844.196
316.095	15.692	1127.421	844.038
317.110	15.760	1127.012	843.999
318.125	15.636	1126.274	842.749
319.139	15.660	1125.342	842.097
320.154	15.606	1124.762	841.318
321.168	15.688	1123.895	841.007
322.183	15.689	1123.459	840.608
323.197	15.749	1122.737	840.296
324.212	15.717	1121.912	839.446
325.227	15.778	1121.685	839.505
326.241	15.706	1120.967	838.534
327.256	15.664	1120.438	837.854
328.270	15.793	1119.263	837.545
329.285	15.766	1118.282	836.601
330.300	15.762	1117.496	835.920
331.314	15.678	1116.816	834.918
332.329	15.807	1115.512	834.512
333.343	15.775	1114.669	833.646
334.358	15.836	1113.767	833.204
335.373	15.841	1113.096	832.653
336.387	15.844	1112.518	832.161
337.402	15.884	1111.562	831.569
338.416	15.922	1111.226	831.431
339.431	15.970	1110.251	830.865
340.446	15.881	1109.922	830.107
341.460	16.035	1109.330	830.350
342.475	16.122	1107.814	829.567
343.489	16.125	1106.723	828.691
344.504	16.108	1106.069	828.047
345.519	16.108	1105.090	827.240
346.533	16.172	1104.607	827.119
347.548	16.194	1103.772	826.528
348.562	16.195	1103.299	826.105
349.577	16.170	1102.424	825.257
350.592	16.332	1101.575	825.337
351.606	16.144	1101.081	823.979
352.621	16.245	1100.103	823.667
353.635	16.092	1099.857	822.663
354.650	16.209	1098.762	822.341
355.665	16.195	1097.919	821.568
356.679	16.166	1097.615	821.126
357.694	16.176	1096.893	820.563
358.708	16.259	1096.395	820.522
359.723	16.438	1095.270	820.474
360.738	16.449	1094.617	819.967
361.752	16.262	1094.465	818.874
362.767	16.414	1093.534	818.839
363.781	16.342	1093.078	818.076
364.796	16.405	1092.544	817.912
365.810	16.396	1091.838	817.268
366.825	16.355	1091.661	816.865
367.840	16.506	1090.592	816.723
368.854	16.571	1089.993	816.513
369.869	16.572	1089.358	815.972
370.883	16.393	1088.878	814.675
371.898	16.563	1087.818	814.629
372.913	16.405	1087.342	813.443
373.927	16.474	1086.990	813.437
374.942	16.525	1086.262	813.068
375.956	16.660	1085.448	813.032
376.971	16.695	1085.052	812.831
377.986	16.840	1083.986	812.658
379.000	16.752	1083.643	811.905
380.015	16.810	1083.603	812.082
381.029	16.829	1082.571	811.328
382.044	16.736	1081.791	810.228
383.059	16.743	1081.421	809.911
384.073	16.775	1080.260	809.122
385.088	16.727	1079.503	808.257
386.102	16.789	1078.455	807.695
387.117	16.793	1077.741	807.106
388.132	16.834	1076.417	806.239
389.146	16.686	1075.862	805.050
390.161	16.799	1074.877	804.780
391.175	16.778	1074.346	804.208
392.190	16.864	1073.769	804.114
393.205	16.768	1073.112	803.095
394.219	16.836	1072.109	802.599
395.234	16.885	1071.105	802.007
396.248	16.888	1069.863	801.021
397.263	16.953	1069.034	800.634
398.278	16.809	1068.870	799.759
399.292	16.802	1068.459	799.349
400.307	16.875	1067.264	798.729
401.321	16.840	1066.777	798.131
402.336	16.813	1066.234	797.525
403.350	16.860	1065.119	796.842
404.365	16.989	1064.504	796.917
405.380	16.961	1063.766	796.162
406.394	16.937	1062.973	795.388
407.409	17.013	1062.068	794.997
408.423	17.053	1061.451	794.652
409.438	17.026	1060.933	794.067
410.453	17.099	1060.006	793.642
411.467	17.234	1059.103	793.526
412.482	17.187	1058.564	792.834
413.496	17.101	1058.329	792.185
414.511	17.269	1057.678	792.412
415.526	17.213	1057.365	791.847
416.540	17.318	1056.586	791.682
417.555	17.385	1056.025	791.501
418.569	17.236	1055.557	790.388
419.584	17.299	1054.920	790.137
420.599	17.294	1054.555	789.769
421.613	105.491	1328.880	1481.525
422.628	97.171	1368.792	1481.614
