DTS Sentinel unit serial number:	SN413079Multiplexer serial number:	ORYXHardware model number:	OX4-SRSoftware version number:	ORYX F/W v4.00 Oryx Data Collector v3.7.2.0data status	okinstallation	princeton_trtdifferential loss correction	single-endedforward channel	channel 2reverse channel	N/Adate	2019/09/12time	08:09:11forward acquisition time	60.00reverse acquisition time	0.00gamma	496.2192k internal	0.2319k external	0.2319temperature offset calibration	1.0064default loss term (dB/km)	0.3790temperature slope calibration	1.0000multiplexer offset coefficient	1.0000multiplexer slope coefficient	1.0000fibre end	0.00T internal ref (°C)	33.22T ext. ref 1 (°C)	1.69T ext. ref 2 (°C)	29.76length (m)	temperature (°C)	Stokes	anti-Stokes-747.200	-154.120	-0.044	-0.003
-746.185	-200.000	0.032	0.466
-745.171	65.482	0.246	-0.252
-744.156	-130.708	-0.249	-0.034
-743.142	-115.575	-0.239	-0.045
-742.127	-200.000	0.260	0.001
-741.112	-36.112	0.116	0.063
-740.098	164.573	0.256	0.364
-739.083	113.760	-0.085	-0.105
-738.069	-69.842	0.181	0.070
-737.054	242.218	0.127	0.215
-736.039	103.067	0.187	0.221
-735.025	-29.367	-0.171	0.099
-734.010	-200.000	0.010	-0.077
-732.996	-19.492	-0.270	-0.169
-731.981	-200.000	0.032	-0.146
-730.966	-67.377	-0.047	0.019
-729.952	-51.224	-0.265	-0.126
-728.937	-4.511	-0.352	-0.246
-727.923	-200.000	-0.015	-0.151
-726.908	572.152	0.018	0.046
-725.894	-200.000	0.066	0.409
-724.879	182.023	0.172	0.257
-723.864	-160.888	-0.026	0.001
-722.850	77.088	-0.266	0.286
-721.835	800.000	-0.111	-0.318
-720.821	-39.143	0.074	0.039
-719.806	-69.671	-0.188	0.073
-718.791	281.914	-0.140	0.253
-717.777	-99.646	0.014	-0.003
-716.762	-86.520	-0.377	0.117
-715.748	-40.011	0.215	-0.113
-714.733	-144.566	-0.237	-0.022
-713.718	-138.581	-0.232	-0.026
-712.704	-134.975	-0.158	-0.019
-711.689	-122.994	-0.222	0.036
-710.675	14.890	-0.208	-0.164
-709.660	-200.000	0.038	-0.186
-708.645	-12.639	0.151	-0.099
-707.631	-25.605	-0.200	-0.119
-706.616	-11.859	0.210	0.139
-705.602	-68.640	0.122	-0.048
-704.587	-94.405	-0.186	0.051
-703.572	-200.000	0.009	0.095
-702.558	-86.921	0.082	0.025
-701.543	-37.205	-0.075	0.041
-700.529	309.989	-0.130	-0.245
-699.514	-200.000	-0.023	-0.252
-698.499	181.965	-0.219	0.326
-697.485	-13.212	-0.170	-0.111
-696.470	-139.394	-0.060	-0.007
-695.456	-116.639	-0.360	-0.067
-694.441	27.216	0.102	-0.086
-693.426	-162.897	0.134	0.007
-692.412	3.220	-0.195	0.143
-691.397	772.544	-0.040	0.110
-690.383	731.382	0.068	-0.184
-689.368	-195.995	-0.241	-0.002
-688.354	323.102	0.239	0.460
-687.339	478.107	0.120	0.273
-686.324	242.856	0.055	0.093
-685.310	22.630	-0.075	-0.062
-684.295	386.296	-0.071	0.148
-683.281	95.745	-0.202	-0.232
-682.266	-200.000	0.034	0.197
-681.251	-200.000	-0.021	0.185
-680.237	3.837	0.290	-0.214
-679.222	800.000	-0.076	-0.247
-678.208	-118.100	0.172	0.031
-677.193	-200.000	-0.004	0.205
-676.178	-136.881	-0.196	0.023
-675.164	44.817	0.158	-0.147
-674.149	-78.762	-0.542	-0.187
-673.135	-62.641	0.096	-0.040
-672.120	-94.250	-0.039	-0.011
-671.105	-118.703	0.258	0.046
-670.091	113.799	-0.243	0.297
-669.076	-161.357	-0.220	-0.012
-668.062	11.043	-0.233	0.179
-667.047	-200.000	-0.005	0.073
-666.032	-114.867	0.123	0.024
-665.018	16.267	0.182	0.145
-664.003	-54.135	-0.121	0.055
-662.989	-200.000	0.009	-0.107
-661.974	38.924	-0.099	-0.089
-660.959	-8.235	-0.252	-0.171
-659.945	-158.162	-0.595	0.035
-658.930	78.688	0.104	0.112
-657.916	118.796	-0.133	-0.165
-656.901	-93.517	-0.137	0.038
-655.886	-77.571	0.173	0.060
-654.872	18.727	0.046	0.037
-653.857	-6.992	-0.119	0.081
-652.843	5.937	0.070	0.052
-651.828	99.330	0.256	0.298
-650.814	129.030	-0.080	0.103
-649.799	258.972	-0.202	-0.352
-648.784	-33.029	-0.095	0.053
-647.770	800.000	0.041	-0.180
-646.755	24.892	0.141	-0.118
-645.741	-109.863	-0.050	-0.011
-644.726	800.000	-0.044	0.155
-643.711	128.348	-0.236	-0.303
-642.697	-13.743	0.037	-0.024
-641.682	-21.450	0.298	-0.183
-640.668	21.178	0.252	0.206
-639.653	-200.000	0.052	-0.351
-638.638	-86.529	-0.200	-0.062
-637.624	672.405	0.014	0.036
-636.609	-51.990	-0.280	0.131
-635.595	73.912	-0.046	0.049
-634.580	-67.749	-0.146	-0.058
-633.565	-200.000	-0.076	-0.449
-632.551	800.000	0.058	-0.169
-631.536	-200.000	-0.023	0.117
-630.522	-86.926	0.082	-0.025
-629.507	-10.222	0.155	0.104
-628.492	-160.553	-0.136	0.007
-627.478	-42.216	0.105	-0.054
-626.463	756.826	0.020	0.055
-625.449	-1.388	-0.126	-0.089
-624.434	-1.468	-0.212	0.150
-623.419	-200.000	0.012	-0.101
-622.405	-127.574	0.523	0.076
-621.390	-33.244	-0.213	0.119
-620.376	-42.675	0.177	-0.091
-619.361	-109.666	-0.297	0.063
-618.346	-200.000	-0.022	0.310
-617.332	338.138	-0.160	0.314
-616.317	-35.071	-0.233	0.128
-615.303	-200.000	0.010	0.230
-614.288	-110.186	0.099	-0.021
-613.273	-200.000	-0.006	-0.310
-612.259	275.038	-0.181	0.323
-611.244	800.000	0.043	0.167
-610.230	-24.065	-0.150	0.090
-609.215	29.271	0.158	0.135
-608.201	-69.789	-0.340	0.131
-607.186	-84.921	-0.227	0.072
-606.171	149.772	-0.141	-0.192
-605.157	62.358	0.250	-0.251
-604.142	-111.897	0.286	0.058
-603.128	800.000	0.038	0.121
-602.113	-22.854	0.250	-0.151
-601.098	800.000	0.010	0.032
-600.084	-128.887	-0.227	0.032
-599.069	-122.569	-0.152	-0.025
-598.055	106.496	0.161	0.192
-597.040	424.322	-0.133	0.287
-596.025	-200.000	0.003	0.353
-595.011	-138.854	-0.238	0.026
-593.996	-25.281	-0.382	-0.227
-592.982	-147.976	0.358	-0.030
-591.967	-166.021	0.154	0.007
-590.952	-200.000	-0.016	0.165
-589.938	-123.022	0.125	-0.020
-588.923	17.680	0.268	-0.214
-587.909	-88.147	0.206	-0.062
-586.894	581.400	-0.023	0.058
-585.879	664.683	-0.154	-0.399
-584.865	-200.000	0.060	0.427
-583.850	-98.139	-0.238	0.061
-582.836	41.665	0.192	0.175
-581.821	-85.515	0.256	-0.080
-580.806	139.894	-0.141	0.187
-579.792	800.000	0.103	-0.309
-578.777	-200.000	-0.011	0.161
-577.763	-37.135	0.057	0.030
-576.748	68.031	-0.313	-0.322
-575.733	-73.063	-0.392	0.144
-574.719	-200.000	-0.023	0.144
-573.704	800.000	0.072	0.229
-572.690	-136.531	0.145	0.017
-571.675	680.130	0.108	-0.282
-570.661	110.512	-0.236	-0.285
-569.646	697.240	-0.090	0.239
-568.631	-8.907	-0.374	-0.252
-567.617	-64.030	0.160	0.065
-566.602	-83.737	0.348	-0.112
-565.588	-75.307	0.328	-0.117
-564.573	-165.987	0.419	-0.018
-563.558	140.696	-0.148	-0.197
-562.544	-68.311	-0.244	0.095
-561.529	800.000	0.081	0.346
-560.515	-200.000	-0.012	-0.088
-559.500	-180.043	0.233	0.005
-558.485	21.079	0.244	-0.199
-557.471	800.000	0.053	0.215
-556.456	469.929	-0.059	0.133
-555.442	-200.000	-0.016	0.151
-554.427	-57.666	0.138	0.061
-553.412	-37.520	-0.248	0.133
-552.398	120.473	-0.078	0.098
-551.383	184.108	0.062	-0.092
-550.369	-91.512	-0.152	0.044
-549.354	418.795	-0.085	0.182
-548.339	488.778	-0.094	0.215
-547.325	-113.886	-0.275	0.054
-546.310	-200.000	0.093	-0.553
-545.296	198.553	-0.027	-0.041
-544.281	-200.000	-0.050	0.261
-543.266	182.980	-0.130	0.193
-542.252	-33.881	0.360	0.199
-541.237	-102.609	-0.237	0.057
-540.223	-108.873	-0.218	0.047
-539.208	3.908	-0.197	0.144
-538.193	800.000	0.075	-0.299
-537.179	356.427	-0.095	0.190
-536.164	-175.796	-0.194	-0.005
-535.150	800.000	-0.049	-0.165
-534.135	-104.781	0.096	0.022
-533.121	-115.655	-0.073	0.014
-532.106	121.077	-0.103	-0.129
-531.091	-200.000	0.331	0.001
-530.077	-124.572	0.143	-0.022
-529.062	-115.912	-0.290	0.054
-528.048	-126.014	-0.260	0.039
-527.033	-30.220	-0.059	0.034
-526.018	-96.738	0.067	0.018
-525.004	-3.723	-0.388	0.270
-523.989	800.000	0.068	0.290
-522.975	-147.789	-0.254	-0.021
-521.960	-45.574	0.426	-0.212
-520.945	-4.214	-0.072	0.050
-519.931	186.125	-0.247	-0.369
-518.916	268.405	0.031	0.055
-517.902	-200.000	-0.004	-0.195
-516.887	-200.000	0.033	0.157
-515.872	800.000	0.176	0.498
-514.858	800.000	0.131	-0.381
-513.843	11.997	-0.211	0.163
-512.829	647.719	0.108	0.277
-511.814	173.703	0.086	-0.124
-510.799	-146.424	-0.091	-0.008
-509.785	208.882	0.221	-0.347
-508.770	800.000	-0.148	-0.434
-507.756	131.434	-0.130	-0.168
-506.741	80.182	0.159	-0.171
-505.726	509.394	0.031	0.072
-504.712	-200.000	0.006	0.060
-503.697	-148.482	-0.065	-0.005
-502.683	-147.285	0.170	0.014
-501.668	397.414	0.059	0.124
-500.653	800.000	-0.081	0.260
-499.639	-200.000	-0.105	-0.487
-498.624	-200.000	-0.043	-0.346
-497.610	-86.004	0.180	0.056
-496.595	-170.805	-0.201	-0.007
-495.581	-108.027	-0.181	0.039
-494.566	800.000	-0.011	-0.046
-493.551	-117.864	-0.277	-0.050
-492.537	44.935	0.178	0.164
-491.522	800.000	0.038	0.105
-490.508	88.648	0.169	0.189
-489.493	-44.846	-0.118	-0.059
-488.478	-56.026	0.155	-0.069
-487.464	-14.310	-0.139	-0.090
-486.449	163.658	0.168	-0.237
-485.435	-31.921	-0.171	0.096
-484.420	-184.024	-0.110	0.002
-483.405	-111.630	-0.261	-0.053
-482.391	190.499	0.085	0.128
-481.376	377.203	-0.098	0.201
-480.362	226.295	-0.194	-0.315
-479.347	298.160	0.160	0.295
-478.332	360.324	0.174	-0.348
-477.318	-119.851	0.165	0.028
-476.303	-125.661	-0.067	-0.010
-475.289	-69.807	-0.210	0.080
-474.274	86.650	0.092	-0.102
-473.259	-103.220	-0.142	0.034
-472.245	-75.294	0.146	0.052
-471.230	21.045	0.056	-0.045
-470.216	-200.000	0.028	0.231
-469.201	-200.000	-0.087	-0.403
-468.186	-200.000	-0.013	0.229
-467.172	77.907	-0.310	0.331
-466.157	503.497	0.077	-0.179
-465.143	-35.603	0.282	0.153
-464.128	486.096	0.012	-0.027
-463.113	-9.496	0.182	-0.121
-462.099	15.150	0.052	-0.041
-461.084	-108.047	0.033	0.007
-460.070	-93.925	0.344	-0.095
-459.055	800.000	-0.026	-0.108
-458.040	725.709	0.057	-0.151
-457.026	800.000	-0.039	-0.145
-456.011	-35.598	-0.280	-0.152
-454.997	95.501	-0.169	-0.192
-453.982	-79.404	-0.130	0.044
-452.968	-16.846	0.100	-0.063
-451.953	22.210	0.113	-0.092
-450.938	200.732	-0.189	-0.291
-449.924	800.000	0.029	-0.092
-448.909	105.136	0.018	0.022
-447.895	-138.217	-0.254	0.028
-446.880	271.828	0.081	0.142
-445.865	-116.578	-0.163	-0.030
-444.851	-109.327	0.365	0.077
-443.836	147.848	0.125	0.169
-442.822	-137.132	0.187	-0.021
-441.807	-200.000	-0.030	0.198
-440.792	26.287	-0.294	0.245
-439.778	-200.000	0.036	-0.279
-438.763	-200.000	-0.035	-0.246
-437.749	42.084	-0.107	0.097
-436.734	800.000	0.188	0.530
-435.719	-200.000	-0.042	0.322
-434.705	-106.049	-0.296	-0.067
-433.690	-46.160	0.084	0.041
-432.676	-200.000	0.025	0.118
-431.661	-59.934	0.116	-0.049
-430.646	-162.436	0.308	0.015
-429.632	56.479	-0.223	0.216
-428.617	800.000	-0.022	-0.067
-427.603	341.938	-0.070	0.136
-426.588	-163.893	-0.252	-0.012
-425.573	-137.012	0.331	0.038
-424.559	800.000	0.040	0.145
-423.544	-122.956	-0.108	-0.017
-422.530	399.219	0.189	-0.396
-421.515	189.683	0.135	-0.203
-420.500	114.763	0.110	-0.134
-419.486	66.066	0.162	-0.164
-418.471	800.000	0.041	0.157
-417.457	-150.279	-0.134	-0.010
-416.442	-6.641	-0.101	0.068
-415.428	116.775	-0.149	-0.182
-414.413	61.620	0.301	0.299
-413.398	76.311	-0.081	-0.086
-412.384	-200.000	0.011	-0.071
-411.369	-200.000	-0.036	0.218
-410.355	434.807	-0.019	-0.040
-409.340	-174.284	-0.223	0.006
-408.325	-148.417	-0.329	0.027
-407.311	-106.692	0.220	-0.049
-406.296	-200.000	0.021	-0.277
-405.282	-41.256	0.303	0.156
-404.267	800.000	-0.070	-0.225
-403.252	16.221	0.099	0.078
-402.238	-200.000	-0.051	0.238
-401.223	-46.104	-0.264	-0.130
-400.209	-52.827	-0.238	0.109
-399.194	-200.000	0.023	0.102
-398.179	-6.760	-0.222	-0.151
-397.165	-177.908	0.196	-0.005
-396.150	-46.787	0.350	-0.171
-395.136	-132.090	-0.333	0.043
-394.121	342.575	0.130	0.254
-393.106	69.168	-0.129	-0.132
-392.092	-0.388	-0.170	0.120
-391.077	-200.000	-0.029	0.319
-390.063	-200.000	-0.037	-0.171
-389.048	-200.000	0.005	-0.037
-388.033	95.730	0.211	-0.241
-387.019	1.940	0.056	0.041
-386.004	-149.399	-0.249	-0.020
-384.990	-112.139	0.056	-0.011
-383.975	-200.000	-0.011	0.091
-382.960	-200.000	0.075	0.344
-381.946	-47.238	-0.197	0.096
-380.931	-200.000	-0.330	0.000
-379.917	-19.269	0.226	-0.140
-378.902	-83.239	-0.220	0.071
-377.888	-49.112	-0.415	-0.198
-376.873	349.639	0.132	-0.261
-375.858	800.000	0.052	0.154
-374.844	74.127	-0.071	0.075
-373.829	-51.258	-0.151	0.070
-372.815	-115.403	0.245	-0.046
-371.800	-90.195	-0.179	-0.052
-370.785	253.197	-0.124	-0.211
-369.771	-200.000	-0.014	-0.099
-368.756	-57.736	0.287	-0.125
-367.742	-200.000	0.016	0.165
-366.727	326.405	0.106	-0.203
-365.712	-76.831	-0.190	-0.066
-364.698	626.865	0.024	0.060
-363.683	800.000	0.019	-0.054
-362.669	723.048	0.010	-0.028
-361.654	-132.404	0.425	0.055
-360.639	84.484	0.162	0.177
-359.625	-79.048	-0.362	0.123
-358.610	-50.179	0.178	0.084
-357.596	489.419	-0.122	0.278
-356.581	78.512	-0.086	-0.092
-355.566	-23.645	0.290	-0.174
-354.552	0.890	-0.196	0.140
-353.537	-118.075	0.249	0.044
-352.523	3.288	-0.029	0.021
-351.508	325.810	0.073	0.140
-350.493	319.671	-0.036	0.068
-349.479	-51.605	0.289	-0.134
-348.464	-80.122	-0.255	0.085
-347.450	-77.599	-0.192	0.066
-346.435	156.401	0.070	-0.096
-345.420	-200.000	-0.490	-0.001
-344.406	42.642	0.234	-0.212
-343.391	-48.149	0.088	0.043
-342.377	-200.000	-0.004	0.314
-341.362	-75.807	-0.237	-0.084
-340.348	155.757	0.150	-0.206
-339.333	-187.421	-0.157	-0.002
-338.318	147.174	0.074	0.100
-337.304	272.982	0.054	-0.095
-336.289	402.173	0.088	0.184
-335.275	124.271	-0.095	0.118
-334.260	-137.705	-0.092	-0.010
-333.245	800.000	0.031	0.099
-332.231	-200.000	-0.031	-0.210
-331.216	-121.720	-0.224	-0.037
-330.202	-200.000	0.056	-0.357
-329.187	74.767	-0.093	-0.097
-328.172	145.942	0.166	-0.221
-327.158	120.283	0.173	-0.214
-326.143	-179.276	0.098	-0.002
-325.129	-47.094	-0.164	-0.080
-324.114	-136.088	-0.120	0.014
-323.099	-43.070	-0.174	0.088
-322.085	-65.367	0.143	-0.057
-321.070	401.131	-0.081	0.169
-320.056	37.292	0.077	0.068
-319.041	-200.000	0.008	0.340
-318.026	800.000	0.099	-0.390
-317.012	-58.236	0.081	0.035
-315.997	-86.369	0.116	-0.035
-314.983	-53.609	0.273	0.124
-313.968	-200.000	0.013	-0.171
-312.953	-200.000	-0.017	0.446
-311.939	-147.887	-0.271	-0.022
-310.924	-66.834	-0.328	0.129
-309.910	57.047	-0.091	0.088
-308.895	731.509	-0.079	0.211
-307.880	297.253	0.139	-0.253
-306.866	-44.306	-0.327	0.163
-305.851	-200.000	-0.008	0.128
-304.837	35.531	0.222	-0.194
-303.822	278.925	0.051	0.091
-302.807	225.846	0.022	-0.036
-301.793	-200.000	-0.003	-0.173
-300.778	-200.000	0.002	-0.111
-299.764	-134.058	0.328	-0.040
-298.749	234.258	-0.144	0.235
-297.735	-90.833	0.246	-0.070
-296.720	-200.000	0.011	0.177
-295.705	306.643	0.244	-0.452
-294.691	-75.328	-0.164	-0.058
-293.676	-27.340	-0.051	0.029
-292.662	191.694	-0.139	-0.207
-291.647	-49.996	0.218	-0.103
-290.632	-131.408	0.272	0.036
-289.618	800.000	0.046	0.148
-288.603	-200.000	0.006	0.156
-287.589	-121.015	0.230	0.038
-286.574	-163.101	0.136	0.007
-285.559	800.000	0.077	0.221
-284.545	-161.697	0.059	-0.003
-283.530	10.695	0.209	0.158
-282.516	-98.302	0.114	-0.029
-281.501	-19.821	0.208	-0.128
-280.486	87.006	-0.042	0.046
-279.472	-144.531	0.180	0.017
-278.457	-200.000	-0.032	0.323
-277.443	182.582	0.122	0.179
-276.428	-200.000	0.010	0.106
-275.413	-200.000	-0.039	-0.203
-274.399	347.519	0.218	0.426
-273.384	-48.833	-0.238	-0.113
-272.370	800.000	0.202	-0.570
-271.355	37.161	0.149	0.131
-270.340	-62.810	-0.066	-0.027
-269.326	-200.000	0.058	0.342
-268.311	-200.000	-0.008	-0.319
-267.297	-10.576	-0.298	-0.196
-266.282	-200.000	-0.007	0.124
-265.267	800.000	-0.063	0.256
-264.253	-44.115	0.083	0.042
-263.238	342.082	-0.095	-0.185
-262.224	-60.728	-0.117	0.049
-261.209	-200.000	0.014	-0.088
-260.195	335.443	0.081	-0.155
-259.180	-200.000	-0.016	-0.142
-258.165	-11.059	0.281	0.184
-257.151	-41.827	-0.287	0.146
-256.136	800.000	-0.005	0.015
-255.122	61.302	-0.071	0.070
-254.107	-200.000	-0.049	0.302
-253.092	-200.000	0.050	0.482
-252.078	15.293	0.021	0.016
-251.063	-95.858	-0.181	0.048
-250.049	4.992	-0.251	0.184
-249.034	83.842	-0.225	0.243
-248.019	-58.725	0.121	0.052
-247.005	-115.804	-0.151	-0.028
-245.990	-200.000	0.001	0.079
-244.976	248.034	0.035	0.059
-243.961	26.728	-0.078	-0.065
-242.946	118.603	-0.086	-0.106
-241.932	30.023	-0.049	0.041
-240.917	-200.000	-0.020	0.224
-239.903	48.857	0.084	-0.079
-238.888	44.663	-0.196	-0.179
-237.873	800.000	-0.036	-0.124
-236.859	800.000	0.073	-0.199
-235.844	-200.000	0.001	-0.017
-234.830	58.616	-0.105	0.102
-233.815	15.085	-0.246	0.191
-232.800	6.228	-0.304	0.224
-231.786	800.000	-0.088	-0.303
-230.771	127.956	0.151	-0.190
-229.757	-54.296	-0.133	0.060
-228.742	26.932	0.072	-0.060
-227.727	-83.681	0.195	-0.062
-226.713	-101.520	0.144	-0.035
-225.698	-107.591	-0.167	0.036
-224.684	800.000	-0.047	0.147
-223.669	170.941	0.277	-0.394
-222.655	20.008	0.090	0.072
-221.640	384.801	0.173	-0.354
-220.625	-200.000	-0.014	-0.154
-219.611	-200.000	0.052	0.253
-218.596	363.947	0.129	0.257
-217.582	23.151	0.359	-0.292
-216.567	-200.000	-0.016	-0.227
-215.552	800.000	-0.054	0.205
-214.538	-200.000	0.006	-0.114
-213.523	-178.964	0.087	-0.002
-212.509	-200.000	-0.073	-0.317
-211.494	-200.000	-0.034	0.213
-210.479	-111.455	-0.191	0.039
-209.465	-200.000	-0.012	-0.065
-208.450	25.988	0.180	0.149
-207.436	-17.022	0.356	0.222
-206.421	692.491	0.076	-0.197
-205.406	0.406	0.227	0.161
-204.392	-105.879	0.101	-0.023
-203.377	-97.050	0.253	-0.066
-202.363	387.409	0.099	0.203
-201.348	28.606	0.228	-0.191
-200.333	-88.338	0.153	-0.045
-199.319	-86.708	0.039	0.012
-198.304	-70.213	0.073	0.027
-197.290	-200.000	-0.005	-0.063
-196.275	759.471	-0.036	0.096
-195.260	86.939	-0.220	-0.241
-194.246	53.648	0.087	-0.083
-193.231	-80.714	-0.165	-0.054
-192.217	-200.000	-0.005	-0.044
-191.202	138.968	0.138	0.179
-190.187	-126.457	-0.072	0.011
-189.173	-171.829	-0.201	0.007
-188.158	-65.002	0.271	-0.108
-187.144	-76.778	-0.282	0.098
-186.129	-106.271	0.086	-0.019
-185.114	53.579	0.296	0.281
-184.100	-200.000	-0.007	-0.399
-183.085	465.886	-0.077	-0.171
-182.071	-200.000	-0.029	0.308
-181.056	50.106	0.213	0.199
-180.042	702.044	-0.039	0.101
-179.027	92.736	0.102	-0.114
-178.012	-25.645	-0.364	-0.212
-176.998	52.853	-0.039	-0.037
-175.983	428.170	0.117	0.250
-174.969	800.000	-0.125	-0.473
-173.954	78.799	0.164	-0.174
-172.939	17.462	-0.223	0.175
-171.925	-10.316	-0.063	-0.041
-170.910	36.600	0.234	0.204
-169.896	-81.453	-0.209	0.068
-168.881	-79.170	0.338	-0.113
-167.866	59.845	0.154	0.151
-166.852	-99.266	0.140	0.035
-165.837	214.226	0.123	-0.192
-164.823	-80.773	0.204	0.067
-163.808	-124.381	-0.246	-0.038
-162.793	-34.112	0.323	-0.176
-161.779	47.929	-0.180	-0.166
-160.764	-54.425	0.381	-0.171
-159.750	31.189	-0.203	0.172
-158.735	190.898	-0.089	-0.133
-157.720	174.845	-0.122	-0.175
-156.706	-200.000	-0.015	-0.257
-155.691	-29.875	0.086	-0.048
-154.677	61.643	0.107	0.106
-153.662	800.000	-0.076	-0.250
-152.647	-200.000	-0.031	0.151
-151.633	189.993	-0.089	-0.132
-150.618	-200.000	0.034	-0.387
-149.604	-79.540	0.404	0.135
-148.589	-200.000	-0.035	0.364
-147.574	500.931	0.106	-0.242
-146.560	37.494	0.191	0.167
-145.545	-165.617	-0.088	-0.004
-144.531	-200.000	-0.037	0.162
-143.516	36.511	0.048	-0.042
-142.502	34.212	-0.052	-0.045
-141.487	-102.034	0.089	0.021
-140.472	-84.152	0.142	-0.045
-139.458	60.826	-0.157	0.154
-138.443	800.000	-0.099	-0.332
-137.429	-36.711	0.205	0.109
-136.414	-200.000	0.021	-0.235
-135.399	110.421	-0.168	0.200
-134.385	312.546	0.099	0.184
-133.370	-15.658	-0.204	-0.128
-132.356	-61.436	0.119	-0.050
-131.341	784.077	-0.129	0.348
-130.326	415.199	0.041	0.086
-129.312	-200.000	0.033	-0.212
-128.297	-22.516	-0.205	-0.122
-127.283	627.053	0.009	0.021
-126.268	-200.000	-0.012	-0.254
-125.253	800.000	-0.045	-0.131
-124.239	-200.000	0.022	0.151
-123.224	-71.050	0.032	0.012
-122.210	-200.000	-0.031	-0.143
-121.195	124.830	0.100	-0.124
-120.180	267.679	0.037	0.063
-119.166	-163.361	0.084	-0.004
-118.151	-138.111	-0.279	-0.031
-117.137	-48.286	-0.420	0.200
-116.122	99.840	0.344	0.393
-115.107	9.672	0.144	-0.108
-114.093	229.063	-0.179	-0.288
-113.078	92.880	-0.048	0.054
-112.064	-119.615	0.298	0.051
-111.049	24.901	-0.211	-0.172
-110.034	-126.058	-0.377	-0.056
-109.020	667.733	-0.076	-0.194
-108.005	-1.625	-0.237	-0.164
-106.991	502.427	0.029	0.066
-105.976	800.000	-0.057	-0.203
-104.962	390.826	-0.086	-0.176
-103.947	-200.000	-0.036	0.191
-102.932	152.214	-0.060	-0.080
-101.918	-76.647	-0.170	0.059
-100.903	-13.833	0.215	-0.137
-99.889	93.980	0.134	-0.150
-98.874	-143.719	0.266	-0.025
-97.859	-200.000	0.001	0.083
-96.845	5.707	0.222	0.162
-95.830	-2.625	0.076	0.053
-94.816	-5.933	-0.131	0.088
-93.801	-200.000	0.031	-0.203
-92.786	19.503	-0.244	-0.194
-91.772	442.723	-0.020	-0.043
-90.757	121.070	-0.181	-0.222
-89.743	86.052	0.035	0.038
-88.728	518.819	-0.008	0.019
-87.713	481.454	0.093	0.209
-86.699	-200.000	-0.077	0.356
-85.684	-78.128	0.083	-0.028
-84.670	167.559	-0.243	-0.341
-83.655	-200.000	-0.038	0.262
-82.640	-123.533	0.157	0.025
-81.626	57.803	-0.237	-0.229
-80.611	-67.765	0.158	-0.061
-79.597	121.207	0.153	-0.187
-78.582	-200.000	-0.003	0.016
-77.567	203.653	0.106	0.162
-76.553	47.127	0.176	-0.161
-75.538	-92.483	0.245	0.068
-74.524	800.000	-0.034	0.114
-73.509	-103.526	0.409	0.095
-72.494	99.909	0.044	-0.050
-71.480	-116.397	-0.156	-0.028
-70.465	181.236	0.100	-0.145
-69.451	280.101	0.118	-0.207
-68.436	-93.803	0.253	0.069
-67.422	-103.738	0.501	-0.116
-66.407	116.318	-0.211	0.254
-65.392	-33.054	-0.079	0.043
-64.378	264.354	0.241	-0.413
-63.363	445.602	-0.056	0.122
-62.349	99.412	-0.077	0.088
-61.334	165.291	-0.812	-1.130
-60.319	793.757	0.169	0.458
-59.305	800.000	-0.175	-0.677
-58.290	206.581	0.489	0.750
-57.276	800.000	0.658	1.890
-56.261	-200.000	98.424	596.847
-55.246	536.376	1416.491	3310.591
-54.232	150.111	2619.678	3499.288
-53.217	105.500	2297.564	2672.981
-52.203	42.377	1912.282	1711.599
-51.188	36.448	1701.768	1477.929
-50.173	33.692	1657.594	1418.936
-49.159	51.855	1705.124	1597.616
-48.144	53.994	1721.913	1629.474
-47.130	36.145	1679.709	1456.255
-46.115	33.304	1665.458	1422.526
-45.100	33.076	1660.659	1416.663
-44.086	33.127	1657.672	1414.433
-43.071	33.049	1655.271	1411.751
-42.057	33.079	1652.370	1409.446
-41.042	33.065	1650.835	1407.971
-40.027	33.113	1648.310	1406.121
-39.013	33.051	1646.915	1404.411
-37.998	33.006	1645.380	1402.712
-36.984	33.120	1643.645	1402.029
-35.969	33.242	1642.221	1401.663
-34.954	33.298	1640.259	1400.346
-33.940	33.266	1639.119	1399.075
-32.925	33.208	1637.276	1397.020
-31.911	33.257	1635.037	1395.415
-30.896	33.251	1633.186	1393.738
-29.881	33.269	1631.616	1392.473
-28.867	33.154	1630.184	1390.354
-27.852	33.100	1628.432	1388.409
-26.838	33.217	1627.083	1388.061
-25.823	33.249	1625.363	1386.768
-24.809	33.204	1623.841	1385.090
-23.794	33.247	1622.719	1384.391
-22.779	33.329	1621.234	1383.672
-21.765	33.182	1620.030	1381.510
-20.750	33.237	1617.535	1379.730
-19.736	33.273	1616.313	1378.899
-18.721	33.264	1615.167	1377.802
-17.706	33.245	1613.477	1376.162
-16.692	33.204	1612.088	1374.628
-15.677	33.260	1610.533	1373.651
-14.663	33.280	1609.468	1372.837
-13.648	33.225	1607.738	1370.909
-12.633	33.224	1606.336	1369.651
-11.619	33.195	1604.633	1367.932
-10.604	33.258	1603.014	1366.955
-9.590	33.244	1602.029	1365.960
-8.575	33.391	1600.249	1365.449
-7.560	33.307	1599.486	1364.135
-6.546	33.203	1598.233	1362.267
-5.531	33.225	1597.358	1361.622
-4.517	33.285	1595.573	1360.482
-3.502	33.141	1595.251	1359.117
-2.487	33.284	1593.223	1358.359
-1.473	33.130	1581.608	1347.307
-0.458	30.624	1562.971	1313.702
0.556	27.423	1564.013	1285.553
1.571	25.222	1588.079	1289.417
2.586	24.647	1601.374	1295.931
3.600	21.411	1545.923	1228.254
4.615	11.472	1432.133	1072.748
5.629	3.102	1365.859	970.381
6.644	1.843	1357.370	956.364
7.659	1.705	1356.118	954.531
8.673	1.601	1355.434	953.317
9.688	1.601	1352.970	951.499
10.702	1.227	1350.367	947.247
11.717	4.767	1357.436	974.308
12.731	15.048	1376.937	1053.211
13.746	23.860	1391.470	1120.009
14.761	25.994	1395.104	1136.301
15.775	26.289	1395.123	1138.072
16.790	26.464	1393.765	1137.967
17.804	26.529	1393.379	1137.958
18.819	26.734	1392.852	1138.718
19.834	26.832	1392.775	1139.170
20.848	26.878	1391.835	1138.590
21.863	26.934	1390.850	1138.032
22.877	26.814	1390.131	1136.588
23.892	26.873	1389.269	1136.155
24.907	26.830	1388.449	1135.113
25.921	26.839	1387.842	1134.575
26.936	26.975	1386.245	1134.016
27.950	26.832	1385.760	1132.629
28.965	26.860	1384.106	1131.353
29.980	26.839	1383.339	1130.493
30.994	26.865	1381.990	1129.454
32.009	26.844	1380.574	1128.065
33.023	26.860	1379.353	1127.067
34.038	26.891	1378.641	1126.578
35.053	26.837	1377.791	1125.446
36.067	26.873	1376.857	1124.809
37.082	26.891	1375.784	1123.945
38.096	26.795	1374.812	1122.453
39.111	26.808	1374.345	1122.054
40.126	26.754	1373.571	1120.990
41.140	26.773	1373.182	1120.693
42.155	26.875	1372.839	1120.945
43.169	26.946	1372.642	1121.119
44.184	26.694	1372.715	1119.526
45.199	26.805	1371.827	1119.386
46.213	26.791	1371.464	1118.906
47.228	26.849	1370.565	1118.428
48.242	26.861	1369.244	1117.326
49.257	26.855	1367.770	1115.988
50.271	26.789	1366.150	1114.165
51.286	26.822	1365.345	1113.607
52.301	26.957	1363.778	1113.064
53.315	26.817	1363.080	1111.535
54.330	26.807	1362.534	1110.932
55.344	26.902	1361.306	1110.412
56.359	26.876	1360.208	1109.261
57.374	26.830	1359.593	1108.380
58.388	26.858	1358.950	1107.927
59.403	26.804	1358.761	1107.345
60.417	26.776	1358.055	1106.504
61.432	26.689	1357.282	1105.241
62.447	26.856	1356.232	1105.306
63.461	26.874	1354.877	1104.212
64.476	26.905	1353.649	1103.307
65.490	26.877	1352.426	1102.042
66.505	26.817	1351.407	1100.749
67.520	26.842	1350.005	1099.660
68.534	26.905	1348.887	1099.032
69.549	26.875	1348.523	1098.461
70.563	26.879	1347.536	1097.583
71.578	26.878	1346.419	1096.570
72.593	26.904	1345.514	1095.895
73.607	26.907	1344.695	1095.147
74.622	26.853	1343.803	1093.996
75.636	26.833	1343.766	1093.748
76.651	26.923	1342.869	1093.464
77.666	26.859	1342.218	1092.453
78.680	26.885	1342.123	1092.435
79.695	26.861	1341.073	1091.342
80.709	26.902	1340.182	1090.761
81.724	26.855	1339.157	1089.549
82.739	26.869	1338.663	1089.135
83.753	26.813	1337.472	1087.736
84.768	26.848	1336.359	1086.941
85.782	26.864	1335.522	1086.261
86.797	26.865	1334.258	1085.144
87.812	26.883	1332.696	1083.888
88.826	26.954	1332.076	1083.708
89.841	26.967	1330.707	1082.577
90.855	26.867	1330.103	1081.394
91.870	26.973	1328.921	1080.968
92.884	26.870	1328.388	1079.824
93.899	26.928	1327.775	1079.577
94.914	26.951	1326.684	1078.732
95.928	26.933	1326.544	1078.416
96.943	26.984	1325.515	1077.784
97.957	26.891	1324.929	1076.660
98.972	26.991	1323.930	1076.348
99.987	26.918	1322.512	1074.669
101.001	26.985	1321.681	1074.294
102.016	26.951	1321.408	1073.773
103.030	26.952	1320.258	1072.755
104.045	26.925	1319.027	1071.499
105.060	26.930	1318.616	1071.100
106.074	26.978	1317.181	1070.121
107.089	26.939	1316.187	1068.987
108.103	26.977	1315.253	1068.363
109.118	26.955	1313.976	1067.099
110.133	27.052	1312.984	1066.766
111.147	27.016	1311.760	1065.469
112.162	27.083	1310.480	1064.729
113.176	27.017	1309.626	1063.554
114.191	27.000	1308.887	1062.756
115.206	27.137	1307.603	1062.421
116.220	26.984	1306.918	1060.878
117.235	26.951	1306.390	1060.162
118.249	27.054	1305.032	1059.566
119.264	27.111	1304.080	1059.036
120.279	27.001	1303.646	1057.949
121.293	27.084	1302.961	1057.778
122.308	27.117	1301.889	1057.009
123.322	27.100	1301.117	1056.187
124.337	27.128	1300.456	1055.720
125.352	27.057	1299.496	1054.438
126.366	26.944	1299.153	1053.412
127.381	27.039	1297.960	1052.899
128.395	26.988	1297.201	1051.894
129.410	27.020	1296.219	1051.193
130.424	27.101	1295.266	1050.792
131.439	26.960	1295.111	1049.758
132.454	27.053	1293.851	1049.184
133.468	26.890	1293.860	1048.153
134.483	26.976	1292.800	1047.702
135.497	27.049	1291.741	1047.171
136.512	26.978	1291.272	1046.291
137.527	27.036	1289.568	1045.147
138.541	26.970	1288.305	1043.656
139.556	27.028	1287.214	1043.011
140.570	27.042	1286.340	1042.293
141.585	27.005	1285.324	1041.161
142.600	27.138	1284.017	1040.772
143.614	27.125	1283.440	1040.141
144.629	26.994	1282.436	1038.484
145.643	27.028	1281.179	1037.570
146.658	26.887	1280.472	1036.097
147.673	26.968	1279.721	1035.865
148.687	27.041	1278.351	1035.077
149.702	26.972	1277.337	1033.775
150.716	26.980	1276.293	1032.880
151.731	26.968	1275.838	1032.356
152.746	27.049	1274.279	1031.460
153.760	27.020	1273.388	1030.485
154.775	27.009	1272.858	1029.901
155.789	27.043	1271.465	1028.876
156.804	26.975	1270.957	1027.989
157.819	27.005	1270.058	1027.343
158.833	27.100	1268.978	1026.912
159.848	27.132	1268.142	1026.326
160.862	27.188	1267.477	1026.012
161.877	27.054	1266.917	1024.712
162.892	27.140	1265.792	1024.200
163.906	27.060	1265.468	1023.393
164.921	27.165	1264.714	1023.283
165.935	27.079	1264.035	1022.162
166.950	27.115	1263.584	1021.907
167.964	27.121	1262.813	1021.229
168.979	27.061	1262.121	1020.242
169.994	27.193	1261.625	1020.492
171.008	27.355	1260.397	1020.315
172.023	27.294	1259.809	1019.410
173.037	27.168	1259.400	1018.282
174.052	27.186	1258.400	1017.485
175.067	27.228	1257.700	1017.061
176.081	27.141	1257.135	1016.028
177.096	27.227	1256.351	1015.785
178.110	27.182	1255.189	1014.506
179.125	27.202	1254.526	1013.990
180.140	27.200	1253.548	1013.102
181.154	27.127	1252.410	1011.683
182.169	27.115	1251.460	1010.758
183.183	27.164	1250.300	1010.008
184.198	27.059	1249.566	1008.739
185.213	27.260	1248.130	1008.608
186.227	27.247	1247.311	1007.782
187.242	27.229	1246.773	1007.159
188.256	27.230	1246.108	1006.538
189.271	27.231	1244.768	1005.375
190.286	27.279	1244.271	1005.149
191.300	27.262	1243.653	1004.465
192.315	27.262	1243.045	1003.887
193.329	27.229	1243.022	1003.597
194.344	27.313	1242.277	1003.370
195.359	27.329	1242.031	1003.171
196.373	27.147	1241.314	1001.497
197.388	27.158	1241.113	1001.310
198.402	27.259	1240.787	1001.516
199.417	27.197	1240.447	1000.811
200.432	27.192	1239.607	1000.016
201.446	27.278	1238.919	999.847
202.461	27.221	1238.278	998.924
203.475	27.385	1237.056	998.753
204.490	27.342	1236.287	997.808
205.504	27.230	1235.486	996.460
206.519	27.275	1234.632	995.927
207.534	27.271	1233.522	994.925
208.548	27.299	1232.896	994.481
209.563	27.330	1231.755	993.643
210.577	27.404	1231.200	993.511
211.592	27.276	1230.565	992.216
212.607	27.385	1230.001	992.265
213.621	27.462	1228.998	991.787
214.636	27.380	1228.168	990.586
215.650	27.390	1227.089	989.681
216.665	27.308	1226.547	988.711
217.680	27.406	1225.256	988.113
218.694	27.375	1224.859	987.538
219.709	27.305	1224.019	986.392
220.723	27.425	1223.560	986.589
221.738	27.393	1222.553	985.514
222.753	27.296	1221.973	984.434
223.767	27.321	1221.585	984.171
224.782	27.408	1220.680	983.825
225.796	27.425	1220.300	983.522
226.811	27.393	1219.788	982.850
227.826	27.506	1219.153	982.863
228.840	27.460	1218.637	982.109
229.855	27.328	1218.082	980.866
230.869	27.534	1216.742	980.808
231.884	27.478	1216.163	979.955
232.899	27.515	1215.302	979.372
233.913	27.506	1214.958	978.959
234.928	27.550	1214.398	978.655
235.942	27.668	1213.716	978.654
236.957	27.561	1213.196	977.573
237.972	27.424	1212.787	976.423
238.986	27.481	1212.112	976.102
240.001	27.550	1211.657	976.017
241.015	27.618	1210.653	975.486
242.030	27.590	1210.284	974.954
243.045	27.667	1208.747	974.040
244.059	27.572	1208.273	973.062
245.074	27.715	1207.497	973.118
246.088	27.608	1206.692	971.810
247.103	27.710	1205.786	971.541
248.117	27.673	1205.315	970.875
249.132	27.517	1204.846	969.579
250.147	27.777	1203.554	969.839
251.161	27.681	1203.098	968.873
252.176	27.711	1201.935	968.009
253.190	27.623	1201.935	967.460
254.205	27.685	1201.089	967.023
255.220	27.606	1200.532	966.066
256.234	27.755	1199.602	966.022
257.249	27.735	1199.146	965.463
258.263	27.772	1198.483	965.041
259.278	27.746	1198.482	964.820
260.293	27.672	1197.718	963.724
261.307	27.867	1197.264	964.307
262.322	27.792	1196.578	963.270
263.336	27.725	1195.913	962.299
264.351	27.675	1195.376	961.518
265.366	27.738	1194.742	961.256
266.380	27.811	1193.777	960.775
267.395	27.788	1192.997	959.944
268.409	27.745	1192.699	959.393
269.424	27.728	1192.166	958.787
270.439	27.838	1191.810	958.998
271.453	27.864	1190.556	958.041
272.468	27.804	1190.400	957.515
273.482	27.800	1189.553	956.726
274.497	27.831	1189.187	956.508
275.512	27.902	1188.700	956.407
276.526	27.828	1187.709	955.137
277.541	27.883	1186.974	954.750
278.555	27.896	1186.632	954.456
279.570	27.878	1185.955	953.735
280.585	27.952	1184.519	952.880
281.599	27.802	1184.230	951.782
282.614	27.870	1183.433	951.408
283.628	27.917	1182.496	950.816
284.643	27.893	1181.924	950.147
285.657	27.925	1180.458	949.054
286.672	27.792	1179.880	947.815
287.687	28.030	1179.129	948.361
288.701	28.130	1178.468	948.263
289.716	28.020	1177.849	947.114
290.730	28.064	1177.044	946.608
291.745	28.043	1176.104	945.661
292.760	28.062	1175.651	945.311
293.774	28.067	1175.481	945.117
294.789	28.125	1174.584	944.612
295.803	28.070	1174.480	944.158
296.818	28.029	1173.475	943.056
297.833	28.077	1172.757	942.644
298.847	28.108	1172.411	942.444
299.862	28.016	1171.618	941.246
300.876	28.040	1170.833	940.658
301.891	28.133	1170.443	940.741
302.906	28.133	1169.459	939.863
303.920	28.166	1168.881	939.485
304.935	28.256	1168.460	939.525
305.949	28.250	1167.679	938.785
306.964	28.118	1167.217	937.656
307.979	28.243	1166.621	937.732
308.993	28.166	1165.840	936.629
310.008	28.252	1165.003	936.313
311.022	28.218	1164.298	935.489
312.037	28.297	1163.286	934.997
313.052	28.193	1162.617	933.845
314.066	28.193	1162.003	933.268
315.081	28.118	1161.275	932.217
316.095	28.140	1160.616	931.719
317.110	28.264	1159.950	931.735
318.125	28.317	1159.096	931.233
319.139	28.106	1158.995	929.997
320.154	28.340	1157.650	930.024
321.168	28.356	1157.549	929.944
322.183	28.330	1156.953	929.250
323.197	28.391	1156.164	928.842
324.212	28.323	1155.713	928.056
325.227	28.313	1155.417	927.687
326.241	28.380	1154.870	927.504
327.256	28.459	1153.811	926.968
328.270	28.410	1153.185	926.137
329.285	28.429	1151.961	925.167
330.300	28.439	1151.498	924.763
331.314	28.459	1150.493	923.976
332.329	28.496	1149.688	923.433
333.343	28.352	1149.212	922.243
334.358	28.536	1148.414	922.450
335.373	28.514	1148.047	921.960
336.387	28.493	1147.534	921.363
337.402	28.472	1146.937	920.697
338.416	28.462	1146.445	920.172
339.431	28.494	1145.625	919.593
340.446	28.597	1144.519	919.137
341.460	28.671	1143.900	918.928
342.475	28.581	1143.289	917.909
343.489	28.682	1142.103	917.377
344.504	28.461	1142.049	916.151
345.519	28.630	1140.940	916.022
346.533	28.648	1140.280	915.500
347.548	28.628	1139.515	914.708
348.562	28.658	1138.681	914.107
349.577	28.585	1138.030	913.139
350.592	28.549	1137.352	912.333
351.606	28.483	1136.604	911.328
352.621	28.647	1135.940	911.528
353.635	28.719	1134.893	910.963
354.650	28.647	1134.468	910.185
355.665	28.749	1133.976	910.213
356.679	28.715	1133.148	909.300
357.694	28.693	1133.014	909.007
358.708	28.792	1131.895	908.517
359.723	28.784	1131.454	908.041
360.738	28.686	1130.799	906.954
361.752	28.708	1130.507	906.747
362.767	28.805	1130.036	906.767
363.781	28.840	1129.354	906.311
364.796	28.781	1128.685	905.405
365.810	28.834	1128.040	905.070
366.825	28.880	1127.352	904.662
367.840	28.874	1127.319	904.526
368.854	28.991	1126.629	904.470
369.869	28.832	1125.961	903.072
370.883	28.860	1125.051	902.396
371.898	28.899	1124.389	901.979
372.913	29.012	1123.670	901.875
373.927	28.912	1123.240	900.961
374.942	28.941	1122.888	900.739
375.956	28.932	1122.542	900.337
376.971	29.050	1121.519	900.019
377.986	29.088	1120.740	899.500
379.000	29.091	1120.653	899.365
380.015	29.019	1120.336	898.678
381.029	28.999	1119.547	897.869
382.044	28.936	1118.936	896.989
383.059	28.998	1118.165	896.596
384.073	29.094	1117.064	896.100
385.088	29.177	1116.331	895.838
386.102	29.058	1115.944	894.870
387.117	28.860	1115.235	893.258
388.132	28.965	1114.215	892.871
389.146	29.052	1113.532	892.667
390.161	29.045	1113.088	892.201
391.175	28.997	1112.403	891.339
392.190	29.137	1111.693	891.367
393.205	29.126	1110.940	890.633
394.219	29.126	1109.768	889.612
395.234	29.287	1109.114	889.790
396.248	29.217	1108.575	888.939
397.263	29.250	1107.488	888.146
398.278	29.091	1107.540	887.344
399.292	29.275	1106.767	887.532
400.307	29.276	1106.231	887.027
401.321	29.294	1105.373	886.350
402.336	29.344	1104.645	885.929
403.350	29.208	1104.399	885.001
404.365	29.213	1103.703	884.387
405.380	29.190	1103.190	883.785
406.394	29.304	1101.932	883.246
407.409	29.470	1101.372	883.513
408.423	29.445	1100.674	882.755
409.438	29.430	1099.833	881.934
410.453	29.382	1099.256	881.161
411.467	29.432	1098.286	880.545
412.482	29.484	1097.660	880.215
413.496	29.443	1097.020	879.426
414.511	29.403	1096.765	878.954
415.526	29.451	1096.064	878.544
416.540	29.410	1095.744	878.016
417.555	29.448	1095.452	877.883
418.569	29.606	1094.517	877.809
419.584	29.457	1094.511	877.015
420.599	29.443	1094.122	876.562
421.613	101.442	1321.900	1451.328
422.628	94.604	1355.069	1451.416
