DTS Sentinel unit serial number:	SN413079Multiplexer serial number:	ORYXHardware model number:	OX4-SRSoftware version number:	ORYX F/W v4.00 Oryx Data Collector v3.7.2.0data status	okinstallation	princeton_trtdifferential loss correction	single-endedforward channel	channel 2reverse channel	N/Adate	2019/09/15time	03:35:35forward acquisition time	60.00reverse acquisition time	0.00gamma	496.2192k internal	0.2326k external	0.2326temperature offset calibration	1.0033default loss term (dB/km)	0.3790temperature slope calibration	1.0000multiplexer offset coefficient	1.0000multiplexer slope coefficient	1.0000fibre end	0.00T internal ref (°C)	31.00T ext. ref 1 (°C)	4.61T ext. ref 2 (°C)	25.81length (m)	temperature (°C)	Stokes	anti-Stokes-747.200	800.000	-0.061	-0.193
-746.185	-117.397	-0.268	0.049
-745.171	366.886	-0.086	0.174
-744.156	206.595	0.145	0.227
-743.142	-125.436	0.299	-0.046
-742.127	403.432	0.143	0.304
-741.112	25.571	0.185	0.156
-740.098	88.341	-0.021	-0.023
-739.083	164.893	0.134	-0.190
-738.069	237.178	0.098	0.163
-737.054	-133.106	0.310	0.040
-736.039	-165.222	0.210	0.009
-735.025	7.295	0.219	-0.165
-734.010	99.966	-0.172	-0.201
-732.996	800.000	0.125	-0.408
-731.981	342.859	-0.050	0.098
-730.966	-20.828	-0.123	0.076
-729.952	6.945	-0.194	-0.146
-728.937	-171.801	0.408	-0.013
-727.923	625.739	-0.049	-0.125
-726.908	6.205	-0.192	0.143
-725.894	56.026	-0.037	0.036
-724.879	-200.000	0.018	-0.496
-723.864	-200.000	0.021	-0.123
-722.850	-119.046	-0.285	-0.050
-721.835	342.996	-0.082	-0.161
-720.821	208.921	0.188	-0.296
-719.806	131.991	0.160	0.208
-718.791	-200.000	-0.027	-0.374
-717.777	630.022	-0.085	-0.215
-716.762	-200.000	0.070	-0.321
-715.748	-1.132	-0.101	0.072
-714.733	-6.516	0.159	-0.109
-713.718	-200.000	0.115	-0.589
-712.704	-151.494	0.227	0.017
-711.689	2.832	0.317	-0.232
-710.675	43.825	-0.152	-0.140
-709.660	-107.343	0.489	0.108
-708.645	347.130	-0.066	0.130
-707.631	56.373	-0.237	0.232
-706.616	-168.454	-0.446	-0.017
-705.602	114.641	0.187	-0.230
-704.587	92.504	0.168	-0.191
-703.572	-200.000	0.009	-0.088
-702.558	-95.933	0.330	0.089
-701.543	-200.000	-0.003	-0.142
-700.529	-62.619	-0.148	0.062
-699.514	-5.012	0.128	-0.088
-698.499	-61.668	-0.366	-0.154
-697.485	-200.000	-0.036	-0.203
-696.470	-50.701	-0.057	0.027
-695.456	-89.643	0.211	-0.062
-694.441	145.229	0.100	-0.135
-693.426	133.563	0.252	0.328
-692.412	800.000	-0.074	-0.216
-691.397	-74.118	-0.103	-0.038
-690.383	-200.000	-0.104	-0.474
-689.368	-78.486	0.531	0.183
-688.354	-58.180	0.085	0.037
-687.339	77.550	-0.289	-0.309
-686.324	-200.000	0.007	0.143
-685.310	31.823	-0.180	-0.156
-684.295	800.000	0.037	-0.118
-683.281	-60.794	-0.189	0.081
-682.266	-94.285	-0.109	-0.030
-681.251	98.648	-0.110	-0.127
-680.237	-21.908	0.398	0.243
-679.222	-142.916	-0.246	0.024
-678.208	-56.115	-0.215	-0.096
-677.193	69.022	0.085	-0.088
-676.178	-200.000	-0.103	-0.491
-675.164	654.457	-0.118	0.305
-674.149	-154.575	0.217	0.015
-673.135	-164.431	0.110	-0.005
-672.120	800.000	-0.024	-0.105
-671.105	101.229	0.249	-0.291
-670.091	-200.000	-0.047	-0.434
-669.076	-67.644	-0.406	-0.160
-668.062	-184.105	-0.061	-0.001
-667.047	104.592	0.073	-0.087
-666.032	-60.386	-0.266	-0.114
-665.018	415.148	0.142	-0.304
-664.003	84.054	-0.125	-0.137
-662.989	-118.550	0.073	-0.013
-661.974	800.000	-0.123	-0.542
-660.959	4.467	-0.259	-0.191
-659.945	-200.000	-0.051	-0.294
-658.930	517.932	0.042	-0.098
-657.916	549.726	0.083	0.200
-656.901	459.490	-0.057	0.128
-655.886	5.370	0.153	0.114
-654.872	25.894	-0.316	-0.265
-653.857	738.104	-0.036	-0.096
-652.843	-200.000	-0.017	-0.225
-651.828	-200.000	0.106	-0.486
-650.814	349.594	0.033	-0.066
-649.799	-170.368	-0.144	0.005
-648.784	-200.000	-0.045	-0.200
-647.770	192.154	0.090	0.136
-646.755	200.624	-0.065	-0.101
-645.741	161.803	0.276	-0.388
-644.726	359.539	-0.128	0.257
-643.711	-200.000	0.017	0.227
-642.697	520.570	-0.089	0.209
-641.682	194.946	0.187	-0.286
-640.668	-34.033	0.037	0.020
-639.653	-25.081	0.094	-0.056
-638.638	-200.000	0.021	-0.236
-637.624	-200.000	-0.048	-0.234
-636.609	-158.847	0.303	0.017
-635.595	38.232	-0.156	0.140
-634.580	66.454	0.086	0.088
-633.565	-101.879	0.214	-0.052
-632.551	-178.022	-0.150	-0.004
-631.536	-4.138	0.206	-0.144
-630.522	-90.521	0.234	-0.068
-629.507	-74.906	-0.313	0.113
-628.492	800.000	0.040	0.172
-627.478	800.000	-0.029	0.099
-626.463	-14.893	-0.309	0.199
-625.449	24.202	0.185	0.153
-624.434	59.364	0.119	-0.117
-623.419	126.706	-0.065	-0.082
-622.405	-8.085	-0.357	-0.242
-621.390	20.606	-0.142	0.115
-620.376	-159.260	0.084	0.005
-619.361	-132.063	-0.258	-0.034
-618.346	45.768	0.323	0.300
-617.332	66.910	-0.278	-0.284
-616.317	65.647	0.262	-0.266
-615.303	800.000	0.057	-0.187
-614.288	-44.530	0.178	-0.090
-613.273	-25.202	-0.237	0.141
-612.259	583.112	-0.037	-0.090
-611.244	55.185	-0.330	-0.320
-610.230	-184.982	0.234	0.004
-609.215	-124.117	-0.253	0.040
-608.201	-110.908	0.073	-0.015
-607.186	-200.000	-0.038	0.195
-606.171	-200.000	0.005	0.179
-605.157	59.167	0.166	-0.164
-604.142	-4.965	0.142	-0.098
-603.128	567.747	-0.126	0.307
-602.113	695.249	0.111	0.292
-601.098	-96.062	0.244	0.065
-600.084	-76.198	0.208	0.073
-599.069	-68.163	0.350	0.137
-598.055	800.000	-0.117	0.339
-597.040	-81.933	-0.072	0.024
-596.025	-200.000	-0.071	-0.479
-595.011	-200.000	-0.010	-0.306
-593.996	800.000	-0.049	0.150
-592.982	-38.967	0.199	-0.105
-591.967	733.492	-0.144	-0.387
-590.952	-43.047	0.253	-0.129
-589.938	34.811	0.307	0.269
-588.923	25.788	0.196	-0.163
-587.909	-172.687	-0.306	0.010
-586.894	60.740	-0.252	-0.250
-585.879	-200.000	0.007	0.035
-584.865	467.605	-0.106	0.238
-583.850	-200.000	0.195	-0.001
-582.836	691.003	0.047	0.124
-581.821	-25.665	-0.049	-0.029
-580.806	269.805	0.102	-0.180
-579.792	12.257	0.152	0.117
-578.777	-200.000	-0.018	0.166
-577.763	23.818	0.071	0.058
-576.748	137.216	-0.244	0.320
-575.733	173.669	-0.225	0.326
-574.719	-132.923	-0.189	0.024
-573.704	591.363	-0.063	0.155
-572.690	41.384	0.226	0.205
-571.675	37.279	0.126	-0.112
-570.661	-41.827	-0.220	0.113
-569.646	-138.795	-0.128	-0.014
-568.631	557.502	0.048	-0.117
-567.617	670.788	0.076	0.197
-566.602	-155.109	-0.178	-0.012
-565.588	263.626	0.128	0.224
-564.573	-190.452	-0.203	-0.002
-563.558	44.318	-0.098	-0.090
-562.544	-106.421	-0.405	0.091
-561.529	122.916	-0.130	0.163
-560.515	-124.285	-0.184	0.029
-559.500	-200.000	-0.008	-0.129
-558.485	-80.720	-0.095	0.032
-557.471	89.830	0.181	-0.203
-556.456	337.273	0.096	-0.186
-555.442	-46.701	0.162	0.079
-554.427	408.831	0.158	-0.336
-553.412	-112.392	0.191	-0.038
-552.398	-200.000	-0.002	-0.144
-551.383	552.025	-0.035	0.085
-550.369	-200.000	0.031	0.174
-549.354	65.404	-0.248	0.252
-548.339	10.479	-0.252	-0.192
-547.325	739.918	0.063	-0.169
-546.310	31.468	0.148	-0.127
-545.296	-200.000	-0.028	0.151
-544.281	800.000	-0.037	0.104
-543.266	-47.254	-0.444	0.216
-542.252	-103.421	-0.297	0.070
-541.237	213.687	-0.094	-0.149
-540.223	-200.000	-0.006	0.088
-539.208	401.854	-0.179	0.376
-538.193	88.623	-0.253	-0.282
-537.179	-39.527	-0.144	-0.076
-536.164	-200.000	0.001	0.026
-535.150	-200.000	-0.007	-0.206
-534.135	131.708	0.161	0.207
-533.121	25.259	-0.213	0.177
-532.106	-154.718	0.235	0.016
-531.091	-140.843	-0.170	-0.018
-530.077	1.930	0.127	0.091
-529.062	800.000	0.029	-0.081
-528.048	800.000	-0.055	-0.205
-527.033	-200.000	0.012	0.093
-526.018	-36.621	0.242	-0.130
-525.004	50.545	0.236	0.224
-523.989	9.812	0.379	-0.288
-522.975	488.121	0.110	-0.251
-521.960	30.996	0.163	0.140
-520.945	800.000	-0.032	0.119
-519.931	370.524	0.076	0.153
-518.916	-21.713	-0.029	0.018
-517.902	260.911	0.143	0.247
-516.887	800.000	0.091	0.273
-515.872	-100.274	0.306	0.076
-514.858	-147.091	-0.191	0.016
-513.843	-200.000	-0.033	0.402
-512.829	427.886	0.034	-0.074
-511.814	800.000	0.108	-0.337
-510.799	14.532	0.177	-0.138
-509.785	800.000	0.069	0.288
-508.770	-200.000	-0.026	0.129
-507.756	-151.674	-0.155	0.011
-506.741	32.723	0.210	-0.182
-505.726	-158.972	-0.136	0.008
-504.712	800.000	-0.045	-0.194
-503.697	-11.522	-0.155	0.102
-502.683	299.855	-0.060	0.110
-501.668	800.000	0.054	0.178
-500.653	311.202	-0.080	-0.150
-499.639	779.138	-0.096	-0.262
-498.624	-150.230	-0.173	0.013
-497.610	-154.083	-0.114	0.008
-496.595	-200.000	0.019	0.131
-495.581	-48.898	0.198	0.095
-494.566	-148.305	0.329	-0.027
-493.551	-86.364	-0.183	0.056
-492.537	51.705	0.106	-0.101
-491.522	-59.293	0.010	-0.004
-490.508	-200.000	-0.032	-0.290
-489.493	-154.773	0.199	-0.013
-488.478	-46.944	-0.062	-0.030
-487.464	127.348	0.048	-0.061
-486.449	404.951	0.184	0.388
-485.435	171.393	-0.097	-0.138
-484.420	587.204	-0.079	-0.195
-483.405	-200.000	0.001	0.280
-482.391	136.423	-0.184	0.240
-481.376	159.474	0.196	-0.273
-480.362	-200.000	-0.002	-0.231
-479.347	800.000	-0.087	0.261
-478.332	43.317	-0.142	-0.129
-477.318	109.003	-0.046	-0.054
-476.303	-149.610	0.299	0.024
-475.289	-138.038	-0.199	-0.022
-474.274	412.923	-0.076	0.161
-473.259	228.070	-0.135	-0.220
-472.245	-200.000	0.004	0.210
-471.230	-141.484	0.125	0.013
-470.216	-161.321	0.101	-0.005
-469.201	185.988	0.046	0.068
-468.186	-88.824	-0.081	-0.024
-467.172	471.687	0.039	-0.089
-466.157	-144.506	0.143	-0.013
-465.143	39.270	-0.229	0.205
-464.128	-150.342	0.031	0.002
-463.113	437.309	-0.102	-0.223
-462.099	-200.000	0.006	0.068
-461.084	-122.039	0.254	-0.042
-460.070	57.055	-0.104	-0.101
-459.055	190.253	-0.056	0.084
-458.040	217.224	0.094	-0.150
-457.026	14.922	-0.033	0.025
-456.011	-82.453	0.228	-0.074
-454.997	315.586	-0.061	-0.115
-453.982	39.152	-0.306	0.273
-452.968	-64.763	-0.170	-0.069
-451.953	217.178	0.264	-0.419
-450.938	-104.353	-0.313	-0.072
-449.924	-175.582	0.380	-0.010
-448.909	212.820	0.088	0.138
-447.895	199.440	-0.152	-0.233
-446.880	-174.018	-0.339	-0.010
-445.865	-84.438	-0.092	-0.029
-444.851	122.618	-0.233	0.290
-443.836	-102.834	-0.363	-0.086
-442.822	199.880	0.054	0.083
-441.807	-96.433	-0.146	0.039
-440.792	104.628	0.073	0.085
-439.778	-56.700	0.207	0.091
-438.763	-7.447	0.201	0.136
-437.749	7.638	-0.104	0.077
-436.734	-156.568	0.156	0.010
-435.719	-200.000	-0.017	-0.167
-434.705	49.121	0.210	-0.197
-433.690	110.178	-0.072	0.086
-432.676	-200.000	-0.056	-0.308
-431.661	86.182	-0.024	0.026
-430.646	-28.853	-0.078	-0.045
-429.632	-68.826	0.297	-0.114
-428.617	741.782	-0.075	0.200
-427.603	-68.823	0.204	0.079
-426.588	-81.550	0.096	-0.031
-425.573	-12.513	0.103	0.067
-424.559	-200.000	-0.047	0.291
-423.544	-200.000	0.013	-0.203
-422.530	800.000	-0.062	-0.186
-421.515	800.000	0.092	-0.296
-420.500	96.178	-0.103	0.117
-419.486	89.663	-0.348	0.387
-418.471	-64.772	0.148	-0.060
-417.457	-200.000	0.064	-0.287
-416.442	-76.263	-0.116	0.041
-415.428	500.076	0.041	0.095
-414.413	-141.850	0.406	-0.041
-413.398	-84.907	-0.369	0.115
-412.384	800.000	0.049	0.139
-411.369	-98.136	-0.123	0.032
-410.355	-67.331	-0.253	0.099
-409.340	-200.000	-0.031	-0.267
-408.325	153.394	-0.186	0.254
-407.311	12.112	-0.319	-0.244
-406.296	-200.000	0.102	-0.485
-405.282	-33.879	-0.336	0.184
-404.267	-200.000	-0.061	-0.385
-403.252	-105.014	-0.322	-0.073
-402.238	800.000	-0.073	-0.251
-401.223	-35.910	0.188	-0.101
-400.209	-63.856	0.377	-0.154
-399.194	166.559	0.219	-0.309
-398.179	378.322	-0.055	-0.112
-397.165	-200.000	0.041	0.210
-396.150	-33.701	0.155	-0.085
-395.136	-100.867	0.289	-0.071
-394.121	48.951	0.324	0.302
-393.106	-108.232	0.252	0.054
-392.092	-200.000	-0.004	-0.147
-391.077	-67.689	0.343	-0.134
-390.063	282.391	-0.123	0.219
-389.048	-46.601	0.196	-0.096
-388.033	-136.135	-0.249	-0.029
-387.019	-69.729	-0.292	-0.111
-386.004	-186.808	0.137	-0.002
-384.990	-83.985	-0.193	0.061
-383.975	-128.810	-0.199	-0.028
-382.960	453.768	-0.049	0.109
-381.946	478.238	0.125	0.281
-380.931	-55.765	-0.175	0.078
-379.917	107.906	0.295	0.350
-378.902	579.660	-0.071	-0.173
-377.888	32.239	-0.097	-0.083
-376.873	-200.000	0.019	-0.155
-375.858	-55.777	-0.177	0.079
-374.844	365.638	0.019	0.038
-373.829	68.251	-0.298	0.304
-372.815	159.264	0.028	-0.039
-371.800	-200.000	0.020	-0.214
-370.785	431.247	-0.036	0.078
-369.771	17.939	0.237	-0.188
-368.756	96.215	0.247	-0.281
-367.742	97.221	-0.117	0.133
-366.727	-164.833	-0.253	0.011
-365.712	800.000	-0.072	-0.202
-364.698	10.352	0.201	0.152
-363.683	-200.000	-0.058	-0.270
-362.669	226.293	-0.073	-0.118
-361.654	-19.319	0.064	0.040
-360.639	305.531	0.135	-0.250
-359.625	-47.255	0.103	-0.050
-358.610	-200.000	0.038	0.183
-357.596	-74.406	-0.122	0.044
-356.581	-194.716	-0.456	0.004
-355.566	-65.921	-0.360	-0.143
-354.552	83.062	-0.120	0.130
-353.537	-109.916	0.191	0.040
-352.523	-135.172	-0.209	-0.025
-351.508	-81.090	-0.218	0.072
-350.493	24.394	-0.087	-0.072
-349.479	-45.643	-0.121	0.059
-348.464	-200.000	-0.083	-0.363
-347.450	-63.366	0.094	-0.039
-346.435	-193.795	0.179	-0.002
-345.420	-174.049	-0.142	-0.004
-344.406	-43.496	-0.127	0.064
-343.391	800.000	0.073	-0.212
-342.377	-126.611	0.321	-0.047
-341.362	-15.416	0.051	-0.032
-340.348	-98.769	-0.218	0.055
-339.333	-43.953	0.196	-0.098
-338.318	-72.307	-0.283	0.104
-337.304	-154.277	0.178	0.012
-336.289	-113.476	0.135	-0.026
-335.275	800.000	-0.080	-0.270
-334.260	-138.248	-0.247	0.027
-333.245	-8.490	-0.237	0.158
-332.231	-200.000	-0.014	0.149
-331.216	45.325	0.151	0.138
-330.202	255.090	0.044	-0.075
-329.187	133.673	0.154	0.197
-328.172	386.438	0.076	0.157
-327.158	485.389	0.066	0.149
-326.143	-200.000	-0.001	0.643
-325.129	-1.707	-0.080	0.056
-324.114	-35.696	-0.115	0.062
-323.099	148.399	-0.247	-0.331
-322.085	-77.227	0.189	0.065
-321.070	-133.963	-0.111	0.014
-320.056	12.314	-0.095	-0.072
-319.041	-200.000	0.001	0.056
-318.026	-139.028	0.058	0.006
-317.012	-24.337	-0.115	-0.068
-315.997	12.137	-0.326	0.249
-314.983	257.824	0.029	0.050
-313.968	190.801	0.143	0.213
-312.953	-136.404	-0.179	-0.021
-311.939	-11.506	-0.299	0.195
-310.924	-200.000	0.019	0.321
-309.910	-200.000	0.045	0.215
-308.895	800.000	0.063	0.227
-307.880	35.750	-0.206	0.180
-306.866	-7.125	0.169	-0.114
-305.851	578.155	-0.088	-0.214
-304.837	-59.050	0.117	-0.050
-303.822	-19.063	-0.214	-0.132
-302.807	-65.518	-0.068	-0.027
-301.793	800.000	-0.042	-0.133
-300.778	800.000	0.040	0.160
-299.764	-25.998	0.197	-0.115
-298.749	-73.764	0.203	-0.073
-297.735	-177.575	0.417	0.010
-296.720	-200.000	0.027	-0.169
-295.705	148.204	0.203	0.271
-294.691	-27.333	-0.171	0.099
-293.676	155.584	-0.109	0.149
-292.662	-143.121	-0.180	0.017
-291.647	513.201	-0.057	0.131
-290.632	4.315	0.087	0.063
-289.618	800.000	0.092	0.262
-288.603	-85.015	-0.126	0.039
-287.589	236.571	0.114	0.186
-286.574	800.000	-0.108	0.381
-285.559	18.288	-0.187	0.148
-284.545	-164.541	0.034	0.002
-283.530	62.128	0.161	0.159
-282.516	-200.000	-0.007	-0.098
-281.501	7.569	-0.127	-0.094
-280.486	167.423	-0.115	-0.161
-279.472	32.539	0.099	-0.084
-278.457	-200.000	-0.002	0.053
-277.443	217.722	0.026	-0.041
-276.428	800.000	0.168	0.492
-275.413	282.259	-0.138	-0.244
-274.399	-140.572	0.435	-0.045
-273.384	800.000	0.029	0.095
-272.370	-200.000	-0.037	0.370
-271.355	-14.911	0.211	-0.134
-270.340	-102.620	0.339	0.080
-269.326	-200.000	0.063	-0.438
-268.311	800.000	0.091	-0.270
-267.297	-19.911	0.082	-0.050
-266.282	-53.759	-0.152	-0.069
-265.267	34.422	0.328	-0.283
-264.253	289.898	0.105	0.188
-263.238	56.669	0.085	0.082
-262.224	-63.580	0.099	0.040
-261.209	-81.431	-0.024	0.008
-260.195	-52.009	-0.287	0.132
-259.180	117.051	0.133	-0.162
-258.165	54.034	-0.195	-0.186
-257.151	97.272	0.173	-0.196
-256.136	-10.710	0.353	0.231
-255.122	-129.138	-0.205	-0.028
-254.107	29.616	-0.313	0.264
-253.092	-200.000	0.005	-0.104
-252.078	-65.106	-0.290	0.116
-251.063	-90.942	-0.145	0.041
-250.049	394.522	0.032	-0.066
-249.034	14.413	-0.136	-0.105
-248.019	14.692	0.108	0.083
-247.005	180.018	-0.113	-0.163
-245.990	-200.000	0.018	-0.177
-244.976	-173.720	-0.261	0.008
-243.961	-36.244	-0.166	-0.089
-242.946	-7.695	-0.378	-0.253
-241.932	206.334	0.253	-0.390
-240.917	-126.029	0.109	0.016
-239.903	79.683	0.135	0.144
-238.888	-5.351	-0.213	-0.145
-237.873	-200.000	0.006	0.242
-236.859	74.941	0.058	-0.061
-235.844	800.000	0.049	0.150
-234.830	-200.000	-0.066	-0.337
-233.815	263.262	-0.086	-0.148
-232.800	800.000	0.046	-0.142
-231.786	14.740	0.232	0.179
-230.771	25.435	0.164	0.135
-229.757	281.799	-0.177	-0.313
-228.742	-31.066	-0.145	-0.081
-227.727	-96.278	0.108	0.028
-226.713	34.837	-0.165	0.143
-225.698	117.758	0.166	-0.202
-224.684	-164.380	0.040	-0.002
-223.669	-8.985	0.218	0.144
-222.655	151.913	-0.134	0.180
-221.640	-200.000	0.068	0.299
-220.625	-51.747	-0.231	-0.106
-219.611	219.205	0.157	-0.248
-218.596	-200.000	0.030	0.378
-217.582	49.360	-0.026	-0.024
-216.567	-200.000	0.033	0.144
-215.552	-19.781	-0.425	-0.260
-214.538	611.764	-0.129	-0.319
-213.523	-200.000	-0.033	-0.182
-212.509	40.472	0.145	-0.129
-211.494	-34.464	-0.221	0.120
-210.479	800.000	-0.083	0.293
-209.465	-200.000	-0.034	0.274
-208.450	212.572	0.144	-0.224
-207.436	-200.000	0.026	-0.160
-206.421	70.903	-0.107	0.109
-205.406	-131.533	-0.063	-0.008
-204.392	385.061	0.059	0.120
-203.377	275.734	-0.120	-0.211
-202.363	-194.331	0.281	-0.002
-201.348	15.310	0.051	-0.040
-200.333	800.000	0.106	0.385
-199.319	393.187	-0.045	0.093
-198.304	570.793	0.062	0.149
-197.290	31.959	-0.042	-0.036
-196.275	31.640	0.279	0.237
-195.260	-82.652	0.249	0.080
-194.246	541.153	0.056	-0.133
-193.231	8.902	0.138	0.103
-192.217	-195.097	-0.255	0.002
-191.202	-200.000	0.022	0.155
-190.187	-53.227	0.208	0.094
-189.173	-126.360	0.255	-0.038
-188.158	-22.510	-0.145	0.086
-187.144	-35.263	-0.306	0.165
-186.129	-95.443	0.175	0.046
-185.114	452.030	-0.040	-0.086
-184.100	-24.762	0.165	0.097
-183.085	-28.198	0.091	0.052
-182.071	95.429	-0.077	-0.087
-181.056	378.748	-0.214	-0.432
-180.042	-52.961	-0.173	-0.079
-179.027	-82.106	0.253	-0.081
-178.012	273.356	-0.068	-0.119
-176.998	9.356	-0.145	0.108
-175.983	-56.547	0.293	-0.128
-174.969	-200.000	0.027	0.200
-173.954	-92.304	-0.215	-0.060
-172.939	-107.063	0.151	0.033
-171.925	-200.000	-0.010	0.113
-170.910	-200.000	-0.000	-0.465
-169.896	-124.122	0.204	-0.031
-168.881	-200.000	0.040	-0.178
-167.866	-67.924	0.117	-0.045
-166.852	-130.579	-0.039	0.005
-165.837	-48.578	0.184	0.087
-164.823	800.000	0.130	-0.368
-163.808	48.693	-0.337	-0.312
-162.793	40.042	0.084	0.075
-161.779	70.614	-0.117	-0.119
-160.764	800.000	0.086	0.284
-159.750	-88.148	0.124	-0.037
-158.735	-108.303	0.257	-0.055
-157.720	800.000	0.037	-0.138
-156.706	-200.000	-0.029	0.168
-155.691	52.960	0.125	0.118
-154.677	115.667	-0.052	-0.063
-153.662	278.130	0.060	-0.105
-152.647	-90.710	0.227	-0.065
-151.633	-163.903	0.220	-0.010
-150.618	-5.003	0.017	-0.011
-149.604	-127.409	-0.073	0.011
-148.589	592.021	0.141	-0.342
-147.574	-200.000	0.053	-0.309
-146.560	484.360	0.031	0.070
-145.545	-90.947	0.171	0.048
-144.531	-154.915	-0.350	0.023
-143.516	-9.747	-0.151	0.099
-142.502	-81.481	-0.200	0.065
-141.487	-67.156	-0.409	0.159
-140.472	800.000	-0.132	-0.380
-139.458	453.147	-0.024	-0.053
-138.443	-87.415	-0.229	0.068
-137.429	104.159	-0.162	0.188
-136.414	-129.029	0.207	0.029
-135.399	800.000	-0.068	0.290
-134.385	-58.032	0.287	-0.123
-133.370	83.312	0.170	-0.183
-132.356	510.355	-0.041	-0.094
-131.341	-200.000	0.013	-0.080
-130.326	-200.000	0.012	-0.192
-129.312	800.000	-0.040	-0.164
-128.297	-200.000	-0.023	0.167
-127.283	-76.613	-0.212	-0.073
-126.268	51.318	0.175	-0.164
-125.253	-200.000	0.029	-0.409
-124.239	-200.000	0.022	-0.205
-123.224	-11.008	0.175	0.114
-122.210	-128.544	-0.230	-0.032
-121.195	-92.420	0.312	-0.086
-120.180	155.165	-0.072	-0.098
-119.166	12.728	0.041	-0.031
-118.151	800.000	0.105	-0.373
-117.137	45.708	-0.173	0.158
-116.122	-165.025	-0.238	0.010
-115.107	-109.601	-0.431	-0.090
-114.093	-99.211	0.210	0.052
-113.078	378.148	-0.110	-0.222
-112.064	800.000	-0.079	-0.282
-111.049	547.698	0.049	-0.116
-110.034	55.004	-0.127	-0.121
-109.020	-200.000	0.031	0.204
-108.005	-91.073	-0.176	-0.050
-106.991	14.811	-0.074	0.057
-105.976	-200.000	0.013	-0.200
-104.962	537.547	0.176	0.412
-103.947	-135.375	-0.189	-0.022
-102.932	-82.043	-0.474	0.152
-101.918	-9.889	0.281	0.184
-100.903	-200.000	-0.008	0.265
-99.889	-200.000	0.003	-0.022
-98.874	-129.656	-0.116	0.016
-97.859	-19.961	0.491	-0.298
-96.845	-200.000	-0.063	-0.383
-95.830	800.000	-0.028	-0.077
-94.816	-200.000	-0.008	-0.106
-93.801	-15.688	0.173	0.108
-92.786	-200.000	0.009	0.047
-91.772	147.876	-0.063	-0.083
-90.757	62.944	0.386	0.380
-89.743	105.762	0.235	0.273
-88.728	800.000	0.080	0.345
-87.713	-70.100	-0.382	0.143
-86.699	-60.687	0.057	-0.024
-85.684	-110.262	0.194	0.040
-84.670	-200.000	-0.018	0.248
-83.655	-61.387	0.134	0.056
-82.640	723.108	0.111	-0.291
-81.626	-15.387	-0.112	-0.070
-80.611	-4.209	-0.181	-0.123
-79.597	28.888	0.256	-0.213
-78.582	-68.916	-0.188	-0.071
-77.567	-1.567	-0.290	-0.201
-76.553	32.244	0.173	0.147
-75.538	179.930	-0.085	0.122
-74.524	-58.609	0.205	-0.087
-73.509	800.000	0.063	0.218
-72.494	-200.000	0.005	-0.164
-71.480	-200.000	-0.021	-0.117
-70.465	800.000	-0.012	-0.045
-69.451	284.046	0.020	-0.036
-68.436	36.895	-0.083	-0.072
-67.422	55.040	-0.411	0.390
-66.407	329.790	0.103	-0.195
-65.392	-52.237	0.170	-0.077
-64.378	-200.000	0.002	-0.239
-63.363	59.488	0.135	-0.131
-62.349	-111.967	0.220	0.043
-61.334	55.386	-1.017	-0.967
-60.319	-200.000	0.083	0.635
-59.305	187.651	-0.682	-1.000
-58.290	800.000	0.377	1.189
-57.276	394.187	0.855	1.749
-56.261	-200.000	101.350	600.992
-55.246	579.944	1415.039	3403.101
-54.232	190.335	2607.559	3845.670
-53.217	111.580	2274.827	2694.566
-52.203	40.463	1894.272	1674.724
-51.188	34.324	1683.610	1442.135
-50.173	31.595	1640.462	1384.958
-49.159	49.399	1690.480	1561.340
-48.144	50.921	1706.713	1587.700
-47.130	33.827	1665.714	1422.859
-46.115	31.197	1651.115	1390.763
-45.100	30.911	1646.796	1384.943
-44.086	30.885	1644.414	1382.692
-43.071	30.896	1641.002	1379.855
-42.057	30.960	1638.947	1378.541
-41.042	30.894	1636.715	1376.124
-40.027	30.951	1635.082	1375.118
-39.013	30.843	1633.548	1372.977
-37.998	30.951	1631.572	1372.058
-36.984	30.814	1630.636	1370.208
-35.969	30.983	1629.202	1370.190
-34.954	31.074	1627.323	1369.220
-33.940	31.033	1625.703	1367.507
-32.925	31.045	1623.638	1365.801
-31.911	31.066	1622.442	1364.897
-30.896	30.980	1620.353	1362.454
-29.881	31.002	1618.828	1361.279
-28.867	31.079	1617.072	1360.308
-27.852	31.079	1615.701	1359.106
-26.838	30.921	1614.762	1357.111
-25.823	31.087	1612.888	1356.690
-24.809	31.096	1611.578	1355.598
-23.794	30.960	1610.635	1353.765
-22.779	31.080	1608.199	1352.532
-21.765	30.948	1607.383	1350.833
-20.750	30.994	1605.341	1349.399
-19.736	31.053	1604.308	1348.899
-18.721	31.030	1602.807	1347.420
-17.706	31.091	1600.872	1346.183
-16.692	30.933	1599.835	1344.117
-15.677	31.025	1598.080	1343.249
-14.663	31.088	1596.725	1342.515
-13.648	31.063	1595.937	1341.613
-12.633	31.052	1594.031	1339.881
-11.619	31.001	1592.538	1338.207
-10.604	31.037	1590.823	1336.970
-9.590	30.962	1590.077	1335.754
-8.575	31.045	1588.687	1335.124
-7.560	30.957	1587.636	1333.565
-6.546	30.964	1585.975	1332.166
-5.531	30.909	1586.241	1331.941
-4.517	30.880	1584.596	1330.297
-3.502	30.993	1583.445	1330.088
-2.487	31.113	1581.229	1329.029
-1.473	30.691	1570.131	1316.661
-0.458	27.995	1550.728	1281.462
0.556	23.909	1551.606	1251.234
1.571	21.537	1575.109	1253.117
2.586	21.151	1588.240	1260.661
3.600	18.815	1534.549	1201.621
4.615	11.455	1428.249	1070.193
5.629	5.551	1366.984	987.060
6.644	4.748	1359.528	976.554
7.659	4.627	1358.335	974.852
8.673	4.563	1357.711	973.914
9.688	4.512	1355.763	972.110
10.702	4.454	1352.863	969.587
11.717	7.218	1358.079	990.538
12.731	14.301	1370.679	1044.198
13.746	18.874	1377.316	1077.912
14.761	18.751	1376.052	1076.061
15.775	17.773	1373.547	1067.883
16.790	16.738	1370.760	1059.150
17.804	15.871	1368.880	1052.189
18.819	15.581	1366.790	1048.678
19.834	15.249	1366.082	1045.976
20.848	15.002	1364.870	1043.411
21.863	14.794	1363.174	1040.729
22.877	14.559	1362.653	1038.775
23.892	14.622	1361.297	1038.041
24.907	14.659	1360.785	1037.788
25.921	14.608	1359.904	1036.706
26.936	14.687	1358.910	1036.351
27.950	14.715	1357.846	1035.621
28.965	14.786	1357.086	1035.385
29.980	14.847	1355.547	1034.503
30.994	14.925	1354.718	1034.259
32.009	15.021	1353.485	1033.818
33.023	14.877	1352.139	1031.813
34.038	14.831	1350.830	1030.435
35.053	14.743	1349.570	1028.841
36.067	14.786	1348.645	1028.310
37.082	14.905	1347.534	1028.103
38.096	14.832	1346.452	1026.737
39.111	14.921	1345.574	1026.527
40.126	14.762	1345.040	1025.054
41.140	14.703	1344.040	1023.839
42.155	14.501	1343.906	1022.406
43.169	14.553	1343.786	1022.543
44.184	14.600	1342.862	1022.039
45.199	14.551	1342.911	1021.683
46.213	14.621	1342.338	1021.587
47.228	14.732	1341.294	1021.380
48.242	14.696	1340.310	1020.319
49.257	14.646	1338.930	1018.877
50.271	14.746	1336.834	1017.798
51.286	14.827	1335.675	1017.322
52.301	14.727	1334.924	1016.051
53.315	14.783	1333.546	1015.251
54.330	14.612	1332.414	1013.263
55.344	14.589	1331.340	1012.217
56.359	14.674	1330.028	1011.640
57.374	14.641	1329.416	1010.889
58.388	14.584	1328.591	1009.825
59.403	14.461	1328.379	1008.834
60.417	14.494	1327.591	1008.341
61.432	14.471	1326.689	1007.433
62.447	14.474	1325.257	1006.270
63.461	14.405	1324.444	1005.149
64.476	14.394	1323.679	1004.412
65.490	14.493	1321.885	1003.558
66.505	14.544	1320.266	1002.545
67.520	14.441	1319.326	1001.129
68.534	14.457	1318.193	1000.274
69.549	14.352	1317.479	999.014
70.563	14.410	1316.180	998.287
71.578	14.406	1314.939	997.236
72.593	14.278	1314.007	995.675
73.607	14.325	1313.418	995.424
74.622	14.217	1312.777	994.201
75.636	14.313	1312.234	994.278
76.651	14.321	1311.519	993.693
77.666	14.413	1310.889	993.676
78.680	14.327	1310.741	992.963
79.695	14.394	1309.963	992.684
80.709	14.528	1308.997	992.664
81.724	14.473	1308.457	991.840
82.739	14.498	1307.617	991.261
83.753	14.614	1306.483	991.006
84.768	14.697	1305.979	991.030
85.782	14.810	1304.536	990.516
86.797	14.802	1303.520	989.606
87.812	14.719	1302.063	987.923
88.826	14.700	1300.790	986.760
89.841	14.721	1300.082	986.260
90.855	14.590	1299.618	985.044
91.870	14.795	1298.338	985.199
92.884	14.775	1297.691	984.501
93.899	14.768	1296.558	983.516
94.914	14.848	1295.933	983.421
95.928	14.855	1295.108	982.750
96.943	14.793	1293.937	981.410
97.957	14.821	1292.899	980.703
98.972	14.792	1291.849	979.649
99.987	14.803	1290.635	978.707
101.001	14.656	1290.138	977.380
102.016	14.802	1288.994	977.280
103.030	14.795	1287.942	976.355
104.045	14.836	1287.092	975.863
105.060	14.770	1286.305	974.799
106.074	14.603	1284.734	972.549
107.089	14.396	1283.659	970.444
108.103	14.526	1281.890	969.777
109.118	14.537	1280.593	968.772
110.133	14.515	1279.252	967.544
111.147	14.659	1277.847	967.231
112.162	14.571	1276.609	965.699
113.176	14.580	1275.726	964.995
114.191	14.623	1274.914	964.544
115.206	14.623	1273.692	963.537
116.220	14.558	1272.435	962.123
117.235	14.617	1271.345	961.553
118.249	14.628	1270.190	960.662
119.264	14.517	1269.266	959.239
120.279	14.438	1268.262	957.940
121.293	14.525	1267.094	957.472
122.308	14.536	1265.740	956.430
123.322	14.500	1264.654	955.319
124.337	14.411	1264.234	954.404
125.352	14.429	1263.214	953.652
126.366	14.488	1261.891	952.908
127.381	14.439	1260.965	951.844
128.395	14.379	1260.430	951.013
129.410	14.442	1259.420	950.527
130.424	14.514	1257.979	949.766
131.439	14.472	1257.388	948.994
132.454	14.495	1256.436	948.323
133.468	14.530	1255.429	947.682
134.483	14.716	1254.636	948.051
135.497	14.662	1253.665	946.931
136.512	14.637	1252.352	945.712
137.527	14.606	1251.082	944.496
138.541	14.697	1249.713	943.892
139.556	14.768	1247.750	942.726
140.570	14.767	1247.573	942.505
141.585	14.807	1246.222	941.625
142.600	14.774	1245.717	940.975
143.614	14.825	1244.293	940.099
144.629	14.962	1243.431	940.138
145.643	14.894	1242.215	938.755
146.658	14.885	1240.713	937.481
147.673	14.647	1239.620	935.243
148.687	14.690	1238.357	934.445
149.702	14.731	1237.013	933.582
150.716	14.632	1235.501	931.806
151.731	14.655	1234.679	931.230
152.746	14.762	1233.274	930.683
153.760	14.815	1232.280	930.143
154.775	14.787	1231.660	929.439
155.789	14.824	1230.473	928.666
156.804	14.862	1229.514	928.070
157.819	14.906	1228.204	927.244
158.833	15.017	1227.657	927.364
159.848	15.046	1226.971	926.923
160.862	14.964	1226.202	925.806
161.877	14.904	1224.607	924.190
162.892	14.875	1223.664	923.239
163.906	14.851	1222.762	922.344
164.921	14.847	1221.952	921.629
165.935	14.763	1221.263	920.567
166.950	14.877	1220.325	920.405
167.964	14.851	1219.392	919.477
168.979	14.823	1218.774	918.774
169.994	14.938	1218.015	918.750
171.008	14.983	1217.141	918.257
172.023	14.928	1216.243	917.200
173.037	15.066	1215.458	917.279
174.052	15.021	1214.524	916.247
175.067	14.972	1213.504	915.131
176.081	14.874	1212.369	913.655
177.096	14.883	1211.733	913.146
178.110	14.887	1210.687	912.299
179.125	14.955	1209.445	911.653
180.140	14.950	1208.313	910.693
181.154	15.094	1206.575	910.085
182.169	15.072	1205.905	909.382
183.183	15.162	1204.160	908.471
184.198	15.203	1203.361	908.010
185.213	15.144	1202.548	906.999
186.227	15.212	1201.321	906.359
187.242	15.180	1200.699	905.635
188.256	15.212	1199.552	904.864
189.271	15.366	1198.325	904.691
190.286	14.999	1197.855	902.274
191.300	14.920	1196.833	900.999
192.315	14.860	1195.686	899.736
193.329	14.833	1195.242	899.173
194.344	14.859	1194.935	899.002
195.359	15.066	1194.080	899.396
196.373	15.174	1193.576	899.513
197.388	15.214	1193.543	899.626
198.402	15.400	1192.690	899.902
199.417	15.280	1193.125	899.504
200.432	15.402	1191.455	898.817
201.446	15.419	1190.704	898.265
202.461	15.509	1189.515	897.772
203.475	15.455	1188.786	896.853
204.490	15.365	1187.479	895.306
205.504	15.356	1186.204	894.220
206.519	15.444	1184.642	893.429
207.534	15.345	1183.857	892.233
208.548	15.376	1182.715	891.458
209.563	15.434	1181.933	891.098
210.577	15.428	1181.045	890.316
211.592	15.551	1180.115	890.187
212.607	15.645	1179.603	890.220
213.621	15.597	1178.410	888.986
214.636	15.628	1177.532	888.412
215.650	15.626	1176.921	887.862
216.665	15.627	1175.980	887.079
217.680	15.625	1175.661	886.750
218.694	15.699	1174.456	886.151
219.709	15.651	1173.745	885.283
220.723	15.570	1173.221	884.380
221.738	15.661	1172.310	884.096
222.753	15.629	1171.176	882.995
223.767	15.700	1170.911	883.091
224.782	15.774	1170.016	882.726
225.796	15.824	1169.422	882.460
226.811	15.857	1168.664	881.984
227.826	15.685	1168.328	880.751
228.840	15.768	1167.492	880.477
229.855	15.798	1166.528	879.832
230.869	15.727	1166.036	879.009
231.884	15.799	1164.881	878.435
232.899	15.632	1164.232	877.000
233.913	15.589	1163.571	876.201
234.928	15.614	1162.924	875.765
235.942	15.627	1162.456	875.402
236.957	15.689	1161.418	874.865
237.972	15.618	1160.656	873.848
238.986	15.684	1160.141	873.722
240.001	15.712	1158.840	872.810
241.015	15.619	1158.411	871.929
242.030	15.811	1157.647	872.271
243.045	15.773	1156.813	871.369
244.059	15.884	1155.562	870.922
245.074	15.824	1155.115	870.202
246.088	15.818	1154.912	869.938
247.103	15.871	1153.667	869.197
248.117	15.966	1153.293	869.329
249.132	16.127	1152.335	869.359
250.147	16.216	1151.561	869.161
251.161	16.190	1151.024	868.543
252.176	16.230	1150.281	868.111
253.190	16.357	1150.028	868.496
254.205	16.371	1149.294	867.935
255.220	16.371	1148.461	867.229
256.234	16.326	1147.868	866.475
257.249	16.358	1147.126	866.001
258.263	16.209	1146.711	864.849
259.278	16.284	1145.960	864.593
260.293	16.415	1145.183	864.599
261.307	16.423	1144.486	864.038
262.322	16.400	1144.031	863.497
263.336	16.372	1143.351	862.765
264.351	16.453	1142.695	862.606
265.366	16.543	1141.919	862.404
266.380	16.509	1141.337	861.714
267.395	16.434	1140.450	860.588
268.409	16.308	1139.944	859.486
269.424	16.520	1138.788	859.620
270.439	16.436	1138.333	858.772
271.453	16.380	1137.805	858.015
272.468	16.329	1137.002	857.070
273.482	16.404	1136.075	856.680
274.497	16.425	1135.766	856.478
275.512	16.387	1134.844	855.513
276.526	16.426	1133.859	854.891
277.541	16.489	1133.022	854.502
278.555	16.484	1132.592	854.077
279.570	16.501	1132.122	853.736
280.585	16.621	1131.433	853.746
281.599	16.663	1129.948	852.760
282.614	16.512	1129.451	851.552
283.628	16.673	1128.137	851.292
284.643	16.573	1127.448	850.197
285.657	16.572	1126.539	849.428
286.672	16.550	1125.995	848.836
287.687	16.614	1124.678	848.085
288.701	16.559	1124.035	847.252
289.716	16.670	1123.284	847.168
290.730	16.598	1122.827	846.387
291.745	16.733	1121.740	846.168
292.760	16.736	1121.183	845.686
293.774	16.788	1120.534	845.381
294.789	16.825	1120.476	845.449
295.803	16.871	1119.405	844.795
296.818	16.752	1118.741	843.623
297.833	16.850	1117.665	843.225
298.847	16.723	1117.226	842.190
299.862	16.853	1116.553	842.255
300.876	16.724	1115.693	840.889
301.891	16.892	1115.342	841.387
302.906	16.861	1114.497	840.520
303.920	16.987	1113.784	840.532
304.935	17.001	1113.348	840.196
305.949	17.075	1112.915	840.161
306.964	17.043	1111.950	839.202
307.979	16.957	1111.088	838.053
308.993	16.986	1110.188	837.444
310.008	17.108	1109.660	837.573
311.022	17.021	1108.950	836.530
312.037	17.084	1108.098	836.124
313.052	17.181	1106.796	835.549
314.066	16.975	1106.077	833.916
315.081	16.897	1105.397	832.949
316.095	16.978	1104.363	832.493
317.110	16.956	1104.061	832.082
318.125	16.864	1103.402	831.061
319.139	16.987	1102.543	830.942
320.154	16.917	1101.850	830.004
321.168	16.997	1101.407	829.991
322.183	17.029	1100.476	829.370
323.197	16.982	1100.605	829.167
324.212	17.088	1099.548	828.815
325.227	16.981	1099.052	827.845
326.241	16.985	1098.265	827.199
327.256	17.037	1097.327	826.672
328.270	17.104	1096.647	826.413
329.285	16.914	1095.972	824.904
330.300	17.148	1094.587	824.928
331.314	17.030	1093.565	823.510
332.329	17.126	1092.917	823.417
333.343	17.161	1091.841	822.702
334.358	17.185	1091.116	822.197
335.373	17.109	1090.732	821.469
336.387	17.268	1089.900	821.539
337.402	17.252	1088.929	820.657
338.416	17.392	1088.311	820.794
339.431	17.410	1087.712	820.357
340.446	17.394	1087.219	819.834
341.460	17.430	1087.088	819.836
342.475	17.654	1085.466	819.618
343.489	17.450	1084.794	818.056
344.504	17.533	1084.065	817.836
345.519	17.639	1083.298	817.693
346.533	17.617	1082.190	816.679
347.548	17.665	1081.831	816.562
348.562	17.638	1081.082	815.798
349.577	17.565	1080.154	814.677
350.592	17.469	1079.165	813.401
351.606	17.406	1078.879	812.813
352.621	17.328	1078.148	811.816
353.635	17.336	1077.646	811.404
354.650	17.398	1076.504	810.769
355.665	17.544	1075.733	810.812
356.679	17.457	1075.269	809.975
357.694	17.642	1074.298	810.049
358.708	17.600	1073.975	809.538
359.723	17.580	1073.319	808.878
360.738	17.627	1072.772	808.615
361.752	17.605	1072.511	808.240
362.767	17.586	1071.849	807.582
363.781	17.798	1071.073	807.930
364.796	17.760	1070.555	807.286
365.810	17.651	1070.270	806.484
366.825	17.811	1069.360	806.484
367.840	17.920	1069.022	806.675
368.854	17.929	1068.664	806.374
369.869	17.909	1067.417	805.267
370.883	17.939	1066.464	804.618
371.898	17.887	1065.722	803.742
372.913	17.854	1065.393	803.269
373.927	17.828	1065.473	803.135
374.942	18.023	1064.473	803.229
375.956	17.941	1063.823	802.281
376.971	18.028	1062.981	801.983
377.986	17.978	1062.846	801.574
379.000	18.159	1061.950	801.676
380.015	18.172	1061.410	801.260
381.029	18.226	1060.679	800.890
382.044	18.083	1060.381	799.925
383.059	18.165	1059.572	799.630
384.073	18.159	1058.801	798.945
385.088	18.211	1057.579	798.198
386.102	18.257	1056.393	797.445
387.117	18.218	1055.592	796.590
388.132	17.942	1055.008	794.795
389.146	18.079	1054.226	794.771
390.161	18.089	1053.192	793.968
391.175	18.071	1052.732	793.467
392.190	18.144	1052.133	793.283
393.205	18.308	1051.130	793.219
394.219	18.169	1050.716	792.191
395.234	18.123	1049.636	791.094
396.248	18.231	1048.699	790.815
397.263	18.208	1047.485	789.726
398.278	18.147	1046.905	788.938
399.292	18.161	1046.294	788.471
400.307	18.125	1045.217	787.424
401.321	18.162	1044.719	787.147
402.336	18.212	1044.506	787.150
403.350	18.253	1043.453	786.476
404.365	18.283	1042.632	785.923
405.380	18.188	1042.177	785.073
406.394	18.270	1041.571	784.924
407.409	18.347	1040.551	784.439
408.423	18.470	1040.650	785.006
409.438	18.511	1039.600	784.333
410.453	18.504	1038.939	783.735
411.467	18.529	1038.280	783.281
412.482	18.551	1038.019	783.118
413.496	18.643	1036.822	782.564
414.511	18.647	1036.103	781.968
415.526	18.763	1036.175	782.482
416.540	18.725	1035.675	781.866
417.555	18.607	1035.317	780.985
418.569	18.549	1034.737	780.218
419.584	18.710	1034.117	780.413
420.599	18.619	1033.871	779.743
421.613	151.165	1401.814	1798.307
422.628	138.026	1455.409	1798.418
