DTS Sentinel unit serial number:	SN413079Multiplexer serial number:	ORYXHardware model number:	OX4-SRSoftware version number:	ORYX F/W v4.00 Oryx Data Collector v3.7.2.0data status	okinstallation	princeton_trtdifferential loss correction	single-endedforward channel	channel 2reverse channel	N/Adate	2019/09/13time	10:51:35forward acquisition time	60.00reverse acquisition time	0.00gamma	496.2192k internal	0.2323k external	0.2323temperature offset calibration	1.0195default loss term (dB/km)	0.3790temperature slope calibration	1.0000multiplexer offset coefficient	1.0000multiplexer slope coefficient	1.0000fibre end	0.00T internal ref (°C)	31.69T ext. ref 1 (°C)	4.60T ext. ref 2 (°C)	28.32length (m)	temperature (°C)	Stokes	anti-Stokes-747.200	64.898	0.191	-0.194
-746.185	800.000	-0.092	0.282
-745.171	-13.956	0.172	-0.112
-744.156	-30.605	-0.317	0.181
-743.142	-60.015	-0.339	0.146
-742.127	-47.480	-0.399	0.196
-741.112	-92.713	0.314	0.089
-740.098	1.733	0.347	-0.252
-739.083	116.085	0.055	-0.068
-738.069	630.329	-0.071	0.180
-737.054	-200.000	-0.031	0.259
-736.039	-25.322	-0.149	-0.089
-735.025	385.344	0.020	0.041
-734.010	-29.146	0.071	0.041
-732.996	-158.078	-0.156	0.009
-731.981	800.000	-0.016	-0.049
-730.966	-105.900	-0.211	-0.048
-729.952	-70.387	-0.224	-0.086
-728.937	-200.000	0.047	-0.408
-727.923	-200.000	0.049	0.289
-726.908	637.360	0.102	-0.261
-725.894	-200.000	-0.094	-0.593
-724.879	-78.473	-0.203	0.070
-723.864	196.196	0.224	-0.344
-722.850	90.755	-0.192	-0.217
-721.835	-200.000	0.008	-0.447
-720.821	-23.420	-0.337	-0.205
-719.806	-200.000	-0.010	-0.309
-718.791	77.421	-0.275	-0.295
-717.777	-69.402	-0.134	0.052
-716.762	-200.000	0.013	0.090
-715.748	-151.205	-0.236	0.018
-714.733	800.000	-0.018	-0.076
-713.718	7.959	0.122	-0.092
-712.704	231.317	-0.074	-0.122
-711.689	130.237	-0.117	-0.151
-710.675	104.919	-0.282	-0.335
-709.660	-200.000	0.001	0.160
-708.645	-200.000	0.003	-0.212
-707.631	-157.771	0.410	0.025
-706.616	85.739	-0.169	-0.188
-705.602	-200.000	0.015	0.140
-704.587	118.985	-0.171	-0.213
-703.572	-15.938	0.223	-0.143
-702.558	-59.660	0.270	-0.117
-701.543	-3.419	-0.350	-0.246
-700.529	340.493	-0.050	-0.099
-699.514	-76.285	-0.204	0.072
-698.499	88.921	0.043	0.048
-697.485	231.202	-0.047	-0.077
-696.470	-149.081	-0.081	0.007
-695.456	-24.473	-0.224	-0.134
-694.441	-134.394	-0.066	-0.008
-693.426	-200.000	0.025	0.118
-692.412	-200.000	0.015	-0.075
-691.397	-179.336	-0.185	-0.004
-690.383	-52.636	-0.275	-0.128
-689.368	-141.685	0.472	0.048
-688.354	-142.991	-0.101	0.010
-687.339	-72.477	0.085	-0.032
-686.324	8.589	-0.130	-0.099
-685.310	220.669	-0.078	-0.126
-684.295	70.820	-0.261	-0.272
-683.281	-126.923	-0.105	0.016
-682.266	579.225	0.086	-0.213
-681.251	-131.180	0.112	-0.015
-680.237	800.000	-0.069	-0.249
-679.222	-18.774	0.256	-0.160
-678.208	654.700	0.089	0.230
-677.193	10.514	0.022	0.017
-676.178	-20.436	0.474	-0.293
-675.164	-78.114	0.273	-0.095
-674.149	271.732	-0.107	-0.190
-673.135	623.115	0.140	-0.355
-672.120	-174.442	-0.162	-0.005
-671.105	-200.000	0.315	-0.001
-670.091	246.024	0.089	0.151
-669.076	800.000	0.028	-0.114
-668.062	-170.894	-0.360	-0.012
-667.047	-145.737	-0.150	-0.013
-666.032	748.454	0.054	-0.146
-665.018	800.000	0.094	-0.271
-664.003	-54.604	0.102	0.047
-662.989	-48.445	-0.137	-0.066
-661.974	-200.000	0.025	0.151
-660.959	792.542	-0.025	-0.070
-659.945	800.000	0.139	-0.446
-658.930	-122.197	-0.185	-0.030
-657.916	39.979	-0.222	0.201
-656.901	-160.918	0.415	0.022
-655.886	800.000	0.082	-0.343
-654.872	-152.526	0.085	0.006
-653.857	-99.836	-0.249	-0.063
-652.843	76.689	-0.096	0.102
-651.828	264.792	-0.121	-0.213
-650.814	-27.975	0.306	0.178
-649.799	235.827	-0.060	0.100
-648.784	-154.227	-0.159	-0.011
-647.770	-150.030	-0.281	0.022
-646.755	74.633	0.211	0.224
-645.741	341.710	-0.044	-0.087
-644.726	-27.983	-0.161	-0.094
-643.711	-35.385	0.267	0.146
-642.697	-200.000	0.007	0.064
-641.682	800.000	0.038	-0.144
-640.668	198.879	-0.048	-0.074
-639.653	-35.021	0.227	0.125
-638.638	-85.179	-0.112	-0.035
-637.624	-89.976	-0.318	-0.093
-636.609	-48.804	0.088	0.042
-635.595	-76.958	0.233	-0.082
-634.580	69.198	0.124	-0.128
-633.565	62.624	0.206	0.207
-632.551	-38.311	-0.278	0.148
-631.536	-153.194	-0.467	0.033
-630.522	10.183	0.159	-0.122
-629.507	705.694	0.079	0.209
-628.492	-135.333	-0.472	-0.057
-627.478	-48.332	-0.101	0.049
-626.463	177.715	0.078	-0.114
-625.449	-103.668	-0.351	-0.083
-624.434	0.846	0.075	0.054
-623.419	259.319	-0.079	0.138
-622.405	-77.698	0.131	-0.045
-621.390	-43.136	0.455	0.232
-620.376	78.200	-0.169	0.181
-619.361	304.435	-0.160	-0.299
-618.346	723.442	-0.045	0.120
-617.332	23.217	-0.256	-0.211
-616.317	-200.000	-0.018	-0.406
-615.303	-26.501	0.204	0.120
-614.288	85.228	-0.043	-0.048
-613.273	-146.580	0.276	0.024
-612.259	182.249	-0.068	0.101
-611.244	-46.978	-0.356	-0.175
-610.230	-200.000	-0.001	-0.165
-609.215	-200.000	-0.031	-0.175
-608.201	-50.851	-0.193	-0.091
-607.186	800.000	0.016	-0.068
-606.171	-62.491	-0.087	0.036
-605.157	800.000	-0.065	-0.236
-604.142	-142.793	0.343	-0.034
-603.128	79.824	-0.342	-0.369
-602.113	-200.000	0.002	-0.033
-601.098	217.654	-0.261	0.418
-600.084	65.195	-0.216	-0.219
-599.069	800.000	-0.077	-0.307
-598.055	110.331	-0.182	0.219
-597.040	63.766	0.240	0.242
-596.025	35.817	-0.275	-0.243
-595.011	45.615	0.003	-0.003
-593.996	-200.000	0.029	-0.143
-592.982	800.000	0.045	0.125
-591.967	-120.876	-0.428	-0.072
-590.952	66.559	-0.085	-0.086
-589.938	289.476	-0.245	0.445
-588.923	800.000	0.048	-0.208
-587.909	-146.315	0.354	-0.031
-586.894	-191.938	-0.207	-0.002
-585.879	800.000	-0.078	0.340
-584.865	-26.272	-0.050	-0.030
-583.850	800.000	0.097	0.349
-582.836	64.622	-0.073	-0.074
-581.821	-139.232	0.481	0.052
-580.806	-42.655	0.082	-0.042
-579.792	-75.679	0.196	-0.070
-578.777	11.547	0.133	-0.102
-577.763	-36.582	0.023	0.012
-576.748	800.000	-0.203	0.596
-575.733	-200.000	-0.007	0.443
-574.719	87.704	-0.175	-0.194
-573.704	-25.499	-0.102	0.060
-572.690	-200.000	-0.011	0.203
-571.675	800.000	0.034	-0.116
-570.661	14.182	-0.064	0.050
-569.646	-110.186	0.242	0.051
-568.631	19.752	0.243	0.196
-567.617	800.000	-0.122	-0.421
-566.602	356.422	-0.078	0.156
-565.588	-95.699	0.034	-0.009
-564.573	-108.627	-0.071	0.015
-563.558	-200.000	0.017	-0.376
-562.544	82.898	0.165	-0.180
-561.529	-200.000	-0.007	-0.171
-560.515	110.083	0.153	-0.184
-559.500	463.536	-0.055	-0.122
-558.485	-200.000	0.054	0.296
-557.471	-122.776	-0.451	-0.073
-556.456	625.949	0.140	-0.355
-555.442	59.255	0.017	-0.017
-554.427	-200.000	0.006	-0.081
-553.412	33.319	0.275	-0.239
-552.398	-39.753	-0.065	0.034
-551.383	19.350	0.117	0.094
-550.369	-16.308	0.166	0.106
-549.354	795.288	0.075	-0.207
-548.339	139.897	-0.020	-0.027
-547.325	-200.000	-0.014	-0.214
-546.310	-59.537	-0.280	-0.121
-545.296	152.481	-0.227	0.310
-544.281	45.584	-0.190	-0.176
-543.266	460.274	-0.098	0.218
-542.252	356.162	-0.165	0.329
-541.237	-200.000	-0.019	-0.214
-540.223	-200.000	0.015	-0.329
-539.208	-72.313	-0.276	-0.103
-538.193	642.421	-0.098	-0.249
-537.179	-161.276	0.439	-0.023
-536.164	-70.415	0.288	0.109
-535.150	-88.230	0.189	0.057
-534.135	68.932	-0.164	-0.168
-533.121	-176.465	0.494	0.013
-532.106	114.595	0.314	0.383
-531.091	-200.000	0.056	0.265
-530.077	77.722	-0.113	0.120
-529.062	103.782	0.086	-0.102
-528.048	-113.241	-0.129	-0.025
-527.033	-6.676	-0.227	0.155
-526.018	118.185	0.171	-0.211
-525.004	309.264	-0.225	0.422
-523.989	30.036	0.299	-0.256
-522.975	-21.816	-0.245	-0.149
-521.960	-164.833	0.237	-0.011
-520.945	-85.017	-0.081	0.025
-519.931	174.461	-0.090	0.130
-518.916	463.909	0.007	0.015
-517.902	379.022	0.126	-0.259
-516.887	23.727	0.099	-0.082
-515.872	-200.000	-0.015	-0.118
-514.858	-200.000	-0.001	0.169
-513.843	6.095	-0.094	-0.070
-512.829	-147.901	0.089	-0.007
-511.814	-76.394	0.112	-0.039
-510.799	180.364	-0.083	0.122
-509.785	-186.476	0.046	0.001
-508.770	800.000	0.038	0.154
-507.756	-200.000	-0.022	-0.184
-506.741	-68.441	0.330	0.128
-505.726	800.000	-0.042	-0.120
-504.712	-98.030	-0.168	0.043
-503.697	-135.139	-0.208	0.025
-502.683	66.799	-0.288	0.293
-501.668	-200.000	0.029	0.256
-500.653	79.798	-0.029	0.031
-499.639	87.900	-0.258	-0.286
-498.624	-63.819	0.185	-0.076
-497.610	-94.755	0.388	0.105
-496.595	86.749	-0.124	0.136
-495.581	6.273	-0.093	-0.069
-494.566	-96.610	-0.200	-0.053
-493.551	25.493	0.250	0.208
-492.537	-200.000	-0.253	-0.000
-491.522	-37.881	-0.169	0.090
-490.508	66.690	0.056	-0.057
-489.493	9.439	-0.126	-0.096
-488.478	-120.859	-0.245	0.041
-487.464	-57.740	-0.163	0.071
-486.449	-200.000	-0.108	0.475
-485.435	27.187	0.232	0.195
-484.420	800.000	0.112	-0.363
-483.405	166.288	-0.028	0.039
-482.391	-19.310	0.139	-0.086
-481.376	192.247	0.161	-0.243
-480.362	692.847	0.104	0.272
-479.347	139.220	0.203	-0.266
-478.332	194.474	0.147	-0.223
-477.318	-165.961	-0.054	-0.002
-476.303	-200.000	0.028	-0.288
-475.289	-200.000	-0.013	-0.126
-474.274	800.000	-0.041	-0.123
-473.259	450.843	-0.148	0.326
-472.245	-26.298	0.055	-0.032
-471.230	-55.925	0.042	0.019
-470.216	800.000	-0.094	0.334
-469.201	36.593	-0.229	0.202
-468.186	77.830	0.092	0.098
-467.172	-78.461	0.217	0.074
-466.157	-32.705	0.434	-0.241
-465.143	106.384	-0.207	-0.245
-464.128	85.833	0.067	-0.074
-463.113	800.000	-0.028	-0.083
-462.099	-200.000	-0.043	-0.298
-461.084	727.021	-0.124	-0.331
-460.070	-31.926	-0.166	0.093
-459.055	30.463	-0.231	-0.198
-458.040	36.859	-0.216	0.191
-457.026	-84.910	0.153	-0.048
-456.011	-53.581	-0.118	0.054
-454.997	38.396	0.076	-0.068
-453.982	-200.000	0.002	-0.123
-452.968	256.717	0.117	-0.201
-451.953	203.069	-0.014	-0.022
-450.938	-102.751	-0.198	0.047
-449.924	88.386	0.304	0.338
-448.909	-73.256	-0.395	0.145
-447.895	-87.554	0.228	-0.069
-446.880	-200.000	0.005	-0.148
-445.865	-200.000	0.004	0.064
-444.851	42.108	0.087	0.079
-443.836	23.491	0.166	0.136
-442.822	65.837	-0.188	-0.190
-441.807	141.107	-0.132	-0.175
-440.792	-0.050	-0.026	-0.019
-439.778	-200.000	0.078	-0.372
-438.763	251.169	-0.120	0.203
-437.749	-200.000	-0.011	0.113
-436.734	-200.000	-0.083	-0.382
-435.719	724.800	0.028	0.075
-434.705	-196.827	-0.258	0.002
-433.690	-200.000	0.022	-0.196
-432.676	-11.670	0.134	-0.088
-431.661	-12.338	-0.314	-0.205
-430.646	-131.072	0.385	-0.051
-429.632	-59.858	-0.177	-0.075
-428.617	-37.556	0.104	0.055
-427.603	-100.816	-0.360	0.088
-426.588	-74.079	0.063	0.023
-425.573	142.307	-0.155	0.206
-424.559	-28.529	0.340	-0.196
-423.544	-58.035	-0.431	-0.187
-422.530	17.580	0.221	-0.175
-421.515	-48.949	-0.285	0.136
-420.500	-45.003	0.188	-0.093
-419.486	-95.112	-0.152	0.041
-418.471	-200.000	0.008	-0.090
-417.457	-124.204	0.331	-0.052
-416.442	-174.484	-0.189	0.005
-415.428	-20.389	-0.135	0.083
-414.413	238.442	0.157	-0.259
-413.398	-47.599	-0.177	0.086
-412.384	800.000	0.139	-0.405
-411.369	-27.329	0.071	-0.041
-410.355	96.681	0.236	0.269
-409.340	59.682	0.287	0.282
-408.325	496.948	0.067	0.153
-407.311	-21.189	-0.113	-0.069
-406.296	684.788	0.030	0.079
-405.282	800.000	0.101	0.394
-404.267	-119.839	-0.200	-0.034
-403.252	800.000	-0.024	0.104
-402.238	-200.000	0.046	0.543
-401.223	800.000	0.032	0.101
-400.209	800.000	0.112	0.436
-399.194	-116.222	-0.158	0.029
-398.179	-50.091	-0.174	-0.082
-397.165	50.461	0.118	0.111
-396.150	40.979	0.249	-0.224
-395.136	-200.000	0.020	-0.428
-394.121	30.681	0.102	-0.087
-393.106	-133.361	-0.427	0.053
-392.092	-87.011	-0.321	0.097
-391.077	-200.000	-0.040	-0.241
-390.063	-200.000	-0.006	0.137
-389.048	-200.000	0.016	0.091
-388.033	-200.000	0.057	0.287
-387.019	22.267	0.081	-0.066
-386.004	-33.170	-0.144	-0.079
-384.990	713.119	0.195	-0.513
-383.975	-133.805	0.229	0.028
-382.960	800.000	-0.110	0.446
-381.946	-200.000	0.024	0.153
-380.931	276.773	0.046	0.081
-379.917	-2.722	0.187	-0.130
-378.902	-29.280	0.271	-0.155
-377.888	-200.000	-0.012	0.095
-376.873	199.132	-0.109	-0.166
-375.858	155.477	-0.288	0.395
-374.844	184.743	-0.100	0.148
-373.829	-46.036	-0.110	0.054
-372.815	-146.797	-0.275	0.024
-371.800	246.466	0.072	0.121
-370.785	-109.124	-0.241	-0.051
-369.771	735.209	-0.098	0.260
-368.756	-0.753	-0.076	0.053
-367.742	-200.000	0.043	-0.285
-366.727	-200.000	-0.060	-0.430
-365.712	-200.000	0.005	0.146
-364.698	507.614	0.032	-0.073
-363.683	11.201	-0.076	-0.058
-362.669	427.590	-0.133	-0.286
-361.654	-200.000	-0.055	0.272
-360.639	-146.303	0.243	-0.021
-359.625	-107.949	0.071	0.015
-358.610	27.902	-0.061	-0.051
-357.596	-100.804	0.448	-0.110
-356.581	-200.000	-0.019	-0.174
-355.566	52.354	-0.064	-0.061
-354.552	-148.935	0.221	0.018
-353.537	179.237	0.046	0.067
-352.523	8.582	0.378	-0.283
-351.508	-19.225	-0.068	-0.042
-350.493	407.833	-0.066	0.139
-349.479	-200.000	-0.042	0.187
-348.464	-4.507	-0.303	-0.208
-347.450	-30.439	-0.367	-0.207
-346.435	225.214	0.114	0.184
-345.420	64.859	0.128	0.129
-344.406	-174.029	-0.169	0.005
-343.391	251.671	0.162	0.274
-342.377	-25.065	0.072	0.042
-341.362	-200.000	-0.106	-0.545
-340.348	69.067	0.062	0.063
-339.333	-107.191	-0.221	0.048
-338.318	103.679	0.234	-0.273
-337.304	800.000	0.078	0.330
-336.289	70.294	0.149	0.153
-335.275	-112.962	0.160	0.032
-334.260	-78.444	0.272	0.093
-333.245	-28.770	-0.119	0.068
-332.231	-200.000	0.006	0.225
-331.216	-137.398	0.345	0.039
-330.202	24.467	-0.065	-0.053
-329.187	-200.000	0.011	-0.240
-328.172	275.271	0.155	-0.273
-327.158	-64.448	-0.065	-0.026
-326.143	-126.105	-0.547	0.082
-325.129	-200.000	-0.049	0.326
-324.114	64.221	-0.098	-0.098
-323.099	530.171	-0.046	-0.109
-322.085	-98.918	0.290	0.073
-321.070	-200.000	0.012	0.086
-320.056	322.471	0.164	0.310
-319.041	-132.188	0.323	0.042
-318.026	-43.802	0.228	0.114
-317.012	139.024	-0.184	-0.240
-315.997	-81.898	-0.352	-0.114
-314.983	389.160	-0.232	-0.477
-313.968	-22.045	0.542	0.327
-312.953	-200.000	0.053	0.417
-311.939	-22.543	-0.262	0.158
-310.924	165.763	-0.076	-0.107
-309.910	-138.274	0.239	-0.026
-308.895	143.313	-0.082	0.108
-307.880	145.202	-0.049	-0.065
-306.866	-66.922	0.189	-0.074
-305.851	800.000	-0.042	-0.122
-304.837	-100.776	0.147	-0.036
-303.822	-42.348	-0.131	0.066
-302.807	36.206	0.115	0.100
-301.793	-200.000	0.024	0.346
-300.778	-146.375	0.478	0.041
-299.764	16.503	0.170	-0.133
-298.749	-102.028	0.065	0.016
-297.735	201.540	-0.125	0.190
-296.720	228.954	0.127	0.205
-295.705	-134.583	0.072	-0.009
-294.691	-131.827	0.527	0.068
-293.676	-200.000	0.031	-0.251
-292.662	-119.420	-0.191	-0.033
-291.647	-200.000	-0.008	-0.182
-290.632	-70.772	-0.329	-0.123
-289.618	61.578	-0.208	-0.205
-288.603	800.000	-0.091	-0.258
-287.589	86.587	0.124	-0.135
-286.574	800.000	0.070	0.207
-285.559	800.000	0.063	0.177
-284.545	34.818	-0.205	-0.178
-283.530	-200.000	-0.018	0.120
-282.516	415.983	-0.040	0.084
-281.501	-200.000	-0.008	0.270
-280.486	365.716	-0.191	-0.382
-279.472	-200.000	0.007	-0.223
-278.457	-107.413	-0.401	0.087
-277.443	-102.488	0.272	0.064
-276.428	-200.000	-0.063	0.478
-275.413	-200.000	-0.006	-0.201
-274.399	-111.623	0.298	-0.060
-273.384	-73.788	0.173	-0.062
-272.370	-78.353	0.187	-0.063
-271.355	-200.000	0.002	-0.322
-270.340	31.796	-0.178	-0.152
-269.326	63.189	-0.123	0.122
-268.311	675.234	0.050	0.128
-267.297	-197.105	0.099	0.001
-266.282	800.000	0.027	0.099
-265.267	-142.915	0.453	0.044
-264.253	193.394	0.089	0.133
-263.238	-34.571	0.337	0.183
-262.224	462.895	-0.091	0.201
-261.209	164.938	0.220	-0.307
-260.195	61.634	0.063	0.062
-259.180	800.000	0.097	-0.286
-258.165	378.544	-0.102	0.207
-257.151	25.174	0.277	0.228
-256.136	-200.000	0.031	-0.205
-255.122	-160.018	-0.333	0.018
-254.107	-38.382	0.441	-0.231
-253.092	343.416	0.088	-0.170
-252.078	-200.000	-0.045	-0.234
-251.063	-164.346	0.439	0.020
-250.049	-165.905	-0.117	0.005
-249.034	-200.000	-0.002	-0.186
-248.019	26.127	0.110	0.091
-247.005	-200.000	-0.077	0.342
-245.990	51.006	0.060	-0.056
-244.976	-200.000	0.013	-0.220
-243.961	243.531	-0.224	0.372
-242.946	800.000	0.033	0.125
-241.932	140.532	-0.096	-0.126
-240.917	-200.000	0.015	-0.133
-239.903	29.215	-0.104	-0.088
-238.888	43.320	0.075	0.067
-237.873	56.988	0.050	-0.048
-236.859	-61.258	0.104	0.043
-235.844	-200.000	0.008	0.104
-234.830	178.014	-0.143	-0.207
-233.815	-200.000	-0.005	-0.313
-232.800	170.072	-0.068	0.096
-231.786	-51.379	0.298	-0.138
-230.771	-20.228	0.174	-0.106
-229.757	800.000	0.068	-0.259
-228.742	-200.000	-0.040	0.351
-227.727	100.883	-0.221	-0.255
-226.713	-200.000	0.038	0.275
-225.698	-145.858	-0.186	0.016
-224.684	-194.622	-0.214	0.002
-223.669	-200.000	-0.072	0.382
-222.655	318.929	0.065	0.121
-221.640	316.465	0.197	0.368
-220.625	219.428	0.183	0.289
-219.611	-75.570	0.240	-0.084
-218.596	-200.000	-0.019	-0.107
-217.582	-7.604	0.090	-0.060
-216.567	-115.065	-0.199	0.037
-215.552	520.971	0.079	0.184
-214.538	223.367	-0.057	0.091
-213.523	-102.075	0.183	0.044
-212.509	-200.000	0.017	-0.161
-211.494	475.571	0.117	-0.261
-210.479	-56.545	0.176	0.077
-209.465	-94.337	-0.162	0.044
-208.450	459.694	-0.073	0.160
-207.436	341.282	0.020	-0.038
-206.421	46.290	0.074	-0.068
-205.406	800.000	-0.044	-0.153
-204.392	-200.000	-0.042	0.286
-203.377	-158.376	-0.210	0.012
-202.363	-34.352	0.130	-0.071
-201.348	355.796	-0.135	0.266
-200.333	800.000	0.094	0.350
-199.319	52.520	-0.138	0.131
-198.304	48.449	-0.020	-0.019
-197.290	-69.035	-0.211	0.080
-196.275	-200.000	-0.010	-0.123
-195.260	-69.917	-0.232	-0.087
-194.246	-10.067	-0.064	0.042
-193.231	-79.429	0.155	0.052
-192.217	-70.948	-0.074	0.028
-191.202	116.091	-0.049	0.059
-190.187	-40.656	0.272	-0.139
-189.173	-69.517	-0.188	-0.071
-188.158	-76.840	-0.300	0.104
-187.144	-200.000	0.062	0.270
-186.129	-4.975	-0.231	-0.157
-185.114	460.892	-0.101	0.223
-184.100	-200.000	-0.233	-0.000
-183.085	-31.956	0.078	-0.043
-182.071	105.272	-0.102	-0.119
-181.056	83.469	0.247	-0.266
-180.042	-4.101	0.063	-0.043
-179.027	-200.000	0.013	0.060
-178.012	800.000	-0.015	-0.052
-176.998	-200.000	0.005	-0.086
-175.983	68.446	-0.149	0.151
-174.969	46.751	-0.344	0.316
-173.954	49.518	0.095	0.088
-172.939	91.864	-0.181	0.201
-171.925	-1.654	-0.092	0.064
-170.910	-104.867	0.097	-0.022
-169.896	238.470	0.087	-0.142
-168.881	-104.367	-0.182	-0.042
-167.866	-200.000	0.007	-0.247
-166.852	800.000	-0.025	0.100
-165.837	5.597	-0.065	-0.048
-164.823	115.883	0.111	0.134
-163.808	-48.759	-0.236	-0.112
-162.793	-1.411	0.035	-0.024
-161.779	-145.793	0.272	-0.024
-160.764	-173.313	0.141	-0.004
-159.750	-15.359	-0.134	0.085
-158.735	73.776	0.061	-0.063
-157.720	-13.899	0.111	0.071
-156.706	-117.821	0.291	0.052
-155.691	-200.000	-0.009	0.049
-154.677	9.170	-0.214	-0.160
-153.662	187.659	0.122	-0.180
-152.647	27.740	0.065	0.054
-151.633	-0.476	0.060	0.042
-150.618	-200.000	0.004	0.144
-149.604	-165.737	0.123	0.005
-148.589	-85.021	-0.176	-0.055
-147.574	20.476	-0.145	-0.115
-146.560	-163.327	-0.197	0.009
-145.545	-200.000	0.034	0.390
-144.531	33.492	-0.044	0.038
-143.516	634.904	0.093	-0.233
-142.502	800.000	0.024	-0.084
-141.487	-200.000	-0.050	0.224
-140.472	460.531	-0.131	-0.288
-139.458	800.000	-0.042	0.134
-138.443	1.856	-0.053	0.038
-137.429	-83.335	-0.183	-0.058
-136.414	7.081	-0.172	0.127
-135.399	349.389	0.123	-0.239
-134.385	250.007	-0.084	0.141
-133.370	800.000	-0.023	0.085
-132.356	-51.300	0.039	0.018
-131.341	-3.058	-0.100	0.069
-130.326	240.967	0.080	0.132
-129.312	-74.529	0.494	-0.175
-128.297	354.912	0.022	-0.044
-127.283	91.194	0.292	-0.323
-126.268	-200.000	0.003	-0.174
-125.253	55.070	0.069	0.065
-124.239	-200.000	-0.072	-0.602
-123.224	-18.909	0.280	-0.172
-122.210	-93.888	-0.115	-0.031
-121.195	-100.318	0.235	-0.057
-120.180	189.838	0.097	0.144
-119.166	337.490	0.185	-0.355
-118.151	56.401	-0.160	0.153
-117.137	-47.625	-0.240	-0.115
-116.122	-102.507	-0.374	0.088
-115.107	-104.822	0.007	0.002
-114.093	-40.384	0.230	0.118
-113.078	-68.876	0.218	0.083
-112.064	153.230	-0.238	0.321
-111.049	51.172	0.080	0.074
-110.034	675.818	0.076	0.195
-109.020	-34.943	-0.221	-0.119
-108.005	800.000	-0.019	-0.077
-106.991	-131.731	0.292	-0.038
-105.976	-41.659	0.243	0.123
-104.962	-85.014	-0.152	-0.047
-103.947	-5.285	-0.186	-0.126
-102.932	-117.179	0.058	-0.010
-101.918	-175.601	0.520	0.014
-100.903	742.422	0.076	-0.201
-99.889	53.247	0.118	0.111
-98.874	40.320	0.292	0.259
-97.859	10.671	-0.130	0.097
-96.845	151.110	0.161	-0.215
-95.830	680.653	-0.101	0.258
-94.816	-119.359	-0.069	-0.012
-93.801	-92.145	-0.183	-0.051
-92.786	-200.000	0.032	-0.286
-91.772	61.690	0.176	-0.172
-90.757	-132.262	-0.310	0.040
-89.743	44.952	-0.165	-0.150
-88.728	800.000	-0.076	-0.217
-87.713	437.634	-0.151	-0.324
-86.699	118.093	-0.068	-0.083
-85.684	40.275	0.256	-0.227
-84.670	-42.983	0.320	0.160
-83.655	-132.323	0.217	-0.028
-82.640	-52.760	0.432	0.196
-81.626	-200.000	-0.065	-0.292
-80.611	-75.560	-0.224	0.078
-79.597	-200.000	-0.041	0.264
-78.582	800.000	-0.043	0.174
-77.567	43.337	-0.156	-0.140
-76.553	-200.000	-0.030	0.136
-75.538	-114.538	-0.115	0.022
-74.524	-51.681	-0.036	0.017
-73.509	-94.754	-0.098	0.026
-72.494	46.828	0.325	0.297
-71.480	54.003	0.076	0.072
-70.465	77.544	0.191	-0.200
-69.451	800.000	-0.076	0.301
-68.436	800.000	-0.055	0.165
-67.422	84.684	-0.152	-0.164
-66.407	-54.225	0.147	0.066
-65.392	143.388	-0.175	-0.229
-64.378	177.701	-0.100	-0.143
-63.363	3.860	0.178	-0.128
-62.349	739.825	-0.079	-0.208
-61.334	11.525	-1.202	-0.906
-60.319	67.140	0.580	0.581
-59.305	-200.000	-0.038	-0.605
-58.290	800.000	0.276	1.068
-57.276	471.108	0.588	1.301
-56.261	-200.000	95.185	599.797
-55.246	643.895	1393.559	3494.121
-54.232	191.449	2595.301	3841.764
-53.217	113.345	2297.975	2741.161
-52.203	41.356	1918.283	1705.507
-51.188	34.963	1706.153	1467.996
-50.173	32.270	1662.357	1410.089
-49.159	50.730	1707.917	1589.241
-48.144	52.110	1723.714	1614.333
-47.130	34.673	1685.330	1447.654
-46.115	31.774	1671.592	1413.956
-45.100	31.638	1666.373	1408.464
-44.086	31.686	1663.135	1406.030
-43.071	31.597	1660.896	1403.413
-42.057	31.589	1658.408	1401.194
-41.042	31.677	1656.230	1399.962
-40.027	31.662	1654.670	1398.476
-39.013	31.609	1652.485	1396.178
-37.998	31.533	1651.327	1394.579
-36.984	31.635	1649.683	1393.890
-35.969	31.749	1648.042	1393.298
-34.954	31.767	1646.383	1391.973
-33.940	31.611	1645.257	1389.808
-32.925	31.604	1643.306	1388.056
-31.911	31.650	1641.428	1386.755
-30.896	31.707	1639.183	1385.222
-29.881	31.607	1637.897	1383.339
-28.867	31.690	1635.888	1382.200
-27.852	31.611	1634.847	1380.687
-26.838	31.664	1632.964	1379.434
-25.823	31.711	1631.616	1378.580
-24.809	31.761	1630.539	1377.983
-23.794	31.744	1628.929	1376.447
-22.779	31.710	1627.936	1375.301
-21.765	31.711	1625.749	1373.411
-20.750	31.778	1623.822	1372.220
-19.736	31.691	1623.105	1370.915
-18.721	31.713	1621.377	1369.564
-17.706	31.699	1619.920	1368.180
-16.692	31.637	1618.401	1366.388
-15.677	31.691	1617.321	1365.815
-14.663	31.755	1615.976	1365.091
-13.648	31.716	1614.489	1363.498
-12.633	31.704	1612.848	1361.974
-11.619	31.741	1611.211	1360.802
-10.604	31.677	1609.791	1359.086
-9.590	31.776	1608.072	1358.301
-8.575	31.832	1606.829	1357.602
-7.560	31.798	1605.542	1356.215
-6.546	31.650	1604.940	1354.577
-5.531	31.679	1603.525	1353.544
-4.517	31.668	1602.200	1352.293
-3.502	31.662	1601.209	1351.359
-2.487	31.767	1599.451	1350.577
-1.473	31.679	1588.062	1340.277
-0.458	28.967	1567.972	1304.070
0.556	27.405	1568.813	1270.871
1.571	24.916	1592.327	1272.141
2.586	23.943	1604.686	1274.935
3.600	20.962	1550.704	1211.256
4.615	12.988	1441.480	1074.129
5.629	5.939	1377.976	982.718
6.644	4.552	1370.057	968.349
7.659	4.562	1368.471	967.205
8.673	4.593	1367.937	966.934
9.688	4.682	1366.004	966.032
10.702	4.576	1363.516	963.530
11.717	7.980	1368.886	988.391
12.731	16.036	1384.252	1049.772
13.746	21.789	1393.185	1092.410
14.761	22.532	1393.017	1096.805
15.775	21.860	1391.138	1091.049
16.790	20.964	1388.521	1083.335
17.804	20.115	1386.174	1076.141
18.819	19.716	1385.333	1072.915
19.834	19.623	1384.105	1071.295
20.848	19.569	1383.033	1070.035
21.863	19.357	1382.033	1067.855
22.877	19.177	1380.960	1065.819
23.892	19.123	1379.955	1064.614
24.907	19.129	1379.181	1063.961
25.921	19.118	1377.970	1062.861
26.936	19.197	1377.222	1062.681
27.950	19.133	1376.411	1061.567
28.965	19.243	1375.285	1061.278
29.980	19.469	1374.120	1061.675
30.994	19.560	1373.518	1061.675
32.009	19.658	1372.181	1061.150
33.023	19.637	1371.124	1060.112
34.038	19.496	1369.692	1058.048
35.053	19.236	1368.921	1055.765
36.067	19.445	1367.216	1055.634
37.082	19.305	1366.864	1054.415
38.096	19.484	1365.515	1054.375
39.111	19.474	1364.831	1053.689
40.126	19.310	1363.380	1051.478
41.140	19.095	1362.769	1049.604
42.155	18.929	1361.999	1047.907
43.169	18.784	1362.220	1047.098
44.184	18.791	1361.769	1046.698
45.199	18.796	1361.679	1046.570
46.213	19.077	1360.874	1047.571
47.228	19.176	1360.477	1047.776
48.242	19.296	1359.346	1047.540
49.257	19.291	1357.588	1046.063
50.271	19.223	1356.112	1044.416
51.286	19.259	1355.180	1043.826
52.301	19.325	1353.186	1042.597
53.315	19.160	1352.237	1040.777
54.330	19.002	1351.695	1039.312
55.344	18.918	1350.064	1037.459
56.359	19.091	1348.726	1037.386
57.374	18.890	1348.529	1035.931
58.388	18.787	1347.411	1034.358
59.403	18.787	1346.882	1033.860
60.417	18.722	1346.256	1032.898
61.432	18.755	1344.953	1032.004
62.447	18.632	1343.749	1030.251
63.461	18.589	1342.901	1029.249
64.476	18.607	1341.819	1028.436
65.490	18.663	1340.626	1027.768
66.505	18.582	1339.482	1026.318
67.520	18.654	1338.206	1025.676
68.534	18.682	1337.261	1025.029
69.549	18.837	1335.698	1024.666
70.563	18.566	1335.280	1022.638
71.578	18.580	1333.671	1021.397
72.593	18.368	1333.084	1019.595
73.607	18.328	1332.486	1018.810
74.622	18.413	1331.605	1018.552
75.636	18.469	1330.953	1018.299
76.651	18.596	1329.775	1018.060
77.666	18.501	1330.049	1017.615
78.680	18.649	1329.431	1017.929
79.695	18.662	1328.684	1017.346
80.709	18.773	1328.123	1017.485
81.724	18.833	1327.266	1017.096
82.739	19.008	1326.410	1017.382
83.753	19.170	1325.769	1017.757
84.768	19.223	1324.849	1017.273
85.782	19.430	1323.919	1017.689
86.797	19.444	1322.549	1016.631
87.812	19.249	1321.671	1014.717
88.826	19.250	1320.666	1013.860
89.841	19.256	1319.504	1012.914
90.855	19.392	1318.154	1012.588
91.870	19.372	1317.779	1012.092
92.884	19.531	1316.592	1012.022
93.899	19.555	1315.603	1011.314
94.914	19.493	1315.427	1010.725
95.928	19.543	1314.159	1009.956
96.943	19.447	1313.296	1008.645
97.957	19.470	1312.424	1008.019
98.972	19.380	1311.471	1006.672
99.987	19.405	1310.500	1005.983
101.001	19.375	1309.312	1004.807
102.016	19.369	1308.756	1004.255
103.030	19.387	1307.883	1003.602
104.045	19.415	1306.433	1002.566
105.060	19.250	1305.505	1000.803
106.074	18.997	1303.771	997.921
107.089	18.839	1302.119	995.653
108.103	18.612	1300.877	993.297
109.118	18.640	1299.689	992.465
110.133	18.627	1298.364	991.293
111.147	18.727	1297.347	991.005
112.162	18.790	1295.834	990.126
113.176	18.871	1294.748	989.672
114.191	18.863	1294.138	989.076
115.206	18.910	1292.693	988.150
116.220	18.756	1291.578	986.327
117.235	18.793	1290.476	985.614
118.249	18.739	1289.334	984.340
119.264	18.735	1288.081	983.273
120.279	18.612	1287.018	981.672
121.293	18.595	1285.531	980.352
122.308	18.547	1284.587	979.274
123.322	18.529	1283.308	978.110
124.337	18.284	1282.998	976.392
125.352	18.300	1281.894	975.554
126.366	18.451	1280.426	975.213
127.381	18.479	1279.426	974.524
128.395	18.440	1278.657	973.625
129.410	18.470	1277.870	973.112
130.424	18.560	1276.915	972.809
131.439	18.708	1275.941	972.820
132.454	18.723	1275.278	972.312
133.468	18.780	1274.347	971.841
134.483	18.893	1273.809	971.985
135.497	18.783	1272.982	970.644
136.512	18.895	1271.476	970.041
137.527	18.948	1269.934	969.080
138.541	18.961	1268.654	968.091
139.556	19.011	1267.632	967.507
140.570	19.024	1267.045	967.045
141.585	19.125	1265.819	966.593
142.600	19.290	1264.460	966.392
143.614	19.344	1263.596	965.948
144.629	19.364	1262.831	965.393
145.643	19.356	1261.881	964.535
146.658	19.336	1260.112	962.987
147.673	19.086	1258.408	960.203
148.687	18.832	1257.790	958.231
149.702	18.858	1255.833	956.798
150.716	18.772	1254.679	955.356
151.731	18.810	1253.681	954.725
152.746	18.851	1252.758	954.166
153.760	19.055	1250.856	953.760
154.775	19.032	1250.386	953.194
155.789	19.097	1249.002	952.416
156.804	19.102	1248.682	952.111
157.819	19.170	1248.058	951.928
158.833	19.300	1247.086	951.820
159.848	19.475	1245.872	951.778
160.862	19.413	1244.974	950.662
161.877	19.080	1243.481	947.606
162.892	18.847	1242.265	945.312
163.906	18.913	1241.417	944.949
164.921	18.915	1240.108	943.879
165.935	18.976	1239.587	943.733
166.950	19.021	1239.052	943.492
167.964	19.080	1238.017	942.940
168.979	19.084	1237.414	942.421
169.994	19.065	1236.650	941.648
171.008	19.070	1235.827	940.970
172.023	19.122	1235.531	940.942
173.037	19.431	1234.511	941.773
174.052	19.335	1233.642	940.500
175.067	19.090	1232.096	937.904
176.081	18.889	1231.002	935.895
177.096	18.955	1229.949	935.372
178.110	18.989	1228.787	934.586
179.125	18.953	1228.052	933.748
180.140	19.168	1226.853	933.922
181.154	19.221	1225.818	933.337
182.169	19.424	1224.344	933.236
183.183	19.317	1223.616	932.016
184.198	19.449	1222.480	931.782
185.213	19.457	1221.328	930.864
186.227	19.447	1220.448	930.057
187.242	19.475	1219.774	929.613
188.256	19.533	1218.792	929.093
189.271	19.601	1217.706	928.550
190.286	19.395	1216.539	926.473
191.300	18.934	1215.218	922.909
192.315	18.941	1214.188	922.084
193.329	19.057	1213.656	922.220
194.344	18.990	1213.970	922.018
195.359	19.141	1213.172	922.136
196.373	19.175	1213.160	922.228
197.388	19.279	1213.222	922.753
198.402	19.477	1212.579	923.238
199.417	19.703	1211.829	923.796
200.432	19.836	1211.083	923.858
201.446	19.829	1210.632	923.395
202.461	19.938	1209.525	923.048
203.475	19.837	1208.572	921.700
204.490	19.680	1207.306	919.820
205.504	19.590	1205.595	917.956
206.519	19.565	1204.177	916.660
207.534	19.394	1203.233	914.957
208.548	19.581	1202.312	915.165
209.563	19.494	1201.680	914.144
210.577	19.450	1200.797	913.158
211.592	19.660	1199.793	913.422
212.607	19.819	1199.019	913.594
213.621	19.809	1198.521	913.080
214.636	19.818	1197.332	912.139
215.650	19.812	1196.264	911.212
216.665	19.894	1195.454	910.949
217.680	19.880	1195.054	910.488
218.694	20.019	1194.215	910.501
219.709	20.003	1193.018	909.421
220.723	19.903	1192.624	908.519
221.738	19.931	1191.345	907.611
222.753	19.936	1190.581	906.971
223.767	19.906	1190.155	906.412
224.782	20.003	1189.856	906.611
225.796	20.164	1189.013	906.731
226.811	20.087	1188.429	905.805
227.826	19.968	1187.388	904.306
228.840	19.781	1186.854	902.845
229.855	19.827	1186.018	902.371
230.869	19.916	1185.066	902.030
231.884	19.729	1184.769	900.750
232.899	19.722	1183.838	899.922
233.913	19.610	1182.684	898.383
234.928	19.593	1182.083	897.761
235.942	19.549	1181.158	896.750
236.957	19.690	1180.367	896.800
237.972	19.540	1179.862	895.562
238.986	19.655	1179.135	895.525
240.001	19.568	1178.612	894.597
241.015	19.659	1177.306	893.997
242.030	19.715	1176.826	893.845
243.045	19.870	1176.221	894.108
244.059	19.843	1175.433	893.290
245.074	20.038	1174.583	893.571
246.088	20.066	1173.767	893.015
247.103	20.106	1173.276	892.767
248.117	20.178	1172.596	892.541
249.132	20.400	1171.996	893.148
250.147	20.641	1171.937	894.266
251.161	20.716	1170.993	893.850
252.176	20.663	1170.846	893.386
253.190	20.732	1169.615	892.721
254.205	20.788	1169.421	892.782
255.220	20.781	1168.608	892.048
256.234	20.882	1167.773	891.847
257.249	20.769	1166.901	890.525
258.263	20.759	1166.683	890.230
259.278	20.733	1165.888	889.412
260.293	20.759	1165.529	889.190
261.307	20.890	1164.892	889.291
262.322	20.909	1164.007	888.634
263.336	20.913	1163.441	888.145
264.351	21.003	1162.715	887.974
265.366	21.033	1162.301	887.729
266.380	20.928	1161.452	886.468
267.395	20.861	1160.364	885.222
268.409	20.721	1159.654	883.887
269.424	20.774	1158.803	883.432
270.439	20.723	1158.521	882.878
271.453	20.685	1157.681	881.970
272.468	20.568	1156.322	880.263
273.482	20.576	1155.606	879.681
274.497	20.510	1155.507	879.191
275.512	20.586	1155.009	879.122
276.526	20.647	1153.775	878.413
277.541	20.574	1152.889	877.289
278.555	20.651	1152.304	877.155
279.570	20.867	1151.957	877.902
280.585	20.945	1151.244	877.676
281.599	21.012	1150.368	877.264
282.614	20.744	1148.837	874.676
283.628	20.819	1147.057	873.619
284.643	20.645	1146.903	872.552
285.657	20.736	1145.981	872.226
286.672	20.755	1145.162	871.625
287.687	20.868	1143.856	871.117
288.701	20.834	1143.616	870.688
289.716	20.789	1142.552	869.575
290.730	20.894	1141.742	869.406
291.745	20.816	1141.578	868.813
292.760	20.861	1140.533	868.166
293.774	20.860	1140.286	867.896
294.789	21.114	1139.663	868.611
295.803	21.057	1138.909	867.676
296.818	20.972	1138.075	866.540
297.833	20.896	1137.001	865.271
298.847	20.907	1136.455	864.830
299.862	20.842	1135.751	863.896
300.876	20.925	1135.214	863.825
301.891	21.054	1134.823	864.086
302.906	21.227	1133.943	864.198
303.920	21.336	1133.385	864.236
304.935	21.379	1132.750	863.885
305.949	21.408	1132.296	863.608
306.964	21.357	1131.573	862.728
307.979	21.294	1130.728	861.695
308.993	21.288	1129.930	860.982
310.008	21.372	1129.079	860.670
311.022	21.310	1128.602	859.929
312.037	21.291	1127.533	858.942
313.052	21.108	1126.739	857.364
314.066	21.057	1125.477	856.077
315.081	20.873	1124.486	854.344
316.095	20.864	1123.748	853.664
317.110	20.887	1123.319	853.374
318.125	20.971	1122.253	852.901
319.139	20.904	1121.914	852.242
320.154	20.820	1121.357	851.330
321.168	20.755	1120.734	850.463
322.183	20.888	1120.175	850.618
323.197	20.990	1119.493	850.521
324.212	21.138	1118.665	850.535
325.227	21.088	1118.274	849.921
326.241	21.122	1117.575	849.480
327.256	21.023	1116.914	848.419
328.270	20.939	1115.844	847.126
329.285	21.013	1114.558	846.432
330.300	20.916	1114.267	845.668
331.314	21.018	1113.392	845.421
332.329	21.005	1112.187	844.369
333.343	21.179	1111.096	844.309
334.358	21.210	1110.700	844.084
335.373	21.303	1109.841	843.806
336.387	21.349	1109.160	843.431
337.402	21.358	1108.698	843.050
338.416	21.424	1108.126	842.860
339.431	21.482	1107.458	842.557
340.446	21.608	1106.953	842.706
341.460	21.790	1106.360	843.052
342.475	21.860	1105.194	842.424
343.489	21.771	1104.773	841.604
344.504	21.967	1103.899	841.803
345.519	21.907	1102.973	840.733
346.533	22.008	1102.041	840.435
347.548	21.891	1101.814	839.627
348.562	21.916	1100.657	838.790
349.577	21.742	1099.820	837.248
350.592	21.605	1098.560	835.561
351.606	21.502	1097.986	834.560
352.621	21.393	1097.060	833.260
353.635	21.314	1096.652	832.500
354.650	21.409	1095.566	832.057
355.665	21.419	1095.151	831.715
356.679	21.556	1094.605	831.876
357.694	21.594	1094.217	831.690
358.708	21.847	1093.101	831.969
359.723	21.824	1092.548	831.361
360.738	21.690	1092.336	830.494
361.752	21.748	1091.199	829.832
362.767	21.868	1090.924	830.114
363.781	21.793	1090.754	829.555
364.796	21.937	1090.211	829.753
365.810	22.039	1089.487	829.609
366.825	22.136	1089.088	829.689
367.840	22.275	1088.713	829.989
368.854	22.242	1088.240	829.395
369.869	22.360	1087.392	829.236
370.883	22.214	1086.261	827.613
371.898	22.109	1085.370	826.365
372.913	21.993	1085.057	825.510
373.927	22.147	1084.152	825.469
374.942	22.336	1083.578	825.848
375.956	22.224	1083.257	825.003
376.971	22.216	1082.551	824.356
377.986	22.177	1082.190	823.824
379.000	22.410	1081.722	824.489
380.015	22.439	1081.360	824.273
381.029	22.468	1080.931	824.011
382.044	22.437	1080.242	823.267
383.059	22.515	1079.227	822.786
384.073	22.286	1078.594	821.162
385.088	22.479	1077.827	821.404
386.102	22.441	1076.906	820.454
387.117	22.172	1075.582	818.119
388.132	22.040	1074.544	816.641
389.146	22.069	1073.654	816.032
390.161	22.051	1073.065	815.426
391.175	22.053	1072.190	814.701
392.190	22.129	1071.833	814.706
393.205	22.441	1070.947	815.409
394.219	22.437	1070.259	814.790
395.234	22.325	1069.125	813.340
396.248	22.249	1068.056	812.101
397.263	22.148	1067.215	810.927
398.278	22.092	1066.588	810.118
399.292	21.954	1065.564	808.633
400.307	21.763	1065.102	807.331
401.321	21.912	1064.288	807.328
402.336	22.043	1063.259	807.082
403.350	21.933	1063.067	806.359
404.365	21.987	1062.509	806.111
405.380	22.153	1061.556	806.076
406.394	22.215	1061.026	805.887
407.409	22.329	1060.246	805.748
408.423	22.583	1059.713	806.431
409.438	22.522	1059.213	805.701
410.453	22.685	1058.201	805.607
411.467	22.823	1057.367	805.528
412.482	22.846	1056.955	805.246
413.496	22.813	1056.613	804.767
414.511	22.868	1056.220	804.647
415.526	22.885	1056.206	804.641
416.540	23.039	1055.504	804.737
417.555	22.998	1055.294	804.318
418.569	22.972	1053.922	803.084
419.584	22.923	1053.832	802.722
420.599	22.883	1053.095	801.907
421.613	156.032	1400.982	1794.310
422.628	143.282	1451.685	1794.427
