DTS Sentinel unit serial number:	SN413079Multiplexer serial number:	ORYXHardware model number:	OX4-SRSoftware version number:	ORYX F/W v4.00 Oryx Data Collector v3.7.2.0data status	okinstallation	princeton_trtdifferential loss correction	single-endedforward channel	channel 2reverse channel	N/Adate	2019/09/11time	20:45:11forward acquisition time	60.00reverse acquisition time	0.00gamma	496.2192k internal	0.2321k external	0.2321temperature offset calibration	1.0058default loss term (dB/km)	0.3790temperature slope calibration	1.0000multiplexer offset coefficient	1.0000multiplexer slope coefficient	1.0000fibre end	0.00T internal ref (°C)	37.12T ext. ref 1 (°C)	1.57T ext. ref 2 (°C)	30.86length (m)	temperature (°C)	Stokes	anti-Stokes-747.200	800.000	0.030	0.099
-746.185	250.821	-0.134	0.231
-745.171	-105.911	0.079	0.018
-744.156	-159.536	-0.322	0.018
-743.142	224.428	0.191	-0.312
-742.127	173.694	0.095	-0.139
-741.112	-200.000	-0.005	0.096
-740.098	-162.756	0.113	0.006
-739.083	-55.453	0.288	0.131
-738.069	197.312	0.129	0.199
-737.054	372.951	-0.109	0.223
-736.039	-10.317	-0.204	-0.137
-735.025	-81.929	0.398	-0.132
-734.010	103.670	-0.143	0.170
-732.996	425.327	-0.082	-0.179
-731.981	-127.637	-0.494	0.072
-730.966	68.082	0.363	-0.375
-729.952	2.502	0.063	0.046
-728.937	-100.362	-0.231	0.058
-727.923	-81.216	-0.080	0.027
-726.908	98.417	0.044	-0.052
-725.894	0.478	-0.224	0.162
-724.879	623.999	-0.080	-0.204
-723.864	-18.033	-0.097	0.061
-722.850	-38.804	-0.114	0.060
-721.835	749.338	-0.142	-0.387
-720.821	800.000	0.132	-0.380
-719.806	-200.000	-0.039	0.249
-718.791	-24.371	-0.184	-0.111
-717.777	752.383	-0.081	0.221
-716.762	-44.052	-0.320	0.162
-715.748	86.071	0.047	-0.052
-714.733	800.000	0.018	0.059
-713.718	141.574	-0.114	-0.153
-712.704	-200.000	-0.001	-0.249
-711.689	-101.934	-0.534	-0.130
-710.675	-87.274	0.144	0.044
-709.660	-200.000	-0.024	-0.341
-708.645	229.221	0.058	0.096
-707.631	-200.000	0.011	0.133
-706.616	-185.021	-0.305	0.005
-705.602	24.804	0.178	-0.149
-704.587	-68.091	-0.224	-0.088
-703.572	-200.000	0.014	-0.062
-702.558	-110.605	0.147	0.031
-701.543	87.779	0.118	0.132
-700.529	-36.037	-0.045	0.025
-699.514	-99.389	0.370	0.094
-698.499	-200.000	0.090	-0.592
-697.485	-22.942	-0.145	-0.088
-696.470	125.458	0.098	-0.124
-695.456	297.014	0.108	-0.200
-694.441	95.440	0.094	0.108
-693.426	177.479	-0.121	-0.178
-692.412	589.451	0.021	0.051
-691.397	-134.130	-0.356	0.044
-690.383	800.000	0.054	-0.167
-689.368	-200.000	0.000	0.362
-688.354	-115.284	0.169	0.032
-687.339	-101.559	0.047	-0.011
-686.324	-29.774	0.346	0.199
-685.310	300.140	0.106	-0.197
-684.295	-145.570	0.286	-0.026
-683.281	113.583	0.146	0.179
-682.266	506.086	0.195	0.457
-681.251	361.653	-0.101	0.203
-680.237	-9.791	-0.312	0.209
-679.222	-14.629	-0.197	0.128
-678.208	138.335	0.185	-0.245
-677.193	-12.600	-0.250	-0.164
-676.178	53.359	0.053	-0.051
-675.164	800.000	-0.009	0.029
-674.149	44.456	-0.118	0.109
-673.135	574.024	-0.089	-0.220
-672.120	34.044	0.266	-0.234
-671.105	42.596	0.182	-0.167
-670.091	19.831	-0.069	-0.056
-669.076	416.375	-0.073	0.157
-668.062	114.864	0.070	-0.086
-667.047	368.055	-0.154	0.313
-666.032	-151.000	0.278	0.021
-665.018	619.211	-0.084	-0.213
-664.003	-200.000	-0.022	-0.380
-662.989	800.000	-0.091	-0.317
-661.974	-66.266	-0.279	-0.112
-660.959	100.030	-0.144	0.168
-659.945	-14.236	-0.180	-0.117
-658.930	66.479	-0.373	-0.382
-657.916	-200.000	0.003	-0.195
-656.901	141.182	-0.049	0.065
-655.886	316.558	-0.089	0.169
-654.872	26.881	0.044	-0.038
-653.857	-111.866	-0.275	-0.056
-652.843	-114.731	-0.241	-0.046
-651.828	29.777	-0.048	0.041
-650.814	-133.516	-0.298	0.038
-649.799	553.551	0.046	0.111
-648.784	-79.763	-0.098	0.033
-647.770	338.375	0.057	-0.112
-646.755	-200.000	0.025	-0.132
-645.741	800.000	-0.020	-0.073
-644.726	800.000	-0.066	0.187
-643.711	-49.774	0.100	0.048
-642.697	59.772	-0.229	-0.227
-641.682	534.884	0.157	-0.374
-640.668	-137.802	0.362	-0.041
-639.653	-48.594	-0.078	-0.038
-638.638	398.706	-0.125	0.264
-637.624	-121.542	0.275	-0.046
-636.609	411.853	-0.160	-0.342
-635.595	134.133	-0.171	0.223
-634.580	204.300	-0.122	0.191
-633.565	-53.277	0.359	0.166
-632.551	800.000	0.052	-0.225
-631.536	194.104	-0.036	-0.056
-630.522	167.953	-0.033	-0.048
-629.507	350.578	-0.098	-0.194
-628.492	-200.000	-0.023	-0.122
-627.478	390.772	-0.165	0.344
-626.463	468.848	-0.108	0.243
-625.449	84.438	-0.252	-0.278
-624.434	69.508	0.233	-0.241
-623.419	800.000	0.046	-0.155
-622.405	-200.000	0.013	0.420
-621.390	92.467	-0.129	0.147
-620.376	-151.883	-0.199	0.015
-619.361	-200.000	-0.005	-0.063
-618.346	-200.000	-0.018	0.139
-617.332	-94.087	0.073	0.020
-616.317	-98.798	-0.219	-0.056
-615.303	-105.221	0.190	-0.044
-614.288	750.711	0.186	0.506
-613.273	-41.268	0.112	0.058
-612.259	-200.000	-0.026	-0.366
-611.244	461.276	0.173	-0.387
-610.230	11.485	-0.161	-0.124
-609.215	800.000	0.117	-0.444
-608.201	340.141	-0.061	-0.120
-607.186	-69.887	-0.469	0.180
-606.171	-200.000	-0.000	0.058
-605.157	-200.000	0.013	0.113
-604.142	-200.000	0.022	-0.152
-603.128	-200.000	-0.016	-0.089
-602.113	29.862	-0.170	0.145
-601.098	-7.325	-0.151	0.103
-600.084	410.626	0.093	0.198
-599.069	109.617	-0.073	0.087
-598.055	-128.607	-0.272	-0.039
-597.040	-152.550	-0.254	-0.018
-596.025	-200.000	0.043	-0.310
-595.011	-78.672	0.147	0.051
-593.996	-49.679	0.095	0.045
-592.982	13.104	0.098	0.076
-591.967	-84.892	-0.225	-0.071
-590.952	110.852	0.060	-0.073
-589.938	-78.295	-0.362	-0.125
-588.923	-59.641	0.203	0.087
-587.909	-172.394	-0.064	0.002
-586.894	-117.717	-0.292	-0.053
-585.879	-90.643	-0.307	0.089
-584.865	-193.243	0.044	0.000
-583.850	47.044	0.194	0.181
-582.836	91.545	-0.084	0.095
-581.821	-200.000	-0.012	-0.193
-580.806	361.704	0.103	-0.206
-579.792	30.372	0.193	-0.165
-578.777	-144.473	0.592	0.055
-577.763	-200.000	-0.033	-0.489
-576.748	36.723	0.168	-0.149
-575.733	265.277	0.087	0.152
-574.719	99.207	-0.182	0.211
-573.704	79.502	0.206	0.222
-572.690	-109.210	0.327	0.070
-571.675	-93.281	0.216	0.060
-570.661	61.846	0.266	-0.266
-569.646	60.982	-0.049	0.048
-568.631	77.537	-0.047	-0.050
-567.617	282.271	0.028	0.051
-566.602	-200.000	0.024	-0.175
-565.588	-55.194	0.147	-0.066
-564.573	800.000	-0.008	0.027
-563.558	-200.000	0.034	-0.264
-562.544	-162.664	0.236	-0.012
-561.529	-42.592	-0.361	0.184
-560.515	104.853	-0.071	-0.084
-559.500	-138.688	-0.359	0.039
-558.485	169.769	-0.165	-0.237
-557.471	800.000	-0.021	-0.079
-556.456	157.497	0.064	-0.088
-555.442	217.707	-0.108	0.173
-554.427	800.000	-0.111	0.313
-553.412	30.560	-0.178	0.152
-552.398	41.313	0.118	-0.107
-551.383	-83.093	0.130	-0.042
-550.369	268.363	0.121	0.212
-549.354	-38.629	-0.194	0.103
-548.339	15.710	-0.186	-0.147
-547.325	-200.000	0.020	0.089
-546.310	268.379	0.144	0.253
-545.296	-150.412	0.107	0.008
-544.281	-200.000	-0.063	-0.378
-543.266	-200.000	0.042	0.267
-542.252	-200.000	-0.007	-0.062
-541.237	-104.905	-0.215	-0.049
-540.223	-200.000	-0.025	-0.190
-539.208	313.205	0.194	0.366
-538.193	-156.400	-0.022	-0.001
-537.179	96.609	-0.099	-0.114
-536.164	-142.245	-0.168	0.017
-535.150	800.000	-0.059	-0.192
-534.135	-89.911	0.303	0.089
-533.121	-97.290	0.457	-0.119
-532.106	-0.349	0.082	0.059
-531.091	-200.000	-0.012	0.291
-530.077	-200.000	-0.022	-0.207
-529.062	269.035	-0.045	-0.079
-528.048	281.155	-0.256	0.459
-527.033	421.635	-0.137	0.295
-526.018	-200.000	0.007	-0.146
-525.004	-116.268	-0.380	-0.071
-523.989	-200.000	0.004	0.509
-522.975	-200.000	0.001	0.014
-521.960	100.167	-0.307	0.356
-520.945	-200.000	-0.048	0.301
-519.931	-36.969	-0.135	-0.072
-518.916	359.066	-0.189	-0.378
-517.902	557.241	0.090	-0.217
-516.887	-65.696	0.024	-0.010
-515.872	342.889	-0.067	0.132
-514.858	56.441	-0.141	-0.137
-513.843	244.520	0.107	-0.181
-512.829	206.244	-0.114	0.178
-511.814	800.000	0.059	0.194
-510.799	80.006	-0.092	0.099
-509.785	146.465	-0.200	0.268
-508.770	5.999	-0.250	0.186
-507.756	92.066	0.288	0.325
-506.741	-121.081	-0.156	0.026
-505.726	76.064	-0.339	-0.359
-504.712	-88.426	-0.070	0.021
-503.697	-200.000	0.090	0.494
-502.683	-200.000	0.039	0.182
-501.668	161.337	0.182	-0.255
-500.653	108.798	0.053	0.063
-499.639	436.453	0.101	0.221
-498.624	48.440	0.112	0.105
-497.610	-200.000	-0.037	0.403
-496.595	182.750	0.173	0.256
-495.581	1.075	0.160	0.115
-494.566	222.751	-0.059	0.095
-493.551	-73.690	0.081	-0.029
-492.537	54.864	0.077	-0.075
-491.522	-200.000	0.041	-0.360
-490.508	290.195	-0.061	-0.111
-489.493	-200.000	-0.006	0.363
-488.478	226.452	0.214	0.347
-487.464	-81.292	0.374	0.123
-486.449	-126.893	-0.170	-0.025
-485.435	175.345	0.124	0.180
-484.420	-200.000	0.013	0.300
-483.405	-62.763	0.228	-0.094
-482.391	-82.714	0.130	-0.042
-481.376	473.547	0.107	-0.241
-480.362	-105.255	-0.341	-0.078
-479.347	-168.164	0.159	0.006
-478.332	-9.273	0.249	-0.167
-477.318	-27.576	-0.196	0.114
-476.303	413.084	0.026	-0.056
-475.289	-13.909	0.149	-0.096
-474.274	125.491	-0.058	0.073
-473.259	-111.848	0.122	0.025
-472.245	-29.105	0.398	-0.228
-471.230	-140.494	0.329	0.034
-470.216	-62.064	-0.371	-0.155
-469.201	192.845	-0.316	0.477
-468.186	800.000	-0.030	0.092
-467.172	34.335	0.186	0.162
-466.157	-118.502	-0.413	0.073
-465.143	-57.527	-0.232	0.102
-464.128	565.506	-0.042	-0.102
-463.113	-156.687	-0.328	0.020
-462.099	-32.124	0.137	0.076
-461.084	-6.870	0.172	-0.117
-460.070	-74.108	-0.159	0.058
-459.055	137.743	-0.138	-0.181
-458.040	-66.273	-0.193	-0.077
-457.026	800.000	0.038	0.114
-456.011	-119.214	-0.128	0.022
-454.997	-72.829	0.248	-0.091
-453.982	-22.817	0.227	-0.137
-452.968	-200.000	0.002	-0.474
-451.953	-200.000	-0.010	0.080
-450.938	-200.000	-0.023	-0.117
-449.924	223.248	0.185	0.298
-448.909	800.000	0.043	0.149
-447.895	7.460	-0.310	-0.231
-446.880	-200.000	-0.013	-0.070
-445.865	-200.000	0.004	-0.126
-444.851	-104.903	-0.221	-0.051
-443.836	-11.404	0.050	0.033
-442.822	-200.000	-0.096	-0.462
-441.807	185.037	-0.186	-0.276
-440.792	180.988	-0.118	-0.174
-439.778	260.564	-0.074	-0.128
-438.763	71.231	-0.099	-0.102
-437.749	800.000	0.083	0.361
-436.734	42.335	-0.103	0.093
-435.719	412.805	0.115	0.244
-434.705	544.942	0.128	-0.306
-433.690	-2.329	0.348	-0.243
-432.676	556.245	0.147	-0.354
-431.661	-139.965	0.149	0.016
-430.646	127.122	-0.271	0.343
-429.632	-114.275	-0.405	-0.078
-428.617	168.994	-0.204	-0.290
-427.603	-73.788	0.033	-0.012
-426.588	-69.512	0.191	-0.073
-425.573	-88.421	0.034	0.010
-424.559	-200.000	0.008	-0.099
-423.544	430.936	-0.075	0.162
-422.530	-133.531	-0.258	-0.032
-421.515	443.204	0.063	0.138
-420.500	-1.848	-0.258	-0.181
-419.486	-200.000	0.031	-0.172
-418.471	-123.788	-0.203	-0.032
-417.457	-117.913	0.193	-0.035
-416.442	-200.000	0.001	0.257
-415.428	800.000	0.052	-0.214
-414.413	-59.820	-0.302	-0.129
-413.398	800.000	-0.059	0.208
-412.384	-102.975	-0.530	0.126
-411.369	800.000	0.061	-0.176
-410.355	-184.428	0.122	-0.002
-409.340	56.553	-0.121	0.118
-408.325	79.380	-0.166	-0.177
-407.311	117.377	0.098	-0.120
-406.296	2.058	-0.113	0.082
-405.282	-200.000	0.025	0.183
-404.267	405.954	0.153	0.322
-403.252	-121.590	0.293	0.048
-402.238	-200.000	0.022	0.116
-401.223	-131.942	0.228	0.030
-400.209	800.000	0.040	-0.158
-399.194	-112.565	-0.223	-0.044
-398.179	413.327	-0.077	0.163
-397.165	-41.559	0.227	0.117
-396.150	-162.093	0.146	-0.007
-395.136	-200.000	-0.018	-0.342
-394.121	-200.000	-0.040	-0.243
-393.106	153.526	0.209	0.285
-392.092	51.071	-0.301	0.284
-391.077	-65.682	-0.130	-0.052
-390.063	343.871	-0.028	-0.056
-389.048	-64.393	-0.131	0.053
-388.033	-163.328	0.225	-0.011
-387.019	80.296	-0.116	0.124
-386.004	-200.000	-0.022	-0.163
-384.990	498.499	0.052	-0.119
-383.975	-123.562	-0.436	0.069
-382.960	-200.000	0.019	0.215
-381.946	-82.044	0.091	0.029
-380.931	-98.197	0.162	0.041
-379.917	-200.000	-0.012	-0.151
-378.902	333.885	0.167	-0.322
-377.888	666.048	0.083	-0.214
-376.873	279.393	-0.199	0.355
-375.858	35.998	-0.344	0.302
-374.844	63.565	0.111	0.111
-373.829	-26.438	0.079	-0.046
-372.815	800.000	-0.072	-0.298
-371.800	-95.577	0.134	0.036
-370.785	250.768	0.019	0.032
-369.771	334.836	-0.016	0.030
-368.756	437.521	-0.070	0.152
-367.742	222.897	-0.160	0.257
-366.727	206.103	0.084	0.130
-365.712	126.767	0.052	-0.066
-364.698	37.191	0.079	0.070
-363.683	331.474	-0.102	-0.196
-362.669	557.207	0.051	0.123
-361.654	-72.310	0.220	-0.081
-360.639	25.090	-0.125	0.103
-359.625	-8.560	0.247	0.165
-358.610	-125.396	-0.358	0.054
-357.596	56.228	-0.287	0.277
-356.581	-200.000	0.033	0.215
-355.566	-70.325	-0.071	-0.027
-354.552	-104.935	0.163	-0.037
-353.537	347.643	0.237	-0.465
-352.523	-177.162	0.306	-0.008
-351.508	73.737	0.345	0.360
-350.493	-109.256	0.504	-0.107
-349.479	-200.000	-0.002	0.208
-348.464	494.359	0.059	-0.135
-347.450	-25.711	0.259	-0.152
-346.435	-200.000	0.045	-0.321
-345.420	-200.000	-0.013	0.103
-344.406	-5.220	-0.114	0.078
-343.391	23.258	-0.047	-0.039
-342.377	-200.000	0.038	-0.189
-341.362	24.152	-0.123	-0.101
-340.348	89.926	-0.264	-0.293
-339.333	-46.772	0.179	-0.087
-338.318	-142.453	-0.649	-0.063
-337.304	-200.000	-0.032	0.147
-336.289	-51.646	0.378	0.175
-335.275	32.774	-0.167	-0.144
-334.260	-65.981	0.319	-0.127
-333.245	-13.478	0.029	0.019
-332.231	738.106	0.062	-0.165
-331.216	221.706	-0.037	-0.059
-330.202	121.919	-0.104	-0.129
-329.187	161.621	0.130	0.181
-328.172	-90.983	0.068	-0.019
-327.158	-137.769	0.328	-0.037
-326.143	-37.498	0.094	-0.050
-325.129	-74.008	-0.128	0.046
-324.114	152.808	0.188	-0.255
-323.099	-200.000	-0.077	-0.412
-322.085	95.266	-0.249	-0.282
-321.070	800.000	-0.044	-0.167
-320.056	-47.706	0.167	0.080
-319.041	-200.000	0.053	-0.236
-318.026	-124.599	-0.306	0.047
-317.012	116.511	0.301	0.367
-315.997	-52.559	0.177	-0.081
-314.983	-180.260	-0.232	0.005
-313.968	-200.000	0.039	0.252
-312.953	-102.404	-0.221	0.053
-311.939	-106.208	-0.136	0.030
-310.924	-82.906	-0.600	-0.193
-309.910	-160.921	-0.164	0.009
-308.895	213.147	-0.046	-0.072
-307.880	361.356	-0.024	0.048
-306.866	-24.609	-0.342	0.202
-305.851	-116.128	0.067	0.012
-304.837	108.288	-0.114	-0.135
-303.822	89.096	0.124	0.137
-302.807	104.626	0.150	0.176
-301.793	38.634	-0.134	-0.119
-300.778	800.000	-0.051	-0.148
-299.764	-32.044	0.069	0.038
-298.749	-58.077	-0.173	0.075
-297.735	248.408	-0.121	-0.204
-296.720	-200.000	-0.003	0.082
-295.705	415.349	0.250	-0.529
-294.691	471.707	-0.098	0.219
-293.676	-200.000	-0.025	0.122
-292.662	-114.305	-0.142	0.027
-291.647	800.000	0.068	-0.187
-290.632	-200.000	-0.036	0.245
-289.618	230.638	0.062	0.101
-288.603	454.249	0.077	0.168
-287.589	2.177	0.359	-0.258
-286.574	-200.000	0.046	-0.215
-285.559	-87.018	0.098	-0.030
-284.545	-200.000	0.010	0.199
-283.530	467.871	0.206	-0.459
-282.516	176.364	-0.102	0.147
-281.501	-200.000	0.007	-0.138
-280.486	-13.938	0.182	0.117
-279.472	-83.271	-0.292	-0.093
-278.457	-72.209	-0.224	0.083
-277.443	182.456	0.071	0.103
-276.428	54.453	-0.132	-0.126
-275.413	151.825	0.164	0.221
-274.399	-200.000	-0.034	-0.286
-273.384	-70.686	0.237	-0.089
-272.370	93.496	-0.063	0.070
-271.355	-68.122	0.284	0.110
-270.340	265.891	-0.150	0.260
-269.326	-59.290	0.117	-0.050
-268.311	-88.358	0.058	0.017
-267.297	-195.788	0.142	0.001
-266.282	-200.000	0.047	0.371
-265.267	-200.000	0.049	0.443
-264.253	-200.000	0.001	-0.334
-263.238	97.939	-0.269	0.307
-262.224	-200.000	0.045	0.275
-261.209	-161.414	-0.096	-0.005
-260.195	538.160	-0.054	-0.127
-259.180	-200.000	0.022	0.270
-258.165	-24.005	0.135	0.080
-257.151	229.049	-0.128	-0.206
-256.136	661.737	0.075	-0.191
-255.122	18.676	-0.184	0.146
-254.107	-20.935	0.120	0.073
-253.092	262.734	0.072	-0.124
-252.078	-200.000	0.017	-0.247
-251.063	-159.406	0.108	-0.006
-250.049	-151.169	-0.107	0.008
-249.034	-150.491	0.281	-0.021
-248.019	282.413	-0.062	0.110
-247.005	-59.370	0.187	0.080
-245.990	-31.324	-0.214	-0.119
-244.976	-85.100	0.228	-0.071
-243.961	7.857	0.218	0.162
-242.946	228.388	-0.209	-0.338
-241.932	-146.048	0.130	0.011
-240.917	-51.610	0.447	0.207
-239.903	134.488	-0.183	-0.236
-238.888	-200.000	-0.036	-0.378
-237.873	168.569	-0.119	0.168
-236.859	193.955	-0.046	0.070
-235.844	-200.000	0.016	0.447
-234.830	-61.224	0.137	-0.057
-233.815	80.879	0.112	-0.120
-232.800	-200.000	-0.076	-0.485
-231.786	10.832	-0.022	0.017
-230.771	220.540	-0.273	0.434
-229.757	145.950	-0.188	-0.249
-228.742	-200.000	0.024	-0.208
-227.727	-84.403	-0.170	0.053
-226.713	-106.182	-0.395	-0.088
-225.698	-118.780	-0.274	0.048
-224.684	-78.765	-0.234	-0.079
-223.669	124.763	0.229	-0.286
-222.655	-10.325	0.147	0.097
-221.640	-145.115	-0.141	0.013
-220.625	322.118	-0.069	0.130
-219.611	-200.000	-0.025	0.122
-218.596	-168.515	0.211	0.008
-217.582	-122.458	0.416	-0.067
-216.567	-95.340	0.268	0.071
-215.552	200.683	-0.040	-0.061
-214.538	-12.505	0.217	0.140
-213.523	-200.000	-0.024	-0.253
-212.509	-34.992	-0.094	0.051
-211.494	605.289	-0.048	0.119
-210.479	-200.000	-0.006	0.285
-209.465	219.376	0.165	0.262
-208.450	727.173	0.062	0.164
-207.436	-83.114	0.244	-0.078
-206.421	-25.859	-0.079	-0.046
-205.406	-200.000	-0.045	-0.287
-204.392	21.216	-0.167	-0.135
-203.377	-200.000	0.008	0.181
-202.363	403.563	-0.217	0.452
-201.348	-80.188	0.349	0.116
-200.333	-200.000	-0.009	-0.084
-199.319	-6.614	-0.076	0.051
-198.304	88.896	0.162	0.178
-197.290	106.342	0.168	0.197
-196.275	-118.087	0.344	-0.061
-195.260	800.000	0.103	0.366
-194.246	555.302	-0.039	-0.094
-193.231	497.849	0.011	0.024
-192.217	414.176	0.016	-0.034
-191.202	99.310	0.134	-0.154
-190.187	-191.290	-0.282	-0.003
-189.173	55.683	0.223	0.213
-188.158	-158.108	0.281	0.016
-187.144	800.000	-0.056	-0.200
-186.129	456.093	-0.070	-0.153
-185.114	800.000	0.042	0.173
-184.100	345.976	-0.091	0.176
-183.085	-200.000	-0.007	0.286
-182.071	-106.508	0.264	-0.058
-181.056	113.548	0.183	-0.219
-180.042	22.195	-0.163	-0.132
-179.027	800.000	0.045	0.165
-178.012	24.439	-0.175	-0.143
-176.998	-9.474	-0.112	-0.074
-175.983	4.796	0.196	-0.142
-174.969	29.389	0.322	-0.271
-173.954	-74.789	-0.308	-0.109
-172.939	-60.392	0.342	-0.144
-171.925	33.773	-0.246	0.211
-170.910	-26.483	-0.175	-0.101
-169.896	45.411	0.144	-0.132
-168.881	-60.899	0.062	0.026
-167.866	348.849	0.118	0.230
-166.852	800.000	0.049	0.199
-165.837	-200.000	-0.018	-0.442
-164.823	-200.000	-0.043	-0.345
-163.808	-36.238	-0.151	-0.081
-162.793	-178.258	0.239	-0.006
-161.779	124.204	-0.105	-0.130
-160.764	-78.445	-0.449	-0.152
-159.750	-128.326	0.064	-0.009
-158.735	-200.000	-0.290	-0.000
-157.720	-74.893	0.247	0.088
-156.706	338.769	0.071	-0.136
-155.691	49.527	0.209	0.195
-154.677	-165.572	-0.099	0.004
-153.662	-76.313	0.047	-0.016
-152.647	-66.711	0.156	-0.061
-151.633	-169.493	0.102	0.004
-150.618	-200.000	-0.011	-0.265
-149.604	718.903	-0.032	0.085
-148.589	-11.746	-0.242	0.157
-147.574	-200.000	0.009	0.076
-146.560	-200.000	-0.024	-0.284
-145.545	724.534	-0.058	-0.152
-144.531	275.857	-0.105	-0.184
-143.516	-118.521	-0.160	-0.028
-142.502	-141.880	0.207	0.020
-141.487	-39.130	0.265	0.138
-140.472	37.947	-0.081	0.071
-139.458	149.052	0.025	-0.033
-138.443	115.310	0.186	0.224
-137.429	8.754	0.282	-0.210
-136.414	83.126	0.147	0.157
-135.399	164.012	0.223	0.310
-134.385	63.660	0.323	0.320
-133.370	-72.367	0.330	0.120
-132.356	-105.568	0.123	0.028
-131.341	433.050	0.122	-0.262
-130.326	-73.273	-0.204	0.073
-129.312	-100.177	-0.233	0.057
-128.297	-120.969	-0.260	0.043
-127.283	-200.000	0.001	0.014
-126.268	-200.000	0.013	-0.118
-125.253	226.697	-0.161	-0.258
-124.239	-200.000	-0.029	0.306
-123.224	-200.000	-0.018	-0.309
-122.210	-200.000	0.016	-0.083
-121.195	81.229	0.266	-0.283
-120.180	-49.935	0.217	-0.101
-119.166	-158.888	0.142	0.008
-118.151	-200.000	-0.025	0.401
-117.137	-37.180	0.123	0.065
-116.122	-171.866	0.072	0.002
-115.107	-98.611	0.118	0.030
-114.093	800.000	-0.152	0.431
-113.078	456.542	0.081	0.177
-112.064	567.124	-0.023	-0.055
-111.049	145.240	-0.170	-0.225
-110.034	-185.694	-0.156	0.002
-109.020	-200.000	0.034	0.320
-108.005	800.000	0.022	-0.066
-106.991	800.000	-0.052	-0.222
-105.976	66.550	-0.197	0.197
-104.962	-63.326	-0.122	0.050
-103.947	-91.518	0.190	-0.053
-102.932	-49.562	-0.301	0.141
-101.918	393.172	0.131	0.269
-100.903	180.741	0.253	0.366
-99.889	251.071	0.196	0.328
-98.874	-200.000	-0.234	0.001
-97.859	-14.145	0.296	0.188
-96.845	426.382	0.100	-0.212
-95.830	-101.612	0.622	-0.149
-94.816	-120.561	0.247	0.041
-93.801	92.812	0.224	0.250
-92.786	800.000	0.062	0.266
-91.772	60.782	0.115	-0.113
-90.757	79.352	0.172	-0.182
-89.743	346.994	0.179	-0.347
-88.728	-200.000	0.053	-0.448
-87.713	230.206	0.124	0.200
-86.699	320.516	-0.168	0.315
-85.684	-34.520	0.186	0.100
-84.670	515.602	0.066	-0.151
-83.655	17.862	0.275	0.216
-82.640	-79.674	0.166	0.055
-81.626	-14.154	0.149	0.095
-80.611	44.871	0.111	0.101
-79.597	59.001	0.150	0.145
-78.582	-6.449	0.180	-0.121
-77.567	-144.655	0.571	0.052
-76.553	154.306	0.066	-0.089
-75.538	14.684	-0.242	-0.186
-74.524	-2.263	0.049	-0.034
-73.509	-111.890	0.165	-0.033
-72.494	-102.143	-0.099	0.023
-71.480	800.000	0.095	-0.292
-70.465	-79.780	-0.039	-0.013
-69.451	-200.000	-0.050	-0.426
-68.436	29.064	0.084	-0.070
-67.422	5.665	0.340	-0.247
-66.407	-109.431	0.149	0.031
-65.392	-129.240	0.118	-0.016
-64.378	12.192	0.017	0.013
-63.363	-200.000	0.001	0.183
-62.349	307.478	0.159	0.291
-61.334	57.691	-0.765	-0.736
-60.319	-124.763	0.441	0.067
-59.305	800.000	0.182	-0.630
-58.290	481.595	0.459	1.024
-57.276	410.410	0.692	1.443
-56.261	-200.000	88.962	512.033
-55.246	509.825	1362.318	3115.818
-54.232	153.337	2580.155	3474.224
-53.217	110.430	2298.091	2716.687
-52.203	46.620	1917.737	1751.184
-51.188	40.344	1709.303	1513.049
-50.173	37.581	1664.619	1452.843
-49.159	53.420	1710.502	1613.051
-48.144	57.044	1728.416	1657.286
-47.130	40.228	1685.636	1490.988
-46.115	37.112	1670.863	1454.544
-45.100	37.054	1666.478	1450.240
-44.086	37.013	1663.734	1447.484
-43.071	36.911	1661.143	1444.410
-42.057	36.966	1658.799	1442.729
-41.042	36.991	1656.741	1441.066
-40.027	37.015	1655.025	1439.691
-39.013	36.980	1652.874	1437.506
-37.998	36.989	1651.126	1435.995
-36.984	37.051	1649.473	1434.959
-35.969	37.129	1648.384	1434.532
-34.954	37.202	1646.657	1433.511
-33.940	37.089	1645.225	1431.373
-32.925	37.163	1643.168	1430.076
-31.911	37.093	1641.849	1428.354
-30.896	37.150	1639.777	1426.915
-29.881	37.138	1637.959	1425.183
-28.867	37.040	1636.654	1423.274
-27.852	37.134	1635.119	1422.576
-26.838	37.223	1632.847	1421.188
-25.823	37.137	1632.362	1420.086
-24.809	37.126	1630.941	1418.712
-23.794	37.198	1629.064	1417.546
-22.779	37.181	1627.826	1416.290
-21.765	37.164	1625.970	1414.491
-20.750	37.057	1624.955	1412.773
-19.736	37.076	1623.545	1411.634
-18.721	37.173	1622.219	1411.126
-17.706	37.142	1620.980	1409.768
-16.692	37.089	1619.046	1407.647
-15.677	37.236	1617.453	1407.272
-14.663	37.149	1616.768	1405.991
-13.648	37.151	1615.181	1404.567
-12.633	37.178	1613.619	1403.352
-11.619	37.188	1611.591	1401.605
-10.604	37.183	1610.193	1400.295
-9.590	37.180	1609.236	1399.388
-8.575	37.130	1607.849	1397.764
-7.560	37.147	1606.891	1397.001
-6.546	37.110	1605.653	1395.603
-5.531	37.132	1604.338	1394.558
-4.517	37.093	1602.738	1392.836
-3.502	37.166	1601.929	1392.596
-2.487	37.210	1600.638	1391.734
-1.473	36.745	1589.055	1378.301
-0.458	33.791	1568.883	1339.943
0.556	29.649	1568.507	1304.659
1.571	27.160	1591.938	1306.165
2.586	26.434	1606.596	1312.807
3.600	23.412	1552.935	1247.611
4.615	13.074	1439.096	1088.257
5.629	3.561	1368.476	974.891
6.644	1.682	1359.597	956.675
7.659	1.621	1358.099	955.157
8.673	1.564	1356.819	953.814
9.688	1.393	1355.216	951.530
10.702	1.194	1352.615	948.374
11.717	4.708	1359.867	975.435
12.731	15.278	1379.444	1056.308
13.746	23.551	1393.681	1119.555
14.761	25.377	1395.794	1132.681
15.775	25.647	1395.778	1134.269
16.790	25.596	1395.956	1133.993
17.804	25.907	1394.245	1134.462
18.819	26.139	1393.818	1135.474
19.834	26.120	1393.358	1134.880
20.848	26.124	1393.021	1134.529
21.863	26.064	1392.145	1133.338
22.877	26.162	1391.022	1132.939
23.892	26.105	1390.240	1131.844
24.907	26.086	1389.591	1131.096
25.921	26.129	1388.194	1130.130
26.936	26.198	1386.952	1129.449
27.950	26.089	1386.543	1128.336
28.965	26.193	1384.989	1127.619
29.980	26.118	1384.035	1126.274
30.994	26.165	1382.305	1125.057
32.009	26.115	1381.506	1123.998
33.023	26.134	1380.428	1123.143
34.038	26.152	1379.186	1122.142
35.053	25.985	1378.631	1120.554
36.067	26.086	1377.067	1119.808
37.082	26.056	1376.487	1119.053
38.096	26.028	1375.466	1117.951
39.111	26.127	1374.614	1117.774
40.126	26.048	1374.289	1116.923
41.140	26.096	1373.564	1116.530
42.155	26.120	1372.738	1115.904
43.169	26.081	1372.972	1115.757
44.184	26.118	1372.359	1115.390
45.199	26.075	1372.308	1114.984
46.213	26.100	1371.533	1114.407
47.228	26.062	1371.201	1113.804
48.242	26.020	1369.831	1112.336
49.257	26.015	1368.037	1110.750
50.271	26.058	1366.366	1109.559
51.286	26.083	1365.491	1108.904
52.301	26.045	1364.354	1107.648
53.315	26.132	1363.641	1107.505
54.330	26.068	1362.691	1106.242
55.344	26.012	1361.452	1104.798
56.359	25.993	1360.468	1103.785
57.374	26.137	1359.241	1103.575
58.388	26.095	1359.121	1103.120
59.403	26.034	1358.350	1102.022
60.417	26.122	1358.104	1102.264
61.432	26.056	1357.146	1100.987
62.447	26.079	1356.102	1100.185
63.461	26.064	1354.851	1098.977
64.476	25.973	1354.509	1098.052
65.490	26.092	1352.750	1097.252
66.505	25.965	1351.824	1095.631
67.520	26.042	1350.300	1094.768
68.534	26.081	1349.392	1094.168
69.549	26.116	1347.988	1093.145
70.563	26.101	1347.398	1092.483
71.578	26.080	1346.424	1091.468
72.593	26.134	1345.774	1091.170
73.607	26.035	1345.090	1089.921
74.622	26.144	1343.932	1089.544
75.636	26.057	1343.323	1088.431
76.651	26.061	1342.614	1087.782
77.666	26.138	1342.158	1087.782
78.680	26.045	1341.890	1086.907
79.695	26.039	1340.644	1085.767
80.709	26.167	1339.448	1085.473
81.724	26.085	1339.313	1084.774
82.739	26.097	1338.482	1084.073
83.753	26.056	1337.303	1082.782
84.768	26.040	1336.560	1081.985
85.782	26.098	1335.367	1081.270
86.797	26.168	1333.880	1080.388
87.812	26.157	1332.909	1079.441
88.826	26.133	1331.932	1078.412
89.841	26.126	1330.747	1077.318
90.855	25.983	1330.419	1076.100
91.870	26.085	1329.310	1075.716
92.884	26.049	1328.442	1074.706
93.899	26.116	1327.474	1074.227
94.914	26.204	1326.611	1073.958
95.928	26.025	1326.228	1072.490
96.943	26.135	1325.326	1072.319
97.957	26.010	1325.124	1071.317
98.972	26.075	1324.156	1070.827
99.987	26.278	1322.571	1070.653
101.001	26.149	1321.816	1069.182
102.016	26.104	1320.995	1068.155
103.030	26.107	1320.409	1067.605
104.045	26.221	1319.430	1067.390
105.060	26.242	1317.990	1066.258
106.074	26.203	1317.471	1065.513
107.089	26.211	1316.163	1064.406
108.103	26.199	1315.434	1063.652
109.118	26.114	1314.136	1062.011
110.133	26.241	1312.919	1061.682
111.147	26.273	1312.027	1061.051
112.162	26.234	1310.733	1059.682
113.176	26.170	1309.680	1058.363
114.191	26.237	1308.857	1057.994
115.206	26.235	1308.035	1057.229
116.220	26.223	1306.987	1056.214
117.235	26.248	1305.889	1055.382
118.249	26.141	1305.337	1054.219
119.264	26.166	1304.614	1053.685
120.279	26.284	1303.112	1053.069
121.293	26.327	1302.661	1052.860
122.308	26.337	1301.433	1051.832
123.322	26.248	1301.010	1050.882
124.337	26.295	1300.342	1050.517
125.352	26.312	1299.714	1050.018
126.366	26.228	1298.503	1048.463
127.381	26.259	1297.640	1047.850
128.395	26.307	1296.877	1047.417
129.410	26.332	1296.043	1046.795
130.424	26.283	1295.366	1045.875
131.439	26.325	1294.185	1045.071
132.454	26.228	1294.107	1044.357
133.468	26.139	1293.493	1043.255
134.483	26.292	1292.527	1043.267
135.497	26.311	1291.521	1042.468
136.512	26.381	1290.074	1041.615
137.527	26.460	1288.924	1041.046
138.541	26.329	1288.280	1039.680
139.556	26.272	1287.140	1038.340
140.570	26.267	1286.477	1037.689
141.585	26.285	1284.938	1036.457
142.600	26.313	1284.050	1035.811
143.614	26.306	1283.118	1034.924
144.629	26.203	1282.569	1033.798
145.643	26.118	1281.647	1032.480
146.658	26.197	1280.384	1031.822
147.673	26.128	1279.518	1030.641
148.687	26.126	1277.939	1029.265
149.702	26.138	1277.259	1028.694
150.716	26.176	1276.095	1027.881
151.731	26.178	1275.088	1026.994
152.746	26.184	1274.088	1026.131
153.760	26.255	1273.038	1025.597
154.775	26.285	1271.929	1024.786
155.789	26.263	1271.458	1024.187
156.804	26.235	1270.185	1022.917
157.819	26.305	1269.631	1022.772
158.833	26.284	1268.867	1021.948
159.848	26.357	1267.980	1021.557
160.862	26.276	1267.577	1020.684
161.877	26.427	1266.321	1020.432
162.892	26.299	1265.836	1019.229
163.906	26.333	1264.890	1018.572
164.921	26.263	1264.608	1017.861
165.935	26.384	1263.429	1017.499
166.950	26.446	1262.703	1017.176
167.964	26.367	1262.379	1016.378
168.979	26.283	1262.108	1015.601
169.994	26.342	1261.709	1015.520
171.008	26.440	1260.426	1014.948
172.023	26.370	1259.846	1014.000
173.037	26.339	1259.279	1013.275
174.052	26.422	1258.409	1012.951
175.067	26.367	1257.728	1012.008
176.081	26.370	1256.890	1011.259
177.096	26.498	1255.922	1011.108
178.110	26.373	1255.171	1009.716
179.125	26.295	1253.922	1008.185
180.140	26.455	1252.811	1008.097
181.154	26.498	1252.160	1007.722
182.169	26.412	1250.843	1006.094
183.183	26.372	1249.942	1005.059
184.198	26.340	1249.292	1004.270
185.213	26.413	1248.177	1003.688
186.227	26.474	1247.308	1003.241
187.242	26.439	1246.012	1001.913
188.256	26.466	1245.214	1001.333
189.271	26.487	1244.528	1000.810
190.286	26.513	1243.452	999.999
191.300	26.493	1243.165	999.568
192.315	26.430	1242.986	998.990
193.329	26.397	1242.567	998.380
194.344	26.401	1242.374	998.163
195.359	26.401	1241.717	997.544
196.373	26.439	1240.834	996.956
197.388	26.293	1240.963	996.169
198.402	26.489	1240.180	996.532
199.417	26.446	1239.907	995.983
200.432	26.482	1239.468	995.743
201.446	26.454	1238.564	994.774
202.461	26.362	1238.364	994.018
203.475	26.480	1236.875	993.387
204.490	26.405	1236.041	992.214
205.504	26.405	1234.972	991.268
206.519	26.522	1234.275	991.262
207.534	26.535	1233.543	990.659
208.548	26.604	1232.317	989.961
209.563	26.553	1231.901	989.265
210.577	26.555	1230.560	988.108
211.592	26.418	1230.476	987.207
212.607	26.590	1229.373	987.173
213.621	26.575	1228.976	986.688
214.636	26.507	1227.858	985.329
215.650	26.652	1227.010	985.349
216.665	26.548	1226.121	983.984
217.680	26.595	1224.970	983.226
218.694	26.677	1224.416	983.142
219.709	26.644	1223.330	982.002
220.723	26.681	1223.149	981.975
221.738	26.564	1222.259	980.537
222.753	26.541	1221.221	979.492
223.767	26.532	1221.138	979.294
224.782	26.580	1220.535	978.979
225.796	26.695	1219.877	978.988
226.811	26.658	1219.559	978.446
227.826	26.622	1218.937	977.664
228.840	26.619	1218.107	976.896
229.855	26.683	1217.262	976.477
230.869	26.699	1216.604	975.953
231.884	26.619	1216.102	975.031
232.899	26.611	1215.214	974.191
233.913	26.660	1214.555	973.840
234.928	26.857	1214.109	974.456
235.942	26.690	1213.974	973.363
236.957	26.779	1212.850	972.850
237.972	26.745	1212.404	972.223
238.986	26.732	1211.323	971.204
240.001	26.807	1210.765	971.070
241.015	26.849	1210.377	970.901
242.030	26.766	1209.399	969.585
243.045	26.767	1208.628	968.885
244.059	26.888	1208.160	969.073
245.074	26.940	1207.045	968.368
246.088	26.904	1206.488	967.647
247.103	26.835	1205.442	966.352
248.117	26.846	1204.676	965.712
249.132	26.895	1203.858	965.229
250.147	26.868	1203.634	964.824
251.161	26.929	1202.360	964.038
252.176	26.828	1201.895	963.043
253.190	27.057	1201.345	963.734
254.205	26.980	1200.695	962.718
255.220	26.955	1200.058	961.991
256.234	27.004	1199.507	961.723
257.249	27.014	1198.704	961.050
258.263	26.968	1198.093	960.230
259.278	26.873	1197.774	959.387
260.293	26.939	1197.483	959.418
261.307	26.923	1196.791	958.693
262.322	26.977	1196.081	958.326
263.336	26.976	1195.028	957.390
264.351	26.877	1195.240	956.955
265.366	26.969	1194.227	956.544
266.380	26.903	1193.639	955.641
267.395	27.035	1193.062	955.789
268.409	26.910	1192.263	954.406
269.424	26.921	1191.712	953.939
270.439	26.982	1191.337	953.873
271.453	27.049	1190.211	953.242
272.468	27.037	1189.533	952.551
273.482	26.900	1189.142	951.435
274.497	27.021	1188.821	951.728
275.512	27.145	1187.697	951.392
276.526	27.059	1187.141	950.414
277.541	27.102	1186.506	950.047
278.555	27.033	1185.802	949.036
279.570	27.058	1185.268	948.655
280.585	27.029	1184.333	947.673
281.599	27.090	1183.328	947.101
282.614	27.058	1182.784	946.419
283.628	27.194	1181.521	946.031
284.643	27.134	1180.918	945.151
285.657	27.257	1180.031	944.996
286.672	27.164	1179.025	943.624
287.687	27.289	1178.144	943.485
288.701	27.244	1177.783	942.877
289.716	27.251	1177.305	942.449
290.730	27.175	1176.643	941.443
291.745	27.332	1175.693	941.411
292.760	27.163	1175.707	940.463
293.774	27.189	1175.269	940.169
294.789	27.280	1174.157	939.666
295.803	27.361	1173.935	939.819
296.818	27.277	1172.849	938.433
297.833	27.210	1172.425	937.666
298.847	27.320	1171.610	937.497
299.862	27.349	1170.967	937.051
300.876	27.326	1170.295	936.312
301.891	27.331	1169.777	935.840
302.906	27.377	1169.289	935.605
303.920	27.425	1168.525	935.156
304.935	27.386	1168.157	934.580
305.949	27.415	1166.950	933.680
306.964	27.330	1166.732	932.988
307.979	27.256	1166.354	932.223
308.993	27.397	1165.367	932.073
310.008	27.450	1164.236	931.359
311.022	27.363	1163.655	930.365
312.037	27.372	1162.913	929.737
313.052	27.386	1161.830	928.860
314.066	27.460	1160.907	928.413
315.081	27.432	1160.547	927.902
316.095	27.423	1159.936	927.285
317.110	27.433	1159.244	926.701
318.125	27.444	1158.964	926.450
319.139	27.466	1158.181	925.858
320.154	27.483	1157.463	925.284
321.168	27.454	1157.119	924.782
322.183	27.484	1156.584	924.424
323.197	27.586	1155.832	924.260
324.212	27.430	1155.267	922.935
325.227	27.443	1155.037	922.736
326.241	27.580	1154.278	922.743
327.256	27.649	1153.500	922.385
328.270	27.646	1152.637	921.602
329.285	27.547	1151.995	920.504
330.300	27.612	1150.842	919.828
331.314	27.675	1150.189	919.546
332.329	27.566	1149.704	918.528
333.343	27.686	1148.598	918.167
334.358	27.706	1147.905	917.629
335.373	27.638	1147.402	916.805
336.387	27.819	1146.149	916.633
337.402	27.797	1145.956	916.287
338.416	27.778	1145.393	915.659
339.431	27.715	1144.443	914.504
340.446	27.790	1143.842	914.320
341.460	27.735	1143.308	913.535
342.475	27.911	1142.288	913.519
343.489	27.689	1141.805	911.943
344.504	27.720	1140.746	911.170
345.519	27.805	1140.075	910.979
346.533	27.872	1139.176	910.512
347.548	27.810	1138.724	909.761
348.562	27.814	1138.296	909.359
349.577	27.829	1137.037	908.350
350.592	27.718	1136.484	907.276
351.606	27.682	1136.070	906.684
352.621	27.807	1135.147	906.489
353.635	27.901	1134.581	906.424
354.650	27.846	1133.927	905.547
355.665	27.823	1133.750	905.210
356.679	27.948	1132.807	904.998
357.694	27.955	1132.019	904.325
358.708	27.916	1131.257	903.440
359.723	27.791	1130.925	902.477
360.738	27.830	1130.137	901.962
361.752	28.003	1129.566	902.282
362.767	27.949	1128.948	901.440
363.781	27.969	1128.836	901.371
364.796	28.063	1128.088	901.159
365.810	28.023	1127.146	900.129
366.825	27.986	1126.530	899.376
367.840	27.990	1126.655	899.415
368.854	28.150	1125.955	899.561
369.869	28.097	1124.954	898.424
370.883	28.146	1124.067	897.878
371.898	28.191	1123.133	897.269
372.913	28.146	1123.176	897.003
373.927	28.167	1122.099	896.168
374.942	28.232	1121.601	896.012
375.956	28.113	1121.556	895.313
376.971	28.048	1121.197	894.626
377.986	28.260	1120.268	894.846
379.000	28.163	1119.932	894.021
380.015	28.335	1119.312	894.289
381.029	28.225	1118.377	892.923
382.044	28.294	1117.628	892.584
383.059	28.219	1117.069	891.692
384.073	28.216	1116.664	891.278
385.088	28.278	1115.613	890.661
386.102	28.324	1114.592	889.991
387.117	28.258	1114.042	889.151
388.132	28.056	1113.678	887.801
389.146	28.176	1112.768	887.581
390.161	28.277	1112.169	887.513
391.175	28.323	1111.381	887.027
392.190	28.359	1110.631	886.524
393.205	28.347	1110.012	885.896
394.219	28.378	1109.162	885.286
395.234	28.414	1108.091	884.531
396.248	28.376	1107.783	884.021
397.263	28.336	1106.811	882.975
398.278	28.459	1106.208	883.009
399.292	28.508	1105.718	882.776
400.307	28.422	1105.598	882.185
401.321	28.426	1104.661	881.381
402.336	28.388	1104.160	880.721
403.350	28.461	1103.581	880.529
404.365	28.403	1102.767	879.526
405.380	28.391	1101.850	878.657
406.394	28.569	1101.270	878.969
407.409	28.530	1100.723	878.270
408.423	28.580	1099.798	877.692
409.438	28.552	1099.431	877.190
410.453	28.580	1098.417	876.437
411.467	28.521	1098.009	875.750
412.482	28.635	1096.880	875.318
413.496	28.600	1096.202	874.533
414.511	28.666	1095.386	874.117
415.526	28.451	1095.056	872.753
416.540	28.610	1094.776	873.209
417.555	28.508	1094.629	872.530
418.569	28.623	1093.773	872.318
419.584	28.840	1092.915	872.586
420.599	28.809	1093.039	872.459
421.613	98.543	1312.850	1426.209
422.628	92.003	1344.848	1426.326
