DTS Sentinel unit serial number:	SN413079Multiplexer serial number:	ORYXHardware model number:	OX4-SRSoftware version number:	ORYX F/W v4.00 Oryx Data Collector v3.7.2.0data status	okinstallation	princeton_trtdifferential loss correction	single-endedforward channel	channel 2reverse channel	N/Adate	2019/09/18time	05:43:34forward acquisition time	60.00reverse acquisition time	0.00gamma	496.2192k internal	0.2349k external	0.2349temperature offset calibration	0.9986default loss term (dB/km)	0.3790temperature slope calibration	1.0000multiplexer offset coefficient	1.0000multiplexer slope coefficient	1.0000fibre end	0.00T internal ref (°C)	23.31T ext. ref 1 (°C)	0.19T ext. ref 2 (°C)	16.86length (m)	temperature (°C)	Stokes	anti-Stokes-747.200	136.692	0.140	-0.182
-746.185	-120.549	-0.228	0.039
-745.171	36.647	0.103	0.091
-744.156	71.325	0.192	0.199
-743.142	95.205	-0.269	0.306
-742.127	160.742	-0.152	0.211
-741.112	-53.760	0.171	-0.078
-740.098	-80.871	-0.203	-0.067
-739.083	281.905	-0.144	0.258
-738.069	169.850	-0.328	0.468
-737.054	-200.000	-0.028	0.157
-736.039	-200.000	0.003	-0.015
-735.025	-200.000	0.004	0.135
-734.010	143.342	-0.069	-0.091
-732.996	66.741	-0.312	0.317
-731.981	91.233	0.161	-0.181
-730.966	114.723	0.332	0.404
-729.952	-200.000	-0.013	0.145
-728.937	-90.059	0.162	-0.047
-727.923	-200.000	-0.075	-0.378
-726.908	35.390	-0.212	-0.185
-725.894	22.024	-0.188	-0.153
-724.879	72.399	-0.060	0.063
-723.864	-31.060	-0.143	0.081
-722.850	141.743	-0.246	0.325
-721.835	377.851	-0.086	-0.176
-720.821	25.112	-0.133	0.110
-719.806	45.724	0.080	0.074
-718.791	-200.000	-0.007	-0.258
-717.777	-16.744	0.180	0.114
-716.762	-200.000	0.220	-0.000
-715.748	-75.303	0.084	-0.030
-714.733	-200.000	0.019	-0.253
-713.718	28.802	-0.380	0.321
-712.704	-200.000	-0.066	0.301
-711.689	41.437	0.048	-0.044
-710.675	163.703	0.081	-0.114
-709.660	45.320	-0.182	0.167
-708.645	-8.088	-0.117	-0.078
-707.631	326.381	0.084	-0.160
-706.616	112.681	-0.078	0.094
-705.602	60.569	-0.094	-0.093
-704.587	-22.452	-0.294	0.177
-703.572	-200.000	-0.023	0.168
-702.558	95.129	0.188	0.213
-701.543	382.027	0.122	0.250
-700.529	-53.544	-0.229	-0.104
-699.514	-35.535	0.146	-0.079
-698.499	800.000	-0.082	-0.338
-697.485	389.846	0.061	-0.125
-696.470	-25.309	-0.221	-0.130
-695.456	64.445	-0.248	-0.249
-694.441	2.888	0.271	-0.196
-693.426	49.504	-0.045	-0.042
-692.412	58.769	-0.126	-0.124
-691.397	-200.000	0.037	-0.459
-690.383	-141.576	-0.314	0.032
-689.368	-84.543	0.268	0.084
-688.354	175.283	0.230	0.332
-687.339	257.918	-0.043	-0.073
-686.324	106.156	-0.314	-0.371
-685.310	-118.626	0.109	-0.019
-684.295	-96.437	-0.075	0.020
-683.281	-74.489	-0.164	-0.059
-682.266	-114.711	0.196	-0.037
-681.251	78.011	0.179	-0.190
-680.237	-54.851	0.266	-0.120
-679.222	800.000	0.084	0.251
-678.208	-188.356	0.083	-0.001
-677.193	-16.123	0.133	-0.084
-676.178	128.222	0.166	-0.211
-675.164	-12.071	-0.077	-0.050
-674.149	800.000	-0.035	-0.149
-673.135	800.000	0.040	0.118
-672.120	242.356	-0.117	0.194
-671.105	-113.174	-0.329	-0.065
-670.091	-16.563	-0.038	-0.024
-669.076	8.669	0.342	0.256
-668.062	-61.612	-0.254	-0.106
-667.047	-32.407	0.310	-0.172
-666.032	184.747	-0.034	-0.050
-665.018	-200.000	0.012	-0.276
-664.003	-4.828	0.248	-0.170
-662.989	-7.649	-0.351	-0.236
-661.974	77.456	0.089	0.095
-660.959	-200.000	-0.012	0.265
-659.945	128.687	-0.063	-0.080
-658.930	-86.648	0.310	0.094
-657.916	0.794	0.010	0.007
-656.901	23.529	-0.158	-0.129
-655.886	-88.657	-0.509	-0.151
-654.872	-200.000	-0.033	-0.167
-653.857	33.057	-0.174	0.150
-652.843	-66.764	0.196	0.077
-651.828	-175.555	-0.160	-0.004
-650.814	143.780	-0.105	0.139
-649.799	5.039	0.217	-0.159
-648.784	538.642	-0.097	-0.230
-647.770	-25.396	0.237	-0.139
-646.755	183.289	-0.119	-0.175
-645.741	800.000	0.159	0.506
-644.726	-78.841	0.099	0.034
-643.711	-166.651	0.216	-0.009
-642.697	-101.108	-0.222	-0.054
-641.682	-200.000	-0.040	-0.351
-640.668	-147.976	-0.322	0.027
-639.653	-75.634	-0.329	0.116
-638.638	9.261	-0.366	-0.275
-637.624	800.000	0.077	0.212
-636.609	85.089	0.126	0.137
-635.595	-200.000	0.006	-0.067
-634.580	115.194	-0.166	-0.202
-633.565	34.989	-0.144	-0.125
-632.551	-200.000	0.017	-0.232
-631.536	244.323	0.131	0.219
-630.522	100.818	0.321	0.371
-629.507	-87.605	-0.182	-0.055
-628.492	74.072	0.062	-0.065
-627.478	189.477	-0.151	-0.225
-626.463	-200.000	-0.021	-0.336
-625.449	132.689	0.171	0.219
-624.434	-17.235	-0.081	-0.050
-623.419	-200.000	0.128	-0.000
-622.405	800.000	0.015	0.058
-621.390	-200.000	0.024	0.145
-620.376	-200.000	-0.028	0.138
-619.361	214.440	-0.134	0.212
-618.346	200.743	-0.044	0.068
-617.332	710.540	0.043	0.112
-616.317	233.945	0.140	0.229
-615.303	125.966	0.119	0.149
-614.288	-192.681	-0.079	0.001
-613.273	-41.473	0.242	0.124
-612.259	-58.338	0.150	-0.065
-611.244	32.910	-0.070	0.060
-610.230	-126.414	-0.058	0.009
-609.215	800.000	-0.108	0.350
-608.201	17.535	-0.094	-0.074
-607.186	-200.000	-0.001	0.019
-606.171	-49.802	0.263	-0.124
-605.157	75.796	-0.022	0.023
-604.142	-200.000	0.012	-0.109
-603.128	-10.209	-0.137	0.090
-602.113	395.272	0.066	0.137
-601.098	-200.000	0.050	0.277
-600.084	221.971	0.156	0.249
-599.069	-41.294	-0.122	-0.062
-598.055	600.874	-0.044	0.108
-597.040	-37.545	0.118	-0.062
-596.025	-157.573	0.194	0.012
-595.011	-12.032	0.141	-0.092
-593.996	-116.895	0.033	-0.006
-592.982	-18.166	0.041	-0.025
-591.967	87.365	-0.101	0.111
-590.952	316.183	-0.115	-0.215
-589.938	-15.119	-0.136	-0.087
-588.923	-200.000	0.025	-0.128
-587.909	-200.000	0.078	0.401
-586.894	178.021	-0.108	-0.156
-585.879	67.287	-0.134	-0.136
-584.865	98.812	0.016	-0.018
-583.850	35.850	0.112	0.098
-582.836	235.125	0.201	-0.328
-581.821	13.883	0.106	-0.082
-580.806	-59.463	0.082	-0.035
-579.792	332.891	-0.177	0.340
-578.777	800.000	-0.032	-0.111
-577.763	34.007	0.095	0.082
-576.748	-23.470	-0.219	0.131
-575.733	15.779	-0.144	-0.112
-574.719	64.345	0.228	0.227
-573.704	644.353	-0.079	0.200
-572.690	-21.286	0.061	-0.037
-571.675	800.000	-0.009	0.034
-570.661	-8.632	0.230	0.153
-569.646	749.094	-0.104	-0.279
-568.631	53.961	0.242	-0.231
-567.617	27.881	0.114	0.095
-566.602	-114.965	0.229	0.043
-565.588	-42.327	-0.186	0.094
-564.573	-200.000	0.018	0.174
-563.558	-171.593	-0.096	-0.003
-562.544	252.484	0.091	-0.154
-561.529	371.560	-0.136	-0.275
-560.515	149.388	-0.061	-0.082
-559.500	-7.846	0.102	-0.068
-558.485	-67.071	-0.337	0.132
-557.471	-144.349	0.254	0.023
-556.456	508.130	-0.059	-0.135
-555.442	278.681	0.082	-0.145
-554.427	800.000	-0.106	0.351
-553.412	15.952	0.055	-0.043
-552.398	72.839	-0.065	-0.067
-551.383	-200.000	-0.001	-0.302
-550.369	-74.013	-0.147	-0.053
-549.354	-200.000	0.102	-0.000
-548.339	143.879	-0.157	-0.208
-547.325	114.850	-0.100	-0.121
-546.310	469.216	-0.033	-0.074
-545.296	209.767	0.146	-0.227
-544.281	800.000	-0.027	0.105
-543.266	-200.000	0.012	0.064
-542.252	468.688	-0.111	-0.247
-541.237	47.282	-0.159	0.147
-540.223	133.223	-0.157	-0.201
-539.208	800.000	0.061	-0.196
-538.193	-200.000	-0.001	-0.069
-537.179	800.000	0.017	0.057
-536.164	-200.000	0.017	0.097
-535.150	120.225	-0.065	0.080
-534.135	46.103	-0.118	-0.108
-533.121	-120.344	0.266	0.045
-532.106	-107.913	0.169	0.036
-531.091	-200.000	-0.022	-0.140
-530.077	190.538	-0.195	0.290
-529.062	-200.000	-0.028	-0.228
-528.048	-200.000	0.000	-0.073
-527.033	-94.629	-0.314	0.085
-526.018	242.253	-0.115	-0.190
-525.004	87.206	-0.097	-0.107
-523.989	39.053	0.256	0.227
-522.975	199.393	-0.218	-0.330
-521.960	800.000	0.044	0.155
-520.945	212.000	0.186	0.290
-519.931	137.054	-0.095	0.123
-518.916	-98.788	0.089	-0.022
-517.902	3.316	0.307	-0.222
-516.887	-80.570	-0.280	-0.092
-515.872	406.478	0.110	-0.230
-514.858	-48.406	-0.295	-0.141
-513.843	-200.000	0.014	0.168
-512.829	-27.372	-0.188	0.109
-511.814	-200.000	0.038	0.260
-510.799	-30.226	-0.168	-0.095
-509.785	-60.299	0.357	-0.151
-508.770	-160.129	-0.276	0.015
-507.756	128.843	-0.096	0.122
-506.741	603.688	-0.087	0.215
-505.726	453.312	0.024	0.052
-504.712	98.035	-0.114	-0.129
-503.697	-167.051	0.184	0.007
-502.683	38.148	-0.095	-0.084
-501.668	-173.444	-0.164	0.005
-500.653	-66.283	-0.306	-0.120
-499.639	96.620	0.211	-0.239
-498.624	-135.353	0.139	0.016
-497.610	-62.647	0.407	0.167
-496.595	187.864	-0.113	0.168
-495.581	660.714	0.042	-0.107
-494.566	-200.000	0.033	0.170
-493.551	454.611	-0.135	-0.297
-492.537	-200.000	-0.019	-0.154
-491.522	-26.436	-0.292	0.169
-490.508	73.252	0.073	0.075
-489.493	323.200	-0.134	0.252
-488.478	-102.168	0.285	-0.068
-487.464	-200.000	-0.013	-0.066
-486.449	658.532	0.059	-0.149
-485.435	-200.000	-0.014	0.193
-484.420	59.423	0.258	-0.251
-483.405	-29.693	0.130	0.073
-482.391	-68.707	-0.228	0.087
-481.376	-200.000	0.031	0.214
-480.362	105.010	-0.201	-0.235
-479.347	15.012	-0.270	-0.209
-478.332	39.023	0.045	0.040
-477.318	-200.000	-0.024	0.249
-476.303	137.452	-0.095	0.123
-475.289	800.000	-0.017	0.070
-474.274	122.542	-0.028	-0.035
-473.259	592.777	0.095	0.232
-472.245	-116.588	0.341	0.062
-471.230	315.493	-0.109	-0.203
-470.216	13.472	-0.228	0.175
-469.201	-200.000	0.051	-0.326
-468.186	344.156	0.076	-0.147
-467.172	-200.000	-0.036	0.540
-466.157	-109.176	-0.153	0.032
-465.143	426.928	0.154	-0.328
-464.128	-200.000	-0.052	-0.272
-463.113	-200.000	-0.036	-0.332
-462.099	800.000	-0.022	-0.092
-461.084	250.797	0.136	-0.229
-460.070	104.391	0.229	-0.266
-459.055	-147.207	-0.495	-0.042
-458.040	-21.852	-0.200	0.120
-457.026	-143.457	-0.238	-0.022
-456.011	-158.132	0.199	0.012
-454.997	800.000	0.038	0.124
-453.982	12.406	0.162	0.123
-452.968	98.796	-0.083	-0.095
-451.953	800.000	0.096	0.282
-450.938	546.453	0.179	0.423
-449.924	800.000	0.079	0.295
-448.909	-200.000	0.003	-0.143
-447.895	-100.389	0.309	-0.076
-446.880	-200.000	-0.004	0.110
-445.865	-96.612	0.279	-0.073
-444.851	40.479	-0.104	-0.092
-443.836	24.440	-0.109	0.089
-442.822	163.797	0.073	-0.101
-441.807	-101.445	0.331	-0.080
-440.792	800.000	0.096	0.267
-439.778	-200.000	0.053	-0.551
-438.763	7.293	0.090	-0.066
-437.749	53.233	0.085	0.080
-436.734	-21.666	-0.324	-0.195
-435.719	95.001	0.210	-0.236
-434.705	42.218	-0.187	-0.167
-433.690	-200.000	-0.015	0.239
-432.676	18.142	-0.227	0.178
-431.661	-200.000	0.035	0.292
-430.646	-100.951	0.269	0.065
-429.632	247.500	0.135	0.225
-428.617	71.334	-0.343	-0.351
-427.603	38.840	0.327	-0.288
-426.588	-62.317	0.185	-0.076
-425.573	-90.519	-0.109	0.031
-424.559	581.171	-0.046	0.112
-423.544	-44.596	0.086	0.043
-422.530	-53.058	-0.257	-0.116
-421.515	-200.000	-0.039	-0.179
-420.500	800.000	0.047	-0.155
-419.486	-175.512	0.298	0.008
-418.471	-25.730	-0.192	-0.111
-417.457	-109.393	-0.025	0.005
-416.442	272.964	0.080	-0.139
-415.428	800.000	0.078	0.268
-414.413	-200.000	-0.013	0.223
-413.398	70.356	0.030	0.031
-412.384	183.195	-0.021	0.030
-411.369	584.977	-0.105	0.255
-410.355	-24.767	0.209	0.122
-409.340	800.000	0.041	0.169
-408.325	-200.000	-0.028	0.182
-407.311	-200.000	0.048	-0.397
-406.296	340.185	-0.093	-0.179
-405.282	-36.132	0.218	0.116
-404.267	800.000	-0.107	0.363
-403.252	800.000	0.070	0.228
-402.238	-162.235	-0.289	-0.014
-401.223	-167.788	0.091	0.004
-400.209	120.583	-0.244	-0.298
-399.194	-103.744	-0.168	0.039
-398.179	469.979	0.020	0.045
-397.165	800.000	-0.040	0.157
-396.150	382.326	0.183	0.370
-395.136	-97.670	-0.194	-0.050
-394.121	-30.382	-0.226	-0.126
-393.106	800.000	0.051	-0.142
-392.092	-55.585	0.156	-0.069
-391.077	64.484	0.137	-0.136
-390.063	-200.000	-0.025	-0.419
-389.048	-200.000	-0.017	-0.407
-388.033	-200.000	-0.068	0.307
-387.019	480.874	0.074	0.165
-386.004	8.870	-0.331	0.246
-384.990	-200.000	0.027	-0.314
-383.975	110.911	-0.064	-0.076
-382.960	346.162	-0.162	-0.314
-381.946	-200.000	0.018	-0.156
-380.931	-106.410	-0.180	0.040
-379.917	676.189	-0.024	-0.061
-378.902	-85.530	0.331	-0.101
-377.888	-120.259	-0.234	-0.039
-376.873	-200.000	0.013	0.113
-375.858	-200.000	-0.011	0.097
-374.844	135.294	-0.110	0.141
-373.829	-200.000	-0.004	-0.065
-372.815	49.591	0.090	0.083
-371.800	-105.429	0.273	-0.061
-370.785	102.579	-0.090	-0.104
-369.771	-128.028	-0.154	-0.022
-368.756	-122.338	-0.154	-0.025
-367.742	-200.000	-0.037	-0.236
-366.727	216.431	0.195	-0.305
-365.712	97.262	-0.060	-0.068
-364.698	-27.683	-0.313	0.179
-363.683	169.950	-0.041	-0.057
-362.669	-163.059	-0.231	-0.011
-361.654	48.957	-0.333	0.308
-360.639	-200.000	-0.037	0.258
-359.625	417.419	-0.121	0.254
-358.610	141.671	0.124	0.161
-357.596	-200.000	-0.026	0.156
-356.581	80.657	-0.256	0.272
-355.566	-171.584	0.136	0.004
-354.552	-23.916	0.093	0.055
-353.537	49.306	-0.317	0.293
-352.523	-180.905	-0.335	0.007
-351.508	-200.000	-0.017	0.093
-350.493	275.919	-0.026	0.046
-349.479	135.967	0.009	0.011
-348.464	-200.000	-0.032	-0.178
-347.450	-200.000	0.038	-0.174
-346.435	-41.033	0.133	-0.067
-345.420	-106.132	-0.328	0.073
-344.406	-57.929	-0.356	0.153
-343.391	111.990	-0.216	-0.257
-342.377	85.295	0.178	0.192
-341.362	139.294	-0.019	-0.025
-340.348	276.197	-0.217	-0.379
-339.333	562.092	0.096	-0.228
-338.318	533.931	0.074	-0.172
-337.304	595.245	0.131	-0.319
-336.289	108.084	-0.128	-0.150
-335.275	163.468	0.180	-0.248
-334.260	-34.218	-0.117	-0.063
-333.245	297.445	0.234	0.423
-332.231	38.657	0.052	-0.045
-331.216	9.774	0.126	0.094
-330.202	-135.225	-0.367	-0.043
-329.187	-200.000	-0.050	-0.226
-328.172	-66.849	-0.294	-0.114
-327.158	800.000	-0.097	0.293
-326.143	157.023	-0.085	0.115
-325.129	-22.364	-0.291	-0.173
-324.114	-66.700	-0.271	0.105
-323.099	732.543	-0.016	-0.042
-322.085	510.421	-0.050	-0.115
-321.070	-124.469	-0.119	-0.018
-320.056	-25.959	-0.232	-0.134
-319.041	-164.967	0.142	0.006
-318.026	-132.432	-0.186	0.024
-317.012	800.000	-0.048	-0.193
-315.997	-200.000	0.024	-0.201
-314.983	386.022	0.030	0.060
-313.968	-110.827	0.199	-0.040
-312.953	-75.851	-0.041	0.014
-311.939	241.169	-0.135	-0.221
-310.924	119.744	0.064	0.078
-309.910	-76.957	-0.224	0.077
-308.895	61.816	0.169	-0.166
-307.880	-85.831	-0.323	0.098
-306.866	247.403	0.164	-0.272
-305.851	232.721	-0.188	-0.303
-304.837	800.000	-0.008	0.031
-303.822	32.739	0.248	0.211
-302.807	395.146	0.055	0.113
-301.793	-90.735	-0.213	0.060
-300.778	-108.010	0.187	0.040
-299.764	-94.481	-0.306	0.082
-298.749	-60.971	0.019	-0.008
-297.735	561.625	-0.070	0.165
-296.720	-200.000	-0.045	0.239
-295.705	-107.993	0.404	0.086
-294.691	-162.815	0.207	0.010
-293.676	502.772	-0.131	0.297
-292.662	-5.864	0.073	0.049
-291.647	-168.951	-0.142	-0.005
-290.632	-14.784	-0.154	0.097
-289.618	-200.000	0.027	0.316
-288.603	800.000	-0.044	0.141
-287.589	-200.000	0.060	-0.309
-286.574	800.000	0.120	-0.361
-285.559	800.000	0.057	-0.239
-284.545	-9.590	0.256	0.167
-283.530	-200.000	0.086	0.432
-282.516	179.282	0.321	-0.460
-281.501	55.511	-0.074	0.070
-280.486	64.032	-0.148	-0.146
-279.472	-114.531	0.389	-0.073
-278.457	-200.000	0.030	0.245
-277.443	380.130	-0.120	-0.242
-276.428	-55.266	0.165	-0.073
-275.413	-9.334	-0.128	0.084
-274.399	-200.000	-0.001	0.203
-273.384	254.694	-0.109	0.182
-272.370	527.352	0.114	0.263
-271.355	800.000	-0.050	-0.156
-270.340	-200.000	-0.014	0.250
-269.326	-200.000	-0.006	-0.063
-268.311	153.222	-0.087	0.117
-267.297	-200.000	0.016	-0.112
-266.282	111.775	0.181	-0.214
-265.267	259.202	0.142	0.240
-264.253	-200.000	-0.003	-0.092
-263.238	-116.385	0.117	-0.021
-262.224	-115.796	0.218	-0.040
-261.209	50.073	0.371	-0.343
-260.195	-200.000	-0.004	0.432
-259.180	118.096	-0.040	0.048
-258.165	22.657	0.147	0.118
-257.151	581.192	0.030	0.072
-256.136	15.103	0.349	-0.268
-255.122	-123.070	0.249	0.039
-254.107	-93.933	0.084	-0.023
-253.092	-200.000	0.065	-0.406
-252.078	-161.402	-0.275	0.014
-251.063	-82.588	-0.226	0.072
-250.049	-6.567	-0.138	0.092
-249.034	800.000	-0.144	0.400
-248.019	-137.472	0.371	0.041
-247.005	195.536	-0.310	-0.462
-245.990	-160.361	-0.155	0.008
-244.976	-173.917	0.293	-0.008
-243.961	89.746	0.178	0.194
-242.946	-151.112	-0.322	0.024
-241.932	-200.000	0.001	-0.314
-240.917	-146.514	-0.078	0.007
-239.903	-200.000	-0.053	0.298
-238.888	-200.000	-0.008	-0.106
-237.873	-139.884	0.046	-0.005
-236.859	-79.548	-0.207	-0.068
-235.844	-33.705	0.346	0.187
-234.830	-46.448	0.125	-0.060
-233.815	61.365	0.238	-0.232
-232.800	-200.000	-0.035	-0.331
-231.786	153.128	-0.124	-0.167
-230.771	127.833	-0.077	-0.096
-229.757	-24.920	-0.323	0.187
-228.742	252.332	0.129	-0.215
-227.727	110.517	-0.122	-0.144
-226.713	-102.951	0.223	-0.052
-225.698	-40.892	0.081	-0.041
-224.684	-200.000	-0.026	-0.172
-223.669	-31.707	0.361	-0.198
-222.655	-64.609	0.334	0.133
-221.640	1.159	0.232	-0.163
-220.625	-200.000	-0.006	0.380
-219.611	12.399	-0.037	-0.028
-218.596	254.441	-0.213	0.357
-217.582	-8.438	-0.298	0.196
-216.567	249.872	0.262	0.434
-215.552	525.543	-0.057	0.130
-214.538	-2.807	0.042	0.029
-213.523	27.949	-0.174	0.144
-212.509	510.779	0.149	0.339
-211.494	-200.000	-0.022	0.188
-210.479	64.309	0.178	0.175
-209.465	800.000	-0.158	-0.515
-208.450	122.487	-0.138	0.169
-207.436	112.015	-0.127	0.150
-206.421	-115.458	-0.197	-0.036
-205.406	-126.773	-0.252	-0.036
-204.392	249.494	-0.019	-0.031
-203.377	-7.035	-0.126	-0.083
-202.363	66.593	0.309	-0.307
-201.348	-14.992	0.176	-0.110
-200.333	677.975	-0.058	0.147
-199.319	188.198	-0.021	-0.031
-198.304	-82.345	0.249	0.079
-197.290	-137.013	-0.127	0.014
-196.275	-71.657	0.239	-0.087
-195.260	95.924	-0.240	0.268
-194.246	6.682	-0.158	0.115
-193.231	-126.886	0.228	-0.033
-192.217	-166.898	-0.384	0.015
-191.202	57.735	-0.106	-0.101
-190.187	121.969	-0.131	0.160
-189.173	81.770	0.120	-0.127
-188.158	633.202	0.146	0.362
-187.144	244.036	-0.070	-0.114
-186.129	-110.498	0.192	-0.039
-185.114	-66.602	-0.317	0.123
-184.100	-30.607	0.244	0.135
-183.085	552.155	0.042	-0.099
-182.071	140.678	0.169	0.218
-181.056	3.096	0.109	-0.077
-180.042	2.932	0.216	-0.153
-179.027	-109.876	0.312	0.064
-178.012	224.037	0.050	0.079
-176.998	227.611	0.085	-0.134
-175.983	-200.000	-0.009	-0.094
-174.969	-149.645	0.029	0.002
-173.954	725.400	-0.033	0.086
-172.939	-63.553	0.154	0.062
-171.925	13.325	0.140	0.106
-170.910	-64.081	0.288	0.115
-169.896	-156.749	0.096	-0.006
-168.881	-200.000	-0.022	-0.166
-167.866	-135.137	-0.143	0.017
-166.852	-106.241	0.188	0.041
-165.837	-99.163	0.347	0.086
-164.823	800.000	-0.115	-0.369
-163.808	-200.000	-0.019	0.285
-162.793	-55.017	0.245	-0.108
-161.779	-200.000	-0.001	0.195
-160.764	351.036	-0.178	-0.344
-159.750	57.007	0.189	-0.180
-158.735	97.265	-0.173	0.194
-157.720	427.116	-0.042	0.089
-156.706	80.403	-0.074	-0.078
-155.691	204.268	0.136	0.205
-154.677	-200.000	-0.088	0.425
-153.662	-38.102	0.157	0.081
-152.647	398.141	0.019	-0.040
-151.633	-88.985	0.494	-0.143
-150.618	194.545	-0.205	-0.303
-149.604	-9.741	0.278	-0.181
-148.589	154.139	0.135	0.181
-147.574	-50.963	0.247	-0.113
-146.560	-117.484	-0.198	0.035
-145.545	55.035	-0.119	0.112
-144.531	642.483	0.092	-0.228
-143.516	-55.327	0.189	-0.083
-142.502	-154.285	0.126	0.008
-141.487	114.226	-0.128	0.151
-140.472	-47.616	0.026	-0.012
-139.458	443.193	0.063	0.135
-138.443	-57.393	-0.165	-0.071
-137.429	800.000	0.063	0.245
-136.414	112.544	0.121	0.143
-135.399	378.940	-0.043	0.085
-134.385	-28.580	-0.104	-0.058
-133.370	-200.000	-0.005	0.510
-132.356	-158.285	0.538	-0.031
-131.341	141.223	-0.260	0.335
-130.326	279.234	0.194	-0.338
-129.312	-70.610	-0.167	-0.062
-128.297	-41.208	0.172	0.087
-127.283	-5.870	-0.229	-0.152
-126.268	18.779	-0.259	0.202
-125.253	-89.798	-0.202	-0.058
-124.239	54.783	-0.293	-0.276
-123.224	-116.579	0.154	-0.028
-122.210	-38.530	0.262	0.135
-121.195	17.403	0.292	0.226
-120.180	59.775	-0.053	-0.051
-119.166	389.016	-0.108	-0.218
-118.151	-124.740	-0.103	-0.016
-117.137	-115.425	-0.187	-0.034
-116.122	16.515	-0.028	-0.022
-115.107	-108.023	0.253	-0.053
-114.093	-200.000	0.132	-0.000
-113.078	310.345	-0.105	0.192
-112.064	-145.455	0.090	-0.008
-111.049	-97.203	0.218	-0.055
-110.034	706.013	0.057	-0.146
-109.020	-200.000	0.011	-0.278
-108.005	-73.095	-0.234	0.083
-106.991	136.313	0.040	0.051
-105.976	374.602	-0.105	0.208
-104.962	800.000	-0.023	-0.090
-103.947	-69.822	-0.329	0.122
-102.932	20.350	-0.072	-0.057
-101.918	16.347	-0.161	-0.124
-100.903	-145.806	-0.156	-0.014
-99.889	411.504	-0.123	0.254
-98.874	800.000	0.131	0.452
-97.859	-7.314	0.397	-0.262
-96.845	-68.343	-0.172	-0.065
-95.830	783.683	0.031	0.082
-94.816	121.734	0.061	0.074
-93.801	-124.146	0.314	-0.048
-92.786	217.127	0.047	-0.074
-91.772	438.319	-0.021	-0.045
-90.757	19.470	0.166	0.130
-89.743	-200.000	-0.008	0.118
-88.728	-200.000	-0.012	-0.376
-87.713	-200.000	0.021	-0.252
-86.699	-200.000	0.030	-0.140
-85.684	-200.000	-0.031	-0.157
-84.670	-200.000	0.038	-0.242
-83.655	-200.000	0.013	0.205
-82.640	33.064	-0.113	-0.096
-81.626	-200.000	-0.037	-0.354
-80.611	-200.000	0.040	-0.289
-79.597	-200.000	0.029	0.125
-78.582	154.605	-0.255	0.341
-77.567	-129.426	0.390	-0.053
-76.553	-200.000	-0.029	0.219
-75.538	-200.000	0.015	0.298
-74.524	-63.877	-0.233	0.093
-73.509	-30.499	-0.225	0.124
-72.494	-200.000	0.100	-0.000
-71.480	251.783	-0.087	0.144
-70.465	-83.860	-0.108	0.033
-69.451	800.000	-0.170	0.479
-68.436	309.794	0.168	0.306
-67.422	379.875	-0.204	0.406
-66.407	800.000	0.047	0.148
-65.392	99.022	-0.100	0.113
-64.378	300.702	0.088	0.157
-63.363	-74.687	-0.095	0.033
-62.349	-200.000	-0.010	-0.089
-61.334	86.994	-0.901	-0.968
-60.319	130.620	0.579	0.722
-59.305	345.897	-0.518	-0.989
-58.290	141.098	1.075	1.382
-57.276	647.682	0.549	1.363
-56.261	-200.000	124.522	651.502
-55.246	413.533	1576.585	3260.001
-54.232	141.235	2748.453	3534.651
-53.217	89.956	2311.010	2509.559
-52.203	32.550	1916.601	1610.118
-51.188	26.354	1711.071	1389.930
-50.173	24.292	1672.614	1343.125
-49.159	46.277	1741.104	1568.172
-48.144	43.541	1753.363	1558.105
-47.130	26.016	1704.438	1381.734
-46.115	23.431	1689.802	1350.154
-45.100	23.228	1684.450	1344.287
-44.086	23.265	1681.702	1342.316
-43.071	23.166	1679.776	1339.981
-42.057	23.168	1677.820	1338.383
-41.042	23.226	1675.107	1336.601
-40.027	23.223	1673.338	1335.117
-39.013	23.176	1671.280	1333.062
-37.998	23.126	1670.439	1331.962
-36.984	23.150	1669.121	1331.040
-35.969	23.262	1667.451	1330.499
-34.954	23.321	1665.518	1329.347
-33.940	23.372	1663.861	1328.353
-32.925	23.292	1662.456	1326.579
-31.911	23.197	1660.603	1324.340
-30.896	23.264	1658.929	1323.453
-29.881	23.319	1657.610	1322.754
-28.867	23.302	1656.524	1321.709
-27.852	23.298	1654.346	1319.888
-26.838	23.302	1652.989	1318.786
-25.823	23.311	1651.944	1317.963
-24.809	23.310	1650.695	1316.911
-23.794	23.378	1648.842	1315.883
-22.779	23.382	1647.449	1314.752
-21.765	23.295	1645.725	1312.674
-20.750	23.346	1644.443	1311.978
-19.736	23.314	1643.126	1310.642
-18.721	23.296	1641.433	1309.102
-17.706	23.347	1639.842	1308.159
-16.692	23.365	1638.337	1307.041
-15.677	23.357	1637.151	1305.985
-14.663	23.369	1635.729	1304.889
-13.648	23.382	1634.562	1303.998
-12.633	23.380	1632.932	1302.634
-11.619	23.311	1631.285	1300.760
-10.604	23.393	1629.811	1300.135
-9.590	23.395	1628.666	1299.182
-8.575	23.456	1627.097	1298.328
-7.560	23.381	1625.961	1296.825
-6.546	23.372	1624.803	1295.784
-5.531	23.332	1624.024	1294.819
-4.517	23.351	1622.679	1293.833
-3.502	23.376	1621.566	1293.076
-2.487	23.416	1619.787	1291.895
-1.473	22.957	1607.175	1278.468
-0.458	20.030	1586.804	1241.272
0.556	14.841	1588.392	1208.638
1.571	12.594	1612.102	1210.062
2.586	12.327	1624.120	1216.995
3.600	11.369	1569.472	1169.078
4.615	6.297	1462.392	1055.282
5.629	1.297	1403.359	980.361
6.644	0.349	1396.397	969.317
7.659	0.129	1395.748	967.367
8.673	0.180	1394.676	966.864
9.688	0.122	1392.560	964.944
10.702	0.130	1389.003	962.441
11.717	2.620	1392.494	980.721
12.731	9.268	1403.064	1030.834
13.746	14.986	1411.242	1073.533
14.761	16.758	1412.322	1085.628
15.775	16.176	1411.381	1081.082
16.790	15.224	1408.154	1072.424
17.804	14.501	1406.140	1066.178
18.819	14.144	1404.742	1062.737
19.834	13.897	1403.839	1060.385
20.848	13.704	1402.281	1057.887
21.863	13.384	1401.343	1055.042
22.877	13.279	1399.526	1052.911
23.892	13.185	1399.201	1051.976
24.907	13.124	1398.255	1050.784
25.921	13.287	1397.096	1050.857
26.936	13.232	1396.243	1049.772
27.950	13.254	1395.583	1049.321
28.965	13.295	1394.300	1048.528
29.980	13.405	1393.308	1048.386
30.994	13.448	1392.047	1047.611
32.009	13.512	1391.324	1047.383
33.023	13.381	1390.472	1045.818
34.038	13.376	1389.165	1044.714
35.053	13.404	1387.687	1043.683
36.067	13.375	1386.742	1042.702
37.082	13.381	1385.323	1041.580
38.096	13.378	1384.786	1041.064
39.111	13.423	1383.660	1040.406
40.126	13.333	1383.008	1039.262
41.140	13.254	1382.408	1038.224
42.155	13.250	1382.116	1037.882
43.169	13.194	1381.736	1037.156
44.184	13.279	1381.253	1037.234
45.199	13.311	1380.432	1036.730
46.213	13.186	1380.215	1035.686
47.228	13.268	1379.354	1035.462
48.242	13.280	1378.514	1034.815
49.257	13.305	1376.293	1033.218
50.271	13.285	1375.168	1032.153
51.286	13.256	1373.731	1030.806
52.301	13.315	1372.092	1029.848
53.315	13.226	1371.445	1028.718
54.330	13.245	1370.031	1027.685
55.344	13.235	1369.350	1027.021
56.359	13.217	1368.296	1026.031
57.374	13.250	1367.230	1025.342
58.388	13.109	1366.514	1023.843
59.403	13.151	1365.728	1023.420
60.417	13.161	1364.914	1022.786
61.432	13.190	1364.036	1022.217
62.447	13.122	1362.770	1020.753
63.461	13.178	1361.622	1020.154
64.476	13.139	1360.845	1019.238
65.490	13.095	1359.568	1017.918
66.505	13.208	1357.659	1017.097
67.520	13.189	1356.669	1016.147
68.534	13.220	1355.364	1015.268
69.549	13.231	1354.251	1014.418
70.563	13.135	1353.552	1013.212
71.578	13.026	1352.456	1011.637
72.593	13.089	1350.937	1010.794
73.607	13.011	1350.819	1010.140
74.622	13.013	1349.796	1009.297
75.636	13.035	1348.754	1008.565
76.651	13.034	1348.110	1007.985
77.666	13.174	1346.965	1007.896
78.680	13.062	1347.203	1007.304
79.695	13.069	1345.625	1006.072
80.709	13.208	1344.913	1006.302
81.724	13.223	1344.226	1005.791
82.739	13.120	1343.912	1004.834
83.753	13.102	1342.973	1003.939
84.768	13.352	1340.875	1003.794
85.782	13.344	1340.042	1003.035
86.797	13.356	1338.783	1002.074
87.812	13.282	1337.655	1000.697
88.826	13.335	1336.198	999.839
89.841	13.332	1334.766	998.663
90.855	13.327	1334.438	998.294
91.870	13.408	1333.164	997.744
92.884	13.452	1332.367	997.325
93.899	13.391	1331.596	996.289
94.914	13.412	1330.997	995.882
95.928	13.411	1330.314	995.276
96.943	13.386	1328.854	993.946
97.957	13.370	1328.094	993.192
98.972	13.307	1327.322	992.150
99.987	13.269	1326.294	991.069
101.001	13.287	1325.173	990.247
102.016	13.363	1323.833	989.615
103.030	13.309	1323.598	989.025
104.045	13.386	1322.369	988.484
105.060	13.341	1321.170	987.232
106.074	13.374	1319.186	985.858
107.089	13.330	1318.375	984.904
108.103	13.260	1317.095	983.443
109.118	13.215	1315.701	982.044
110.133	13.267	1314.348	981.261
111.147	13.337	1312.801	980.432
112.162	13.223	1312.176	979.204
113.176	13.271	1310.599	978.225
114.191	13.346	1309.675	977.892
115.206	13.317	1308.750	976.940
116.220	13.271	1307.341	975.532
117.235	13.331	1306.010	974.804
118.249	13.262	1305.161	973.679
119.264	13.237	1303.922	972.522
120.279	13.237	1303.059	971.794
121.293	13.256	1302.164	971.151
122.308	13.173	1300.996	969.710
123.322	13.187	1299.779	968.799
124.337	13.245	1298.925	968.413
125.352	13.189	1297.721	967.102
126.366	13.239	1296.570	966.452
127.381	13.167	1295.803	965.376
128.395	13.211	1293.813	964.063
129.410	13.210	1293.292	963.584
130.424	13.202	1292.680	962.995
131.439	13.362	1291.388	962.882
132.454	13.313	1290.252	961.659
133.468	13.379	1289.523	961.419
134.483	13.377	1288.599	960.633
135.497	13.232	1287.912	959.195
136.512	13.290	1286.398	958.314
137.527	13.295	1284.720	957.008
138.541	13.399	1283.048	956.282
139.556	13.383	1282.074	955.376
140.570	13.452	1280.683	954.655
141.585	13.389	1280.369	953.972
142.600	13.480	1278.497	953.019
143.614	13.489	1277.452	952.205
144.629	13.609	1276.444	952.060
145.643	13.608	1275.126	950.988
146.658	13.423	1274.029	949.022
147.673	13.419	1272.545	947.812
148.687	13.431	1271.913	947.329
149.702	13.552	1269.913	946.447
150.716	13.378	1269.110	944.766
151.731	13.331	1267.732	943.394
152.746	13.424	1266.584	942.984
153.760	13.516	1264.894	942.167
154.775	13.492	1264.316	941.512
155.789	13.510	1262.901	940.483
156.804	13.549	1261.892	939.867
157.819	13.600	1261.048	939.444
158.833	13.675	1260.153	939.121
159.848	13.601	1259.022	937.777
160.862	13.592	1258.328	937.125
161.877	13.565	1256.694	935.672
162.892	13.540	1256.187	935.071
163.906	13.521	1255.210	934.153
164.921	13.501	1254.300	933.280
165.935	13.612	1253.131	932.953
166.950	13.718	1252.381	932.906
167.964	13.561	1251.872	931.563
168.979	13.594	1251.203	931.168
169.994	13.640	1249.967	930.427
171.008	13.658	1249.333	929.972
172.023	13.732	1248.283	929.526
173.037	13.730	1247.551	928.884
174.052	13.708	1246.745	928.077
175.067	13.681	1245.796	927.137
176.081	13.607	1244.971	926.030
177.096	13.614	1243.988	925.254
178.110	13.698	1242.720	924.698
179.125	13.714	1241.862	924.067
180.140	13.763	1240.561	923.292
181.154	13.738	1239.204	922.060
182.169	13.791	1237.328	920.879
183.183	13.825	1236.579	920.424
184.198	13.755	1235.425	919.096
185.213	13.874	1234.327	918.859
186.227	13.916	1233.225	918.191
187.242	13.993	1232.157	917.739
188.256	14.004	1231.263	917.055
189.271	13.950	1230.274	915.934
190.286	13.984	1228.965	915.070
191.300	13.695	1228.689	913.191
192.315	13.744	1227.889	912.787
193.329	13.728	1227.382	912.242
194.344	13.809	1226.703	912.100
195.359	13.915	1225.744	911.886
196.373	13.883	1225.224	911.245
197.388	13.821	1225.491	911.022
198.402	14.024	1224.507	911.322
199.417	14.033	1223.516	910.552
200.432	14.098	1222.414	910.010
201.446	14.095	1221.728	909.403
202.461	14.093	1220.875	908.676
203.475	14.126	1219.888	908.043
204.490	14.029	1219.015	906.782
205.504	14.121	1217.318	905.941
206.519	14.070	1215.933	904.550
207.534	14.048	1215.227	903.829
208.548	14.069	1214.311	903.181
209.563	14.077	1213.547	902.573
210.577	14.223	1212.010	902.142
211.592	14.112	1211.495	901.080
212.607	14.247	1210.488	900.981
213.621	14.268	1209.432	900.230
214.636	14.251	1208.661	899.482
215.650	14.200	1207.578	898.323
216.665	14.427	1206.641	898.769
217.680	14.314	1206.196	897.752
218.694	14.368	1205.339	897.322
219.709	14.430	1204.470	896.930
220.723	14.359	1203.634	895.848
221.738	14.348	1203.330	895.482
222.753	14.322	1201.914	894.207
223.767	14.338	1201.504	893.910
224.782	14.468	1200.690	893.923
225.796	14.394	1200.466	893.281
226.811	14.477	1199.526	892.946
227.826	14.489	1198.560	892.216
228.840	14.445	1197.984	891.471
229.855	14.494	1197.334	891.171
230.869	14.572	1196.202	890.666
231.884	14.432	1195.646	889.422
232.899	14.434	1194.555	888.544
233.913	14.386	1194.306	888.025
234.928	14.538	1193.234	887.960
235.942	14.459	1192.336	886.792
236.957	14.436	1191.408	885.902
237.972	14.332	1191.392	885.260
238.986	14.472	1190.411	885.192
240.001	14.451	1189.698	884.475
241.015	14.501	1188.925	884.088
242.030	14.534	1187.795	883.345
243.045	14.546	1187.033	882.762
244.059	14.587	1186.145	882.241
245.074	14.590	1185.395	881.621
246.088	14.664	1184.674	881.396
247.103	14.731	1183.664	880.918
248.117	14.714	1182.881	880.170
249.132	14.796	1182.174	879.998
250.147	14.789	1181.245	879.194
251.161	14.868	1180.551	879.011
252.176	14.742	1180.233	878.033
253.190	14.922	1179.274	878.192
254.205	14.947	1178.891	877.957
255.220	14.995	1178.245	877.652
256.234	14.881	1177.638	876.523
257.249	14.960	1177.240	876.563
258.263	15.002	1176.107	875.860
259.278	14.945	1175.568	875.085
260.293	14.931	1175.216	874.675
261.307	15.002	1174.672	874.564
262.322	15.034	1173.795	873.999
263.336	15.225	1172.897	874.250
264.351	15.140	1172.331	873.309
265.366	15.150	1171.975	873.018
266.380	15.141	1171.492	872.530
267.395	15.154	1170.438	871.738
268.409	15.156	1169.329	870.846
269.424	15.198	1168.705	870.524
270.439	15.069	1168.938	869.946
271.453	15.122	1167.513	869.083
272.468	15.151	1166.298	868.254
273.482	15.201	1165.586	867.908
274.497	15.157	1165.308	867.392
275.512	15.213	1164.681	867.143
276.526	15.211	1164.094	866.616
277.541	15.225	1162.948	865.757
278.555	15.193	1162.606	865.262
279.570	15.157	1161.935	864.500
280.585	15.342	1160.547	864.347
281.599	15.220	1160.155	863.351
282.614	15.306	1158.417	862.420
283.628	15.249	1157.429	861.319
284.643	15.394	1156.431	861.243
285.657	15.394	1155.729	860.643
286.672	15.443	1154.762	860.100
287.687	15.370	1153.971	859.057
288.701	15.394	1153.285	858.597
289.716	15.348	1152.651	857.815
290.730	15.436	1151.932	857.649
291.745	15.438	1151.397	857.184
292.760	15.495	1150.541	856.765
293.774	15.538	1149.742	856.313
294.789	15.486	1149.483	855.778
295.803	15.584	1148.649	855.581
296.818	15.576	1147.847	854.868
297.833	15.623	1146.893	854.320
298.847	15.533	1146.651	853.606
299.862	15.690	1145.339	853.352
300.876	15.506	1145.507	852.467
301.891	15.672	1144.648	852.596
302.906	15.730	1143.668	852.081
303.920	15.659	1143.031	851.176
304.935	15.724	1142.180	850.794
305.949	15.726	1141.369	850.126
306.964	15.725	1141.083	849.831
307.979	15.787	1140.157	849.380
308.993	15.783	1139.713	848.954
310.008	15.788	1138.695	848.145
311.022	15.912	1138.075	848.233
312.037	15.924	1136.746	847.230
313.052	15.926	1135.667	846.357
314.066	15.773	1135.452	845.356
315.081	15.783	1134.461	844.594
316.095	15.760	1133.756	843.878
317.110	15.819	1132.868	843.437
318.125	15.827	1132.077	842.813
319.139	15.740	1131.811	842.108
320.154	15.826	1130.983	841.846
321.168	15.883	1130.489	841.689
322.183	15.858	1129.497	840.749
323.197	15.844	1129.040	840.268
324.212	15.838	1128.253	839.574
325.227	15.909	1127.601	839.368
326.241	15.837	1127.396	838.784
327.256	15.848	1126.806	838.328
328.270	15.846	1125.712	837.429
329.285	15.846	1124.704	836.603
330.300	15.904	1123.294	835.770
331.314	15.904	1122.525	835.125
332.329	16.027	1121.128	834.618
333.343	15.910	1121.112	833.956
334.358	16.022	1120.050	833.642
335.373	15.988	1119.341	832.872
336.387	16.041	1118.170	832.190
337.402	16.134	1117.194	831.850
338.416	16.091	1116.950	831.384
339.431	16.037	1116.494	830.704
340.446	16.088	1115.600	830.215
341.460	16.260	1115.109	830.622
342.475	16.247	1114.057	829.702
343.489	16.244	1112.908	828.759
344.504	16.308	1112.010	828.329
345.519	16.110	1111.638	827.009
346.533	16.363	1110.312	827.189
347.548	16.313	1110.215	826.797
348.562	16.337	1109.106	826.018
349.577	16.268	1108.599	825.230
350.592	16.174	1107.657	823.996
351.606	16.478	1106.130	824.268
352.621	16.333	1106.116	823.480
353.635	16.288	1105.495	822.724
354.650	16.307	1104.588	822.070
355.665	16.314	1104.227	821.764
356.679	16.345	1103.526	821.316
357.694	16.414	1102.801	821.042
358.708	16.450	1102.521	820.933
359.723	16.355	1102.001	820.015
360.738	16.358	1100.969	819.188
361.752	16.415	1100.518	819.058
362.767	16.528	1099.911	819.079
363.781	16.442	1099.418	818.222
364.796	16.509	1098.837	818.042
365.810	16.613	1098.056	817.890
366.825	16.581	1097.324	817.118
367.840	16.622	1096.912	816.941
368.854	16.797	1095.982	817.017
369.869	16.709	1095.453	816.126
370.883	16.608	1094.463	814.832
371.898	16.716	1093.480	814.544
372.913	16.637	1093.223	813.904
373.927	16.739	1092.577	813.838
374.942	16.769	1092.538	813.885
375.956	16.625	1091.965	812.693
376.971	16.738	1091.023	812.463
377.986	16.811	1090.353	812.241
379.000	16.883	1089.831	812.126
380.015	16.873	1089.353	811.650
381.029	16.943	1088.532	811.300
382.044	16.827	1088.160	810.394
383.059	16.842	1087.264	809.732
384.073	16.880	1086.436	809.225
385.088	16.953	1085.566	808.852
386.102	16.854	1084.978	807.868
387.117	17.022	1083.594	807.565
388.132	16.911	1082.708	806.306
389.146	16.970	1081.967	805.962
390.161	16.869	1081.238	804.871
391.175	16.984	1080.830	805.043
392.190	16.986	1080.236	804.539
393.205	16.953	1078.826	803.262
394.219	16.993	1078.659	803.255
395.234	16.973	1077.791	802.441
396.248	17.015	1076.708	801.764
397.263	17.026	1075.278	800.681
398.278	17.105	1074.832	800.649
399.292	17.033	1074.357	799.884
400.307	17.047	1073.668	799.368
401.321	17.138	1072.826	799.096
402.336	17.033	1072.337	798.167
403.350	17.024	1071.804	797.657
404.365	17.072	1070.893	797.134
405.380	17.010	1070.389	796.401
406.394	17.221	1069.391	796.575
407.409	17.204	1068.533	795.784
408.423	17.118	1067.886	794.830
409.438	17.300	1066.922	794.894
410.453	17.266	1066.381	794.263
411.467	17.282	1065.711	793.766
412.482	17.305	1064.986	793.263
413.496	17.363	1064.730	793.276
414.511	17.325	1064.140	792.588
415.526	17.566	1063.308	793.019
416.540	17.495	1063.032	792.415
417.555	17.514	1062.015	791.674
418.569	17.487	1061.837	791.346
419.584	17.505	1061.514	791.119
420.599	17.468	1060.972	790.472
421.613	107.921	1331.264	1487.389
422.628	99.627	1370.594	1487.469
