DTS Sentinel unit serial number:	SN413079Multiplexer serial number:	ORYXHardware model number:	OX4-SRSoftware version number:	ORYX F/W v4.00 Oryx Data Collector v3.7.2.0data status	okinstallation	princeton_trtdifferential loss correction	single-endedforward channel	channel 2reverse channel	N/Adate	2019/09/18time	04:31:35forward acquisition time	60.00reverse acquisition time	0.00gamma	496.2192k internal	0.2348k external	0.2348temperature offset calibration	0.9985default loss term (dB/km)	0.3790temperature slope calibration	1.0000multiplexer offset coefficient	1.0000multiplexer slope coefficient	1.0000fibre end	0.00T internal ref (°C)	23.37T ext. ref 1 (°C)	0.19T ext. ref 2 (°C)	17.60length (m)	temperature (°C)	Stokes	anti-Stokes-747.200	154.603	0.181	-0.249
-746.185	-102.947	-0.284	0.067
-745.171	-200.000	-0.029	-0.133
-744.156	800.000	0.047	0.174
-743.142	-52.172	0.168	0.078
-742.127	800.000	-0.069	0.287
-741.112	251.083	0.256	0.435
-740.098	53.895	0.120	-0.116
-739.083	-200.000	-0.096	0.535
-738.069	472.860	-0.128	0.288
-737.054	-200.000	-0.028	0.458
-736.039	-27.484	-0.396	-0.230
-735.025	800.000	-0.016	-0.047
-734.010	-58.312	-0.438	-0.190
-732.996	-200.000	-0.007	0.034
-731.981	-128.646	-0.164	-0.023
-730.966	-38.032	0.042	-0.022
-729.952	-200.000	0.011	-0.107
-728.937	298.624	-0.126	0.232
-727.923	-200.000	-0.016	-0.258
-726.908	-42.308	0.122	0.062
-725.894	231.893	-0.174	-0.284
-724.879	-155.919	-0.068	-0.004
-723.864	-113.934	0.058	-0.011
-722.850	138.779	0.129	-0.170
-721.835	-200.000	0.013	0.113
-720.821	-166.185	0.141	-0.006
-719.806	-8.144	-0.472	0.317
-718.791	800.000	-0.105	0.327
-717.777	70.863	0.169	0.174
-716.762	-44.383	-0.173	-0.087
-715.748	-200.000	0.052	0.611
-714.733	-102.313	0.080	-0.019
-713.718	-141.286	-0.254	-0.026
-712.704	47.128	-0.180	-0.168
-711.689	53.358	-0.064	0.061
-710.675	-115.456	-0.291	0.055
-709.660	-128.508	0.129	0.018
-708.645	-200.000	0.018	0.084
-707.631	-92.069	-0.429	0.121
-706.616	365.906	0.055	0.110
-705.602	112.270	0.150	0.182
-704.587	-156.373	-0.368	0.023
-703.572	-16.372	-0.286	0.181
-702.558	-200.000	-0.050	-0.309
-701.543	198.136	0.032	0.049
-700.529	615.050	0.023	0.057
-699.514	-20.982	-0.332	0.203
-698.499	724.391	-0.062	-0.164
-697.485	-59.396	0.145	-0.062
-696.470	-157.919	0.206	0.012
-695.456	68.884	-0.276	0.283
-694.441	-72.103	0.272	-0.101
-693.426	125.089	0.200	0.251
-692.412	254.061	-0.106	-0.181
-691.397	-88.336	-0.347	0.103
-690.383	692.129	-0.083	0.218
-689.368	327.495	-0.149	-0.284
-688.354	-200.000	0.018	-0.175
-687.339	154.411	-0.374	-0.512
-686.324	800.000	0.128	-0.483
-685.310	67.948	-0.176	-0.179
-684.295	-56.532	0.189	-0.084
-683.281	-200.000	0.060	0.424
-682.266	333.084	0.147	0.284
-681.251	129.866	-0.119	0.152
-680.237	23.379	-0.240	-0.197
-679.222	800.000	0.057	-0.225
-678.208	186.008	0.094	-0.139
-677.193	-164.153	-0.340	-0.016
-676.178	191.726	-0.299	-0.450
-675.164	-120.283	0.138	-0.024
-674.149	-62.266	-0.148	0.061
-673.135	800.000	0.038	0.105
-672.120	377.890	-0.047	-0.095
-671.105	-48.077	-0.076	-0.036
-670.091	-200.000	0.013	0.204
-669.076	415.640	-0.090	-0.192
-668.062	-55.393	-0.274	-0.122
-667.047	-200.000	-0.023	-0.177
-666.032	-52.760	0.199	0.091
-665.018	-200.000	-0.002	0.149
-664.003	800.000	-0.047	0.180
-662.989	-55.230	0.396	0.178
-661.974	-200.000	0.017	-0.156
-660.959	-200.000	0.005	0.196
-659.945	182.778	0.141	-0.207
-658.930	207.502	-0.029	-0.045
-657.916	-92.699	0.165	-0.046
-656.901	-8.141	-0.095	0.064
-655.886	60.453	-0.041	0.040
-654.872	211.371	-0.133	-0.209
-653.857	-26.702	0.268	-0.156
-652.843	-15.972	0.267	0.169
-651.828	126.208	-0.267	-0.336
-650.814	-82.979	-0.142	-0.045
-649.799	-154.085	-0.377	0.025
-648.784	-200.000	-0.036	-0.321
-647.770	547.487	-0.098	-0.233
-646.755	24.843	0.058	0.048
-645.741	337.663	-0.088	-0.171
-644.726	-200.000	-0.028	-0.174
-643.711	-146.407	0.295	0.026
-642.697	-113.322	-0.034	-0.007
-641.682	-200.000	-0.034	-0.346
-640.668	-31.732	-0.159	-0.089
-639.653	-200.000	-0.015	-0.106
-638.638	339.190	0.103	-0.200
-637.624	-200.000	-0.010	-0.269
-636.609	615.392	-0.113	0.281
-635.595	-147.530	-0.042	0.004
-634.580	-62.664	0.227	-0.094
-633.565	-119.487	0.382	0.066
-632.551	-117.835	-0.297	-0.053
-631.536	99.219	-0.247	0.285
-630.522	220.773	0.148	0.236
-629.507	-78.081	-0.199	-0.068
-628.492	-90.074	-0.110	0.032
-627.478	-65.099	-0.015	0.006
-626.463	-18.926	-0.332	-0.205
-625.449	-200.000	-0.018	0.137
-624.434	189.339	-0.046	-0.069
-623.419	-68.818	0.312	0.120
-622.405	326.030	-0.140	0.266
-621.390	-135.413	0.065	0.008
-620.376	161.028	0.088	-0.122
-619.361	-194.066	0.322	0.003
-618.346	-200.000	0.008	-0.388
-617.332	298.325	0.103	-0.189
-616.317	183.221	-0.160	0.235
-615.303	800.000	-0.033	0.141
-614.288	-200.000	-0.042	-0.248
-613.273	218.712	0.244	-0.387
-612.259	-64.175	0.066	-0.027
-611.244	-109.458	-0.243	0.051
-610.230	10.265	0.186	-0.141
-609.215	-200.000	0.069	-0.323
-608.201	-200.000	-0.018	0.171
-607.186	-52.823	-0.315	0.144
-606.171	-67.996	0.073	-0.028
-605.157	-41.191	-0.203	0.104
-604.142	148.375	0.083	0.111
-603.128	108.532	0.100	0.118
-602.113	-153.341	0.108	-0.008
-601.098	-2.186	-0.248	0.173
-600.084	-101.380	0.195	-0.047
-599.069	-67.791	0.100	-0.039
-598.055	22.806	0.091	0.074
-597.040	24.466	-0.154	-0.127
-596.025	-200.000	0.003	0.218
-595.011	70.867	0.208	0.214
-593.996	-200.000	0.022	0.343
-592.982	-10.392	-0.208	0.137
-591.967	-200.000	-0.039	-0.303
-590.952	-133.089	0.266	0.034
-589.938	160.875	-0.163	0.226
-588.923	-200.000	0.003	-0.116
-587.909	-107.569	-0.121	-0.026
-586.894	800.000	0.063	-0.192
-585.879	153.872	-0.036	-0.049
-584.865	81.735	-0.266	0.285
-583.850	-200.000	0.003	0.061
-582.836	-81.213	-0.168	0.055
-581.821	-200.000	0.000	0.233
-580.806	-149.516	-0.485	-0.038
-579.792	-192.250	-0.227	0.002
-578.777	-8.279	0.158	-0.106
-577.763	-200.000	-0.003	0.062
-576.748	36.062	-0.268	0.235
-575.733	41.382	0.254	0.228
-574.719	-48.518	-0.339	0.162
-573.704	-10.360	-0.324	-0.214
-572.690	-0.012	0.108	0.076
-571.675	800.000	-0.041	0.147
-570.661	-127.284	0.078	0.011
-569.646	-61.828	-0.078	0.033
-568.631	-200.000	-0.012	-0.191
-567.617	-70.890	-0.191	-0.071
-566.602	-200.000	0.187	-0.001
-565.588	636.861	0.155	0.391
-564.573	-200.000	-0.044	-0.331
-563.558	-94.175	-0.284	-0.077
-562.544	8.240	0.168	0.125
-561.529	-32.984	-0.267	0.147
-560.515	-200.000	-0.047	-0.214
-559.500	-200.000	0.041	-0.318
-558.485	-54.485	-0.112	0.050
-557.471	-110.548	0.195	0.040
-556.456	77.646	0.073	-0.077
-555.442	-172.005	0.020	0.001
-554.427	-200.000	-0.020	-0.175
-553.412	400.993	-0.095	0.198
-552.398	800.000	0.046	0.137
-551.383	279.453	0.088	-0.156
-550.369	124.148	0.345	0.430
-549.354	-107.600	0.249	0.054
-548.339	256.314	-0.177	0.301
-547.325	-200.000	0.011	-0.083
-546.310	-108.124	0.071	-0.015
-545.296	332.222	-0.023	-0.045
-544.281	-200.000	0.013	-0.370
-543.266	63.771	-0.138	0.137
-542.252	-200.000	0.000	0.131
-541.237	-73.169	0.137	0.050
-540.223	297.134	0.025	0.045
-539.208	-139.945	-0.468	-0.049
-538.193	-84.566	-0.350	0.109
-537.179	25.258	0.222	0.182
-536.164	85.418	0.090	-0.098
-535.150	-98.359	-0.188	-0.048
-534.135	3.872	0.285	0.207
-533.121	134.952	0.054	0.070
-532.106	137.447	-0.225	-0.292
-531.091	-68.467	-0.483	-0.186
-530.077	-133.560	0.251	-0.031
-529.062	-200.000	0.029	0.345
-528.048	-60.034	0.201	-0.085
-527.033	289.409	0.089	0.160
-526.018	-3.715	0.173	-0.119
-525.004	-86.482	0.295	0.090
-523.989	-149.221	-0.341	-0.027
-522.975	58.957	0.234	0.228
-521.960	-200.000	0.011	0.233
-520.945	-200.000	0.002	0.020
-519.931	38.225	-0.109	0.096
-518.916	-200.000	-0.053	-0.231
-517.902	-123.726	0.253	0.040
-516.887	800.000	-0.054	-0.207
-515.872	-156.093	0.080	0.005
-514.858	77.715	-0.298	0.314
-513.843	-53.491	0.235	-0.106
-512.829	-19.773	0.051	0.032
-511.814	69.784	-0.164	0.168
-510.799	42.989	0.178	0.161
-509.785	-72.534	-0.345	0.126
-508.770	-51.743	0.368	-0.170
-507.756	-0.279	-0.239	-0.168
-506.741	30.874	-0.111	-0.094
-505.726	14.127	-0.057	-0.044
-504.712	57.579	0.084	-0.081
-503.697	322.373	0.055	0.104
-502.683	74.657	0.324	0.337
-501.668	282.198	-0.207	-0.368
-500.653	4.366	-0.239	0.173
-499.639	-111.980	-0.315	-0.063
-498.624	-200.000	0.013	0.261
-497.610	-23.572	-0.184	-0.109
-496.595	-10.843	-0.079	-0.052
-495.581	-87.016	0.164	-0.050
-494.566	51.571	-0.079	-0.074
-493.551	-22.462	-0.273	-0.163
-492.537	-200.000	0.013	-0.093
-491.522	-105.818	0.177	-0.039
-490.508	-14.940	-0.092	0.058
-489.493	-200.000	0.039	0.190
-488.478	-200.000	0.003	0.062
-487.464	-62.238	-0.286	-0.118
-486.449	70.990	-0.068	-0.070
-485.435	38.879	0.281	-0.248
-484.420	232.761	-0.037	0.060
-483.405	80.725	-0.190	0.203
-482.391	-200.000	-0.042	-0.222
-481.376	95.916	-0.278	0.314
-480.362	800.000	-0.076	0.282
-479.347	800.000	0.110	0.428
-478.332	800.000	-0.019	-0.068
-477.318	-69.848	0.253	-0.095
-476.303	413.329	0.089	-0.187
-475.289	-126.734	-0.150	-0.022
-474.274	-15.586	-0.146	-0.092
-473.259	-83.340	0.242	0.077
-472.245	-35.794	0.082	-0.044
-471.230	-200.000	-0.014	-0.166
-470.216	800.000	0.124	0.384
-469.201	-41.433	-0.231	-0.117
-468.186	800.000	0.054	-0.164
-467.172	800.000	-0.113	0.373
-466.157	-95.752	-0.311	0.082
-465.143	-64.852	-0.245	-0.098
-464.128	46.248	0.345	-0.316
-463.113	18.124	0.379	0.299
-462.099	800.000	0.043	0.182
-461.084	800.000	-0.016	-0.058
-460.070	-178.136	0.333	0.008
-459.055	-13.598	-0.375	0.240
-458.040	-108.776	-0.298	-0.063
-457.026	17.019	-0.138	-0.108
-456.011	22.796	0.292	-0.236
-454.997	-106.993	-0.283	0.062
-453.982	85.644	-0.067	-0.072
-452.968	-200.000	0.031	0.238
-451.953	-109.649	-0.270	0.056
-450.938	54.473	-0.288	-0.274
-449.924	101.887	0.022	0.025
-448.909	1.693	-0.178	0.127
-447.895	-200.000	-0.057	0.323
-446.880	-52.181	0.214	-0.098
-445.865	194.491	-0.175	0.263
-444.851	49.360	0.140	-0.130
-443.836	-6.613	0.117	-0.079
-442.822	-116.669	0.242	-0.044
-441.807	-28.643	-0.364	0.207
-440.792	22.406	0.080	0.065
-439.778	127.507	-0.088	0.110
-438.763	-42.293	0.332	-0.167
-437.749	174.908	0.162	-0.231
-436.734	-200.000	-0.021	0.144
-435.719	62.565	0.040	0.039
-434.705	-48.298	-0.294	0.140
-433.690	336.885	0.098	-0.188
-432.676	0.480	-0.321	0.227
-431.661	-200.000	0.033	0.156
-430.646	-126.215	-0.332	-0.049
-429.632	224.775	-0.203	0.323
-428.617	-200.000	-0.078	-0.358
-427.603	-200.000	0.029	0.475
-426.588	-60.290	-0.346	-0.146
-425.573	96.500	-0.098	-0.111
-424.559	800.000	0.115	0.404
-423.544	800.000	0.043	-0.135
-422.530	288.228	-0.088	0.157
-421.515	473.378	0.065	-0.145
-420.500	-193.722	-0.174	0.001
-419.486	-71.401	-0.106	-0.039
-418.471	800.000	0.037	-0.132
-417.457	478.395	-0.061	0.137
-416.442	191.188	0.036	0.053
-415.428	-126.519	0.348	0.051
-414.413	-66.113	0.210	-0.083
-413.398	69.029	-0.069	0.070
-412.384	224.019	-0.114	-0.182
-411.369	-200.000	-0.007	-0.033
-410.355	-65.087	-0.141	-0.056
-409.340	800.000	-0.086	-0.311
-408.325	800.000	0.058	-0.187
-407.311	-123.481	0.108	0.017
-406.296	-200.000	-0.021	-0.173
-405.282	-120.745	0.311	-0.052
-404.267	215.720	0.067	0.105
-403.252	162.967	0.017	-0.024
-402.238	471.526	-0.205	-0.454
-401.223	-105.519	-0.136	-0.030
-400.209	-182.601	0.246	0.004
-399.194	-200.000	0.017	0.116
-398.179	-117.395	0.224	-0.040
-397.165	-26.429	0.157	0.091
-396.150	-200.000	-0.030	-0.177
-395.136	10.223	-0.217	0.163
-394.121	209.884	0.131	0.203
-393.106	-200.000	-0.011	0.210
-392.092	493.402	0.202	-0.458
-391.077	-200.000	-0.044	0.219
-390.063	39.358	0.075	-0.066
-389.048	800.000	-0.142	-0.473
-388.033	-200.000	0.049	0.240
-387.019	-4.193	-0.142	0.097
-386.004	103.839	0.266	-0.308
-384.990	192.851	0.066	0.098
-383.975	-200.000	0.057	0.255
-382.960	-200.000	0.013	0.133
-381.946	328.190	-0.081	-0.153
-380.931	-200.000	-0.016	-0.133
-379.917	-81.714	-0.254	-0.082
-378.902	-200.000	-0.034	-0.218
-377.888	-124.074	-0.398	-0.062
-376.873	-43.854	0.118	-0.058
-375.858	79.119	-0.267	0.281
-374.844	-200.000	0.038	-0.360
-373.829	800.000	0.048	0.150
-372.815	424.114	-0.062	-0.132
-371.800	349.983	-0.108	-0.210
-370.785	130.080	0.005	-0.007
-369.771	16.764	0.177	0.138
-368.756	580.334	0.065	0.157
-367.742	-41.060	0.149	0.076
-366.727	92.381	-0.033	-0.037
-365.712	-200.000	0.015	0.134
-364.698	61.489	-0.111	-0.108
-363.683	800.000	-0.029	-0.102
-362.669	-4.501	0.254	-0.173
-361.654	800.000	0.075	-0.300
-360.639	84.072	-0.056	-0.060
-359.625	-180.977	0.196	-0.004
-358.610	34.476	-0.086	0.074
-357.596	-200.000	-0.014	0.197
-356.581	26.020	0.195	0.160
-355.566	800.000	0.076	0.255
-354.552	95.467	0.158	0.178
-353.537	-35.679	0.208	-0.111
-352.523	33.615	0.192	-0.164
-351.508	-97.342	-0.379	-0.097
-350.493	108.660	0.201	-0.236
-349.479	-200.000	0.013	0.175
-348.464	-200.000	0.000	-0.111
-347.450	89.787	-0.017	-0.019
-346.435	-3.152	-0.279	-0.191
-345.420	-17.603	0.171	0.106
-344.406	-200.000	-0.016	0.199
-343.391	-146.763	-0.465	-0.039
-342.377	800.000	-0.049	-0.140
-341.362	98.550	-0.111	0.125
-340.348	-130.176	-0.473	0.063
-339.333	64.114	-0.228	0.225
-338.318	-60.404	-0.211	0.088
-337.304	-200.000	-0.016	-0.084
-336.289	-71.101	0.131	0.048
-335.275	-146.403	-0.048	0.004
-334.260	-196.358	-0.234	-0.002
-333.245	348.409	0.089	-0.173
-332.231	-56.781	0.277	0.120
-331.216	-3.704	0.078	-0.053
-330.202	800.000	-0.062	0.195
-329.187	594.875	0.081	0.197
-328.172	269.000	-0.082	0.142
-327.158	424.018	0.157	0.333
-326.143	800.000	-0.047	-0.140
-325.129	-7.545	-0.055	-0.037
-324.114	1.481	0.186	-0.131
-323.099	-118.724	-0.068	0.012
-322.085	-120.016	0.095	0.016
-321.070	-115.259	-0.340	0.063
-320.056	-200.000	0.006	-0.533
-319.041	574.264	0.092	-0.220
-318.026	22.323	0.060	0.048
-317.012	-142.508	0.446	-0.043
-315.997	-200.000	-0.007	0.094
-314.983	-19.188	-0.139	-0.085
-313.968	24.493	0.202	-0.164
-312.953	-200.000	0.019	0.280
-311.939	-200.000	-0.065	-0.321
-310.924	800.000	-0.034	-0.113
-309.910	651.415	0.066	0.165
-308.895	-71.263	0.142	0.052
-307.880	160.719	-0.142	0.195
-306.866	25.945	-0.328	0.269
-305.851	-162.379	-0.272	-0.013
-304.837	-62.716	-0.317	0.129
-303.822	-16.969	0.146	0.091
-302.807	-200.000	0.006	-0.266
-301.793	-73.587	0.228	-0.082
-300.778	-58.987	0.080	-0.034
-299.764	270.761	-0.122	-0.211
-298.749	221.699	0.020	-0.032
-297.735	107.316	0.067	-0.078
-296.720	-52.643	0.151	-0.068
-295.705	800.000	-0.122	0.388
-294.691	289.164	0.102	-0.181
-293.676	-30.062	-0.140	0.078
-292.662	189.148	-0.206	0.303
-291.647	-98.439	-0.039	-0.010
-290.632	96.244	0.135	-0.152
-289.618	-200.000	-0.049	0.363
-288.603	-200.000	-0.071	0.322
-287.589	-13.664	0.252	-0.160
-286.574	-79.884	0.235	0.077
-285.559	-96.817	-0.139	0.036
-284.545	370.757	0.116	0.230
-283.530	55.491	-0.177	0.168
-282.516	50.845	0.170	0.158
-281.501	351.429	0.261	-0.506
-280.486	-6.890	0.148	0.099
-279.472	-79.881	0.227	0.075
-278.457	-138.281	0.291	-0.032
-277.443	-74.196	-0.037	0.013
-276.428	-58.300	0.188	-0.080
-275.413	-67.649	0.276	-0.106
-274.399	800.000	0.022	0.080
-273.384	142.897	0.103	0.134
-272.370	-114.017	0.049	-0.009
-271.355	589.075	0.046	-0.112
-270.340	-47.859	0.240	0.114
-269.326	452.883	-0.068	0.146
-268.311	88.982	-0.099	-0.108
-267.297	-140.442	0.191	-0.020
-266.282	800.000	0.141	0.450
-265.267	19.572	0.229	-0.180
-264.253	200.457	-0.058	0.087
-263.238	-63.216	-0.132	-0.053
-262.224	671.207	-0.040	0.103
-261.209	-145.702	-0.335	0.029
-260.195	-200.000	-0.018	0.147
-259.180	126.548	0.070	0.087
-258.165	-185.344	0.214	0.003
-257.151	55.427	-0.170	0.161
-256.136	-73.257	0.378	0.136
-255.122	-131.742	0.287	-0.037
-254.107	-39.339	-0.343	-0.177
-253.092	-56.417	-0.202	-0.088
-252.078	67.701	0.311	0.311
-251.063	236.557	-0.135	-0.218
-250.049	-60.658	-0.394	-0.164
-249.034	-200.000	0.039	0.263
-248.019	95.212	-0.118	-0.131
-247.005	-15.901	-0.261	-0.163
-245.990	9.407	0.342	-0.253
-244.976	-200.000	0.018	-0.085
-243.961	673.017	0.093	-0.236
-242.946	-131.972	0.329	-0.042
-241.932	-69.481	0.179	-0.067
-240.917	517.315	-0.027	-0.061
-239.903	144.793	-0.136	0.178
-238.888	670.493	-0.026	-0.066
-237.873	254.079	0.209	0.351
-236.859	-40.452	-0.266	0.135
-235.844	-91.555	-0.306	0.086
-234.830	-54.631	-0.127	0.056
-233.815	-54.189	0.263	-0.117
-232.800	800.000	-0.067	0.195
-231.786	179.997	-0.117	-0.168
-230.771	148.051	-0.095	-0.126
-229.757	35.807	0.306	0.264
-228.742	800.000	-0.028	0.106
-227.727	800.000	-0.046	0.150
-226.713	-46.177	0.383	-0.185
-225.698	800.000	0.033	-0.137
-224.684	345.905	-0.076	-0.146
-223.669	800.000	-0.154	-0.475
-222.655	57.410	-0.137	-0.131
-221.640	-200.000	-0.021	0.144
-220.625	14.677	0.102	-0.078
-219.611	-200.000	-0.033	-0.260
-218.596	-20.361	-0.059	-0.036
-217.582	-200.000	-0.019	-0.254
-216.567	3.667	-0.095	-0.068
-215.552	-133.605	0.050	-0.006
-214.538	-106.626	0.316	0.069
-213.523	-95.257	0.324	-0.085
-212.509	-200.000	0.006	0.124
-211.494	-5.985	-0.204	0.136
-210.479	-18.985	-0.037	0.023
-209.465	27.605	-0.085	-0.070
-208.450	-84.763	0.080	-0.025
-207.436	-38.880	0.205	-0.106
-206.421	123.153	0.077	-0.095
-205.406	162.368	0.081	0.111
-204.392	-200.000	-0.023	-0.274
-203.377	-37.899	0.380	-0.198
-202.363	-200.000	0.014	-0.077
-201.348	178.250	-0.039	0.055
-200.333	-44.172	0.220	0.108
-199.319	240.179	0.044	-0.071
-198.304	-113.714	0.221	-0.042
-197.290	-200.000	0.002	0.281
-196.275	-45.329	0.041	0.020
-195.260	-200.000	0.019	-0.273
-194.246	-164.488	-0.391	0.017
-193.231	158.101	0.173	0.234
-192.217	292.253	-0.104	0.185
-191.202	-29.156	0.207	-0.116
-190.187	672.587	-0.067	-0.170
-189.173	118.387	-0.027	0.033
-188.158	800.000	-0.098	0.411
-187.144	234.873	-0.087	-0.140
-186.129	-49.484	0.218	0.102
-185.114	-143.781	0.341	0.032
-184.100	-87.669	0.362	-0.107
-183.085	-7.182	0.124	-0.082
-182.071	800.000	-0.095	0.255
-181.056	-191.960	-0.284	-0.003
-180.042	-200.000	0.012	0.112
-179.027	24.695	0.222	0.180
-178.012	-145.922	0.119	-0.010
-176.998	28.978	-0.170	0.141
-175.983	331.403	0.223	-0.420
-174.969	-33.975	0.067	-0.036
-173.954	-154.877	0.095	0.006
-172.939	33.663	0.210	0.178
-171.925	40.471	0.284	-0.249
-170.910	325.473	-0.046	-0.085
-169.896	36.922	0.068	-0.059
-168.881	233.037	-0.148	-0.238
-167.866	118.381	-0.169	-0.203
-166.852	94.651	0.034	0.038
-165.837	-200.000	-0.035	0.319
-164.823	-53.420	0.227	0.101
-163.808	-57.395	-0.270	0.116
-162.793	52.673	0.198	-0.185
-161.779	800.000	0.111	-0.300
-160.764	-119.848	0.144	0.024
-159.750	70.426	0.271	-0.274
-158.735	60.549	-0.161	-0.156
-157.720	-200.000	0.021	-0.208
-156.706	-200.000	-0.025	-0.189
-155.691	16.687	0.159	-0.122
-154.677	30.113	-0.063	0.052
-153.662	-133.550	-0.232	-0.028
-152.647	136.433	-0.143	-0.183
-151.633	-200.000	0.021	0.144
-150.618	-99.896	0.245	-0.060
-149.604	766.097	-0.037	-0.097
-148.589	572.570	-0.139	-0.331
-147.574	175.751	0.154	0.218
-146.560	368.187	0.085	-0.168
-145.545	-137.840	0.363	-0.040
-144.531	61.533	-0.136	-0.132
-143.516	800.000	0.089	0.254
-142.502	-63.762	-0.294	-0.117
-141.487	-0.662	0.275	-0.190
-140.472	-200.000	0.006	0.130
-139.458	800.000	0.032	0.107
-138.443	106.783	-0.151	0.175
-137.429	-200.000	0.039	0.269
-136.414	-197.493	-0.347	-0.002
-135.399	49.148	0.230	0.211
-134.385	53.531	0.068	0.064
-133.370	-200.000	-0.070	0.430
-132.356	-200.000	-0.045	-0.202
-131.341	7.137	0.175	0.127
-130.326	-200.000	-0.025	0.145
-129.312	-200.000	-0.016	-0.395
-128.297	-99.930	-0.303	-0.074
-127.283	285.572	0.130	0.229
-126.268	288.617	0.179	-0.315
-125.253	57.170	0.209	-0.199
-124.239	24.747	0.231	0.186
-123.224	113.744	0.194	-0.229
-122.210	57.985	-0.265	-0.253
-121.195	247.551	-0.267	-0.440
-120.180	69.989	-0.107	-0.108
-119.166	-82.876	-0.084	-0.026
-118.151	308.758	0.070	-0.128
-117.137	-11.318	-0.204	-0.131
-116.122	-164.598	-0.171	0.008
-115.107	10.489	0.053	0.039
-114.093	-108.768	0.307	-0.064
-113.078	1.581	-0.116	0.081
-112.064	-123.932	-0.081	0.012
-111.049	-200.000	0.004	0.066
-110.034	21.637	0.127	0.101
-109.020	-9.994	0.099	-0.064
-108.005	800.000	0.013	-0.051
-106.991	-84.799	0.224	0.069
-105.976	-200.000	0.009	0.397
-104.962	-133.736	0.234	0.028
-103.947	-200.000	0.017	0.422
-102.932	-10.027	-0.132	-0.085
-101.918	-36.414	-0.121	-0.064
-100.903	135.779	-0.073	-0.093
-99.889	59.794	0.148	-0.143
-98.874	-200.000	0.031	0.169
-97.859	628.632	-0.119	-0.293
-96.845	-65.750	-0.227	-0.089
-95.830	-39.081	-0.274	0.140
-94.816	-200.000	-0.032	-0.286
-93.801	-101.981	0.193	-0.045
-92.786	297.924	0.063	0.112
-91.772	147.196	-0.032	0.041
-90.757	-5.668	0.141	-0.094
-89.743	695.451	-0.135	-0.346
-88.728	800.000	-0.040	-0.116
-87.713	206.661	-0.076	0.115
-86.699	148.548	-0.074	-0.097
-85.684	-200.000	0.028	-0.155
-84.670	-36.743	-0.235	-0.123
-83.655	-89.138	0.123	-0.035
-82.640	800.000	0.098	-0.361
-81.626	-200.000	0.003	-0.270
-80.611	-98.846	0.314	-0.078
-79.597	-38.894	-0.200	0.102
-78.582	653.285	0.089	-0.223
-77.567	-200.000	-0.428	0.000
-76.553	-184.208	0.236	-0.004
-75.538	-161.654	-0.050	0.002
-74.524	39.999	0.199	-0.174
-73.509	800.000	-0.119	0.397
-72.494	-200.000	-0.040	0.000
-71.480	182.895	-0.077	-0.111
-70.465	116.607	-0.108	0.129
-69.451	800.000	0.075	-0.211
-68.436	75.108	-0.129	0.132
-67.422	62.886	0.259	0.252
-66.407	-200.000	0.049	-0.258
-65.392	-17.303	0.205	-0.126
-64.378	180.145	0.042	-0.060
-63.363	-47.162	0.219	0.104
-62.349	403.554	0.170	-0.347
-61.334	52.098	-0.997	-0.924
-60.319	18.239	0.830	0.644
-59.305	176.451	-0.890	-1.258
-58.290	438.016	0.784	1.664
-57.276	331.114	0.735	1.379
-56.261	-200.000	123.593	643.226
-55.246	417.683	1561.045	3244.155
-54.232	143.192	2730.630	3533.992
-53.217	90.259	2305.895	2508.597
-52.203	32.549	1914.421	1609.399
-51.188	26.418	1710.239	1390.709
-50.173	24.207	1672.221	1343.095
-49.159	45.369	1740.358	1561.657
-48.144	43.358	1752.084	1556.635
-47.130	25.981	1703.668	1381.802
-46.115	23.446	1688.708	1350.333
-45.100	23.305	1683.406	1344.965
-44.086	23.241	1680.881	1342.413
-43.071	23.205	1679.024	1340.604
-42.057	23.220	1676.292	1338.482
-41.042	23.326	1673.568	1337.052
-40.027	23.320	1671.694	1335.455
-39.013	23.248	1670.371	1333.802
-37.998	23.252	1669.029	1332.708
-36.984	23.251	1667.472	1331.404
-35.969	23.426	1666.124	1331.591
-34.954	23.475	1664.095	1330.286
-33.940	23.395	1663.073	1328.819
-32.925	23.336	1661.136	1326.777
-31.911	23.358	1659.569	1325.635
-30.896	23.338	1658.073	1324.240
-29.881	23.352	1656.416	1322.965
-28.867	23.415	1654.187	1321.604
-27.852	23.356	1652.968	1320.140
-26.838	23.365	1651.705	1319.140
-25.823	23.417	1650.296	1318.349
-24.809	23.398	1648.792	1316.959
-23.794	23.364	1647.887	1315.927
-22.779	23.472	1645.873	1315.072
-21.765	23.480	1644.140	1313.692
-20.750	23.344	1642.796	1311.557
-19.736	23.421	1641.115	1310.736
-18.721	23.359	1640.231	1309.516
-17.706	23.387	1638.862	1308.578
-16.692	23.332	1637.315	1306.884
-15.677	23.390	1635.599	1305.896
-14.663	23.421	1634.080	1304.853
-13.648	23.428	1633.288	1304.223
-12.633	23.437	1631.744	1303.009
-11.619	23.359	1630.284	1301.215
-10.604	23.387	1628.553	1299.984
-9.590	23.434	1627.223	1299.221
-8.575	23.395	1626.112	1297.994
-7.560	23.383	1624.832	1296.831
-6.546	23.362	1623.946	1295.923
-5.531	23.452	1622.729	1295.557
-4.517	23.370	1621.732	1294.110
-3.502	23.431	1620.340	1293.394
-2.487	23.448	1618.701	1292.154
-1.473	23.102	1606.248	1279.659
-0.458	20.313	1586.326	1243.782
0.556	15.314	1589.287	1213.742
1.571	13.236	1613.210	1216.626
2.586	13.108	1625.195	1224.609
3.600	12.099	1570.473	1176.033
4.615	6.675	1463.369	1059.405
5.629	1.247	1404.453	981.613
6.644	0.242	1397.322	970.076
7.659	0.152	1396.512	968.845
8.673	0.133	1395.310	967.805
9.688	0.213	1392.826	966.508
10.702	0.045	1389.598	963.109
11.717	2.666	1393.437	982.494
12.731	9.613	1403.900	1034.518
13.746	15.099	1412.340	1075.984
14.761	16.748	1413.202	1087.140
15.775	16.156	1411.788	1082.163
16.790	15.378	1409.071	1075.000
17.804	14.480	1406.999	1067.578
18.819	14.078	1405.632	1063.873
19.834	13.787	1404.527	1061.082
20.848	13.602	1403.066	1058.700
21.863	13.328	1402.130	1056.153
22.877	13.224	1400.363	1054.062
23.892	13.126	1399.594	1052.765
24.907	13.125	1398.781	1052.058
25.921	13.228	1397.640	1051.763
26.936	13.138	1396.926	1050.557
27.950	13.304	1396.271	1051.026
28.965	13.276	1394.852	1049.692
29.980	13.294	1393.956	1049.036
30.994	13.406	1393.140	1049.037
32.009	13.364	1392.139	1047.929
33.023	13.397	1391.087	1047.249
34.038	13.442	1389.711	1046.408
35.053	13.395	1388.324	1044.972
36.067	13.333	1387.645	1043.981
37.082	13.286	1386.531	1042.754
38.096	13.380	1385.282	1042.311
39.111	13.316	1384.857	1041.497
40.126	13.319	1383.371	1040.306
41.140	13.202	1382.312	1038.685
42.155	13.150	1382.404	1038.332
43.169	13.177	1382.249	1038.294
44.184	13.239	1381.644	1038.137
45.199	13.273	1381.461	1038.123
46.213	13.198	1380.766	1037.039
47.228	13.333	1379.558	1036.886
48.242	13.329	1378.266	1035.796
49.257	13.190	1377.206	1034.036
50.271	13.253	1375.389	1032.979
51.286	13.292	1374.124	1032.177
52.301	13.268	1372.837	1030.971
53.315	13.282	1371.574	1030.017
54.330	13.210	1370.952	1029.010
55.344	13.234	1369.760	1028.175
56.359	13.269	1368.211	1027.140
57.374	13.232	1367.378	1026.196
58.388	12.998	1367.246	1024.552
59.403	13.073	1366.495	1024.365
60.417	13.077	1365.568	1023.603
61.432	13.058	1364.579	1022.652
62.447	13.153	1363.343	1022.221
63.461	13.201	1361.860	1021.315
64.476	13.071	1361.133	1019.880
65.490	13.094	1360.025	1019.103
66.505	13.047	1358.303	1017.431
67.520	13.089	1356.961	1016.592
68.534	13.101	1355.991	1015.847
69.549	13.181	1355.104	1015.590
70.563	13.222	1353.483	1014.536
71.578	13.128	1352.485	1013.120
72.593	13.067	1351.441	1011.874
73.607	13.178	1350.416	1011.699
74.622	12.957	1350.577	1010.373
75.636	12.996	1349.360	1009.612
76.651	13.118	1348.267	1009.453
77.666	12.946	1347.878	1008.019
78.680	13.093	1347.516	1008.558
79.695	13.063	1346.443	1007.486
80.709	13.136	1345.635	1007.236
81.724	13.112	1345.039	1006.552
82.739	13.201	1343.780	1006.064
83.753	13.268	1342.595	1005.499
84.768	13.277	1341.391	1004.562
85.782	13.355	1340.497	1004.274
86.797	13.296	1339.288	1002.921
87.812	13.288	1337.729	1001.615
88.826	13.272	1336.794	1000.730
89.841	13.332	1335.321	999.904
90.855	13.348	1334.595	999.367
91.870	13.306	1333.740	998.384
92.884	13.298	1332.832	997.567
93.899	13.316	1332.384	997.257
94.914	13.303	1331.485	996.415
95.928	13.432	1330.347	996.255
96.943	13.326	1329.714	995.055
97.957	13.369	1328.779	994.523
98.972	13.316	1327.716	993.324
99.987	13.391	1326.236	992.574
101.001	13.288	1325.630	991.419
102.016	13.252	1324.894	990.565
103.030	13.306	1324.063	990.181
104.045	13.352	1322.434	989.149
105.060	13.328	1321.492	988.214
106.074	13.196	1320.487	986.586
107.089	13.191	1318.872	985.258
108.103	13.228	1317.220	984.162
109.118	13.128	1316.209	982.719
110.133	13.114	1314.694	981.421
111.147	13.214	1313.057	980.709
112.162	13.254	1311.938	980.018
113.176	13.272	1311.204	979.490
114.191	13.275	1310.223	978.688
115.206	13.387	1308.584	978.042
116.220	13.222	1307.866	976.443
117.235	13.282	1306.422	975.631
118.249	13.165	1305.951	974.507
119.264	13.209	1304.451	973.559
120.279	13.266	1303.578	973.155
121.293	13.238	1302.368	972.004
122.308	13.262	1301.310	971.267
123.322	13.173	1300.095	969.753
124.337	13.286	1299.233	969.686
125.352	13.281	1298.276	968.858
126.366	13.187	1296.858	967.165
127.381	13.117	1295.987	966.018
128.395	13.174	1294.339	965.040
129.410	13.139	1293.858	964.392
130.424	13.248	1293.016	964.312
131.439	13.328	1291.794	963.782
132.454	13.255	1291.167	962.803
133.468	13.342	1289.794	962.202
134.483	13.276	1289.481	961.500
135.497	13.244	1287.981	960.107
136.512	13.110	1286.829	958.390
137.527	13.229	1285.311	957.863
138.541	13.222	1283.755	956.575
139.556	13.304	1282.364	955.930
140.570	13.262	1281.517	954.971
141.585	13.362	1280.060	954.379
142.600	13.290	1278.947	953.047
143.614	13.427	1278.319	953.286
144.629	13.424	1277.159	952.318
145.643	13.408	1275.748	951.092
146.658	13.383	1274.645	950.043
147.673	13.388	1273.315	948.994
148.687	13.339	1272.195	947.798
149.702	13.287	1270.905	946.452
150.716	13.342	1269.419	945.578
151.731	13.287	1268.331	944.369
152.746	13.354	1267.224	943.841
153.760	13.326	1265.851	942.578
154.775	13.424	1264.646	942.155
155.789	13.422	1263.585	941.267
156.804	13.461	1262.703	940.749
157.819	13.551	1261.543	940.314
158.833	13.476	1260.738	939.204
159.848	13.510	1259.755	938.585
160.862	13.478	1258.950	937.720
161.877	13.456	1257.698	936.578
162.892	13.572	1256.527	936.281
163.906	13.448	1255.855	934.997
164.921	13.654	1254.568	935.115
165.935	13.534	1253.895	933.855
166.950	13.495	1253.477	933.243
167.964	13.551	1252.259	932.569
168.979	13.636	1251.872	932.676
169.994	13.567	1250.821	931.420
171.008	13.620	1250.196	931.174
172.023	13.652	1249.438	930.704
173.037	13.738	1248.007	930.039
174.052	13.608	1247.945	929.179
175.067	13.614	1246.139	927.789
176.081	13.666	1245.165	927.273
177.096	13.659	1244.465	926.631
178.110	13.612	1242.926	925.137
179.125	13.754	1241.815	925.020
180.140	13.666	1240.630	923.569
181.154	13.666	1239.783	922.858
182.169	13.730	1238.216	921.960
183.183	13.816	1237.162	921.574
184.198	13.830	1235.931	920.656
185.213	13.869	1234.515	919.732
186.227	13.798	1233.776	918.705
187.242	13.841	1232.643	918.020
188.256	13.830	1231.860	917.295
189.271	13.881	1230.909	916.788
190.286	13.772	1229.957	915.398
191.300	13.583	1229.768	914.131
192.315	13.762	1228.402	914.022
193.329	13.741	1227.947	913.488
194.344	13.672	1227.271	912.521
195.359	13.765	1226.807	912.610
196.373	13.893	1226.021	912.647
197.388	13.984	1225.611	912.760
198.402	13.990	1225.104	912.338
199.417	14.028	1224.082	911.702
200.432	14.028	1223.722	911.352
201.446	14.074	1222.714	910.775
202.461	14.093	1221.679	910.026
203.475	14.198	1220.275	909.477
204.490	14.149	1219.285	908.388
205.504	14.065	1218.074	906.950
206.519	14.101	1216.858	906.158
207.534	14.030	1216.030	905.073
208.548	14.029	1215.257	904.414
209.563	14.019	1214.196	903.488
210.577	14.065	1213.441	903.097
211.592	14.231	1212.203	902.996
212.607	14.245	1211.209	902.256
213.621	14.148	1210.398	901.045
214.636	14.178	1209.497	900.456
215.650	14.196	1208.803	899.955
216.665	14.311	1207.822	899.771
217.680	14.250	1206.876	898.653
218.694	14.265	1206.433	898.328
219.709	14.252	1205.102	897.188
220.723	14.312	1204.357	896.873
221.738	14.363	1203.763	896.629
222.753	14.355	1202.706	895.716
223.767	14.298	1202.045	894.841
224.782	14.505	1200.919	895.036
225.796	14.518	1200.307	894.570
226.811	14.482	1199.666	893.818
227.826	14.497	1198.998	893.324
228.840	14.544	1198.027	892.771
229.855	14.506	1197.926	892.416
230.869	14.443	1196.803	891.160
231.884	14.381	1196.618	890.612
232.899	14.347	1195.498	889.518
233.913	14.356	1194.992	889.111
234.928	14.381	1193.865	888.327
235.942	14.476	1192.968	888.089
236.957	14.510	1192.044	887.504
237.972	14.521	1191.638	887.179
238.986	14.480	1190.795	886.257
240.001	14.428	1190.205	885.463
241.015	14.554	1189.090	885.222
242.030	14.426	1188.904	884.327
243.045	14.587	1187.707	884.212
244.059	14.576	1187.055	883.591
245.074	14.608	1185.671	882.649
246.088	14.580	1185.296	882.145
247.103	14.618	1183.927	881.249
248.117	14.597	1183.811	880.977
249.132	14.728	1182.901	880.910
250.147	14.760	1182.138	880.434
251.161	14.725	1181.684	879.832
252.176	14.792	1180.752	879.412
253.190	14.989	1179.679	879.569
254.205	14.947	1179.342	879.023
255.220	14.828	1178.959	878.032
256.234	14.882	1178.210	877.684
257.249	14.973	1177.358	877.448
258.263	14.930	1176.872	876.783
259.278	14.954	1176.246	876.364
260.293	15.045	1175.453	876.171
261.307	15.025	1175.133	875.749
262.322	15.046	1174.486	875.299
263.336	15.025	1173.776	874.585
264.351	15.086	1172.918	874.186
265.366	15.049	1172.395	873.525
266.380	15.122	1171.463	873.135
267.395	15.063	1170.602	872.108
268.409	15.184	1169.846	872.099
269.424	15.067	1169.374	871.062
270.439	14.997	1168.944	870.298
271.453	15.073	1168.243	870.096
272.468	15.022	1167.266	869.023
273.482	15.040	1166.340	868.353
274.497	15.106	1165.942	868.323
275.512	15.150	1164.999	867.770
276.526	15.039	1164.338	866.626
277.541	15.174	1163.057	866.296
278.555	15.055	1163.133	865.660
279.570	15.295	1161.889	865.896
280.585	15.265	1161.237	865.177
281.599	15.214	1160.519	864.306
282.614	15.210	1158.880	862.984
283.628	15.334	1157.662	862.640
284.643	15.343	1157.263	862.313
285.657	15.294	1156.341	861.300
286.672	15.253	1155.463	860.358
287.687	15.292	1154.306	859.621
288.701	15.268	1153.915	859.128
289.716	15.467	1152.834	859.266
290.730	15.305	1152.677	858.247
291.745	15.422	1151.653	858.005
292.760	15.446	1151.128	857.660
293.774	15.361	1150.636	856.785
294.789	15.505	1149.935	856.923
295.803	15.464	1149.218	856.105
296.818	15.527	1148.094	855.510
297.833	15.334	1147.697	854.158
298.847	15.433	1146.726	853.863
299.862	15.496	1145.991	853.559
300.876	15.546	1145.087	853.063
301.891	15.634	1144.543	853.031
302.906	15.622	1143.670	852.244
303.920	15.672	1143.553	852.333
304.935	15.690	1142.655	851.681
305.949	15.760	1141.675	851.227
306.964	15.714	1141.185	850.558
307.979	15.711	1140.102	849.656
308.993	15.684	1139.407	848.931
310.008	15.696	1139.148	848.719
311.022	15.804	1138.044	848.366
312.037	15.823	1137.123	847.701
313.052	15.800	1136.098	846.746
314.066	15.674	1135.524	845.612
315.081	15.682	1134.974	845.169
316.095	15.665	1134.116	844.369
317.110	15.755	1133.231	844.086
318.125	15.669	1132.704	843.186
319.139	15.768	1131.788	842.926
320.154	15.793	1130.537	842.046
321.168	15.741	1130.736	841.861
322.183	15.710	1130.068	841.133
323.197	15.794	1129.123	840.774
324.212	15.898	1128.372	840.658
325.227	15.757	1127.878	839.512
326.241	15.780	1127.465	839.248
327.256	15.711	1126.962	838.452
328.270	15.856	1125.778	838.221
329.285	15.805	1124.503	836.944
330.300	15.877	1123.643	836.585
331.314	15.910	1122.836	836.075
332.329	15.794	1122.200	834.952
333.343	15.955	1120.637	834.512
334.358	15.901	1120.066	833.749
335.373	15.899	1119.629	833.340
336.387	15.994	1118.747	833.076
337.402	16.100	1117.842	832.854
338.416	16.066	1117.437	832.309
339.431	16.058	1116.704	831.654
340.446	16.001	1116.142	830.878
341.460	16.146	1115.531	831.067
342.475	16.077	1114.832	830.133
343.489	16.317	1113.304	830.099
344.504	16.308	1112.149	829.119
345.519	16.255	1111.223	828.097
346.533	16.263	1110.882	827.810
347.548	16.227	1110.299	827.125
348.562	16.327	1109.112	826.655
349.577	16.319	1108.366	825.988
350.592	16.241	1108.036	825.289
351.606	16.312	1106.953	824.753
352.621	16.300	1106.446	824.245
353.635	16.265	1105.797	823.521
354.650	16.287	1104.800	822.813
355.665	16.307	1104.042	822.270
356.679	16.338	1103.595	822.017
357.694	16.332	1103.072	821.526
358.708	16.463	1102.112	821.375
359.723	16.469	1101.307	820.729
360.738	16.452	1101.063	820.393
361.752	16.302	1100.458	819.141
362.767	16.354	1100.138	819.085
363.781	16.405	1099.404	818.712
364.796	16.411	1098.884	818.279
365.810	16.480	1098.117	817.970
366.825	16.496	1097.504	817.521
367.840	16.489	1097.417	817.347
368.854	16.637	1096.331	817.183
369.869	16.530	1095.466	815.947
370.883	16.621	1094.863	815.867
371.898	16.588	1094.119	815.083
372.913	16.608	1093.548	814.678
373.927	16.629	1092.690	814.068
374.942	16.647	1092.596	814.015
375.956	16.702	1091.620	813.478
376.971	16.595	1091.392	812.725
377.986	16.700	1090.357	812.384
379.000	16.765	1090.069	812.408
380.015	16.833	1089.359	812.135
381.029	16.838	1088.692	811.588
382.044	16.892	1087.833	811.135
383.059	16.941	1087.415	810.984
384.073	16.835	1086.698	809.875
385.088	16.902	1085.635	809.331
386.102	16.886	1084.554	808.375
387.117	16.799	1084.011	807.485
388.132	16.847	1082.808	806.746
389.146	16.870	1081.931	806.129
390.161	16.874	1081.282	805.593
391.175	16.853	1080.264	804.667
392.190	16.847	1079.796	804.219
393.205	16.936	1079.292	804.193
394.219	17.026	1078.119	803.675
395.234	17.025	1077.436	803.088
396.248	16.979	1076.186	801.867
397.263	16.968	1075.317	801.098
398.278	17.014	1075.065	801.057
399.292	16.872	1074.290	799.738
400.307	16.900	1073.606	799.290
401.321	16.944	1073.109	799.054
402.336	16.981	1072.055	798.375
403.350	17.030	1071.450	798.084
404.365	17.050	1070.698	797.550
405.380	16.984	1070.232	796.818
406.394	17.165	1069.132	796.779
407.409	17.062	1068.615	795.839
408.423	17.229	1067.751	795.911
409.438	17.185	1067.237	795.252
410.453	17.205	1066.288	794.568
411.467	17.200	1065.618	793.971
412.482	17.276	1065.052	793.837
413.496	17.274	1064.367	793.247
414.511	17.359	1063.588	792.993
415.526	17.295	1063.577	792.616
416.540	17.298	1063.002	792.130
417.555	17.381	1062.360	791.968
418.569	17.366	1062.049	791.596
419.584	17.458	1061.572	791.600
420.599	17.552	1060.712	791.324
421.613	107.478	1331.571	1486.710
422.628	99.191	1370.981	1486.802
