DTS Sentinel unit serial number:	SN413079Multiplexer serial number:	ORYXHardware model number:	OX4-SRSoftware version number:	ORYX F/W v4.00 Oryx Data Collector v3.7.2.0data status	okinstallation	princeton_trtdifferential loss correction	single-endedforward channel	channel 2reverse channel	N/Adate	2019/09/12time	21:15:35forward acquisition time	60.00reverse acquisition time	0.00gamma	496.2192k internal	0.2328k external	0.2328temperature offset calibration	1.0168default loss term (dB/km)	0.3790temperature slope calibration	1.0000multiplexer offset coefficient	1.0000multiplexer slope coefficient	1.0000fibre end	0.00T internal ref (°C)	30.62T ext. ref 1 (°C)	3.61T ext. ref 2 (°C)	25.21length (m)	temperature (°C)	Stokes	anti-Stokes-747.200	-66.383	0.371	-0.149
-746.185	-4.085	-0.282	0.197
-745.171	-91.097	0.276	-0.080
-744.156	145.595	0.172	0.232
-743.142	469.042	0.149	0.337
-742.127	228.901	-0.124	-0.203
-741.112	-69.334	0.202	0.078
-740.098	800.000	0.037	-0.141
-739.083	-200.000	-0.002	0.235
-738.069	-137.930	0.046	0.005
-737.054	284.651	-0.037	0.067
-736.039	73.380	-0.193	0.203
-735.025	-82.421	0.142	0.046
-734.010	-162.278	0.073	0.004
-732.996	537.680	-0.060	0.144
-731.981	-115.283	-0.233	0.044
-730.966	800.000	0.033	0.136
-729.952	-200.000	0.009	-0.330
-728.937	286.113	-0.133	-0.241
-727.923	-165.246	0.013	0.001
-726.908	82.415	0.176	-0.192
-725.894	79.715	-0.091	0.098
-724.879	34.602	0.155	-0.136
-723.864	-200.000	-0.009	0.333
-722.850	-64.191	-0.125	0.051
-721.835	341.204	0.082	-0.161
-720.821	-200.000	0.058	0.260
-719.806	-24.070	-0.303	-0.182
-718.791	-200.000	-0.051	0.228
-717.777	-102.982	-0.214	-0.051
-716.762	148.002	-0.085	0.115
-715.748	214.618	-0.072	-0.115
-714.733	-64.785	0.005	0.002
-713.718	-200.000	0.011	0.253
-712.704	800.000	-0.057	-0.184
-711.689	-73.439	0.208	-0.077
-710.675	-15.398	0.119	-0.076
-709.660	-152.558	0.180	-0.013
-708.645	-57.739	0.265	-0.117
-707.631	-94.769	0.186	0.051
-706.616	128.148	-0.170	0.218
-705.602	-138.421	-0.141	-0.016
-704.587	-200.000	-0.036	0.255
-703.572	-89.975	-0.177	-0.052
-702.558	-109.240	-0.283	0.060
-701.543	800.000	0.034	-0.142
-700.529	-96.615	-0.319	-0.085
-699.514	9.328	-0.169	-0.128
-698.499	-129.670	0.088	0.012
-697.485	-104.054	-0.180	-0.042
-696.470	239.480	-0.035	-0.059
-695.456	-180.238	0.079	-0.002
-694.441	-200.000	0.084	0.413
-693.426	-85.508	0.325	0.102
-692.412	-154.541	0.182	0.012
-691.397	-9.405	-0.262	-0.176
-690.383	-200.000	0.028	-0.171
-689.368	-200.000	0.011	-0.069
-688.354	91.015	0.141	0.160
-687.339	114.422	0.044	-0.053
-686.324	144.287	-0.196	0.262
-685.310	543.595	-0.151	0.363
-684.295	449.551	0.091	0.201
-683.281	-64.806	0.049	0.020
-682.266	-103.850	-0.046	0.011
-681.251	-200.000	0.024	-0.266
-680.237	267.342	-0.164	0.288
-679.222	-116.012	-0.100	0.019
-678.208	-89.976	-0.298	-0.087
-677.193	66.073	0.465	-0.475
-676.178	-97.738	-0.297	-0.077
-675.164	271.113	0.085	0.150
-674.149	-49.313	0.097	0.047
-673.135	143.316	0.090	-0.121
-672.120	29.395	-0.147	-0.125
-671.105	-166.343	-0.467	-0.020
-670.091	1.691	-0.213	-0.154
-669.076	324.944	-0.230	0.442
-668.062	800.000	0.162	0.462
-667.047	50.867	-0.305	-0.291
-666.032	-154.319	-0.139	0.009
-665.018	72.611	0.144	0.150
-664.003	-147.410	0.179	-0.015
-662.989	-52.811	0.039	-0.018
-661.974	-81.855	0.024	0.008
-660.959	-125.661	0.071	0.011
-659.945	-127.702	0.133	-0.019
-658.930	225.838	0.019	-0.031
-657.916	-105.390	0.146	-0.033
-656.901	761.531	-0.126	-0.343
-655.886	287.430	-0.071	0.128
-654.872	-90.448	0.183	-0.053
-653.857	329.056	-0.103	-0.198
-652.843	-150.569	0.322	0.025
-651.828	126.351	0.096	0.122
-650.814	100.048	-0.040	-0.047
-649.799	-83.837	0.286	0.091
-648.784	-200.000	-0.013	0.135
-647.770	-55.801	0.275	0.123
-646.755	-7.217	-0.243	0.165
-645.741	74.012	0.057	-0.060
-644.726	85.852	0.184	0.204
-643.711	-54.329	-0.147	0.067
-642.697	677.195	0.073	-0.190
-641.682	673.289	0.108	-0.280
-640.668	95.679	-0.206	0.236
-639.653	-200.000	-0.008	0.089
-638.638	25.593	0.108	0.091
-637.624	-40.355	-0.485	0.253
-636.609	800.000	-0.055	0.212
-635.595	-51.695	-0.068	-0.032
-634.580	-200.000	0.048	0.275
-633.565	165.031	-0.065	-0.092
-632.551	16.164	0.167	0.132
-631.536	-156.031	-0.258	-0.016
-630.522	1.293	0.150	-0.108
-629.507	-121.851	-0.099	-0.016
-628.492	778.061	0.010	0.026
-627.478	-200.000	-0.022	0.170
-626.463	-52.275	0.046	0.021
-625.449	800.000	0.033	-0.110
-624.434	800.000	-0.050	-0.198
-623.419	-105.336	-0.366	0.084
-622.405	-98.945	0.184	0.047
-621.390	-24.502	-0.072	-0.043
-620.376	-139.569	0.188	0.020
-619.361	306.514	-0.064	0.120
-618.346	-117.909	-0.094	0.017
-617.332	-20.791	-0.052	-0.032
-616.317	800.000	-0.065	0.229
-615.303	-200.000	-0.043	-0.334
-614.288	800.000	-0.119	0.396
-613.273	-139.109	-0.270	0.029
-612.259	-34.235	0.300	-0.165
-611.244	-105.653	-0.520	-0.118
-610.230	157.355	0.150	-0.208
-609.215	96.303	-0.085	-0.097
-608.201	14.697	0.259	0.203
-607.186	-35.782	0.040	0.022
-606.171	800.000	0.083	-0.299
-605.157	156.191	-0.174	-0.241
-604.142	6.925	-0.054	0.040
-603.128	94.454	0.087	-0.099
-602.113	595.226	0.060	-0.149
-601.098	-11.254	0.120	0.079
-600.084	-200.000	-0.009	0.118
-599.069	-68.969	-0.234	-0.090
-598.055	-200.000	0.023	-0.308
-597.040	184.708	-0.171	-0.254
-596.025	-200.000	0.014	-0.123
-595.011	-86.513	-0.232	0.071
-593.996	-177.126	0.375	-0.009
-592.982	-103.724	-0.192	-0.045
-591.967	758.173	-0.067	-0.182
-590.952	383.133	0.091	-0.188
-589.938	-26.436	0.100	-0.058
-588.923	-147.426	-0.157	-0.013
-587.909	800.000	0.050	0.194
-586.894	321.231	0.149	-0.283
-585.879	-190.910	0.180	0.002
-584.865	302.774	0.045	0.083
-583.850	-151.466	-0.372	0.028
-582.836	-57.920	0.310	-0.135
-581.821	-200.000	0.043	0.252
-580.806	490.112	-0.132	0.303
-579.792	-44.299	-0.145	0.073
-578.777	150.735	0.128	0.174
-577.763	48.863	-0.208	-0.196
-576.748	-200.000	-0.024	0.146
-575.733	5.195	-0.225	0.166
-574.719	-200.000	-0.015	-0.119
-573.704	-200.000	-0.003	-0.021
-572.690	503.865	-0.042	-0.096
-571.675	-8.722	0.199	0.134
-570.661	109.177	0.149	-0.179
-569.646	-83.428	-0.521	-0.167
-568.631	-200.000	-0.001	0.219
-567.617	-118.808	-0.083	0.015
-566.602	129.538	-0.042	-0.054
-565.588	-49.239	-0.405	0.194
-564.573	800.000	-0.037	0.151
-563.558	-161.732	0.206	0.010
-562.544	-112.985	0.122	0.024
-561.529	-200.000	-0.294	-0.000
-560.515	-124.984	-0.270	-0.042
-559.500	89.417	0.115	0.128
-558.485	-98.970	-0.227	-0.058
-557.471	-20.632	-0.184	-0.113
-556.456	340.903	-0.082	0.161
-555.442	-79.167	-0.292	-0.099
-554.427	-72.364	0.180	0.067
-553.412	-200.000	0.003	-0.044
-552.398	-200.000	-0.023	0.288
-551.383	-101.092	-0.090	-0.022
-550.369	29.651	0.349	-0.297
-549.354	-145.831	-0.195	-0.017
-548.339	-81.548	0.275	-0.091
-547.325	67.468	-0.415	0.424
-546.310	18.982	0.229	0.184
-545.296	-85.466	0.130	-0.041
-544.281	-147.243	0.349	0.030
-543.266	-0.888	-0.131	-0.093
-542.252	128.870	-0.095	0.121
-541.237	-157.782	-0.013	-0.001
-540.223	-42.387	0.170	-0.087
-539.208	-200.000	-0.013	-0.203
-538.193	800.000	-0.051	-0.180
-537.179	-31.073	-0.110	0.062
-536.164	-64.321	0.231	-0.094
-535.150	-141.094	0.206	-0.021
-534.135	-20.847	-0.230	0.141
-533.121	-53.505	-0.438	0.200
-532.106	12.379	0.089	0.069
-531.091	800.000	-0.018	-0.052
-530.077	-200.000	0.007	-0.247
-529.062	-200.000	-0.034	-0.230
-528.048	800.000	0.063	-0.174
-527.033	-111.465	-0.273	0.056
-526.018	-23.978	-0.208	0.125
-525.004	77.740	-0.103	0.110
-523.989	35.430	0.241	0.211
-522.975	190.968	0.295	0.444
-521.960	-80.129	-0.067	0.022
-520.945	-103.267	0.258	0.061
-519.931	80.538	0.404	0.435
-518.916	-52.728	0.171	0.079
-517.902	-14.055	-0.219	-0.141
-516.887	224.895	-0.215	0.347
-515.872	-78.213	0.154	-0.053
-514.858	45.740	-0.079	-0.073
-513.843	229.097	-0.165	-0.268
-512.829	-200.000	0.062	-0.293
-511.814	494.103	0.034	-0.079
-510.799	-25.619	0.111	0.066
-509.785	777.214	-0.091	0.248
-508.770	-184.114	0.176	0.003
-507.756	-200.000	0.332	0.000
-506.741	214.173	-0.154	-0.244
-505.726	-156.782	0.174	0.011
-504.712	-200.000	-0.024	-0.109
-503.697	-98.583	-0.081	-0.021
-502.683	645.963	-0.067	0.171
-501.668	-134.180	0.092	-0.011
-500.653	250.214	0.174	0.295
-499.639	675.789	-0.079	-0.204
-498.624	-135.386	0.290	-0.035
-497.610	-68.202	0.288	0.112
-496.595	-179.863	-0.078	-0.002
-495.581	-33.894	0.121	-0.067
-494.566	-200.000	0.047	0.305
-493.551	98.818	-0.145	-0.167
-492.537	-90.456	-0.132	0.038
-491.522	-98.199	0.162	0.042
-490.508	298.010	-0.124	-0.227
-489.493	800.000	-0.034	-0.130
-488.478	-76.581	0.019	-0.007
-487.464	-200.000	0.043	-0.256
-486.449	391.124	0.193	-0.400
-485.435	-148.673	-0.323	-0.026
-484.420	-75.121	-0.191	-0.068
-483.405	-8.797	-0.218	-0.146
-482.391	-130.327	-0.315	0.043
-481.376	-73.427	-0.135	0.049
-480.362	800.000	0.026	0.091
-479.347	-4.440	-0.188	0.130
-478.332	186.163	0.067	0.100
-477.318	-16.434	0.360	-0.228
-476.303	-23.321	-0.053	-0.032
-475.289	-139.810	0.255	-0.027
-474.274	649.664	0.129	0.329
-473.259	-74.850	0.221	0.079
-472.245	402.540	0.117	-0.245
-471.230	554.576	0.062	0.148
-470.216	-127.422	0.357	-0.052
-469.201	128.680	-0.039	0.049
-468.186	-200.000	-0.025	-0.247
-467.172	3.376	-0.060	0.043
-466.157	202.261	-0.222	0.342
-465.143	14.129	0.106	0.082
-464.128	-174.211	0.088	-0.003
-463.113	697.950	0.128	-0.335
-462.099	84.511	0.088	-0.096
-461.084	233.548	0.070	-0.115
-460.070	-112.105	-0.245	0.049
-459.055	-200.000	-0.029	0.299
-458.040	156.681	-0.102	0.141
-457.026	430.498	-0.082	0.178
-456.011	641.976	-0.095	0.241
-454.997	-200.000	-0.049	-0.248
-453.982	481.324	0.166	-0.375
-452.968	-148.716	0.158	0.013
-451.953	-68.101	-0.068	0.026
-450.938	-200.000	0.015	-0.088
-449.924	13.807	-0.064	-0.049
-448.909	196.909	0.207	0.314
-447.895	80.025	-0.164	0.176
-446.880	184.756	-0.104	-0.154
-445.865	-200.000	-0.005	0.222
-444.851	800.000	-0.097	0.286
-443.836	-86.875	-0.608	0.185
-442.822	268.632	0.159	-0.278
-441.807	800.000	-0.042	0.171
-440.792	460.141	-0.051	-0.113
-439.778	-81.295	0.243	-0.080
-438.763	800.000	0.074	0.248
-437.749	800.000	-0.027	-0.089
-436.734	303.648	0.131	-0.243
-435.719	76.139	0.010	0.011
-434.705	0.562	-0.179	0.127
-433.690	-54.893	-0.208	0.093
-432.676	307.325	-0.011	0.020
-431.661	699.404	-0.081	-0.212
-430.646	-200.000	-0.059	-0.320
-429.632	-200.000	-0.036	0.217
-428.617	-42.250	0.158	-0.080
-427.603	198.665	0.156	-0.238
-426.588	-121.173	-0.379	0.063
-425.573	54.204	0.086	0.082
-424.559	470.447	-0.143	0.320
-423.544	171.601	0.247	-0.353
-422.530	171.224	0.044	0.062
-421.515	149.297	-0.217	-0.292
-420.500	-142.205	0.252	0.025
-419.486	-88.827	-0.061	0.018
-418.471	-200.000	0.007	0.089
-417.457	-104.049	-0.061	0.014
-416.442	-93.578	0.199	0.055
-415.428	-160.320	0.194	-0.010
-414.413	-174.978	-0.121	-0.003
-413.398	-51.349	0.098	-0.046
-412.384	36.796	-0.191	-0.168
-411.369	291.400	-0.168	0.304
-410.355	90.927	0.020	-0.022
-409.340	-99.010	-0.152	0.038
-408.325	107.945	0.075	0.089
-407.311	-134.481	-0.034	-0.004
-406.296	-85.390	0.101	0.031
-405.282	-148.368	0.196	0.016
-404.267	127.437	0.107	0.135
-403.252	800.000	0.073	0.257
-402.238	-57.313	0.193	0.085
-401.223	55.079	-0.232	0.223
-400.209	-72.667	-0.199	-0.073
-399.194	-127.135	0.368	-0.054
-398.179	-54.394	-0.221	0.100
-397.165	726.574	-0.029	-0.077
-396.150	251.972	0.071	0.120
-395.136	-141.702	-0.212	0.021
-394.121	-200.000	-0.003	-0.084
-393.106	169.537	0.103	-0.146
-392.092	36.596	0.310	-0.272
-391.077	62.427	0.184	-0.183
-390.063	-137.389	-0.128	0.014
-389.048	-17.681	0.071	0.044
-388.033	246.947	-0.170	0.286
-387.019	-72.897	-0.050	-0.018
-386.004	289.807	-0.073	-0.132
-384.990	-163.712	-0.140	-0.007
-383.975	438.929	0.077	-0.166
-382.960	316.537	0.101	-0.190
-381.946	-84.288	0.199	0.063
-380.931	631.185	-0.063	-0.157
-379.917	-200.000	-0.012	0.058
-378.902	800.000	0.053	0.189
-377.888	-200.000	-0.006	0.132
-376.873	589.894	-0.081	0.199
-375.858	-200.000	-0.064	-0.450
-374.844	-8.196	-0.117	0.079
-373.829	106.505	0.059	0.070
-372.815	181.569	0.150	-0.220
-371.800	68.710	0.050	-0.051
-370.785	-200.000	0.045	-0.352
-369.771	-74.895	0.250	0.089
-368.756	270.916	-0.189	0.330
-367.742	-40.211	0.037	0.019
-366.727	197.759	0.213	0.324
-365.712	-38.338	0.279	-0.147
-364.698	179.689	0.083	0.120
-363.683	68.072	-0.203	0.207
-362.669	168.026	0.037	0.053
-361.654	375.171	-0.055	-0.112
-360.639	-103.160	0.351	-0.082
-359.625	171.978	0.061	0.086
-358.610	-200.000	0.010	-0.282
-357.596	36.040	0.184	-0.161
-356.581	800.000	-0.033	0.092
-355.566	-200.000	-0.072	-0.422
-354.552	-149.710	-0.194	-0.015
-353.537	-200.000	-0.033	0.312
-352.523	438.288	-0.034	0.074
-351.508	-113.795	0.230	0.044
-350.493	-63.150	-0.249	0.102
-349.479	800.000	0.018	0.060
-348.464	-172.964	-0.334	-0.010
-347.450	2.165	-0.095	0.068
-346.435	122.105	-0.070	-0.086
-345.420	143.292	0.181	-0.239
-344.406	-200.000	0.039	0.410
-343.391	108.060	-0.263	-0.311
-342.377	239.986	-0.167	0.275
-341.362	-200.000	-0.015	0.104
-340.348	-200.000	0.034	-0.320
-339.333	-147.305	0.164	0.014
-338.318	-110.856	-0.036	-0.007
-337.304	-137.454	-0.238	0.027
-336.289	119.803	0.182	-0.223
-335.275	-200.000	0.001	0.189
-334.260	18.745	0.130	0.104
-333.245	195.674	0.270	0.407
-332.231	52.806	0.141	0.134
-331.216	256.965	-0.118	0.200
-330.202	-200.000	0.001	-0.189
-329.187	-92.972	-0.023	0.006
-328.172	64.187	-0.129	-0.129
-327.158	-164.669	0.183	0.008
-326.143	219.509	-0.136	-0.215
-325.129	4.089	-0.037	0.027
-324.114	-40.020	0.480	0.248
-323.099	-200.000	-0.009	0.282
-322.085	800.000	-0.032	0.112
-321.070	771.736	0.014	0.039
-320.056	212.725	-0.102	-0.160
-319.041	272.615	0.064	0.112
-318.026	-78.226	0.031	-0.011
-317.012	-20.193	-0.430	0.262
-315.997	800.000	-0.148	-0.479
-314.983	-200.000	0.020	-0.181
-313.968	203.823	-0.064	0.099
-312.953	114.235	0.023	-0.028
-311.939	-67.922	0.219	0.085
-310.924	-117.074	0.462	-0.083
-309.910	681.035	-0.046	0.118
-308.895	-75.184	0.348	0.123
-307.880	-34.210	0.169	0.092
-306.866	800.000	0.101	-0.436
-305.851	-200.000	-0.050	-0.317
-304.837	-131.096	0.314	-0.041
-303.822	-200.000	-0.010	0.289
-302.807	-40.409	-0.178	-0.092
-301.793	-200.000	-0.000	0.132
-300.778	-200.000	0.005	-0.091
-299.764	23.518	0.272	0.221
-298.749	58.335	0.087	0.084
-297.735	800.000	0.036	-0.130
-296.720	365.763	-0.132	0.262
-295.705	-200.000	0.012	-0.092
-294.691	-13.153	-0.396	-0.255
-293.676	800.000	-0.023	0.090
-292.662	114.827	-0.109	0.131
-291.647	153.638	0.158	-0.214
-290.632	67.771	-0.103	0.104
-289.618	227.703	-0.122	0.196
-288.603	108.639	0.175	0.207
-287.589	-97.765	-0.283	0.072
-286.574	-61.654	-0.399	0.166
-285.559	800.000	0.050	0.190
-284.545	-47.998	-0.211	-0.101
-283.530	86.745	-0.300	-0.328
-282.516	-61.740	-0.180	0.074
-281.501	28.089	0.230	-0.192
-280.486	-116.883	0.207	0.038
-279.472	133.871	0.172	0.220
-278.457	-200.000	0.008	-0.122
-277.443	-134.001	0.159	0.020
-276.428	50.280	0.179	-0.167
-275.413	800.000	-0.171	-0.476
-274.399	412.916	0.090	0.190
-273.384	-32.567	-0.134	0.074
-272.370	-151.931	0.079	-0.006
-271.355	164.319	-0.115	0.161
-270.340	-85.038	0.096	0.030
-269.326	-200.000	0.031	-0.231
-268.311	237.690	-0.148	-0.242
-267.297	-141.875	0.387	-0.038
-266.282	800.000	-0.043	0.176
-265.267	224.222	0.046	-0.074
-264.253	179.751	0.075	-0.109
-263.238	345.485	-0.098	-0.191
-262.224	270.322	-0.060	-0.105
-261.209	800.000	0.063	0.201
-260.195	-171.792	-0.175	0.006
-259.180	-200.000	-0.079	-0.355
-258.165	800.000	0.077	-0.223
-257.151	-154.322	-0.294	0.020
-256.136	264.168	0.136	0.234
-255.122	167.837	0.199	0.280
-254.107	-96.938	0.059	-0.015
-253.092	-13.748	-0.120	0.077
-252.078	-43.011	-0.422	0.211
-251.063	800.000	0.073	0.222
-250.049	800.000	0.147	0.429
-249.034	-200.000	-0.011	-0.070
-248.019	-143.950	-0.366	-0.034
-247.005	-200.000	-0.057	0.273
-245.990	-200.000	0.068	0.360
-244.976	-99.150	-0.127	0.032
-243.961	-84.829	-0.056	-0.017
-242.946	800.000	-0.034	-0.135
-241.932	-156.383	-0.311	-0.019
-240.917	-80.140	0.061	0.020
-239.903	-29.798	0.109	-0.061
-238.888	193.522	0.121	-0.181
-237.873	800.000	-0.108	-0.313
-236.859	36.316	0.150	0.131
-235.844	55.377	-0.200	-0.191
-234.830	244.389	0.149	0.247
-233.815	302.132	0.235	0.429
-232.800	800.000	0.120	0.333
-231.786	734.715	0.134	0.354
-230.771	420.192	-0.033	0.070
-229.757	94.488	0.172	-0.193
-228.742	-40.306	-0.121	-0.062
-227.727	111.107	0.136	0.162
-226.713	-200.000	0.038	0.249
-225.698	453.220	0.123	-0.268
-224.684	27.396	-0.081	-0.067
-223.669	334.705	0.087	0.166
-222.655	557.422	-0.052	-0.125
-221.640	800.000	0.057	-0.229
-220.625	41.273	-0.137	-0.122
-219.611	192.958	0.063	0.094
-218.596	-200.000	0.036	0.386
-217.582	-82.245	-0.260	0.084
-216.567	-21.306	0.255	-0.154
-215.552	-97.383	-0.120	-0.031
-214.538	800.000	-0.034	0.097
-213.523	125.494	0.272	-0.339
-212.509	800.000	-0.033	-0.095
-211.494	-93.401	-0.281	-0.077
-210.479	-200.000	0.048	-0.218
-209.465	800.000	-0.031	0.126
-208.450	-200.000	-0.004	0.067
-207.436	-11.518	-0.391	-0.254
-206.421	381.248	0.038	0.076
-205.406	-200.000	0.018	0.089
-204.392	-200.000	0.008	-0.081
-203.377	-200.000	0.020	0.205
-202.363	-127.447	-0.325	0.047
-201.348	-200.000	-0.016	-0.189
-200.333	800.000	-0.114	-0.356
-199.319	800.000	0.112	0.390
-198.304	61.584	-0.062	-0.061
-197.290	537.068	-0.099	0.231
-196.275	167.986	0.086	-0.121
-195.260	108.527	-0.070	-0.082
-194.246	-200.000	-0.005	-0.116
-193.231	235.102	0.161	-0.262
-192.217	33.085	0.150	0.128
-191.202	41.970	0.090	0.081
-190.187	-90.242	0.474	0.136
-189.173	11.336	0.042	0.031
-188.158	800.000	0.047	-0.170
-187.144	800.000	-0.029	0.116
-186.129	-49.480	0.367	-0.173
-185.114	448.711	0.112	-0.243
-184.100	-114.496	0.265	0.050
-183.085	800.000	0.095	-0.408
-182.071	800.000	0.113	-0.438
-181.056	800.000	-0.045	0.153
-180.042	-200.000	0.033	-0.383
-179.027	800.000	-0.119	-0.328
-178.012	-43.337	0.187	-0.093
-176.998	-200.000	0.053	-0.263
-175.983	-200.000	-0.017	-0.185
-174.969	249.882	-0.055	-0.092
-173.954	-140.657	-0.158	0.016
-172.939	422.147	-0.127	-0.268
-171.925	-16.645	-0.199	-0.124
-170.910	501.466	-0.035	-0.081
-169.896	-200.000	-0.026	0.338
-168.881	509.689	-0.080	0.183
-167.866	-15.433	0.164	0.103
-166.852	635.857	-0.150	-0.376
-165.837	800.000	-0.052	-0.184
-164.823	-138.319	-0.500	0.054
-163.808	-107.641	0.096	0.021
-162.793	-200.000	0.038	0.189
-161.779	-200.000	0.080	-0.382
-160.764	-28.516	0.196	0.111
-159.750	449.742	0.112	-0.244
-158.735	-1.140	0.040	-0.028
-157.720	800.000	-0.009	-0.032
-156.706	-200.000	0.009	0.106
-155.691	476.763	-0.124	-0.276
-154.677	800.000	0.042	0.151
-153.662	-146.792	0.077	-0.007
-152.647	-200.000	0.113	0.537
-151.633	-200.000	0.007	-0.291
-150.618	59.784	0.132	0.128
-149.604	-17.115	0.283	0.176
-148.589	328.827	0.016	0.031
-147.574	800.000	-0.080	-0.250
-146.560	-3.974	0.134	-0.092
-145.545	105.913	0.055	-0.064
-144.531	-133.983	-0.162	-0.020
-143.516	96.808	0.112	-0.127
-142.502	48.208	0.302	0.278
-141.487	-185.883	0.306	-0.004
-140.472	13.536	-0.184	0.140
-139.458	-99.060	0.184	0.046
-138.443	123.662	-0.214	0.264
-137.429	344.184	-0.026	0.049
-136.414	-168.562	0.013	0.000
-135.399	485.169	0.091	0.203
-134.385	394.701	0.130	0.268
-133.370	-200.000	0.054	-0.234
-132.356	-98.810	-0.242	0.061
-131.341	665.907	-0.011	-0.027
-130.326	800.000	-0.066	0.229
-129.312	-200.000	0.004	0.227
-128.297	210.551	0.212	0.328
-127.283	-200.000	0.006	0.308
-126.268	800.000	0.071	-0.258
-125.253	-200.000	-0.048	0.348
-124.239	-131.209	-0.253	-0.033
-123.224	24.231	-0.223	0.181
-122.210	-17.707	0.219	-0.135
-121.195	-115.507	0.426	-0.079
-120.180	-200.000	0.010	-0.131
-119.166	-200.000	-0.009	-0.393
-118.151	-93.085	-0.158	-0.043
-117.137	-27.249	0.184	-0.105
-116.122	-200.000	-0.015	0.132
-115.107	800.000	0.088	0.262
-114.093	183.735	0.066	-0.097
-113.078	-98.041	0.213	0.054
-112.064	-200.000	0.013	-0.090
-111.049	-104.696	0.186	0.042
-110.034	550.001	0.090	-0.213
-109.020	-120.200	-0.064	-0.011
-108.005	-78.227	0.407	0.137
-106.991	690.513	-0.035	0.090
-105.976	800.000	0.065	-0.218
-104.962	-56.970	0.137	0.060
-103.947	55.123	0.197	-0.187
-102.932	-56.742	-0.083	0.036
-101.918	79.797	0.147	0.155
-100.903	68.438	0.211	0.213
-99.889	-134.295	-0.153	0.018
-98.874	-32.159	-0.328	0.180
-97.859	-9.807	-0.051	-0.033
-96.845	760.956	-0.069	-0.183
-95.830	800.000	0.032	-0.123
-94.816	-126.171	0.204	-0.030
-93.801	-14.765	-0.197	-0.125
-92.786	46.261	0.107	0.097
-91.772	-200.000	0.068	0.385
-90.757	418.049	0.109	0.229
-89.743	-200.000	0.000	0.013
-88.728	-200.000	0.260	0.001
-87.713	-5.848	0.330	-0.222
-86.699	146.493	0.123	-0.162
-85.684	-50.282	-0.445	0.206
-84.670	-200.000	0.015	-0.158
-83.655	-145.461	-0.212	0.019
-82.640	544.443	0.089	-0.208
-81.626	-93.537	0.184	0.050
-80.611	800.000	0.075	0.230
-79.597	242.976	0.098	0.162
-78.582	154.630	-0.161	0.217
-77.567	49.411	0.067	-0.062
-76.553	-44.420	-0.118	-0.058
-75.538	-200.000	-0.008	0.273
-74.524	62.050	0.073	0.071
-73.509	-36.802	-0.316	-0.167
-72.494	-200.000	-0.021	-0.247
-71.480	-200.000	0.004	0.061
-70.465	-22.818	-0.142	-0.084
-69.451	800.000	-0.042	0.121
-68.436	-141.647	-0.163	0.016
-67.422	113.983	0.095	-0.113
-66.407	-200.000	-0.012	-0.108
-65.392	800.000	-0.069	0.248
-64.378	-200.000	0.028	-0.188
-63.363	800.000	0.094	-0.271
-62.349	276.011	0.128	0.224
-61.334	-17.598	-1.047	-0.646
-60.319	202.862	0.287	0.435
-59.305	800.000	-0.290	-1.047
-58.290	800.000	0.411	1.185
-57.276	800.000	0.492	1.422
-56.261	-200.000	103.140	583.906
-55.246	554.951	1431.646	3380.325
-54.232	188.194	2621.688	3844.165
-53.217	108.884	2267.078	2658.857
-52.203	39.783	1887.377	1661.525
-51.188	33.808	1678.565	1432.734
-50.173	31.169	1635.361	1376.368
-49.159	49.544	1686.836	1557.759
-48.144	50.637	1702.599	1580.440
-47.130	33.427	1661.407	1415.018
-46.115	30.727	1647.021	1382.681
-45.100	30.612	1642.197	1377.725
-44.086	30.610	1639.571	1375.452
-43.071	30.549	1637.019	1372.800
-42.057	30.413	1634.667	1369.774
-41.042	30.582	1632.033	1368.754
-40.027	30.546	1630.584	1367.223
-39.013	30.538	1629.138	1365.893
-37.998	30.405	1627.903	1363.829
-36.984	30.483	1626.287	1362.995
-35.969	30.689	1624.815	1363.215
-34.954	30.669	1623.516	1361.928
-33.940	30.673	1621.267	1360.015
-32.925	30.630	1619.394	1358.074
-31.911	30.660	1618.131	1357.184
-30.896	30.530	1616.998	1355.227
-29.881	30.566	1614.947	1353.717
-28.867	30.634	1612.783	1352.346
-27.852	30.559	1611.504	1350.677
-26.838	30.587	1610.273	1349.792
-25.823	30.549	1609.112	1348.487
-24.809	30.635	1607.325	1347.562
-23.794	30.693	1606.071	1346.877
-22.779	30.677	1604.185	1345.125
-21.765	30.583	1602.994	1343.393
-20.750	30.607	1601.468	1342.235
-19.736	30.630	1600.326	1341.394
-18.721	30.722	1598.404	1340.387
-17.706	30.666	1596.908	1338.678
-16.692	30.621	1595.646	1337.245
-15.677	30.726	1593.947	1336.521
-14.663	30.746	1592.633	1335.509
-13.648	30.704	1591.303	1334.039
-12.633	30.687	1589.894	1332.689
-11.619	30.617	1588.525	1330.987
-10.604	30.647	1587.283	1330.103
-9.590	30.674	1585.762	1328.973
-8.575	30.700	1584.299	1327.879
-7.560	30.751	1582.675	1326.824
-6.546	30.646	1582.238	1325.660
-5.531	30.601	1581.088	1324.323
-4.517	30.612	1579.936	1323.387
-3.502	30.669	1578.797	1322.780
-2.487	30.684	1577.293	1321.579
-1.473	30.224	1565.381	1308.298
-0.458	27.341	1545.848	1271.806
0.556	25.366	1546.765	1239.768
1.571	22.874	1570.658	1241.316
2.586	22.267	1583.921	1247.380
3.600	19.985	1530.482	1189.535
4.615	12.098	1422.822	1055.193
5.629	4.953	1360.073	964.488
6.644	3.655	1352.114	950.768
7.659	3.577	1351.207	949.564
8.673	3.599	1350.359	949.020
9.688	3.600	1348.748	947.814
10.702	3.511	1345.546	944.933
11.717	6.623	1351.918	968.454
12.731	15.445	1367.307	1033.959
13.746	22.662	1378.677	1087.122
14.761	24.330	1380.982	1099.135
15.775	24.003	1379.662	1095.973
16.790	23.330	1377.971	1090.392
17.804	22.870	1375.862	1085.801
18.819	22.745	1375.456	1084.615
19.834	22.803	1374.274	1083.946
20.848	22.738	1373.919	1083.167
21.863	22.771	1372.948	1082.512
22.877	22.744	1371.649	1081.227
23.892	22.474	1370.988	1078.952
24.907	22.504	1369.999	1078.267
25.921	22.565	1369.006	1077.761
26.936	22.526	1368.027	1076.655
27.950	22.654	1367.177	1076.673
28.965	22.677	1366.299	1076.028
29.980	22.797	1364.995	1075.634
30.994	22.945	1364.448	1076.011
32.009	22.910	1363.703	1075.117
33.023	22.816	1362.568	1073.556
34.038	22.857	1361.026	1072.491
35.053	22.782	1359.791	1070.969
36.067	22.727	1358.444	1069.482
37.082	22.705	1357.506	1068.513
38.096	22.643	1357.206	1067.810
39.111	22.736	1356.577	1067.783
40.126	22.574	1355.848	1066.132
41.140	22.358	1354.351	1063.556
42.155	22.188	1353.644	1061.882
43.169	22.014	1353.715	1060.793
44.184	22.095	1353.698	1061.171
45.199	22.165	1353.469	1061.324
46.213	22.444	1352.982	1062.531
47.228	22.598	1352.062	1062.640
48.242	22.681	1351.114	1062.305
49.257	22.458	1350.134	1060.097
50.271	22.487	1348.604	1058.977
51.286	22.564	1347.096	1058.160
52.301	22.531	1345.889	1056.919
53.315	22.473	1344.802	1055.626
54.330	22.287	1344.039	1053.822
55.344	22.191	1342.537	1051.974
56.359	22.387	1341.298	1052.079
57.374	22.285	1340.224	1050.539
58.388	22.035	1339.801	1048.619
59.403	21.978	1339.695	1048.104
60.417	22.020	1338.283	1047.156
61.432	21.819	1337.681	1045.396
62.447	21.862	1336.574	1044.691
63.461	21.857	1335.793	1043.959
64.476	21.877	1334.623	1043.073
65.490	21.878	1333.487	1042.100
66.505	21.828	1331.864	1040.444
67.520	21.869	1330.933	1039.865
68.534	21.876	1329.817	1038.941
69.549	21.691	1329.232	1037.298
70.563	21.644	1327.870	1035.867
71.578	21.540	1327.081	1034.541
72.593	21.558	1325.761	1033.528
73.607	21.445	1325.092	1032.247
74.622	21.637	1324.663	1032.954
75.636	21.733	1323.616	1032.615
76.651	21.672	1322.849	1031.563
77.666	21.698	1322.360	1031.246
78.680	21.777	1322.142	1031.453
79.695	21.726	1322.182	1031.087
80.709	21.906	1321.250	1031.330
81.724	22.023	1320.705	1031.502
82.739	22.268	1319.260	1031.716
83.753	22.453	1319.290	1032.735
84.768	22.760	1318.326	1033.690
85.782	22.814	1317.436	1033.218
86.797	22.806	1316.515	1032.356
87.812	22.701	1315.233	1030.643
88.826	22.685	1313.937	1029.442
89.841	22.741	1313.155	1029.069
90.855	22.752	1312.595	1028.602
91.870	22.782	1311.885	1028.131
92.884	22.971	1310.424	1027.991
93.899	22.938	1309.859	1027.268
94.914	22.923	1308.988	1026.405
95.928	22.925	1308.508	1025.950
96.943	22.890	1307.416	1024.800
97.957	22.850	1306.508	1023.767
98.972	22.881	1305.106	1022.758
99.987	22.788	1304.262	1021.463
101.001	22.805	1303.547	1020.914
102.016	22.683	1302.745	1019.492
103.030	22.678	1302.033	1018.815
104.045	22.708	1300.900	1018.007
105.060	22.511	1299.493	1015.685
106.074	22.289	1297.831	1013.014
107.089	22.062	1296.155	1010.311
108.103	21.896	1294.887	1008.282
109.118	21.834	1293.638	1006.864
110.133	21.780	1292.299	1005.422
111.147	21.832	1290.857	1004.511
112.162	21.982	1290.219	1004.780
113.176	22.045	1289.126	1004.204
114.191	22.018	1288.348	1003.355
115.206	22.055	1287.518	1002.830
116.220	22.064	1286.056	1001.656
117.235	21.980	1285.356	1000.538
118.249	21.835	1284.108	998.657
119.264	21.738	1282.967	997.128
120.279	21.783	1281.894	996.461
121.293	21.630	1281.120	994.901
122.308	21.564	1279.920	993.505
123.322	21.456	1278.990	992.083
124.337	21.403	1278.048	990.966
125.352	21.514	1276.763	990.512
126.366	21.379	1275.888	988.979
127.381	21.411	1274.612	988.086
128.395	21.353	1273.944	987.150
129.410	21.362	1272.742	986.184
130.424	21.400	1272.391	986.041
131.439	21.547	1271.669	986.219
132.454	21.847	1270.912	987.237
133.468	21.970	1270.663	987.645
134.483	21.907	1270.116	986.777
135.497	21.938	1269.149	986.116
136.512	21.942	1268.068	985.213
137.527	22.008	1266.671	984.408
138.541	22.018	1265.341	983.345
139.556	22.133	1264.116	982.948
140.570	22.292	1263.601	983.350
141.585	22.376	1262.897	983.183
142.600	22.504	1262.320	983.364
143.614	22.703	1261.696	983.899
144.629	22.678	1261.071	983.186
145.643	22.700	1259.352	981.880
146.658	22.495	1257.789	979.435
147.673	22.368	1256.763	977.846
148.687	22.327	1255.423	976.490
149.702	21.982	1254.074	973.438
150.716	21.805	1252.703	971.306
151.731	21.747	1251.439	969.919
152.746	21.913	1249.821	969.502
153.760	22.165	1249.096	970.242
154.775	22.305	1248.625	970.562
155.789	22.309	1247.750	969.818
156.804	22.345	1247.023	969.364
157.819	22.392	1246.088	968.813
158.833	22.399	1245.729	968.486
159.848	22.637	1245.073	969.199
160.862	22.519	1244.115	967.720
161.877	22.228	1241.945	964.348
162.892	21.796	1241.240	961.350
163.906	21.802	1239.865	960.231
164.921	21.738	1239.180	959.265
165.935	21.834	1238.744	959.368
166.950	22.058	1238.399	960.240
167.964	22.112	1237.565	959.804
168.979	22.035	1236.982	958.848
169.994	21.926	1236.424	957.734
171.008	21.921	1235.316	956.762
172.023	22.074	1234.842	957.146
173.037	22.437	1234.219	958.558
174.052	22.456	1233.246	957.820
175.067	22.145	1232.113	955.163
176.081	21.816	1230.949	952.388
177.096	21.863	1229.555	951.483
178.110	21.987	1228.833	951.513
179.125	21.974	1227.717	950.491
180.140	22.259	1226.882	951.307
181.154	22.445	1226.304	951.781
182.169	22.312	1225.435	950.300
183.183	22.433	1224.309	949.998
184.198	22.578	1222.946	949.637
185.213	22.559	1222.458	949.069
186.227	22.562	1221.383	948.168
187.242	22.644	1220.349	947.722
188.256	22.779	1219.370	947.603
189.271	22.799	1218.676	947.085
190.286	22.575	1217.770	945.100
191.300	22.208	1216.670	942.194
192.315	22.078	1216.096	940.971
193.329	22.005	1215.732	940.213
194.344	22.092	1214.438	939.596
195.359	21.994	1213.645	938.378
196.373	21.914	1213.243	937.555
197.388	22.069	1212.841	937.989
198.402	22.518	1213.114	940.512
199.417	22.617	1213.274	941.084
200.432	22.866	1212.788	941.951
201.446	22.906	1211.880	941.379
202.461	23.014	1211.065	941.237
203.475	22.881	1210.348	939.886
204.490	22.634	1208.387	936.967
205.504	22.413	1206.945	934.596
206.519	22.355	1205.949	933.432
207.534	22.183	1204.981	931.690
208.548	22.099	1203.967	930.376
209.563	22.179	1203.190	930.117
210.577	22.095	1202.445	929.015
211.592	22.315	1201.731	929.547
212.607	22.587	1201.707	930.882
213.621	22.660	1200.548	930.285
214.636	22.552	1199.279	928.652
215.650	22.589	1198.431	928.108
216.665	22.619	1198.186	927.996
217.680	22.988	1197.267	929.140
218.694	22.898	1196.973	928.357
219.709	22.811	1196.073	927.121
220.723	22.842	1195.055	926.413
221.738	22.770	1194.134	925.237
222.753	22.654	1193.218	923.839
223.767	22.582	1192.638	922.931
224.782	22.917	1192.260	924.308
225.796	23.109	1191.660	924.768
226.811	22.955	1191.125	923.464
227.826	22.703	1190.573	921.636
228.840	22.612	1189.220	920.034
229.855	22.568	1188.206	918.941
230.869	22.615	1187.831	918.814
231.884	22.462	1186.415	916.840
232.899	22.311	1185.564	915.317
233.913	22.185	1184.980	914.128
234.928	22.223	1184.200	913.641
235.942	22.033	1183.558	912.078
236.957	21.900	1182.859	910.772
237.972	22.023	1181.664	910.407
238.986	22.059	1181.242	910.186
240.001	22.122	1180.516	909.874
241.015	22.211	1179.522	909.489
242.030	22.215	1178.988	909.014
243.045	22.440	1178.548	909.762
244.059	22.513	1178.092	909.704
245.074	22.578	1177.331	909.374
246.088	22.668	1176.824	909.363
247.103	22.806	1175.799	909.200
248.117	23.040	1175.028	909.731
249.132	23.278	1174.967	910.827
250.147	23.649	1174.690	912.437
251.161	23.753	1174.513	912.754
252.176	23.880	1173.648	912.655
253.190	23.793	1173.207	911.782
254.205	23.823	1173.094	911.771
255.220	23.965	1172.472	911.933
256.234	23.905	1171.716	910.957
257.249	23.832	1171.027	909.966
258.263	23.829	1169.942	909.029
259.278	23.740	1169.509	908.155
260.293	23.793	1168.939	907.905
261.307	23.777	1168.689	907.547
262.322	23.848	1168.045	907.327
263.336	23.933	1167.121	906.963
264.351	23.922	1166.584	906.412
265.366	23.871	1165.901	905.542
266.380	23.823	1165.316	904.761
267.395	23.841	1164.230	903.928
268.409	23.539	1163.538	901.780
269.424	23.506	1162.767	900.931
270.439	23.646	1162.370	901.257
271.453	23.458	1161.238	899.344
272.468	23.309	1160.039	897.580
273.482	23.166	1159.941	896.703
274.497	23.168	1159.267	896.111
275.512	23.107	1158.793	895.360
276.526	23.253	1157.632	895.117
277.541	23.235	1156.955	894.423
278.555	23.373	1156.471	894.669
279.570	23.675	1156.138	895.856
280.585	23.835	1155.622	896.182
281.599	23.719	1154.526	894.670
282.614	23.565	1153.094	892.708
283.628	23.448	1151.772	891.016
284.643	23.371	1151.214	890.118
285.657	23.360	1150.434	889.381
286.672	23.250	1149.692	888.179
287.687	23.364	1148.930	888.080
288.701	23.509	1147.851	887.896
289.716	23.413	1147.278	886.894
290.730	23.424	1146.437	886.221
291.745	23.496	1145.741	885.961
292.760	23.457	1145.385	885.416
293.774	23.558	1145.232	885.722
294.789	23.822	1144.369	886.293
295.803	23.785	1143.671	885.488
296.818	23.656	1142.687	884.009
297.833	23.423	1141.798	882.080
298.847	23.367	1141.417	881.429
299.862	23.408	1140.572	880.904
300.876	23.485	1139.780	880.595
301.891	23.647	1139.468	881.084
302.906	23.745	1139.311	881.370
303.920	24.016	1138.710	882.171
304.935	24.014	1138.567	881.972
305.949	24.145	1137.874	882.006
306.964	24.179	1136.782	881.248
307.979	24.007	1135.790	879.551
308.993	23.907	1135.301	878.598
310.008	23.928	1134.658	878.128
311.022	23.995	1133.528	877.505
312.037	23.924	1133.028	876.692
313.052	23.739	1132.004	874.911
314.066	23.627	1130.431	873.068
315.081	23.312	1129.421	870.662
316.095	23.201	1128.440	869.286
317.110	23.215	1128.072	868.992
318.125	23.160	1127.690	868.349
319.139	23.085	1126.975	867.354
320.154	23.306	1125.954	867.574
321.168	23.226	1125.475	866.740
322.183	23.230	1125.080	866.378
323.197	23.364	1124.499	866.507
324.212	23.379	1124.104	866.202
325.227	23.400	1123.606	865.844
326.241	23.419	1122.939	865.346
327.256	23.398	1122.142	864.553
328.270	23.304	1120.839	863.014
329.285	23.377	1119.862	862.541
330.300	23.450	1119.194	862.302
331.314	23.355	1118.211	861.007
332.329	23.203	1117.587	859.714
333.343	23.330	1116.841	859.678
334.358	23.596	1116.235	860.426
335.373	23.850	1115.517	861.027
336.387	23.929	1115.280	861.150
337.402	23.940	1114.442	860.484
338.416	23.920	1113.988	859.958
339.431	24.023	1113.538	860.034
340.446	24.163	1113.000	860.218
341.460	24.456	1112.420	861.106
342.475	24.600	1111.502	861.016
343.489	24.402	1111.490	859.977
344.504	24.473	1110.945	859.821
345.519	24.593	1109.554	859.242
346.533	24.753	1108.377	859.022
347.548	24.706	1108.010	858.439
348.562	24.629	1107.001	857.212
349.577	24.182	1106.007	854.224
350.592	23.878	1105.047	851.949
351.606	23.803	1103.757	850.521
352.621	23.649	1103.216	849.292
353.635	23.562	1102.552	848.290
354.650	23.660	1101.680	848.012
355.665	23.729	1101.040	847.773
356.679	23.874	1100.680	848.113
357.694	23.923	1100.420	848.072
358.708	24.119	1099.206	847.994
359.723	24.131	1098.800	847.662
360.738	24.133	1098.547	847.404
361.752	24.083	1097.946	846.626
362.767	24.128	1097.004	846.038
363.781	24.054	1096.596	845.300
364.796	24.368	1096.070	846.309
365.810	24.517	1095.881	846.795
366.825	24.695	1095.654	847.385
367.840	24.948	1095.182	848.146
368.854	24.993	1094.829	848.009
369.869	24.873	1094.110	846.807
370.883	24.681	1092.883	844.875
371.898	24.532	1091.780	843.244
372.913	24.519	1091.139	842.617
373.927	24.655	1090.950	843.036
374.942	24.775	1090.754	843.379
375.956	24.761	1090.065	842.702
376.971	24.660	1089.012	841.341
377.986	24.740	1088.620	841.336
379.000	24.874	1088.710	841.964
380.015	24.999	1088.231	842.104
381.029	25.156	1087.136	841.920
382.044	24.961	1086.663	840.567
383.059	24.801	1086.155	839.347
384.073	24.835	1085.285	838.762
385.088	24.984	1084.354	838.664
386.102	24.802	1083.491	837.070
387.117	24.642	1081.758	834.911
388.132	24.276	1081.126	832.643
389.146	24.429	1080.068	832.468
390.161	24.407	1079.065	831.517
391.175	24.339	1078.510	830.698
392.190	24.428	1078.514	831.040
393.205	24.807	1078.205	832.495
394.219	24.755	1077.034	831.277
395.234	24.680	1075.705	829.828
396.248	24.316	1074.964	827.494
397.263	24.487	1073.823	827.337
398.278	24.217	1073.394	825.683
399.292	24.302	1072.303	825.160
400.307	24.315	1071.852	824.800
401.321	24.089	1071.350	823.296
402.336	23.942	1070.371	821.791
403.350	24.125	1069.216	821.680
404.365	24.280	1069.100	822.231
405.380	24.438	1068.377	822.332
406.394	24.422	1067.860	821.787
407.409	24.635	1067.570	822.472
408.423	24.910	1067.037	823.252
409.438	25.061	1066.299	823.304
410.453	25.091	1065.880	823.045
411.467	25.111	1065.025	822.402
412.482	25.119	1064.598	822.037
413.496	25.298	1064.030	822.346
414.511	25.259	1063.870	821.972
415.526	25.378	1063.765	822.362
416.540	25.530	1063.295	822.622
417.555	25.433	1061.948	821.062
418.569	25.278	1061.579	819.997
419.584	25.233	1060.847	819.154
420.599	25.088	1060.450	818.112
421.613	155.590	1403.979	1797.182
422.628	143.045	1454.023	1797.273
