DTS Sentinel unit serial number:	SN413079Multiplexer serial number:	ORYXHardware model number:	OX4-SRSoftware version number:	ORYX F/W v4.00 Oryx Data Collector v3.7.2.0data status	okinstallation	princeton_trtdifferential loss correction	single-endedforward channel	channel 2reverse channel	N/Adate	2019/09/19time	01:27:35forward acquisition time	60.00reverse acquisition time	0.00gamma	496.2192k internal	0.2353k external	0.2353temperature offset calibration	1.0018default loss term (dB/km)	0.3790temperature slope calibration	1.0000multiplexer offset coefficient	1.0000multiplexer slope coefficient	1.0000fibre end	0.00T internal ref (°C)	21.62T ext. ref 1 (°C)	0.70T ext. ref 2 (°C)	15.14length (m)	temperature (°C)	Stokes	anti-Stokes-747.200	-15.338	0.159	0.101
-746.185	11.670	-0.460	0.352
-745.171	-42.449	-0.216	0.110
-744.156	-200.000	-0.009	0.209
-743.142	171.987	0.053	0.075
-742.127	-10.377	0.230	0.152
-741.112	46.047	-0.130	0.120
-740.098	-200.000	-0.056	0.393
-739.083	110.374	0.190	0.227
-738.069	-200.000	-0.035	0.547
-737.054	-44.133	0.252	0.126
-736.039	-69.158	-0.138	-0.053
-735.025	-9.654	0.133	-0.088
-734.010	800.000	-0.062	-0.234
-732.996	-200.000	-0.027	-0.167
-731.981	14.491	0.245	-0.190
-730.966	87.187	-0.104	0.114
-729.952	-143.576	0.201	-0.019
-728.937	27.891	-0.171	-0.144
-727.923	-79.692	0.086	-0.029
-726.908	-42.415	-0.285	0.145
-725.894	680.926	0.087	0.226
-724.879	64.149	-0.307	0.308
-723.864	785.371	-0.050	0.137
-722.850	58.160	0.094	-0.092
-721.835	-78.549	0.065	0.022
-720.821	479.524	-0.175	-0.396
-719.806	-200.000	0.029	-0.317
-718.791	-200.000	0.086	0.440
-717.777	60.019	-0.082	0.081
-716.762	33.189	0.199	-0.172
-715.748	-146.436	-0.095	0.008
-714.733	-80.153	-0.364	-0.121
-713.718	454.161	0.013	-0.029
-712.704	326.474	-0.099	0.189
-711.689	768.436	0.088	-0.239
-710.675	800.000	0.019	0.067
-709.660	115.065	0.064	-0.078
-708.645	-83.637	0.084	0.027
-707.631	100.864	-0.175	0.203
-706.616	-200.000	-0.000	-0.356
-705.602	490.531	-0.082	-0.186
-704.587	-200.000	-0.004	0.083
-703.572	-29.470	0.312	-0.178
-702.558	800.000	0.038	0.145
-701.543	-103.540	0.270	-0.063
-700.529	-73.401	-0.228	-0.083
-699.514	-200.000	-0.008	-0.110
-698.499	-136.062	0.026	-0.003
-697.485	-87.365	0.440	-0.133
-696.470	169.512	-0.128	-0.182
-695.456	153.297	-0.131	-0.178
-694.441	116.311	0.073	0.090
-693.426	-39.385	0.160	0.083
-692.412	-52.596	-0.130	-0.060
-691.397	-200.000	0.044	0.236
-690.383	-111.960	0.179	0.036
-689.368	-120.530	0.070	-0.012
-688.354	-89.712	-0.337	0.098
-687.339	800.000	0.023	0.080
-686.324	-21.644	0.056	0.034
-685.310	530.554	-0.007	0.016
-684.295	800.000	-0.040	0.157
-683.281	40.321	-0.134	0.120
-682.266	800.000	0.025	-0.094
-681.251	483.633	-0.052	-0.118
-680.237	-3.406	0.222	-0.154
-679.222	-50.150	-0.107	-0.050
-678.208	13.964	-0.215	-0.167
-677.193	-163.300	0.076	-0.004
-676.178	800.000	0.018	-0.068
-675.164	210.443	-0.034	0.052
-674.149	283.201	-0.072	0.129
-673.135	28.814	-0.202	-0.170
-672.120	-87.319	0.132	-0.040
-671.105	800.000	-0.042	-0.148
-670.091	2.546	0.061	-0.044
-669.076	-133.612	0.235	0.029
-668.062	800.000	-0.021	0.070
-667.047	207.505	-0.235	-0.364
-666.032	-200.000	0.010	0.160
-665.018	-200.000	-0.007	0.212
-664.003	-200.000	0.004	0.219
-662.989	-200.000	-0.021	-0.230
-661.974	649.012	0.080	0.204
-660.959	-78.639	-0.250	0.085
-659.945	-23.091	-0.205	-0.123
-658.930	-59.953	-0.067	0.028
-657.916	628.172	0.059	-0.147
-656.901	-74.560	0.269	-0.096
-655.886	166.891	0.010	0.014
-654.872	-200.000	0.065	-0.403
-653.857	800.000	-0.083	0.263
-652.843	-66.131	-0.259	0.103
-651.828	-2.373	0.320	0.223
-650.814	-39.191	-0.162	0.085
-649.799	18.856	0.375	0.298
-648.784	103.519	0.087	-0.101
-647.770	54.784	-0.176	-0.169
-646.755	12.237	0.054	-0.042
-645.741	-43.759	0.274	0.137
-644.726	60.188	-0.188	0.185
-643.711	421.876	0.061	0.130
-642.697	490.341	-0.211	-0.479
-641.682	-130.950	0.066	-0.009
-640.668	-116.577	0.070	0.013
-639.653	800.000	0.060	-0.238
-638.638	800.000	0.093	-0.350
-637.624	-154.741	-0.065	-0.004
-636.609	502.934	-0.033	-0.075
-635.595	-200.000	-0.023	-0.245
-634.580	-145.338	-0.188	0.017
-633.565	63.117	0.322	-0.320
-632.551	119.884	-0.307	-0.378
-631.536	28.012	-0.192	-0.161
-630.522	-148.500	0.125	-0.010
-629.507	147.091	-0.161	-0.215
-628.492	800.000	0.071	0.304
-627.478	-50.014	-0.186	-0.087
-626.463	-135.487	0.214	-0.025
-625.449	800.000	0.144	-0.480
-624.434	-116.201	-0.308	-0.057
-623.419	-23.230	-0.068	0.040
-622.405	-81.914	-0.318	0.103
-621.390	540.426	-0.056	0.132
-620.376	-100.537	0.328	0.080
-619.361	800.000	-0.050	-0.172
-618.346	16.393	-0.087	0.069
-617.332	-62.787	0.065	-0.027
-616.317	-200.000	0.012	0.184
-615.303	-200.000	0.038	-0.192
-614.288	40.354	0.168	-0.150
-613.273	-30.572	-0.240	0.135
-612.259	8.208	0.215	0.160
-611.244	7.780	0.235	-0.175
-610.230	-1.431	-0.351	-0.246
-609.215	272.758	0.123	-0.216
-608.201	-51.012	-0.206	0.096
-607.186	126.801	-0.214	0.268
-606.171	-23.353	-0.326	0.194
-605.157	800.000	0.040	0.152
-604.142	-67.805	0.197	0.077
-603.128	800.000	0.060	-0.166
-602.113	146.820	-0.052	-0.069
-601.098	305.431	-0.120	-0.222
-600.084	-200.000	0.008	-0.176
-599.069	-90.442	0.144	0.041
-598.055	267.815	-0.114	-0.198
-597.040	-157.515	-0.306	-0.018
-596.025	-103.532	-0.273	0.064
-595.011	-4.838	0.117	-0.080
-593.996	800.000	-0.072	-0.255
-592.982	299.881	0.168	-0.306
-591.967	-200.000	0.033	0.361
-590.952	-133.674	-0.165	-0.020
-589.938	320.006	0.086	0.162
-588.923	6.960	-0.305	-0.225
-587.909	329.110	0.061	0.116
-586.894	-96.327	-0.160	-0.042
-585.879	-200.000	0.034	-0.216
-584.865	-200.000	0.014	0.339
-583.850	-0.881	-0.050	-0.035
-582.836	-45.116	0.257	-0.126
-581.821	-92.308	-0.158	0.044
-580.806	45.255	0.152	0.139
-579.792	-105.634	0.167	-0.038
-578.777	131.162	0.253	0.322
-577.763	-99.980	-0.099	0.024
-576.748	620.064	0.114	0.284
-575.733	-104.734	-0.230	-0.052
-574.719	0.425	-0.082	-0.058
-573.704	-74.329	-0.172	0.062
-572.690	-200.000	0.017	-0.178
-571.675	-121.155	-0.196	0.032
-570.661	-109.407	0.249	0.052
-569.646	-119.078	-0.188	-0.033
-568.631	-117.363	0.348	-0.062
-567.617	545.200	-0.054	0.127
-566.602	-43.324	0.051	-0.025
-565.588	-51.278	-0.221	0.102
-564.573	-83.543	0.374	0.119
-563.558	-117.486	0.131	0.023
-562.544	31.308	0.146	0.124
-561.529	637.126	-0.044	-0.110
-560.515	-114.414	-0.088	0.017
-559.500	800.000	-0.054	0.225
-558.485	-119.758	-0.373	-0.064
-557.471	800.000	-0.099	0.324
-556.456	38.425	0.053	0.047
-555.442	72.306	0.212	0.218
-554.427	390.147	-0.085	0.175
-553.412	-28.331	0.225	-0.129
-552.398	337.648	0.047	0.091
-551.383	111.939	0.053	0.064
-550.369	-23.581	0.278	0.165
-549.354	561.491	0.074	0.177
-548.339	-101.460	-0.085	0.020
-547.325	-80.935	-0.274	-0.090
-546.310	-200.000	-0.056	0.249
-545.296	576.995	-0.100	-0.241
-544.281	800.000	0.073	-0.227
-543.266	800.000	0.038	-0.116
-542.252	510.211	-0.048	0.111
-541.237	83.637	-0.185	0.200
-540.223	283.991	0.053	0.094
-539.208	-200.000	0.033	-0.256
-538.193	-93.077	0.271	-0.075
-537.179	-30.305	-0.289	0.162
-536.164	-53.628	-0.372	-0.168
-535.150	228.465	-0.089	-0.144
-534.135	43.587	0.221	-0.200
-533.121	184.574	0.119	0.174
-532.106	104.245	0.026	0.030
-531.091	-200.000	-0.034	0.177
-530.077	-8.650	-0.185	-0.123
-529.062	273.249	0.118	-0.206
-528.048	-45.699	0.356	-0.174
-527.033	-131.640	-0.159	-0.021
-526.018	-78.750	-0.258	0.087
-525.004	800.000	-0.036	0.118
-523.989	-5.142	0.229	0.156
-522.975	-101.124	-0.082	-0.020
-521.960	-39.831	-0.005	-0.003
-520.945	-12.108	0.062	0.040
-519.931	59.539	-0.161	0.157
-518.916	-39.413	0.057	0.030
-517.902	519.501	-0.028	0.065
-516.887	-200.000	-0.049	-0.268
-515.872	-118.486	-0.177	0.031
-514.858	-38.869	0.162	-0.084
-513.843	800.000	0.027	-0.097
-512.829	-128.034	-0.089	-0.013
-511.814	196.469	-0.126	0.189
-510.799	-22.591	-0.108	-0.065
-509.785	603.831	0.021	-0.051
-508.770	-132.410	-0.260	-0.033
-507.756	419.463	-0.196	-0.415
-506.741	59.552	0.186	0.181
-505.726	-200.000	0.018	0.270
-504.712	-147.286	-0.231	0.019
-503.697	609.785	0.082	-0.203
-502.683	490.116	0.136	0.308
-501.668	309.547	-0.116	0.214
-500.653	175.514	0.111	-0.158
-499.639	-101.785	-0.223	-0.053
-498.624	441.849	-0.080	-0.173
-497.610	303.849	-0.147	-0.269
-496.595	-200.000	0.023	-0.219
-495.581	698.791	0.018	-0.047
-494.566	-48.645	0.197	-0.094
-493.551	-23.177	-0.161	-0.095
-492.537	0.762	0.078	-0.055
-491.522	46.218	-0.114	0.105
-490.508	-94.269	0.501	-0.135
-489.493	-123.216	-0.215	-0.034
-488.478	409.511	-0.090	-0.188
-487.464	800.000	-0.039	0.158
-486.449	168.751	-0.223	0.314
-485.435	95.838	0.143	0.161
-484.420	-200.000	-0.029	-0.282
-483.405	-200.000	-0.004	0.272
-482.391	800.000	-0.093	-0.325
-481.376	-200.000	0.004	-0.090
-480.362	77.241	-0.072	-0.075
-479.347	-74.971	-0.027	0.009
-478.332	109.573	0.113	0.134
-477.318	327.222	0.044	-0.083
-476.303	-200.000	0.038	-0.282
-475.289	175.938	-0.089	0.127
-474.274	340.430	-0.221	0.426
-473.259	25.986	-0.019	-0.016
-472.245	1.844	-0.192	0.137
-471.230	-200.000	0.013	0.086
-470.216	12.558	0.299	-0.228
-469.201	-52.150	0.336	0.154
-468.186	-65.041	-0.278	-0.111
-467.172	-11.132	0.084	-0.054
-466.157	78.139	0.087	-0.092
-465.143	-152.475	-0.162	0.011
-464.128	458.108	-0.079	-0.173
-463.113	357.694	0.178	-0.351
-462.099	211.121	0.135	0.209
-461.084	-79.563	-0.025	-0.008
-460.070	-200.000	0.102	-0.518
-459.055	800.000	-0.074	0.235
-458.040	10.914	0.169	0.127
-457.026	-200.000	-0.042	0.231
-456.011	115.350	0.163	0.196
-454.997	278.503	-0.081	0.142
-453.982	147.543	-0.142	0.189
-452.968	-79.626	0.105	0.035
-451.953	800.000	-0.047	-0.198
-450.938	50.454	0.249	-0.232
-449.924	-200.000	-0.011	-0.451
-448.909	-10.477	-0.246	0.161
-447.895	-58.980	0.265	-0.113
-446.880	800.000	-0.067	0.225
-445.865	113.981	0.120	0.144
-444.851	-16.120	-0.287	-0.180
-443.836	538.839	-0.087	0.203
-442.822	-122.438	0.154	-0.025
-441.807	-71.128	-0.199	0.074
-440.792	213.727	0.041	0.064
-439.778	-116.116	0.117	0.021
-438.763	-105.513	0.257	-0.057
-437.749	-200.000	0.029	0.152
-436.734	597.276	-0.105	0.257
-435.719	-107.602	0.235	0.051
-434.705	-96.907	0.091	0.023
-433.690	299.094	-0.116	0.211
-432.676	-200.000	0.001	0.355
-431.661	-200.000	0.010	0.124
-430.646	-16.314	-0.104	-0.065
-429.632	-109.950	0.096	0.020
-428.617	138.158	0.032	-0.041
-427.603	334.828	0.065	-0.124
-426.588	-31.863	-0.074	0.041
-425.573	-58.263	0.259	0.111
-424.559	8.832	-0.138	0.102
-423.544	-200.000	-0.051	0.288
-422.530	-200.000	0.070	-0.370
-421.515	-89.932	0.329	0.095
-420.500	-101.911	-0.124	-0.029
-419.486	800.000	0.038	-0.160
-418.471	511.040	-0.035	0.081
-417.457	279.325	0.039	0.069
-416.442	-105.008	0.114	-0.026
-415.428	-60.686	-0.048	0.020
-414.413	-145.919	0.067	0.006
-413.398	-120.408	-0.227	-0.038
-412.384	332.682	-0.062	-0.119
-411.369	-37.200	0.118	-0.062
-410.355	-45.357	-0.112	-0.055
-409.340	-200.000	0.029	0.265
-408.325	616.047	0.067	0.165
-407.311	-200.000	0.021	0.491
-406.296	-200.000	-0.000	-0.114
-405.282	159.859	-0.079	-0.108
-404.267	-96.299	-0.383	-0.100
-403.252	-87.841	0.310	0.092
-402.238	-200.000	0.008	0.130
-401.223	506.867	-0.052	-0.118
-400.209	135.915	0.114	0.146
-399.194	-156.117	0.380	-0.024
-398.179	-200.000	-0.009	-0.166
-397.165	171.942	-0.238	0.336
-396.150	-200.000	0.006	0.269
-395.136	-8.119	-0.310	-0.205
-394.121	232.457	-0.080	0.129
-393.106	-90.277	0.292	-0.084
-392.092	32.645	-0.161	0.137
-391.077	308.446	0.152	0.278
-390.063	800.000	0.022	0.093
-389.048	561.107	-0.105	0.251
-388.033	51.662	-0.343	-0.321
-387.019	-43.092	0.306	-0.153
-386.004	82.194	-0.180	0.192
-384.990	-47.980	-0.366	0.174
-383.975	112.718	-0.155	-0.184
-382.960	386.603	0.059	0.119
-381.946	-89.061	-0.178	-0.052
-380.931	-95.181	0.155	0.041
-379.917	-200.000	-0.013	-0.247
-378.902	218.892	-0.198	-0.311
-377.888	-200.000	-0.002	-0.049
-376.873	-93.336	-0.194	0.053
-375.858	-7.960	-0.161	-0.107
-374.844	216.792	-0.160	-0.250
-373.829	-200.000	-0.005	-0.199
-372.815	-89.371	-0.031	0.009
-371.800	-200.000	-0.054	0.264
-370.785	-200.000	0.021	0.370
-369.771	53.607	-0.256	-0.241
-368.756	-200.000	-0.023	-0.342
-367.742	-57.429	0.081	0.035
-366.727	533.311	0.031	-0.071
-365.712	-88.519	0.050	0.015
-364.698	-200.000	0.008	-0.171
-363.683	800.000	-0.031	-0.084
-362.669	64.046	0.205	0.202
-361.654	-92.570	-0.445	-0.123
-360.639	800.000	-0.068	0.279
-359.625	83.840	-0.125	-0.134
-358.610	-187.239	0.403	-0.005
-357.596	-58.670	-0.078	-0.033
-356.581	-60.031	0.233	-0.098
-355.566	41.994	-0.121	0.108
-354.552	-26.876	0.153	-0.088
-353.537	-130.680	0.248	-0.033
-352.523	-150.417	0.279	0.021
-351.508	140.266	-0.274	0.355
-350.493	411.895	-0.051	-0.106
-349.479	-200.000	0.058	-0.342
-348.464	448.781	0.148	-0.319
-347.450	-94.388	0.254	-0.068
-346.435	-200.000	-0.009	0.113
-345.420	-70.058	0.089	0.033
-344.406	127.664	-0.083	0.104
-343.391	-12.113	-0.143	-0.092
-342.377	148.206	-0.131	-0.174
-341.362	50.778	0.112	0.104
-340.348	68.727	0.111	0.111
-339.333	495.491	-0.064	-0.144
-338.318	-96.640	-0.302	-0.078
-337.304	646.767	0.100	-0.250
-336.289	-48.170	0.369	0.175
-335.275	-4.730	0.074	-0.050
-334.260	-54.804	0.428	-0.190
-333.245	-165.673	0.257	-0.011
-332.231	800.000	0.019	-0.067
-331.216	-5.200	-0.142	0.096
-330.202	-33.782	-0.142	-0.077
-329.187	-93.829	0.077	-0.021
-328.172	-112.018	0.177	-0.035
-327.158	722.291	0.057	0.148
-326.143	-72.578	-0.403	-0.146
-325.129	126.474	-0.080	-0.099
-324.114	232.595	-0.119	-0.192
-323.099	187.483	-0.280	0.410
-322.085	800.000	0.117	0.409
-321.070	265.082	0.056	-0.096
-320.056	45.361	-0.111	-0.100
-319.041	47.506	-0.163	-0.149
-318.026	-115.248	-0.068	-0.013
-317.012	-200.000	-0.229	0.000
-315.997	-78.160	0.218	0.074
-314.983	-176.502	0.174	-0.004
-313.968	-42.674	0.250	0.125
-312.953	-9.215	0.208	0.136
-311.939	450.383	0.044	0.096
-310.924	800.000	-0.119	-0.416
-309.910	18.874	-0.196	-0.154
-308.895	-165.982	-0.102	-0.004
-307.880	83.941	0.307	-0.328
-306.866	-18.284	-0.399	0.244
-305.851	421.304	-0.183	-0.384
-304.837	36.540	-0.140	-0.121
-303.822	800.000	0.020	-0.067
-302.807	-3.199	-0.203	-0.139
-301.793	644.941	0.139	0.347
-300.778	374.356	0.189	0.376
-299.764	151.351	-0.205	0.273
-298.749	-4.778	0.271	-0.183
-297.735	8.891	-0.231	0.171
-296.720	-200.000	0.063	-0.277
-295.705	243.255	0.121	-0.199
-294.691	-155.778	-0.298	-0.019
-293.676	672.473	0.149	0.378
-292.662	-139.799	0.426	0.044
-291.647	800.000	-0.071	-0.271
-290.632	-200.000	0.024	0.464
-289.618	-49.764	0.215	-0.100
-288.603	28.863	-0.229	-0.190
-287.589	-172.322	0.378	0.012
-286.574	-38.951	-0.252	-0.130
-285.559	119.859	0.069	0.084
-284.545	463.394	-0.021	-0.045
-283.530	-46.165	0.305	-0.147
-282.516	-200.000	-0.008	-0.098
-281.501	-23.872	-0.051	0.030
-280.486	-118.762	0.108	-0.019
-279.472	66.394	-0.108	0.108
-278.457	-200.000	-0.040	0.250
-277.443	-135.870	-0.126	-0.015
-276.428	241.555	0.150	0.245
-275.413	167.756	0.185	0.257
-274.399	-88.065	0.116	-0.034
-273.384	-33.686	-0.228	-0.123
-272.370	-6.508	0.081	0.054
-271.355	-120.526	-0.246	0.041
-270.340	678.232	0.041	-0.105
-269.326	-200.000	-0.044	0.316
-268.311	-50.598	0.147	0.068
-267.297	428.298	0.156	0.329
-266.282	50.675	-0.074	0.069
-265.267	217.236	0.028	-0.044
-264.253	19.733	0.125	-0.099
-263.238	166.148	0.221	-0.307
-262.224	57.230	-0.116	-0.111
-261.209	82.091	-0.116	0.123
-260.195	612.240	-0.101	-0.247
-259.180	507.895	0.187	0.424
-258.165	-200.000	0.012	0.118
-257.151	-71.865	-0.251	-0.092
-256.136	-99.492	0.266	-0.065
-255.122	-76.043	0.236	0.082
-254.107	-125.431	0.485	-0.072
-253.092	-81.717	-0.220	-0.071
-252.078	81.788	-0.365	-0.386
-251.063	175.192	0.203	0.287
-250.049	800.000	0.030	0.113
-249.034	-88.007	0.256	0.075
-248.019	496.487	-0.056	0.125
-247.005	-155.032	0.290	-0.019
-245.990	-31.206	-0.075	0.041
-244.976	-118.527	-0.085	-0.015
-243.961	-85.451	0.163	0.050
-242.946	800.000	-0.057	0.157
-241.932	-152.459	0.386	-0.027
-240.917	-200.000	0.006	-0.227
-239.903	800.000	0.067	0.205
-238.888	173.021	0.081	0.114
-237.873	-200.000	0.056	0.245
-236.859	83.495	0.119	0.127
-235.844	800.000	0.041	0.126
-234.830	-139.559	-0.245	-0.026
-233.815	-200.000	0.063	-0.274
-232.800	-169.062	-0.227	0.008
-231.786	-14.129	0.250	0.158
-230.771	-108.650	-0.271	0.057
-229.757	-196.186	-0.292	0.002
-228.742	-200.000	-0.040	0.199
-227.727	-76.245	-0.147	0.050
-226.713	-200.000	0.005	-0.046
-225.698	20.827	0.228	0.180
-224.684	322.379	0.101	0.188
-223.669	-94.628	0.208	-0.055
-222.655	22.393	0.175	0.140
-221.640	-90.899	-0.285	0.080
-220.625	-92.396	-0.366	0.101
-219.611	65.677	0.086	-0.085
-218.596	-122.860	0.160	0.025
-217.582	157.509	-0.128	0.173
-216.567	184.331	-0.064	0.092
-215.552	-167.231	0.257	0.010
-214.538	170.806	-0.072	-0.100
-213.523	-113.093	0.147	0.028
-212.509	-111.630	-0.396	-0.079
-211.494	-4.948	-0.155	-0.104
-210.479	71.682	0.105	0.107
-209.465	-37.397	0.057	-0.030
-208.450	-24.356	-0.416	0.242
-207.436	-200.000	-0.001	0.212
-206.421	-98.205	-0.110	-0.027
-205.406	18.136	0.306	0.238
-204.392	289.329	0.177	-0.313
-203.377	800.000	-0.028	0.078
-202.363	-200.000	-0.018	-0.076
-201.348	-73.917	-0.223	0.079
-200.333	143.484	0.213	-0.277
-199.319	147.045	-0.187	-0.246
-198.304	376.081	-0.056	0.112
-197.290	58.682	-0.164	0.157
-196.275	226.545	-0.086	-0.135
-195.260	-116.643	0.114	0.021
-194.246	340.448	0.117	0.222
-193.231	-150.100	0.294	0.022
-192.217	800.000	-0.026	-0.084
-191.202	184.736	0.102	0.147
-190.187	26.327	0.084	-0.069
-189.173	5.625	0.240	0.173
-188.158	-200.000	-0.045	-0.435
-187.144	-200.000	-0.050	-0.291
-186.129	333.480	0.021	0.040
-185.114	-32.975	0.347	0.188
-184.100	-200.000	0.020	-0.150
-183.085	-25.671	-0.430	-0.247
-182.071	-139.242	-0.135	0.014
-181.056	12.692	0.146	0.110
-180.042	800.000	-0.049	-0.169
-179.027	7.375	-0.057	-0.042
-178.012	66.566	0.180	-0.178
-176.998	-3.592	0.177	0.120
-175.983	-109.449	-0.078	0.016
-174.969	800.000	0.095	-0.309
-173.954	-26.758	0.072	0.041
-172.939	660.947	0.096	0.242
-171.925	40.208	-0.365	-0.320
-170.910	3.868	-0.161	0.115
-169.896	-200.000	0.061	-0.301
-168.881	241.801	0.120	-0.195
-167.866	340.584	0.131	0.250
-166.852	315.184	-0.090	0.166
-165.837	800.000	-0.069	0.210
-164.823	-112.767	0.097	0.019
-163.808	-116.788	-0.117	0.021
-162.793	-200.000	0.031	-0.327
-161.779	-63.815	0.366	-0.146
-160.764	43.985	0.174	0.155
-159.750	240.706	-0.060	0.097
-158.735	-115.810	-0.104	0.019
-157.720	-114.906	-0.084	0.016
-156.706	-200.000	0.011	-0.066
-155.691	-152.078	-0.390	-0.028
-154.677	-53.422	0.008	0.004
-153.662	-51.938	0.298	-0.135
-152.647	800.000	-0.077	0.232
-151.633	800.000	0.080	-0.240
-150.618	42.629	-0.139	0.123
-149.604	189.315	-0.131	-0.191
-148.589	-200.000	-0.040	-0.300
-147.574	2.185	0.364	-0.256
-146.560	214.656	0.058	-0.090
-145.545	391.518	0.052	0.105
-144.531	800.000	0.103	-0.410
-143.516	537.610	0.050	0.115
-142.502	600.184	0.094	0.228
-141.487	55.114	-0.087	0.082
-140.472	125.444	-0.260	0.320
-139.458	338.578	-0.116	0.219
-138.443	-54.186	0.221	-0.098
-137.429	54.459	-0.218	-0.205
-136.414	-140.210	0.083	0.009
-135.399	-200.000	0.005	0.122
-134.385	-200.000	0.000	0.279
-133.370	-200.000	-0.051	0.242
-132.356	-142.353	0.398	-0.038
-131.341	-200.000	0.001	0.145
-130.326	-29.704	0.166	0.092
-129.312	-200.000	-0.032	0.168
-128.297	-105.662	0.309	-0.068
-127.283	68.420	0.039	0.039
-126.268	-22.216	0.066	0.039
-125.253	-26.125	-0.262	0.150
-124.239	-137.226	-0.190	-0.021
-123.224	-123.612	-0.310	0.048
-122.210	15.167	0.171	0.130
-121.195	-69.954	0.328	0.122
-120.180	-163.687	-0.307	-0.014
-119.166	81.561	0.124	-0.131
-118.151	20.419	0.307	0.241
-117.137	-31.242	0.267	-0.146
-116.122	800.000	-0.054	-0.174
-115.107	484.319	-0.060	-0.134
-114.093	-137.254	-0.207	-0.023
-113.078	-200.000	-0.006	-0.137
-112.064	151.773	0.276	0.366
-111.049	686.188	-0.137	-0.347
-110.034	-74.878	0.508	-0.177
-109.020	33.751	-0.251	0.212
-108.005	38.541	-0.053	0.046
-106.991	-70.191	0.198	0.073
-105.976	129.853	0.044	-0.054
-104.962	800.000	-0.004	-0.017
-103.947	8.637	0.115	0.084
-102.932	18.500	-0.100	-0.078
-101.918	621.198	0.005	0.011
-100.903	-108.693	0.244	0.051
-99.889	109.783	-0.089	-0.104
-98.874	-147.932	-0.281	-0.023
-97.859	61.568	0.083	0.081
-96.845	63.794	0.264	0.258
-95.830	-200.000	0.032	0.472
-94.816	-200.000	0.007	-0.140
-93.801	87.069	0.046	-0.049
-92.786	-134.014	-0.094	-0.011
-91.772	530.781	-0.055	0.126
-90.757	-83.046	0.139	0.044
-89.743	-148.973	0.039	-0.003
-88.728	-80.459	0.395	0.128
-87.713	-139.790	0.119	-0.012
-86.699	-165.406	0.154	-0.007
-85.684	-200.000	-0.131	0.586
-84.670	-164.743	-0.155	0.007
-83.655	-61.912	0.181	-0.074
-82.640	157.292	0.109	0.146
-81.626	3.922	0.081	-0.058
-80.611	-87.833	-0.216	0.063
-79.597	-38.798	-0.335	-0.172
-78.582	629.487	0.059	-0.144
-77.567	606.369	-0.013	0.032
-76.553	-35.817	0.229	0.120
-75.538	126.353	-0.372	-0.457
-74.524	-200.000	0.043	-0.304
-73.509	356.386	0.130	0.251
-72.494	72.224	0.193	-0.195
-71.480	272.392	0.100	0.171
-70.465	-104.394	0.179	-0.040
-69.451	-200.000	0.002	-0.108
-68.436	149.831	0.096	-0.126
-67.422	297.734	0.243	0.433
-66.407	122.678	-0.215	0.262
-65.392	-113.797	0.277	0.052
-64.378	-165.223	-0.124	0.005
-63.363	-31.676	0.174	-0.095
-62.349	-200.000	-0.020	0.213
-61.334	2.574	-1.217	-0.856
-60.319	108.483	0.635	0.736
-59.305	345.476	-0.630	-1.202
-58.290	644.966	0.690	1.710
-57.276	469.307	0.743	1.620
-56.261	-200.000	134.893	690.073
-55.246	351.480	1672.442	3213.264
-54.232	134.015	2814.565	3537.689
-53.217	85.249	2308.654	2458.291
-52.203	30.539	1904.836	1580.483
-51.188	24.496	1700.295	1364.682
-50.173	22.631	1661.719	1319.719
-49.159	44.912	1735.521	1550.164
-48.144	41.937	1744.646	1535.466
-47.130	24.284	1695.023	1358.622
-46.115	21.698	1679.529	1326.592
-45.100	21.510	1674.778	1321.367
-44.086	21.451	1672.444	1319.027
-43.071	21.535	1669.378	1317.189
-42.057	21.426	1667.335	1314.709
-41.042	21.490	1665.550	1313.727
-40.027	21.475	1664.036	1312.370
-39.013	21.457	1661.988	1310.570
-37.998	21.318	1660.751	1308.500
-36.984	21.521	1658.886	1308.494
-35.969	21.654	1657.684	1308.487
-34.954	21.621	1656.119	1306.959
-33.940	21.587	1654.203	1305.141
-32.925	21.582	1652.252	1303.514
-31.911	21.584	1651.116	1302.574
-30.896	21.704	1648.556	1301.394
-29.881	21.637	1647.920	1300.349
-28.867	21.658	1646.603	1299.407
-27.852	21.619	1644.682	1297.555
-26.838	21.679	1643.283	1296.843
-25.823	21.594	1642.490	1295.540
-24.809	21.665	1641.019	1294.846
-23.794	21.695	1639.220	1293.602
-22.779	21.684	1637.709	1292.274
-21.765	21.590	1636.326	1290.438
-20.750	21.622	1634.818	1289.436
-19.736	21.711	1633.174	1288.745
-18.721	21.599	1631.896	1286.862
-17.706	21.746	1630.294	1286.628
-16.692	21.606	1629.110	1284.612
-15.677	21.684	1627.601	1283.944
-14.663	21.676	1626.547	1283.005
-13.648	21.610	1625.275	1281.467
-12.633	21.665	1623.578	1280.476
-11.619	21.732	1621.657	1279.402
-10.604	21.634	1620.384	1277.633
-9.590	21.667	1618.666	1276.465
-8.575	21.692	1617.690	1275.830
-7.560	21.622	1616.883	1274.629
-6.546	21.679	1615.567	1273.956
-5.531	21.693	1614.332	1273.032
-4.517	21.672	1613.248	1271.976
-3.502	21.698	1611.919	1271.066
-2.487	21.736	1610.339	1270.048
-1.473	21.173	1598.009	1256.222
-0.458	18.136	1578.982	1219.590
0.556	13.500	1580.906	1187.478
1.571	11.291	1604.173	1188.761
2.586	11.153	1615.537	1196.061
3.600	10.374	1561.083	1150.118
4.615	6.039	1456.424	1044.152
5.629	1.603	1400.524	975.584
6.644	0.742	1394.079	965.512
7.659	0.660	1393.028	964.176
8.673	0.708	1392.136	963.777
9.688	0.690	1389.420	961.695
10.702	0.583	1386.012	958.575
11.717	2.823	1388.181	974.217
12.731	8.879	1398.154	1019.753
13.746	14.909	1407.032	1064.634
14.761	17.210	1409.760	1081.267
15.775	16.654	1408.282	1076.501
16.790	15.714	1405.756	1068.507
17.804	15.080	1402.849	1062.179
18.819	14.630	1401.712	1058.370
19.834	14.373	1400.480	1055.719
20.848	14.179	1399.624	1053.756
21.863	13.879	1398.085	1050.601
22.877	13.697	1396.721	1048.332
23.892	13.713	1395.446	1047.387
24.907	13.611	1394.977	1046.300
25.921	13.661	1393.910	1045.722
26.936	13.837	1393.114	1046.140
27.950	13.718	1392.463	1044.811
28.965	13.796	1390.917	1044.048
29.980	13.908	1390.298	1044.197
30.994	13.913	1389.153	1043.275
32.009	13.862	1388.539	1042.401
33.023	13.921	1386.938	1041.476
34.038	13.832	1386.113	1040.207
35.053	13.899	1384.519	1039.336
36.067	13.906	1383.970	1038.877
37.082	13.910	1382.922	1038.024
38.096	13.854	1382.174	1037.018
39.111	13.927	1381.072	1036.557
40.126	13.740	1380.761	1035.067
41.140	13.702	1379.643	1033.896
42.155	13.745	1378.625	1033.313
43.169	13.752	1379.047	1033.579
44.184	13.733	1378.507	1032.967
45.199	13.693	1378.587	1032.688
46.213	13.801	1377.322	1032.318
47.228	13.787	1376.352	1031.414
48.242	13.756	1375.442	1030.444
49.257	13.804	1373.777	1029.406
50.271	13.804	1372.198	1028.132
51.286	13.719	1371.122	1026.711
52.301	13.725	1369.889	1025.733
53.315	13.714	1368.678	1024.669
54.330	13.845	1367.409	1024.433
55.344	13.778	1365.965	1022.849
56.359	13.708	1365.416	1021.917
57.374	13.723	1364.022	1020.876
58.388	13.641	1363.679	1020.025
59.403	13.606	1363.432	1019.533
60.417	13.666	1362.730	1019.288
61.432	13.606	1361.752	1018.094
62.447	13.655	1360.274	1017.203
63.461	13.569	1359.344	1015.887
64.476	13.552	1358.099	1014.763
65.490	13.659	1356.941	1014.463
66.505	13.573	1355.536	1012.799
67.520	13.622	1354.236	1012.039
68.534	13.671	1352.981	1011.306
69.549	13.548	1352.273	1009.939
70.563	13.634	1350.965	1009.394
71.578	13.562	1350.121	1008.240
72.593	13.473	1349.234	1006.945
73.607	13.544	1348.092	1006.439
74.622	13.586	1347.565	1006.206
75.636	13.533	1346.724	1005.172
76.651	13.706	1345.763	1005.414
77.666	13.575	1345.826	1004.574
78.680	13.583	1344.624	1003.637
79.695	13.577	1343.867	1002.951
80.709	13.605	1343.020	1002.399
81.724	13.623	1342.503	1002.030
82.739	13.690	1341.397	1001.520
83.753	13.629	1340.560	1000.441
84.768	13.787	1339.119	1000.229
85.782	13.743	1337.974	999.023
86.797	13.695	1336.567	997.593
87.812	13.730	1335.409	996.851
88.826	13.726	1334.009	995.694
89.841	13.776	1333.069	995.203
90.855	13.801	1332.199	994.615
91.870	13.887	1331.128	994.242
92.884	13.804	1330.617	993.275
93.899	13.843	1329.783	992.802
94.914	13.929	1328.528	992.288
95.928	13.863	1328.114	991.498
96.943	13.803	1326.809	990.079
97.957	13.736	1325.979	988.971
98.972	13.854	1324.766	988.684
99.987	13.898	1323.592	987.982
101.001	13.815	1323.070	987.010
102.016	13.860	1322.056	986.430
103.030	13.823	1320.466	984.942
104.045	13.950	1319.515	984.896
105.060	13.834	1318.632	983.465
106.074	13.762	1317.455	982.070
107.089	13.697	1316.057	980.560
108.103	13.753	1314.518	979.656
109.118	13.731	1313.423	978.623
110.133	13.738	1312.354	977.779
111.147	13.736	1310.879	976.584
112.162	13.813	1309.560	975.968
113.176	13.759	1308.284	974.612
114.191	13.791	1307.664	974.254
115.206	13.724	1306.727	973.075
116.220	13.892	1305.077	972.744
117.235	13.820	1304.145	971.543
118.249	13.843	1302.967	970.716
119.264	13.767	1301.900	969.389
120.279	13.831	1300.530	968.657
121.293	13.685	1299.662	967.075
122.308	13.612	1298.930	966.015
123.322	13.726	1297.769	965.732
124.337	13.796	1296.369	965.012
125.352	13.762	1295.084	963.770
126.366	13.792	1294.083	963.119
127.381	13.696	1293.265	961.864
128.395	13.657	1292.034	960.638
129.410	13.795	1290.951	960.549
130.424	13.781	1290.253	959.861
131.439	13.713	1289.195	958.599
132.454	13.751	1288.350	958.102
133.468	13.768	1287.295	957.331
134.483	13.778	1286.682	956.852
135.497	13.838	1285.465	956.203
136.512	13.800	1283.939	954.767
137.527	13.739	1282.634	953.362
138.541	13.811	1280.901	952.404
139.556	13.703	1280.316	951.263
140.570	13.871	1278.567	950.842
141.585	13.920	1277.370	950.149
142.600	13.996	1275.908	949.409
143.614	13.909	1275.184	948.290
144.629	13.867	1274.009	947.093
145.643	13.829	1273.493	946.412
146.658	13.836	1272.346	945.516
147.673	13.951	1270.372	944.618
148.687	13.908	1268.935	943.219
149.702	13.969	1268.060	942.834
150.716	13.907	1266.771	941.439
151.731	13.918	1266.200	940.996
152.746	13.815	1264.654	939.179
153.760	14.051	1263.336	939.451
154.775	13.998	1261.861	937.974
155.789	14.040	1261.035	937.511
156.804	14.036	1259.963	936.609
157.819	14.009	1258.446	935.251
158.833	14.140	1257.641	935.301
159.848	14.064	1257.414	934.623
160.862	14.178	1255.846	934.018
161.877	13.974	1254.829	932.034
162.892	14.067	1253.234	931.285
163.906	14.052	1252.848	930.836
164.921	14.086	1252.148	930.422
165.935	14.109	1251.479	929.973
166.950	14.139	1250.400	929.257
167.964	14.064	1249.826	928.327
168.979	14.074	1249.235	927.859
169.994	14.199	1248.017	927.571
171.008	14.090	1247.722	926.665
172.023	14.184	1246.485	926.185
173.037	14.256	1245.723	925.940
174.052	14.208	1244.993	925.045
175.067	14.131	1243.652	923.543
176.081	14.170	1242.482	922.804
177.096	14.166	1241.666	922.099
178.110	14.221	1240.378	921.363
179.125	14.233	1239.126	920.415
180.140	14.248	1238.152	919.697
181.154	14.266	1236.965	918.830
182.169	14.228	1235.828	917.699
183.183	14.285	1234.358	916.838
184.198	14.368	1233.048	916.240
185.213	14.317	1232.200	915.248
186.227	14.307	1231.042	914.254
187.242	14.417	1229.858	913.895
188.256	14.431	1228.981	913.239
189.271	14.399	1228.087	912.319
190.286	14.329	1227.097	911.120
191.300	14.368	1226.159	910.558
192.315	14.296	1225.771	909.797
193.329	14.235	1224.831	908.683
194.344	14.291	1224.358	908.558
195.359	14.336	1223.847	908.346
196.373	14.427	1222.941	908.087
197.388	14.449	1222.295	907.647
198.402	14.593	1221.946	908.088
199.417	14.522	1221.368	907.193
200.432	14.542	1220.845	906.837
201.446	14.630	1219.696	906.377
202.461	14.708	1218.504	905.835
203.475	14.658	1217.904	905.036
204.490	14.640	1216.439	903.773
205.504	14.632	1215.262	902.773
206.519	14.539	1214.010	901.263
207.534	14.579	1213.275	900.852
208.548	14.677	1211.618	900.071
209.563	14.671	1211.263	899.698
210.577	14.748	1210.219	899.257
211.592	14.692	1209.402	898.270
212.607	14.708	1208.593	897.672
213.621	14.719	1207.425	896.786
214.636	14.670	1207.139	896.229
215.650	14.834	1205.830	896.059
216.665	14.717	1205.134	894.837
217.680	14.739	1204.208	894.189
218.694	14.785	1203.409	893.759
219.709	14.808	1202.545	893.164
220.723	14.818	1201.612	892.443
221.738	14.854	1201.362	892.374
222.753	14.897	1200.182	891.643
223.767	14.746	1199.485	890.244
224.782	14.878	1198.622	890.227
225.796	15.058	1197.836	890.522
226.811	14.977	1197.459	889.733
227.826	14.882	1196.586	888.500
228.840	14.981	1196.044	888.546
229.855	14.988	1195.285	887.942
230.869	14.980	1194.436	887.189
231.884	14.835	1193.817	885.882
232.899	15.003	1192.816	885.948
233.913	14.970	1192.306	885.317
234.928	14.910	1191.627	884.417
235.942	15.000	1190.478	883.960
236.957	14.945	1190.513	883.618
237.972	14.957	1189.316	882.719
238.986	14.905	1188.595	881.831
240.001	14.944	1187.795	881.361
241.015	15.059	1186.755	881.118
242.030	15.045	1185.955	880.373
243.045	15.021	1185.095	879.529
244.059	15.005	1184.702	879.079
245.074	15.088	1183.698	878.690
246.088	15.163	1182.756	878.305
247.103	15.184	1181.948	877.739
248.117	15.244	1181.237	877.448
249.132	15.245	1180.511	876.836
250.147	15.387	1179.465	876.723
251.161	15.303	1179.194	876.007
252.176	15.318	1178.412	875.425
253.190	15.405	1177.686	875.261
254.205	15.431	1177.472	875.158
255.220	15.481	1176.601	874.697
256.234	15.446	1176.007	873.995
257.249	15.575	1175.073	873.897
258.263	15.486	1174.656	873.042
259.278	15.446	1174.208	872.428
260.293	15.477	1173.616	872.070
261.307	15.508	1172.714	871.485
262.322	15.603	1172.357	871.635
263.336	15.570	1171.503	870.752
264.351	15.560	1170.605	869.956
265.366	15.585	1170.154	869.671
266.380	15.621	1169.482	869.283
267.395	15.687	1168.702	868.965
268.409	15.721	1167.948	868.503
269.424	15.603	1167.566	867.535
270.439	15.637	1166.932	867.163
271.453	15.655	1166.025	866.502
272.468	15.638	1164.908	865.511
273.482	15.669	1164.162	865.040
274.497	15.687	1163.472	864.544
275.512	15.764	1162.977	864.491
276.526	15.627	1162.602	863.435
277.541	15.723	1161.166	862.785
278.555	15.719	1160.752	862.380
279.570	15.774	1160.138	862.128
280.585	15.853	1158.663	861.359
281.599	15.879	1158.102	861.002
282.614	15.865	1157.021	860.051
283.628	15.828	1156.040	859.056
284.643	15.761	1155.161	857.984
285.657	15.962	1154.064	858.116
286.672	15.859	1153.350	856.984
287.687	15.851	1152.443	856.193
288.701	16.017	1151.694	856.405
289.716	15.942	1150.746	855.247
290.730	16.005	1150.287	855.150
291.745	15.938	1149.373	854.053
292.760	16.074	1148.898	854.313
293.774	16.094	1148.313	853.903
294.789	16.030	1147.981	853.260
295.803	16.117	1147.085	852.956
296.818	15.932	1146.408	851.442
297.833	16.050	1145.535	851.314
298.847	15.949	1144.809	850.189
299.862	16.082	1144.118	850.271
300.876	16.046	1143.490	849.549
301.891	16.127	1142.840	849.398
302.906	16.228	1141.460	848.807
303.920	16.203	1141.306	848.492
304.935	16.257	1140.442	848.044
305.949	16.307	1139.937	847.846
306.964	16.234	1139.261	846.902
307.979	16.229	1138.435	846.190
308.993	16.220	1137.666	845.498
310.008	16.260	1137.131	845.224
311.022	16.408	1136.163	845.172
312.037	16.357	1135.304	844.199
313.052	16.312	1134.355	843.194
314.066	16.309	1133.259	842.291
315.081	16.341	1132.678	841.943
316.095	16.302	1132.168	841.299
317.110	16.327	1131.197	840.625
318.125	16.332	1130.461	840.030
319.139	16.398	1129.843	839.826
320.154	16.298	1129.205	838.777
321.168	16.372	1128.281	838.387
322.183	16.302	1128.160	837.871
323.197	16.374	1127.204	837.448
324.212	16.377	1126.673	836.996
325.227	16.413	1126.038	836.624
326.241	16.423	1125.356	836.092
327.256	16.420	1124.672	835.496
328.270	16.414	1123.696	834.671
329.285	16.414	1123.065	834.128
330.300	16.459	1121.808	833.342
331.314	16.453	1121.010	832.646
332.329	16.541	1119.950	832.216
333.343	16.524	1119.102	831.429
334.358	16.450	1118.714	830.702
335.373	16.591	1117.343	830.304
336.387	16.589	1116.648	829.706
337.402	16.655	1115.898	829.399
338.416	16.685	1115.245	828.984
339.431	16.567	1114.975	828.135
340.446	16.616	1114.539	827.976
341.460	16.735	1113.469	827.690
342.475	16.798	1112.501	827.206
343.489	16.754	1111.971	826.524
344.504	16.873	1110.720	826.101
345.519	16.851	1109.877	825.295
346.533	16.867	1109.150	824.759
347.548	16.900	1108.476	824.344
348.562	16.855	1107.657	823.443
349.577	17.006	1106.584	823.307
350.592	16.832	1106.053	821.991
351.606	16.859	1105.211	821.425
352.621	16.846	1104.559	820.807
353.635	16.880	1103.759	820.303
354.650	16.914	1103.321	820.067
355.665	16.879	1102.394	819.139
356.679	16.881	1102.128	818.879
357.694	16.885	1101.576	818.415
358.708	16.973	1100.929	818.288
359.723	16.972	1099.858	817.414
360.738	16.972	1099.354	816.966
361.752	16.993	1098.638	816.461
362.767	17.017	1098.479	816.389
363.781	17.082	1097.713	816.060
364.796	17.112	1097.013	815.608
365.810	17.082	1096.431	814.960
366.825	17.149	1095.676	814.651
367.840	17.172	1095.268	814.381
368.854	17.209	1094.731	814.090
369.869	17.204	1094.324	813.690
370.883	17.042	1093.677	812.362
371.898	17.132	1092.471	811.827
372.913	17.092	1092.036	811.240
373.927	17.189	1091.520	811.248
374.942	17.205	1091.059	810.909
375.956	17.336	1089.925	810.617
376.971	17.286	1089.735	810.166
377.986	17.342	1089.344	810.073
379.000	17.294	1088.851	809.405
380.015	17.411	1087.921	809.198
381.029	17.473	1087.095	808.805
382.044	17.540	1086.284	808.451
383.059	17.347	1085.969	807.227
384.073	17.452	1085.213	807.092
385.088	17.635	1083.872	806.890
386.102	17.567	1083.179	805.982
387.117	17.509	1082.483	805.120
388.132	17.371	1081.743	803.846
389.146	17.381	1080.964	803.240
390.161	17.451	1079.511	802.420
391.175	17.510	1079.113	802.333
392.190	17.458	1078.167	801.312
393.205	17.558	1077.580	801.276
394.219	17.547	1077.084	800.785
395.234	17.502	1076.324	799.938
396.248	17.540	1075.061	799.108
397.263	17.432	1074.274	797.943
398.278	17.393	1073.833	797.362
399.292	17.522	1072.989	797.271
400.307	17.569	1072.229	796.857
401.321	17.637	1071.392	796.481
402.336	17.556	1070.713	795.526
403.350	17.536	1070.366	795.106
404.365	17.632	1069.479	794.824
405.380	17.708	1068.706	794.533
406.394	17.615	1068.244	793.686
407.409	17.724	1067.155	793.316
408.423	17.855	1066.355	793.256
409.438	17.779	1065.591	792.265
410.453	17.707	1065.411	791.729
411.467	17.739	1064.761	791.322
412.482	17.824	1063.749	790.895
413.496	17.931	1063.482	791.123
414.511	17.879	1062.833	790.328
415.526	18.065	1061.642	790.234
416.540	18.026	1061.330	789.750
417.555	17.997	1060.715	789.091
418.569	18.057	1060.223	788.933
419.584	17.941	1060.223	788.326
420.599	18.034	1059.239	787.953
421.613	109.843	1332.121	1490.819
422.628	101.394	1371.813	1490.886
