DTS Sentinel unit serial number:	SN413079Multiplexer serial number:	ORYXHardware model number:	OX4-SRSoftware version number:	ORYX F/W v4.00 Oryx Data Collector v3.7.2.0data status	okinstallation	princeton_trtdifferential loss correction	single-endedforward channel	channel 2reverse channel	N/Adate	2019/09/14time	14:55:35forward acquisition time	60.00reverse acquisition time	0.00gamma	496.2192k internal	0.2303k external	0.2303temperature offset calibration	1.0138default loss term (dB/km)	0.3790temperature slope calibration	1.0000multiplexer offset coefficient	1.0000multiplexer slope coefficient	1.0000fibre end	0.00T internal ref (°C)	39.12T ext. ref 1 (°C)	5.01T ext. ref 2 (°C)	34.22length (m)	temperature (°C)	Stokes	anti-Stokes-747.200	153.802	-0.076	0.106
-746.185	583.531	0.076	0.190
-745.171	800.000	-0.065	0.184
-744.156	757.413	-0.071	0.197
-743.142	-29.511	-0.040	-0.023
-742.127	-155.048	-0.120	0.008
-741.112	156.650	-0.197	-0.277
-740.098	800.000	-0.071	0.301
-739.083	-106.529	0.194	0.044
-738.069	-200.000	-0.019	0.283
-737.054	341.462	0.068	0.134
-736.039	353.497	-0.114	-0.230
-735.025	-70.470	0.062	-0.024
-734.010	539.277	0.125	-0.304
-732.996	-92.064	-0.213	0.061
-731.981	800.000	-0.076	-0.260
-730.966	-105.267	0.233	0.054
-729.952	-200.000	-0.027	0.268
-728.937	121.952	-0.242	0.307
-727.923	-200.000	0.006	-0.258
-726.908	-124.740	-0.167	0.026
-725.894	1.916	-0.139	-0.102
-724.879	183.128	-0.174	-0.262
-723.864	548.486	-0.077	-0.189
-722.850	-130.333	0.150	0.021
-721.835	8.771	0.201	0.155
-720.821	533.896	-0.098	0.236
-719.806	393.146	0.092	-0.195
-718.791	-82.427	-0.247	0.082
-717.777	112.016	-0.280	0.345
-716.762	-144.425	0.179	-0.017
-715.748	1.158	-0.179	-0.131
-714.733	-48.534	0.385	0.188
-713.718	684.975	0.065	0.172
-712.704	202.860	0.108	-0.169
-711.689	-7.181	-0.315	-0.217
-710.675	117.485	-0.071	-0.089
-709.660	-200.000	0.055	-0.392
-708.645	-200.000	-0.019	0.211
-707.631	-156.726	-0.076	-0.005
-706.616	-200.000	0.002	0.260
-705.602	800.000	0.082	0.259
-704.587	384.888	0.180	-0.377
-703.572	551.767	0.154	-0.376
-702.558	196.111	0.115	0.178
-701.543	-200.000	-0.017	0.306
-700.529	-30.849	-0.103	-0.059
-699.514	800.000	0.023	-0.075
-698.499	-200.000	0.037	-0.234
-697.485	37.119	0.231	-0.208
-696.470	-78.368	-0.140	0.049
-695.456	-200.000	0.015	0.091
-694.441	79.844	0.151	-0.165
-693.426	-67.124	-0.383	-0.153
-692.412	-200.000	-0.016	-0.144
-691.397	-39.197	0.050	0.027
-690.383	145.010	-0.120	0.163
-689.368	-107.780	-0.138	-0.031
-688.354	800.000	0.117	-0.438
-687.339	219.116	-0.087	-0.141
-686.324	-200.000	-0.008	-0.044
-685.310	-200.000	-0.070	-0.314
-684.295	-28.397	-0.213	-0.125
-683.281	800.000	0.038	0.126
-682.266	-15.383	-0.210	0.137
-681.251	78.682	-0.081	0.088
-680.237	-10.541	-0.120	0.081
-679.222	-81.986	-0.193	-0.064
-678.208	103.486	0.054	-0.064
-677.193	28.127	-0.134	0.115
-676.178	-24.618	0.133	-0.081
-675.164	800.000	0.029	-0.103
-674.149	32.150	-0.215	-0.189
-673.135	-200.000	-0.005	-0.126
-672.120	77.318	-0.179	0.194
-671.105	65.097	0.054	-0.055
-670.091	-200.000	0.047	-0.253
-669.076	-8.417	0.183	-0.125
-668.062	-43.405	0.038	-0.019
-667.047	-21.176	0.253	-0.157
-666.032	259.713	0.156	0.273
-665.018	-200.000	0.053	-0.258
-664.003	-200.000	-0.024	-0.122
-662.989	468.949	0.129	-0.294
-661.974	288.213	0.189	0.347
-660.959	129.541	0.302	-0.392
-659.945	-59.127	0.091	-0.040
-658.930	71.837	0.086	0.090
-657.916	84.491	0.142	-0.158
-656.901	52.663	-0.090	-0.087
-655.886	458.671	-0.019	0.043
-654.872	129.584	0.076	0.099
-653.857	54.699	-0.160	-0.156
-652.843	800.000	-0.009	-0.036
-651.828	800.000	0.086	-0.380
-650.814	113.007	0.177	-0.218
-649.799	-121.341	-0.215	-0.036
-648.784	281.735	0.055	-0.100
-647.770	-200.000	0.006	-0.100
-646.755	-158.581	-0.110	-0.006
-645.741	-65.556	-0.201	-0.082
-644.726	39.637	0.070	-0.064
-643.711	-162.596	-0.204	-0.010
-642.697	35.392	0.114	-0.102
-641.682	-16.659	0.097	0.063
-640.668	18.092	-0.260	-0.210
-639.653	800.000	-0.063	-0.208
-638.638	800.000	-0.034	-0.099
-637.624	800.000	0.033	0.125
-636.609	131.990	-0.112	0.147
-635.595	247.205	0.117	-0.201
-634.580	-103.007	-0.089	-0.021
-633.565	182.699	0.165	-0.248
-632.551	15.902	-0.409	0.327
-631.536	-200.000	0.027	-0.191
-630.522	-58.858	0.029	0.013
-629.507	-61.090	-0.082	0.035
-628.492	-200.000	-0.008	-0.230
-627.478	-200.000	0.015	0.070
-626.463	-200.000	0.001	-0.131
-625.449	291.954	-0.123	-0.228
-624.434	-200.000	0.182	-0.000
-623.419	-30.417	0.383	-0.220
-622.405	7.678	0.034	0.026
-621.390	-9.103	0.276	0.187
-620.376	-151.990	0.269	0.020
-619.361	482.838	-0.066	0.152
-618.346	47.501	0.118	-0.111
-617.332	-93.780	0.133	-0.037
-616.317	-67.265	0.082	0.033
-615.303	-46.617	0.124	0.062
-614.288	106.660	-0.164	0.197
-613.273	688.722	-0.070	0.186
-612.259	138.802	-0.079	0.105
-611.244	127.776	0.032	0.041
-610.230	800.000	0.053	-0.174
-609.215	227.739	-0.243	-0.401
-608.201	-168.836	0.180	-0.007
-607.186	8.767	0.194	-0.148
-606.171	29.117	-0.121	-0.104
-605.157	9.547	0.174	0.134
-604.142	-119.655	-0.304	-0.053
-603.128	86.896	0.112	0.125
-602.113	74.169	0.175	0.187
-601.098	35.293	0.322	-0.286
-600.084	12.366	0.144	-0.112
-599.069	7.730	0.206	0.157
-598.055	-66.528	0.262	-0.105
-597.040	529.813	0.084	-0.200
-596.025	-200.000	0.024	0.566
-595.011	-135.925	0.247	-0.030
-593.996	-137.560	-0.275	0.031
-592.982	-140.766	-0.352	-0.037
-591.967	75.425	-0.177	-0.189
-590.952	-200.000	-0.011	0.129
-589.938	800.000	0.116	0.458
-588.923	-200.000	-0.011	-0.063
-587.909	-70.670	-0.109	-0.042
-586.894	-200.000	-0.026	-0.146
-585.879	-11.587	-0.291	0.193
-584.865	-56.925	0.049	-0.022
-583.850	55.421	-0.194	0.190
-582.836	-70.298	0.118	-0.045
-581.821	-73.801	-0.250	-0.092
-580.806	82.534	0.034	-0.038
-579.792	800.000	-0.024	0.078
-578.777	175.911	0.227	0.333
-577.763	-101.802	-0.253	0.062
-576.748	-200.000	-0.010	0.094
-575.733	-58.897	-0.250	0.110
-574.719	-67.149	-0.053	0.021
-573.704	-97.503	0.029	-0.008
-572.690	-121.211	0.232	-0.039
-571.675	-12.560	-0.230	0.152
-570.661	200.931	0.032	0.049
-569.646	193.900	-0.080	0.122
-568.631	342.355	0.061	0.121
-567.617	44.745	0.123	-0.115
-566.602	-126.843	0.097	0.014
-565.588	-200.000	0.012	0.172
-564.573	19.879	0.100	-0.081
-563.558	-149.728	-0.207	0.016
-562.544	-56.511	0.047	-0.021
-561.529	-200.000	0.017	0.269
-560.515	-32.856	-0.240	-0.135
-559.500	-95.169	0.228	0.062
-558.485	-200.000	0.012	0.128
-557.471	44.987	0.091	0.084
-556.456	256.099	0.083	-0.145
-555.442	-137.572	0.078	0.009
-554.427	-68.009	-0.174	-0.068
-553.412	-96.147	0.239	-0.064
-552.398	-167.282	-0.296	0.012
-551.383	-112.035	0.184	0.037
-550.369	-200.000	-0.013	0.242
-549.354	-23.326	-0.056	-0.034
-548.339	800.000	-0.037	0.127
-547.325	-96.862	0.190	0.050
-546.310	-200.000	-0.150	-0.000
-545.296	68.213	-0.293	0.304
-544.281	134.947	0.036	-0.047
-543.266	-200.000	0.036	0.231
-542.252	224.980	0.211	-0.344
-541.237	-200.000	0.025	0.262
-540.223	184.791	-0.151	0.226
-539.208	800.000	-0.126	-0.412
-538.193	-112.628	-0.267	0.054
-537.179	-200.000	0.035	-0.259
-536.164	267.911	-0.039	-0.069
-535.150	181.913	-0.084	-0.125
-534.135	-200.000	-0.004	0.273
-533.121	23.560	0.143	0.119
-532.106	35.223	0.469	-0.415
-531.091	-200.000	0.002	-0.175
-530.077	800.000	-0.075	0.266
-529.062	221.246	-0.065	-0.106
-528.048	-163.107	-0.167	-0.008
-527.033	43.136	-0.199	0.183
-526.018	18.275	0.153	-0.124
-525.004	51.549	0.152	0.146
-523.989	-110.883	-0.141	-0.029
-522.975	-25.077	0.043	0.026
-521.960	50.702	0.181	0.173
-520.945	-90.243	0.253	0.074
-519.931	-109.547	0.148	0.032
-518.916	37.993	-0.196	0.176
-517.902	18.953	-0.123	0.100
-516.887	-119.044	-0.259	-0.046
-515.872	45.441	0.183	-0.171
-514.858	-200.000	-0.006	-0.295
-513.843	143.678	0.178	0.239
-512.829	28.404	-0.069	0.059
-511.814	-75.174	-0.025	-0.009
-510.799	98.805	0.115	-0.134
-509.785	-41.329	-0.119	-0.062
-508.770	-69.619	-0.270	-0.104
-507.756	-200.000	0.011	-0.097
-506.741	-35.457	-0.075	-0.041
-505.726	-176.810	0.306	-0.008
-504.712	-200.000	0.012	-0.225
-503.697	-13.192	0.144	-0.094
-502.683	180.155	0.178	-0.264
-501.668	1.387	0.280	-0.203
-500.653	101.016	0.158	-0.185
-499.639	-71.251	-0.371	-0.140
-498.624	800.000	0.024	-0.101
-497.610	-20.291	0.280	0.174
-496.595	-144.983	0.216	0.020
-495.581	-158.509	-0.303	-0.018
-494.566	800.000	-0.105	0.336
-493.551	800.000	0.094	0.388
-492.537	48.382	-0.389	0.368
-491.522	201.150	0.038	0.059
-490.508	800.000	-0.118	-0.331
-489.493	134.775	0.228	-0.298
-488.478	800.000	0.042	0.163
-487.464	698.271	-0.031	-0.081
-486.449	117.883	0.132	-0.163
-485.435	-200.000	-0.031	-0.260
-484.420	-200.000	0.007	0.346
-483.405	800.000	0.081	0.246
-482.391	-200.000	-0.017	-0.206
-481.376	299.356	0.149	-0.277
-480.362	715.509	0.040	-0.108
-479.347	4.240	0.126	0.093
-478.332	-20.829	0.254	0.157
-477.318	-200.000	-0.001	0.141
-476.303	-94.225	-0.197	-0.054
-475.289	255.249	0.351	0.606
-474.274	-52.200	0.242	0.113
-473.259	264.545	-0.185	0.325
-472.245	-79.078	0.448	0.153
-471.230	38.735	-0.057	-0.051
-470.216	124.066	0.087	0.110
-469.201	-200.000	0.027	-0.174
-468.186	-192.836	0.133	-0.001
-467.172	-168.844	-0.120	-0.005
-466.157	800.000	-0.066	-0.196
-465.143	38.412	0.070	-0.063
-464.128	4.852	0.121	0.090
-463.113	-200.000	0.020	0.108
-462.099	-110.531	0.126	-0.026
-461.084	-176.567	0.322	0.008
-460.070	-107.831	0.424	-0.093
-459.055	153.911	-0.196	0.270
-458.040	-71.433	0.110	-0.041
-457.026	-44.409	-0.351	-0.177
-456.011	-81.297	0.148	-0.049
-454.997	-8.020	-0.164	0.111
-453.982	-86.261	-0.182	-0.056
-452.968	-200.000	0.007	-0.087
-451.953	728.490	0.065	-0.176
-450.938	-176.774	-0.288	-0.007
-449.924	102.545	-0.152	0.178
-448.909	270.859	-0.082	0.146
-447.895	-45.793	0.417	0.207
-446.880	582.670	-0.012	0.029
-445.865	-26.135	-0.150	-0.089
-444.851	14.379	0.167	0.131
-443.836	90.848	-0.232	-0.262
-442.822	294.470	-0.064	-0.118
-441.807	-42.584	-0.041	-0.021
-440.792	-65.750	0.078	-0.031
-439.778	-200.000	-0.015	-0.216
-438.763	25.465	-0.137	0.115
-437.749	-16.128	0.200	-0.128
-436.734	225.090	0.220	0.359
-435.719	-26.754	0.357	0.210
-434.705	-200.000	-0.061	-0.384
-433.690	800.000	-0.066	0.229
-432.676	-68.314	-0.236	-0.092
-431.661	23.454	-0.112	0.092
-430.646	-6.046	-0.207	-0.142
-429.632	-12.036	-0.175	0.115
-428.617	-80.143	0.282	-0.095
-427.603	-200.000	-0.023	-0.109
-426.588	67.032	-0.189	0.194
-425.573	-67.211	-0.229	-0.091
-424.559	261.456	0.091	-0.159
-423.544	800.000	0.059	0.186
-422.530	800.000	-0.091	0.283
-421.515	-200.000	0.002	0.084
-420.500	-143.429	0.159	0.015
-419.486	-30.003	0.119	-0.068
-418.471	-200.000	0.010	-0.250
-417.457	-11.721	0.220	0.146
-416.442	-44.154	-0.415	-0.209
-415.428	-200.000	-0.002	-0.135
-414.413	-96.043	0.113	-0.030
-413.398	-68.455	-0.266	-0.104
-412.384	190.582	-0.217	-0.327
-411.369	-102.274	0.228	0.055
-410.355	13.614	0.119	0.093
-409.340	2.288	0.100	0.073
-408.325	-200.000	-0.009	0.111
-407.311	-123.505	-0.056	-0.009
-406.296	-147.898	-0.074	-0.006
-405.282	-75.690	-0.196	0.070
-404.267	139.177	0.148	0.195
-403.252	-72.971	0.138	-0.051
-402.238	800.000	0.024	-0.087
-401.223	-200.000	-0.076	-0.496
-400.209	-53.661	-0.100	-0.046
-399.194	56.193	-0.271	0.264
-398.179	-30.274	-0.054	-0.031
-397.165	-200.000	0.037	0.302
-396.150	-200.000	-0.003	0.261
-395.136	89.114	0.283	0.317
-394.121	191.808	-0.041	-0.061
-393.106	387.210	0.081	-0.168
-392.092	62.546	-0.167	-0.168
-391.077	800.000	0.017	0.067
-390.063	-123.833	0.389	-0.062
-389.048	800.000	-0.021	0.072
-388.033	-52.658	-0.347	-0.161
-387.019	-200.000	-0.196	-0.000
-386.004	-96.624	-0.211	0.056
-384.990	327.824	0.124	0.239
-383.975	-68.882	0.127	0.049
-382.960	800.000	0.071	0.293
-381.946	406.747	0.065	-0.138
-380.931	-200.000	-0.014	-0.215
-379.917	-200.000	0.016	-0.125
-378.902	148.459	-0.101	0.138
-377.888	167.473	-0.134	-0.191
-376.873	-200.000	0.042	-0.399
-375.858	-38.202	0.291	0.155
-374.844	233.469	-0.076	-0.125
-373.829	-109.260	-0.350	-0.075
-372.815	-200.000	0.013	0.135
-371.800	-154.962	-0.142	0.009
-370.785	800.000	-0.068	-0.259
-369.771	-112.205	-0.051	-0.010
-368.756	800.000	-0.005	0.017
-367.742	-35.975	-0.268	-0.145
-366.727	-200.000	0.036	0.175
-365.712	642.613	0.114	-0.292
-364.698	10.718	-0.292	-0.223
-363.683	86.593	0.119	-0.132
-362.669	-139.314	-0.219	-0.024
-361.654	79.736	0.156	0.168
-360.639	-95.459	-0.118	-0.032
-359.625	-49.125	-0.165	-0.079
-358.610	8.802	0.284	-0.215
-357.596	25.774	-0.201	-0.168
-356.581	31.439	-0.155	0.133
-355.566	234.395	0.082	0.136
-354.552	67.518	0.113	-0.115
-353.537	-128.768	-0.202	-0.029
-352.523	-50.883	0.182	0.086
-351.508	800.000	0.101	0.325
-350.493	-46.501	0.299	-0.147
-349.479	-200.000	0.047	-0.326
-348.464	224.386	-0.118	-0.191
-347.450	800.000	-0.019	0.081
-346.435	-114.456	0.387	-0.075
-345.420	-149.826	0.165	0.013
-344.406	130.021	-0.047	-0.060
-343.391	-200.000	-0.010	-0.091
-342.377	-167.548	-0.179	-0.007
-341.362	-114.163	0.148	-0.029
-340.348	-135.027	0.111	-0.013
-339.333	-66.371	0.369	0.147
-338.318	-36.475	-0.226	-0.122
-337.304	800.000	0.066	0.186
-336.289	337.451	-0.038	0.073
-335.275	364.744	0.142	-0.286
-334.260	-159.588	-0.277	0.015
-333.245	80.710	0.021	0.023
-332.231	-73.673	0.176	0.064
-331.216	44.007	-0.325	0.299
-330.202	800.000	-0.134	0.470
-329.187	800.000	-0.050	0.155
-328.172	1.527	0.054	0.039
-327.158	-6.335	-0.040	-0.027
-326.143	-6.312	0.202	-0.138
-325.129	-34.295	0.260	0.143
-324.114	118.960	-0.107	0.132
-323.099	407.513	-0.077	0.162
-322.085	-200.000	-0.064	0.403
-321.070	-200.000	-0.026	-0.123
-320.056	-120.860	0.271	-0.046
-319.041	213.388	0.100	-0.158
-318.026	-97.642	-0.228	0.059
-317.012	106.735	-0.110	0.131
-315.997	402.426	-0.080	0.169
-314.983	334.124	-0.151	0.293
-313.968	-25.198	0.088	0.052
-312.953	-79.414	-0.157	0.053
-311.939	23.027	0.195	-0.160
-310.924	399.247	0.211	0.443
-309.910	800.000	-0.090	0.291
-308.895	-4.269	0.108	-0.075
-307.880	610.905	-0.124	-0.311
-306.866	-27.578	0.186	-0.108
-305.851	-70.978	-0.353	-0.133
-304.837	-121.937	0.220	-0.036
-303.822	-31.437	0.264	0.149
-302.807	570.901	-0.022	-0.053
-301.793	-200.000	-0.048	-0.273
-300.778	-7.920	-0.245	-0.166
-299.764	447.745	-0.119	-0.262
-298.749	-17.624	0.229	-0.144
-297.735	-154.251	-0.218	-0.015
-296.720	-93.484	-0.135	-0.038
-295.705	-30.028	-0.122	0.069
-294.691	153.006	-0.135	0.185
-293.676	-200.000	-0.040	-0.188
-292.662	153.917	0.243	0.333
-291.647	-67.112	0.224	-0.088
-290.632	800.000	-0.040	-0.125
-289.618	124.731	-0.097	-0.122
-288.603	-200.000	-0.002	-0.164
-287.589	800.000	0.059	-0.246
-286.574	-78.391	-0.515	0.177
-285.559	0.453	0.085	0.061
-284.545	-164.253	0.101	0.005
-283.530	175.077	-0.139	0.202
-282.516	-92.020	-0.040	0.011
-281.501	28.466	-0.332	0.281
-280.486	130.302	-0.225	0.288
-279.472	389.565	-0.096	-0.200
-278.457	-50.094	0.157	0.074
-277.443	327.550	-0.078	-0.149
-276.428	800.000	-0.046	-0.127
-275.413	-23.330	0.163	0.098
-274.399	-200.000	0.015	-0.069
-273.384	-61.575	0.237	0.100
-272.370	-200.000	-0.005	-0.098
-271.355	80.566	0.200	0.215
-270.340	74.476	-0.177	0.186
-269.326	-25.324	-0.153	-0.091
-268.311	-200.000	-0.096	0.427
-267.297	116.800	-0.097	-0.119
-266.282	-3.810	0.277	-0.192
-265.267	69.236	0.092	-0.094
-264.253	-19.115	0.228	-0.142
-263.238	100.418	0.082	-0.095
-262.224	800.000	0.028	-0.086
-261.209	190.291	0.093	0.140
-260.195	346.248	-0.062	0.121
-259.180	-182.791	0.298	-0.005
-258.165	208.560	0.135	0.211
-257.151	-121.213	0.285	0.048
-256.136	632.612	-0.172	0.436
-255.122	-147.956	-0.126	0.011
-254.107	-127.536	0.245	0.036
-253.092	-200.000	0.021	0.216
-252.078	338.315	-0.178	0.347
-251.063	38.534	0.111	-0.099
-250.049	-86.783	-0.384	-0.117
-249.034	6.521	-0.241	-0.179
-248.019	93.067	0.193	0.219
-247.005	-88.737	-0.166	-0.049
-245.990	179.884	0.212	-0.311
-244.976	-37.725	0.130	0.069
-243.961	-47.614	-0.333	-0.162
-242.946	-23.547	0.231	0.138
-241.932	97.746	0.049	-0.056
-240.917	68.112	-0.208	0.213
-239.903	92.138	0.259	0.292
-238.888	126.984	0.078	0.098
-237.873	-21.989	0.067	-0.041
-236.859	-200.000	0.063	-0.445
-235.844	-32.903	0.267	-0.148
-234.830	-200.000	0.038	-0.377
-233.815	-87.897	-0.133	0.040
-232.800	-72.321	0.168	0.062
-231.786	59.392	-0.313	0.308
-230.771	-171.044	-0.172	-0.006
-229.757	-200.000	0.014	-0.067
-228.742	-138.966	0.313	-0.034
-227.727	413.769	0.014	0.030
-226.713	709.163	0.036	0.095
-225.698	363.529	-0.019	0.039
-224.684	-200.000	0.007	-0.062
-223.669	800.000	-0.049	0.137
-222.655	-15.348	0.180	0.115
-221.640	247.857	0.142	-0.240
-220.625	800.000	-0.048	0.178
-219.611	148.762	-0.174	0.234
-218.596	-101.643	-0.163	0.039
-217.582	-200.000	0.020	-0.433
-216.567	-110.784	0.151	0.031
-215.552	186.278	0.203	-0.302
-214.538	-109.595	0.141	-0.030
-213.523	-200.000	0.005	-0.139
-212.509	-72.912	-0.139	-0.051
-211.494	800.000	0.042	-0.142
-210.479	465.411	-0.099	0.221
-209.465	205.512	-0.080	0.123
-208.450	-179.614	-0.081	0.002
-207.436	-113.806	-0.220	-0.043
-206.421	-39.279	-0.078	-0.041
-205.406	-64.026	-0.292	0.119
-204.392	104.125	0.053	-0.062
-203.377	-14.482	-0.147	-0.095
-202.363	-184.359	0.244	0.004
-201.348	193.830	0.023	-0.035
-200.333	184.074	0.136	-0.200
-199.319	597.877	-0.096	-0.238
-198.304	-105.333	-0.080	0.018
-197.290	307.309	-0.083	0.154
-196.275	106.440	-0.245	-0.289
-195.260	19.572	0.135	0.109
-194.246	-200.000	0.027	0.131
-193.231	717.078	-0.059	0.157
-192.217	-41.407	0.155	-0.079
-191.202	408.057	0.090	0.190
-190.187	-200.000	-0.011	-0.077
-189.173	128.867	-0.268	-0.341
-188.158	252.715	-0.145	-0.247
-187.144	-3.727	-0.143	0.099
-186.129	187.327	0.085	0.127
-185.114	82.097	-0.310	-0.335
-184.100	88.526	-0.113	-0.125
-183.085	-128.607	0.105	0.015
-182.071	-71.474	-0.207	0.077
-181.056	579.095	0.072	0.175
-180.042	260.503	0.174	-0.300
-179.027	-200.000	-0.020	-0.193
-178.012	800.000	-0.031	-0.097
-176.998	-128.178	0.257	-0.037
-175.983	-200.000	-0.059	0.468
-174.969	242.221	-0.135	-0.225
-173.954	800.000	-0.044	-0.189
-172.939	15.756	0.044	-0.034
-171.925	-200.000	-0.014	0.180
-170.910	-200.000	0.021	0.100
-169.896	-200.000	0.054	-0.314
-168.881	-18.710	0.043	-0.027
-167.866	-167.786	-0.076	-0.003
-166.852	513.240	-0.077	0.179
-165.837	390.503	0.147	0.304
-164.823	88.350	-0.174	0.192
-163.808	-145.732	-0.203	-0.018
-162.793	704.457	-0.055	0.146
-161.779	355.028	0.152	-0.301
-160.764	-138.596	0.091	0.010
-159.750	5.039	0.023	0.017
-158.735	-170.560	-0.070	0.002
-157.720	800.000	-0.025	-0.105
-156.706	-57.408	-0.150	0.066
-155.691	-186.663	0.209	0.003
-154.677	629.742	-0.082	-0.206
-153.662	460.852	-0.154	-0.341
-152.647	133.605	0.127	-0.163
-151.633	-27.851	-0.328	0.189
-150.618	-1.047	0.215	0.151
-149.604	184.568	-0.215	-0.318
-148.589	25.060	-0.354	-0.292
-147.574	-91.349	-0.192	-0.055
-146.560	49.994	0.392	-0.368
-145.545	-200.000	0.002	-0.025
-144.531	-11.295	0.101	0.066
-143.516	-200.000	-0.067	-0.439
-142.502	-16.234	0.392	0.247
-141.487	13.834	-0.325	-0.251
-140.472	-200.000	0.074	-0.365
-139.458	-200.000	-0.033	-0.332
-138.443	57.449	-0.215	0.209
-137.429	66.219	0.067	-0.067
-136.414	155.249	0.115	-0.157
-135.399	-200.000	-0.064	0.433
-134.385	800.000	0.089	0.323
-133.370	800.000	0.023	0.063
-132.356	23.737	-0.172	0.141
-131.341	294.585	-0.045	-0.081
-130.326	-1.891	0.038	0.026
-129.312	-200.000	-0.020	0.166
-128.297	290.531	-0.152	-0.275
-127.283	117.853	-0.256	-0.314
-126.268	-35.652	-0.392	0.211
-125.253	-43.729	0.275	-0.138
-124.239	-56.737	-0.204	-0.090
-123.224	685.860	-0.089	-0.232
-122.210	180.530	0.348	0.507
-121.195	-200.000	-0.048	0.236
-120.180	6.591	-0.077	-0.057
-119.166	800.000	-0.059	0.217
-118.151	260.412	-0.168	-0.289
-117.137	19.881	0.295	0.236
-116.122	-95.200	0.154	-0.041
-115.107	800.000	0.036	-0.099
-114.093	18.629	0.325	0.258
-113.078	800.000	0.024	-0.083
-112.064	109.831	0.054	0.064
-111.049	-200.000	0.002	-0.179
-110.034	-200.000	-0.031	-0.260
-109.020	111.969	0.374	-0.449
-108.005	-92.683	0.109	-0.030
-106.991	-6.889	-0.280	-0.189
-105.976	99.335	-0.338	-0.388
-104.962	185.964	0.050	0.074
-103.947	-93.173	-0.334	0.092
-102.932	156.629	-0.211	-0.290
-101.918	-200.000	0.003	0.085
-100.903	63.116	-0.067	-0.066
-99.889	-50.897	0.166	-0.077
-98.874	-170.543	0.280	-0.010
-97.859	-64.396	0.146	0.059
-96.845	-34.170	0.135	0.074
-95.830	-6.953	-0.279	0.188
-94.816	92.649	0.085	-0.096
-93.801	-160.163	-0.173	-0.009
-92.786	29.200	0.261	0.220
-91.772	-200.000	0.065	-0.309
-90.757	-48.668	0.075	-0.036
-89.743	-171.307	0.159	-0.005
-88.728	800.000	0.039	-0.123
-87.713	7.842	0.189	-0.141
-86.699	89.125	0.157	-0.173
-85.684	-200.000	-0.011	-0.292
-84.670	-200.000	0.007	0.032
-83.655	518.670	0.027	0.062
-82.640	-200.000	0.022	0.241
-81.626	273.324	-0.102	-0.179
-80.611	-200.000	-0.003	0.095
-79.597	-46.639	0.329	-0.160
-78.582	-84.016	-0.288	-0.091
-77.567	800.000	-0.061	-0.205
-76.553	-153.388	0.273	0.019
-75.538	294.566	-0.081	0.147
-74.524	143.313	-0.143	0.189
-73.509	800.000	0.074	0.223
-72.494	-200.000	-0.008	0.231
-71.480	-200.000	0.027	0.128
-70.465	-34.770	0.126	0.069
-69.451	-200.000	0.019	0.225
-68.436	-14.813	0.104	-0.066
-67.422	-72.797	0.373	-0.136
-66.407	-28.128	-0.256	-0.147
-65.392	-200.000	-0.022	-0.155
-64.378	7.489	0.288	-0.213
-63.363	-200.000	0.007	0.091
-62.349	-67.657	-0.175	-0.068
-61.334	-63.104	-0.903	-0.369
-60.319	800.000	0.227	0.703
-59.305	-200.000	-0.090	-0.634
-58.290	91.629	0.513	0.572
-57.276	800.000	0.543	1.504
-56.261	-200.000	82.143	495.335
-55.246	555.248	1364.198	3256.300
-54.232	184.102	2596.207	3810.756
-53.217	114.539	2358.446	2849.138
-52.203	47.955	1968.972	1824.084
-51.188	42.336	1754.058	1580.811
-50.173	39.579	1708.245	1518.257
-49.159	53.726	1746.660	1662.687
-48.144	57.908	1765.249	1712.855
-47.130	42.182	1727.044	1555.017
-46.115	39.099	1712.846	1518.394
-45.100	39.056	1707.937	1513.658
-44.086	39.054	1705.583	1511.491
-43.071	38.981	1703.244	1508.803
-42.057	38.964	1700.487	1506.169
-41.042	38.952	1698.590	1504.333
-40.027	38.917	1696.716	1502.349
-39.013	38.978	1694.197	1500.526
-37.998	38.976	1692.831	1499.235
-36.984	39.005	1691.462	1498.186
-35.969	39.170	1689.532	1497.680
-34.954	39.219	1687.643	1496.318
-33.940	39.161	1686.127	1494.469
-32.925	39.216	1684.119	1493.048
-31.911	39.087	1682.865	1490.897
-30.896	39.171	1680.529	1489.409
-29.881	39.142	1678.934	1487.716
-28.867	39.131	1677.503	1486.302
-27.852	39.179	1675.986	1485.263
-26.838	39.162	1674.123	1483.430
-25.823	39.117	1673.145	1482.163
-24.809	39.235	1671.610	1481.636
-23.794	39.069	1670.705	1479.522
-22.779	39.156	1668.593	1478.244
-21.765	39.133	1667.380	1476.937
-20.750	39.106	1665.558	1475.064
-19.736	39.118	1663.811	1473.549
-18.721	39.194	1662.494	1472.896
-17.706	39.138	1660.740	1470.866
-16.692	39.215	1659.165	1469.987
-15.677	39.124	1658.004	1468.220
-14.663	39.190	1656.747	1467.538
-13.648	39.154	1654.916	1465.591
-12.633	39.075	1653.319	1463.532
-11.619	39.101	1652.181	1462.660
-10.604	39.194	1650.070	1461.419
-9.590	39.093	1649.208	1459.848
-8.575	39.157	1647.434	1458.697
-7.560	39.156	1646.778	1458.053
-6.546	39.115	1645.419	1456.490
-5.531	39.074	1643.977	1454.850
-4.517	39.153	1642.345	1453.931
-3.502	39.106	1641.550	1452.825
-2.487	39.215	1639.936	1452.140
-1.473	38.856	1628.399	1439.233
-0.458	36.047	1607.399	1400.242
0.556	33.203	1605.763	1361.453
1.571	30.270	1630.084	1360.486
2.586	29.113	1643.158	1362.715
3.600	25.171	1587.528	1288.216
4.615	15.017	1471.083	1125.666
5.629	6.545	1402.273	1018.391
6.644	5.127	1392.663	1002.225
7.659	4.987	1391.286	1000.245
8.673	5.022	1389.816	999.325
9.688	4.923	1388.394	997.580
10.702	4.861	1386.559	995.776
11.717	8.451	1393.346	1023.589
12.731	17.554	1409.968	1094.462
13.746	22.341	1416.272	1130.084
14.761	21.022	1413.244	1119.105
15.775	19.859	1410.056	1109.034
16.790	18.730	1407.382	1099.606
17.804	17.938	1405.165	1092.714
18.819	17.581	1403.898	1089.344
19.834	17.196	1402.883	1086.000
20.848	17.027	1401.429	1083.703
21.863	16.857	1400.034	1081.443
22.877	16.798	1398.351	1079.668
23.892	16.647	1398.259	1078.544
24.907	16.679	1397.234	1077.862
25.921	16.672	1396.043	1076.801
26.936	16.679	1395.388	1076.243
27.950	16.714	1394.314	1075.543
28.965	16.861	1393.111	1075.454
29.980	16.904	1392.225	1074.944
30.994	17.114	1390.425	1074.791
32.009	17.150	1389.542	1074.238
33.023	16.987	1388.858	1072.585
34.038	16.993	1387.220	1071.263
35.053	16.792	1386.338	1069.222
36.067	16.942	1384.547	1068.690
37.082	16.890	1383.837	1067.722
38.096	16.961	1383.167	1067.555
39.111	16.994	1381.876	1066.671
40.126	16.884	1381.186	1065.353
41.140	16.777	1380.386	1063.973
42.155	16.609	1379.708	1062.302
43.169	16.506	1380.134	1061.884
44.184	16.518	1379.759	1061.579
45.199	16.550	1379.059	1061.144
46.213	16.645	1378.648	1061.331
47.228	16.821	1377.674	1061.591
48.242	16.875	1376.270	1060.755
49.257	16.741	1375.310	1059.084
50.271	16.852	1373.008	1057.909
51.286	16.885	1371.651	1056.973
52.301	16.848	1370.420	1055.702
53.315	16.745	1369.583	1054.320
54.330	16.705	1368.350	1053.031
55.344	16.650	1367.153	1051.679
56.359	16.739	1366.346	1051.517
57.374	16.624	1365.394	1049.974
58.388	16.594	1364.605	1049.088
59.403	16.510	1364.721	1048.565
60.417	16.559	1363.472	1047.819
61.432	16.523	1362.747	1046.946
62.447	16.415	1361.585	1045.291
63.461	16.426	1360.072	1044.106
64.476	16.447	1358.860	1043.211
65.490	16.337	1358.444	1042.118
66.505	16.491	1356.054	1041.141
67.520	16.475	1354.878	1040.050
68.534	16.435	1354.052	1039.079
69.549	16.440	1353.084	1038.272
70.563	16.403	1351.722	1036.907
71.578	16.327	1350.565	1035.465
72.593	16.375	1349.557	1034.896
73.607	16.279	1349.130	1033.886
74.622	16.281	1348.164	1033.070
75.636	16.326	1347.777	1032.954
76.651	16.405	1346.715	1032.533
77.666	16.401	1346.333	1032.122
78.680	16.395	1346.182	1031.881
79.695	16.371	1345.255	1030.930
80.709	16.441	1344.491	1030.679
81.724	16.503	1343.760	1030.406
82.739	16.686	1342.597	1030.538
83.753	16.805	1341.716	1030.494
84.768	16.856	1340.731	1029.961
85.782	16.886	1339.641	1029.209
86.797	16.933	1338.142	1028.253
87.812	16.800	1336.731	1026.276
88.826	16.815	1335.674	1025.461
89.841	16.829	1334.666	1024.683
90.855	16.914	1333.875	1024.496
91.870	16.869	1332.897	1023.381
92.884	16.847	1332.330	1022.724
93.899	16.950	1331.112	1022.319
94.914	17.012	1330.573	1022.192
95.928	16.986	1329.702	1021.277
96.943	16.888	1328.787	1019.893
97.957	16.951	1327.715	1019.355
98.972	16.853	1326.465	1017.720
99.987	16.891	1325.761	1017.319
101.001	16.928	1324.538	1016.507
102.016	16.809	1324.031	1015.316
103.030	16.858	1322.984	1014.719
104.045	16.895	1322.244	1014.283
105.060	16.752	1320.760	1012.198
106.074	16.688	1319.042	1010.412
107.089	16.563	1317.453	1008.360
108.103	16.431	1316.263	1006.571
109.118	16.450	1315.330	1005.883
110.133	16.532	1313.846	1005.147
111.147	16.548	1312.618	1004.217
112.162	16.534	1311.324	1003.050
113.176	16.752	1309.702	1003.014
114.191	16.679	1309.208	1002.118
115.206	16.679	1308.047	1001.140
116.220	16.639	1306.604	999.711
117.235	16.534	1305.698	998.307
118.249	16.545	1304.712	997.532
119.264	16.474	1303.626	996.192
120.279	16.573	1302.185	995.585
121.293	16.485	1301.222	994.243
122.308	16.388	1300.510	993.045
123.322	16.422	1299.183	992.139
124.337	16.377	1297.974	990.864
125.352	16.396	1296.917	990.083
126.366	16.345	1295.956	988.960
127.381	16.432	1294.733	988.451
128.395	16.424	1293.731	987.554
129.410	16.453	1293.017	987.089
130.424	16.566	1292.180	987.024
131.439	16.602	1290.684	986.002
132.454	16.651	1290.100	985.755
133.468	16.667	1289.190	985.062
134.483	16.585	1288.829	984.226
135.497	16.714	1287.477	983.855
136.512	16.681	1286.035	982.472
137.527	16.601	1285.090	981.201
138.541	16.588	1283.702	979.978
139.556	16.798	1282.116	979.898
140.570	16.824	1281.255	979.300
141.585	16.889	1279.876	978.537
142.600	16.902	1278.680	977.611
143.614	16.982	1278.094	977.537
144.629	17.007	1276.819	976.618
145.643	17.035	1275.508	975.692
146.658	16.945	1274.298	974.163
147.673	16.780	1272.846	972.020
148.687	16.750	1271.469	970.709
149.702	16.633	1270.589	969.284
150.716	16.705	1269.053	968.438
151.731	16.746	1267.801	967.628
152.746	16.751	1266.421	966.520
153.760	16.676	1265.757	965.496
154.775	16.898	1264.495	965.716
155.789	16.897	1263.302	964.716
156.804	16.876	1262.575	963.954
157.819	16.936	1261.522	963.403
158.833	16.963	1260.685	962.837
159.848	16.984	1259.548	962.002
160.862	16.953	1258.691	961.081
161.877	16.855	1257.094	959.224
162.892	16.842	1255.783	958.064
163.906	16.849	1255.033	957.449
164.921	16.717	1254.441	956.167
165.935	16.779	1253.224	955.505
166.950	16.799	1252.720	955.148
167.964	16.872	1251.931	954.875
168.979	16.867	1251.363	954.326
169.994	16.821	1250.573	953.384
171.008	16.903	1249.356	952.831
172.023	17.092	1248.692	953.303
173.037	17.115	1248.415	953.135
174.052	16.973	1247.593	951.629
175.067	17.001	1246.052	950.526
176.081	16.836	1244.719	948.500
177.096	16.849	1244.127	948.035
178.110	16.857	1243.088	947.207
179.125	16.876	1241.729	946.194
180.140	16.918	1240.686	945.546
181.154	16.992	1239.161	944.713
182.169	17.076	1238.278	944.428
183.183	17.134	1237.044	943.722
184.198	17.163	1235.744	942.807
185.213	17.162	1234.701	941.923
186.227	17.093	1233.591	940.612
187.242	17.171	1232.263	939.948
188.256	17.305	1231.684	940.162
189.271	17.346	1230.233	939.201
190.286	17.101	1229.655	937.322
191.300	16.827	1228.687	934.989
192.315	16.831	1227.674	934.158
193.329	16.821	1227.555	933.929
194.344	16.922	1226.418	933.541
195.359	16.968	1226.219	933.559
196.373	17.049	1225.646	933.485
197.388	17.116	1225.211	933.442
198.402	17.307	1224.440	933.817
199.417	17.423	1224.250	934.229
200.432	17.480	1223.497	933.886
201.446	17.481	1222.601	933.123
202.461	17.521	1221.762	932.616
203.475	17.473	1220.574	931.367
204.490	17.413	1219.032	929.778
205.504	17.281	1217.640	927.915
206.519	17.399	1216.042	927.260
207.534	17.353	1215.093	926.204
208.548	17.404	1213.985	925.553
209.563	17.344	1213.692	924.921
210.577	17.418	1212.417	924.271
211.592	17.434	1211.513	923.585
212.607	17.555	1211.144	923.882
213.621	17.596	1210.018	923.160
214.636	17.414	1209.769	921.903
215.650	17.531	1208.364	921.384
216.665	17.603	1207.046	920.686
217.680	17.662	1206.318	920.368
218.694	17.668	1205.803	919.929
219.709	17.587	1205.063	918.845
220.723	17.697	1204.176	918.681
221.738	17.640	1203.388	917.689
222.753	17.617	1202.870	917.091
223.767	17.679	1202.093	916.748
224.782	17.711	1201.588	916.454
225.796	17.689	1201.249	916.000
226.811	17.839	1200.194	915.915
227.826	17.740	1199.477	914.759
228.840	17.617	1199.028	913.677
229.855	17.745	1197.948	913.456
230.869	17.578	1197.450	912.102
231.884	17.630	1196.164	911.318
232.899	17.669	1195.178	910.695
233.913	17.492	1194.806	909.386
234.928	17.550	1194.079	909.063
235.942	17.443	1193.330	907.843
236.957	17.543	1192.152	907.398
237.972	17.492	1191.871	906.835
238.986	17.638	1191.012	906.875
240.001	17.634	1190.243	906.189
241.015	17.568	1189.773	905.401
242.030	17.708	1188.517	905.108
243.045	17.796	1187.864	904.995
244.059	17.771	1186.995	904.123
245.074	17.812	1186.065	903.552
246.088	17.785	1185.656	903.017
247.103	17.939	1184.721	903.038
248.117	17.882	1184.186	902.248
249.132	18.102	1183.594	902.880
250.147	18.156	1182.881	902.542
251.161	18.313	1181.902	902.544
252.176	18.174	1181.571	901.476
253.190	18.383	1180.984	902.052
254.205	18.328	1180.343	901.189
255.220	18.344	1179.856	900.827
256.234	18.330	1179.065	900.069
257.249	18.412	1178.184	899.744
258.263	18.381	1177.703	899.134
259.278	18.314	1177.253	898.363
260.293	18.364	1176.777	898.181
261.307	18.469	1175.857	897.950
262.322	18.409	1175.292	897.125
263.336	18.552	1174.643	897.296
264.351	18.546	1173.955	896.661
265.366	18.527	1173.358	896.027
266.380	18.571	1172.413	895.453
267.395	18.442	1171.742	894.192
268.409	18.378	1170.834	893.084
269.424	18.421	1170.213	892.755
270.439	18.451	1169.535	892.318
271.453	18.518	1168.308	891.647
272.468	18.354	1167.805	890.336
273.482	18.384	1166.980	889.785
274.497	18.393	1166.786	889.600
275.512	18.365	1165.706	888.556
276.526	18.425	1164.895	888.171
277.541	18.440	1164.070	887.538
278.555	18.491	1163.762	887.489
279.570	18.531	1162.853	886.925
280.585	18.728	1161.631	886.934
281.599	18.613	1161.403	886.086
282.614	18.610	1160.296	885.148
283.628	18.451	1159.137	883.366
284.643	18.523	1158.430	883.121
285.657	18.621	1157.245	882.642
286.672	18.616	1156.540	882.002
287.687	18.624	1155.596	881.245
288.701	18.707	1154.482	880.743
289.716	18.479	1154.137	879.232
290.730	18.746	1152.960	879.627
291.745	18.706	1152.768	879.194
292.760	18.700	1151.745	878.305
293.774	18.800	1151.080	878.232
294.789	18.931	1150.421	878.322
295.803	18.876	1150.164	877.766
296.818	18.789	1149.250	876.546
297.833	18.650	1148.389	875.107
298.847	18.709	1147.559	874.697
299.862	18.823	1146.586	874.458
300.876	18.896	1146.180	874.442
301.891	18.896	1145.479	873.831
302.906	18.908	1144.729	873.242
303.920	18.904	1144.309	872.822
304.935	18.902	1143.694	872.268
305.949	19.147	1142.803	872.754
306.964	19.104	1142.066	871.895
307.979	19.009	1141.535	870.928
308.993	18.985	1140.934	870.272
310.008	19.047	1139.754	869.612
311.022	19.117	1139.480	869.677
312.037	19.149	1138.518	869.030
313.052	19.093	1137.212	867.671
314.066	19.028	1136.131	866.442
315.081	18.842	1135.524	864.965
316.095	18.759	1134.970	864.052
317.110	18.924	1133.825	863.932
318.125	18.957	1133.017	863.408
319.139	18.865	1132.472	862.453
320.154	18.831	1131.940	861.799
321.168	18.844	1131.369	861.356
322.183	18.995	1130.462	861.344
323.197	18.998	1130.088	860.999
324.212	18.938	1129.557	860.219
325.227	18.948	1129.059	859.814
326.241	19.069	1128.007	859.539
327.256	19.022	1127.134	858.562
328.270	18.953	1126.564	857.706
329.285	19.072	1125.054	857.078
330.300	19.117	1124.256	856.616
331.314	19.033	1123.575	855.604
332.329	19.023	1122.555	854.703
333.343	19.120	1121.333	854.177
334.358	19.135	1120.862	853.814
335.373	19.241	1120.511	854.000
336.387	19.246	1119.184	852.938
337.402	19.297	1118.482	852.577
338.416	19.193	1118.209	851.782
339.431	19.402	1117.469	852.174
340.446	19.387	1117.028	851.692
341.460	19.490	1116.095	851.412
342.475	19.626	1115.033	851.194
343.489	19.630	1114.323	850.596
344.504	19.564	1113.525	849.586
345.519	19.487	1112.996	848.732
346.533	19.581	1112.276	848.569
347.548	19.688	1111.517	848.438
348.562	19.635	1110.524	847.347
349.577	19.546	1109.451	846.015
350.592	19.473	1108.610	844.941
351.606	19.456	1107.917	844.258
352.621	19.388	1107.315	843.389
353.635	19.312	1106.613	842.412
354.650	19.452	1105.689	842.318
355.665	19.547	1105.154	842.299
356.679	19.512	1104.461	841.525
357.694	19.545	1104.006	841.266
358.708	19.454	1103.628	840.458
359.723	19.590	1102.997	840.565
360.738	19.609	1101.882	839.731
361.752	19.560	1101.482	839.118
362.767	19.529	1101.452	838.867
363.781	19.585	1100.411	838.276
364.796	19.775	1099.405	838.353
365.810	19.772	1099.513	838.346
366.825	19.962	1098.406	838.351
367.840	19.943	1098.126	837.970
368.854	20.036	1097.575	837.925
369.869	20.002	1096.649	836.980
370.883	20.011	1095.752	836.267
371.898	19.907	1094.703	834.888
372.913	19.943	1094.256	834.647
373.927	19.973	1093.887	834.436
374.942	20.098	1093.206	834.447
375.956	20.049	1092.965	833.949
376.971	20.000	1092.354	833.174
377.986	20.021	1091.814	832.793
379.000	20.173	1091.343	833.087
380.015	20.193	1090.629	832.567
381.029	20.222	1090.118	832.240
382.044	20.206	1089.153	831.354
383.059	20.098	1088.433	830.214
384.073	20.131	1087.478	829.569
385.088	20.143	1086.647	828.918
386.102	20.207	1085.604	828.358
387.117	20.208	1084.332	827.317
388.132	19.934	1083.535	825.328
389.146	19.986	1082.740	824.899
390.161	19.983	1082.173	824.378
391.175	20.036	1081.669	824.174
392.190	20.114	1080.899	823.887
393.205	20.183	1080.154	823.571
394.219	20.283	1078.929	823.042
395.234	20.115	1078.332	821.716
396.248	20.160	1077.312	821.077
397.263	20.079	1076.213	819.785
398.278	19.991	1075.997	819.133
399.292	19.955	1074.895	818.051
400.307	19.964	1074.004	817.343
401.321	20.081	1073.257	817.254
402.336	20.169	1072.531	817.041
403.350	20.201	1071.623	816.430
404.365	20.108	1071.265	815.648
405.380	20.116	1070.617	815.120
406.394	20.243	1069.972	815.153
407.409	20.294	1069.190	814.725
408.423	20.351	1068.393	814.312
409.438	20.479	1067.782	814.373
410.453	20.563	1067.006	814.103
411.467	20.622	1066.397	813.846
412.482	20.475	1066.116	812.870
413.496	20.528	1065.583	812.641
414.511	20.588	1064.758	812.217
415.526	20.658	1064.400	812.202
416.540	20.760	1063.908	812.227
417.555	20.665	1063.638	811.510
418.569	20.558	1062.761	810.267
419.584	20.589	1062.259	809.956
420.599	20.562	1062.265	809.764
421.613	146.099	1394.905	1763.339
422.628	134.388	1443.380	1763.443
