DTS Sentinel unit serial number:	SN413079Multiplexer serial number:	ORYXHardware model number:	OX4-SRSoftware version number:	ORYX F/W v4.00 Oryx Data Collector v3.7.2.0data status	okinstallation	princeton_trtdifferential loss correction	single-endedforward channel	channel 2reverse channel	N/Adate	2019/09/17time	01:39:35forward acquisition time	60.00reverse acquisition time	0.00gamma	496.2192k internal	0.2329k external	0.2329temperature offset calibration	0.9976default loss term (dB/km)	0.3790temperature slope calibration	1.0000multiplexer offset coefficient	1.0000multiplexer slope coefficient	1.0000fibre end	0.00T internal ref (°C)	29.56T ext. ref 1 (°C)	0.11T ext. ref 2 (°C)	24.52length (m)	temperature (°C)	Stokes	anti-Stokes-747.200	704.120	-0.127	0.339
-746.185	111.754	0.011	-0.014
-745.171	542.093	-0.032	-0.077
-744.156	241.917	-0.260	0.439
-743.142	647.866	0.037	-0.096
-742.127	169.754	0.146	0.210
-741.112	-66.622	0.281	-0.112
-740.098	-200.000	-0.067	-0.302
-739.083	-200.000	-0.028	0.197
-738.069	84.720	0.055	0.061
-737.054	4.313	-0.213	-0.157
-736.039	36.574	-0.091	0.080
-735.025	-74.661	-0.249	-0.090
-734.010	-131.324	-0.128	0.017
-732.996	254.289	0.055	0.094
-731.981	-149.075	-0.090	0.007
-730.966	418.290	-0.153	-0.329
-729.952	700.221	0.123	-0.327
-728.937	63.712	-0.051	-0.052
-727.923	57.253	-0.206	-0.203
-726.908	529.924	0.058	0.138
-725.894	-200.000	-0.037	-0.192
-724.879	75.296	-0.218	-0.231
-723.864	-13.484	0.312	0.204
-722.850	68.175	-0.175	0.180
-721.835	-16.180	0.072	0.046
-720.821	-162.002	-0.246	-0.013
-719.806	-33.311	0.104	-0.058
-718.791	-200.000	-0.003	-0.192
-717.777	93.830	0.176	0.201
-716.762	800.000	-0.106	-0.379
-715.748	-102.463	0.151	0.036
-714.733	-200.000	0.002	-0.214
-713.718	-200.000	-0.015	-0.070
-712.704	147.385	0.157	-0.212
-711.689	471.135	-0.056	0.127
-710.675	-200.000	-0.046	-0.205
-709.660	-71.045	0.207	-0.078
-708.645	-106.257	0.428	0.096
-707.631	268.073	-0.062	0.109
-706.616	800.000	-0.112	-0.316
-705.602	-200.000	-0.044	-0.283
-704.587	74.999	-0.181	-0.192
-703.572	134.180	0.125	0.163
-702.558	117.842	0.283	0.350
-701.543	7.021	0.103	-0.077
-700.529	-36.715	-0.168	-0.091
-699.514	-96.206	0.022	0.006
-698.499	-151.270	-0.237	-0.018
-697.485	-91.923	-0.055	-0.016
-696.470	800.000	0.053	0.204
-695.456	-200.000	-0.033	-0.196
-694.441	74.955	0.093	0.099
-693.426	800.000	0.047	-0.132
-692.412	-126.994	0.130	-0.019
-691.397	-40.379	-0.101	-0.053
-690.383	-200.000	-0.052	-0.293
-689.368	1.078	0.019	0.014
-688.354	-200.000	0.008	-0.102
-687.339	-6.321	-0.187	-0.128
-686.324	207.991	-0.032	0.049
-685.310	281.770	-0.064	0.116
-684.295	-200.000	-0.003	-0.040
-683.281	-81.462	-0.058	-0.019
-682.266	12.655	-0.167	0.129
-681.251	187.452	0.115	-0.173
-680.237	535.363	-0.049	-0.116
-679.222	-106.420	0.165	-0.037
-678.208	-22.397	0.151	0.092
-677.193	-50.249	0.305	0.145
-676.178	800.000	0.057	0.189
-675.164	-200.000	0.025	0.337
-674.149	-200.000	0.012	-0.114
-673.135	557.793	0.160	-0.388
-672.120	18.704	0.174	0.140
-671.105	96.583	0.194	-0.224
-670.091	-134.966	0.172	-0.021
-669.076	800.000	0.045	0.162
-668.062	-123.696	-0.053	-0.009
-667.047	-55.210	-0.166	-0.075
-666.032	-200.000	0.001	0.087
-665.018	8.233	0.178	-0.135
-664.003	-43.820	-0.184	0.093
-662.989	800.000	0.085	0.241
-661.974	800.000	0.132	-0.439
-660.959	800.000	-0.067	-0.259
-659.945	35.317	-0.179	-0.158
-658.930	24.208	-0.178	-0.148
-657.916	3.405	-0.315	-0.230
-656.901	-177.496	0.071	0.002
-655.886	-200.000	-0.030	-0.139
-654.872	338.205	0.262	0.513
-653.857	50.847	0.270	-0.257
-652.843	8.494	0.420	-0.317
-651.828	-79.778	0.241	0.082
-650.814	372.880	-0.069	0.141
-649.799	77.182	0.046	-0.049
-648.784	-53.395	0.219	0.101
-647.770	-125.398	-0.086	0.013
-646.755	800.000	0.018	0.072
-645.741	-200.000	0.002	0.035
-644.726	-200.000	0.035	0.245
-643.711	69.637	-0.179	-0.185
-642.697	117.430	0.212	-0.262
-641.682	-200.000	0.017	0.154
-640.668	223.093	-0.151	-0.244
-639.653	-113.949	0.103	0.020
-638.638	-68.614	-0.174	-0.068
-637.624	-200.000	-0.027	0.213
-636.609	104.648	-0.180	-0.213
-635.595	-200.000	0.062	-0.275
-634.580	-4.555	0.131	-0.091
-633.565	139.281	0.137	-0.181
-632.551	687.989	0.079	-0.206
-631.536	-200.000	-0.005	-0.287
-630.522	-130.986	-0.153	0.020
-629.507	-146.877	0.298	-0.026
-628.492	-118.401	-0.551	0.098
-627.478	332.890	-0.136	0.264
-626.463	587.363	0.098	0.241
-625.449	-0.401	-0.088	0.062
-624.434	-39.995	0.181	0.095
-623.419	-66.473	-0.454	0.181
-622.405	-112.429	0.330	0.066
-621.390	-106.022	0.299	-0.068
-620.376	-57.236	0.235	-0.104
-619.361	244.032	-0.075	0.126
-618.346	-200.000	-0.014	-0.087
-617.332	35.426	0.158	0.139
-616.317	227.203	0.148	0.241
-615.303	-94.228	-0.188	0.052
-614.288	800.000	0.020	0.063
-613.273	56.589	0.043	-0.042
-612.259	267.165	-0.265	-0.464
-611.244	-91.109	0.074	0.021
-610.230	-69.695	-0.364	0.140
-609.215	-97.530	0.057	-0.015
-608.201	800.000	0.094	0.318
-607.186	800.000	-0.077	0.335
-606.171	-166.536	-0.319	0.013
-605.157	-7.967	-0.286	0.193
-604.142	-36.274	0.055	0.030
-603.128	85.200	0.079	-0.087
-602.113	-69.122	-0.296	0.114
-601.098	79.867	0.076	0.082
-600.084	94.798	-0.125	0.142
-599.069	169.230	0.213	-0.304
-598.055	69.911	-0.298	-0.307
-597.040	800.000	-0.078	0.239
-596.025	-200.000	0.149	-0.000
-595.011	66.525	-0.266	-0.271
-593.996	-58.839	-0.071	-0.031
-592.982	53.316	-0.192	-0.185
-591.967	-48.356	0.192	-0.093
-590.952	85.943	0.290	-0.319
-589.938	96.457	-0.075	-0.086
-588.923	128.453	0.063	0.080
-587.909	87.307	-0.117	-0.129
-586.894	-131.487	0.171	0.023
-585.879	380.240	0.060	-0.123
-584.865	36.905	-0.270	-0.239
-583.850	-55.478	-0.096	-0.043
-582.836	694.717	-0.095	0.248
-581.821	216.155	0.239	0.380
-580.806	36.903	-0.146	0.129
-579.792	-134.863	0.207	-0.025
-578.777	68.334	0.202	-0.207
-577.763	-12.184	0.107	-0.070
-576.748	800.000	0.092	0.282
-575.733	-66.582	-0.380	-0.151
-574.719	-64.695	-0.041	-0.017
-573.704	-96.337	0.050	-0.013
-572.690	-65.729	-0.294	0.118
-571.675	51.525	-0.066	0.063
-570.661	-200.000	-0.011	-0.066
-569.646	-53.727	0.230	-0.105
-568.631	-132.217	0.159	0.021
-567.617	-105.670	-0.102	-0.023
-566.602	708.995	-0.111	-0.294
-565.588	65.965	0.034	0.034
-564.573	-19.177	0.358	0.223
-563.558	-200.000	-0.005	-0.073
-562.544	-125.755	-0.427	0.065
-561.529	-200.000	-0.018	-0.241
-560.515	210.886	-0.088	0.139
-559.500	800.000	-0.036	-0.143
-558.485	93.406	-0.108	0.122
-557.471	-131.981	0.294	0.038
-556.456	80.604	-0.012	0.013
-555.442	-65.305	0.084	0.034
-554.427	-158.421	-0.117	0.007
-553.412	-32.889	0.263	-0.146
-552.398	117.204	0.072	-0.089
-551.383	-120.287	-0.241	-0.041
-550.369	144.130	0.091	-0.121
-549.354	32.441	-0.112	0.097
-548.339	293.434	-0.049	0.090
-547.325	-200.000	0.001	-0.066
-546.310	26.349	0.154	-0.129
-545.296	-139.302	-0.266	0.029
-544.281	-28.171	-0.182	0.105
-543.266	148.852	0.180	0.243
-542.252	-52.047	-0.074	-0.034
-541.237	45.152	0.226	-0.209
-540.223	-36.785	-0.085	0.045
-539.208	-200.000	-0.011	-0.066
-538.193	459.566	-0.094	0.210
-537.179	-200.000	-0.027	-0.133
-536.164	151.698	0.024	0.033
-535.150	250.159	0.062	-0.106
-534.135	-200.000	-0.012	-0.130
-533.121	-200.000	-0.037	0.211
-532.106	-34.270	0.199	-0.109
-531.091	-89.362	0.134	0.039
-530.077	-200.000	-0.002	-0.387
-529.062	190.332	-0.147	0.221
-528.048	-107.364	0.188	-0.041
-527.033	195.283	0.174	-0.265
-526.018	-200.000	-0.034	-0.560
-525.004	509.192	0.127	0.295
-523.989	-40.663	0.159	-0.082
-522.975	-200.000	0.025	0.223
-521.960	800.000	0.049	-0.194
-520.945	-160.488	0.103	-0.006
-519.931	11.287	-0.202	0.154
-518.916	-189.212	-0.210	0.002
-517.902	-55.529	-0.313	0.140
-516.887	117.444	-0.019	-0.023
-515.872	-200.000	-0.022	-0.226
-514.858	-143.094	0.100	0.010
-513.843	124.138	-0.099	0.124
-512.829	280.680	0.008	0.015
-511.814	129.308	-0.160	0.204
-510.799	-29.092	-0.130	0.074
-509.785	-131.463	-0.216	-0.029
-508.770	111.872	0.232	0.280
-507.756	86.999	0.191	0.210
-506.741	800.000	0.092	-0.394
-505.726	-200.000	0.032	-0.161
-504.712	-200.000	-0.007	-0.098
-503.697	-55.553	0.349	0.156
-502.683	405.235	0.201	-0.423
-501.668	37.166	-0.224	-0.198
-500.653	257.067	-0.222	-0.380
-499.639	-120.961	-0.242	-0.041
-498.624	-200.000	0.029	0.128
-497.610	136.117	-0.194	0.252
-496.595	-200.000	-0.027	0.153
-495.581	-200.000	-0.075	-0.344
-494.566	169.026	-0.085	0.121
-493.551	-33.303	0.085	-0.047
-492.537	704.158	0.029	0.077
-491.522	-28.464	0.451	-0.259
-490.508	101.412	0.147	-0.171
-489.493	328.184	-0.085	-0.162
-488.478	-181.877	-0.189	-0.004
-487.464	-99.211	0.163	0.041
-486.449	225.298	0.041	0.066
-485.435	-14.487	0.218	0.140
-484.420	150.293	-0.283	0.383
-483.405	-200.000	0.012	0.159
-482.391	-169.645	0.210	-0.008
-481.376	17.464	-0.263	-0.209
-480.362	-45.769	-0.154	-0.076
-479.347	-200.000	-0.002	-0.331
-478.332	18.480	-0.246	0.196
-477.318	106.585	0.079	-0.093
-476.303	800.000	-0.036	0.140
-475.289	-44.847	-0.250	0.124
-474.274	-200.000	0.050	0.359
-473.259	53.184	-0.059	-0.057
-472.245	-23.113	0.302	0.181
-471.230	-200.000	-0.092	0.496
-470.216	-200.000	-0.028	-0.226
-469.201	-200.000	-0.001	0.265
-468.186	178.062	0.124	0.180
-467.172	-82.051	-0.359	0.117
-466.157	800.000	0.042	-0.173
-465.143	-57.977	-0.195	-0.085
-464.128	626.054	-0.030	0.076
-463.113	-144.848	-0.369	-0.034
-462.099	688.615	0.088	0.230
-461.084	800.000	-0.114	-0.414
-460.070	163.751	0.356	0.499
-459.055	-92.350	-0.176	-0.049
-458.040	97.823	-0.039	0.045
-457.026	-173.989	0.630	-0.018
-456.011	-71.944	0.306	0.114
-454.997	9.342	-0.311	0.234
-453.982	-147.761	0.137	-0.011
-452.968	184.016	0.191	-0.282
-451.953	-63.013	-0.258	-0.106
-450.938	-187.015	0.295	-0.004
-449.924	-126.879	-0.136	-0.020
-448.909	-200.000	-0.012	-0.310
-447.895	141.319	-0.197	-0.259
-446.880	-95.034	-0.093	0.025
-445.865	-200.000	-0.010	0.318
-444.851	-51.655	0.182	-0.085
-443.836	79.620	0.163	-0.175
-442.822	800.000	-0.045	0.182
-441.807	-39.772	-0.411	-0.214
-440.792	-57.075	-0.325	0.143
-439.778	-200.000	-0.026	-0.277
-438.763	215.336	-0.051	-0.080
-437.749	800.000	-0.089	0.261
-436.734	10.093	-0.190	0.144
-435.719	88.220	-0.063	0.069
-434.705	-67.765	0.483	0.188
-433.690	-200.000	0.002	0.275
-432.676	800.000	-0.145	0.483
-431.661	181.922	-0.092	0.136
-430.646	800.000	-0.064	-0.187
-429.632	115.423	0.101	0.123
-428.617	51.638	-0.223	0.211
-427.603	-53.339	0.221	0.101
-426.588	-140.330	-0.093	-0.010
-425.573	-161.284	0.143	0.007
-424.559	-161.343	0.217	-0.011
-423.544	18.764	-0.261	0.208
-422.530	76.447	0.039	0.041
-421.515	18.152	0.206	0.163
-420.500	-82.167	0.222	0.072
-419.486	-51.308	-0.116	-0.054
-418.471	3.668	-0.206	0.150
-417.457	-200.000	0.001	0.076
-416.442	439.318	-0.120	0.260
-415.428	-102.975	0.219	-0.052
-414.413	-82.235	0.182	0.059
-413.398	-62.329	0.091	0.038
-412.384	198.879	-0.208	-0.317
-411.369	-141.517	-0.174	0.017
-410.355	-200.000	0.027	0.321
-409.340	-24.468	-0.146	-0.086
-408.325	97.960	-0.099	-0.113
-407.311	-34.992	0.238	-0.129
-406.296	-59.708	0.143	-0.061
-405.282	-17.944	0.188	0.117
-404.267	-200.000	-0.013	-0.164
-403.252	800.000	-0.062	0.192
-402.238	-200.000	-0.036	-0.278
-401.223	198.330	0.095	-0.144
-400.209	175.604	0.111	-0.160
-399.194	-200.000	-0.022	-0.152
-398.179	-45.001	0.337	-0.167
-397.165	-200.000	-0.007	-0.205
-396.150	-144.588	-0.311	0.029
-395.136	-68.948	0.096	0.037
-394.121	-189.200	-0.058	0.001
-393.106	-27.660	-0.257	-0.148
-392.092	-105.064	-0.242	0.055
-391.077	-2.030	0.142	0.099
-390.063	-61.604	0.049	0.021
-389.048	800.000	0.105	-0.320
-388.033	28.816	-0.296	0.249
-387.019	65.214	0.114	0.115
-386.004	187.328	-0.295	-0.437
-384.990	-72.155	-0.276	0.102
-383.975	431.089	0.047	0.100
-382.960	246.882	0.084	0.141
-381.946	800.000	0.028	-0.118
-380.931	800.000	0.020	0.085
-379.917	187.073	-0.083	-0.122
-378.902	263.730	0.139	0.240
-377.888	135.663	0.198	0.256
-376.873	75.837	-0.088	-0.093
-375.858	-200.000	-0.002	0.559
-374.844	800.000	-0.087	0.271
-373.829	157.460	0.112	-0.154
-372.815	-200.000	-0.060	-0.309
-371.800	4.577	-0.202	-0.147
-370.785	104.898	0.073	-0.085
-369.771	-200.000	0.034	-0.578
-368.756	-144.385	-0.136	0.013
-367.742	355.840	-0.027	0.053
-366.727	-109.454	0.278	0.058
-365.712	-38.170	0.258	0.136
-364.698	4.280	0.145	-0.106
-363.683	-165.131	-0.033	0.001
-362.669	42.901	0.076	0.068
-361.654	-200.000	0.002	0.108
-360.639	336.252	0.157	0.302
-359.625	31.869	-0.132	-0.113
-358.610	-98.891	0.041	-0.010
-357.596	-200.000	-0.021	0.173
-356.581	800.000	-0.046	0.197
-355.566	55.699	-0.116	-0.111
-354.552	-200.000	-0.070	-0.423
-353.537	-89.097	0.040	-0.012
-352.523	278.712	-0.068	0.119
-351.508	211.242	-0.080	-0.125
-350.493	-28.302	-0.068	0.039
-349.479	-61.161	0.258	-0.108
-348.464	253.183	-0.106	-0.180
-347.450	459.203	-0.030	-0.067
-346.435	-200.000	0.086	-0.468
-345.420	-200.000	0.014	-0.200
-344.406	25.271	-0.271	-0.223
-343.391	552.992	0.059	0.140
-342.377	-141.451	-0.134	0.013
-341.362	7.720	-0.225	-0.167
-340.348	-96.660	0.417	0.109
-339.333	133.035	0.096	0.123
-338.318	-140.218	-0.114	-0.012
-337.304	199.888	0.295	0.449
-336.289	-59.803	-0.164	0.070
-335.275	-21.261	0.154	-0.093
-334.260	-31.230	-0.219	-0.122
-333.245	10.904	-0.084	0.063
-332.231	51.599	-0.090	0.084
-331.216	-200.000	-0.039	-0.190
-330.202	800.000	0.074	0.213
-329.187	-200.000	0.005	-0.209
-328.172	17.688	0.211	-0.167
-327.158	299.833	-0.142	0.260
-326.143	-140.065	-0.316	-0.033
-325.129	-73.442	0.398	-0.144
-324.114	492.704	-0.204	-0.464
-323.099	-200.000	-0.026	-0.231
-322.085	-46.795	0.175	0.085
-321.070	-99.221	-0.201	0.050
-320.056	-200.000	0.097	-0.454
-319.041	-31.008	0.329	-0.184
-318.026	-107.659	-0.386	0.084
-317.012	161.988	-0.042	0.058
-315.997	29.622	-0.123	0.104
-314.983	-104.388	0.175	-0.040
-313.968	106.111	-0.124	0.145
-312.953	296.534	0.114	0.208
-311.939	232.059	-0.071	0.115
-310.924	-51.633	0.112	0.052
-309.910	-80.781	-0.160	-0.053
-308.895	-99.570	0.350	0.087
-307.880	-78.549	0.171	-0.058
-306.866	101.457	0.151	0.175
-305.851	-192.090	0.199	0.002
-304.837	-51.456	-0.220	-0.102
-303.822	-94.421	0.315	-0.085
-302.807	800.000	-0.058	-0.208
-301.793	162.952	0.204	-0.283
-300.778	-186.185	0.181	0.003
-299.764	31.653	0.020	0.017
-298.749	-57.521	-0.234	-0.101
-297.735	-125.425	0.344	0.052
-296.720	-200.000	0.038	0.300
-295.705	39.395	-0.187	0.165
-294.691	34.910	0.066	-0.057
-293.676	-56.550	0.323	-0.142
-292.662	-106.447	0.180	0.040
-291.647	-110.548	-0.298	0.061
-290.632	-93.124	-0.179	-0.049
-289.618	96.915	-0.199	-0.226
-288.603	-200.000	0.019	0.136
-287.589	374.213	-0.098	0.198
-286.574	6.126	0.250	0.183
-285.559	-121.422	-0.337	0.056
-284.545	-200.000	-0.082	0.407
-283.530	-98.062	-0.191	0.049
-282.516	-26.781	0.218	0.126
-281.501	-15.429	-0.263	-0.166
-280.486	37.060	0.199	0.174
-279.472	182.980	-0.042	-0.061
-278.457	168.381	-0.210	-0.295
-277.443	173.126	0.088	0.125
-276.428	308.662	-0.101	0.187
-275.413	-200.000	0.034	-0.346
-274.399	-200.000	0.010	-0.183
-273.384	-200.000	-0.002	0.214
-272.370	155.135	0.126	0.171
-271.355	85.530	0.115	-0.124
-270.340	68.593	0.053	0.054
-269.326	150.043	0.114	0.153
-268.311	800.000	-0.085	-0.295
-267.297	-67.288	0.255	-0.099
-266.282	-150.150	0.324	-0.025
-265.267	446.419	-0.073	-0.158
-264.253	-114.675	0.055	0.010
-263.238	-78.879	0.042	0.014
-262.224	-38.225	-0.300	-0.157
-261.209	-200.000	-0.019	0.102
-260.195	191.498	-0.137	-0.204
-259.180	-83.834	0.014	0.004
-258.165	198.632	0.171	0.259
-257.151	-200.000	0.019	0.084
-256.136	-200.000	-0.024	-0.137
-255.122	633.495	-0.080	-0.200
-254.107	-137.775	0.136	-0.015
-253.092	-38.462	-0.229	0.120
-252.078	214.724	0.150	0.236
-251.063	-134.401	0.081	-0.010
-250.049	84.535	0.153	0.166
-249.034	-114.943	-0.274	0.052
-248.019	-167.904	0.127	-0.005
-247.005	72.859	0.174	0.180
-245.990	-200.000	0.024	0.307
-244.976	91.400	0.075	0.083
-243.961	120.208	0.071	-0.088
-242.946	-26.048	-0.062	-0.036
-241.932	800.000	-0.027	-0.080
-240.917	-50.244	0.183	0.085
-239.903	-20.375	0.248	0.150
-238.888	-128.546	-0.188	0.026
-237.873	-119.770	0.079	-0.013
-236.859	-200.000	0.015	0.189
-235.844	-28.307	-0.373	0.212
-234.830	-65.211	0.314	0.125
-233.815	70.483	0.163	0.166
-232.800	-58.573	-0.238	0.102
-231.786	102.426	0.208	-0.240
-230.771	-93.915	0.123	-0.033
-229.757	-200.000	-0.021	0.167
-228.742	-183.802	-0.078	0.001
-227.727	-42.374	-0.251	0.126
-226.713	90.464	-0.187	-0.207
-225.698	-200.000	-0.062	0.339
-224.684	170.694	0.224	-0.317
-223.669	706.185	0.055	-0.144
-222.655	551.670	0.083	0.197
-221.640	-186.331	0.486	0.007
-220.625	-89.394	0.312	0.091
-219.611	-200.000	-0.042	-0.193
-218.596	-200.000	0.022	-0.193
-217.582	-137.307	-0.114	-0.013
-216.567	-43.515	-0.248	0.123
-215.552	157.773	0.094	0.128
-214.538	9.022	0.092	-0.069
-213.523	-115.209	0.120	0.022
-212.509	94.198	0.024	0.027
-211.494	219.823	-0.206	-0.326
-210.479	-200.000	-0.099	0.499
-209.465	-125.835	0.400	-0.060
-208.450	-194.768	0.266	0.002
-207.436	-200.000	0.013	-0.144
-206.421	10.185	-0.226	0.169
-205.406	257.204	-0.096	0.163
-204.392	141.807	-0.086	-0.113
-203.377	800.000	-0.059	0.205
-202.363	58.299	-0.209	-0.202
-201.348	-22.889	0.090	0.054
-200.333	703.812	0.104	-0.269
-199.319	15.492	0.214	-0.166
-198.304	27.251	0.143	-0.118
-197.290	-17.702	0.137	-0.085
-196.275	800.000	-0.069	0.231
-195.260	67.157	0.251	-0.252
-194.246	-141.919	0.072	0.007
-193.231	-147.391	-0.290	-0.024
-192.217	91.080	0.075	-0.083
-191.202	-200.000	-0.022	-0.243
-190.187	179.225	0.208	-0.300
-189.173	52.908	0.112	-0.106
-188.158	-43.009	-0.129	0.065
-187.144	380.495	0.085	-0.171
-186.129	332.022	0.115	0.220
-185.114	-155.253	-0.193	-0.012
-184.100	58.702	0.104	-0.100
-183.085	288.756	-0.139	0.247
-182.071	-82.122	-0.296	-0.095
-181.056	89.732	-0.302	-0.332
-180.042	-53.031	-0.331	-0.150
-179.027	-23.291	-0.123	-0.073
-178.012	-200.000	0.004	-0.185
-176.998	-11.816	-0.088	-0.057
-175.983	-200.000	-0.006	-0.140
-174.969	-200.000	0.013	0.168
-173.954	30.086	-0.161	0.136
-172.939	-200.000	-0.000	0.114
-171.925	79.210	0.145	0.153
-170.910	-200.000	-0.044	0.295
-169.896	721.910	0.075	-0.197
-168.881	-200.000	0.022	0.109
-167.866	-200.000	-0.002	0.311
-166.852	172.715	-0.049	0.069
-165.837	-56.673	-0.258	0.113
-164.823	-126.877	0.189	0.027
-163.808	358.797	-0.096	-0.189
-162.793	-200.000	-0.001	-0.033
-161.779	-200.000	0.031	0.152
-160.764	-79.464	-0.158	-0.053
-159.750	800.000	0.072	-0.254
-158.735	-7.936	-0.183	-0.122
-157.720	-14.779	0.048	-0.030
-156.706	-200.000	-0.045	0.242
-155.691	62.125	0.101	-0.099
-154.677	-74.983	0.186	-0.065
-153.662	-145.071	0.230	0.021
-152.647	800.000	-0.027	0.107
-151.633	800.000	0.103	0.282
-150.618	209.801	-0.126	0.194
-149.604	173.196	0.063	0.089
-148.589	-200.000	0.011	0.095
-147.574	238.477	-0.029	0.047
-146.560	-64.849	0.171	-0.068
-145.545	422.941	-0.040	0.084
-144.531	185.105	-0.103	0.150
-143.516	-200.000	-0.063	0.314
-142.502	-200.000	0.028	-0.246
-141.487	-136.184	0.122	0.014
-140.472	271.273	-0.209	0.362
-139.458	-200.000	-0.024	0.165
-138.443	-200.000	0.025	-0.163
-137.429	470.157	0.149	-0.330
-136.414	438.312	0.101	0.217
-135.399	-70.587	-0.272	-0.101
-134.385	800.000	0.057	0.182
-133.370	157.311	0.048	-0.065
-132.356	-178.361	0.502	0.012
-131.341	800.000	-0.045	0.132
-130.326	64.661	0.058	-0.058
-129.312	-160.621	0.091	-0.005
-128.297	-77.988	0.321	-0.109
-127.283	-46.771	0.214	-0.103
-126.268	411.213	-0.122	-0.255
-125.253	88.229	0.097	-0.106
-124.239	75.648	-0.150	0.156
-123.224	-200.000	-0.005	-0.647
-122.210	-200.000	0.040	0.253
-121.195	508.153	-0.098	0.224
-120.180	-48.450	0.047	-0.022
-119.166	-32.560	-0.381	-0.209
-118.151	31.870	-0.152	-0.129
-117.137	-191.508	0.273	-0.003
-116.122	573.445	-0.078	0.188
-115.107	-68.112	-0.414	-0.158
-114.093	-200.000	0.001	0.425
-113.078	-200.000	-0.085	-0.378
-112.064	38.911	-0.214	-0.188
-111.049	-4.225	0.208	0.141
-110.034	332.658	0.186	0.352
-109.020	-200.000	-0.010	0.088
-108.005	207.711	0.104	0.159
-106.991	-200.000	0.123	0.534
-105.976	-64.337	-0.219	0.088
-104.962	78.414	0.154	0.161
-103.947	-109.578	0.308	-0.064
-102.932	-171.319	-0.095	-0.003
-101.918	29.494	-0.117	0.098
-100.903	-200.000	-0.011	-0.059
-99.889	9.182	-0.227	0.168
-98.874	-200.000	0.013	0.099
-97.859	-163.158	0.300	0.014
-96.845	-95.972	-0.021	0.006
-95.830	272.261	-0.152	-0.263
-94.816	-13.852	0.188	0.119
-93.801	-147.803	0.048	0.004
-92.786	-200.000	0.000	0.044
-91.772	-200.000	0.014	0.128
-90.757	101.292	0.172	-0.197
-89.743	103.545	0.280	0.323
-88.728	-200.000	0.019	-0.212
-87.713	-200.000	-0.022	0.134
-86.699	237.717	0.039	-0.063
-85.684	-42.924	-0.463	-0.231
-84.670	-15.393	-0.264	0.166
-83.655	48.342	-0.106	-0.098
-82.640	259.575	0.193	0.327
-81.626	7.793	-0.233	0.171
-80.611	-32.228	-0.101	-0.055
-79.597	-200.000	-0.001	-0.010
-78.582	-129.159	0.160	0.022
-77.567	-89.764	0.191	0.055
-76.553	-0.898	0.267	0.185
-75.538	800.000	-0.104	0.405
-74.524	-142.153	0.120	0.012
-73.509	21.796	-0.147	0.118
-72.494	52.329	-0.062	0.058
-71.480	-200.000	0.395	-0.002
-70.465	-155.475	-0.180	0.011
-69.451	-200.000	0.046	0.215
-68.436	800.000	-0.026	0.081
-67.422	169.219	0.094	0.131
-66.407	26.718	0.231	0.190
-65.392	158.760	-0.039	0.053
-64.378	134.272	0.111	-0.141
-63.363	642.601	0.105	-0.263
-62.349	-163.364	0.544	0.025
-61.334	96.903	-0.828	-0.931
-60.319	766.062	0.236	0.628
-59.305	800.000	-0.258	-0.925
-58.290	408.187	0.591	1.227
-57.276	262.593	0.902	1.535
-56.261	-200.000	108.330	585.076
-55.246	445.133	1478.131	3182.964
-54.232	146.509	2669.290	3515.612
-53.217	99.407	2288.995	2596.017
-52.203	38.463	1901.106	1661.581
-51.188	32.835	1689.668	1434.101
-50.173	30.228	1646.052	1377.693
-49.159	48.893	1699.847	1564.125
-48.144	49.193	1715.271	1580.519
-47.130	32.328	1672.685	1415.646
-46.115	29.700	1658.288	1383.762
-45.100	29.407	1653.967	1377.910
-44.086	29.513	1650.577	1375.821
-43.071	29.454	1648.217	1373.361
-42.057	29.458	1645.562	1371.125
-41.042	29.540	1643.560	1370.009
-40.027	29.371	1642.277	1367.632
-39.013	29.433	1639.783	1365.960
-37.998	29.385	1638.347	1364.360
-36.984	29.448	1636.805	1363.487
-35.969	29.526	1635.964	1363.304
-34.954	29.606	1633.888	1362.113
-33.940	29.486	1632.465	1359.989
-32.925	29.568	1630.492	1358.897
-31.911	29.519	1628.987	1357.221
-30.896	29.553	1626.903	1355.685
-29.881	29.529	1625.388	1354.192
-28.867	29.607	1623.275	1352.952
-27.852	29.552	1622.385	1351.751
-26.838	29.549	1621.308	1350.781
-25.823	29.654	1619.489	1349.979
-24.809	29.579	1618.261	1348.352
-23.794	29.651	1616.648	1347.480
-22.779	29.624	1615.375	1346.167
-21.765	29.475	1613.705	1343.638
-20.750	29.449	1612.421	1342.325
-19.736	29.575	1610.593	1341.663
-18.721	29.686	1609.073	1341.149
-17.706	29.586	1607.899	1339.396
-16.692	29.656	1606.291	1338.507
-15.677	29.626	1604.699	1336.912
-14.663	29.627	1603.893	1336.195
-13.648	29.655	1601.931	1334.707
-12.633	29.572	1601.176	1333.432
-11.619	29.560	1599.082	1331.547
-10.604	29.585	1597.793	1330.599
-9.590	29.613	1596.679	1329.823
-8.575	29.644	1594.973	1328.569
-7.560	29.635	1594.239	1327.845
-6.546	29.578	1592.737	1326.128
-5.531	29.567	1592.196	1325.549
-4.517	29.602	1590.589	1324.407
-3.502	29.505	1589.621	1322.855
-2.487	29.723	1587.481	1322.581
-1.473	29.330	1575.959	1310.134
-0.458	26.708	1556.946	1275.844
0.556	21.674	1558.385	1246.240
1.571	19.584	1581.600	1249.592
2.586	19.198	1595.705	1257.805
3.600	17.702	1542.215	1204.964
4.615	9.837	1432.138	1067.050
5.629	1.862	1366.713	967.730
6.644	0.235	1358.459	951.529
7.659	0.094	1357.020	949.545
8.673	0.101	1356.166	948.909
9.688	0.020	1354.729	947.306
10.702	-0.116	1351.484	944.103
11.717	3.701	1357.177	972.050
12.731	12.335	1370.976	1036.534
13.746	17.487	1377.649	1074.077
14.761	17.348	1376.220	1071.996
15.775	16.324	1373.238	1063.130
16.790	15.221	1370.619	1054.076
17.804	14.462	1368.631	1047.689
18.819	14.126	1366.877	1044.142
19.834	13.851	1365.499	1041.269
20.848	13.546	1364.465	1038.481
21.863	13.406	1362.789	1036.236
22.877	13.172	1362.066	1034.128
23.892	13.090	1361.009	1032.723
24.907	13.076	1360.413	1032.091
25.921	13.215	1359.250	1031.988
26.936	13.171	1358.575	1031.107
27.950	13.190	1357.901	1030.622
28.965	13.288	1356.391	1029.994
29.980	13.323	1355.935	1029.777
30.994	13.408	1354.468	1029.103
32.009	13.304	1354.315	1028.244
33.023	13.468	1352.849	1028.061
34.038	13.387	1351.949	1026.782
35.053	13.322	1350.589	1025.257
36.067	13.349	1349.447	1024.467
37.082	13.371	1348.648	1023.908
38.096	13.395	1347.784	1023.306
39.111	13.474	1347.105	1023.192
40.126	13.383	1346.356	1021.968
41.140	13.204	1345.687	1020.262
42.155	13.160	1345.470	1019.736
43.169	13.108	1345.188	1019.112
44.184	13.195	1344.702	1019.189
45.199	13.235	1344.046	1018.851
46.213	13.195	1343.565	1018.148
47.228	13.309	1342.331	1017.827
48.242	13.336	1341.319	1017.135
49.257	13.363	1339.791	1016.049
50.271	13.307	1338.233	1014.437
51.286	13.291	1337.061	1013.361
52.301	13.186	1336.242	1012.005
53.315	13.280	1334.720	1011.337
54.330	13.158	1334.169	1010.084
55.344	13.135	1332.909	1008.905
56.359	13.214	1331.649	1008.340
57.374	13.116	1331.024	1007.185
58.388	13.139	1330.250	1006.645
59.403	13.068	1329.693	1005.701
60.417	13.045	1328.771	1004.776
61.432	13.165	1327.592	1004.529
62.447	13.119	1326.580	1003.392
63.461	13.029	1325.728	1002.115
64.476	13.053	1324.415	1001.178
65.490	13.096	1323.132	1000.378
66.505	13.041	1322.031	999.124
67.520	13.073	1320.675	998.207
68.534	13.202	1319.304	997.863
69.549	13.181	1318.792	997.256
70.563	13.231	1317.401	996.421
71.578	13.090	1316.302	994.653
72.593	13.028	1315.612	993.667
73.607	13.068	1314.359	992.873
74.622	12.951	1313.958	991.783
75.636	13.020	1312.958	991.354
76.651	12.949	1312.613	990.576
77.666	13.002	1311.628	990.067
78.680	13.032	1311.304	989.914
79.695	13.070	1310.187	989.207
80.709	13.145	1309.613	989.135
81.724	13.149	1308.661	988.358
82.739	13.189	1307.987	987.999
83.753	13.260	1306.885	987.501
84.768	13.335	1305.707	986.972
85.782	13.391	1304.744	986.494
86.797	13.319	1303.382	984.942
87.812	13.259	1302.174	983.588
88.826	13.248	1301.400	982.851
89.841	13.252	1300.072	981.786
90.855	13.267	1299.302	981.203
91.870	13.375	1298.177	980.912
92.884	13.340	1297.296	979.953
93.899	13.435	1296.772	980.028
94.914	13.347	1296.177	978.972
95.928	13.460	1295.124	978.761
96.943	13.356	1293.940	977.165
97.957	13.435	1293.140	976.937
98.972	13.440	1291.591	975.714
99.987	13.334	1291.152	974.667
101.001	13.376	1290.059	974.004
102.016	13.421	1288.965	973.356
103.030	13.379	1288.240	972.477
104.045	13.330	1287.508	971.550
105.060	13.464	1285.471	970.712
106.074	13.268	1284.807	968.975
107.089	13.152	1283.417	967.164
108.103	13.219	1281.870	966.307
109.118	13.174	1280.748	965.113
110.133	13.171	1279.933	964.394
111.147	13.183	1278.289	963.140
112.162	13.168	1277.301	962.224
113.176	13.324	1275.679	961.825
114.191	13.307	1275.560	961.551
115.206	13.202	1274.108	959.758
116.220	13.268	1272.715	959.008
117.235	13.146	1271.917	957.614
118.249	13.198	1270.970	957.119
119.264	13.233	1269.655	956.245
120.279	13.234	1268.580	955.359
121.293	13.180	1267.735	954.325
122.308	13.218	1266.314	953.391
123.322	13.166	1265.713	952.553
124.337	13.194	1264.629	951.813
125.352	13.159	1263.606	950.760
126.366	13.120	1262.500	949.618
127.381	13.228	1261.289	949.242
128.395	13.186	1259.836	947.824
129.410	13.244	1259.012	947.455
130.424	13.241	1258.273	946.798
131.439	13.264	1257.425	946.209
132.454	13.366	1256.178	945.768
133.468	13.236	1255.478	944.417
134.483	13.255	1254.855	943.970
135.497	13.419	1253.489	943.797
136.512	13.278	1252.341	942.046
137.527	13.233	1250.983	940.682
138.541	13.260	1249.661	939.757
139.556	13.349	1248.384	939.223
140.570	13.342	1247.721	938.598
141.585	13.378	1246.004	937.429
142.600	13.353	1245.094	936.517
143.614	13.387	1244.358	936.075
144.629	13.423	1243.077	935.231
145.643	13.495	1241.402	934.293
146.658	13.459	1240.553	933.370
147.673	13.426	1239.583	932.373
148.687	13.428	1237.667	930.862
149.702	13.319	1236.627	929.384
150.716	13.372	1235.495	928.750
151.731	13.375	1234.544	927.966
152.746	13.366	1233.373	926.957
153.760	13.438	1232.018	926.256
154.775	13.522	1230.542	925.537
155.789	13.548	1229.716	924.979
156.804	13.461	1228.945	923.832
157.819	13.443	1228.113	923.023
158.833	13.636	1226.747	922.988
159.848	13.626	1226.262	922.489
160.862	13.615	1224.807	921.247
161.877	13.511	1224.010	919.992
162.892	13.471	1222.975	918.910
163.906	13.458	1222.076	918.082
164.921	13.528	1221.135	917.680
165.935	13.538	1220.238	916.981
166.950	13.565	1219.366	916.396
167.964	13.616	1218.906	916.251
168.979	13.512	1218.123	915.005
169.994	13.553	1217.154	914.425
171.008	13.512	1216.701	913.773
172.023	13.741	1215.636	914.157
173.037	13.741	1215.097	913.672
174.052	13.707	1213.950	912.542
175.067	13.501	1213.175	910.745
176.081	13.538	1212.100	910.059
177.096	13.541	1211.264	909.369
178.110	13.646	1210.139	909.018
179.125	13.589	1209.143	907.879
180.140	13.693	1207.745	907.319
181.154	13.699	1206.525	906.352
182.169	13.661	1205.491	905.287
183.183	13.621	1204.538	904.276
184.198	13.821	1202.757	903.947
185.213	13.764	1201.480	902.598
186.227	13.770	1200.594	901.882
187.242	13.904	1199.256	901.529
188.256	13.927	1198.244	900.809
189.271	13.901	1197.574	900.084
190.286	13.715	1196.725	898.361
191.300	13.527	1196.090	896.788
192.315	13.555	1195.080	896.102
193.329	13.697	1194.643	896.465
194.344	13.759	1193.679	895.993
195.359	13.783	1193.035	895.565
196.373	13.792	1192.956	895.473
197.388	13.899	1192.437	895.579
198.402	13.814	1192.034	894.739
199.417	13.911	1190.945	894.364
200.432	14.010	1190.130	894.207
201.446	14.070	1189.299	893.829
202.461	14.146	1188.285	893.392
203.475	14.016	1187.338	891.903
204.490	14.105	1185.951	891.263
205.504	13.970	1185.022	889.758
206.519	13.962	1183.771	888.699
207.534	13.932	1182.896	887.807
208.548	13.989	1181.635	887.083
209.563	13.981	1181.278	886.693
210.577	14.071	1179.817	885.997
211.592	14.132	1179.405	885.938
212.607	14.243	1178.173	885.525
213.621	14.056	1177.595	884.016
214.636	14.171	1176.366	883.625
215.650	14.270	1175.638	883.526
216.665	14.242	1175.178	882.953
217.680	14.186	1173.710	881.477
218.694	14.301	1173.025	881.492
219.709	14.300	1172.276	880.847
220.723	14.230	1171.787	880.028
221.738	14.338	1170.640	879.663
222.753	14.354	1170.304	879.415
223.767	14.292	1169.370	878.307
224.782	14.382	1168.410	877.985
225.796	14.296	1168.173	877.276
226.811	14.449	1167.500	877.497
227.826	14.320	1166.962	876.338
228.840	14.363	1165.942	875.719
229.855	14.528	1164.763	875.625
230.869	14.311	1164.633	874.310
231.884	14.311	1163.662	873.502
232.899	14.374	1162.607	872.966
233.913	14.298	1162.176	872.164
234.928	14.373	1161.307	871.826
235.942	14.356	1160.434	871.008
236.957	14.466	1159.622	870.897
237.972	14.237	1159.373	869.436
238.986	14.393	1158.209	869.296
240.001	14.402	1157.393	868.655
241.015	14.526	1156.621	868.645
242.030	14.586	1155.951	868.378
243.045	14.641	1154.815	867.735
244.059	14.599	1154.142	866.931
245.074	14.587	1153.318	866.178
246.088	14.595	1152.958	865.869
247.103	14.644	1151.894	865.247
248.117	14.617	1151.605	864.816
249.132	14.602	1150.562	863.876
250.147	14.684	1150.210	863.959
251.161	14.762	1149.197	863.526
252.176	14.780	1148.981	863.378
253.190	14.873	1147.771	862.877
254.205	14.912	1147.271	862.624
255.220	15.052	1146.549	862.726
256.234	14.833	1146.155	861.223
257.249	14.862	1145.683	860.946
258.263	14.886	1145.011	860.487
259.278	14.977	1144.403	860.420
260.293	14.981	1143.629	859.786
261.307	14.902	1143.128	858.927
262.322	15.160	1142.221	859.492
263.336	14.972	1141.559	857.955
264.351	14.977	1141.422	857.802
265.366	15.130	1140.382	857.729
266.380	15.037	1140.006	856.891
267.395	14.920	1139.036	855.490
268.409	15.054	1138.197	855.469
269.424	15.004	1137.817	854.851
270.439	15.114	1137.125	854.815
271.453	15.185	1136.120	854.345
272.468	15.039	1135.239	852.867
273.482	15.183	1134.485	852.957
274.497	15.099	1134.032	852.111
275.512	15.161	1133.385	851.867
276.526	15.189	1132.401	851.196
277.541	15.087	1131.781	850.136
278.555	15.106	1131.185	849.709
279.570	15.289	1129.828	849.540
280.585	15.207	1129.526	848.823
281.599	15.239	1128.985	848.504
282.614	15.204	1128.153	847.628
283.628	15.198	1126.918	846.595
284.643	15.173	1125.986	845.692
285.657	15.292	1125.098	845.551
286.672	15.360	1123.997	844.989
287.687	15.307	1123.219	844.064
288.701	15.285	1122.552	843.378
289.716	15.333	1122.103	843.206
290.730	15.353	1121.364	842.675
291.745	15.420	1120.585	842.352
292.760	15.515	1119.648	842.050
293.774	15.462	1119.033	841.249
294.789	15.477	1119.089	841.292
295.803	15.352	1118.439	840.102
296.818	15.412	1117.412	839.559
297.833	15.430	1116.673	839.020
298.847	15.422	1116.096	838.468
299.862	15.456	1114.835	837.619
300.876	15.432	1114.475	837.152
301.891	15.553	1113.699	837.098
302.906	15.631	1112.490	836.505
303.920	15.580	1112.253	835.997
304.935	15.642	1111.823	835.912
305.949	15.689	1111.259	835.644
306.964	15.741	1110.519	835.274
307.979	15.519	1109.845	833.590
308.993	15.716	1108.697	833.634
310.008	15.712	1108.267	833.214
311.022	15.804	1107.241	832.825
312.037	15.724	1106.611	831.880
313.052	15.642	1105.752	830.756
314.066	15.603	1104.921	829.867
315.081	15.600	1103.893	829.004
316.095	15.614	1103.263	828.529
317.110	15.703	1102.517	828.335
318.125	15.769	1101.620	827.912
319.139	15.780	1100.981	827.413
320.154	15.743	1100.456	826.762
321.168	15.790	1099.910	826.509
322.183	15.709	1099.545	825.764
323.197	15.823	1098.827	825.714
324.212	15.870	1097.704	825.026
325.227	15.808	1097.493	824.491
326.241	15.793	1096.964	823.949
327.256	15.764	1096.183	823.145
328.270	15.761	1095.373	822.451
329.285	15.775	1094.348	821.677
330.300	15.891	1093.068	821.208
331.314	15.836	1092.227	820.236
332.329	15.773	1091.559	819.354
333.343	15.871	1090.660	819.083
334.358	15.935	1089.874	818.730
335.373	15.836	1089.180	817.658
336.387	15.865	1088.539	817.245
337.402	15.845	1087.953	816.634
338.416	15.943	1087.313	816.558
339.431	15.933	1086.919	816.139
340.446	15.964	1085.763	815.350
341.460	16.068	1084.884	815.121
342.475	16.142	1084.208	814.897
343.489	16.206	1083.271	814.431
344.504	16.287	1082.406	814.102
345.519	16.273	1081.707	813.433
346.533	16.210	1081.081	812.588
347.548	16.161	1080.451	811.809
348.562	16.259	1079.309	811.348
349.577	16.254	1078.377	810.553
350.592	16.171	1077.929	809.747
351.606	16.169	1077.571	809.394
352.621	16.182	1076.684	808.718
353.635	16.251	1076.093	808.536
354.650	16.357	1074.735	807.950
355.665	16.256	1074.248	807.027
356.679	16.204	1073.650	806.260
357.694	16.309	1072.990	806.197
358.708	16.317	1072.528	805.813
359.723	16.256	1072.206	805.208
360.738	16.351	1071.425	805.004
361.752	16.362	1071.009	804.672
362.767	16.296	1070.344	803.788
363.781	16.421	1069.144	803.413
364.796	16.453	1068.832	803.259
365.810	16.450	1068.395	802.844
366.825	16.545	1067.521	802.565
367.840	16.492	1067.672	802.357
368.854	16.598	1066.684	802.048
369.869	16.527	1066.090	801.193
370.883	16.574	1065.170	800.654
371.898	16.578	1064.443	800.056
372.913	16.512	1063.860	799.235
373.927	16.583	1063.472	799.206
374.942	16.673	1062.735	799.005
375.956	16.658	1062.112	798.399
376.971	16.559	1061.954	797.741
377.986	16.702	1060.957	797.595
379.000	16.831	1060.311	797.647
380.015	16.737	1059.915	796.835
381.029	16.722	1059.383	796.296
382.044	16.868	1058.490	796.237
383.059	16.793	1058.048	795.485
384.073	16.890	1056.983	795.069
385.088	16.868	1056.241	794.337
386.102	16.890	1055.078	793.492
387.117	16.779	1054.320	792.332
388.132	16.673	1053.561	791.199
389.146	16.886	1052.647	791.435
390.161	16.908	1051.842	790.865
391.175	16.803	1051.010	789.677
392.190	16.875	1050.948	789.898
393.205	16.851	1050.220	789.169
394.219	17.012	1048.983	788.921
395.234	16.851	1048.220	787.524
396.248	16.859	1047.205	786.730
397.263	16.806	1046.108	785.591
398.278	16.797	1046.093	785.468
399.292	16.876	1045.460	785.289
400.307	16.858	1044.312	784.277
401.321	16.762	1044.020	783.544
402.336	16.817	1043.368	783.240
403.350	16.836	1042.315	782.465
404.365	16.958	1041.569	782.398
405.380	17.001	1041.120	782.190
406.394	16.972	1040.123	781.239
407.409	17.042	1039.654	781.142
408.423	17.138	1038.761	780.843
409.438	17.078	1038.332	780.175
410.453	17.256	1037.568	780.351
411.467	17.255	1036.692	779.619
412.482	17.209	1036.194	778.961
413.496	17.205	1035.601	778.430
414.511	17.233	1034.705	777.817
415.526	17.231	1034.542	777.616
416.540	17.359	1034.188	777.865
417.555	17.492	1032.868	777.411
418.569	17.304	1033.130	776.682
419.584	17.360	1032.618	776.483
420.599	17.320	1032.441	776.099
421.613	103.257	1322.066	1467.751
422.628	94.541	1364.251	1467.855
