DTS Sentinel unit serial number:	SN413079Multiplexer serial number:	ORYXHardware model number:	OX4-SRSoftware version number:	ORYX F/W v4.00 Oryx Data Collector v3.7.2.0data status	okinstallation	princeton_trtdifferential loss correction	single-endedforward channel	channel 2reverse channel	N/Adate	2019/09/14time	22:35:35forward acquisition time	60.00reverse acquisition time	0.00gamma	496.2192k internal	0.2324k external	0.2324temperature offset calibration	1.0060default loss term (dB/km)	0.3790temperature slope calibration	1.0000multiplexer offset coefficient	1.0000multiplexer slope coefficient	1.0000fibre end	0.00T internal ref (°C)	32.56T ext. ref 1 (°C)	4.68T ext. ref 2 (°C)	27.56length (m)	temperature (°C)	Stokes	anti-Stokes-747.200	-159.987	0.234	-0.013
-746.185	124.070	-0.313	0.397
-745.171	-23.687	-0.361	-0.219
-744.156	-118.680	-0.205	0.037
-743.142	-200.000	-0.040	0.360
-742.127	-12.555	-0.050	0.033
-741.112	-147.830	-0.366	-0.031
-740.098	-76.405	-0.122	0.043
-739.083	800.000	0.077	-0.238
-738.069	-35.578	-0.227	0.124
-737.054	83.927	0.272	0.300
-736.039	425.985	0.089	0.194
-735.025	86.474	-0.089	-0.100
-734.010	-200.000	0.000	-0.058
-732.996	-9.243	0.185	-0.125
-731.981	109.874	-0.361	0.438
-730.966	366.817	-0.068	0.139
-729.952	-158.055	-0.320	0.019
-728.937	-56.398	-0.145	-0.065
-727.923	-32.611	-0.115	0.065
-726.908	197.823	0.010	-0.015
-725.894	546.441	-0.034	-0.082
-724.879	-45.209	0.112	0.056
-723.864	327.106	-0.056	-0.109
-722.850	51.246	0.205	-0.196
-721.835	255.653	-0.148	-0.255
-720.821	-200.000	0.022	-0.179
-719.806	-200.000	-0.055	-0.357
-718.791	17.270	0.120	0.096
-717.777	251.251	-0.124	0.213
-716.762	-200.000	-0.001	0.154
-715.748	800.000	-0.073	0.318
-714.733	139.600	-0.121	-0.160
-713.718	29.342	-0.080	0.068
-712.704	-106.895	0.059	0.013
-711.689	-200.000	-0.008	-0.090
-710.675	-200.000	0.049	0.266
-709.660	-12.575	-0.051	0.033
-708.645	-200.000	-0.204	-0.000
-707.631	38.800	0.245	-0.221
-706.616	-34.005	-0.229	-0.127
-705.602	197.040	0.147	0.227
-704.587	-64.927	0.349	-0.142
-703.572	-38.874	-0.140	-0.074
-702.558	800.000	0.074	-0.294
-701.543	-200.000	0.043	-0.293
-700.529	-40.916	0.186	-0.097
-699.514	800.000	0.050	0.147
-698.499	-200.000	0.025	-0.486
-697.485	39.964	-0.253	-0.229
-696.470	-50.074	-0.385	-0.184
-695.456	-76.193	0.094	-0.034
-694.441	-127.318	0.249	0.037
-693.426	-151.268	-0.086	0.006
-692.412	81.544	0.190	-0.207
-691.397	-153.913	-0.345	-0.024
-690.383	409.312	-0.058	0.125
-689.368	-42.391	-0.279	-0.143
-688.354	-81.133	-0.143	-0.048
-687.339	-200.000	-0.034	-0.224
-686.324	-56.767	0.051	0.023
-685.310	13.028	-0.096	0.075
-684.295	-79.054	0.207	0.071
-683.281	-200.000	-0.013	0.117
-682.266	-131.794	-0.164	0.022
-681.251	-164.854	0.322	-0.015
-680.237	-200.000	-0.016	0.106
-679.222	-86.490	0.149	0.046
-678.208	34.385	0.469	0.412
-677.193	-115.734	-0.114	-0.022
-676.178	-150.485	0.205	0.016
-675.164	619.281	-0.081	-0.205
-674.149	-66.515	0.122	0.049
-673.135	800.000	0.070	-0.210
-672.120	324.907	-0.174	-0.335
-671.105	119.578	0.173	0.215
-670.091	410.166	0.091	-0.195
-669.076	223.532	0.089	-0.144
-668.062	135.176	0.102	-0.133
-667.047	-53.154	-0.160	-0.074
-666.032	-200.000	-0.047	-0.217
-665.018	75.195	0.241	0.256
-664.003	290.456	0.079	0.144
-662.989	45.066	-0.069	0.064
-661.974	-53.678	0.306	0.141
-660.959	-43.451	0.328	-0.167
-659.945	-200.000	-0.063	0.363
-658.930	231.489	-0.094	0.155
-657.916	-200.000	-0.017	0.108
-656.901	66.678	0.228	0.234
-655.886	446.789	0.025	-0.054
-654.872	-149.851	-0.163	0.013
-653.857	92.903	-0.058	0.066
-652.843	-200.000	-0.008	0.168
-651.828	112.036	-0.076	-0.093
-650.814	98.909	-0.429	-0.499
-649.799	392.298	0.085	-0.178
-648.784	-34.498	0.231	0.128
-647.770	6.716	-0.301	-0.225
-646.755	-200.000	-0.044	-0.220
-645.741	124.423	-0.297	-0.375
-644.726	98.221	-0.009	0.010
-643.711	64.084	0.240	0.243
-642.697	-75.239	-0.123	-0.044
-641.682	43.925	0.156	0.144
-640.668	-113.171	-0.154	0.031
-639.653	-148.322	-0.176	-0.015
-638.638	547.263	-0.033	0.079
-637.624	-200.000	-0.053	0.247
-636.609	800.000	-0.017	-0.055
-635.595	750.736	0.167	-0.453
-634.580	368.936	-0.078	-0.159
-633.565	79.187	0.177	0.190
-632.551	57.141	-0.277	-0.272
-631.536	218.007	-0.134	-0.214
-630.522	800.000	-0.091	-0.305
-629.507	92.540	-0.174	-0.197
-628.492	341.119	-0.057	-0.113
-627.478	687.305	-0.035	-0.093
-626.463	109.599	0.068	0.082
-625.449	384.648	0.080	-0.166
-624.434	-153.313	-0.231	-0.016
-623.419	-200.000	-0.005	-0.192
-622.405	-42.532	-0.197	0.101
-621.390	800.000	-0.003	0.010
-620.376	-170.433	0.106	-0.004
-619.361	-200.000	-0.016	0.293
-618.346	31.541	-0.232	-0.201
-617.332	321.633	0.040	-0.076
-616.317	-200.000	0.007	-0.131
-615.303	-200.000	-0.007	-0.101
-614.288	162.028	0.136	-0.192
-613.273	-41.653	-0.285	0.147
-612.259	602.013	0.026	-0.065
-611.244	231.022	0.169	0.278
-610.230	-200.000	-0.004	0.036
-609.215	482.662	-0.092	0.211
-608.201	-143.226	-0.093	0.009
-607.186	-68.542	-0.118	0.046
-606.171	100.819	0.176	-0.206
-605.157	-200.000	-0.036	-0.215
-604.142	9.575	0.133	0.101
-603.128	-39.064	-0.092	-0.049
-602.113	-37.803	0.334	0.179
-601.098	-129.134	0.050	-0.007
-600.084	800.000	0.040	-0.163
-599.069	-74.616	-0.064	-0.023
-598.055	-105.378	0.379	0.087
-597.040	279.011	-0.215	0.385
-596.025	129.445	-0.029	-0.037
-595.011	-123.826	-0.169	0.027
-593.996	-105.373	-0.214	0.049
-592.982	-76.066	0.102	0.036
-591.967	-1.727	0.446	-0.315
-590.952	-200.000	-0.003	0.153
-589.938	370.018	0.050	0.102
-588.923	-200.000	0.036	0.314
-587.909	-109.331	0.124	-0.026
-586.894	237.580	0.132	0.220
-585.879	-200.000	-0.007	-0.070
-584.865	181.207	-0.107	-0.158
-583.850	206.938	0.112	0.175
-582.836	-36.228	0.120	0.065
-581.821	401.921	-0.113	-0.237
-580.806	-200.000	0.025	0.236
-579.792	-83.597	-0.107	0.034
-578.777	41.458	-0.137	-0.124
-577.763	135.857	-0.107	-0.139
-576.748	685.499	-0.138	-0.361
-575.733	53.422	-0.127	0.122
-574.719	800.000	-0.056	-0.215
-573.704	13.860	0.268	0.209
-572.690	-58.408	0.170	0.074
-571.675	-50.082	-0.302	-0.143
-570.661	122.109	0.124	-0.155
-569.646	-41.687	-0.226	-0.117
-568.631	800.000	0.060	-0.246
-567.617	424.625	0.031	0.067
-566.602	-69.535	-0.288	-0.110
-565.588	-123.448	-0.243	0.039
-564.573	82.335	-0.118	0.128
-563.558	-98.814	-0.203	0.052
-562.544	-61.831	0.045	-0.019
-561.529	-200.000	-0.011	-0.119
-560.515	633.695	0.041	-0.104
-559.500	-140.852	-0.288	-0.030
-558.485	-123.834	-0.425	-0.067
-557.471	659.205	0.109	-0.282
-556.456	-200.000	0.026	-0.209
-555.442	127.768	-0.187	-0.238
-554.427	731.987	0.099	-0.264
-553.412	17.000	0.076	0.060
-552.398	800.000	-0.061	-0.172
-551.383	-89.721	0.317	0.093
-550.369	-200.000	-0.018	-0.148
-549.354	-157.378	0.179	0.011
-548.339	198.502	0.033	-0.050
-547.325	-67.305	0.192	0.076
-546.310	-156.710	0.350	0.022
-545.296	275.779	-0.102	-0.182
-544.281	-200.000	-0.003	0.076
-543.266	660.194	0.112	0.289
-542.252	247.501	0.031	-0.052
-541.237	-39.654	-0.181	0.095
-540.223	-200.000	0.061	-0.482
-539.208	442.836	0.133	-0.292
-538.193	800.000	-0.054	-0.156
-537.179	-200.000	-0.035	0.196
-536.164	-35.094	-0.290	-0.158
-535.150	-135.339	-0.247	-0.030
-534.135	83.885	0.244	0.266
-533.121	30.652	0.090	-0.077
-532.106	41.394	0.091	-0.082
-531.091	-200.000	-0.018	-0.264
-530.077	570.317	-0.069	-0.167
-529.062	-200.000	-0.018	0.083
-528.048	437.783	0.200	0.438
-527.033	18.943	-0.082	-0.066
-526.018	-46.189	0.088	-0.043
-525.004	800.000	0.059	0.239
-523.989	-200.000	0.012	0.073
-522.975	800.000	0.054	-0.169
-521.960	-113.572	-0.232	0.045
-520.945	-93.382	0.332	0.092
-519.931	450.530	0.104	-0.229
-518.916	277.291	-0.163	-0.291
-517.902	800.000	0.086	-0.353
-516.887	477.141	0.015	0.033
-515.872	-163.495	-0.203	-0.010
-514.858	-12.961	0.395	0.257
-513.843	254.655	0.138	0.236
-512.829	-133.673	-0.135	0.017
-511.814	-30.750	0.368	0.208
-510.799	-110.215	-0.348	0.073
-509.785	-77.348	-0.259	-0.090
-508.770	800.000	-0.092	-0.269
-507.756	-155.635	0.101	0.007
-506.741	-200.000	0.004	0.182
-505.726	-3.692	-0.282	0.196
-504.712	800.000	0.016	0.064
-503.697	-200.000	-0.066	0.402
-502.683	-7.293	0.253	-0.171
-501.668	179.359	-0.157	-0.230
-500.653	-200.000	-0.021	0.104
-499.639	50.306	-0.138	0.130
-498.624	423.314	-0.005	0.012
-497.610	73.705	0.214	-0.225
-496.595	224.710	-0.022	0.035
-495.581	-112.793	-0.126	-0.025
-494.566	2.141	-0.392	0.284
-493.551	800.000	0.055	-0.158
-492.537	88.763	0.071	-0.079
-491.522	7.040	-0.256	-0.191
-490.508	-105.171	-0.185	-0.042
-489.493	-200.000	0.028	0.234
-488.478	-97.934	0.259	-0.067
-487.464	-200.000	-0.027	-0.300
-486.449	62.443	-0.165	0.165
-485.435	177.758	0.236	-0.343
-484.420	199.765	-0.279	-0.428
-483.405	-92.290	0.178	0.050
-482.391	285.633	0.068	-0.123
-481.376	-87.773	0.221	-0.066
-480.362	-95.248	0.027	0.007
-479.347	-200.000	0.049	0.313
-478.332	-58.668	-0.226	0.098
-477.318	287.129	-0.144	0.260
-476.303	-200.000	-0.002	-0.081
-475.289	130.758	-0.241	0.308
-474.274	391.267	0.076	0.158
-473.259	281.649	-0.050	0.090
-472.245	18.674	-0.115	-0.092
-471.230	800.000	0.018	0.068
-470.216	-80.969	-0.110	0.036
-469.201	5.267	0.055	-0.041
-468.186	-200.000	-0.003	0.093
-467.172	-45.745	-0.215	0.106
-466.157	-69.576	-0.157	0.060
-465.143	-122.197	0.156	-0.026
-464.128	800.000	0.034	-0.112
-463.113	-154.021	0.207	0.014
-462.099	114.056	-0.182	-0.221
-461.084	-200.000	-0.097	-0.537
-460.070	-200.000	0.056	-0.260
-459.055	-48.452	-0.023	-0.011
-458.040	-107.389	-0.058	-0.013
-457.026	-158.191	0.177	0.010
-456.011	30.421	-0.077	-0.066
-454.997	-200.000	-0.015	-0.138
-453.982	800.000	-0.067	0.231
-452.968	-200.000	0.030	-0.150
-451.953	-200.000	0.034	0.426
-450.938	800.000	0.095	-0.404
-449.924	101.523	-0.090	0.105
-448.909	-60.102	-0.180	0.077
-447.895	163.854	0.102	-0.143
-446.880	158.247	-0.070	-0.097
-445.865	-159.175	-0.218	0.012
-444.851	130.359	-0.141	-0.180
-443.836	-114.094	-0.261	-0.050
-442.822	130.882	0.031	0.039
-441.807	155.574	0.103	0.142
-440.792	54.199	0.185	-0.178
-439.778	-100.106	0.133	-0.033
-438.763	-115.704	-0.442	-0.083
-437.749	97.782	-0.051	0.058
-436.734	50.816	0.126	0.120
-435.719	-87.207	0.210	-0.064
-434.705	-87.580	0.258	-0.078
-433.690	33.510	-0.053	0.046
-432.676	-21.913	-0.141	-0.085
-431.661	800.000	-0.084	0.232
-430.646	78.078	-0.081	0.086
-429.632	58.931	0.096	0.094
-428.617	-26.232	0.363	0.213
-427.603	72.936	0.145	-0.151
-426.588	48.648	-0.230	-0.215
-425.573	-7.700	-0.256	0.172
-424.559	384.149	0.084	-0.172
-423.544	-96.608	0.266	0.070
-422.530	-128.212	0.273	-0.039
-421.515	206.008	0.085	0.133
-420.500	-200.000	-0.038	-0.348
-419.486	800.000	0.113	-0.346
-418.471	-107.518	0.361	-0.079
-417.457	205.591	0.096	-0.148
-416.442	29.926	0.029	-0.025
-415.428	86.496	-0.052	-0.057
-414.413	800.000	-0.008	-0.029
-413.398	-15.409	-0.169	-0.108
-412.384	800.000	0.021	0.062
-411.369	800.000	0.096	-0.372
-410.355	319.151	0.075	0.141
-409.340	-158.703	0.073	-0.004
-408.325	-74.777	-0.557	0.199
-407.311	88.847	0.068	-0.076
-406.296	-200.000	0.008	0.097
-405.282	103.858	-0.019	0.023
-404.267	105.087	0.051	-0.060
-403.252	-200.000	-0.029	-0.182
-402.238	9.726	-0.042	-0.032
-401.223	2.034	-0.328	-0.236
-400.209	649.135	0.016	0.040
-399.194	579.317	-0.008	-0.020
-398.179	40.868	0.095	-0.085
-397.165	80.726	-0.143	0.153
-396.150	101.010	-0.142	0.164
-395.136	-200.000	0.037	-0.224
-394.121	-12.523	0.175	-0.113
-393.106	-200.000	0.014	-0.146
-392.092	-66.547	0.160	-0.063
-391.077	800.000	0.048	0.178
-390.063	-176.478	0.339	0.009
-389.048	-200.000	0.048	-0.332
-388.033	-200.000	0.083	-0.504
-387.019	470.891	-0.113	0.253
-386.004	-200.000	0.058	0.428
-384.990	-200.000	0.020	-0.116
-383.975	10.768	-0.104	-0.079
-382.960	206.489	0.109	-0.168
-381.946	-25.665	0.209	0.123
-380.931	800.000	-0.091	-0.304
-379.917	-88.510	0.282	0.084
-378.902	-101.861	0.154	-0.037
-377.888	800.000	0.129	0.433
-376.873	800.000	-0.071	0.290
-375.858	177.120	-0.266	0.385
-374.844	-200.000	0.078	0.387
-373.829	800.000	-0.035	-0.101
-372.815	-171.312	0.228	-0.008
-371.800	11.685	-0.166	-0.127
-370.785	-200.000	-0.011	-0.133
-369.771	-8.367	0.134	0.090
-368.756	51.234	0.155	-0.146
-367.742	-78.084	-0.138	0.047
-366.727	356.720	0.192	-0.381
-365.712	-79.496	-0.220	0.074
-364.698	-58.407	-0.269	0.116
-363.683	-55.422	0.327	0.146
-362.669	576.108	0.083	-0.201
-361.654	49.941	-0.043	-0.041
-360.639	-90.196	-0.348	0.101
-359.625	140.380	0.174	0.229
-358.610	-200.000	0.014	-0.235
-357.596	254.569	-0.165	-0.281
-356.581	562.002	-0.033	-0.079
-355.566	158.147	-0.231	0.319
-354.552	-200.000	-0.050	0.348
-353.537	154.675	-0.132	0.180
-352.523	-102.364	0.289	-0.069
-351.508	223.103	-0.113	0.181
-350.493	-200.000	-0.013	0.235
-349.479	-132.030	0.244	0.032
-348.464	51.100	0.164	-0.155
-347.450	122.238	-0.117	-0.145
-346.435	-200.000	-0.001	0.176
-345.420	38.678	0.229	-0.203
-344.406	-200.000	-0.014	0.187
-343.391	-95.839	-0.269	-0.071
-342.377	238.554	-0.196	0.324
-341.362	134.631	-0.154	-0.199
-340.348	694.482	0.109	-0.284
-339.333	-94.097	0.134	-0.037
-338.318	597.764	-0.086	-0.212
-337.304	-200.000	-0.014	0.216
-336.289	800.000	0.053	0.195
-335.275	-200.000	-0.026	-0.215
-334.260	321.796	0.039	-0.073
-333.245	-200.000	0.002	0.137
-332.231	6.172	0.317	0.233
-331.216	-35.415	0.082	-0.045
-330.202	178.825	-0.146	-0.212
-329.187	-200.000	0.019	0.398
-328.172	800.000	-0.131	-0.403
-327.158	-15.182	-0.109	-0.069
-326.143	-57.761	-0.137	0.060
-325.129	372.569	-0.120	0.242
-324.114	-200.000	-0.033	0.258
-323.099	-59.192	-0.184	0.079
-322.085	151.524	0.116	-0.157
-321.070	-200.000	0.095	0.632
-320.056	-132.972	-0.295	-0.037
-319.041	800.000	0.024	0.088
-318.026	262.492	-0.053	-0.091
-317.012	-93.814	0.282	0.077
-315.997	122.570	-0.184	0.228
-314.983	16.876	0.143	-0.112
-313.968	-148.981	0.128	-0.010
-312.953	-200.000	0.004	0.046
-311.939	-146.941	-0.132	0.011
-310.924	18.959	0.242	-0.193
-309.910	-200.000	0.007	0.148
-308.895	-25.856	-0.025	0.015
-307.880	-135.634	0.129	-0.015
-306.866	72.644	-0.188	-0.195
-305.851	-77.421	0.058	-0.020
-304.837	39.326	-0.136	0.121
-303.822	-80.661	0.234	0.077
-302.807	-200.000	0.064	0.389
-301.793	600.254	0.169	0.415
-300.778	69.162	-0.232	0.237
-299.764	33.973	-0.196	-0.169
-298.749	-23.082	-0.278	0.166
-297.735	-15.020	0.196	0.125
-296.720	28.998	0.140	-0.118
-295.705	-200.000	0.009	0.333
-294.691	800.000	0.047	0.136
-293.676	-173.249	0.234	0.007
-292.662	-93.886	-0.386	0.105
-291.647	-200.000	-0.024	0.322
-290.632	-105.260	0.200	-0.045
-289.618	519.648	-0.077	0.178
-288.603	94.003	-0.151	-0.170
-287.589	-112.138	-0.121	0.024
-286.574	-200.000	0.163	-0.001
-285.559	118.963	-0.108	-0.132
-284.545	-96.382	0.116	-0.030
-283.530	11.213	-0.098	0.074
-282.516	7.011	-0.218	0.161
-281.501	800.000	-0.037	0.151
-280.486	138.515	0.097	-0.126
-279.472	198.796	0.047	-0.071
-278.457	67.503	0.246	-0.249
-277.443	-200.000	0.030	0.143
-276.428	768.319	-0.077	-0.206
-275.413	61.524	0.129	-0.128
-274.399	78.639	0.087	-0.093
-273.384	800.000	0.124	-0.348
-272.370	-24.717	0.206	0.121
-271.355	211.387	0.170	0.265
-270.340	156.539	-0.074	0.101
-269.326	139.157	0.189	0.247
-268.311	-200.000	0.011	0.238
-267.297	800.000	-0.138	0.404
-266.282	-200.000	0.013	0.333
-265.267	-147.340	-0.094	-0.008
-264.253	98.507	0.187	-0.213
-263.238	-108.760	0.340	0.072
-262.224	-78.855	0.258	-0.087
-261.209	-10.928	-0.219	0.143
-260.195	-139.087	-0.239	0.026
-259.180	291.865	-0.130	0.234
-258.165	-64.295	0.253	-0.102
-257.151	7.813	0.129	-0.096
-256.136	212.085	-0.129	0.202
-255.122	233.953	0.051	0.083
-254.107	488.266	-0.055	0.125
-253.092	-137.585	-0.366	0.041
-252.078	-200.000	-0.065	0.431
-251.063	800.000	0.024	-0.077
-250.049	800.000	-0.071	0.222
-249.034	-35.178	0.174	-0.094
-248.019	-200.000	0.043	0.289
-247.005	-128.081	0.288	0.041
-245.990	196.080	-0.151	-0.227
-244.976	-7.295	-0.069	0.047
-243.961	-200.000	0.058	0.567
-242.946	163.367	0.078	0.108
-241.932	-89.423	0.466	0.136
-240.917	800.000	0.029	0.124
-239.903	-0.816	0.074	0.052
-238.888	-200.000	0.013	-0.088
-237.873	-200.000	0.008	0.214
-236.859	118.493	0.102	-0.124
-235.844	102.731	-0.129	0.149
-234.830	-20.307	0.246	0.150
-233.815	-82.275	-0.069	0.022
-232.800	-120.810	-0.417	0.070
-231.786	800.000	-0.050	0.168
-230.771	36.073	0.254	0.221
-229.757	-115.442	-0.234	0.044
-228.742	7.669	-0.079	0.058
-227.727	-67.647	-0.319	-0.124
-226.713	223.093	0.121	0.193
-225.698	32.789	-0.299	-0.256
-224.684	-32.216	-0.288	0.159
-223.669	-79.983	0.230	-0.076
-222.655	553.089	-0.116	0.276
-221.640	-84.077	-0.306	-0.096
-220.625	46.693	-0.206	0.189
-219.611	284.585	0.082	-0.146
-218.596	64.236	-0.168	0.167
-217.582	23.686	0.121	-0.099
-216.567	-81.099	0.245	-0.080
-215.552	-145.685	-0.297	-0.026
-214.538	-38.641	0.241	-0.126
-213.523	-90.811	-0.293	-0.084
-212.509	-200.000	0.020	0.178
-211.494	-87.993	-0.235	0.070
-210.479	117.023	-0.122	0.149
-209.465	116.863	-0.028	-0.034
-208.450	-93.111	0.053	0.015
-207.436	305.334	0.125	0.229
-206.421	-200.000	0.048	0.210
-205.406	-200.000	-0.006	-0.056
-204.392	-123.991	0.060	-0.009
-203.377	-200.000	-0.022	-0.096
-202.363	31.814	0.168	-0.143
-201.348	234.894	0.164	-0.268
-200.333	-200.000	0.032	0.154
-199.319	-200.000	0.008	-0.263
-198.304	-57.049	0.115	-0.050
-197.290	46.408	-0.126	-0.116
-196.275	148.704	-0.130	0.174
-195.260	-96.828	0.316	-0.082
-194.246	339.182	0.206	0.398
-193.231	-100.956	-0.445	-0.108
-192.217	41.416	-0.146	-0.131
-191.202	106.337	0.247	-0.289
-190.187	589.715	0.090	-0.220
-189.173	-106.482	-0.031	0.007
-188.158	800.000	-0.027	0.078
-187.144	29.949	0.209	0.176
-186.129	-200.000	0.014	-0.238
-185.114	75.076	0.119	0.124
-184.100	-91.097	-0.162	-0.046
-183.085	800.000	0.017	0.050
-182.071	-200.000	-0.037	0.299
-181.056	121.390	0.072	-0.088
-180.042	-200.000	0.032	-0.197
-179.027	-27.182	0.107	0.062
-178.012	800.000	0.022	0.075
-176.998	-29.101	0.341	-0.193
-175.983	-200.000	0.002	0.084
-174.969	800.000	-0.021	0.074
-173.954	-7.073	0.364	0.244
-172.939	800.000	0.028	0.087
-171.925	-172.853	-0.484	-0.015
-170.910	-70.186	0.119	0.045
-169.896	-89.698	0.336	-0.097
-168.881	257.786	0.243	-0.413
-167.866	-79.337	0.226	-0.076
-166.852	108.150	0.223	0.262
-165.837	-200.000	-0.005	-0.040
-164.823	-92.598	0.074	0.020
-163.808	276.266	0.034	-0.060
-162.793	294.962	0.171	-0.308
-161.779	-75.873	-0.228	0.080
-160.764	712.907	-0.090	0.235
-159.750	91.222	0.237	-0.262
-158.735	-197.051	-0.300	0.002
-157.720	341.577	-0.109	-0.209
-156.706	-61.413	-0.353	-0.147
-155.691	-101.440	-0.178	0.043
-154.677	20.753	0.180	0.144
-153.662	655.072	0.126	-0.319
-152.647	-146.372	0.124	-0.011
-151.633	347.228	0.187	-0.363
-150.618	-47.133	0.163	-0.079
-149.604	-155.710	0.291	-0.018
-148.589	-8.946	-0.245	0.162
-147.574	-200.000	0.010	-0.133
-146.560	246.934	0.042	0.070
-145.545	3.574	-0.100	0.072
-144.531	-186.424	-0.106	-0.002
-143.516	742.521	0.038	-0.101
-142.502	-200.000	0.006	0.151
-141.487	-101.966	-0.167	-0.040
-140.472	274.333	0.089	0.155
-139.458	418.657	0.177	-0.373
-138.443	-147.451	-0.084	-0.007
-137.429	-79.026	0.235	0.079
-136.414	-87.725	0.215	-0.064
-135.399	-101.341	-0.326	0.078
-134.385	800.000	0.011	0.038
-133.370	-48.001	0.168	0.080
-132.356	-22.394	-0.226	-0.135
-131.341	-127.076	-0.135	0.020
-130.326	800.000	-0.080	0.294
-129.312	-67.058	0.179	-0.069
-128.297	-108.028	-0.351	-0.075
-127.283	-200.000	0.002	-0.111
-126.268	-60.182	0.381	0.160
-125.253	-97.928	0.093	0.024
-124.239	-81.590	0.084	0.027
-123.224	-26.083	0.123	0.071
-122.210	-67.558	-0.141	0.055
-121.195	781.568	0.071	0.192
-120.180	-101.055	-0.138	0.033
-119.166	232.111	0.045	-0.072
-118.151	-44.542	0.017	-0.008
-117.137	-200.000	-0.015	-0.145
-116.122	-88.739	-0.152	-0.045
-115.107	-142.240	0.155	0.015
-114.093	393.278	0.019	-0.039
-113.078	-200.000	0.039	0.321
-112.064	-200.000	0.010	-0.177
-111.049	95.009	0.165	0.184
-110.034	101.599	-0.099	0.114
-109.020	-200.000	0.002	0.235
-108.005	-113.273	-0.270	0.052
-106.991	49.475	0.359	-0.333
-105.976	734.838	0.156	-0.413
-104.962	-46.868	-0.233	-0.112
-103.947	-62.452	0.347	0.142
-102.932	417.399	0.150	0.315
-101.918	-72.958	-0.058	-0.021
-100.903	-96.331	-0.205	-0.054
-99.889	-54.402	-0.117	-0.052
-98.874	800.000	-0.052	-0.167
-97.859	-149.655	-0.248	0.019
-96.845	13.585	-0.244	-0.187
-95.830	71.285	-0.117	0.120
-94.816	-21.298	-0.205	-0.123
-93.801	800.000	-0.077	-0.263
-92.786	354.596	-0.056	0.110
-91.772	65.026	0.128	0.127
-90.757	-135.496	0.320	-0.038
-89.743	-141.868	0.342	0.034
-88.728	53.139	0.179	0.168
-87.713	215.205	0.132	0.206
-86.699	-29.434	-0.101	0.057
-85.684	226.289	0.045	-0.072
-84.670	-28.032	0.082	-0.047
-83.655	-71.466	-0.221	0.081
-82.640	97.387	0.168	-0.190
-81.626	38.920	0.291	-0.256
-80.611	-200.000	-0.017	-0.314
-79.597	-46.876	0.187	0.090
-78.582	-118.024	0.389	0.068
-77.567	262.564	-0.139	-0.237
-76.553	-18.618	0.143	-0.088
-75.538	-73.586	-0.351	-0.126
-74.524	-200.000	-0.008	-0.097
-73.509	800.000	-0.086	0.291
-72.494	363.705	0.173	0.342
-71.480	55.984	0.171	-0.163
-70.465	100.946	0.107	0.122
-69.451	-38.631	0.040	-0.021
-68.436	-114.582	-0.293	0.055
-67.422	-46.629	-0.075	0.036
-66.407	-124.377	0.389	0.060
-65.392	95.949	0.249	0.280
-64.378	-9.085	0.265	-0.174
-63.363	234.443	0.141	0.229
-62.349	-200.000	0.039	0.177
-61.334	156.047	-0.728	-0.986
-60.319	-18.607	0.481	0.295
-59.305	-200.000	-0.123	-1.249
-58.290	138.444	0.747	0.964
-57.276	285.442	0.681	1.206
-56.261	-200.000	94.849	579.663
-55.246	664.344	1369.871	3474.621
-54.232	199.337	2549.392	3840.721
-53.217	114.049	2267.535	2710.476
-52.203	42.093	1895.303	1690.874
-51.188	35.813	1685.315	1456.135
-50.173	33.158	1641.337	1398.476
-49.159	50.571	1687.018	1568.215
-48.144	52.309	1703.732	1596.700
-47.130	35.472	1664.755	1435.594
-46.115	32.708	1650.522	1402.734
-45.100	32.502	1645.560	1396.929
-44.086	32.467	1643.005	1394.451
-43.071	32.375	1640.200	1391.333
-42.057	32.394	1637.984	1389.540
-41.042	32.478	1635.601	1388.079
-40.027	32.434	1633.949	1386.302
-39.013	32.442	1632.244	1384.859
-37.998	32.389	1631.194	1383.522
-36.984	32.502	1629.458	1382.822
-35.969	32.569	1627.952	1381.985
-34.954	32.574	1626.201	1380.477
-33.940	32.556	1624.112	1378.520
-32.925	32.515	1622.827	1377.072
-31.911	32.535	1621.146	1375.739
-30.896	32.559	1619.208	1374.210
-29.881	32.519	1617.890	1372.749
-28.867	32.573	1616.193	1371.649
-27.852	32.558	1614.616	1370.143
-26.838	32.577	1613.214	1369.041
-25.823	32.503	1612.034	1367.443
-24.809	32.552	1610.200	1366.196
-23.794	32.475	1609.164	1364.700
-22.779	32.602	1607.209	1363.910
-21.765	32.577	1605.760	1362.441
-20.750	32.525	1604.210	1360.699
-19.736	32.683	1602.544	1360.373
-18.721	32.617	1601.339	1358.819
-17.706	32.651	1599.745	1357.658
-16.692	32.600	1598.604	1356.268
-15.677	32.516	1597.469	1354.644
-14.663	32.642	1595.537	1353.858
-13.648	32.575	1594.364	1352.327
-12.633	32.673	1592.202	1351.148
-11.619	32.588	1591.173	1349.610
-10.604	32.679	1589.465	1348.759
-9.590	32.641	1587.847	1347.062
-8.575	32.590	1587.019	1345.938
-7.560	32.699	1585.792	1345.621
-6.546	32.566	1584.883	1343.851
-5.531	32.544	1583.782	1342.708
-4.517	32.624	1581.963	1341.681
-3.502	32.633	1581.335	1341.163
-2.487	32.743	1579.294	1340.159
-1.473	32.399	1567.703	1327.840
-0.458	29.682	1548.345	1292.421
0.556	25.884	1549.767	1261.354
1.571	23.559	1572.768	1263.424
2.586	23.037	1585.982	1270.177
3.600	20.426	1532.224	1208.872
4.615	12.524	1423.766	1071.895
5.629	5.741	1361.608	982.607
6.644	4.831	1353.948	971.315
7.659	4.663	1352.307	969.011
8.673	4.564	1351.820	967.957
9.688	4.653	1349.772	966.956
10.702	4.576	1347.047	964.444
11.717	7.615	1352.865	987.437
12.731	15.061	1366.205	1043.670
13.746	19.691	1373.391	1078.013
14.761	19.333	1371.400	1074.128
15.775	18.392	1368.313	1065.761
16.790	17.276	1365.960	1056.897
17.804	16.523	1363.370	1050.129
18.819	16.102	1361.841	1046.245
19.834	15.831	1360.953	1043.792
20.848	15.605	1359.836	1041.440
21.863	15.361	1358.341	1038.694
22.877	15.257	1357.544	1037.347
23.892	15.158	1356.471	1035.822
24.907	15.305	1355.619	1035.991
25.921	15.207	1354.675	1034.571
26.936	15.355	1353.533	1034.518
27.950	15.447	1352.642	1034.315
28.965	15.461	1351.973	1033.798
29.980	15.432	1351.081	1032.846
30.994	15.496	1350.165	1032.444
32.009	15.658	1348.155	1031.815
33.023	15.490	1347.365	1030.086
34.038	15.471	1345.824	1028.699
35.053	15.400	1344.708	1027.321
36.067	15.443	1343.908	1026.884
37.082	15.457	1342.732	1025.981
38.096	15.543	1341.722	1025.643
39.111	15.453	1340.959	1024.419
40.126	15.386	1340.138	1023.291
41.140	15.160	1339.324	1021.202
42.155	15.205	1338.835	1021.013
43.169	15.046	1338.833	1019.955
44.184	15.090	1338.470	1019.858
45.199	15.195	1337.688	1019.806
46.213	15.233	1337.034	1019.450
47.228	15.400	1336.276	1019.798
48.242	15.349	1335.070	1018.475
49.257	15.349	1333.709	1017.349
50.271	15.321	1332.426	1016.112
51.286	15.344	1331.276	1015.284
52.301	15.389	1329.794	1014.336
53.315	15.302	1328.538	1012.760
54.330	15.165	1327.619	1011.144
55.344	15.160	1326.634	1010.273
56.359	15.153	1325.794	1009.504
57.374	15.163	1324.708	1008.645
58.388	15.144	1323.785	1007.740
59.403	15.035	1323.266	1006.602
60.417	14.983	1322.946	1005.957
61.432	15.124	1321.638	1005.722
62.447	15.057	1320.552	1004.399
63.461	14.982	1319.496	1003.057
64.476	14.884	1318.687	1001.772
65.490	15.032	1316.842	1001.162
66.505	15.054	1315.622	1000.276
67.520	14.968	1314.789	999.043
68.534	15.141	1313.735	999.189
69.549	15.102	1312.410	997.860
70.563	15.068	1311.412	996.810
71.578	14.991	1310.673	995.698
72.593	14.869	1309.685	994.136
73.607	14.870	1308.581	993.218
74.622	14.947	1307.893	993.061
75.636	14.861	1307.348	992.050
76.651	14.831	1306.842	991.399
77.666	14.961	1305.915	991.379
78.680	14.886	1305.672	990.665
79.695	14.942	1305.724	990.945
80.709	15.046	1304.202	990.320
81.724	15.054	1303.333	989.623
82.739	15.211	1302.199	989.597
83.753	15.190	1301.762	989.058
84.768	15.314	1300.854	989.011
85.782	15.390	1299.665	988.464
86.797	15.418	1298.053	987.319
87.812	15.251	1297.594	985.896
88.826	15.318	1296.165	985.122
89.841	15.226	1295.588	984.053
90.855	15.407	1294.007	983.827
91.870	15.358	1293.483	983.057
92.884	15.424	1292.419	982.544
93.899	15.349	1292.127	981.795
94.914	15.552	1290.665	981.787
95.928	15.561	1289.805	981.096
96.943	15.469	1289.115	979.949
97.957	15.322	1288.389	978.455
98.972	15.341	1287.144	977.530
99.987	15.471	1285.786	977.172
101.001	15.387	1285.017	976.012
102.016	15.455	1284.040	975.580
103.030	15.506	1282.938	974.951
104.045	15.368	1282.245	973.539
105.060	15.298	1281.046	972.137
106.074	15.135	1279.902	970.235
107.089	15.080	1278.222	968.559
108.103	14.999	1277.259	967.275
109.118	15.162	1275.242	966.600
110.133	15.060	1274.063	965.034
111.147	15.115	1272.929	964.409
112.162	15.091	1271.608	963.183
113.176	15.154	1270.622	962.714
114.191	15.229	1269.262	962.027
115.206	15.183	1268.493	961.098
116.220	15.153	1267.536	960.115
117.235	15.210	1266.032	959.216
118.249	15.218	1265.023	958.412
119.264	15.072	1264.133	956.819
120.279	15.080	1262.953	955.888
121.293	14.999	1262.127	954.719
122.308	14.995	1261.279	953.968
123.322	14.986	1260.075	952.919
124.337	14.891	1259.041	951.516
125.352	15.061	1257.559	951.275
126.366	15.031	1257.071	950.653
127.381	14.969	1255.904	949.334
128.395	15.046	1254.695	948.772
129.410	15.045	1254.055	948.198
130.424	15.089	1253.268	947.767
131.439	15.077	1252.021	946.673
132.454	15.131	1251.569	946.551
133.468	15.186	1250.436	945.923
134.483	15.066	1250.027	944.855
135.497	15.239	1249.232	945.143
136.512	15.211	1247.827	943.841
137.527	15.315	1246.013	942.971
138.541	15.211	1244.825	941.404
139.556	15.286	1243.764	940.940
140.570	15.432	1242.905	941.024
141.585	15.329	1241.859	939.572
142.600	15.460	1240.293	939.037
143.614	15.513	1239.707	938.804
144.629	15.566	1238.457	938.074
145.643	15.619	1237.164	937.306
146.658	15.390	1236.284	935.281
147.673	15.353	1234.951	933.982
148.687	15.321	1233.756	932.817
149.702	15.109	1232.911	930.920
150.716	15.174	1231.395	930.049
151.731	15.226	1230.073	929.262
152.746	15.262	1229.016	928.578
153.760	15.253	1227.990	927.672
154.775	15.325	1226.734	927.037
155.789	15.385	1226.025	926.750
156.804	15.351	1225.174	925.839
157.819	15.469	1223.743	925.327
158.833	15.525	1222.912	924.923
159.848	15.632	1222.157	924.860
160.862	15.525	1221.466	923.666
161.877	15.432	1220.143	922.076
162.892	15.348	1218.999	920.669
163.906	15.382	1217.525	919.656
164.921	15.309	1216.743	918.585
165.935	15.505	1215.763	918.837
166.950	15.419	1215.742	918.268
167.964	15.511	1214.787	917.973
168.979	15.420	1214.286	917.013
169.994	15.462	1213.436	916.520
171.008	15.462	1212.795	915.955
172.023	15.430	1212.138	915.203
173.037	15.595	1211.199	915.311
174.052	15.584	1210.210	914.422
175.067	15.430	1209.309	912.822
176.081	15.351	1208.490	911.698
177.096	15.294	1207.568	910.608
178.110	15.409	1206.297	910.196
179.125	15.556	1204.733	909.728
180.140	15.530	1203.338	908.459
181.154	15.569	1202.388	907.872
182.169	15.565	1201.077	906.780
183.183	15.630	1200.322	906.480
184.198	15.646	1198.972	905.464
185.213	15.751	1197.667	904.965
186.227	15.655	1197.354	904.131
187.242	15.784	1195.757	903.538
188.256	15.726	1195.151	902.690
189.271	15.745	1194.289	902.061
190.286	15.715	1193.245	901.029
191.300	15.503	1192.222	899.044
192.315	15.476	1191.354	898.164
193.329	15.461	1190.910	897.672
194.344	15.444	1190.070	896.869
195.359	15.549	1189.886	897.211
196.373	15.697	1189.170	897.383
197.388	15.734	1188.879	897.279
198.402	15.853	1188.704	897.704
199.417	15.925	1187.749	897.283
200.432	15.961	1186.942	896.791
201.446	16.038	1186.571	896.839
202.461	16.212	1185.014	896.507
203.475	16.128	1184.005	895.218
204.490	16.037	1182.942	893.852
205.504	15.904	1182.042	892.387
206.519	15.918	1180.550	891.260
207.534	15.839	1179.668	890.092
208.548	15.935	1178.844	889.900
209.563	15.877	1177.878	888.785
210.577	15.926	1177.118	888.394
211.592	15.997	1176.254	888.035
212.607	16.093	1175.220	887.685
213.621	16.092	1174.694	887.205
214.636	16.059	1173.281	885.881
215.650	16.097	1172.846	885.676
216.665	16.085	1171.922	884.838
217.680	16.247	1171.198	885.063
218.694	16.158	1170.056	883.654
219.709	16.222	1169.497	883.488
220.723	16.246	1168.737	882.962
221.738	16.062	1168.299	881.593
222.753	16.235	1167.479	881.799
223.767	16.106	1166.728	880.478
224.782	16.320	1165.809	880.822
225.796	16.431	1164.555	880.379
226.811	16.330	1164.250	879.541
227.826	16.239	1163.969	878.780
228.840	16.317	1162.650	878.112
229.855	16.299	1162.313	877.686
230.869	16.258	1161.684	876.921
231.884	16.170	1160.627	875.585
232.899	16.293	1159.322	875.164
233.913	16.194	1159.040	874.362
234.928	16.123	1158.389	873.423
235.942	16.081	1157.808	872.693
236.957	16.135	1157.061	872.330
237.972	16.116	1156.209	871.513
238.986	16.149	1155.264	870.891
240.001	16.180	1155.071	870.832
241.015	16.214	1154.110	870.205
242.030	16.167	1153.553	869.463
243.045	16.368	1152.662	869.753
244.059	16.393	1151.482	868.911
245.074	16.210	1151.428	867.852
246.088	16.399	1150.328	867.920
247.103	16.448	1149.362	867.363
248.117	16.427	1149.006	866.912
249.132	16.520	1148.281	866.765
250.147	16.701	1147.699	867.175
251.161	16.873	1146.444	867.032
252.176	16.743	1146.012	865.962
253.190	16.856	1145.438	866.031
254.205	16.872	1144.687	865.467
255.220	16.916	1144.353	865.362
256.234	16.892	1143.662	864.641
257.249	16.929	1142.748	864.060
258.263	16.869	1142.355	863.384
259.278	16.898	1141.767	863.010
260.293	16.966	1141.129	862.797
261.307	16.987	1140.628	862.451
262.322	16.962	1139.885	861.684
263.336	17.060	1139.378	861.721
264.351	17.077	1138.594	861.139
265.366	17.096	1137.846	860.594
266.380	17.141	1137.150	860.216
267.395	17.065	1136.284	859.102
268.409	16.945	1135.627	857.920
269.424	16.972	1134.823	857.376
270.439	16.976	1134.568	857.129
271.453	16.903	1133.930	856.199
272.468	16.849	1132.884	855.063
273.482	16.809	1132.210	854.276
274.497	16.910	1131.810	854.410
275.512	17.021	1130.693	854.047
276.526	16.920	1130.087	853.008
277.541	16.969	1129.138	852.462
278.555	17.057	1128.328	852.216
279.570	17.098	1127.892	852.016
280.585	17.162	1127.078	851.647
281.599	17.125	1126.203	850.728
282.614	17.158	1124.821	849.771
283.628	17.207	1123.445	848.902
284.643	17.185	1122.714	848.163
285.657	17.106	1122.110	847.240
286.672	17.166	1121.287	846.840
287.687	17.186	1119.995	845.889
288.701	17.226	1119.376	845.549
289.716	17.229	1118.882	845.114
290.730	17.181	1118.215	844.299
291.745	17.240	1117.431	843.925
292.760	17.299	1117.033	843.843
293.774	17.285	1116.598	843.368
294.789	17.344	1116.056	843.177
295.803	17.396	1115.101	842.639
296.818	17.239	1114.576	841.391
297.833	17.206	1113.776	840.548
298.847	17.234	1113.160	840.146
299.862	17.451	1111.723	840.060
300.876	17.373	1111.157	839.176
301.891	17.451	1110.738	839.166
302.906	17.496	1110.066	838.807
303.920	17.462	1109.334	838.011
304.935	17.456	1109.274	837.862
305.949	17.575	1108.397	837.713
306.964	17.677	1107.502	837.463
307.979	17.643	1106.671	836.592
308.993	17.592	1105.646	835.495
310.008	17.490	1105.383	834.724
311.022	17.601	1104.818	834.767
312.037	17.633	1103.910	834.163
313.052	17.570	1102.441	832.670
314.066	17.535	1101.814	831.954
315.081	17.373	1101.217	830.634
316.095	17.352	1100.630	830.019
317.110	17.393	1099.479	829.277
318.125	17.510	1098.749	829.223
319.139	17.475	1097.930	828.361
320.154	17.462	1097.362	827.794
321.168	17.524	1096.870	827.650
322.183	17.515	1096.375	827.160
323.197	17.495	1095.769	826.536
324.212	17.556	1094.973	826.154
325.227	17.539	1094.292	825.486
326.241	17.500	1093.991	824.998
327.256	17.549	1092.841	824.294
328.270	17.586	1092.106	823.847
329.285	17.515	1091.323	822.838
330.300	17.523	1090.200	821.960
331.314	17.469	1089.244	820.905
332.329	17.673	1088.265	821.079
333.343	17.738	1087.107	820.441
334.358	17.856	1086.509	820.488
335.373	17.844	1086.065	820.022
336.387	17.738	1085.097	818.711
337.402	17.843	1084.298	818.538
338.416	17.883	1083.827	818.304
339.431	17.859	1083.363	817.762
340.446	17.942	1082.783	817.650
341.460	18.068	1082.252	817.778
342.475	18.076	1081.464	817.153
343.489	18.052	1080.352	816.124
344.504	18.141	1079.382	815.743
345.519	18.158	1078.508	815.093
346.533	18.149	1078.422	814.912
347.548	18.174	1077.299	814.109
348.562	18.185	1076.575	813.542
349.577	18.116	1075.331	812.203
350.592	18.056	1074.631	811.319
351.606	18.078	1073.683	810.636
352.621	17.866	1073.752	809.610
353.635	17.959	1072.755	809.226
354.650	18.170	1071.639	809.312
355.665	18.066	1071.253	808.457
356.679	18.072	1070.552	807.885
357.694	18.141	1070.228	807.895
358.708	18.176	1069.619	807.528
359.723	18.201	1069.070	807.161
360.738	18.154	1068.338	806.315
361.752	18.264	1067.507	806.136
362.767	18.248	1066.852	805.495
363.781	18.195	1066.651	805.022
364.796	18.287	1065.983	804.876
365.810	18.354	1065.311	804.614
366.825	18.491	1065.064	805.002
367.840	18.495	1064.738	804.702
368.854	18.341	1063.965	803.323
369.869	18.503	1063.349	803.546
370.883	18.526	1062.033	802.590
371.898	18.377	1061.747	801.607
372.913	18.365	1061.011	800.923
373.927	18.500	1060.378	801.003
374.942	18.565	1060.086	801.017
375.956	18.628	1059.121	800.510
376.971	18.550	1058.497	799.605
377.986	18.474	1058.657	799.302
379.000	18.622	1058.149	799.537
380.015	18.687	1057.375	799.184
381.029	18.829	1056.475	799.090
382.044	18.776	1056.126	798.512
383.059	18.713	1055.013	797.305
384.073	18.854	1054.162	797.245
385.088	18.620	1053.512	795.599
386.102	18.764	1052.615	795.519
387.117	18.673	1051.462	794.155
388.132	18.710	1050.307	793.385
389.146	18.655	1049.464	792.422
390.161	18.615	1049.163	791.941
391.175	18.620	1048.557	791.438
392.190	18.759	1047.903	791.514
393.205	18.780	1047.141	790.963
394.219	18.753	1046.620	790.377
395.234	18.629	1046.185	789.407
396.248	18.583	1044.650	787.971
397.263	18.745	1043.434	787.724
398.278	18.563	1043.165	786.617
399.292	18.499	1042.354	785.645
400.307	18.506	1041.339	784.840
401.321	18.604	1040.769	784.790
402.336	18.664	1040.153	784.531
403.350	18.750	1039.383	784.272
404.365	18.643	1038.767	783.251
405.380	18.748	1038.257	783.274
406.394	18.922	1037.169	783.180
407.409	18.773	1036.725	782.095
408.423	18.863	1036.068	781.942
409.438	18.891	1035.963	781.921
410.453	19.031	1035.046	781.792
411.467	19.184	1033.913	781.565
412.482	19.122	1033.510	780.909
413.496	19.143	1032.737	780.350
414.511	19.163	1032.320	780.058
415.526	19.312	1031.610	780.126
416.540	19.206	1031.675	779.624
417.555	19.297	1031.221	779.624
418.569	19.264	1030.463	778.836
419.584	19.181	1030.112	778.125
420.599	19.239	1029.584	777.918
421.613	150.927	1401.473	1793.472
422.628	137.660	1455.671	1793.587
