DTS Sentinel unit serial number:	SN413079Multiplexer serial number:	ORYXHardware model number:	OX4-SRSoftware version number:	ORYX F/W v4.00 Oryx Data Collector v3.7.2.0data status	okinstallation	princeton_trtdifferential loss correction	single-endedforward channel	channel 2reverse channel	N/Adate	2019/09/18time	08:55:34forward acquisition time	60.00reverse acquisition time	0.00gamma	496.2192k internal	0.2339k external	0.2339temperature offset calibration	0.9980default loss term (dB/km)	0.3790temperature slope calibration	1.0000multiplexer offset coefficient	1.0000multiplexer slope coefficient	1.0000fibre end	0.00T internal ref (°C)	24.94T ext. ref 1 (°C)	0.24T ext. ref 2 (°C)	21.18length (m)	temperature (°C)	Stokes	anti-Stokes-747.200	-4.234	0.178	-0.124
-746.185	53.593	-0.099	-0.095
-745.171	3.561	0.101	0.074
-744.156	739.425	-0.074	-0.198
-743.142	415.529	-0.123	0.262
-742.127	-153.482	-0.243	0.017
-741.112	800.000	0.065	0.200
-740.098	-45.029	0.184	0.092
-739.083	119.352	-0.243	0.302
-738.069	-122.621	-0.198	0.032
-737.054	89.475	0.189	0.212
-736.039	-57.544	-0.155	-0.068
-735.025	41.503	0.183	0.166
-734.010	666.999	-0.066	-0.172
-732.996	344.809	-0.096	0.189
-731.981	-200.000	0.021	-0.194
-730.966	-200.000	-0.034	-0.155
-729.952	-115.846	-0.502	-0.094
-728.937	-168.116	-0.327	0.013
-727.923	186.528	-0.071	-0.107
-726.908	81.965	0.053	-0.058
-725.894	-78.193	-0.228	-0.078
-724.879	800.000	-0.036	-0.123
-723.864	-71.215	-0.197	-0.074
-722.850	37.048	0.228	-0.202
-721.835	99.582	0.088	-0.102
-720.821	-53.889	-0.019	-0.008
-719.806	150.251	-0.214	-0.291
-718.791	16.247	-0.047	-0.037
-717.777	77.748	0.248	-0.265
-716.762	-156.497	-0.178	-0.011
-715.748	-200.000	-0.000	0.053
-714.733	-71.783	-0.313	-0.117
-713.718	-98.803	0.324	-0.083
-712.704	105.969	-0.406	-0.481
-711.689	-101.911	-0.227	0.055
-710.675	83.874	0.084	-0.092
-709.660	158.413	-0.336	0.467
-708.645	-40.525	-0.097	0.050
-707.631	-76.355	0.309	0.109
-706.616	800.000	-0.135	-0.421
-705.602	-151.612	-0.416	-0.031
-704.587	-76.456	0.224	0.079
-703.572	-148.372	-0.391	0.032
-702.558	-62.592	0.342	0.142
-701.543	314.615	0.268	-0.506
-700.529	78.436	-0.207	-0.221
-699.514	241.466	0.081	-0.136
-698.499	-45.130	-0.133	0.066
-697.485	-28.897	-0.155	-0.089
-696.470	548.444	-0.122	0.293
-695.456	-58.478	-0.452	0.197
-694.441	-200.000	0.021	0.108
-693.426	-55.931	-0.117	0.052
-692.412	23.466	0.144	0.118
-691.397	-200.000	0.031	-0.295
-690.383	-200.000	-0.004	-0.031
-689.368	800.000	-0.050	-0.216
-688.354	200.348	0.052	0.081
-687.339	800.000	0.070	-0.298
-686.324	54.890	-0.305	-0.295
-685.310	-70.704	-0.167	-0.063
-684.295	-200.000	0.039	-0.192
-683.281	-41.227	-0.351	0.181
-682.266	-148.264	0.279	-0.023
-681.251	-200.000	-0.001	0.302
-680.237	73.979	-0.186	-0.195
-679.222	208.400	0.082	-0.128
-678.208	99.794	0.249	-0.289
-677.193	-27.886	-0.224	0.130
-676.178	-118.725	0.082	-0.015
-675.164	800.000	-0.025	0.093
-674.149	-76.264	-0.245	0.086
-673.135	800.000	0.025	-0.091
-672.120	359.495	-0.153	0.305
-671.105	-67.817	-0.175	0.069
-670.091	276.025	-0.330	0.585
-669.076	174.293	-0.141	-0.204
-668.062	800.000	0.081	-0.253
-667.047	-166.812	-0.179	0.007
-666.032	-200.000	-0.043	-0.227
-665.018	-131.738	-0.137	-0.018
-664.003	-52.619	-0.428	-0.197
-662.989	-184.112	-0.469	0.008
-661.974	-167.106	0.580	0.024
-660.959	-89.541	-0.472	-0.139
-659.945	-127.732	0.168	-0.024
-658.930	-16.421	-0.208	0.132
-657.916	-37.667	-0.160	0.085
-656.901	-113.546	0.167	0.033
-655.886	-86.253	0.136	-0.042
-654.872	800.000	0.085	-0.285
-653.857	-26.786	-0.153	0.089
-652.843	1.255	-0.315	0.226
-651.828	-122.158	0.133	-0.022
-650.814	-200.000	0.003	0.109
-649.799	-108.940	0.029	-0.006
-648.784	800.000	0.048	-0.204
-647.770	-196.788	0.136	-0.001
-646.755	-200.000	0.012	0.126
-645.741	389.915	-0.117	-0.242
-644.726	-172.660	-0.112	0.004
-643.711	-121.472	0.332	0.055
-642.697	-18.671	0.039	-0.024
-641.682	68.265	0.140	-0.143
-640.668	300.964	0.130	0.240
-639.653	178.138	0.119	-0.174
-638.638	-142.689	-0.207	-0.020
-637.624	-19.902	0.290	0.179
-636.609	166.862	-0.212	0.301
-635.595	17.252	-0.106	0.084
-634.580	-61.959	-0.361	-0.151
-633.565	442.440	-0.087	-0.191
-632.551	-5.005	-0.208	0.143
-631.536	7.386	0.246	0.184
-630.522	-102.333	-0.187	0.045
-629.507	-200.000	0.002	-0.032
-628.492	800.000	-0.059	-0.240
-627.478	-133.501	-0.285	0.036
-626.463	94.492	0.059	-0.067
-625.449	41.964	-0.112	-0.101
-624.434	-135.948	0.060	-0.007
-623.419	680.129	0.103	-0.268
-622.405	-157.111	-0.274	-0.017
-621.390	-200.000	0.021	0.203
-620.376	100.411	-0.284	-0.329
-619.361	-153.251	-0.315	0.022
-618.346	10.818	0.086	-0.065
-617.332	-36.822	0.152	-0.081
-616.317	-170.055	-0.065	0.002
-615.303	487.391	0.106	0.242
-614.288	124.394	0.198	0.248
-613.273	-151.981	-0.336	-0.024
-612.259	58.908	-0.201	0.197
-611.244	-200.000	-0.018	0.133
-610.230	-68.832	0.221	-0.085
-609.215	-121.221	-0.168	0.028
-608.201	-129.940	0.427	0.058
-607.186	45.761	-0.309	0.285
-606.171	-173.187	-0.450	0.014
-605.157	148.115	-0.061	-0.083
-604.142	-200.000	0.046	-0.337
-603.128	-200.000	-0.042	-0.263
-602.113	212.028	0.096	0.150
-601.098	-200.000	0.257	0.001
-600.084	-21.611	-0.074	-0.045
-599.069	514.098	-0.111	-0.258
-598.055	-90.705	0.237	0.068
-597.040	453.253	0.188	-0.414
-596.025	291.471	0.097	-0.175
-595.011	-97.658	0.197	-0.051
-593.996	-112.824	-0.255	0.051
-592.982	-29.913	-0.161	0.092
-591.967	60.849	-0.186	-0.184
-590.952	-47.799	0.167	-0.081
-589.938	292.343	0.211	0.382
-588.923	-56.301	-0.096	0.043
-587.909	800.000	0.046	-0.199
-586.894	23.507	0.241	0.197
-585.879	-92.256	-0.148	0.042
-584.865	-106.066	-0.439	0.098
-583.850	-200.000	-0.014	0.121
-582.836	98.809	-0.212	0.244
-581.821	53.110	0.221	-0.211
-580.806	384.992	-0.109	0.225
-579.792	144.134	-0.149	-0.198
-578.777	-51.134	0.075	0.035
-577.763	503.962	-0.080	0.183
-576.748	-12.599	0.418	-0.272
-575.733	126.186	-0.131	0.165
-574.719	800.000	-0.055	-0.198
-573.704	458.678	-0.069	0.154
-572.690	-98.969	0.226	-0.057
-571.675	560.030	0.184	-0.443
-570.661	-120.535	-0.136	0.023
-569.646	603.089	0.190	-0.471
-568.631	70.597	0.194	0.200
-567.617	-184.070	-0.220	0.004
-566.602	33.038	0.152	0.131
-565.588	684.676	0.041	-0.107
-564.573	-155.293	-0.075	0.005
-563.558	43.975	0.061	0.056
-562.544	-42.194	-0.075	-0.038
-561.529	591.197	0.114	-0.281
-560.515	-11.098	-0.114	-0.075
-559.500	19.346	-0.241	0.193
-558.485	-41.213	0.157	0.081
-557.471	-200.000	-0.019	0.087
-556.456	148.413	0.073	0.098
-555.442	-200.000	-0.011	0.180
-554.427	-200.000	0.020	-0.097
-553.412	81.525	0.156	-0.168
-552.398	-200.000	-0.096	0.449
-551.383	-200.000	-0.002	0.167
-550.369	42.736	0.080	-0.072
-549.354	-200.000	-0.013	-0.143
-548.339	-11.300	0.169	-0.111
-547.325	-102.922	0.144	0.034
-546.310	-39.795	-0.119	-0.062
-545.296	800.000	0.068	0.248
-544.281	-137.445	-0.165	0.019
-543.266	-12.682	0.300	-0.195
-542.252	-78.754	-0.034	-0.011
-541.237	-180.695	0.192	-0.004
-540.223	117.414	0.088	-0.108
-539.208	800.000	-0.121	-0.357
-538.193	-69.238	-0.047	0.018
-537.179	200.077	-0.050	-0.076
-536.164	234.274	0.186	-0.305
-535.150	55.261	-0.125	-0.120
-534.135	-56.200	-0.146	-0.065
-533.121	108.720	0.111	-0.132
-532.106	-50.792	0.111	-0.052
-531.091	58.586	0.183	0.179
-530.077	46.531	-0.246	-0.227
-529.062	64.185	0.156	0.156
-528.048	-200.000	0.012	0.139
-527.033	328.540	-0.120	-0.228
-526.018	-95.206	-0.178	-0.048
-525.004	-80.438	0.287	-0.095
-523.989	-200.000	0.018	-0.088
-522.975	-102.964	0.101	-0.024
-521.960	-141.547	0.210	-0.021
-520.945	-200.000	0.010	0.128
-519.931	89.638	-0.122	-0.136
-518.916	800.000	-0.028	0.118
-517.902	105.295	-0.087	0.102
-516.887	146.487	0.097	0.129
-515.872	-6.202	-0.325	0.221
-514.858	-93.939	0.319	-0.087
-513.843	31.561	0.264	-0.226
-512.829	-48.009	0.302	-0.145
-511.814	-64.760	0.323	-0.130
-510.799	-85.674	-0.535	-0.165
-509.785	-177.584	-0.435	-0.011
-508.770	487.055	0.081	0.183
-507.756	-30.646	0.132	0.074
-506.741	716.639	0.084	-0.223
-505.726	-76.485	-0.097	-0.034
-504.712	488.136	-0.108	0.244
-503.697	800.000	-0.118	0.352
-502.683	800.000	0.063	0.204
-501.668	96.455	0.173	0.197
-500.653	395.391	-0.100	-0.207
-499.639	659.138	-0.087	0.224
-498.624	49.973	-0.049	0.046
-497.610	-48.487	0.190	0.091
-496.595	-28.477	0.366	0.209
-495.581	-200.000	-0.019	0.200
-494.566	-64.608	0.122	-0.049
-493.551	346.003	-0.028	0.054
-492.537	-200.000	0.004	0.091
-491.522	117.330	-0.088	0.107
-490.508	200.428	0.059	-0.090
-489.493	601.503	-0.173	0.428
-488.478	111.941	0.171	0.205
-487.464	138.137	-0.031	0.040
-486.449	-26.438	-0.155	-0.091
-485.435	-200.000	0.006	0.370
-484.420	-161.674	0.411	0.021
-483.405	102.525	0.110	0.128
-482.391	434.842	0.080	-0.172
-481.376	-104.918	-0.065	0.015
-480.362	52.577	0.155	-0.147
-479.347	-46.960	-0.157	0.076
-478.332	78.471	0.021	-0.023
-477.318	411.683	0.020	-0.043
-476.303	3.328	-0.350	0.253
-475.289	-200.000	-0.000	0.154
-474.274	-10.947	0.241	-0.158
-473.259	760.912	0.077	-0.208
-472.245	-146.808	-0.079	-0.007
-471.230	13.040	-0.427	-0.328
-470.216	-200.000	-0.050	-0.275
-469.201	297.504	0.106	0.194
-468.186	382.479	-0.055	-0.111
-467.172	358.164	0.266	0.528
-466.157	-75.651	-0.142	0.050
-465.143	-77.184	-0.138	0.048
-464.128	-200.000	-0.010	0.291
-463.113	-72.649	-0.315	0.115
-462.099	800.000	0.031	0.090
-461.084	-101.989	0.052	-0.012
-460.070	-200.000	-0.021	0.150
-459.055	490.030	-0.073	-0.166
-458.040	415.343	-0.006	0.014
-457.026	-6.521	0.351	0.237
-456.011	494.813	-0.101	0.230
-454.997	-4.275	0.115	0.079
-453.982	343.912	-0.054	-0.106
-452.968	-112.541	-0.183	-0.036
-451.953	-131.605	-0.170	0.022
-450.938	130.992	0.187	0.238
-449.924	208.594	-0.185	0.287
-448.909	-76.979	0.233	0.081
-447.895	-47.083	-0.364	-0.176
-446.880	-98.297	-0.068	0.017
-445.865	-200.000	0.081	-0.392
-444.851	174.574	-0.287	0.411
-443.836	-10.889	-0.061	0.040
-442.822	-85.252	-0.238	-0.074
-441.807	155.255	0.074	0.101
-440.792	268.793	0.051	0.088
-439.778	204.095	0.152	0.234
-438.763	-200.000	-0.002	0.061
-437.749	-83.568	0.243	0.077
-436.734	-113.193	-0.259	0.051
-435.719	-64.081	0.260	-0.105
-434.705	-110.057	0.272	0.056
-433.690	7.387	-0.280	0.207
-432.676	494.507	-0.137	-0.312
-431.661	163.292	-0.150	0.209
-430.646	-163.253	0.165	0.008
-429.632	800.000	-0.072	0.209
-428.617	41.501	0.112	-0.101
-427.603	-80.203	0.077	-0.025
-426.588	333.624	-0.174	-0.334
-425.573	-177.884	0.046	-0.001
-424.559	-200.000	0.002	0.131
-423.544	-200.000	-0.024	-0.111
-422.530	-116.753	-0.067	0.012
-421.515	800.000	0.074	-0.235
-420.500	-164.701	-0.123	0.005
-419.486	-122.754	-0.145	0.023
-418.471	-200.000	0.065	0.382
-417.457	144.192	-0.265	0.350
-416.442	-200.000	0.020	-0.157
-415.428	45.027	-0.049	-0.045
-414.413	800.000	-0.125	-0.366
-413.398	-109.402	0.052	0.011
-412.384	128.828	-0.049	0.062
-411.369	-200.000	-0.057	0.298
-410.355	493.732	-0.082	0.187
-409.340	1.179	-0.388	0.276
-408.325	-200.000	-0.058	-0.341
-407.311	-148.998	-0.296	-0.024
-406.296	800.000	0.047	-0.149
-405.282	291.087	0.055	0.098
-404.267	-2.377	-0.255	0.177
-403.252	-73.351	-0.136	0.049
-402.238	-92.668	-0.405	-0.112
-401.223	56.474	0.228	0.219
-400.209	249.045	-0.103	0.173
-399.194	-166.843	-0.388	0.016
-398.179	315.934	-0.027	-0.050
-397.165	-44.106	-0.360	-0.179
-396.150	350.325	-0.047	0.091
-395.136	-39.028	-0.183	0.095
-394.121	-200.000	-0.013	-0.256
-393.106	-200.000	0.007	0.111
-392.092	42.450	-0.232	0.209
-391.077	-62.534	-0.051	0.021
-390.063	149.272	-0.120	-0.161
-389.048	20.497	0.170	-0.136
-388.033	-4.783	-0.314	0.214
-387.019	-98.582	0.334	0.084
-386.004	-6.954	0.209	-0.140
-384.990	-200.000	0.051	-0.522
-383.975	-86.496	-0.499	-0.152
-382.960	-200.000	0.050	-0.371
-381.946	366.295	0.106	-0.212
-380.931	14.673	-0.220	0.170
-379.917	-183.569	-0.358	-0.006
-378.902	-200.000	-0.012	-0.520
-377.888	800.000	0.092	-0.389
-376.873	111.268	-0.236	0.282
-375.858	-65.682	-0.161	-0.064
-374.844	-200.000	-0.028	-0.169
-373.829	-8.547	0.176	0.117
-372.815	-200.000	-0.004	-0.030
-371.800	86.339	0.104	0.114
-370.785	-85.278	0.282	0.087
-369.771	-188.742	0.269	0.003
-368.756	-61.651	0.149	0.062
-367.742	-26.638	-0.181	-0.105
-366.727	-89.739	0.254	0.074
-365.712	329.326	0.098	0.187
-364.698	33.927	0.412	0.355
-363.683	278.286	0.099	-0.175
-362.669	-49.336	-0.099	0.047
-361.654	-19.483	0.179	0.110
-360.639	800.000	-0.097	-0.268
-359.625	-117.201	0.270	-0.048
-358.610	-24.002	-0.227	0.134
-357.596	-193.490	-0.225	0.002
-356.581	-79.928	-0.187	-0.062
-355.566	-200.000	-0.023	0.176
-354.552	441.102	0.158	-0.341
-353.537	-200.000	-0.025	0.136
-352.523	90.846	-0.066	-0.073
-351.508	138.389	-0.126	-0.164
-350.493	173.375	-0.080	0.114
-349.479	-55.836	-0.268	-0.118
-348.464	-148.676	-0.236	0.019
-347.450	110.200	0.044	0.052
-346.435	73.231	0.261	-0.269
-345.420	-106.336	0.123	0.027
-344.406	-68.334	-0.277	0.106
-343.391	-131.400	-0.443	0.058
-342.377	-154.452	0.436	-0.029
-341.362	161.076	-0.118	0.162
-340.348	-97.274	-0.252	-0.065
-339.333	17.553	-0.199	-0.156
-338.318	-21.901	0.247	-0.148
-337.304	-80.801	-0.195	-0.064
-336.289	-200.000	-0.069	-0.332
-335.275	-179.066	0.328	0.007
-334.260	-166.979	0.086	-0.003
-333.245	172.243	0.080	-0.114
-332.231	144.292	-0.279	0.367
-331.216	46.102	-0.058	0.053
-330.202	-65.193	-0.189	0.075
-329.187	11.752	0.197	0.149
-328.172	-37.983	-0.258	0.135
-327.158	159.160	0.159	-0.219
-326.143	-200.000	-0.054	0.339
-325.129	-100.925	-0.213	-0.052
-324.114	-200.000	0.048	-0.404
-323.099	-46.156	0.339	0.164
-322.085	-200.000	-0.014	-0.072
-321.070	609.718	0.077	-0.190
-320.056	-77.334	0.271	0.093
-319.041	198.643	-0.079	-0.119
-318.026	-21.832	0.261	0.156
-317.012	13.982	0.199	0.153
-315.997	-82.297	0.275	0.088
-314.983	-110.418	0.171	0.035
-313.968	346.657	0.087	-0.169
-312.953	-27.806	0.384	0.220
-311.939	-200.000	0.048	0.210
-310.924	-200.000	0.042	-0.303
-309.910	68.241	-0.074	-0.075
-308.895	-135.556	0.148	0.017
-307.880	-200.000	-0.045	0.211
-306.866	-27.961	0.315	0.180
-305.851	562.598	-0.083	0.199
-304.837	-6.545	0.267	-0.180
-303.822	-80.310	-0.292	-0.096
-302.807	-8.552	0.375	-0.248
-301.793	-71.731	0.419	-0.154
-300.778	177.409	-0.075	-0.107
-299.764	-12.644	-0.164	-0.105
-298.749	-200.000	-0.014	0.085
-297.735	-200.000	-0.008	-0.084
-296.720	560.487	-0.069	-0.164
-295.705	-111.021	0.149	0.030
-294.691	-56.298	-0.177	0.078
-293.676	-200.000	0.015	-0.241
-292.662	-185.433	0.207	-0.003
-291.647	195.242	-0.154	0.230
-290.632	-200.000	-0.001	0.066
-289.618	109.357	0.265	0.312
-288.603	-200.000	-0.008	-0.066
-287.589	191.440	0.102	0.151
-286.574	-1.696	0.203	-0.141
-285.559	17.912	0.070	-0.055
-284.545	-200.000	0.007	-0.341
-283.530	-113.269	-0.103	-0.020
-282.516	-144.029	-0.056	-0.005
-281.501	-200.000	-0.007	-0.134
-280.486	-200.000	-0.013	0.076
-279.472	216.128	-0.051	-0.079
-278.457	-200.000	-0.015	-0.201
-277.443	-139.291	0.110	0.012
-276.428	-200.000	0.034	-0.429
-275.413	-119.806	0.308	0.052
-274.399	37.290	-0.107	0.093
-273.384	49.269	0.258	0.239
-272.370	-200.000	-0.014	0.225
-271.355	800.000	0.132	-0.380
-270.340	-200.000	0.033	-0.228
-269.326	-13.804	0.284	-0.181
-268.311	185.022	0.143	-0.209
-267.297	-44.294	0.078	-0.038
-266.282	153.653	0.306	0.412
-265.267	6.135	0.107	-0.078
-264.253	-0.777	0.289	0.202
-263.238	800.000	-0.035	-0.111
-262.224	-200.000	0.028	0.263
-261.209	-87.949	-0.118	-0.035
-260.195	-72.203	-0.039	-0.014
-259.180	-6.346	-0.097	-0.065
-258.165	-175.881	-0.085	0.002
-257.151	253.902	0.238	0.401
-256.136	187.013	0.205	0.301
-255.122	487.568	0.012	-0.026
-254.107	-200.000	0.008	-0.101
-253.092	434.451	0.068	-0.145
-252.078	-140.333	-0.209	-0.022
-251.063	-167.311	0.203	-0.008
-250.049	59.651	-0.190	-0.184
-249.034	8.038	-0.060	0.045
-248.019	-200.000	0.017	-0.330
-247.005	192.543	-0.038	0.057
-245.990	281.051	-0.182	-0.320
-244.976	-200.000	0.007	-0.262
-243.961	-31.164	0.063	-0.035
-242.946	800.000	-0.022	-0.075
-241.932	-200.000	-0.017	0.078
-240.917	-148.296	0.248	0.020
-239.903	637.102	-0.098	0.245
-238.888	78.167	0.252	0.265
-237.873	-95.926	-0.161	-0.042
-236.859	128.555	-0.173	-0.217
-235.844	466.923	0.155	-0.342
-234.830	-8.228	-0.300	-0.199
-233.815	800.000	-0.132	-0.359
-232.800	194.942	-0.103	0.154
-231.786	569.997	0.065	-0.156
-230.771	114.641	0.018	-0.021
-229.757	-50.818	0.230	0.106
-228.742	343.602	0.141	-0.272
-227.727	-105.584	-0.249	0.055
-226.713	-108.035	-0.208	0.044
-225.698	218.989	0.046	0.073
-224.684	727.806	0.082	-0.214
-223.669	432.680	0.103	-0.220
-222.655	-109.185	-0.105	-0.022
-221.640	721.394	-0.085	0.223
-220.625	340.973	0.018	0.034
-219.611	-200.000	-0.011	-0.113
-218.596	-62.981	-0.258	-0.105
-217.582	800.000	0.091	0.282
-216.567	800.000	0.126	0.489
-215.552	15.557	0.086	-0.067
-214.538	-87.149	-0.176	-0.053
-213.523	-50.086	-0.027	-0.013
-212.509	-137.937	0.623	0.068
-211.494	-92.377	-0.074	0.020
-210.479	-31.406	-0.038	-0.021
-209.465	-11.181	-0.087	-0.056
-208.450	410.824	-0.046	0.096
-207.436	131.123	0.238	0.301
-206.421	-200.000	0.007	-0.234
-205.406	-200.000	-0.060	-0.309
-204.392	800.000	-0.061	-0.171
-203.377	800.000	-0.060	-0.214
-202.363	594.686	-0.110	0.267
-201.348	-53.248	0.164	0.074
-200.333	-42.454	-0.032	-0.016
-199.319	28.841	0.209	-0.174
-198.304	800.000	-0.065	0.200
-197.290	71.350	-0.175	-0.178
-196.275	234.469	0.080	-0.130
-195.260	-200.000	0.008	0.166
-194.246	16.838	0.076	-0.059
-193.231	65.683	-0.207	-0.206
-192.217	-35.705	-0.176	0.094
-191.202	195.917	-0.127	0.190
-190.187	-160.807	-0.164	-0.009
-189.173	12.106	0.098	0.074
-188.158	-39.092	0.082	0.042
-187.144	-23.239	-0.225	0.133
-186.129	-86.257	-0.034	-0.010
-185.114	515.540	-0.073	-0.167
-184.100	-20.126	0.149	-0.090
-183.085	7.803	0.185	0.136
-182.071	-182.334	-0.043	-0.001
-181.056	391.716	0.116	-0.236
-180.042	-168.474	-0.242	-0.009
-179.027	-200.000	-0.055	-0.374
-178.012	1.875	-0.038	0.027
-176.998	-89.696	0.151	0.043
-175.983	-200.000	0.002	0.187
-174.969	-126.073	0.279	0.041
-173.954	215.254	-0.118	0.184
-172.939	598.228	-0.029	-0.070
-171.925	-22.741	-0.092	0.055
-170.910	96.454	0.231	0.260
-169.896	5.783	-0.225	0.163
-168.881	22.011	0.168	0.135
-167.866	-57.929	-0.351	0.150
-166.852	-200.000	0.029	0.160
-165.837	-118.928	0.211	-0.036
-164.823	113.479	-0.088	0.105
-163.808	719.751	-0.037	-0.096
-162.793	-200.000	0.004	-0.044
-161.779	-98.273	-0.068	-0.017
-160.764	71.853	-0.199	-0.203
-159.750	-149.781	0.376	-0.029
-158.735	-163.625	0.320	0.015
-157.720	-139.141	0.150	-0.016
-156.706	800.000	0.065	0.263
-155.691	153.886	-0.055	-0.074
-154.677	269.742	-0.035	0.059
-153.662	106.750	-0.137	0.159
-152.647	109.904	-0.274	0.322
-151.633	800.000	-0.020	0.062
-150.618	212.783	-0.068	-0.105
-149.604	800.000	-0.016	0.045
-148.589	-7.193	0.215	0.143
-147.574	800.000	-0.071	0.204
-146.560	98.651	-0.078	0.088
-145.545	231.710	0.039	-0.062
-144.531	-34.124	0.250	0.135
-143.516	15.430	-0.437	-0.336
-142.502	35.677	0.074	-0.063
-141.487	460.962	0.133	-0.290
-140.472	-137.667	0.429	-0.047
-139.458	82.431	0.138	-0.147
-138.443	123.617	0.101	0.124
-137.429	-200.000	-0.053	-0.339
-136.414	-200.000	-0.003	-0.095
-135.399	800.000	0.055	0.234
-134.385	-165.695	0.087	0.004
-133.370	-9.794	0.260	-0.170
-132.356	800.000	-0.046	-0.187
-131.341	112.923	-0.117	-0.139
-130.326	32.850	-0.102	0.087
-129.312	25.607	-0.091	-0.074
-128.297	64.277	-0.082	-0.081
-127.283	-200.000	0.027	-0.157
-126.268	-150.931	-0.309	0.023
-125.253	252.109	-0.052	-0.086
-124.239	-69.583	-0.308	0.115
-123.224	-92.167	0.175	0.048
-122.210	-141.225	-0.235	0.023
-121.195	281.280	-0.137	0.240
-120.180	-200.000	0.002	-0.187
-119.166	-50.946	-0.068	-0.031
-118.151	98.149	0.124	0.139
-117.137	-200.000	0.039	0.297
-116.122	-200.000	0.083	-0.381
-115.107	-84.742	-0.040	-0.012
-114.093	166.428	-0.249	-0.345
-113.078	800.000	0.131	-0.482
-112.064	-200.000	0.020	-0.105
-111.049	-76.152	-0.060	0.021
-110.034	301.489	0.203	0.367
-109.020	-57.451	0.325	-0.140
-108.005	385.001	0.042	-0.085
-106.991	331.134	0.201	-0.379
-105.976	317.230	0.077	0.143
-104.962	523.998	0.174	-0.400
-103.947	187.797	0.127	-0.185
-102.932	-135.227	0.423	0.050
-101.918	800.000	0.037	-0.102
-100.903	116.393	0.063	0.076
-99.889	-31.404	0.348	0.192
-98.874	-120.466	0.227	-0.038
-97.859	-4.302	0.069	-0.047
-96.845	-200.000	0.044	-0.413
-95.830	-6.788	-0.300	0.200
-94.816	-200.000	-0.023	-0.185
-93.801	634.101	-0.038	0.094
-92.786	-200.000	-0.018	-0.121
-91.772	-94.510	0.258	-0.069
-90.757	800.000	0.080	0.243
-89.743	-125.401	0.214	-0.032
-88.728	-108.669	-0.068	-0.014
-87.713	800.000	0.127	0.373
-86.699	800.000	-0.043	0.122
-85.684	37.054	0.107	-0.092
-84.670	348.509	-0.035	0.068
-83.655	800.000	-0.092	0.273
-82.640	-34.142	-0.202	0.109
-81.626	-82.774	-0.133	-0.042
-80.611	18.948	-0.284	0.223
-79.597	-115.504	0.150	0.028
-78.582	-115.520	0.261	-0.048
-77.567	108.335	0.129	-0.150
-76.553	74.567	0.219	-0.225
-75.538	115.752	-0.132	0.158
-74.524	-21.255	0.134	-0.080
-73.509	-12.025	0.357	-0.229
-72.494	-87.731	0.200	-0.059
-71.480	472.140	-0.071	0.156
-70.465	-125.086	0.093	0.014
-69.451	50.914	0.234	-0.216
-68.436	-18.251	-0.185	0.113
-67.422	-48.970	0.259	0.121
-66.407	-95.767	0.240	-0.063
-65.392	-30.341	0.087	0.048
-64.378	800.000	0.050	-0.172
-63.363	151.090	0.099	0.132
-62.349	-200.000	-0.004	0.268
-61.334	121.150	-0.945	-1.149
-60.319	51.454	0.753	0.698
-59.305	250.456	-0.577	-0.956
-58.290	184.164	0.814	1.176
-57.276	556.065	0.479	1.125
-56.261	-200.000	121.313	615.334
-55.246	392.822	1570.509	3189.110
-54.232	139.476	2748.890	3532.536
-53.217	88.968	2317.034	2517.660
-52.203	33.604	1915.957	1625.636
-51.188	28.061	1706.707	1405.563
-50.173	25.645	1667.031	1354.672
-49.159	45.370	1729.123	1557.267
-48.144	44.033	1742.662	1559.126
-47.130	27.590	1696.626	1393.445
-46.115	25.011	1681.500	1361.393
-45.100	24.841	1676.020	1355.613
-44.086	24.792	1673.703	1353.318
-43.071	24.727	1671.264	1350.804
-42.057	24.736	1668.909	1348.911
-41.042	24.758	1666.605	1347.160
-40.027	24.776	1664.965	1345.919
-39.013	24.779	1662.455	1343.861
-37.998	24.779	1661.705	1343.199
-36.984	24.841	1659.531	1341.855
-35.969	24.892	1658.315	1341.199
-34.954	24.926	1656.746	1340.129
-33.940	24.836	1655.228	1338.180
-32.925	24.860	1653.822	1337.165
-31.911	24.902	1652.398	1336.278
-30.896	24.939	1650.281	1334.786
-29.881	24.904	1648.575	1333.093
-28.867	24.906	1647.394	1332.100
-27.852	24.883	1646.022	1330.767
-26.838	24.930	1644.425	1329.770
-25.823	24.916	1643.016	1328.477
-24.809	24.950	1641.911	1327.780
-23.794	25.055	1640.270	1327.179
-22.779	25.007	1638.765	1325.553
-21.765	24.947	1637.470	1324.014
-20.750	24.879	1635.690	1322.020
-19.736	25.022	1634.555	1322.102
-18.721	25.074	1632.984	1321.163
-17.706	24.987	1631.419	1319.204
-16.692	24.956	1630.286	1318.007
-15.677	24.977	1628.410	1316.592
-14.663	25.092	1627.077	1316.308
-13.648	25.003	1625.724	1314.503
-12.633	24.974	1624.315	1313.103
-11.619	24.865	1622.959	1311.157
-10.604	24.967	1621.386	1310.579
-9.590	24.989	1619.912	1309.497
-8.575	25.091	1618.391	1308.963
-7.560	24.990	1617.570	1307.508
-6.546	24.979	1616.390	1306.424
-5.531	25.006	1615.252	1305.647
-4.517	24.967	1614.080	1304.366
-3.502	24.918	1613.490	1303.476
-2.487	25.084	1611.326	1302.887
-1.473	24.878	1600.056	1292.231
-0.458	22.387	1581.310	1259.249
0.556	17.726	1584.013	1232.274
1.571	15.696	1607.801	1235.760
2.586	15.315	1619.881	1242.119
3.600	13.981	1565.502	1190.755
4.615	7.753	1456.156	1065.853
5.629	1.513	1394.581	980.544
6.644	0.306	1387.052	967.419
7.659	0.246	1385.899	966.140
8.673	0.231	1385.098	965.400
9.688	0.177	1382.797	963.371
10.702	0.073	1379.423	960.271
11.717	3.027	1383.845	982.157
12.731	10.300	1395.082	1036.755
13.746	15.656	1402.367	1076.464
14.761	16.667	1403.721	1083.885
15.775	16.142	1401.291	1078.558
16.790	15.140	1399.041	1070.333
17.804	14.548	1396.436	1064.467
18.819	14.117	1395.658	1061.029
19.834	13.888	1393.493	1057.834
20.848	13.718	1392.475	1055.880
21.863	13.361	1391.187	1052.540
22.877	13.176	1389.788	1050.211
23.892	13.012	1389.302	1048.711
24.907	13.091	1388.577	1048.575
25.921	13.201	1387.166	1048.112
26.936	13.181	1386.117	1047.101
27.950	13.208	1385.827	1046.962
28.965	13.313	1384.709	1046.687
29.980	13.339	1383.870	1046.122
30.994	13.344	1382.931	1045.352
32.009	13.466	1381.585	1045.012
33.023	13.488	1380.545	1044.271
34.038	13.404	1379.106	1042.561
35.053	13.345	1378.149	1041.375
36.067	13.239	1377.089	1039.814
37.082	13.286	1376.552	1039.616
38.096	13.317	1375.407	1038.851
39.111	13.419	1374.165	1038.465
40.126	13.264	1373.882	1037.187
41.140	13.242	1372.580	1035.974
42.155	13.158	1372.142	1035.023
43.169	12.969	1372.982	1034.381
44.184	13.102	1371.996	1034.379
45.199	13.124	1371.697	1034.200
46.213	13.178	1370.947	1033.882
47.228	13.249	1370.186	1033.660
48.242	13.189	1368.824	1032.166
49.257	13.244	1366.979	1031.024
50.271	13.166	1365.933	1029.659
51.286	13.209	1364.832	1029.007
52.301	13.234	1362.951	1027.654
53.315	13.185	1362.162	1026.660
54.330	13.219	1361.124	1025.999
55.344	13.231	1359.636	1024.863
56.359	13.182	1359.127	1024.088
57.374	13.160	1358.355	1023.275
58.388	13.152	1357.121	1022.208
59.403	13.051	1356.741	1021.203
60.417	13.108	1355.953	1020.875
61.432	13.036	1355.536	1020.022
62.447	13.097	1353.955	1019.120
63.461	13.064	1352.409	1017.662
64.476	13.028	1351.405	1016.598
65.490	13.079	1349.967	1015.737
66.505	13.093	1348.835	1014.885
67.520	13.084	1347.643	1013.840
68.534	13.126	1346.737	1013.327
69.549	13.163	1345.532	1012.556
70.563	13.073	1344.577	1011.201
71.578	13.067	1343.094	1009.955
72.593	13.063	1342.008	1009.028
73.607	13.020	1341.689	1008.435
74.622	13.033	1340.416	1007.467
75.636	12.954	1339.946	1006.544
76.651	13.035	1339.212	1006.396
77.666	12.965	1339.039	1005.749
78.680	13.065	1337.957	1005.460
79.695	12.985	1337.307	1004.396
80.709	13.067	1336.529	1004.220
81.724	13.110	1335.652	1003.735
82.739	13.044	1334.299	1002.231
83.753	13.217	1333.432	1002.538
84.768	13.268	1332.667	1002.183
85.782	13.297	1331.112	1001.099
86.797	13.338	1329.946	1000.382
87.812	13.193	1329.058	998.752
88.826	13.229	1327.681	997.842
89.841	13.157	1327.123	996.905
90.855	13.223	1325.907	996.299
91.870	13.337	1324.697	995.985
92.884	13.224	1324.397	994.996
93.899	13.361	1323.438	995.008
94.914	13.422	1322.232	994.379
95.928	13.298	1321.973	993.353
96.943	13.406	1320.269	992.633
97.957	13.227	1320.038	991.298
98.972	13.338	1318.730	990.892
99.987	13.313	1317.278	989.566
101.001	13.346	1316.397	989.011
102.016	13.347	1315.594	988.325
103.030	13.351	1314.132	987.165
104.045	13.309	1313.878	986.636
105.060	13.194	1312.532	984.856
106.074	13.223	1310.967	983.765
107.089	13.202	1309.849	982.713
108.103	13.195	1308.703	981.723
109.118	13.113	1307.509	980.254
110.133	13.153	1306.214	979.435
111.147	13.207	1304.139	978.113
112.162	13.213	1303.359	977.476
113.176	13.280	1301.977	976.747
114.191	13.151	1301.735	975.721
115.206	13.187	1300.092	974.614
116.220	13.287	1298.443	973.880
117.235	13.267	1297.679	973.107
118.249	13.184	1296.533	971.672
119.264	13.211	1295.599	971.041
120.279	13.152	1294.822	970.027
121.293	13.213	1293.695	969.457
122.308	13.239	1292.328	968.500
123.322	13.264	1291.265	967.763
124.337	13.187	1290.514	966.663
125.352	13.195	1288.791	965.335
126.366	13.200	1287.559	964.357
127.381	13.263	1286.527	963.861
128.395	13.183	1285.809	962.774
129.410	13.210	1284.927	962.189
130.424	13.127	1284.363	961.194
131.439	13.192	1283.309	960.700
132.454	13.147	1282.195	959.520
133.468	13.251	1281.137	959.244
134.483	13.181	1280.521	958.295
135.497	13.291	1279.194	957.856
136.512	13.123	1278.072	955.959
137.527	13.131	1276.635	954.845
138.541	13.290	1274.911	954.386
139.556	13.260	1274.258	953.641
140.570	13.251	1273.092	952.635
141.585	13.352	1271.696	952.088
142.600	13.254	1270.620	950.633
143.614	13.316	1269.905	950.369
144.629	13.395	1268.448	949.645
145.643	13.362	1267.578	948.720
146.658	13.343	1266.415	947.661
147.673	13.349	1265.109	946.634
148.687	13.228	1263.729	944.824
149.702	13.363	1262.397	944.517
150.716	13.329	1260.937	943.146
151.731	13.235	1260.040	941.857
152.746	13.427	1258.792	941.935
153.760	13.449	1256.998	940.635
154.775	13.412	1256.458	939.937
155.789	13.449	1255.332	939.222
156.804	13.388	1254.678	938.303
157.819	13.411	1253.351	937.358
158.833	13.577	1252.371	937.482
159.848	13.661	1251.020	936.861
160.862	13.539	1250.370	935.604
161.877	13.421	1249.398	934.123
162.892	13.324	1248.277	932.658
163.906	13.428	1247.477	932.563
164.921	13.465	1246.220	931.749
165.935	13.491	1245.377	931.182
166.950	13.499	1245.099	930.938
167.964	13.590	1244.072	930.599
168.979	13.552	1243.377	929.782
169.994	13.551	1242.376	928.947
171.008	13.547	1242.098	928.632
172.023	13.636	1240.781	928.066
173.037	13.677	1240.097	927.700
174.052	13.640	1238.619	926.308
175.067	13.497	1238.387	925.255
176.081	13.502	1237.416	924.471
177.096	13.655	1235.972	924.168
178.110	13.516	1235.352	922.848
179.125	13.563	1233.720	921.806
180.140	13.711	1232.359	921.533
181.154	13.606	1231.120	919.938
182.169	13.666	1229.873	919.258
183.183	13.682	1228.872	918.516
184.198	13.691	1227.854	917.728
185.213	13.696	1226.820	916.900
186.227	13.847	1225.131	916.391
187.242	13.736	1224.719	915.390
188.256	13.814	1223.756	915.019
189.271	13.833	1222.268	913.930
190.286	13.783	1221.695	913.145
191.300	13.735	1220.637	912.008
192.315	13.659	1220.395	911.330
193.329	13.693	1219.796	910.988
194.344	13.672	1219.053	910.238
195.359	13.893	1218.151	910.693
196.373	13.765	1217.554	909.468
197.388	13.863	1217.251	909.697
198.402	13.927	1216.868	909.680
199.417	13.967	1215.909	909.102
200.432	14.028	1214.857	908.568
201.446	13.981	1214.519	907.979
202.461	14.119	1212.909	907.450
203.475	14.028	1212.222	906.359
204.490	13.968	1211.137	905.138
205.504	13.977	1209.838	904.135
206.519	14.114	1208.377	903.711
207.534	14.007	1207.202	902.170
208.548	14.071	1206.415	901.850
209.563	14.039	1205.491	900.908
210.577	14.072	1204.592	900.336
211.592	14.046	1204.238	899.849
212.607	14.179	1203.128	899.656
213.621	14.164	1202.377	898.935
214.636	14.043	1201.629	897.642
215.650	14.221	1200.435	897.633
216.665	14.214	1199.509	896.822
217.680	14.229	1198.880	896.352
218.694	14.320	1197.506	895.739
219.709	14.243	1197.473	895.220
220.723	14.156	1196.917	894.258
221.738	14.226	1196.011	893.878
222.753	14.223	1195.138	893.131
223.767	14.359	1194.330	893.174
224.782	14.356	1193.817	892.696
225.796	14.350	1193.195	892.118
226.811	14.377	1192.221	891.460
227.826	14.354	1191.481	890.705
228.840	14.329	1191.125	890.224
229.855	14.385	1189.916	889.539
230.869	14.452	1189.006	889.136
231.884	14.378	1188.194	888.057
232.899	14.352	1187.313	887.180
233.913	14.376	1186.641	886.730
234.928	14.317	1186.028	885.878
235.942	14.330	1185.552	885.514
236.957	14.351	1184.830	885.008
237.972	14.397	1183.773	884.385
238.986	14.384	1182.732	883.462
240.001	14.364	1181.978	882.715
241.015	14.425	1181.402	882.528
242.030	14.504	1180.377	882.102
243.045	14.438	1180.329	881.641
244.059	14.553	1178.854	881.065
245.074	14.455	1178.311	880.064
246.088	14.641	1176.899	879.916
247.103	14.649	1176.268	879.404
248.117	14.596	1175.740	878.656
249.132	14.589	1175.092	878.056
250.147	14.680	1173.962	877.609
251.161	14.596	1173.777	876.954
252.176	14.754	1172.849	877.013
253.190	14.851	1171.851	876.699
254.205	14.738	1171.773	875.971
255.220	14.879	1170.756	875.869
256.234	14.834	1170.610	875.449
257.249	14.850	1170.123	875.092
258.263	14.828	1169.480	874.418
259.278	14.875	1168.600	873.926
260.293	15.094	1167.701	874.323
261.307	14.862	1167.596	872.953
262.322	14.913	1166.796	872.542
263.336	14.925	1166.318	872.170
264.351	14.892	1165.235	871.114
265.366	14.989	1164.497	870.991
266.380	14.983	1164.230	870.682
267.395	14.860	1163.438	869.372
268.409	14.946	1162.708	869.200
269.424	14.945	1162.149	868.696
270.439	15.012	1161.343	868.363
271.453	15.036	1160.528	867.801
272.468	15.009	1159.619	866.908
273.482	14.941	1158.951	865.981
274.497	15.129	1158.100	866.237
275.512	15.155	1156.831	865.348
276.526	15.155	1156.515	865.033
277.541	15.155	1155.873	864.476
278.555	15.071	1155.297	863.536
279.570	15.168	1154.450	863.326
280.585	15.180	1153.793	862.820
281.599	15.239	1152.773	862.288
282.614	15.178	1151.771	861.145
283.628	15.225	1150.444	860.319
284.643	15.211	1149.692	859.610
285.657	15.189	1149.156	859.020
286.672	15.332	1147.976	858.794
287.687	15.297	1147.353	858.070
288.701	15.285	1146.401	857.224
289.716	15.340	1145.641	856.859
290.730	15.346	1145.052	856.374
291.745	15.329	1144.382	855.713
292.760	15.381	1143.516	855.251
293.774	15.373	1142.965	854.723
294.789	15.446	1142.643	854.783
295.803	15.357	1141.802	853.623
296.818	15.432	1140.517	852.965
297.833	15.435	1140.176	852.654
298.847	15.353	1139.267	851.482
299.862	15.412	1138.371	851.036
300.876	15.548	1137.431	850.947
301.891	15.554	1137.243	850.762
302.906	15.484	1136.622	849.864
303.920	15.572	1135.790	849.615
304.935	15.606	1135.078	849.177
305.949	15.600	1134.622	848.733
306.964	15.668	1133.666	848.285
307.979	15.612	1132.970	847.404
308.993	15.690	1131.893	846.917
310.008	15.627	1131.759	846.424
311.022	15.740	1130.478	845.964
312.037	15.749	1129.655	845.314
313.052	15.797	1128.375	844.524
314.066	15.765	1127.678	843.768
315.081	15.607	1127.109	842.477
316.095	15.621	1126.191	841.782
317.110	15.808	1125.667	842.251
318.125	15.722	1125.109	841.332
319.139	15.759	1124.214	840.774
320.154	15.688	1123.068	839.489
321.168	15.670	1122.998	839.270
322.183	15.759	1122.403	839.198
323.197	15.750	1121.774	838.608
324.212	15.654	1121.288	837.691
325.227	15.839	1120.386	837.864
326.241	15.824	1119.995	837.422
327.256	15.925	1118.884	837.018
328.270	15.743	1118.301	835.604
329.285	15.719	1117.377	834.723
330.300	15.719	1116.104	833.697
331.314	15.802	1115.259	833.402
332.329	15.905	1114.256	833.088
333.343	15.793	1113.828	832.144
334.358	15.829	1112.679	831.386
335.373	15.983	1111.676	831.323
336.387	15.926	1111.181	830.602
337.402	16.016	1110.311	830.318
338.416	15.865	1110.213	829.431
339.431	16.077	1109.066	829.543
340.446	16.057	1108.384	828.860
341.460	16.019	1107.971	828.289
342.475	16.129	1106.850	827.922
343.489	16.186	1105.785	827.328
344.504	16.224	1104.709	826.639
345.519	16.131	1104.018	825.590
346.533	16.086	1103.576	824.970
347.548	16.096	1102.805	824.368
348.562	16.227	1101.896	824.257
349.577	16.258	1100.792	823.509
350.592	16.209	1100.179	822.738
351.606	16.217	1099.324	822.064
352.621	16.115	1098.718	821.039
353.635	16.218	1098.172	821.061
354.650	16.226	1097.664	820.648
355.665	16.169	1096.989	819.794
356.679	16.313	1095.834	819.558
357.694	16.326	1095.724	819.466
358.708	16.246	1095.400	818.764
359.723	16.372	1094.268	818.454
360.738	16.294	1093.750	817.619
361.752	16.361	1093.047	817.345
362.767	16.410	1092.296	816.949
363.781	16.393	1091.663	816.317
364.796	16.372	1091.418	815.960
365.810	16.464	1090.928	815.967
366.825	16.528	1090.224	815.678
367.840	16.575	1089.207	815.072
368.854	16.592	1089.017	814.939
369.869	16.587	1088.232	814.254
370.883	16.552	1087.231	813.264
371.898	16.516	1086.576	812.529
372.913	16.673	1085.838	812.659
373.927	16.548	1085.614	811.820
374.942	16.615	1084.926	811.559
375.956	16.647	1084.580	811.380
376.971	16.525	1083.815	810.150
377.986	16.675	1082.984	810.178
379.000	16.795	1082.169	810.066
380.015	16.675	1082.024	809.316
381.029	16.753	1081.319	809.088
382.044	16.869	1080.580	809.016
383.059	16.785	1079.551	807.777
384.073	16.806	1078.866	807.289
385.088	16.822	1078.224	806.817
386.102	16.736	1077.292	805.637
387.117	16.798	1076.107	804.973
388.132	16.761	1075.371	804.176
389.146	16.752	1074.492	803.405
390.161	16.865	1073.756	803.320
391.175	16.818	1073.067	802.511
392.190	16.902	1072.283	802.250
393.205	16.910	1071.839	801.887
394.219	16.907	1071.152	801.286
395.234	17.040	1070.157	801.098
396.248	16.872	1069.106	799.450
397.263	16.865	1067.953	798.484
398.278	16.882	1067.541	798.185
399.292	16.898	1066.696	797.560
400.307	16.895	1066.103	797.029
401.321	16.765	1065.490	795.892
402.336	16.793	1065.086	795.650
403.350	16.918	1064.354	795.620
404.365	16.897	1063.496	794.806
405.380	16.997	1062.754	794.650
406.394	17.124	1061.803	794.464
407.409	17.078	1060.962	793.548
408.423	16.980	1060.588	792.743
409.438	17.133	1059.637	792.677
410.453	17.170	1059.111	792.385
411.467	17.169	1058.266	791.680
412.482	17.187	1057.202	790.897
413.496	17.166	1056.820	790.441
414.511	17.229	1056.006	790.058
415.526	17.279	1055.905	790.142
416.540	17.383	1055.576	790.310
417.555	17.249	1054.949	789.148
418.569	17.334	1054.115	788.851
419.584	17.252	1054.086	788.379
420.599	17.324	1053.427	788.148
421.613	106.385	1329.735	1485.337
422.628	97.970	1369.949	1485.426
