DTS Sentinel unit serial number:	SN413079Multiplexer serial number:	ORYXHardware model number:	OX4-SRSoftware version number:	ORYX F/W v4.00 Oryx Data Collector v3.7.2.0data status	okinstallation	princeton_trtdifferential loss correction	single-endedforward channel	channel 2reverse channel	N/Adate	2019/09/19time	10:27:35forward acquisition time	60.00reverse acquisition time	0.00gamma	496.2192k internal	0.2343k external	0.2343temperature offset calibration	1.0009default loss term (dB/km)	0.3790temperature slope calibration	1.0000multiplexer offset coefficient	1.0000multiplexer slope coefficient	1.0000fibre end	0.00T internal ref (°C)	24.31T ext. ref 1 (°C)	0.70T ext. ref 2 (°C)	19.80length (m)	temperature (°C)	Stokes	anti-Stokes-747.200	-22.890	0.176	-0.107
-746.185	2.040	-0.096	-0.069
-745.171	-28.208	0.034	-0.020
-744.156	800.000	0.109	0.331
-743.142	100.266	0.215	0.249
-742.127	-200.000	-0.032	0.250
-741.112	-62.216	0.123	-0.051
-740.098	-99.804	-0.299	-0.075
-739.083	-200.000	0.010	0.181
-738.069	800.000	-0.120	0.397
-737.054	275.355	0.142	0.252
-736.039	-106.318	-0.375	-0.084
-735.025	249.305	0.183	-0.311
-734.010	-105.238	-0.377	-0.086
-732.996	0.451	-0.134	-0.096
-731.981	182.025	0.138	-0.203
-730.966	-156.824	-0.223	-0.014
-729.952	-200.000	-0.001	-0.170
-728.937	800.000	0.034	-0.125
-727.923	114.466	-0.158	0.193
-726.908	800.000	-0.066	-0.208
-725.894	-75.659	0.144	0.051
-724.879	-94.983	-0.312	-0.084
-723.864	-164.638	-0.321	0.015
-722.850	16.673	0.147	-0.116
-721.835	-200.000	0.027	-0.254
-720.821	-200.000	0.012	-0.107
-719.806	-93.131	-0.147	0.041
-718.791	-200.000	0.010	-0.218
-717.777	-200.000	-0.010	0.063
-716.762	-96.897	0.205	-0.054
-715.748	176.714	0.088	0.128
-714.733	63.901	-0.050	-0.050
-713.718	-84.036	0.172	-0.055
-712.704	-162.528	-0.170	-0.008
-711.689	-200.000	0.070	0.321
-710.675	164.010	0.081	-0.114
-709.660	-76.537	-0.262	-0.092
-708.645	175.646	0.220	0.320
-707.631	-60.242	-0.151	-0.064
-706.616	-46.014	-0.101	-0.050
-705.602	-55.103	0.059	0.026
-704.587	800.000	0.063	0.238
-703.572	11.719	0.047	-0.036
-702.558	-200.000	0.057	-0.521
-701.543	-110.555	-0.185	0.038
-700.529	-200.000	0.028	-0.174
-699.514	-82.088	-0.393	-0.128
-698.499	31.633	0.194	-0.167
-697.485	-200.000	-0.026	-0.453
-696.470	800.000	0.054	-0.235
-695.456	-200.000	-0.017	0.271
-694.441	124.339	0.075	0.094
-693.426	800.000	0.157	0.437
-692.412	161.843	-0.158	0.222
-691.397	-24.923	-0.230	0.137
-690.383	189.011	-0.100	-0.150
-689.368	-200.000	-0.009	-0.110
-688.354	-86.903	0.054	0.016
-687.339	67.763	-0.330	0.337
-686.324	342.867	0.156	0.305
-685.310	-200.000	-0.047	0.306
-684.295	-141.922	0.065	-0.006
-683.281	354.696	-0.077	0.153
-682.266	199.716	0.011	0.018
-681.251	484.053	0.172	0.391
-680.237	-200.000	0.039	-0.357
-679.222	-124.653	0.244	0.038
-678.208	29.323	0.117	-0.099
-677.193	136.822	-0.108	-0.141
-676.178	165.529	-0.126	-0.178
-675.164	-52.883	0.259	-0.119
-674.149	-169.400	-0.047	-0.002
-673.135	225.346	-0.161	-0.261
-672.120	98.372	-0.108	0.124
-671.105	-200.000	-0.013	0.233
-670.091	182.843	0.227	0.334
-669.076	800.000	0.042	0.124
-668.062	79.372	0.227	0.243
-667.047	13.242	-0.197	-0.152
-666.032	73.043	0.217	-0.226
-665.018	282.901	0.062	-0.111
-664.003	-200.000	-0.002	-0.145
-662.989	276.357	-0.163	0.289
-661.974	-200.000	0.029	0.281
-660.959	-115.717	0.210	0.039
-659.945	-73.614	-0.174	-0.063
-658.930	-200.000	0.000	0.049
-657.916	-79.051	-0.310	-0.105
-656.901	-181.666	0.524	-0.010
-655.886	-54.405	0.236	0.107
-654.872	-98.290	0.339	-0.087
-653.857	-29.670	-0.205	0.117
-652.843	800.000	-0.042	-0.175
-651.828	-96.756	0.457	0.120
-650.814	-200.000	-0.014	-0.307
-649.799	196.213	-0.265	-0.403
-648.784	169.689	0.287	-0.410
-647.770	-67.113	0.102	0.040
-646.755	-135.825	0.184	0.022
-645.741	-66.143	0.062	-0.025
-644.726	161.069	0.093	-0.129
-643.711	229.766	-0.123	0.201
-642.697	494.396	0.157	0.360
-641.682	506.269	-0.063	-0.146
-640.668	724.567	0.060	0.159
-639.653	73.011	0.061	0.063
-638.638	-200.000	-0.009	-0.286
-637.624	-200.000	0.014	-0.086
-636.609	-79.705	-0.030	-0.010
-635.595	-200.000	0.003	-0.114
-634.580	-77.695	0.184	0.064
-633.565	303.646	-0.101	-0.187
-632.551	73.262	0.026	0.027
-631.536	-142.656	-0.196	-0.019
-630.522	-107.442	0.331	0.072
-629.507	-118.428	-0.141	-0.025
-628.492	800.000	-0.063	0.238
-627.478	-109.759	-0.158	-0.033
-626.463	800.000	0.017	-0.075
-625.449	10.630	-0.015	-0.011
-624.434	199.835	0.264	-0.403
-623.419	800.000	0.088	0.359
-622.405	14.286	-0.269	0.209
-621.390	-60.953	0.140	-0.059
-620.376	2.056	-0.364	0.262
-619.361	3.746	0.191	0.139
-618.346	-140.947	0.194	-0.020
-617.332	-5.738	-0.382	-0.261
-616.317	-35.853	-0.170	0.092
-615.303	-4.100	0.221	0.153
-614.288	-200.000	0.016	-0.102
-613.273	-9.407	0.292	0.194
-612.259	-145.318	-0.242	-0.022
-611.244	-200.000	-0.016	0.077
-610.230	138.515	0.077	-0.101
-609.215	16.633	-0.069	-0.054
-608.201	800.000	-0.125	-0.376
-607.186	401.058	-0.066	0.137
-606.171	-171.904	-0.091	0.003
-605.157	-139.351	0.048	0.005
-604.142	-200.000	0.015	-0.183
-603.128	-200.000	0.008	-0.272
-602.113	-119.912	0.214	-0.037
-601.098	17.398	0.032	0.025
-600.084	-40.951	-0.572	-0.295
-599.069	800.000	0.042	-0.129
-598.055	-20.560	-0.394	0.241
-597.040	-63.002	0.156	0.064
-596.025	131.119	0.145	-0.185
-595.011	692.523	-0.106	0.277
-593.996	-46.763	-0.185	0.090
-592.982	800.000	0.039	-0.118
-591.967	498.119	-0.082	-0.187
-590.952	-120.942	-0.150	-0.025
-589.938	-90.645	-0.339	0.098
-588.923	-71.385	-0.041	-0.015
-587.909	730.676	-0.029	-0.076
-586.894	179.837	0.071	-0.103
-585.879	266.031	-0.151	-0.262
-584.865	-74.711	0.424	0.152
-583.850	65.867	-0.122	0.123
-582.836	57.260	-0.073	-0.071
-581.821	-91.969	-0.136	0.038
-580.806	-18.793	0.402	0.249
-579.792	571.332	0.071	0.171
-578.777	-81.953	-0.260	0.085
-577.763	483.902	-0.094	-0.213
-576.748	1.808	-0.132	0.095
-575.733	-67.857	0.269	-0.104
-574.719	800.000	-0.125	-0.512
-573.704	720.391	-0.071	0.189
-572.690	294.581	-0.033	-0.059
-571.675	42.940	0.215	-0.195
-570.661	-125.592	-0.351	-0.053
-569.646	-94.862	-0.112	-0.030
-568.631	-61.186	0.356	0.149
-567.617	-42.600	0.342	0.173
-566.602	180.235	0.061	0.088
-565.588	800.000	0.119	0.371
-564.573	171.189	0.152	-0.217
-563.558	800.000	-0.022	-0.085
-562.544	-200.000	0.002	0.066
-561.529	157.505	0.096	-0.133
-560.515	124.729	0.083	-0.104
-559.500	-23.168	0.163	-0.097
-558.485	453.875	-0.069	0.153
-557.471	-76.647	-0.220	0.077
-556.456	449.009	-0.107	-0.235
-555.442	42.329	0.088	-0.079
-554.427	-200.000	-0.020	-0.280
-553.412	139.400	0.034	-0.044
-552.398	800.000	-0.047	-0.165
-551.383	-200.000	0.026	-0.120
-550.369	-200.000	-0.007	-0.212
-549.354	-200.000	-0.022	-0.101
-548.339	110.011	-0.125	-0.149
-547.325	-149.291	0.170	0.013
-546.310	-60.459	-0.226	0.095
-545.296	-109.838	-0.387	-0.081
-544.281	42.788	0.136	0.123
-543.266	-77.469	-0.109	0.037
-542.252	75.768	-0.109	0.115
-541.237	800.000	0.028	0.107
-540.223	800.000	-0.142	-0.588
-539.208	-48.386	0.236	-0.113
-538.193	233.944	-0.151	-0.246
-537.179	-29.976	-0.155	-0.088
-536.164	-200.000	-0.027	0.373
-535.150	301.598	0.155	0.284
-534.135	-97.015	-0.302	0.079
-533.121	-136.481	0.419	-0.048
-532.106	-200.000	-0.039	0.232
-531.091	116.836	0.224	0.273
-530.077	-14.052	-0.111	-0.071
-529.062	78.908	0.283	-0.301
-528.048	102.200	0.124	0.144
-527.033	-200.000	-0.004	0.031
-526.018	-120.020	-0.192	0.033
-525.004	-90.068	0.203	0.059
-523.989	639.206	0.072	0.182
-522.975	-17.243	0.302	-0.189
-521.960	159.103	-0.207	0.286
-520.945	142.145	-0.140	0.184
-519.931	589.604	0.057	0.139
-518.916	85.240	-0.249	-0.271
-517.902	-55.052	-0.236	-0.105
-516.887	-200.000	0.010	-0.249
-515.872	22.686	-0.206	0.167
-514.858	-200.000	-0.006	0.185
-513.843	241.794	0.094	-0.157
-512.829	194.551	0.136	-0.205
-511.814	-155.096	-0.074	0.005
-510.799	415.129	-0.024	-0.052
-509.785	-132.702	-0.069	-0.009
-508.770	440.886	-0.034	0.073
-507.756	-88.553	-0.369	0.109
-506.741	-121.721	0.199	0.033
-505.726	109.862	-0.094	0.111
-504.712	-200.000	0.017	0.090
-503.697	376.043	0.143	-0.288
-502.683	800.000	-0.034	-0.104
-501.668	485.806	-0.046	0.103
-500.653	-200.000	-0.003	0.088
-499.639	800.000	-0.111	-0.349
-498.624	800.000	0.126	-0.420
-497.610	-83.756	-0.152	-0.048
-496.595	-134.350	-0.175	-0.021
-495.581	335.740	-0.087	-0.167
-494.566	222.102	-0.193	-0.308
-493.551	-112.677	0.151	0.030
-492.537	146.119	0.190	0.252
-491.522	32.145	0.022	-0.019
-490.508	-200.000	-0.012	-0.118
-489.493	576.662	-0.069	-0.168
-488.478	-14.386	-0.079	0.051
-487.464	-200.000	-0.029	0.125
-486.449	-65.931	-0.236	0.094
-485.435	44.520	-0.142	0.129
-484.420	-28.214	0.256	0.147
-483.405	-200.000	-0.001	-0.036
-482.391	-200.000	0.079	0.359
-481.376	-71.025	-0.177	0.066
-480.362	14.333	0.295	-0.228
-479.347	424.050	-0.167	0.357
-478.332	-1.398	0.082	-0.058
-477.318	91.223	0.082	0.091
-476.303	-60.175	0.169	0.071
-475.289	-200.000	-0.016	0.123
-474.274	-106.976	0.291	-0.064
-473.259	-200.000	-0.026	-0.126
-472.245	-95.507	-0.212	0.056
-471.230	-38.796	0.158	-0.083
-470.216	623.554	0.049	-0.121
-469.201	177.916	0.142	0.205
-468.186	-83.579	0.428	0.136
-467.172	-200.000	0.003	-0.127
-466.157	100.994	0.123	-0.141
-465.143	-200.000	0.002	0.008
-464.128	3.257	-0.426	-0.307
-463.113	800.000	-0.072	-0.238
-462.099	800.000	-0.082	-0.251
-461.084	27.104	-0.105	-0.087
-460.070	261.331	-0.138	0.237
-459.055	251.236	-0.216	0.364
-458.040	-200.000	-0.022	0.203
-457.026	-200.000	-0.010	-0.097
-456.011	84.090	0.063	-0.068
-454.997	9.115	-0.108	0.081
-453.982	139.963	-0.091	0.118
-452.968	163.992	-0.013	0.018
-451.953	-200.000	0.029	-0.412
-450.938	-200.000	0.017	0.084
-449.924	-89.433	0.061	-0.018
-448.909	21.564	0.136	-0.110
-447.895	426.947	-0.116	-0.248
-446.880	126.079	-0.074	-0.092
-445.865	48.845	0.101	0.094
-444.851	-132.175	0.143	-0.018
-443.836	472.805	-0.166	-0.370
-442.822	196.152	-0.011	-0.017
-441.807	8.664	-0.245	-0.183
-440.792	68.449	0.146	0.148
-439.778	-92.512	0.181	-0.050
-438.763	-165.991	-0.100	0.004
-437.749	-70.869	-0.356	0.133
-436.734	-200.000	0.010	0.128
-435.719	-39.348	0.050	-0.026
-434.705	688.672	-0.071	-0.183
-433.690	-200.000	-0.010	-0.247
-432.676	-116.577	-0.064	0.012
-431.661	187.933	-0.065	-0.096
-430.646	-173.675	-0.108	-0.003
-429.632	-12.402	0.059	-0.038
-428.617	301.344	0.145	-0.265
-427.603	-200.000	-0.032	0.438
-426.588	495.671	0.160	-0.363
-425.573	-143.315	-0.080	-0.008
-424.559	139.558	-0.100	0.130
-423.544	-160.357	-0.298	0.016
-422.530	28.098	-0.289	-0.241
-421.515	29.639	-0.108	-0.091
-420.500	-85.377	0.087	0.027
-419.486	-56.501	0.148	0.065
-418.471	800.000	-0.042	0.146
-417.457	-200.000	0.053	0.249
-416.442	-40.865	0.158	0.081
-415.428	-200.000	-0.033	0.262
-414.413	800.000	-0.064	0.212
-413.398	28.327	0.036	-0.030
-412.384	560.133	0.022	0.053
-411.369	-149.698	-0.296	-0.023
-410.355	157.984	-0.104	-0.142
-409.340	42.367	-0.103	0.093
-408.325	800.000	-0.058	-0.191
-407.311	-37.250	-0.189	0.100
-406.296	-200.000	0.009	-0.146
-405.282	225.732	0.103	0.165
-404.267	-25.222	0.086	-0.050
-403.252	402.006	0.022	-0.046
-402.238	-131.191	0.356	0.047
-401.223	-200.000	-0.053	0.379
-400.209	241.022	0.126	-0.208
-399.194	710.743	0.102	-0.267
-398.179	-200.000	0.005	0.109
-397.165	17.905	-0.167	-0.132
-396.150	100.789	0.241	-0.277
-395.136	-69.909	0.070	0.026
-394.121	76.586	0.182	0.191
-393.106	-200.000	0.006	0.118
-392.092	-95.427	-0.062	-0.016
-391.077	105.948	-0.216	-0.253
-390.063	-105.583	-0.047	0.010
-389.048	549.362	0.081	-0.191
-388.033	593.080	0.033	-0.080
-387.019	-76.044	-0.278	0.097
-386.004	458.911	0.120	-0.263
-384.990	131.590	0.155	0.197
-383.975	-142.956	0.115	0.011
-382.960	-99.319	0.190	0.047
-381.946	-16.229	0.294	-0.184
-380.931	-200.000	-0.015	-0.068
-379.917	-11.678	-0.035	0.023
-378.902	-149.259	-0.185	-0.015
-377.888	-54.001	-0.180	-0.081
-376.873	522.168	0.021	0.049
-375.858	9.124	-0.084	-0.063
-374.844	1.465	0.214	0.152
-373.829	-23.195	-0.381	0.226
-372.815	-150.125	0.080	-0.006
-371.800	-200.000	0.002	0.086
-370.785	-32.374	-0.095	-0.052
-369.771	-101.463	-0.216	0.052
-368.756	683.367	-0.087	0.225
-367.742	-200.000	-0.003	-0.175
-366.727	-27.621	0.073	-0.042
-365.712	121.613	-0.235	-0.289
-364.698	125.091	-0.218	0.271
-363.683	-73.430	-0.033	-0.012
-362.669	-71.662	-0.159	0.058
-361.654	152.162	0.134	0.181
-360.639	-37.504	0.192	-0.101
-359.625	18.575	0.097	-0.076
-358.610	800.000	0.069	0.240
-357.596	242.961	-0.214	0.354
-356.581	-200.000	0.012	-0.214
-355.566	14.106	-0.067	0.052
-354.552	-200.000	0.002	0.247
-353.537	800.000	0.097	-0.267
-352.523	10.579	-0.121	-0.091
-351.508	-103.554	-0.036	-0.008
-350.493	-200.000	0.005	0.175
-349.479	266.652	0.235	0.405
-348.464	800.000	0.092	-0.341
-347.450	35.971	-0.073	0.063
-346.435	800.000	0.072	0.242
-345.420	-68.008	-0.048	0.018
-344.406	118.789	0.134	0.163
-343.391	-125.444	-0.172	-0.026
-342.377	-200.000	-0.057	-0.320
-341.362	-67.375	0.099	0.038
-340.348	-3.095	-0.309	-0.212
-339.333	-14.428	0.037	-0.023
-338.318	-84.136	-0.100	0.031
-337.304	160.319	-0.291	0.400
-336.289	4.724	0.036	0.026
-335.275	695.824	-0.062	-0.161
-334.260	-184.312	-0.120	-0.002
-333.245	-65.183	-0.282	-0.112
-332.231	137.615	0.066	-0.086
-331.216	54.097	0.212	-0.201
-330.202	216.415	0.160	0.250
-329.187	708.860	-0.010	-0.027
-328.172	791.896	0.013	-0.036
-327.158	-122.650	0.230	-0.037
-326.143	216.455	0.103	0.162
-325.129	-101.393	-0.153	0.037
-324.114	12.936	0.080	-0.061
-323.099	-200.000	-0.025	-0.218
-322.085	66.999	-0.062	-0.063
-321.070	10.215	-0.398	0.298
-320.056	493.442	-0.046	0.103
-319.041	-184.878	0.157	-0.002
-318.026	-134.451	-0.085	0.010
-317.012	-99.101	0.399	-0.099
-315.997	800.000	0.074	0.230
-314.983	-99.473	-0.245	-0.061
-313.968	-36.823	-0.185	0.098
-312.953	124.850	-0.117	0.145
-311.939	-200.000	0.019	0.406
-310.924	74.987	0.073	0.075
-309.910	0.504	0.364	0.256
-308.895	514.207	0.047	0.108
-307.880	173.832	0.029	-0.041
-306.866	-200.000	-0.007	0.196
-305.851	-97.109	0.252	0.065
-304.837	-97.026	0.297	-0.076
-303.822	-45.095	0.379	0.185
-302.807	485.388	0.067	-0.150
-301.793	-54.657	-0.249	0.111
-300.778	-200.000	-0.005	-0.120
-299.764	-46.649	0.327	0.158
-298.749	417.982	0.124	-0.260
-297.735	-200.000	0.022	-0.270
-296.720	800.000	0.085	0.244
-295.705	-75.135	0.087	0.031
-294.691	-87.275	0.139	-0.042
-293.676	-26.617	-0.171	0.098
-292.662	-32.498	0.315	0.173
-291.647	34.408	-0.118	0.102
-290.632	91.306	0.230	0.254
-289.618	410.147	0.103	0.215
-288.603	-164.151	-0.305	-0.014
-287.589	128.163	0.152	-0.190
-286.574	800.000	0.069	-0.226
-285.559	-17.523	0.072	-0.045
-284.545	-68.946	0.158	-0.060
-283.530	106.639	-0.030	0.036
-282.516	-200.000	0.042	-0.377
-281.501	-107.434	-0.198	0.043
-280.486	-36.786	0.177	0.093
-279.472	-127.889	-0.159	0.023
-278.457	676.337	0.127	0.324
-277.443	137.574	0.069	-0.088
-276.428	800.000	0.065	0.198
-275.413	-5.324	0.180	0.121
-274.399	340.878	0.069	0.132
-273.384	65.906	0.106	-0.106
-272.370	-104.690	0.402	0.091
-271.355	-47.348	0.138	-0.066
-270.340	106.470	0.197	-0.230
-269.326	-200.000	0.014	-0.447
-268.311	-18.053	0.187	-0.115
-267.297	-117.231	0.397	-0.071
-266.282	-121.978	0.390	0.063
-265.267	61.788	-0.122	-0.120
-264.253	-200.000	0.002	0.194
-263.238	142.727	0.187	0.245
-262.224	-200.000	0.017	-0.211
-261.209	-14.674	-0.103	0.065
-260.195	-200.000	-0.013	0.180
-259.180	-200.000	0.013	0.150
-258.165	-35.003	0.444	0.238
-257.151	-33.423	0.056	-0.031
-256.136	397.959	-0.006	0.011
-255.122	-122.691	-0.196	0.031
-254.107	22.361	-0.277	0.222
-253.092	800.000	-0.028	-0.081
-252.078	-182.700	0.104	0.002
-251.063	-31.355	0.102	-0.057
-250.049	58.349	0.120	0.116
-249.034	309.262	0.059	-0.109
-248.019	222.969	0.111	-0.176
-247.005	52.944	-0.256	-0.241
-245.990	-131.594	-0.193	0.025
-244.976	15.237	-0.298	-0.230
-243.961	286.387	0.221	0.392
-242.946	231.451	0.009	0.014
-241.932	9.158	0.263	-0.195
-240.917	65.001	-0.099	-0.098
-239.903	-78.363	0.190	0.064
-238.888	-51.942	0.149	0.068
-237.873	108.912	0.249	-0.293
-236.859	-174.676	-0.102	-0.003
-235.844	111.298	-0.116	0.137
-234.830	-44.860	0.244	-0.119
-233.815	281.309	-0.136	-0.239
-232.800	-114.784	-0.125	-0.023
-231.786	-149.636	0.116	0.009
-230.771	-200.000	0.025	0.137
-229.757	800.000	-0.113	-0.352
-228.742	-7.867	-0.208	-0.137
-227.727	-34.053	-0.038	-0.021
-226.713	109.780	0.198	-0.233
-225.698	174.909	-0.135	0.192
-224.684	-200.000	-0.003	0.117
-223.669	-200.000	0.110	0.577
-222.655	800.000	-0.089	0.261
-221.640	160.581	-0.056	-0.077
-220.625	-35.339	-0.111	0.059
-219.611	800.000	-0.080	0.221
-218.596	-168.480	-0.280	0.011
-217.582	-200.000	0.077	0.365
-216.567	355.309	0.140	0.273
-215.552	65.768	0.093	-0.092
-214.538	-20.530	-0.287	0.173
-213.523	739.017	-0.053	0.140
-212.509	64.056	-0.072	-0.071
-211.494	-32.176	0.379	0.207
-210.479	800.000	-0.102	-0.333
-209.465	-200.000	0.018	0.170
-208.450	-43.560	-0.270	0.134
-207.436	-200.000	-0.053	-0.485
-206.421	-200.000	0.004	0.175
-205.406	-178.514	-0.330	-0.007
-204.392	-155.767	-0.208	0.013
-203.377	-200.000	0.022	0.150
-202.363	-142.478	0.260	0.025
-201.348	800.000	0.072	0.266
-200.333	245.318	-0.066	-0.108
-199.319	-200.000	-0.048	0.319
-198.304	-200.000	-0.017	-0.280
-197.290	-80.112	0.212	-0.070
-196.275	-200.000	-0.001	0.129
-195.260	59.710	0.026	-0.025
-194.246	278.557	-0.073	-0.127
-193.231	-200.000	-0.034	0.393
-192.217	-48.974	0.068	-0.032
-191.202	213.103	0.262	-0.406
-190.187	800.000	0.046	0.157
-189.173	-7.835	-0.151	-0.100
-188.158	10.379	-0.247	0.184
-187.144	701.367	0.025	0.063
-186.129	-65.914	-0.070	-0.027
-185.114	114.837	-0.054	-0.064
-184.100	-168.718	-0.292	0.011
-183.085	-34.799	-0.154	0.083
-182.071	-107.447	-0.365	-0.078
-181.056	800.000	-0.047	0.133
-180.042	-200.000	0.038	-0.312
-179.027	-200.000	-0.017	-0.151
-178.012	622.869	0.083	-0.206
-176.998	-200.000	0.049	0.223
-175.983	-0.624	-0.115	0.080
-174.969	-107.750	-0.429	0.092
-173.954	61.398	0.041	-0.040
-172.939	-200.000	-0.036	-0.369
-171.925	584.390	-0.065	0.157
-170.910	-151.087	-0.347	-0.026
-169.896	63.237	0.161	-0.158
-168.881	-58.063	0.263	0.112
-167.866	-200.000	0.032	0.276
-166.852	228.633	-0.176	-0.281
-165.837	-141.907	0.281	-0.027
-164.823	-160.521	-0.191	0.010
-163.808	235.967	0.118	0.190
-162.793	323.539	0.101	0.188
-161.779	305.652	-0.064	-0.117
-160.764	-177.571	-0.196	-0.005
-159.750	-137.253	0.253	0.028
-158.735	-200.000	-0.020	-0.245
-157.720	-200.000	0.057	0.281
-156.706	-62.566	0.268	-0.109
-155.691	-200.000	0.038	0.377
-154.677	765.828	0.067	-0.178
-153.662	-78.305	0.223	0.075
-152.647	335.598	0.048	-0.091
-151.633	52.191	-0.116	0.108
-150.618	-54.632	0.093	0.041
-149.604	31.513	0.275	0.232
-148.589	188.110	0.145	0.213
-147.574	130.654	-0.056	0.070
-146.560	132.983	0.160	-0.202
-145.545	-43.851	0.079	-0.039
-144.531	82.229	0.079	-0.083
-143.516	-99.038	0.171	0.042
-142.502	800.000	-0.104	0.335
-141.487	-200.000	-0.006	0.043
-140.472	56.068	-0.196	-0.186
-139.458	38.262	0.092	-0.080
-138.443	800.000	-0.029	0.114
-137.429	-82.032	-0.269	0.086
-136.414	-200.000	-0.024	-0.163
-135.399	-200.000	-0.029	0.288
-134.385	800.000	-0.066	0.243
-133.370	383.433	-0.244	0.490
-132.356	-141.288	0.181	-0.018
-131.341	15.429	0.135	0.104
-130.326	40.369	-0.135	-0.119
-129.312	23.109	0.129	0.104
-128.297	-148.578	0.417	0.033
-127.283	72.507	-0.195	0.199
-126.268	-122.063	0.156	-0.025
-125.253	-200.000	0.010	-0.054
-124.239	-200.000	-0.020	0.088
-123.224	160.515	-0.045	-0.061
-122.210	412.618	-0.184	0.381
-121.195	101.021	-0.114	0.130
-120.180	81.261	0.133	0.141
-119.166	-80.189	-0.319	0.105
-118.151	-115.991	-0.066	-0.012
-117.137	89.636	0.095	-0.103
-116.122	187.939	0.031	-0.045
-115.107	15.216	0.068	-0.052
-114.093	-55.152	-0.087	-0.038
-113.078	34.614	-0.075	0.064
-112.064	-200.000	-0.017	0.087
-111.049	-200.000	-0.001	0.213
-110.034	-200.000	0.043	-0.230
-109.020	557.478	-0.145	0.341
-108.005	-200.000	-0.011	0.160
-106.991	800.000	0.056	0.229
-105.976	81.394	0.107	-0.113
-104.962	-89.225	0.463	0.133
-103.947	762.632	0.057	-0.150
-102.932	-47.276	0.313	-0.149
-101.918	-69.467	-0.081	-0.030
-100.903	-59.719	0.290	-0.121
-99.889	800.000	-0.066	0.259
-98.874	422.205	0.064	0.134
-97.859	-136.673	-0.344	0.039
-96.845	42.579	0.152	0.135
-95.830	396.261	-0.012	-0.025
-94.816	124.687	0.105	0.129
-93.801	-187.909	0.357	-0.005
-92.786	-200.000	0.008	-0.043
-91.772	-200.000	0.014	0.112
-90.757	-200.000	0.190	0.000
-89.743	-45.994	0.187	0.090
-88.728	-200.000	0.003	0.020
-87.713	-134.653	0.125	0.015
-86.699	-14.118	-0.309	0.195
-85.684	-200.000	-0.004	0.047
-84.670	62.476	-0.222	0.216
-83.655	24.359	0.200	0.161
-82.640	-73.994	0.176	0.062
-81.626	-200.000	0.017	-0.191
-80.611	44.110	-0.240	-0.215
-79.597	73.305	0.116	0.118
-78.582	-137.427	0.243	0.027
-77.567	377.624	-0.223	0.445
-76.553	143.365	0.199	-0.259
-75.538	800.000	0.091	-0.255
-74.524	-75.386	-0.044	-0.015
-73.509	-200.000	-0.018	-0.187
-72.494	-134.053	-0.038	-0.005
-71.480	126.392	0.096	0.118
-70.465	-72.694	-0.151	0.054
-69.451	668.511	0.122	-0.307
-68.436	59.177	-0.140	0.134
-67.422	463.554	0.165	-0.360
-66.407	-41.571	0.308	0.154
-65.392	54.538	0.093	0.088
-64.378	-80.870	-0.316	0.102
-63.363	-200.000	0.008	0.336
-62.349	516.397	-0.102	-0.231
-61.334	72.924	-1.137	-1.158
-60.319	90.117	0.787	0.857
-59.305	-200.000	-0.303	-1.576
-58.290	223.494	0.866	1.361
-57.276	800.000	0.339	1.345
-56.261	-200.000	121.867	623.698
-55.246	386.270	1575.605	3170.666
-54.232	138.903	2758.974	3533.788
-53.217	89.215	2328.120	2527.933
-52.203	33.355	1929.836	1632.589
-51.188	27.284	1721.189	1409.155
-50.173	25.117	1680.873	1359.682
-49.159	45.250	1747.662	1570.469
-48.144	43.552	1760.168	1568.484
-47.130	26.898	1711.947	1398.394
-46.115	24.409	1696.027	1366.305
-45.100	24.259	1691.000	1361.053
-44.086	24.185	1688.406	1358.347
-43.071	24.087	1685.979	1355.593
-42.057	24.136	1683.182	1353.666
-41.042	24.188	1681.447	1352.609
-40.027	24.168	1679.231	1350.624
-39.013	24.186	1678.208	1349.880
-37.998	24.135	1676.101	1347.751
-36.984	24.232	1674.962	1347.514
-35.969	24.285	1673.091	1346.356
-34.954	24.214	1672.200	1345.047
-33.940	24.192	1670.549	1343.503
-32.925	24.265	1668.652	1342.475
-31.911	24.278	1667.370	1341.483
-30.896	24.442	1664.773	1340.575
-29.881	24.376	1663.481	1338.987
-28.867	24.302	1662.007	1337.191
-27.852	24.338	1660.570	1336.248
-26.838	24.325	1658.986	1334.826
-25.823	24.351	1657.459	1333.735
-24.809	24.323	1656.333	1332.573
-23.794	24.374	1654.815	1331.679
-22.779	24.378	1653.696	1330.757
-21.765	24.371	1651.978	1329.265
-20.750	24.331	1650.395	1327.643
-19.736	24.333	1649.173	1326.623
-18.721	24.405	1647.582	1325.824
-17.706	24.349	1646.068	1324.141
-16.692	24.353	1644.297	1322.691
-15.677	24.317	1642.999	1321.327
-14.663	24.323	1642.157	1320.644
-13.648	24.397	1640.277	1319.625
-12.633	24.418	1638.338	1318.169
-11.619	24.333	1637.295	1316.649
-10.604	24.379	1635.353	1315.371
-9.590	24.286	1634.478	1313.935
-8.575	24.366	1633.196	1313.437
-7.560	24.328	1631.824	1312.006
-6.546	24.294	1630.945	1310.995
-5.531	24.268	1629.665	1309.720
-4.517	24.344	1628.451	1309.252
-3.502	24.285	1627.205	1307.767
-2.487	24.393	1625.505	1307.142
-1.473	24.185	1613.450	1295.884
-0.458	21.635	1594.315	1262.109
0.556	16.942	1596.332	1230.488
1.571	14.706	1620.642	1232.625
2.586	14.187	1632.828	1237.921
3.600	13.084	1577.888	1188.233
4.615	7.508	1469.014	1068.696
5.629	1.839	1409.090	988.326
6.644	0.772	1401.849	976.271
7.659	0.711	1400.734	975.017
8.673	0.714	1399.410	974.025
9.688	0.623	1398.004	972.374
10.702	0.475	1394.495	968.901
11.717	3.272	1398.238	989.406
12.731	9.965	1408.290	1039.626
13.746	15.395	1416.008	1080.281
14.761	17.087	1418.509	1092.995
15.775	16.718	1415.703	1088.366
16.790	15.556	1413.468	1079.092
17.804	14.905	1411.369	1073.216
18.819	14.483	1410.179	1069.511
19.834	14.223	1408.461	1066.445
20.848	14.058	1406.646	1063.924
21.863	13.817	1405.713	1061.579
22.877	13.670	1404.346	1059.515
23.892	13.511	1403.401	1057.692
24.907	13.555	1403.052	1057.616
25.921	13.554	1401.978	1056.710
26.936	13.573	1400.817	1055.861
27.950	13.617	1400.231	1055.603
28.965	13.679	1399.101	1055.053
29.980	13.705	1398.282	1054.511
30.994	13.753	1397.189	1053.897
32.009	13.729	1396.191	1052.898
33.023	13.769	1394.926	1052.101
34.038	13.755	1393.498	1050.848
35.053	13.695	1392.793	1049.838
36.067	13.643	1391.355	1048.335
37.082	13.762	1390.464	1048.323
38.096	13.671	1389.916	1047.242
39.111	13.670	1388.994	1046.451
40.126	13.683	1387.984	1045.676
41.140	13.573	1386.953	1044.113
42.155	13.529	1386.819	1043.642
43.169	13.536	1386.710	1043.514
44.184	13.577	1386.270	1043.350
45.199	13.659	1385.606	1043.274
46.213	13.628	1385.364	1042.800
47.228	13.654	1384.392	1042.142
48.242	13.645	1382.774	1040.778
49.257	13.674	1381.314	1039.763
50.271	13.577	1379.973	1038.057
51.286	13.715	1378.687	1037.860
52.301	13.610	1377.201	1035.998
53.315	13.602	1376.324	1035.192
54.330	13.479	1375.618	1033.801
55.344	13.618	1373.895	1033.283
56.359	13.541	1372.792	1031.885
57.374	13.628	1371.637	1031.463
58.388	13.507	1371.665	1030.642
59.403	13.530	1370.849	1030.080
60.417	13.520	1369.885	1029.202
61.432	13.466	1369.122	1028.205
62.447	13.540	1367.694	1027.499
63.461	13.494	1366.400	1026.150
64.476	13.487	1365.706	1025.497
65.490	13.560	1363.817	1024.439
66.505	13.453	1362.705	1022.853
67.520	13.526	1361.067	1021.981
68.534	13.548	1360.003	1021.225
69.549	13.507	1359.200	1020.282
70.563	13.477	1358.165	1019.226
71.578	13.419	1357.098	1017.985
72.593	13.454	1355.896	1017.206
73.607	13.412	1355.275	1016.392
74.622	13.457	1354.266	1015.820
75.636	13.428	1353.656	1015.095
76.651	13.513	1352.484	1014.649
77.666	13.376	1352.525	1013.750
78.680	13.510	1351.867	1013.987
79.695	13.426	1350.749	1012.546
80.709	13.494	1349.760	1012.127
81.724	13.524	1348.973	1011.634
82.739	13.521	1348.459	1011.142
83.753	13.534	1348.155	1010.902
84.768	13.630	1346.607	1010.237
85.782	13.757	1344.325	1009.208
86.797	13.609	1343.627	1007.693
87.812	13.595	1342.532	1006.697
88.826	13.606	1341.183	1005.664
89.841	13.625	1339.868	1004.705
90.855	13.622	1338.997	1003.948
91.870	13.676	1338.344	1003.695
92.884	13.660	1337.284	1002.714
93.899	13.686	1336.473	1002.172
94.914	13.785	1335.758	1002.145
95.928	13.743	1334.785	1001.076
96.943	13.727	1333.459	999.898
97.957	13.659	1333.035	999.078
98.972	13.667	1332.010	998.270
99.987	13.756	1330.651	997.701
101.001	13.657	1329.731	996.324
102.016	13.738	1328.598	995.876
103.030	13.693	1327.993	995.065
104.045	13.732	1327.035	994.491
105.060	13.605	1326.066	992.919
106.074	13.642	1324.569	991.930
107.089	13.435	1323.171	989.557
108.103	13.654	1321.446	989.488
109.118	13.598	1320.273	988.187
110.133	13.625	1319.096	987.377
111.147	13.524	1318.176	986.002
112.162	13.554	1316.616	984.926
113.176	13.520	1315.921	984.118
114.191	13.570	1314.340	983.147
115.206	13.628	1313.267	982.602
116.220	13.674	1312.083	981.897
117.235	13.570	1311.428	980.704
118.249	13.603	1309.942	979.702
119.264	13.666	1308.797	979.132
120.279	13.601	1307.799	977.918
121.293	13.562	1307.082	977.065
122.308	13.586	1306.002	976.307
123.322	13.548	1304.765	975.076
124.337	13.519	1303.824	974.115
125.352	13.528	1302.531	973.113
126.366	13.555	1301.123	972.135
127.381	13.528	1300.192	971.197
128.395	13.550	1299.147	970.460
129.410	13.610	1297.791	969.714
130.424	13.635	1297.138	969.283
131.439	13.582	1296.626	968.506
132.454	13.681	1295.181	967.916
133.468	13.571	1295.050	967.092
134.483	13.677	1293.489	966.458
135.497	13.615	1292.509	965.282
136.512	13.643	1290.878	964.138
137.527	13.520	1289.729	962.485
138.541	13.494	1288.586	961.395
139.556	13.665	1287.114	961.203
140.570	13.685	1285.811	960.257
141.585	13.679	1284.777	959.366
142.600	13.693	1283.709	958.568
143.614	13.745	1282.499	957.876
144.629	13.702	1281.655	956.912
145.643	13.699	1280.675	956.082
146.658	13.784	1279.111	955.320
147.673	13.822	1277.693	954.394
148.687	13.761	1276.443	953.025
149.702	13.582	1275.703	951.359
150.716	13.665	1274.098	950.553
151.731	13.751	1272.996	950.140
152.746	13.718	1271.751	948.942
153.760	13.842	1270.112	948.338
154.775	13.886	1269.041	947.711
155.789	13.815	1268.284	946.653
156.804	13.907	1267.035	946.163
157.819	13.869	1266.219	945.250
158.833	14.005	1265.425	945.351
159.848	13.935	1264.212	943.965
160.862	13.942	1263.061	943.062
161.877	13.853	1261.758	941.501
162.892	13.900	1260.499	940.742
163.906	13.937	1259.860	940.394
164.921	13.944	1258.715	939.492
165.935	13.953	1257.882	938.838
166.950	13.798	1257.781	937.803
167.964	13.945	1256.649	937.708
168.979	13.966	1256.006	937.263
169.994	13.927	1255.472	936.560
171.008	13.905	1254.657	935.749
172.023	13.986	1253.211	935.044
173.037	14.127	1252.367	935.120
174.052	14.093	1251.601	934.277
175.067	13.960	1250.555	932.665
176.081	13.983	1249.514	931.939
177.096	14.044	1248.446	931.397
178.110	14.049	1247.778	930.849
179.125	14.012	1246.724	929.771
180.140	14.073	1244.868	928.644
181.154	14.088	1243.961	927.970
182.169	14.098	1242.803	927.083
183.183	14.168	1241.439	926.368
184.198	14.201	1240.000	925.397
185.213	14.135	1239.109	924.283
186.227	14.169	1238.038	923.594
187.242	14.290	1237.132	923.507
188.256	14.192	1236.473	922.388
189.271	14.269	1235.386	921.926
190.286	14.133	1234.625	920.520
191.300	14.078	1233.509	919.302
192.315	14.091	1233.067	918.966
193.329	14.045	1232.524	918.224
194.344	14.067	1231.675	917.630
195.359	14.234	1231.242	918.151
196.373	14.227	1230.425	917.421
197.388	14.232	1230.491	917.419
198.402	14.321	1229.617	917.174
199.417	14.363	1228.630	916.588
200.432	14.331	1227.839	915.741
201.446	14.463	1227.162	915.882
202.461	14.382	1226.308	914.718
203.475	14.440	1225.163	914.100
204.490	14.526	1223.590	913.314
205.504	14.368	1222.472	911.534
206.519	14.524	1221.330	911.455
207.534	14.457	1219.957	909.988
208.548	14.430	1219.371	909.321
209.563	14.406	1218.413	908.395
210.577	14.462	1217.644	908.047
211.592	14.419	1217.007	907.260
212.607	14.472	1216.070	906.770
213.621	14.542	1215.132	906.369
214.636	14.493	1214.236	905.352
215.650	14.553	1213.221	904.839
216.665	14.669	1211.929	904.426
217.680	14.606	1211.119	903.398
218.694	14.703	1210.087	903.074
219.709	14.622	1209.654	902.234
220.723	14.652	1208.869	901.730
221.738	14.720	1207.989	901.364
222.753	14.627	1207.480	900.402
223.767	14.763	1206.550	900.364
224.782	14.722	1205.912	899.584
225.796	14.801	1205.186	899.391
226.811	14.681	1204.900	898.452
227.826	14.759	1203.773	897.950
228.840	14.786	1202.978	897.420
229.855	14.740	1202.302	896.593
230.869	14.722	1201.822	896.055
231.884	14.774	1200.433	895.221
232.899	14.790	1199.783	894.743
233.913	14.768	1199.235	894.137
234.928	14.748	1198.312	893.265
235.942	14.661	1198.125	892.581
236.957	14.793	1196.732	892.167
237.972	14.817	1195.627	891.393
238.986	14.716	1195.736	890.856
240.001	14.718	1194.537	889.894
241.015	14.842	1193.463	889.678
242.030	14.820	1192.745	888.944
243.045	14.907	1192.039	888.803
244.059	14.952	1191.222	888.355
245.074	14.844	1190.407	887.092
246.088	14.955	1189.515	886.939
247.103	14.936	1188.719	886.169
248.117	14.911	1188.212	885.578
249.132	15.034	1187.180	885.382
250.147	15.146	1186.505	885.390
251.161	15.135	1185.930	884.826
252.176	15.112	1185.355	884.195
253.190	15.284	1184.233	884.187
254.205	15.153	1184.374	883.527
255.220	15.283	1183.076	883.162
256.234	15.258	1182.806	882.754
257.249	15.196	1182.134	881.846
258.263	15.147	1181.257	880.859
259.278	15.272	1180.531	880.894
260.293	15.326	1179.790	880.547
261.307	15.419	1179.479	880.724
262.322	15.412	1178.549	879.917
263.336	15.372	1177.864	879.115
264.351	15.427	1177.237	878.862
265.366	15.373	1176.814	878.184
266.380	15.357	1175.978	877.398
267.395	15.359	1175.258	876.791
268.409	15.469	1174.474	876.708
269.424	15.360	1173.735	875.507
270.439	15.512	1173.176	875.807
271.453	15.323	1172.598	874.309
272.468	15.323	1171.816	873.649
273.482	15.433	1170.805	873.394
274.497	15.426	1170.418	872.989
275.512	15.465	1169.461	872.403
276.526	15.443	1168.894	871.786
277.541	15.347	1168.114	870.629
278.555	15.522	1166.804	870.485
279.570	15.489	1166.193	869.777
280.585	15.551	1165.761	869.704
281.599	15.563	1164.409	868.678
282.614	15.590	1164.034	868.459
283.628	15.642	1162.425	867.451
284.643	15.626	1161.535	866.627
285.657	15.639	1160.784	866.057
286.672	15.680	1159.658	865.353
287.687	15.653	1158.817	864.509
288.701	15.645	1158.510	864.163
289.716	15.715	1157.363	863.592
290.730	15.729	1156.832	863.189
291.745	15.767	1155.982	862.674
292.760	15.766	1155.484	862.223
293.774	15.721	1155.311	861.788
294.789	15.775	1154.512	861.392
295.803	15.834	1153.459	860.830
296.818	15.739	1152.912	859.860
297.833	15.934	1151.834	859.977
298.847	15.912	1151.157	859.281
299.862	15.929	1150.337	858.680
300.876	15.883	1149.322	857.613
301.891	15.864	1149.377	857.481
302.906	15.971	1147.980	856.910
303.920	15.953	1147.287	856.223
304.935	16.027	1146.917	856.248
305.949	15.953	1146.527	855.501
306.964	16.036	1145.331	854.957
307.979	16.098	1144.836	854.827
308.993	16.002	1144.075	853.697
310.008	16.063	1143.077	853.185
311.022	15.999	1142.681	852.489
312.037	16.158	1141.289	852.177
313.052	16.151	1140.442	851.435
314.066	16.050	1139.999	850.518
315.081	16.056	1139.319	849.965
316.095	16.079	1138.485	849.388
317.110	16.059	1137.666	848.599
318.125	15.984	1136.912	847.582
319.139	16.075	1136.071	847.339
320.154	16.103	1135.155	846.723
321.168	16.146	1134.491	846.369
322.183	16.098	1134.151	845.799
323.197	16.176	1133.220	845.421
324.212	16.187	1133.011	845.244
325.227	16.225	1132.193	844.748
326.241	16.338	1131.214	844.508
327.256	16.199	1130.819	843.443
328.270	16.096	1130.261	842.442
329.285	16.231	1129.081	842.159
330.300	16.162	1128.126	841.027
331.314	16.162	1126.850	840.003
332.329	16.360	1125.539	839.938
333.343	16.207	1125.174	838.831
334.358	16.377	1124.211	838.882
335.373	16.339	1123.526	838.109
336.387	16.369	1122.731	837.590
337.402	16.282	1122.508	836.917
338.416	16.233	1121.613	835.935
339.431	16.408	1120.788	836.110
340.446	16.335	1120.363	835.360
341.460	16.335	1119.673	834.769
342.475	16.601	1118.300	834.987
343.489	16.487	1117.749	833.940
344.504	16.579	1116.925	833.704
345.519	16.581	1115.804	832.804
346.533	16.559	1115.265	832.217
347.548	16.633	1114.507	831.942
348.562	16.693	1113.446	831.372
349.577	16.651	1112.702	830.536
350.592	16.616	1111.982	829.754
351.606	16.521	1111.555	828.895
352.621	16.587	1110.667	828.483
353.635	16.562	1110.455	828.127
354.650	16.619	1109.484	827.609
355.665	16.580	1108.533	826.639
356.679	16.562	1108.295	826.300
357.694	16.703	1107.298	826.171
358.708	16.720	1106.844	825.841
359.723	16.695	1106.237	825.195
360.738	16.811	1105.245	824.944
361.752	16.847	1104.624	824.587
362.767	16.835	1104.007	823.990
363.781	16.759	1103.686	823.313
364.796	16.821	1102.961	822.998
365.810	16.856	1102.691	822.895
366.825	16.914	1101.983	822.576
367.840	16.937	1101.458	822.222
368.854	17.054	1100.419	821.940
369.869	17.016	1099.459	820.964
370.883	17.008	1098.811	820.369
371.898	16.887	1098.250	819.293
372.913	16.898	1097.865	818.988
373.927	16.998	1097.224	818.918
374.942	16.987	1096.807	818.482
375.956	16.969	1096.238	817.897
376.971	17.088	1095.485	817.836
377.986	16.915	1094.752	816.388
379.000	17.108	1094.182	816.819
380.015	17.062	1093.649	816.127
381.029	17.180	1092.949	816.096
382.044	17.169	1092.365	815.537
383.059	17.281	1091.425	815.299
384.073	17.276	1090.337	814.390
385.088	17.218	1089.570	813.469
386.102	17.310	1088.883	813.321
387.117	17.401	1087.609	812.735
388.132	17.243	1086.609	811.160
389.146	17.182	1086.402	810.643
390.161	17.277	1085.723	810.518
391.175	17.180	1084.896	809.368
392.190	17.257	1084.218	809.157
393.205	17.284	1083.723	808.845
394.219	17.365	1082.681	808.383
395.234	17.345	1081.661	807.452
396.248	17.323	1080.532	806.434
397.263	17.374	1079.688	805.975
398.278	17.254	1079.257	805.012
399.292	17.305	1078.293	804.466
400.307	17.329	1077.727	804.085
401.321	17.295	1076.939	803.265
402.336	17.360	1076.484	803.159
403.350	17.421	1075.475	802.624
404.365	17.311	1074.820	801.546
405.380	17.423	1073.899	801.315
406.394	17.439	1073.439	800.976
407.409	17.431	1072.713	800.329
408.423	17.500	1071.642	799.780
409.438	17.551	1071.129	799.567
410.453	17.504	1070.668	798.932
411.467	17.517	1069.775	798.254
412.482	17.614	1069.095	798.133
413.496	17.592	1068.583	797.574
414.511	17.616	1067.933	797.132
415.526	17.608	1067.800	796.925
416.540	17.706	1066.683	796.481
417.555	17.658	1066.195	795.818
418.569	17.634	1066.189	795.634
419.584	17.757	1065.205	795.400
420.599	17.779	1064.308	794.764
421.613	107.708	1330.793	1486.452
422.628	99.543	1369.539	1486.549
