DTS Sentinel unit serial number:	SN413079Multiplexer serial number:	ORYXHardware model number:	OX4-SRSoftware version number:	ORYX F/W v4.00 Oryx Data Collector v3.7.2.0data status	okinstallation	princeton_trtdifferential loss correction	single-endedforward channel	channel 2reverse channel	N/Adate	2019/09/11time	06:37:11forward acquisition time	60.00reverse acquisition time	0.00gamma	496.2192k internal	0.2328k external	0.2328temperature offset calibration	0.9939default loss term (dB/km)	0.3790temperature slope calibration	1.0000multiplexer offset coefficient	1.0000multiplexer slope coefficient	1.0000fibre end	0.00T internal ref (°C)	29.69T ext. ref 1 (°C)	-0.15T ext. ref 2 (°C)	24.41length (m)	temperature (°C)	Stokes	anti-Stokes-747.200	-98.597	-0.117	0.030
-746.185	-130.599	0.156	-0.021
-745.171	43.043	-0.203	-0.186
-744.156	-200.000	0.002	0.184
-743.142	-41.860	0.072	-0.037
-742.127	-118.581	-0.548	0.098
-741.112	366.424	0.031	0.062
-740.098	-127.697	-0.168	0.024
-739.083	74.179	-0.081	-0.086
-738.069	155.668	0.108	-0.149
-737.054	-1.773	-0.066	-0.047
-736.039	31.902	0.109	-0.095
-735.025	-200.000	0.022	0.123
-734.010	17.860	-0.221	-0.177
-732.996	532.895	-0.184	-0.440
-731.981	86.057	0.183	0.202
-730.966	473.895	0.054	-0.124
-729.952	-45.935	-0.060	0.030
-728.937	-200.000	-0.003	-0.262
-727.923	152.245	-0.105	0.144
-726.908	336.583	0.148	0.289
-725.894	800.000	0.075	-0.260
-724.879	11.745	-0.157	-0.121
-723.864	-200.000	0.008	-0.178
-722.850	800.000	-0.068	-0.199
-721.835	-19.357	-0.373	0.233
-720.821	800.000	-0.095	-0.356
-719.806	-200.000	0.004	0.206
-718.791	14.424	-0.188	0.148
-717.777	11.647	0.084	0.065
-716.762	22.825	-0.276	-0.227
-715.748	-106.546	-0.216	-0.048
-714.733	-43.305	0.243	-0.124
-713.718	471.650	0.035	-0.079
-712.704	390.118	-0.081	0.169
-711.689	-200.000	0.013	-0.157
-710.675	-200.000	0.008	0.204
-709.660	281.657	0.198	-0.356
-708.645	-120.607	0.226	0.039
-707.631	-148.776	-0.329	-0.027
-706.616	-148.922	0.248	-0.020
-705.602	-200.000	0.004	-0.070
-704.587	-200.000	0.033	0.210
-703.572	-200.000	-0.014	-0.275
-702.558	-40.103	0.162	-0.085
-701.543	-43.096	0.232	0.118
-700.529	-200.000	0.033	-0.248
-699.514	436.371	-0.054	0.119
-698.499	-103.125	-0.528	-0.126
-697.485	800.000	-0.119	0.358
-696.470	-58.465	0.315	-0.137
-695.456	-136.974	0.122	-0.014
-694.441	-148.558	-0.544	0.045
-693.426	-200.000	0.025	0.171
-692.412	800.000	0.061	0.205
-691.397	800.000	0.093	-0.348
-690.383	-200.000	-0.042	-0.229
-689.368	-26.763	-0.366	-0.215
-688.354	-35.623	0.207	-0.113
-687.339	206.702	-0.112	-0.176
-686.324	800.000	-0.126	-0.437
-685.310	391.293	-0.090	-0.188
-684.295	-154.329	-0.250	0.017
-683.281	54.919	-0.015	-0.014
-682.266	-200.000	0.032	-0.182
-681.251	102.431	-0.146	-0.172
-680.237	-15.387	0.275	-0.177
-679.222	-78.980	0.031	-0.011
-678.208	67.480	-0.179	-0.184
-677.193	-68.857	0.365	-0.142
-676.178	261.469	-0.130	-0.226
-675.164	-111.982	-0.157	0.032
-674.149	800.000	0.055	-0.160
-673.135	-67.170	0.228	0.090
-672.120	-66.030	0.058	-0.023
-671.105	133.979	0.059	-0.077
-670.091	113.984	0.230	-0.281
-669.076	-25.087	0.054	0.032
-668.062	-163.962	-0.330	0.015
-667.047	355.150	0.123	0.246
-666.032	-200.000	0.082	-0.391
-665.018	800.000	0.067	0.204
-664.003	-80.036	0.334	-0.113
-662.989	212.927	0.229	-0.363
-661.974	480.985	0.043	-0.099
-660.959	-200.000	-0.044	-0.342
-659.945	-5.603	0.095	-0.065
-658.930	56.970	-0.152	0.149
-657.916	-9.907	0.314	-0.210
-656.901	535.772	0.113	0.268
-655.886	703.942	-0.120	0.318
-654.872	40.472	-0.085	-0.077
-653.857	196.979	0.104	-0.159
-652.843	26.993	-0.208	0.175
-651.828	-104.427	-0.340	0.079
-650.814	217.480	0.099	-0.159
-649.799	-108.224	-0.184	0.040
-648.784	-200.000	0.010	-0.125
-647.770	-29.582	-0.164	0.094
-646.755	-12.631	0.045	-0.030
-645.741	464.326	0.182	-0.409
-644.726	247.194	-0.167	0.284
-643.711	-69.063	0.309	0.120
-642.697	-48.201	0.138	0.067
-641.682	16.914	-0.096	-0.076
-640.668	314.230	-0.080	-0.151
-639.653	5.884	-0.213	-0.158
-638.638	-122.545	-0.190	0.031
-637.624	-2.713	-0.151	0.106
-636.609	110.410	-0.135	-0.163
-635.595	-7.090	-0.181	0.124
-634.580	89.520	0.154	-0.172
-633.565	361.266	-0.179	-0.360
-632.551	-200.000	0.069	-0.312
-631.536	-108.606	0.242	-0.052
-630.522	54.132	-0.211	0.204
-629.507	-116.642	-0.433	0.080
-628.492	800.000	0.005	-0.014
-627.478	-76.679	0.310	-0.109
-626.463	-88.721	-0.242	-0.072
-625.449	-200.000	0.036	-0.332
-624.434	201.606	-0.061	-0.095
-623.419	518.399	0.083	0.194
-622.405	238.602	-0.139	0.232
-621.390	800.000	0.028	0.087
-620.376	355.021	-0.091	0.181
-619.361	-126.568	0.212	-0.032
-618.346	-177.058	-0.013	0.000
-617.332	590.173	-0.128	-0.316
-616.317	-73.092	0.262	-0.096
-615.303	-83.459	0.249	0.080
-614.288	-200.000	0.007	0.221
-613.273	-111.722	-0.162	0.033
-612.259	-52.765	0.062	-0.029
-611.244	-200.000	0.021	0.128
-610.230	18.449	-0.315	-0.252
-609.215	-52.940	-0.206	-0.095
-608.201	-149.222	-0.213	-0.017
-607.186	35.702	-0.081	0.071
-606.171	44.900	-0.119	-0.110
-605.157	-115.533	-0.168	0.032
-604.142	-30.062	-0.276	0.157
-603.128	800.000	-0.100	-0.341
-602.113	-30.819	-0.281	-0.159
-601.098	167.843	0.097	0.138
-600.084	527.896	-0.089	0.211
-599.069	21.093	0.279	-0.227
-598.055	698.145	0.025	-0.065
-597.040	221.856	0.037	0.059
-596.025	707.029	0.020	0.054
-595.011	-200.000	0.021	0.375
-593.996	-200.000	-0.029	0.180
-592.982	-200.000	0.092	0.429
-591.967	-200.000	-0.007	0.167
-590.952	-121.554	-0.235	-0.039
-589.938	9.019	-0.133	-0.101
-588.923	30.442	0.187	0.160
-587.909	-1.529	0.330	-0.233
-586.894	15.147	-0.184	-0.144
-585.879	-47.301	0.204	0.099
-584.865	-67.550	-0.249	-0.098
-583.850	86.477	-0.066	-0.072
-582.836	38.428	0.238	-0.213
-581.821	-200.000	0.026	-0.157
-580.806	-115.266	0.393	0.074
-579.792	86.042	0.332	-0.366
-578.777	64.345	-0.084	0.085
-577.763	-200.000	0.016	0.108
-576.748	172.446	0.106	0.152
-575.733	800.000	0.056	-0.224
-574.719	165.664	-0.128	0.182
-573.704	800.000	-0.035	0.101
-572.690	146.544	0.068	0.091
-571.675	800.000	0.032	-0.098
-570.661	341.865	0.178	-0.349
-569.646	218.272	-0.032	0.051
-568.631	-200.000	-0.036	0.171
-567.617	-200.000	0.009	0.167
-566.602	426.354	-0.139	0.300
-565.588	-26.829	-0.121	-0.071
-564.573	24.427	-0.264	-0.219
-563.558	-58.319	-0.245	0.106
-562.544	287.718	-0.116	-0.210
-561.529	-77.849	0.058	0.020
-560.515	-200.000	-0.007	0.313
-559.500	-63.612	-0.391	0.160
-558.485	-102.441	0.097	0.023
-557.471	46.638	0.107	-0.099
-556.456	-63.463	-0.426	0.175
-555.442	-200.000	0.029	-0.266
-554.427	-200.000	-0.066	0.401
-553.412	-10.710	0.166	0.110
-552.398	-13.364	0.174	-0.113
-551.383	800.000	0.084	-0.235
-550.369	110.712	-0.104	0.125
-549.354	259.588	0.210	-0.362
-548.339	51.250	-0.044	0.042
-547.325	-16.469	-0.290	-0.184
-546.310	162.871	-0.122	-0.171
-545.296	-0.524	0.128	0.091
-544.281	-53.976	-0.213	0.097
-543.266	-130.815	0.282	0.038
-542.252	27.751	-0.141	-0.119
-541.237	-143.193	-0.312	0.030
-540.223	33.811	-0.099	0.086
-539.208	800.000	0.033	0.138
-538.193	264.214	-0.127	0.221
-537.179	202.302	-0.181	-0.279
-536.164	56.164	-0.163	0.158
-535.150	-54.878	-0.147	-0.066
-534.135	-70.495	-0.219	0.083
-533.121	-103.223	0.706	-0.167
-532.106	-114.978	0.078	-0.015
-531.091	226.773	-0.167	-0.272
-530.077	24.967	-0.213	-0.177
-529.062	-70.948	0.161	0.061
-528.048	120.642	0.108	-0.134
-527.033	-95.512	0.194	-0.052
-526.018	-2.724	-0.175	-0.123
-525.004	136.959	-0.077	-0.101
-523.989	230.846	0.138	0.226
-522.975	-46.783	0.197	-0.096
-521.960	426.791	0.092	-0.198
-520.945	-132.473	-0.217	0.028
-519.931	-49.365	-0.191	0.091
-518.916	-142.765	0.162	0.016
-517.902	-153.243	-0.159	-0.011
-516.887	-200.000	0.010	-0.209
-515.872	-146.438	0.075	0.007
-514.858	-200.000	-0.008	-0.047
-513.843	-106.533	0.180	-0.040
-512.829	800.000	0.023	0.071
-511.814	-115.695	-0.273	-0.051
-510.799	407.624	0.228	0.482
-509.785	-1.431	-0.165	-0.116
-508.770	725.191	0.071	0.190
-507.756	-90.193	0.162	0.047
-506.741	-200.000	0.048	-0.291
-505.726	-163.349	0.354	-0.017
-504.712	-32.777	-0.330	-0.183
-503.697	-20.279	-0.159	-0.098
-502.683	55.009	0.068	-0.065
-501.668	18.281	-0.017	0.014
-500.653	266.058	0.020	0.035
-499.639	-96.357	0.195	0.052
-498.624	-126.152	-0.277	-0.041
-497.610	800.000	0.126	0.378
-496.595	62.420	-0.222	-0.221
-495.581	141.641	-0.080	-0.106
-494.566	-15.207	0.199	-0.127
-493.551	800.000	-0.069	0.258
-492.537	11.743	0.136	0.104
-491.522	-98.286	-0.286	-0.073
-490.508	262.508	-0.213	0.369
-489.493	206.348	0.032	-0.049
-488.478	272.958	0.030	-0.053
-487.464	484.532	0.101	0.230
-486.449	-118.515	0.609	0.108
-485.435	39.539	0.081	-0.072
-484.420	182.013	0.151	0.221
-483.405	-98.391	-0.164	-0.042
-482.391	152.137	-0.078	0.106
-481.376	-76.336	-0.282	0.099
-480.362	29.157	0.086	-0.073
-479.347	-200.000	-0.054	-0.322
-478.332	-200.000	0.041	0.263
-477.318	32.889	-0.052	0.045
-476.303	-16.994	0.288	0.181
-475.289	-200.000	-0.018	-0.129
-474.274	32.417	0.147	0.126
-473.259	-200.000	0.012	0.064
-472.245	-200.000	0.015	0.266
-471.230	-200.000	0.036	0.404
-470.216	158.094	-0.047	-0.065
-469.201	-200.000	0.006	-0.109
-468.186	-200.000	0.001	-0.049
-467.172	800.000	-0.101	0.293
-466.157	-65.085	-0.352	-0.142
-465.143	-200.000	0.001	0.041
-464.128	-81.140	0.279	-0.092
-463.113	-142.844	0.190	-0.018
-462.099	128.461	-0.114	0.145
-461.084	113.217	0.057	0.069
-460.070	-133.637	-0.122	0.015
-459.055	800.000	-0.007	0.022
-458.040	523.880	-0.057	0.134
-457.026	73.644	0.281	-0.293
-456.011	278.333	-0.051	0.091
-454.997	-200.000	0.001	0.092
-453.982	-65.105	0.244	0.098
-452.968	-76.744	-0.128	-0.045
-451.953	800.000	0.048	0.159
-450.938	-53.432	0.157	-0.072
-449.924	-18.789	0.219	-0.136
-448.909	120.533	-0.160	-0.198
-447.895	800.000	-0.039	-0.128
-446.880	162.895	0.226	-0.316
-445.865	170.485	-0.014	-0.019
-444.851	-132.883	0.287	-0.036
-443.836	85.600	0.080	0.088
-442.822	-200.000	-0.003	0.129
-441.807	800.000	0.063	-0.183
-440.792	800.000	-0.030	-0.120
-439.778	115.960	0.078	-0.095
-438.763	-200.000	0.185	0.000
-437.749	89.663	-0.250	0.278
-436.734	561.373	-0.143	-0.344
-435.719	-95.875	0.180	0.048
-434.705	-84.645	-0.116	0.036
-433.690	67.850	-0.174	-0.177
-432.676	126.952	-0.025	-0.032
-431.661	305.185	0.138	0.256
-430.646	433.277	-0.167	-0.362
-429.632	340.601	-0.080	-0.156
-428.617	-175.310	0.337	0.009
-427.603	-43.119	-0.237	-0.119
-426.588	235.065	0.228	-0.375
-425.573	30.778	-0.214	0.183
-424.559	-133.302	0.193	0.024
-423.544	229.080	0.157	-0.255
-422.530	153.525	0.191	-0.260
-421.515	27.595	-0.182	0.152
-420.500	-200.000	0.061	-0.294
-419.486	408.244	-0.093	-0.195
-418.471	101.055	0.197	0.228
-417.457	-141.773	-0.241	0.024
-416.442	12.036	-0.188	-0.144
-415.428	-136.788	-0.101	-0.012
-414.413	-74.551	-0.051	0.018
-413.398	-123.219	-0.113	0.018
-412.384	800.000	-0.110	0.336
-411.369	-166.267	-0.120	-0.005
-410.355	-200.000	0.017	0.082
-409.340	-108.481	-0.128	0.027
-408.325	8.861	0.099	0.074
-407.311	-200.000	0.037	0.175
-406.296	-71.103	-0.311	0.116
-405.282	800.000	-0.115	-0.394
-404.267	-6.525	-0.160	-0.108
-403.252	40.909	0.083	-0.074
-402.238	-200.000	0.002	0.324
-401.223	-73.099	0.138	-0.050
-400.209	11.821	0.156	-0.119
-399.194	800.000	0.119	0.326
-398.179	-200.000	-0.017	0.314
-397.165	310.624	-0.013	0.025
-396.150	-200.000	0.139	-0.664
-395.136	-116.185	-0.192	0.035
-394.121	-73.889	0.087	0.031
-393.106	107.660	-0.155	0.183
-392.092	48.031	-0.195	0.181
-391.077	-114.011	0.427	0.082
-390.063	3.613	0.119	-0.086
-389.048	-41.054	-0.299	-0.154
-388.033	-77.920	0.268	0.092
-387.019	800.000	0.051	0.149
-386.004	417.219	0.020	0.043
-384.990	23.297	-0.205	0.167
-383.975	-58.128	-0.007	-0.003
-382.960	98.044	0.087	0.099
-381.946	749.887	-0.067	-0.179
-380.931	-182.714	-0.182	0.003
-379.917	553.487	0.087	0.207
-378.902	-106.101	-0.407	-0.091
-377.888	-11.676	0.154	0.100
-376.873	-46.922	-0.122	-0.059
-375.858	800.000	-0.065	-0.188
-374.844	11.508	-0.172	-0.131
-373.829	-99.739	-0.291	0.073
-372.815	-47.338	0.152	0.073
-371.800	-10.567	-0.187	0.123
-370.785	-76.886	0.200	0.069
-369.771	106.600	0.078	0.092
-368.756	175.116	0.236	0.340
-367.742	216.090	-0.260	0.410
-366.727	-35.253	-0.077	-0.042
-365.712	492.492	0.049	0.112
-364.698	-200.000	0.013	0.180
-363.683	-94.483	0.095	-0.026
-362.669	-106.637	0.120	0.026
-361.654	-67.328	0.134	-0.052
-360.639	-43.236	-0.147	-0.074
-359.625	-200.000	0.024	-0.121
-358.610	800.000	0.058	0.167
-357.596	800.000	0.127	0.349
-356.581	246.924	-0.028	-0.047
-355.566	21.557	-0.220	-0.178
-354.552	456.129	-0.069	0.153
-353.537	595.679	-0.035	0.085
-352.523	-7.612	0.259	0.174
-351.508	-172.232	-0.289	0.009
-350.493	-200.000	0.039	-0.391
-349.479	95.421	-0.144	0.163
-348.464	-110.658	-0.131	-0.027
-347.450	540.432	-0.108	-0.256
-346.435	800.000	-0.102	-0.281
-345.420	75.188	-0.235	0.245
-344.406	800.000	-0.087	0.352
-343.391	92.825	-0.252	-0.283
-342.377	-200.000	-0.000	-0.018
-341.362	-5.109	0.385	0.263
-340.348	-80.211	-0.165	0.055
-339.333	503.298	0.082	0.188
-338.318	41.921	0.293	0.264
-337.304	111.220	-0.104	-0.124
-336.289	760.829	-0.163	-0.438
-335.275	36.620	0.294	0.258
-334.260	140.132	-0.149	0.195
-333.245	18.867	0.406	-0.322
-332.231	-111.563	0.243	0.049
-331.216	86.464	0.086	-0.094
-330.202	-73.596	-0.327	0.118
-329.187	-149.282	0.427	-0.034
-328.172	52.177	-0.148	0.140
-327.158	32.832	-0.172	-0.148
-326.143	-3.230	-0.197	-0.136
-325.129	-47.183	0.259	0.125
-324.114	-200.000	-0.031	-0.207
-323.099	-200.000	-0.006	-0.167
-322.085	-70.559	0.146	-0.055
-321.070	-72.503	0.271	0.099
-320.056	583.142	-0.130	-0.317
-319.041	-77.274	-0.423	0.146
-318.026	-86.602	-0.047	0.014
-317.012	293.582	-0.116	0.210
-315.997	86.384	0.202	0.221
-314.983	395.011	-0.138	-0.284
-313.968	476.827	-0.098	-0.220
-312.953	392.326	-0.093	-0.191
-311.939	-200.000	0.060	-0.317
-310.924	-124.498	-0.138	0.021
-309.910	772.567	0.051	-0.139
-308.895	750.312	-0.174	0.466
-307.880	800.000	-0.067	0.234
-306.866	-114.820	-0.123	-0.023
-305.851	43.638	-0.168	-0.152
-304.837	128.993	-0.054	0.068
-303.822	-59.176	0.162	-0.069
-302.807	-112.047	-0.142	-0.028
-301.793	-59.040	0.136	0.058
-300.778	278.924	-0.068	0.121
-299.764	65.473	-0.133	-0.133
-298.749	713.461	0.046	0.120
-297.735	-36.448	-0.204	0.109
-296.720	-200.000	-0.075	-0.397
-295.705	37.795	0.101	-0.089
-294.691	-200.000	-0.058	-0.323
-293.676	733.648	0.116	0.306
-292.662	800.000	0.088	-0.313
-291.647	-123.928	-0.036	-0.006
-290.632	531.888	0.048	0.111
-289.618	-48.105	0.285	-0.136
-288.603	-155.539	0.216	0.014
-287.589	800.000	0.051	0.202
-286.574	-24.991	0.099	0.058
-285.559	61.478	0.061	-0.060
-284.545	-43.739	-0.244	-0.122
-283.530	32.798	0.203	-0.174
-282.516	16.460	-0.056	-0.044
-281.501	-200.000	-0.037	0.302
-280.486	-7.592	-0.108	0.072
-279.472	-112.009	0.274	0.055
-278.457	-119.917	-0.110	-0.019
-277.443	97.926	-0.053	-0.060
-276.428	135.155	0.169	-0.218
-275.413	-84.040	-0.199	0.063
-274.399	-200.000	0.028	-0.197
-273.384	69.269	-0.154	0.156
-272.370	566.156	0.020	0.049
-271.355	-66.810	-0.034	0.013
-270.340	260.611	0.077	0.132
-269.326	107.682	0.110	0.130
-268.311	-54.858	0.300	-0.134
-267.297	800.000	0.054	-0.223
-266.282	116.419	0.240	0.291
-265.267	48.559	-0.171	0.159
-264.253	34.911	0.034	0.029
-263.238	-120.410	0.047	-0.008
-262.224	298.565	0.151	-0.275
-261.209	55.788	-0.293	-0.281
-260.195	401.884	0.105	-0.217
-259.180	60.269	0.131	-0.128
-258.165	-200.000	-0.020	-0.148
-257.151	-80.644	-0.108	0.035
-256.136	138.560	0.045	0.059
-255.122	-200.000	0.119	0.000
-254.107	-88.600	0.154	0.045
-253.092	-54.790	-0.331	0.148
-252.078	-26.542	-0.230	-0.133
-251.063	-31.198	0.272	0.151
-250.049	-34.724	0.281	-0.152
-249.034	-3.321	-0.389	0.268
-248.019	-71.758	-0.244	0.090
-247.005	-200.000	-0.011	-0.118
-245.990	9.186	0.064	-0.048
-244.976	77.707	-0.235	0.247
-243.961	-124.800	-0.212	0.032
-242.946	-63.645	0.232	-0.094
-241.932	-200.000	-0.044	0.426
-240.917	30.072	0.079	-0.066
-239.903	-123.406	0.283	-0.045
-238.888	514.812	-0.128	0.294
-237.873	800.000	0.059	-0.223
-236.859	66.429	0.171	-0.172
-235.844	-24.822	0.268	0.157
-234.830	-57.291	0.091	-0.040
-233.815	-1.581	-0.070	-0.049
-232.800	-134.189	0.133	-0.016
-231.786	800.000	-0.091	0.307
-230.771	-200.000	-0.010	0.189
-229.757	40.648	-0.183	0.163
-228.742	-22.406	-0.247	-0.148
-227.727	-200.000	0.029	-0.345
-226.713	193.445	0.206	-0.308
-225.698	47.658	0.061	0.057
-224.684	-49.829	0.207	-0.097
-223.669	286.386	-0.146	-0.261
-222.655	-200.000	0.032	0.243
-221.640	66.299	0.219	-0.220
-220.625	11.593	0.065	0.050
-219.611	-200.000	0.053	0.464
-218.596	-114.635	-0.314	0.059
-217.582	78.135	-0.074	-0.078
-216.567	800.000	-0.072	0.256
-215.552	208.848	0.114	-0.175
-214.538	-200.000	0.028	-0.287
-213.523	785.476	0.067	-0.182
-212.509	8.914	0.228	0.170
-211.494	77.467	0.152	0.159
-210.479	147.236	-0.075	0.099
-209.465	-47.930	0.286	0.137
-208.450	92.222	-0.161	0.179
-207.436	103.220	-0.067	0.077
-206.421	-70.635	-0.169	0.063
-205.406	800.000	-0.028	0.079
-204.392	-67.244	-0.315	-0.122
-203.377	-56.087	-0.148	0.065
-202.363	31.101	-0.088	0.075
-201.348	-200.000	0.031	0.227
-200.333	-94.929	0.367	0.098
-199.319	-116.042	-0.200	0.037
-198.304	11.342	-0.410	-0.310
-197.290	-132.202	0.192	-0.025
-196.275	-40.900	0.264	-0.135
-195.260	-105.870	0.184	0.041
-194.246	553.800	0.143	-0.340
-193.231	123.564	-0.065	-0.081
-192.217	-85.677	0.390	0.120
-191.202	-200.000	-0.054	-0.250
-190.187	-64.027	-0.162	0.065
-189.173	-63.468	-0.295	0.120
-188.158	-140.731	0.161	-0.016
-187.144	30.317	-0.287	-0.242
-186.129	-101.230	0.057	-0.014
-185.114	-87.137	-0.081	-0.024
-184.100	800.000	0.044	-0.184
-183.085	-85.555	0.278	-0.085
-182.071	-200.000	0.289	0.000
-181.056	171.126	-0.099	-0.140
-180.042	102.071	-0.091	-0.105
-179.027	630.228	0.085	0.213
-178.012	800.000	0.085	0.282
-176.998	38.039	0.061	-0.054
-175.983	-86.248	0.040	0.012
-174.969	-47.483	0.200	0.096
-173.954	48.808	0.191	0.176
-172.939	30.446	0.250	0.210
-171.925	-117.694	-0.190	-0.034
-170.910	106.096	0.106	-0.124
-169.896	275.111	0.137	-0.240
-168.881	800.000	0.035	-0.109
-167.866	-83.197	0.582	-0.184
-166.852	2.291	0.058	0.041
-165.837	-170.811	0.512	-0.017
-164.823	75.803	0.134	-0.139
-163.808	-96.501	-0.457	0.119
-162.793	67.321	0.126	-0.127
-161.779	-200.000	0.040	-0.230
-160.764	800.000	-0.135	0.392
-159.750	-200.000	0.037	0.297
-158.735	-26.245	-0.229	-0.133
-157.720	-96.851	0.277	0.072
-156.706	-51.577	0.161	-0.074
-155.691	800.000	0.054	-0.183
-154.677	-82.337	-0.247	0.079
-153.662	86.988	0.084	0.092
-152.647	584.011	0.160	0.387
-151.633	307.886	0.062	0.114
-150.618	152.331	-0.051	0.069
-149.604	77.445	0.395	-0.413
-148.589	26.938	0.047	-0.039
-147.574	-172.077	-0.041	-0.001
-146.560	21.504	-0.245	-0.196
-145.545	69.953	-0.023	0.023
-144.531	-69.317	0.337	-0.128
-143.516	-187.023	-0.337	-0.005
-142.502	-12.261	0.196	-0.126
-141.487	10.224	-0.416	0.312
-140.472	-72.648	0.229	0.083
-139.458	395.515	0.069	0.141
-138.443	37.244	0.335	-0.292
-137.429	202.105	-0.152	-0.230
-136.414	-51.176	-0.151	0.070
-135.399	-17.139	-0.012	0.007
-134.385	553.809	-0.092	-0.217
-133.370	110.110	-0.194	-0.229
-132.356	800.000	0.035	-0.142
-131.341	66.913	0.048	-0.048
-130.326	-63.530	0.239	0.097
-129.312	-200.000	-0.012	-0.053
-128.297	-200.000	0.030	-0.000
-127.283	784.461	-0.063	0.169
-126.268	-115.532	-0.461	-0.085
-125.253	-0.625	-0.070	-0.049
-124.239	72.163	-0.102	-0.105
-123.224	57.921	0.124	0.119
-122.210	800.000	0.088	-0.337
-121.195	-58.694	0.287	-0.122
-120.180	80.737	-0.267	-0.283
-119.166	-200.000	0.018	0.487
-118.151	146.185	0.081	0.107
-117.137	-200.000	0.068	-0.441
-116.122	132.671	0.217	-0.276
-115.107	-55.444	0.563	0.248
-114.093	-161.277	0.163	0.008
-113.078	-49.759	-0.127	-0.059
-112.064	125.417	0.207	-0.257
-111.049	-57.745	0.214	-0.092
-110.034	571.022	-0.129	-0.309
-109.020	313.963	-0.081	0.151
-108.005	800.000	-0.031	0.095
-106.991	155.046	0.182	-0.247
-105.976	-200.000	0.003	-0.130
-104.962	-200.000	0.005	-0.270
-103.947	-146.414	-0.285	-0.024
-102.932	-124.997	-0.146	-0.022
-101.918	253.349	-0.101	0.169
-100.903	-73.807	-0.094	0.034
-99.889	-22.562	0.166	0.099
-98.874	-200.000	-0.153	-0.001
-97.859	134.300	0.133	-0.169
-96.845	301.332	0.067	0.121
-95.830	-200.000	0.005	-0.336
-94.816	-64.286	0.065	0.026
-93.801	-119.889	0.052	-0.009
-92.786	55.109	-0.224	0.213
-91.772	-158.585	-0.167	-0.009
-90.757	112.621	-0.195	-0.232
-89.743	-46.608	0.302	0.146
-88.728	-20.395	-0.302	0.182
-87.713	-159.440	-0.157	0.009
-86.699	552.371	-0.008	0.018
-85.684	-185.034	-0.126	0.002
-84.670	-150.018	0.207	-0.016
-83.655	-43.924	0.055	0.027
-82.640	-5.165	-0.204	-0.138
-81.626	-1.430	-0.285	0.197
-80.611	189.357	-0.096	0.142
-79.597	-200.000	-0.024	-0.111
-78.582	51.865	-0.289	0.270
-77.567	-14.240	0.369	0.233
-76.553	-97.531	0.396	0.101
-75.538	800.000	-0.021	-0.084
-74.524	-200.000	-0.031	0.191
-73.509	-106.770	-0.253	0.055
-72.494	464.959	0.128	0.280
-71.480	-200.000	0.023	-0.127
-70.465	6.063	-0.369	-0.268
-69.451	-82.953	-0.149	-0.047
-68.436	27.621	-0.061	0.050
-67.422	346.131	0.085	0.164
-66.407	-185.100	0.095	-0.001
-65.392	-65.461	-0.204	0.080
-64.378	-200.000	-0.011	0.154
-63.363	490.662	0.021	-0.047
-62.349	-5.495	-0.163	-0.110
-61.334	180.156	-0.941	-1.354
-60.319	-23.240	0.660	0.389
-59.305	800.000	-0.206	-0.771
-58.290	273.568	0.564	0.977
-57.276	507.580	0.653	1.486
-56.261	-200.000	104.837	607.529
-55.246	501.196	1497.742	3391.631
-54.232	175.544	2704.018	3845.697
-53.217	105.413	2302.693	2668.131
-52.203	38.811	1906.291	1669.574
-51.188	32.790	1692.093	1436.249
-50.173	30.393	1648.458	1381.350
-49.159	48.785	1702.008	1565.775
-48.144	49.479	1717.469	1585.181
-47.130	32.480	1674.897	1419.089
-46.115	29.710	1660.534	1386.126
-45.100	29.632	1655.402	1381.203
-44.086	29.686	1652.328	1378.991
-43.071	29.712	1649.388	1376.672
-42.057	29.554	1648.238	1374.485
-41.042	29.572	1646.132	1372.806
-40.027	29.500	1644.535	1370.887
-39.013	29.537	1642.330	1369.265
-37.998	29.574	1640.632	1368.075
-36.984	29.630	1639.062	1367.119
-35.969	29.718	1637.759	1366.630
-34.954	29.685	1636.141	1364.984
-33.940	29.741	1633.741	1363.342
-32.925	29.639	1632.808	1361.757
-31.911	29.685	1630.390	1360.026
-30.896	29.618	1629.159	1358.453
-29.881	29.606	1627.557	1356.974
-28.867	29.744	1625.317	1356.061
-27.852	29.651	1624.213	1354.406
-26.838	29.620	1622.881	1353.015
-25.823	29.761	1621.398	1352.755
-24.809	29.657	1620.452	1351.155
-23.794	29.650	1619.168	1349.974
-22.779	29.633	1617.799	1348.659
-21.765	29.641	1616.039	1347.196
-20.750	29.685	1614.325	1346.031
-19.736	29.675	1613.124	1344.906
-18.721	29.791	1611.073	1343.987
-17.706	29.720	1609.842	1342.394
-16.692	29.697	1608.018	1340.648
-15.677	29.728	1606.745	1339.758
-14.663	29.729	1605.689	1338.831
-13.648	29.773	1603.914	1337.615
-12.633	29.716	1602.780	1336.207
-11.619	29.777	1601.179	1335.259
-10.604	29.741	1599.611	1333.642
-9.590	29.734	1598.266	1332.416
-8.575	29.706	1597.483	1331.510
-7.560	29.751	1596.519	1330.976
-6.546	29.827	1594.730	1329.978
-5.531	29.771	1594.135	1329.025
-4.517	29.789	1592.607	1327.829
-3.502	29.785	1591.598	1326.905
-2.487	29.817	1589.856	1325.629
-1.473	29.587	1578.385	1314.376
-0.458	26.906	1559.479	1279.703
0.556	21.314	1562.247	1251.814
1.571	19.367	1587.281	1257.571
2.586	18.995	1601.204	1265.754
3.600	17.077	1548.308	1210.172
4.615	9.084	1437.639	1070.465
5.629	1.427	1373.318	973.560
6.644	-0.072	1365.177	958.149
7.659	-0.164	1364.007	956.657
8.673	-0.194	1362.904	955.608
9.688	-0.171	1360.813	954.205
10.702	-0.325	1358.091	951.230
11.717	3.244	1365.202	978.852
12.731	12.713	1382.784	1052.113
13.746	20.000	1395.387	1108.420
14.761	22.042	1397.840	1123.343
15.775	22.375	1397.796	1125.338
16.790	22.397	1397.395	1125.055
17.804	22.590	1396.485	1125.456
18.819	22.685	1396.641	1126.091
19.834	22.743	1396.196	1126.003
20.848	22.786	1395.223	1125.391
21.863	22.799	1394.344	1124.668
22.877	22.828	1393.562	1124.124
23.892	22.845	1392.595	1123.351
24.907	22.812	1391.861	1122.447
25.921	22.810	1390.869	1121.537
26.936	22.861	1389.434	1120.606
27.950	22.868	1388.551	1119.840
28.965	22.811	1387.517	1118.541
29.980	22.845	1386.279	1117.662
30.994	22.775	1385.623	1116.590
32.009	22.865	1384.326	1116.016
33.023	22.899	1383.206	1115.226
34.038	22.826	1382.188	1113.850
35.053	22.822	1381.308	1113.017
36.067	22.839	1380.127	1112.071
37.082	22.890	1378.889	1111.300
38.096	22.925	1378.159	1110.830
39.111	22.751	1378.048	1109.548
40.126	22.761	1377.025	1108.692
41.140	22.861	1376.311	1108.645
42.155	22.828	1375.548	1107.727
43.169	22.929	1375.676	1108.364
44.184	22.827	1375.491	1107.473
45.199	22.821	1375.030	1106.968
46.213	22.792	1374.729	1106.449
47.228	22.770	1373.627	1105.326
48.242	22.849	1372.341	1104.690
49.257	22.963	1370.787	1104.048
50.271	22.926	1369.465	1102.659
51.286	22.865	1368.160	1101.129
52.301	22.877	1366.674	1099.909
53.315	22.769	1366.442	1098.956
54.330	22.785	1365.352	1098.079
55.344	22.848	1364.237	1097.474
56.359	22.772	1363.440	1096.268
57.374	22.867	1362.279	1095.824
58.388	22.848	1361.768	1095.197
59.403	22.812	1361.484	1094.654
60.417	22.875	1360.301	1093.996
61.432	22.800	1359.642	1092.904
62.447	22.817	1359.181	1092.540
63.461	22.861	1357.695	1091.519
64.476	22.936	1356.859	1091.217
65.490	22.884	1355.486	1089.692
66.505	22.861	1354.245	1088.458
67.520	22.847	1353.100	1087.356
68.534	22.932	1351.759	1086.704
69.549	22.978	1350.637	1085.986
70.563	22.977	1349.530	1084.999
71.578	22.925	1349.078	1084.215
72.593	22.895	1348.675	1083.612
73.607	22.886	1347.905	1082.847
74.622	22.996	1346.401	1082.215
75.636	22.878	1345.648	1080.792
76.651	23.011	1344.698	1080.743
77.666	22.926	1344.419	1079.903
78.680	22.808	1344.113	1078.846
79.695	22.812	1343.565	1078.334
80.709	22.864	1342.875	1078.002
81.724	22.952	1341.580	1077.402
82.739	22.878	1340.770	1076.206
83.753	22.887	1339.979	1075.531
84.768	22.895	1339.079	1074.763
85.782	22.966	1337.708	1074.001
86.797	22.913	1336.052	1072.255
87.812	22.900	1335.484	1071.623
88.826	22.910	1334.537	1070.828
89.841	22.943	1333.625	1070.201
90.855	22.874	1332.662	1068.916
91.870	22.966	1331.664	1068.578
92.884	22.858	1330.946	1067.255
93.899	23.032	1329.775	1067.269
94.914	22.907	1329.212	1065.968
95.928	22.968	1328.251	1065.476
96.943	23.020	1328.143	1065.608
97.957	22.946	1327.352	1064.428
98.972	23.004	1326.181	1063.747
99.987	22.926	1325.190	1062.390
101.001	22.830	1324.577	1061.228
102.016	22.836	1323.344	1060.180
103.030	22.889	1322.485	1059.715
104.045	22.957	1321.634	1059.347
105.060	23.097	1319.883	1058.691
106.074	22.921	1319.744	1057.429
107.089	22.974	1318.750	1056.859
108.103	23.053	1316.890	1055.748
109.118	22.949	1316.584	1054.785
110.133	23.073	1315.039	1054.196
111.147	23.044	1313.970	1053.070
112.162	22.969	1312.764	1051.564
113.176	23.070	1311.608	1051.147
114.191	22.934	1311.142	1049.873
115.206	22.982	1309.898	1049.067
116.220	22.993	1308.537	1047.952
117.235	22.986	1307.804	1047.232
118.249	22.889	1307.328	1046.184
119.264	22.980	1305.981	1045.551
120.279	22.985	1304.991	1044.693
121.293	22.972	1304.367	1044.027
122.308	23.081	1303.737	1044.073
123.322	23.089	1302.129	1042.740
124.337	23.061	1302.069	1042.434
125.352	23.121	1300.501	1041.437
126.366	23.018	1299.939	1040.291
127.381	23.028	1298.877	1039.407
128.395	23.015	1298.342	1038.811
129.410	23.126	1296.979	1038.281
130.424	23.088	1296.125	1037.280
131.439	23.085	1295.747	1036.870
132.454	23.073	1294.914	1036.039
133.468	23.068	1294.200	1035.352
134.483	23.071	1293.571	1034.773
135.497	23.028	1292.887	1033.884
136.512	22.997	1292.019	1032.912
137.527	23.030	1290.442	1031.755
138.541	23.077	1289.119	1030.880
139.556	23.001	1288.269	1029.669
140.570	23.109	1286.966	1029.162
141.585	23.053	1286.310	1028.223
142.600	23.046	1284.902	1026.963
143.614	22.998	1284.499	1026.272
144.629	23.102	1282.983	1025.572
145.643	22.917	1282.370	1023.921
146.658	22.967	1280.961	1022.994
147.673	23.025	1279.938	1022.422
148.687	22.951	1279.058	1021.201
149.702	22.969	1277.921	1020.310
150.716	22.968	1276.680	1019.222
151.731	23.085	1275.717	1019.033
152.746	23.039	1274.796	1017.943
153.760	23.039	1273.961	1017.189
154.775	23.098	1273.066	1016.720
155.789	23.108	1271.862	1015.730
156.804	23.053	1270.942	1014.588
157.819	23.056	1270.074	1013.824
158.833	23.027	1269.650	1013.227
159.848	23.154	1268.373	1012.849
160.862	23.123	1268.065	1012.333
161.877	23.155	1267.138	1011.689
162.892	23.243	1266.025	1011.212
163.906	23.198	1264.975	1010.027
164.921	23.191	1264.660	1009.648
165.935	23.046	1264.118	1008.299
166.950	23.037	1263.689	1007.813
167.964	23.179	1262.551	1007.625
168.979	23.192	1261.982	1007.157
169.994	23.212	1261.609	1006.884
171.008	23.086	1261.222	1005.767
172.023	23.193	1260.076	1005.371
173.037	23.246	1259.332	1004.994
174.052	23.297	1258.653	1004.649
175.067	23.279	1257.406	1003.465
176.081	23.176	1256.998	1002.467
177.096	23.135	1256.019	1001.365
178.110	23.253	1254.874	1001.033
179.125	23.209	1254.263	1000.204
180.140	23.160	1253.471	999.207
181.154	23.275	1251.813	998.448
182.169	23.242	1250.669	997.262
183.183	23.160	1250.120	996.275
184.198	23.287	1249.081	996.075
185.213	23.209	1247.945	994.639
186.227	23.297	1247.073	994.350
187.242	23.208	1246.387	993.218
188.256	23.274	1245.823	993.052
189.271	23.211	1244.584	991.620
190.286	23.267	1243.981	991.366
191.300	23.282	1243.195	990.736
192.315	23.193	1242.872	989.892
193.329	23.263	1242.538	989.930
194.344	23.173	1242.231	989.096
195.359	23.285	1241.684	989.197
196.373	23.172	1241.154	988.057
197.388	23.169	1240.472	987.408
198.402	23.140	1240.341	987.056
199.417	23.296	1239.392	987.083
200.432	23.253	1238.850	986.327
201.446	23.226	1238.664	985.938
202.461	23.221	1237.717	985.071
203.475	23.299	1236.832	984.716
204.490	23.249	1235.804	983.528
205.504	23.309	1234.580	982.803
206.519	23.285	1233.779	981.946
207.534	23.325	1232.853	981.340
208.548	23.357	1232.138	980.864
209.563	23.362	1231.416	980.228
210.577	23.338	1230.388	979.194
211.592	23.389	1229.366	978.575
212.607	23.291	1229.000	977.654
213.621	23.360	1228.062	977.202
214.636	23.379	1227.106	976.457
215.650	23.426	1226.320	976.005
216.665	23.400	1225.114	974.816
217.680	23.391	1224.406	974.121
218.694	23.399	1223.721	973.533
219.709	23.386	1223.009	972.805
220.723	23.396	1222.559	972.419
221.738	23.299	1221.881	971.260
222.753	23.335	1220.788	970.501
223.767	23.438	1220.242	970.548
224.782	23.481	1219.924	970.441
225.796	23.394	1219.502	969.548
226.811	23.420	1218.873	969.103
227.826	23.461	1218.253	968.746
228.840	23.373	1217.639	967.694
229.855	23.579	1216.718	968.000
230.869	23.493	1216.096	966.948
231.884	23.387	1215.863	966.102
232.899	23.405	1214.866	965.320
233.913	23.529	1214.189	965.372
234.928	23.528	1213.798	964.970
235.942	23.546	1212.890	964.264
236.957	23.602	1212.324	964.031
237.972	23.604	1211.130	963.008
238.986	23.645	1210.928	962.987
240.001	23.568	1210.486	962.132
241.015	23.674	1209.384	961.741
242.030	23.759	1208.348	961.294
243.045	23.708	1207.851	960.535
244.059	23.635	1207.114	959.470
245.074	23.704	1206.279	959.093
246.088	23.712	1205.422	958.375
247.103	23.708	1204.787	957.759
248.117	23.687	1204.099	957.016
249.132	23.603	1203.388	955.912
250.147	23.755	1202.430	955.888
251.161	23.771	1201.709	955.314
252.176	23.692	1201.175	954.380
253.190	23.776	1200.410	954.142
254.205	23.713	1199.902	953.313
255.220	23.776	1199.006	952.858
256.234	23.693	1198.975	952.304
257.249	23.682	1198.181	951.529
258.263	23.883	1197.123	951.677
259.278	23.739	1197.176	950.864
260.293	23.795	1196.549	950.583
261.307	23.834	1195.850	950.155
262.322	23.842	1195.103	949.519
263.336	23.726	1194.942	948.689
264.351	23.710	1194.207	947.935
265.366	23.829	1193.274	947.743
266.380	23.830	1192.555	947.095
267.395	23.668	1192.139	945.820
268.409	23.863	1191.381	946.171
269.424	23.805	1190.955	945.441
270.439	23.826	1190.201	944.870
271.453	23.682	1190.051	943.901
272.468	23.670	1188.890	942.831
273.482	23.698	1188.475	942.567
274.497	23.915	1187.469	942.835
275.512	23.920	1186.964	942.381
276.526	23.966	1186.168	941.909
277.541	23.896	1185.435	940.872
278.555	23.917	1184.792	940.388
279.570	23.869	1184.253	939.623
280.585	23.853	1183.732	939.045
281.599	24.006	1182.428	938.736
282.614	23.910	1182.022	937.822
283.628	23.856	1181.081	936.708
284.643	24.082	1179.530	936.583
285.657	23.967	1179.167	935.608
286.672	23.985	1178.189	934.843
287.687	24.037	1177.307	934.335
288.701	24.036	1176.841	933.879
289.716	24.095	1176.039	933.466
290.730	24.053	1175.532	932.764
291.745	23.943	1175.106	931.766
292.760	24.061	1174.685	931.969
293.774	24.042	1174.128	931.342
294.789	24.071	1173.460	930.882
295.803	24.085	1172.797	930.349
296.818	24.093	1172.167	929.806
297.833	24.079	1171.295	928.958
298.847	24.156	1170.670	928.785
299.862	24.145	1169.823	927.973
300.876	24.078	1169.110	926.974
301.891	24.163	1168.853	927.132
302.906	24.053	1168.030	925.823
303.920	24.067	1167.841	925.665
304.935	24.237	1166.741	925.595
305.949	24.187	1166.382	924.972
306.964	24.168	1165.541	924.124
307.979	24.220	1165.011	923.891
308.993	24.294	1164.300	923.627
310.008	24.329	1163.251	922.895
311.022	24.295	1162.713	922.211
312.037	24.138	1162.312	921.001
313.052	24.218	1161.154	920.413
314.066	24.223	1160.481	919.824
315.081	24.248	1159.808	919.337
316.095	24.139	1159.229	918.236
317.110	24.221	1158.712	918.166
318.125	24.288	1157.601	917.553
319.139	24.297	1156.802	916.883
320.154	24.367	1156.299	916.764
321.168	24.252	1156.057	915.900
322.183	24.442	1154.921	915.894
323.197	24.357	1154.791	915.271
324.212	24.348	1153.968	914.491
325.227	24.369	1153.507	914.156
326.241	24.395	1152.862	913.693
327.256	24.438	1152.655	913.670
328.270	24.294	1152.008	912.338
329.285	24.359	1150.859	911.682
330.300	24.402	1149.741	910.936
331.314	24.463	1148.724	910.358
332.329	24.491	1148.083	909.913
333.343	24.486	1147.299	909.187
334.358	24.512	1146.971	908.980
335.373	24.482	1146.143	908.091
336.387	24.553	1145.459	907.825
337.402	24.485	1144.949	906.995
338.416	24.592	1144.057	906.753
339.431	24.493	1143.831	905.992
340.446	24.516	1143.028	905.391
341.460	24.532	1142.407	904.904
342.475	24.567	1141.208	904.051
343.489	24.525	1140.461	903.167
344.504	24.692	1139.415	903.100
345.519	24.611	1139.095	902.360
346.533	24.663	1138.263	901.882
347.548	24.692	1137.443	901.296
348.562	24.681	1136.591	900.486
349.577	24.580	1136.211	899.600
350.592	24.593	1134.943	898.581
351.606	24.564	1134.881	898.307
352.621	24.624	1134.296	898.065
353.635	24.687	1133.677	897.814
354.650	24.599	1133.060	896.800
355.665	24.690	1132.272	896.554
356.679	24.820	1131.279	896.339
357.694	24.709	1131.136	895.591
358.708	24.631	1130.482	894.603
359.723	24.698	1129.617	894.176
360.738	24.766	1128.934	893.898
361.752	24.815	1128.424	893.659
362.767	24.742	1128.325	893.136
363.781	24.741	1127.416	892.333
364.796	24.875	1126.627	892.298
365.810	24.778	1126.191	891.390
366.825	24.885	1125.498	891.296
367.840	24.887	1125.263	891.041
368.854	24.838	1124.388	890.026
369.869	24.948	1123.375	889.693
370.883	24.787	1122.944	888.473
371.898	24.881	1122.328	888.369
372.913	24.980	1121.534	888.157
373.927	24.844	1121.554	887.417
374.942	24.949	1120.714	887.193
375.956	25.039	1120.195	887.153
376.971	24.920	1119.634	886.040
377.986	25.003	1119.006	885.875
379.000	25.001	1118.523	885.403
380.015	25.028	1118.285	885.272
381.029	24.991	1117.750	884.586
382.044	24.983	1116.974	883.853
383.059	25.073	1116.228	883.630
384.073	24.936	1115.859	882.584
385.088	25.037	1114.662	882.057
386.102	25.055	1113.893	881.459
387.117	25.045	1112.940	880.578
388.132	25.024	1112.282	879.874
389.146	25.119	1111.307	879.490
390.161	25.054	1110.711	878.624
391.175	25.149	1110.137	878.560
392.190	25.086	1109.501	877.667
393.205	25.170	1108.625	877.309
394.219	25.122	1108.447	876.854
395.234	25.020	1107.380	875.434
396.248	25.208	1106.205	875.348
397.263	25.168	1105.836	874.780
398.278	25.178	1105.233	874.277
399.292	25.352	1104.553	874.510
400.307	25.334	1103.769	873.721
401.321	25.210	1103.253	872.633
402.336	25.180	1102.434	871.765
403.350	25.224	1102.059	871.603
404.365	25.209	1101.196	870.772
405.380	25.239	1100.527	870.310
406.394	25.328	1099.608	869.937
407.409	25.331	1099.277	869.614
408.423	25.463	1098.279	869.384
409.438	25.457	1097.387	868.574
410.453	25.414	1097.425	868.317
411.467	25.426	1096.262	867.377
412.482	25.507	1095.272	866.909
413.496	25.327	1094.896	865.667
414.511	25.374	1094.425	865.445
415.526	25.439	1093.881	865.254
416.540	25.409	1093.593	864.804
417.555	25.379	1092.803	863.959
418.569	25.381	1092.594	863.727
419.584	25.477	1092.128	863.743
420.599	25.504	1091.681	863.441
421.613	147.555	1404.650	1798.904
422.628	136.524	1450.200	1799.021
