DTS Sentinel unit serial number:	SN413079Multiplexer serial number:	ORYXHardware model number:	OX4-SRSoftware version number:	ORYX F/W v4.00 Oryx Data Collector v3.7.2.0data status	okinstallation	princeton_trtdifferential loss correction	single-endedforward channel	channel 2reverse channel	N/Adate	2019/09/12time	18:09:49forward acquisition time	15.00reverse acquisition time	0.00gamma	496.2192k internal	0.2323k external	0.2323temperature offset calibration	1.0139default loss term (dB/km)	0.3790temperature slope calibration	1.0000multiplexer offset coefficient	1.0000multiplexer slope coefficient	1.0000fibre end	0.00T internal ref (°C)	33.62T ext. ref 1 (°C)	2.95T ext. ref 2 (°C)	28.20length (m)	temperature (°C)	Stokes	anti-Stokes-747.200	181.537	-0.045	0.067
-746.185	218.613	0.325	-0.524
-745.171	-152.115	0.409	-0.030
-744.156	215.686	0.144	0.230
-743.142	103.529	-0.599	0.710
-742.127	-98.610	-0.398	-0.103
-741.112	-132.205	0.350	0.046
-740.098	-200.000	-0.015	-0.080
-739.083	-114.217	-0.677	-0.132
-738.069	-89.049	-0.558	-0.167
-737.054	-68.265	0.962	0.378
-736.039	92.680	-0.616	-0.702
-735.025	358.519	-0.417	-0.842
-734.010	418.188	0.220	-0.475
-732.996	800.000	0.129	-0.562
-731.981	-94.281	-0.794	0.219
-730.966	561.429	-0.325	0.793
-729.952	800.000	-0.154	-0.499
-728.937	800.000	0.165	-0.513
-727.923	245.144	0.203	0.345
-726.908	646.275	0.237	0.610
-725.894	-139.075	-0.891	-0.097
-724.879	-200.000	0.013	-0.928
-723.864	89.834	-0.182	-0.205
-722.850	-156.359	0.621	-0.039
-721.835	-200.000	0.023	0.918
-720.821	256.728	0.567	-0.982
-719.806	109.230	-0.182	0.219
-718.791	-46.945	-0.564	-0.278
-717.777	-56.020	0.438	-0.197
-716.762	-71.099	-1.154	-0.438
-715.748	554.086	0.196	-0.476
-714.733	-169.672	-0.535	-0.020
-713.718	569.230	0.094	-0.231
-712.704	-11.413	0.454	0.301
-711.689	-147.372	-1.104	0.094
-710.675	295.380	0.200	0.369
-709.660	199.932	0.181	-0.281
-708.645	548.059	-0.268	0.646
-707.631	-158.793	0.356	0.021
-706.616	-45.122	-0.193	-0.097
-705.602	40.529	0.312	-0.284
-704.587	107.818	0.125	-0.150
-703.572	48.966	-0.246	-0.233
-702.558	-136.184	-0.929	-0.110
-701.543	-29.746	-0.620	-0.356
-700.529	76.650	0.422	-0.451
-699.514	-200.000	0.050	-0.241
-698.499	-130.638	0.409	-0.056
-697.485	94.215	0.727	0.832
-696.470	800.000	-0.185	-0.817
-695.456	114.799	0.294	-0.362
-694.441	-154.426	-0.041	0.003
-693.426	150.672	0.169	-0.231
-692.412	-200.000	-0.033	0.544
-691.397	-200.000	-0.079	-0.699
-690.383	99.454	0.631	0.735
-689.368	466.050	-0.291	0.657
-688.354	-158.636	0.671	0.039
-687.339	32.169	-0.413	0.359
-686.324	376.551	0.264	-0.543
-685.310	-157.648	-0.580	0.035
-684.295	11.977	-0.698	0.541
-683.281	76.899	0.209	-0.224
-682.266	-35.179	-0.413	0.227
-681.251	-12.918	-0.458	0.300
-680.237	107.090	0.249	0.298
-679.222	717.065	0.315	0.843
-678.208	-84.819	-0.446	-0.141
-677.193	23.579	-0.495	-0.410
-676.178	-36.469	0.248	-0.135
-675.164	-130.173	-0.588	0.081
-674.149	-200.000	-0.003	0.095
-673.135	-52.921	0.607	-0.281
-672.120	-88.218	0.206	-0.062
-671.105	362.107	0.176	0.355
-670.091	-152.868	-0.355	0.025
-669.076	-41.209	-0.780	0.405
-668.062	-166.694	0.804	0.034
-667.047	35.770	0.449	0.397
-666.032	189.152	0.423	-0.638
-665.018	-200.000	0.001	0.023
-664.003	-200.000	-0.031	0.700
-662.989	270.794	-0.148	-0.262
-661.974	800.000	0.085	-0.240
-660.959	-200.000	-0.101	-0.761
-659.945	800.000	0.067	-0.251
-658.930	-137.314	0.082	0.009
-657.916	78.883	0.373	0.401
-656.901	130.809	-0.414	0.535
-655.886	-62.444	-0.344	0.144
-654.872	-103.670	-1.377	-0.325
-653.857	-50.891	0.653	-0.309
-652.843	413.406	-0.223	-0.477
-651.828	38.464	0.481	0.432
-650.814	-147.850	0.328	0.028
-649.799	800.000	-0.045	0.154
-648.784	-106.757	-0.670	0.150
-647.770	63.623	-0.607	-0.613
-646.755	421.629	0.311	-0.670
-645.741	-23.708	1.473	0.888
-644.726	-200.000	-0.097	0.592
-643.711	800.000	0.148	0.552
-642.697	414.366	-0.259	-0.555
-641.682	-18.548	0.269	0.169
-640.668	51.830	-0.646	-0.619
-639.653	-184.919	-0.642	0.010
-638.638	160.054	-0.333	0.466
-637.624	-117.370	-0.421	0.077
-636.609	-200.000	-0.107	0.502
-635.595	284.013	-0.287	-0.518
-634.580	-200.000	-0.033	-0.745
-633.565	-54.737	0.269	-0.122
-632.551	27.846	-0.056	-0.047
-631.536	-116.753	0.093	0.017
-630.522	402.579	0.446	-0.942
-629.507	166.971	-0.569	-0.812
-628.492	15.231	0.220	-0.173
-627.478	-101.597	-0.761	0.186
-626.463	139.797	-0.546	-0.723
-625.449	-161.088	-0.532	0.028
-624.434	-105.152	0.364	0.084
-623.419	-145.154	0.075	0.007
-622.405	136.346	0.556	0.729
-621.390	-200.000	-0.063	0.520
-620.376	-115.855	-0.796	0.150
-619.361	62.178	-0.331	0.332
-618.346	-174.463	0.149	0.004
-617.332	127.387	-0.341	0.435
-616.317	800.000	0.139	0.518
-615.303	154.706	-0.124	0.172
-614.288	386.394	-0.327	0.679
-613.273	-7.616	-0.460	0.312
-612.259	-73.370	0.354	0.130
-611.244	333.043	-0.346	-0.673
-610.230	-200.000	0.005	-0.448
-609.215	800.000	-0.092	-0.362
-608.201	-4.999	0.528	0.365
-607.186	-126.507	-0.944	0.141
-606.171	31.027	0.257	-0.221
-605.157	-169.013	0.210	0.008
-604.142	79.560	0.121	0.130
-603.128	800.000	-0.202	-0.672
-602.113	107.786	-0.379	0.453
-601.098	584.972	-0.135	0.334
-600.084	-56.816	-0.472	0.210
-599.069	-125.930	-0.509	0.077
-598.055	47.555	0.333	0.311
-597.040	800.000	-0.085	-0.277
-596.025	627.390	0.074	0.189
-595.011	-200.000	-0.078	0.536
-593.996	160.115	0.480	-0.672
-592.982	26.137	0.396	0.332
-591.967	-66.686	0.115	0.046
-590.952	-70.977	0.478	-0.181
-589.938	-200.000	-0.048	0.375
-588.923	61.762	-0.488	-0.488
-587.909	220.106	-0.171	-0.276
-586.894	36.709	0.272	-0.241
-585.879	800.000	0.176	-0.734
-584.865	3.681	-0.243	-0.178
-583.850	800.000	-0.143	-0.472
-582.836	-56.400	-0.353	-0.157
-581.821	-77.591	0.334	0.116
-580.806	433.630	0.225	0.490
-579.792	-16.707	0.374	-0.238
-578.777	122.202	-0.441	0.553
-577.763	-129.137	-0.685	0.096
-576.748	6.511	-0.325	-0.243
-575.733	100.120	-0.512	0.595
-574.719	-73.763	0.291	-0.106
-573.704	457.572	0.365	-0.813
-572.690	52.040	-0.141	0.135
-571.675	-176.172	0.132	-0.003
-570.661	115.437	0.643	0.789
-569.646	-17.681	-0.266	0.167
-568.631	-52.084	0.539	-0.251
-567.617	61.909	0.477	-0.476
-566.602	259.370	-0.168	-0.290
-565.588	800.000	-0.072	-0.280
-564.573	182.426	0.171	0.254
-563.558	162.802	0.111	0.156
-562.544	-18.182	0.301	0.189
-561.529	-83.642	-0.263	0.084
-560.515	0.745	0.453	-0.325
-559.500	800.000	-0.141	-0.417
-558.485	-148.744	0.359	-0.029
-557.471	27.572	-0.084	0.071
-556.456	-31.176	0.576	-0.326
-555.442	-200.000	0.028	-0.690
-554.427	-116.766	-0.460	0.085
-553.412	800.000	-0.117	-0.323
-552.398	6.837	0.400	-0.299
-551.383	-200.000	-0.073	-0.323
-550.369	800.000	-0.147	0.578
-549.354	-61.420	-0.407	-0.171
-548.339	-200.000	-0.006	-0.318
-547.325	228.188	-0.464	-0.758
-546.310	516.814	0.075	0.177
-545.296	-178.668	0.755	-0.017
-544.281	81.132	-0.280	0.303
-543.266	-12.694	0.829	0.542
-542.252	-8.894	-0.194	-0.130
-541.237	-200.000	-0.745	0.000
-540.223	-200.000	0.007	-0.219
-539.208	17.166	-0.638	0.507
-538.193	-131.082	0.068	0.009
-537.179	-79.784	-0.448	0.151
-536.164	-112.120	0.095	-0.019
-535.150	-200.000	0.072	-1.040
-534.135	-105.764	0.436	-0.099
-533.121	402.644	0.428	0.901
-532.106	800.000	0.124	0.368
-531.091	-106.118	0.486	0.109
-530.077	-153.504	-0.848	-0.059
-529.062	127.078	0.270	-0.343
-528.048	-120.598	1.231	0.209
-527.033	-25.038	-0.591	-0.351
-526.018	-102.443	-0.450	-0.108
-525.004	-85.908	0.094	-0.029
-523.989	-122.268	-1.237	-0.202
-522.975	800.000	-0.110	0.308
-521.960	800.000	-0.136	0.557
-520.945	-63.739	0.759	0.311
-519.931	156.234	-0.502	-0.693
-518.916	1.723	-0.116	0.083
-517.902	-5.439	-0.194	-0.134
-516.887	-38.612	-0.801	-0.423
-515.872	781.613	0.129	-0.352
-514.858	-115.298	-0.852	0.161
-513.843	-99.342	0.395	-0.100
-512.829	-57.711	-0.234	0.102
-511.814	-79.642	-0.427	-0.144
-510.799	371.206	-0.304	0.616
-509.785	-164.652	0.479	-0.022
-508.770	126.426	0.511	-0.648
-507.756	59.262	0.412	0.406
-506.741	-46.603	-0.906	-0.444
-505.726	800.000	-0.114	-0.420
-504.712	245.433	-0.400	-0.673
-503.697	46.077	0.124	0.115
-502.683	-95.727	-0.149	0.040
-501.668	-102.633	0.399	0.095
-500.653	-200.000	-0.173	-0.782
-499.639	-200.000	-0.009	-0.580
-498.624	800.000	-0.193	-0.750
-497.610	-146.926	-0.160	-0.014
-496.595	306.334	0.084	-0.156
-495.581	-49.418	-1.138	0.543
-494.566	-200.000	0.048	-0.557
-493.551	-2.282	-0.180	-0.126
-492.537	-38.917	-0.243	-0.128
-491.522	-138.435	0.515	0.057
-490.508	632.180	0.097	0.246
-489.493	17.368	-0.411	-0.326
-488.478	-104.853	-0.166	-0.038
-487.464	569.004	0.148	-0.360
-486.449	235.321	0.331	0.546
-485.435	-7.663	-0.499	-0.337
-484.420	-57.954	-0.509	-0.222
-483.405	-200.000	-0.164	0.819
-482.391	66.849	-0.812	-0.826
-481.376	-28.986	-0.347	0.199
-480.362	-51.231	0.839	-0.393
-479.347	88.973	-0.884	-0.984
-478.332	-200.000	-0.065	0.550
-477.318	-111.975	0.912	-0.184
-476.303	31.261	0.165	0.141
-475.289	-200.000	-0.077	0.342
-474.274	55.534	-0.228	0.221
-473.259	344.803	0.215	0.422
-472.245	-200.000	0.153	1.176
-471.230	116.218	0.311	0.381
-470.216	-4.581	-0.678	-0.468
-469.201	-126.440	-0.591	-0.088
-468.186	-100.983	-0.211	0.052
-467.172	-134.440	-0.485	0.059
-466.157	800.000	-0.100	-0.297
-465.143	144.150	-0.489	-0.652
-464.128	-200.000	0.089	-0.589
-463.113	-200.000	0.011	0.189
-462.099	-62.564	0.484	-0.201
-461.084	84.207	0.251	-0.274
-460.070	411.872	-0.047	-0.100
-459.055	-10.550	0.423	-0.279
-458.040	-41.769	0.868	0.445
-457.026	-200.000	0.011	-0.376
-456.011	-117.589	0.264	-0.048
-454.997	800.000	0.300	0.955
-453.982	15.433	-0.075	-0.059
-452.968	270.061	-0.227	0.399
-451.953	-86.290	-0.065	-0.020
-450.938	-58.657	-0.382	0.165
-449.924	-175.269	-0.688	-0.019
-448.909	-18.319	-0.680	-0.424
-447.895	-152.327	-0.267	0.019
-446.880	-119.627	-0.103	-0.018
-445.865	-57.967	0.236	-0.103
-444.851	-155.095	-0.306	0.020
-443.836	-200.000	0.116	-0.800
-442.822	-111.929	1.102	-0.222
-441.807	-45.036	-0.787	0.391
-440.792	384.051	0.180	0.369
-439.778	800.000	0.317	1.170
-438.763	800.000	0.263	0.760
-437.749	539.824	0.315	-0.749
-436.734	28.940	-0.391	0.331
-435.719	-46.034	0.889	0.437
-434.705	-106.279	0.514	-0.115
-433.690	5.792	0.129	-0.095
-432.676	19.965	-0.386	-0.310
-431.661	44.110	0.489	0.448
-430.646	-62.490	-0.367	-0.152
-429.632	-200.000	-0.032	0.395
-428.617	40.629	-0.629	-0.565
-427.603	16.636	0.615	-0.485
-426.588	-65.124	-0.425	-0.171
-425.573	665.580	-0.403	1.037
-424.559	235.242	-0.279	0.460
-423.544	704.772	0.301	-0.792
-422.530	-56.914	1.244	0.548
-421.515	-62.097	-0.439	-0.183
-420.500	111.909	0.365	-0.440
-419.486	-67.073	-0.587	-0.231
-418.471	-107.185	0.328	0.072
-417.457	130.857	-0.114	-0.145
-416.442	94.392	-0.353	-0.400
-415.428	453.212	0.247	-0.546
-414.413	293.817	-0.154	-0.280
-413.398	-172.871	0.684	0.021
-412.384	578.974	0.143	0.350
-411.369	5.386	0.551	-0.405
-410.355	800.000	0.119	-0.429
-409.340	-200.000	-0.154	1.041
-408.325	-200.000	0.080	0.971
-407.311	269.588	0.385	0.673
-406.296	-85.304	0.454	0.141
-405.282	-51.586	-0.486	-0.226
-404.267	367.281	-0.122	0.245
-403.252	-42.274	-0.142	0.072
-402.238	-10.405	0.361	0.238
-401.223	800.000	-0.325	1.027
-400.209	-200.000	0.001	-0.617
-399.194	107.644	0.384	0.456
-398.179	239.437	-0.119	-0.197
-397.165	-74.315	-0.593	0.213
-396.150	800.000	-0.237	0.892
-395.136	8.210	-1.151	0.861
-394.121	140.442	-0.071	-0.094
-393.106	53.796	0.408	-0.390
-392.092	-73.624	-0.304	-0.110
-391.077	431.244	0.360	-0.776
-390.063	93.593	-0.480	0.542
-389.048	-14.788	0.756	0.484
-388.033	-185.326	-0.615	0.009
-387.019	-200.000	-0.055	0.382
-386.004	197.464	-0.542	-0.824
-384.990	54.221	-0.964	-0.924
-383.975	46.756	0.137	0.127
-382.960	45.847	0.404	-0.372
-381.946	243.089	0.527	-0.879
-380.931	-0.892	0.158	-0.111
-379.917	-98.424	-0.722	0.184
-378.902	-6.089	-0.662	0.450
-377.888	-87.977	0.852	0.255
-376.873	-65.226	-0.704	0.282
-375.858	-200.000	-0.050	-0.490
-374.844	-200.000	0.029	-0.175
-373.829	355.990	0.165	0.327
-372.815	36.970	0.111	-0.097
-371.800	-200.000	-0.035	-0.407
-370.785	-127.292	-0.749	0.109
-369.771	-200.000	0.088	-0.532
-368.756	800.000	-0.036	0.135
-367.742	-138.192	-0.367	-0.040
-366.727	165.195	-0.337	-0.474
-365.712	188.619	-0.336	0.500
-364.698	800.000	0.227	-0.666
-363.683	-200.000	-0.023	0.317
-362.669	-175.382	1.165	0.032
-361.654	-43.068	0.515	0.260
-360.639	167.307	-0.289	-0.408
-359.625	12.883	0.701	0.539
-358.610	-200.000	0.029	0.875
-357.596	-123.190	-0.668	-0.106
-356.581	-164.325	1.244	0.057
-355.566	-116.038	0.090	-0.017
-354.552	800.000	0.342	1.374
-353.537	176.360	-0.711	1.028
-352.523	46.239	0.297	0.273
-351.508	-200.000	0.033	-0.197
-350.493	144.815	0.704	0.935
-349.479	-33.266	0.433	-0.238
-348.464	20.351	0.274	0.220
-347.450	27.340	0.654	0.547
-346.435	203.601	0.406	0.625
-345.420	-116.117	0.445	-0.082
-344.406	-28.451	-0.302	-0.173
-343.391	103.690	-0.327	-0.382
-342.377	-27.109	-1.334	-0.774
-341.362	-200.000	0.182	1.075
-340.348	-200.000	-0.101	0.602
-339.333	-36.015	-1.070	0.575
-338.318	146.959	-0.349	0.466
-337.304	333.710	0.368	0.708
-336.289	98.839	0.592	0.679
-335.275	-200.000	0.024	0.488
-334.260	60.792	-0.475	0.468
-333.245	114.079	-0.373	0.451
-332.231	82.969	0.574	-0.620
-331.216	-200.000	0.010	-0.295
-330.202	793.704	0.208	-0.569
-329.187	-20.873	0.405	-0.246
-328.172	563.278	0.260	0.625
-327.158	-148.250	-1.035	0.085
-326.143	-104.323	0.572	0.132
-325.129	-200.000	-0.028	0.441
-324.114	442.764	-0.201	0.438
-323.099	-47.947	0.628	-0.302
-322.085	84.327	0.251	0.272
-321.070	-200.000	0.083	0.632
-320.056	768.799	-0.033	0.089
-319.041	9.508	0.429	0.322
-318.026	-200.000	0.102	0.535
-317.012	477.677	0.164	0.369
-315.997	-200.000	-0.064	0.672
-314.983	-133.126	0.687	-0.086
-313.968	219.737	-0.101	-0.160
-312.953	-200.000	0.113	-0.813
-311.939	-44.658	-0.269	-0.133
-310.924	54.917	-0.205	-0.196
-309.910	96.838	0.157	-0.179
-308.895	608.609	-0.070	-0.175
-307.880	-62.272	0.489	0.202
-306.866	615.884	0.086	0.213
-305.851	166.270	-0.278	0.391
-304.837	-200.000	0.240	-1.209
-303.822	-133.030	-0.444	0.056
-302.807	-66.943	-0.409	0.160
-301.793	-49.159	-0.492	-0.234
-300.778	27.186	0.349	-0.291
-299.764	-39.437	0.151	-0.079
-298.749	-22.740	0.320	-0.192
-297.735	-157.320	0.777	-0.047
-296.720	-99.577	-0.225	0.056
-295.705	800.000	0.206	-0.709
-294.691	-200.000	0.090	-0.755
-293.676	-180.024	-0.117	-0.002
-292.662	-56.067	-0.508	0.224
-291.647	236.824	0.291	-0.478
-290.632	448.514	-0.074	0.162
-289.618	-54.421	-0.275	-0.124
-288.603	-146.765	0.276	-0.024
-287.589	-140.090	-0.716	0.075
-286.574	-168.259	-0.255	-0.010
-285.559	-200.000	0.043	-0.565
-284.545	800.000	0.285	-0.830
-283.530	-136.989	0.505	-0.057
-282.516	-25.142	0.439	-0.258
-281.501	29.513	0.282	-0.238
-280.486	631.700	0.088	0.220
-279.472	235.080	0.090	-0.147
-278.457	98.698	0.240	-0.274
-277.443	316.536	-0.374	0.701
-276.428	800.000	0.049	-0.156
-275.413	357.416	0.095	0.187
-274.399	-200.000	1.293	0.000
-273.384	-0.397	-0.369	0.260
-272.370	-76.201	0.747	0.261
-271.355	-82.001	-0.371	0.120
-270.340	-200.000	-0.028	0.384
-269.326	-21.961	-0.494	-0.298
-268.311	800.000	0.178	-0.664
-267.297	798.304	0.134	-0.366
-266.282	-67.797	-0.454	-0.176
-265.267	641.239	-0.041	0.103
-264.253	-108.588	0.460	-0.098
-263.238	-200.000	-0.058	-0.752
-262.224	-65.196	0.299	0.119
-261.209	25.898	-0.093	-0.077
-260.195	419.152	0.505	1.070
-259.180	33.264	0.329	0.283
-258.165	56.027	0.506	-0.486
-257.151	-58.825	-0.290	-0.124
-256.136	188.535	0.299	0.443
-255.122	-7.725	-0.557	0.373
-254.107	-37.627	0.316	-0.167
-253.092	-147.568	-0.506	-0.042
-252.078	0.175	-0.123	0.087
-251.063	-200.000	-0.039	-0.449
-250.049	-75.830	-0.159	-0.056
-249.034	655.343	-0.197	-0.501
-248.019	-176.249	0.420	0.011
-247.005	800.000	-0.083	0.312
-245.990	502.893	-0.309	-0.707
-244.976	79.029	-0.112	-0.118
-243.961	107.632	-0.292	0.344
-242.946	-200.000	-0.117	0.760
-241.932	53.392	0.791	-0.751
-240.917	800.000	0.187	-0.619
-239.903	-200.000	0.029	0.133
-238.888	800.000	-0.238	0.905
-237.873	315.976	-0.180	-0.337
-236.859	188.121	-0.363	0.537
-235.844	305.615	0.430	-0.791
-234.830	-200.000	-0.108	-0.536
-233.815	-200.000	-0.012	0.424
-232.800	109.348	-0.269	-0.319
-231.786	800.000	0.214	-0.859
-230.771	70.349	0.246	0.251
-229.757	552.215	-0.154	-0.365
-228.742	-148.524	1.015	0.082
-227.727	656.711	0.295	0.751
-226.713	-99.038	0.499	0.125
-225.698	-127.795	0.726	-0.104
-224.684	-200.000	0.005	-0.185
-223.669	-153.602	-0.584	-0.040
-222.655	50.298	0.451	0.422
-221.640	435.152	-0.409	-0.879
-220.625	-59.355	-0.549	-0.234
-219.611	-200.000	0.008	0.162
-218.596	800.000	0.121	0.399
-217.582	-49.645	-0.549	0.258
-216.567	800.000	-0.092	0.286
-215.552	-68.574	-0.910	-0.349
-214.538	163.268	0.359	0.500
-213.523	227.958	-0.316	-0.509
-212.509	-12.457	0.048	-0.031
-211.494	800.000	-0.065	0.258
-210.479	70.886	-0.067	-0.069
-209.465	-141.979	0.604	0.060
-208.450	800.000	0.098	-0.350
-207.436	-45.960	-0.315	0.154
-206.421	-200.000	0.139	0.633
-205.406	-200.000	0.113	-0.538
-204.392	105.112	0.257	-0.300
-203.377	-200.000	-0.107	0.983
-202.363	40.105	0.592	0.526
-201.348	800.000	-0.116	-0.338
-200.333	308.653	0.109	-0.202
-199.319	-119.980	0.602	-0.102
-198.304	187.130	0.172	-0.253
-197.290	249.836	-0.432	0.724
-196.275	64.665	-0.677	-0.675
-195.260	800.000	0.213	-0.688
-194.246	122.188	0.565	0.697
-193.231	-134.922	-0.632	0.076
-192.217	-89.012	0.320	0.094
-191.202	-200.000	0.181	-0.920
-190.187	-200.000	0.016	-0.236
-189.173	189.050	-0.185	0.274
-188.158	28.192	0.594	-0.496
-187.144	-200.000	0.012	0.232
-186.129	-200.000	0.067	0.665
-185.114	171.041	-0.281	0.398
-184.100	-200.000	0.174	-0.787
-183.085	178.676	0.222	0.321
-182.071	-200.000	0.034	0.209
-181.056	10.479	0.327	0.246
-180.042	-176.527	-0.605	0.015
-179.027	-117.715	0.209	0.037
-178.012	-137.828	0.426	0.047
-176.998	-64.119	-0.733	0.295
-175.983	-200.000	0.059	0.524
-174.969	-74.175	-0.185	0.066
-173.954	276.569	-0.185	-0.324
-172.939	268.941	0.446	-0.772
-171.925	800.000	-0.201	-0.744
-170.910	-2.792	-0.455	0.314
-169.896	-37.808	0.670	-0.352
-168.881	-200.000	0.006	-0.371
-167.866	-188.413	0.383	0.005
-166.852	97.027	-0.313	-0.355
-165.837	-86.512	0.537	-0.163
-164.823	310.911	0.374	0.691
-163.808	10.245	0.723	0.543
-162.793	-4.859	1.061	-0.722
-161.779	119.099	-0.444	0.542
-160.764	-200.000	0.065	0.490
-159.750	-128.934	-0.150	0.021
-158.735	95.268	0.060	-0.068
-157.720	268.700	0.415	0.719
-156.706	79.936	-0.142	0.151
-155.691	720.981	-0.279	-0.733
-154.677	-57.088	0.548	-0.239
-153.662	-200.000	-0.106	-0.688
-152.647	16.098	0.652	0.507
-151.633	-32.722	-0.460	0.253
-150.618	143.380	0.527	0.692
-149.604	602.364	-0.139	-0.340
-148.589	800.000	0.221	-0.726
-147.574	291.126	-0.509	0.913
-146.560	800.000	-0.197	-0.575
-145.545	-38.101	0.840	0.440
-144.531	-103.061	0.483	-0.113
-143.516	-200.000	0.330	0.001
-142.502	82.934	0.683	-0.733
-141.487	-82.214	-0.177	0.057
-140.472	-61.035	-0.208	0.087
-139.458	-153.411	0.644	-0.044
-138.443	-10.888	-0.314	0.204
-137.429	16.223	-0.177	-0.137
-136.414	644.065	-0.065	-0.163
-135.399	-48.881	-0.515	-0.244
-134.385	69.023	0.737	-0.747
-133.370	-200.000	-0.008	-0.473
-132.356	164.005	-0.045	-0.063
-131.341	-200.000	0.258	-1.153
-130.326	-3.314	0.453	0.311
-129.312	-83.673	-0.617	0.194
-128.297	720.813	0.125	-0.328
-127.283	-102.154	0.285	0.068
-126.268	-200.000	-0.057	0.607
-125.253	-70.515	-0.943	0.352
-124.239	800.000	-0.129	0.554
-123.224	132.843	0.266	0.338
-122.210	12.927	0.783	-0.597
-121.195	47.076	0.291	-0.267
-120.180	67.107	0.343	-0.344
-119.166	-200.000	0.731	-0.003
-118.151	-200.000	-0.042	-0.227
-117.137	56.299	0.570	0.545
-116.122	-69.894	-0.167	-0.063
-115.107	-123.435	-0.310	-0.049
-114.093	246.682	-0.047	-0.077
-113.078	181.110	0.324	0.469
-112.064	-11.601	0.709	-0.459
-111.049	322.973	-0.068	0.127
-110.034	73.249	-0.687	0.708
-109.020	195.013	0.298	0.446
-108.005	-97.688	-0.397	-0.101
-106.991	132.515	-0.286	-0.364
-105.976	-122.417	1.150	-0.185
-104.962	800.000	0.123	-0.371
-103.947	-156.949	-0.555	-0.033
-102.932	-125.072	1.143	0.173
-101.918	31.756	-0.271	-0.230
-100.903	-104.706	-0.085	-0.019
-99.889	-200.000	-0.093	0.683
-98.874	-90.379	-0.420	-0.120
-97.859	157.602	-0.431	0.588
-96.845	131.088	-0.358	0.453
-95.830	-169.944	0.829	0.029
-94.816	126.377	0.248	-0.309
-93.801	800.000	0.096	-0.300
-92.786	-149.164	0.188	0.015
-91.772	-3.009	-0.904	-0.621
-90.757	-104.328	-0.454	0.104
-89.743	90.833	0.794	-0.876
-88.728	-135.048	0.721	-0.086
-87.713	-82.729	0.499	-0.159
-86.699	-200.000	-0.135	-1.078
-85.684	54.459	-0.335	-0.318
-84.670	800.000	0.094	0.338
-83.655	-17.980	0.393	0.243
-82.640	-96.338	-1.307	-0.340
-81.626	-97.922	1.223	0.311
-80.611	184.898	-0.151	-0.221
-79.597	134.530	0.332	0.424
-78.582	1.887	0.358	-0.254
-77.567	-27.506	0.645	-0.369
-76.553	60.093	-0.243	-0.236
-75.538	-200.000	0.068	-1.122
-74.524	-200.000	-0.004	-0.395
-73.509	135.481	0.157	-0.201
-72.494	-141.719	-0.741	-0.073
-71.480	-200.000	0.204	1.024
-70.465	764.127	-0.090	0.239
-69.451	-200.000	-0.099	-0.501
-68.436	58.953	-0.385	0.372
-67.422	76.640	-0.170	-0.177
-66.407	-87.331	0.634	-0.189
-65.392	204.862	0.348	-0.531
-64.378	245.515	-0.387	-0.641
-63.363	-78.787	-0.197	-0.066
-62.349	-167.807	-0.630	0.024
-61.334	198.225	-1.084	-1.629
-60.319	-14.466	0.764	0.483
-59.305	-74.208	-1.378	-0.490
-58.290	-200.000	0.016	0.977
-57.276	800.000	0.368	1.089
-56.261	-200.000	95.283	573.119
-55.246	643.153	1372.443	3439.272
-54.232	197.540	2558.141	3839.014
-53.217	112.760	2263.071	2693.962
-52.203	42.999	1889.445	1693.506
-51.188	36.970	1680.191	1460.634
-50.173	34.214	1637.198	1402.930
-49.159	52.451	1685.515	1580.963
-48.144	53.537	1703.260	1605.662
-47.130	36.411	1662.413	1440.781
-46.115	33.577	1647.812	1407.074
-45.100	33.659	1642.244	1402.876
-44.086	33.511	1639.717	1399.570
-43.071	33.565	1636.693	1397.325
-42.057	33.471	1634.909	1395.057
-41.042	33.728	1630.887	1393.460
-40.027	33.509	1630.276	1391.273
-39.013	33.524	1628.367	1389.698
-37.998	33.530	1627.128	1388.628
-36.984	33.591	1625.628	1387.740
-35.969	33.694	1623.947	1387.003
-34.954	33.777	1622.046	1385.933
-33.940	33.671	1620.938	1384.158
-32.925	33.607	1619.130	1382.092
-31.911	33.465	1618.269	1380.266
-30.896	33.485	1615.376	1377.893
-29.881	33.607	1613.045	1376.732
-28.867	33.598	1612.443	1376.098
-27.852	33.760	1610.113	1375.232
-26.838	33.472	1609.776	1372.800
-25.823	33.697	1607.531	1372.461
-24.809	33.539	1607.250	1371.026
-23.794	33.520	1605.732	1369.538
-22.779	33.627	1603.629	1368.463
-21.765	33.625	1602.879	1367.752
-20.750	33.597	1600.607	1365.557
-19.736	33.483	1599.915	1364.095
-18.721	33.743	1597.737	1364.051
-17.706	33.491	1597.207	1361.735
-16.692	33.612	1595.339	1360.951
-15.677	33.691	1592.800	1359.301
-14.663	33.752	1591.337	1358.436
-13.648	33.728	1590.278	1357.302
-12.633	33.598	1589.024	1355.254
-11.619	33.651	1587.310	1354.118
-10.604	33.689	1586.369	1353.531
-9.590	33.614	1585.304	1352.029
-8.575	33.815	1583.433	1351.810
-7.560	33.797	1581.589	1350.058
-6.546	33.707	1580.530	1348.463
-5.531	33.748	1579.845	1348.113
-4.517	33.730	1578.738	1346.990
-3.502	33.654	1578.941	1346.568
-2.487	33.683	1576.604	1344.727
-1.473	32.935	1565.928	1330.297
-0.458	30.281	1544.800	1293.819
0.556	27.626	1544.883	1259.806
1.571	25.144	1568.018	1261.122
2.586	24.553	1580.294	1266.695
3.600	21.613	1527.671	1204.216
4.615	12.566	1418.598	1060.099
5.629	4.506	1352.724	961.088
6.644	2.980	1344.116	945.501
7.659	2.958	1343.523	944.865
8.673	2.875	1342.289	943.404
9.688	2.987	1339.722	942.204
10.702	2.845	1336.897	939.266
11.717	6.247	1343.735	964.877
12.731	15.849	1362.074	1037.404
13.746	24.458	1376.269	1101.498
14.761	27.051	1379.506	1120.003
15.775	27.349	1379.789	1121.975
16.790	27.668	1379.021	1123.213
17.804	27.625	1379.110	1122.922
18.819	27.810	1377.910	1122.982
19.834	27.916	1378.635	1124.131
20.848	27.886	1377.014	1122.520
21.863	27.766	1377.457	1122.048
22.877	27.937	1375.829	1121.670
23.892	27.939	1374.520	1120.517
24.907	28.120	1373.205	1120.458
25.921	27.744	1372.896	1117.800
26.936	28.348	1369.934	1118.978
27.950	27.998	1371.253	1117.819
28.965	28.147	1369.394	1117.115
29.980	28.017	1368.685	1115.646
30.994	27.928	1367.616	1114.131
32.009	28.199	1365.519	1113.972
33.023	27.847	1365.158	1111.438
34.038	28.065	1363.846	1111.601
35.053	28.113	1363.179	1111.246
36.067	28.081	1362.892	1110.721
37.082	28.033	1361.787	1109.428
38.096	28.108	1360.020	1108.351
39.111	27.950	1359.078	1106.524
40.126	28.189	1358.178	1107.141
41.140	28.170	1357.353	1106.257
42.155	27.973	1357.879	1105.393
43.169	27.877	1357.906	1104.739
44.184	28.149	1357.184	1105.696
45.199	28.032	1357.636	1105.262
46.213	28.202	1357.112	1105.765
47.228	28.147	1356.076	1104.491
48.242	28.315	1354.204	1103.880
49.257	27.931	1354.768	1101.927
50.271	28.224	1352.219	1101.520
51.286	28.342	1349.692	1100.074
52.301	28.206	1348.863	1098.479
53.315	28.316	1346.779	1097.346
54.330	28.270	1347.281	1097.380
55.344	28.257	1346.866	1096.869
56.359	28.254	1346.196	1096.211
57.374	28.120	1345.347	1094.621
58.388	28.235	1344.346	1094.393
59.403	28.209	1343.928	1093.803
60.417	27.981	1343.602	1092.076
61.432	28.066	1342.636	1091.705
62.447	28.111	1342.121	1091.455
63.461	28.096	1340.907	1090.285
64.476	28.583	1338.519	1091.142
65.490	28.198	1338.479	1088.726
66.505	28.191	1336.932	1087.331
67.520	28.031	1336.381	1085.835
68.534	28.446	1334.375	1086.570
69.549	28.056	1335.065	1084.722
70.563	28.145	1333.076	1083.535
71.578	28.200	1332.375	1083.193
72.593	28.369	1331.208	1083.149
73.607	28.218	1330.628	1081.688
74.622	28.357	1330.503	1082.311
75.636	28.524	1328.900	1081.898
76.651	28.417	1328.303	1080.689
77.666	28.367	1328.094	1080.126
78.680	28.348	1327.766	1079.652
79.695	28.378	1326.325	1078.562
80.709	28.326	1326.018	1077.909
81.724	28.434	1324.596	1077.295
82.739	28.639	1324.028	1077.940
83.753	28.226	1323.310	1074.835
84.768	28.445	1321.499	1074.552
85.782	28.510	1321.186	1074.584
86.797	28.194	1320.224	1071.854
87.812	28.487	1318.902	1072.404
88.826	28.393	1318.754	1071.636
89.841	28.112	1318.068	1069.344
90.855	28.252	1317.085	1069.266
91.870	28.335	1315.879	1068.682
92.884	28.389	1314.652	1067.900
93.899	28.367	1313.881	1067.056
94.914	28.625	1312.303	1067.180
95.928	28.447	1311.920	1065.735
96.943	28.290	1311.398	1064.308
97.957	28.333	1310.660	1063.864
98.972	28.313	1310.364	1063.411
99.987	28.356	1309.369	1062.763
101.001	28.298	1309.306	1062.279
102.016	28.700	1307.623	1063.146
103.030	28.418	1306.233	1060.295
104.045	28.468	1304.688	1059.233
105.060	28.232	1305.101	1058.113
106.074	28.417	1303.445	1057.745
107.089	28.526	1302.820	1057.773
108.103	28.106	1302.354	1054.876
109.118	28.563	1300.715	1056.090
110.133	28.665	1299.738	1055.789
111.147	28.366	1298.297	1052.803
112.162	28.471	1298.337	1053.348
113.176	28.489	1295.886	1051.367
114.191	28.476	1295.425	1050.830
115.206	28.407	1295.250	1050.196
116.220	28.585	1293.167	1049.433
117.235	28.398	1293.007	1048.143
118.249	28.537	1292.035	1048.054
119.264	28.457	1291.146	1046.785
120.279	28.500	1290.415	1046.348
121.293	28.507	1289.954	1045.917
122.308	28.325	1289.301	1044.259
123.322	28.426	1288.146	1043.805
124.337	28.597	1285.756	1042.750
125.352	28.488	1286.276	1042.462
126.366	28.461	1286.297	1042.233
127.381	28.320	1285.608	1040.779
128.395	28.337	1284.247	1039.680
129.410	28.669	1283.132	1040.568
130.424	28.447	1282.158	1038.431
131.439	28.326	1282.520	1037.946
132.454	28.238	1281.900	1036.853
133.468	28.235	1280.349	1035.489
134.483	28.716	1278.390	1036.530
135.497	28.779	1278.025	1036.499
136.512	28.707	1277.183	1035.320
137.527	28.291	1277.222	1032.911
138.541	28.280	1275.422	1031.299
139.556	28.376	1274.151	1030.725
140.570	28.565	1273.090	1030.836
141.585	28.592	1271.824	1029.873
142.600	28.500	1271.463	1028.973
143.614	28.440	1271.834	1028.845
144.629	28.315	1270.400	1026.891
145.643	28.185	1268.598	1024.614
146.658	28.663	1266.872	1025.802
147.673	28.604	1266.673	1025.221
148.687	28.364	1266.042	1023.278
149.702	28.617	1263.280	1022.368
150.716	28.575	1262.346	1021.285
151.731	28.741	1262.065	1021.891
152.746	28.532	1261.630	1020.287
153.760	28.260	1261.449	1018.539
154.775	28.237	1260.137	1017.262
155.789	28.267	1259.396	1016.738
156.804	28.358	1259.174	1016.975
157.819	28.600	1257.236	1016.662
158.833	28.535	1255.962	1015.181
159.848	28.666	1255.394	1015.358
160.862	28.581	1255.062	1014.532
161.877	28.420	1255.410	1013.830
162.892	28.626	1252.820	1012.788
163.906	28.509	1253.320	1012.454
164.921	28.661	1252.694	1012.698
165.935	28.514	1251.768	1011.047
166.950	28.455	1250.674	1009.753
167.964	28.550	1249.206	1009.001
168.979	28.761	1249.183	1010.054
169.994	28.589	1249.472	1009.247
171.008	28.723	1247.747	1008.502
172.023	28.669	1247.978	1008.304
173.037	28.575	1247.026	1006.929
174.052	28.619	1245.741	1006.043
175.067	28.413	1245.750	1004.835
176.081	28.708	1244.418	1005.284
177.096	28.210	1244.462	1002.503
178.110	28.512	1242.405	1002.412
179.125	28.565	1241.565	1001.933
180.140	28.630	1240.688	1001.494
181.154	28.488	1239.604	999.753
182.169	28.669	1238.333	999.627
183.183	28.410	1237.690	997.610
184.198	28.537	1236.403	997.175
185.213	28.910	1235.298	998.222
186.227	28.674	1234.193	995.957
187.242	28.732	1233.386	995.535
188.256	28.561	1234.033	995.042
189.271	28.712	1232.977	994.919
190.286	28.515	1231.756	992.781
191.300	28.876	1231.115	994.127
192.315	28.721	1230.506	992.711
193.329	28.520	1230.836	991.801
194.344	28.802	1229.924	992.503
195.359	28.860	1228.939	991.935
196.373	28.606	1229.469	990.902
197.388	28.276	1229.740	989.249
198.402	28.630	1229.594	990.954
199.417	28.649	1227.239	989.072
200.432	28.731	1227.046	989.272
201.446	28.436	1226.814	987.410
202.461	28.545	1226.132	987.357
203.475	28.628	1225.171	986.943
204.490	28.733	1223.491	986.068
205.504	28.764	1222.637	985.458
206.519	28.557	1222.528	984.173
207.534	28.773	1221.550	984.456
208.548	28.808	1219.706	983.068
209.563	28.621	1219.098	981.492
210.577	28.920	1218.588	982.595
211.592	28.869	1217.278	981.179
212.607	28.596	1218.041	980.249
213.621	28.838	1216.507	980.215
214.636	28.845	1215.533	979.381
215.650	28.853	1215.333	979.177
216.665	28.805	1213.575	977.418
217.680	28.525	1213.435	975.732
218.694	28.776	1212.115	975.914
219.709	28.958	1211.012	975.906
220.723	29.059	1210.580	976.007
221.738	28.633	1210.169	973.333
222.753	28.950	1208.579	973.646
223.767	28.831	1208.645	972.981
224.782	28.843	1208.498	972.841
225.796	29.035	1207.082	972.629
226.811	29.019	1206.862	972.283
227.826	28.797	1206.345	970.606
228.840	28.781	1205.603	969.841
229.855	28.918	1205.414	970.326
230.869	28.987	1203.956	969.429
231.884	28.911	1203.566	968.631
232.899	28.903	1203.067	968.100
233.913	29.060	1202.484	968.372
234.928	28.995	1202.331	967.821
235.942	29.114	1200.879	967.193
236.957	28.890	1200.848	965.903
237.972	29.003	1200.223	965.911
238.986	28.994	1199.792	965.432
240.001	29.309	1198.052	965.594
241.015	29.167	1198.055	964.766
242.030	29.200	1197.692	964.561
243.045	29.100	1196.712	963.166
244.059	29.338	1195.612	963.440
245.074	29.294	1194.659	962.355
246.088	29.021	1194.820	960.976
247.103	29.012	1193.875	960.081
248.117	28.902	1193.603	959.206
249.132	28.920	1192.827	958.592
250.147	29.433	1191.653	960.234
251.161	29.057	1191.713	958.239
252.176	29.233	1190.379	957.997
253.190	29.189	1189.083	956.639
254.205	29.376	1187.934	956.604
255.220	29.047	1188.636	955.373
256.234	29.444	1187.676	956.576
257.249	29.023	1187.754	954.372
258.263	29.245	1186.221	954.203
259.278	29.332	1185.277	953.809
260.293	29.050	1185.718	952.623
261.307	29.278	1184.710	952.906
262.322	29.297	1184.202	952.510
263.336	29.046	1183.797	950.806
264.351	28.825	1183.587	949.413
265.366	28.912	1183.495	949.704
266.380	28.894	1183.297	949.370
267.395	29.255	1180.919	949.234
268.409	29.177	1180.249	948.212
269.424	29.192	1179.494	947.596
270.439	28.918	1180.345	946.785
271.453	29.176	1178.812	946.802
272.468	29.093	1177.601	945.319
273.482	29.029	1177.476	944.805
274.497	29.234	1175.704	944.349
275.512	29.194	1177.268	945.317
276.526	29.107	1176.261	943.978
277.541	29.170	1175.740	943.802
278.555	29.305	1174.231	943.195
279.570	29.014	1174.018	941.451
280.585	29.242	1172.354	941.198
281.599	29.204	1172.352	940.919
282.614	29.472	1170.917	941.053
283.628	29.111	1170.102	938.473
284.643	29.308	1169.076	938.571
285.657	29.437	1168.610	938.773
286.672	29.045	1168.745	936.803
287.687	29.313	1167.289	936.911
288.701	29.484	1166.598	937.144
289.716	29.542	1164.764	935.884
290.730	29.072	1166.148	934.527
291.745	29.320	1164.242	934.171
292.760	29.556	1164.227	935.273
293.774	29.147	1162.932	932.079
294.789	29.458	1162.861	933.516
295.803	29.224	1162.889	932.270
296.818	29.660	1160.785	932.704
297.833	29.698	1159.824	932.042
298.847	29.549	1160.291	931.583
299.862	29.368	1160.042	930.387
300.876	29.370	1159.674	930.019
301.891	29.316	1158.926	929.066
302.906	29.593	1157.849	929.511
303.920	29.766	1156.118	928.909
304.935	29.990	1155.379	929.357
305.949	29.572	1155.974	927.657
306.964	29.503	1155.604	926.928
307.979	29.587	1154.201	926.143
308.993	29.618	1153.382	925.559
310.008	29.635	1153.611	925.746
311.022	29.484	1152.691	924.170
312.037	29.607	1152.421	924.488
313.052	29.615	1151.035	923.335
314.066	29.683	1150.100	922.844
315.081	29.459	1149.518	921.174
316.095	29.553	1149.083	921.213
317.110	29.324	1148.974	919.901
318.125	29.415	1148.125	919.597
319.139	29.517	1146.491	918.714
320.154	29.784	1145.792	919.399
321.168	29.504	1146.563	918.545
322.183	29.333	1145.758	916.967
323.197	29.482	1144.549	916.659
324.212	29.437	1143.797	915.752
325.227	29.626	1143.571	916.425
326.241	29.893	1143.139	917.322
327.256	29.604	1142.581	915.363
328.270	29.871	1141.197	915.492
329.285	29.769	1141.388	915.062
330.300	29.617	1140.201	913.278
331.314	30.051	1138.408	913.903
332.329	30.038	1137.370	912.922
333.343	29.667	1137.759	911.328
334.358	30.186	1136.133	912.496
335.373	29.889	1136.298	911.088
336.387	29.830	1135.624	910.178
337.402	29.875	1135.370	910.112
338.416	29.430	1135.740	908.138
339.431	29.888	1132.558	907.762
340.446	30.018	1133.170	908.809
341.460	30.028	1132.603	908.322
342.475	29.988	1131.597	907.243
343.489	29.496	1131.063	904.325
344.504	30.084	1128.749	905.266
345.519	29.948	1129.158	904.851
346.533	29.883	1129.092	904.401
347.548	30.103	1127.327	903.979
348.562	29.935	1126.572	902.476
349.577	30.004	1126.273	902.492
350.592	29.740	1125.894	900.823
351.606	29.926	1125.570	901.390
352.621	29.979	1123.993	900.302
353.635	29.788	1123.482	898.885
354.650	29.752	1123.344	898.520
355.665	30.175	1121.600	899.098
356.679	30.181	1121.779	899.193
357.694	30.249	1120.285	898.245
358.708	30.217	1119.673	897.520
359.723	30.148	1119.634	897.076
360.738	29.802	1119.557	895.257
361.752	29.717	1119.837	894.990
362.767	30.034	1118.883	895.682
363.781	30.246	1117.162	895.248
364.796	30.311	1116.424	894.894
365.810	30.436	1116.325	895.337
366.825	30.136	1116.175	893.691
367.840	30.073	1115.552	892.810
368.854	30.597	1114.158	894.134
369.869	30.149	1114.412	892.108
370.883	30.118	1113.724	891.328
371.898	30.358	1111.467	890.595
372.913	30.201	1111.717	889.963
373.927	30.117	1112.722	890.285
374.942	30.655	1111.082	891.473
375.956	30.344	1110.445	889.393
376.971	30.364	1110.108	889.137
377.986	30.283	1110.586	889.056
379.000	30.396	1109.821	888.904
380.015	30.378	1108.412	887.611
381.029	30.309	1107.584	886.543
382.044	30.391	1107.710	886.957
383.059	30.531	1106.680	886.718
384.073	30.693	1105.568	886.521
385.088	30.463	1105.644	885.410
386.102	30.409	1104.411	884.083
387.117	30.443	1104.083	883.906
388.132	30.229	1102.899	881.864
389.146	30.484	1102.884	882.987
390.161	30.517	1101.440	881.908
391.175	30.319	1101.057	880.585
392.190	30.631	1100.103	881.224
393.205	30.591	1099.679	880.615
394.219	30.453	1098.457	878.906
395.234	30.728	1098.424	880.101
396.248	30.474	1097.991	878.476
397.263	30.778	1096.187	878.388
398.278	30.856	1095.848	878.409
399.292	30.753	1096.180	878.108
400.307	30.762	1095.458	877.498
401.321	30.518	1094.917	875.837
402.336	30.452	1094.519	875.129
403.350	30.649	1093.242	874.960
404.365	30.947	1091.963	875.259
405.380	30.805	1092.055	874.585
406.394	30.963	1090.906	874.332
407.409	30.706	1090.789	872.951
408.423	30.917	1090.226	873.412
409.438	31.175	1088.167	872.894
410.453	31.244	1087.780	872.828
411.467	31.259	1086.778	872.020
412.482	31.055	1086.861	871.054
413.496	31.036	1086.189	870.350
414.511	30.842	1085.387	868.728
415.526	30.887	1085.077	868.609
416.540	31.022	1085.669	869.635
417.555	30.837	1084.110	867.450
418.569	30.899	1083.916	867.508
419.584	30.708	1084.137	866.716
420.599	30.961	1083.367	867.203
421.613	152.275	1406.494	1792.751
422.628	140.645	1453.530	1792.794
