DTS Sentinel unit serial number:	SN413079Multiplexer serial number:	ORYXHardware model number:	OX4-SRSoftware version number:	ORYX F/W v4.00 Oryx Data Collector v3.7.2.0data status	okinstallation	princeton_trtdifferential loss correction	single-endedforward channel	channel 2reverse channel	N/Adate	2019/09/19time	12:55:35forward acquisition time	60.00reverse acquisition time	0.00gamma	496.2192k internal	0.2332k external	0.2332temperature offset calibration	1.0015default loss term (dB/km)	0.3790temperature slope calibration	1.0000multiplexer offset coefficient	1.0000multiplexer slope coefficient	1.0000fibre end	0.00T internal ref (°C)	28.37T ext. ref 1 (°C)	0.91T ext. ref 2 (°C)	26.67length (m)	temperature (°C)	Stokes	anti-Stokes-747.200	363.153	0.171	0.345
-746.185	-40.380	-0.260	0.136
-745.171	251.324	0.082	0.140
-744.156	131.550	-0.207	-0.268
-743.142	109.155	-0.223	0.268
-742.127	376.573	-0.169	0.347
-741.112	438.130	-0.101	-0.222
-740.098	-200.000	0.031	0.144
-739.083	362.412	0.123	-0.248
-738.069	800.000	-0.030	-0.109
-737.054	-19.742	-0.092	-0.057
-736.039	800.000	-0.056	0.193
-735.025	162.288	-0.141	0.199
-734.010	271.805	0.031	-0.054
-732.996	-67.308	-0.214	-0.084
-731.981	-57.540	-0.117	-0.052
-730.966	-175.989	-0.142	0.004
-729.952	786.347	-0.031	0.086
-728.937	-200.000	-0.024	-0.136
-727.923	-115.109	-0.257	0.049
-726.908	333.765	-0.113	0.220
-725.894	-7.149	-0.138	0.094
-724.879	-87.841	-0.091	-0.027
-723.864	170.952	0.104	0.150
-722.850	-200.000	-0.023	-0.285
-721.835	-200.000	-0.017	0.176
-720.821	-79.131	0.110	-0.038
-719.806	349.299	-0.129	-0.256
-718.791	-200.000	-0.018	-0.080
-717.777	-200.000	-0.010	-0.345
-716.762	-14.636	0.020	-0.013
-715.748	462.290	0.142	-0.318
-714.733	-200.000	0.025	0.225
-713.718	431.007	-0.171	-0.372
-712.704	800.000	0.098	-0.383
-711.689	133.250	0.080	-0.103
-710.675	-18.202	-0.205	-0.129
-709.660	136.132	-0.175	-0.229
-708.645	-200.000	-0.053	0.302
-707.631	182.877	-0.052	-0.077
-706.616	800.000	0.034	-0.104
-705.602	64.675	-0.202	-0.204
-704.587	-200.000	-0.042	-0.277
-703.572	408.598	-0.077	-0.164
-702.558	-131.376	0.253	-0.034
-701.543	-63.078	-0.155	0.064
-700.529	90.669	0.140	-0.157
-699.514	77.319	-0.102	-0.109
-698.499	-147.770	-0.006	0.001
-697.485	-41.999	-0.237	0.122
-696.470	-15.473	-0.127	-0.081
-695.456	-95.861	-0.445	-0.119
-694.441	-149.219	-0.219	0.018
-693.426	-200.000	0.016	-0.289
-692.412	-92.098	0.370	0.105
-691.397	-157.298	0.098	-0.006
-690.383	-200.000	-0.043	-0.229
-689.368	41.428	0.122	-0.111
-688.354	30.540	-0.333	-0.286
-687.339	16.947	-0.166	-0.132
-686.324	11.686	-0.236	-0.182
-685.310	-200.000	-0.015	0.200
-684.295	-96.886	0.078	-0.021
-683.281	138.489	0.167	0.220
-682.266	-51.138	0.119	0.056
-681.251	800.000	0.057	-0.179
-680.237	111.765	0.151	0.183
-679.222	364.103	-0.158	-0.320
-678.208	-120.684	-0.202	-0.034
-677.193	132.011	-0.191	-0.247
-676.178	25.270	0.167	0.139
-675.164	-25.916	0.212	0.125
-674.149	397.110	-0.228	-0.478
-673.135	800.000	-0.132	-0.447
-672.120	-86.071	-0.082	-0.025
-671.105	8.124	0.021	0.016
-670.091	-200.000	-0.027	0.255
-669.076	731.630	-0.241	0.647
-668.062	-71.002	-0.030	-0.011
-667.047	5.745	-0.228	0.169
-666.032	-200.000	-0.012	-0.120
-665.018	-165.476	0.150	-0.007
-664.003	-131.944	0.180	-0.024
-662.989	391.067	0.064	0.132
-661.974	-14.651	0.126	-0.081
-660.959	56.936	0.079	-0.078
-659.945	170.044	-0.189	-0.271
-658.930	225.071	0.157	-0.255
-657.916	-140.073	-0.244	-0.026
-656.901	183.129	0.137	-0.203
-655.886	-66.318	0.077	0.031
-654.872	-200.000	-0.021	0.228
-653.857	-21.987	-0.177	0.108
-652.843	-121.630	0.227	-0.038
-651.828	-8.887	-0.225	0.151
-650.814	127.832	-0.069	0.088
-649.799	-157.163	0.453	0.028
-648.784	-200.000	-0.006	0.252
-647.770	81.496	-0.184	0.199
-646.755	-64.370	0.279	-0.114
-645.741	-200.000	0.043	-0.347
-644.726	-200.000	0.008	-0.263
-643.711	17.361	-0.138	-0.110
-642.697	-62.282	0.261	-0.109
-641.682	-50.571	-0.195	-0.092
-640.668	179.356	0.079	0.116
-639.653	75.732	0.169	-0.178
-638.638	-70.329	-0.103	-0.039
-637.624	-200.000	0.032	0.404
-636.609	64.069	0.259	0.261
-635.595	-77.431	0.166	0.058
-634.580	-99.205	-0.148	0.038
-633.565	166.245	0.112	-0.158
-632.551	-136.618	-0.420	-0.049
-631.536	-200.000	-0.021	-0.218
-630.522	-68.668	0.347	0.134
-629.507	-187.294	0.049	0.001
-628.492	-115.401	0.105	0.020
-627.478	169.714	-0.161	-0.230
-626.463	-59.633	-0.097	-0.042
-625.449	-174.014	-0.235	-0.007
-624.434	-200.000	0.001	0.051
-623.419	-161.408	-0.200	0.010
-622.405	-133.383	-0.273	-0.034
-621.390	800.000	0.026	-0.080
-620.376	-82.203	0.242	-0.079
-619.361	-200.000	0.045	-0.256
-618.346	154.382	-0.265	-0.364
-617.332	800.000	-0.048	-0.151
-616.317	-200.000	-0.025	0.237
-615.303	289.177	0.181	-0.328
-614.288	-200.000	0.010	-0.085
-613.273	6.141	0.291	-0.216
-612.259	601.435	-0.071	-0.177
-611.244	-200.000	0.022	0.216
-610.230	-69.406	-0.207	0.079
-609.215	-73.473	-0.235	-0.086
-608.201	235.789	0.164	0.271
-607.186	-200.000	-0.007	0.139
-606.171	410.644	0.062	0.132
-605.157	800.000	0.047	-0.142
-604.142	-87.807	0.268	0.081
-603.128	8.126	0.163	0.123
-602.113	-200.000	0.021	-0.116
-601.098	800.000	0.003	-0.011
-600.084	515.497	-0.090	-0.210
-599.069	-193.157	-0.192	0.002
-598.055	187.135	-0.100	0.149
-597.040	24.729	-0.280	-0.232
-596.025	-114.747	-0.158	-0.030
-595.011	39.965	-0.277	0.249
-593.996	-200.000	0.072	0.388
-592.982	-200.000	-0.008	0.253
-591.967	-200.000	0.009	-0.100
-590.952	800.000	0.060	-0.194
-589.938	-81.299	-0.186	0.061
-588.923	-200.000	-0.041	0.191
-587.909	800.000	0.085	0.274
-586.894	371.619	0.165	-0.335
-585.879	-125.766	-0.229	0.035
-584.865	-200.000	0.034	0.290
-583.850	35.521	0.199	0.174
-582.836	-172.841	0.293	0.009
-581.821	-82.294	0.160	-0.052
-580.806	-131.696	-0.377	-0.049
-579.792	355.179	-0.023	-0.045
-578.777	-84.656	0.144	0.045
-577.763	211.892	0.047	0.074
-576.748	57.117	0.244	0.238
-575.733	-22.821	-0.116	0.070
-574.719	-31.300	-0.125	0.070
-573.704	-60.789	-0.204	-0.086
-572.690	-143.352	0.117	0.011
-571.675	52.487	0.242	-0.231
-570.661	187.911	-0.141	0.210
-569.646	-123.237	0.043	0.007
-568.631	-86.535	0.197	0.060
-567.617	-200.000	-0.001	0.047
-566.602	-127.472	-0.277	-0.040
-565.588	-200.000	-0.034	0.199
-564.573	228.063	0.270	0.439
-563.558	7.078	0.155	0.115
-562.544	-200.000	-0.045	-0.253
-561.529	-200.000	-0.008	-0.122
-560.515	85.289	-0.103	0.113
-559.500	-200.000	0.011	-0.313
-558.485	251.623	-0.070	0.120
-557.471	3.394	-0.101	0.073
-556.456	-200.000	-0.002	0.391
-555.442	-47.174	0.331	0.161
-554.427	117.281	0.067	0.083
-553.412	800.000	-0.049	0.192
-552.398	113.401	0.129	0.157
-551.383	81.529	-0.238	-0.257
-550.369	85.908	-0.190	0.209
-549.354	-200.000	0.007	0.274
-548.339	-38.547	0.231	0.122
-547.325	155.506	-0.150	-0.207
-546.310	12.131	0.295	-0.227
-545.296	800.000	-0.067	-0.190
-544.281	-200.000	0.002	0.054
-543.266	16.801	0.254	0.201
-542.252	-23.457	-0.128	-0.077
-541.237	-62.773	0.182	0.075
-540.223	-200.000	-0.011	0.070
-539.208	-200.000	0.009	-0.345
-538.193	244.944	0.245	-0.411
-537.179	-87.699	-0.050	-0.015
-536.164	519.947	-0.045	-0.105
-535.150	-200.000	-0.021	-0.162
-534.135	800.000	-0.100	0.286
-533.121	-67.309	0.287	0.113
-532.106	-200.000	0.012	-0.072
-531.091	-43.440	-0.318	0.160
-530.077	158.614	-0.179	0.248
-529.062	-200.000	0.008	0.150
-528.048	-116.688	0.260	0.048
-527.033	-22.779	-0.179	-0.108
-526.018	544.672	0.090	-0.214
-525.004	-139.262	-0.086	0.009
-523.989	7.103	-0.087	-0.064
-522.975	-130.339	0.118	0.016
-521.960	-101.720	-0.317	-0.077
-520.945	110.286	0.064	-0.077
-519.931	-82.140	0.356	-0.116
-518.916	8.974	-0.218	0.164
-517.902	-70.500	0.223	0.084
-516.887	-30.450	0.129	-0.073
-515.872	-200.000	0.047	0.209
-514.858	800.000	-0.090	0.313
-513.843	590.974	0.058	-0.143
-512.829	643.058	-0.104	-0.265
-511.814	-145.595	-0.212	-0.019
-510.799	256.133	0.245	0.419
-509.785	171.520	0.064	0.091
-508.770	534.724	-0.048	0.114
-507.756	-142.299	-0.274	0.027
-506.741	-92.955	-0.370	0.103
-505.726	17.490	-0.290	0.230
-504.712	-90.926	0.302	0.087
-503.697	-100.448	-0.391	0.096
-502.683	105.959	-0.158	0.187
-501.668	260.101	0.134	0.231
-500.653	-200.000	0.010	-0.047
-499.639	-200.000	0.029	0.191
-498.624	-153.404	-0.395	-0.027
-497.610	-13.908	-0.179	-0.116
-496.595	-43.377	-0.022	0.011
-495.581	-136.758	0.089	0.010
-494.566	-116.716	0.247	0.045
-493.551	-200.000	-0.379	-0.001
-492.537	136.370	0.233	-0.302
-491.522	-176.069	0.257	-0.007
-490.508	287.699	0.169	0.304
-489.493	36.847	0.191	-0.168
-488.478	-82.349	-0.168	0.055
-487.464	800.000	0.085	0.295
-486.449	-140.048	0.686	-0.072
-485.435	-120.348	0.265	0.045
-484.420	800.000	0.015	-0.047
-483.405	417.128	0.150	-0.319
-482.391	588.601	-0.133	-0.325
-481.376	268.396	0.101	-0.177
-480.362	-86.075	-0.189	-0.058
-479.347	-200.000	-0.009	-0.080
-478.332	-88.996	-0.323	-0.095
-477.318	-57.490	0.200	0.088
-476.303	-200.000	-0.033	-0.184
-475.289	-200.000	0.051	-0.224
-474.274	413.029	0.028	-0.060
-473.259	-200.000	-0.003	0.016
-472.245	-173.232	0.136	0.004
-471.230	725.925	0.082	-0.217
-470.216	-156.180	-0.315	0.020
-469.201	-87.515	0.056	0.017
-468.186	-200.000	0.011	-0.164
-467.172	-119.324	0.112	0.019
-466.157	-200.000	0.018	-0.135
-465.143	-89.278	-0.339	0.099
-464.128	30.485	0.098	-0.083
-463.113	-200.000	-0.040	-0.191
-462.099	-118.035	0.151	0.027
-461.084	243.107	-0.128	0.213
-460.070	800.000	-0.077	0.308
-459.055	-80.934	-0.030	-0.010
-458.040	-118.069	0.057	0.010
-457.026	-200.000	-0.030	0.233
-456.011	423.203	-0.049	-0.105
-454.997	43.712	-0.241	-0.219
-453.982	127.536	0.127	0.161
-452.968	-39.605	0.155	-0.081
-451.953	94.274	-0.245	-0.277
-450.938	58.707	-0.265	-0.259
-449.924	-100.378	-0.168	-0.041
-448.909	116.952	0.140	0.171
-447.895	-35.396	-0.149	0.081
-446.880	800.000	0.066	0.263
-445.865	-71.269	0.152	-0.057
-444.851	-200.000	0.031	-0.257
-443.836	231.874	0.079	0.128
-442.822	-80.236	0.103	-0.034
-441.807	486.092	-0.116	-0.262
-440.792	704.742	0.082	0.216
-439.778	590.237	0.116	-0.285
-438.763	-200.000	-0.013	-0.261
-437.749	800.000	0.065	-0.197
-436.734	322.816	0.140	-0.265
-435.719	800.000	0.047	0.140
-434.705	-129.608	-0.354	-0.049
-433.690	-24.326	0.343	-0.203
-432.676	289.147	-0.155	-0.279
-431.661	-87.747	0.195	-0.058
-430.646	-46.401	-0.247	-0.120
-429.632	-200.000	0.029	-0.233
-428.617	800.000	0.057	-0.248
-427.603	63.783	0.138	0.138
-426.588	-32.239	0.296	0.164
-425.573	3.750	0.130	0.094
-424.559	-142.621	-0.172	-0.017
-423.544	513.579	0.055	-0.128
-422.530	800.000	0.116	0.414
-421.515	-95.250	-0.083	-0.022
-420.500	130.288	0.103	-0.132
-419.486	-138.129	0.442	-0.049
-418.471	-200.000	0.021	-0.124
-417.457	-19.755	0.154	0.094
-416.442	-200.000	0.016	0.120
-415.428	-57.905	-0.207	0.090
-414.413	-69.675	0.248	0.094
-413.398	800.000	-0.035	-0.147
-412.384	634.698	-0.117	0.296
-411.369	-200.000	0.000	0.238
-410.355	800.000	0.126	-0.460
-409.340	-200.000	0.033	0.201
-408.325	276.694	0.116	-0.204
-407.311	-38.047	0.223	-0.117
-406.296	-200.000	0.031	0.210
-405.282	-14.248	-0.212	0.135
-404.267	197.028	-0.158	0.238
-403.252	-79.641	-0.169	0.056
-402.238	-20.724	-0.183	0.111
-401.223	-55.281	-0.312	0.139
-400.209	-200.000	-0.007	0.174
-399.194	96.609	-0.139	0.158
-398.179	800.000	0.140	0.416
-397.165	-53.103	-0.380	0.173
-396.150	294.341	-0.140	-0.255
-395.136	-43.764	-0.311	0.156
-394.121	75.399	-0.084	-0.088
-393.106	609.368	-0.017	-0.043
-392.092	800.000	-0.107	0.414
-391.077	-63.043	-0.220	-0.090
-390.063	-149.567	0.232	-0.018
-389.048	117.566	0.111	-0.135
-388.033	434.259	-0.161	-0.346
-387.019	232.811	-0.081	-0.132
-386.004	800.000	-0.059	0.204
-384.990	-200.000	0.004	0.098
-383.975	-97.587	0.331	0.085
-382.960	48.910	0.225	0.210
-381.946	-12.273	-0.266	-0.172
-380.931	262.174	-0.048	0.083
-379.917	-153.134	0.052	-0.004
-378.902	201.953	-0.169	0.259
-377.888	20.852	0.088	-0.071
-376.873	-14.122	0.078	0.050
-375.858	-12.871	-0.280	-0.181
-374.844	-107.140	-0.334	0.073
-373.829	30.961	0.065	0.055
-372.815	-115.632	-0.048	-0.009
-371.800	38.697	-0.238	0.210
-370.785	800.000	0.037	-0.104
-369.771	471.605	0.090	0.201
-368.756	21.992	-0.130	0.105
-367.742	89.757	0.164	-0.181
-366.727	-0.120	0.152	-0.107
-365.712	-200.000	0.067	-0.353
-364.698	-200.000	0.006	-0.199
-363.683	-19.505	0.221	-0.136
-362.669	24.670	0.388	-0.318
-361.654	-53.841	0.076	0.034
-360.639	-120.087	-0.319	0.054
-359.625	7.634	0.243	-0.180
-358.610	-78.540	-0.131	-0.044
-357.596	-200.000	-0.009	0.125
-356.581	131.848	0.124	-0.158
-355.566	-10.571	0.104	-0.068
-354.552	-81.699	-0.305	0.099
-353.537	-200.000	-0.019	0.176
-352.523	-142.384	0.296	-0.029
-351.508	-67.524	0.394	-0.153
-350.493	800.000	0.073	-0.261
-349.479	800.000	-0.100	0.384
-348.464	-200.000	-0.028	0.402
-347.450	-109.745	-0.336	0.070
-346.435	-111.834	0.195	0.039
-345.420	174.045	0.248	-0.354
-344.406	79.747	0.071	0.075
-343.391	305.135	-0.142	-0.261
-342.377	-81.043	-0.126	0.041
-341.362	-200.000	0.025	-0.138
-340.348	150.236	-0.183	-0.246
-339.333	-7.257	-0.221	-0.148
-338.318	-200.000	0.007	-0.258
-337.304	-200.000	-0.044	0.212
-336.289	244.703	-0.074	0.123
-335.275	114.996	0.152	0.183
-334.260	-103.800	-0.011	0.002
-333.245	-142.397	0.289	-0.028
-332.231	67.530	0.171	0.173
-331.216	-170.739	-0.390	-0.013
-330.202	-80.778	-0.097	-0.032
-329.187	-200.000	-0.085	0.396
-328.172	40.143	0.039	-0.035
-327.158	800.000	-0.040	0.130
-326.143	-55.361	0.072	-0.032
-325.129	-200.000	0.180	0.000
-324.114	702.913	0.033	0.087
-323.099	-0.973	0.369	0.258
-322.085	800.000	-0.095	-0.354
-321.070	121.786	0.108	-0.134
-320.056	-83.501	0.017	-0.006
-319.041	-29.665	0.312	0.176
-318.026	-60.073	0.251	0.106
-317.012	14.318	-0.147	-0.113
-315.997	28.006	0.237	0.197
-314.983	-101.441	-0.156	0.038
-313.968	-127.735	-0.189	-0.027
-312.953	800.000	0.062	0.235
-311.939	-100.720	0.122	0.030
-310.924	62.660	0.155	0.153
-309.910	-14.896	0.141	0.089
-308.895	800.000	-0.114	-0.423
-307.880	-133.896	0.280	0.034
-306.866	315.247	0.084	-0.157
-305.851	130.185	-0.209	-0.265
-304.837	-200.000	-0.030	0.279
-303.822	-130.460	0.047	-0.006
-302.807	-108.649	0.261	-0.055
-301.793	-102.609	0.167	-0.039
-300.778	800.000	-0.023	-0.065
-299.764	800.000	0.056	-0.169
-298.749	-200.000	0.053	0.323
-297.735	8.117	-0.267	0.198
-296.720	250.434	-0.041	0.069
-295.705	465.479	-0.050	-0.110
-294.691	-200.000	-0.068	-0.332
-293.676	-200.000	-0.004	0.209
-292.662	800.000	0.025	-0.074
-291.647	-137.961	-0.085	0.009
-290.632	52.093	-0.143	-0.135
-289.618	-28.200	-0.029	0.017
-288.603	-107.526	0.123	0.027
-287.589	-200.000	-0.011	0.131
-286.574	-69.700	-0.170	0.064
-285.559	-48.395	0.189	-0.090
-284.545	364.446	0.021	-0.042
-283.530	259.324	0.186	0.318
-282.516	-96.830	0.265	0.069
-281.501	311.994	-0.106	0.196
-280.486	705.531	-0.069	0.180
-279.472	800.000	-0.030	-0.114
-278.457	-12.232	0.251	0.162
-277.443	800.000	0.041	-0.114
-276.428	44.552	-0.178	0.161
-275.413	39.845	-0.143	-0.127
-274.399	-200.000	0.016	0.162
-273.384	50.075	-0.145	-0.135
-272.370	-93.060	-0.148	0.041
-271.355	-200.000	-0.011	-0.401
-270.340	279.555	0.081	-0.143
-269.326	-111.005	-0.262	-0.053
-268.311	222.199	-0.180	-0.285
-267.297	-161.869	-0.041	0.002
-266.282	-61.979	0.355	-0.146
-265.267	-200.000	0.017	-0.158
-264.253	-124.016	-0.139	0.022
-263.238	-99.854	0.122	0.030
-262.224	134.400	-0.044	0.056
-261.209	-51.778	-0.122	-0.056
-260.195	356.212	-0.067	0.131
-259.180	-109.008	-0.187	-0.039
-258.165	198.467	0.190	-0.287
-257.151	-114.447	-0.197	0.037
-256.136	-90.931	-0.345	-0.098
-255.122	92.784	-0.186	0.208
-254.107	662.865	-0.033	-0.084
-253.092	488.830	0.109	0.245
-252.078	-108.617	-0.364	0.077
-251.063	323.491	-0.100	0.188
-250.049	-66.396	-0.136	-0.053
-249.034	-96.587	0.087	0.023
-248.019	-14.055	-0.271	0.173
-247.005	800.000	-0.163	-0.443
-245.990	162.931	-0.231	-0.320
-244.976	800.000	0.069	0.268
-243.961	-84.419	-0.118	0.037
-242.946	156.415	-0.068	0.092
-241.932	-200.000	-0.037	-0.179
-240.917	737.941	-0.141	-0.374
-239.903	-79.722	0.178	0.059
-238.888	-116.094	0.112	-0.021
-237.873	-83.953	-0.219	0.069
-236.859	430.697	0.191	-0.407
-235.844	1.862	0.058	-0.042
-234.830	-200.000	0.015	0.174
-233.815	667.787	0.060	0.153
-232.800	-200.000	-0.007	-0.030
-231.786	133.532	0.029	-0.037
-230.771	477.414	-0.076	0.170
-229.757	800.000	-0.019	-0.077
-228.742	30.903	-0.089	-0.075
-227.727	603.477	0.115	-0.281
-226.713	-52.379	0.413	-0.189
-225.698	250.939	-0.077	0.129
-224.684	37.475	0.214	-0.187
-223.669	216.996	-0.146	0.230
-222.655	-160.743	0.363	0.019
-221.640	800.000	-0.038	-0.149
-220.625	29.745	0.246	0.207
-219.611	471.039	-0.096	0.212
-218.596	-77.242	-0.211	0.072
-217.582	-110.386	0.270	0.055
-216.567	21.105	0.272	0.217
-215.552	-200.000	0.018	0.131
-214.538	-87.745	0.063	-0.019
-213.523	96.008	0.122	-0.138
-212.509	-12.509	-0.147	0.094
-211.494	800.000	-0.023	-0.082
-210.479	-1.592	0.040	0.028
-209.465	-34.451	-0.207	-0.112
-208.450	-21.807	-0.209	0.125
-207.436	-84.593	0.215	0.067
-206.421	-200.000	-0.012	-0.124
-205.406	-168.987	-0.273	-0.010
-204.392	286.035	0.125	0.221
-203.377	464.107	0.078	0.171
-202.363	-40.249	0.256	-0.131
-201.348	470.171	0.072	-0.159
-200.333	-200.000	-0.014	-0.271
-199.319	95.805	0.087	0.097
-198.304	20.628	0.232	-0.185
-197.290	-62.060	-0.062	-0.025
-196.275	62.792	0.095	0.094
-195.260	98.411	-0.192	-0.217
-194.246	800.000	0.021	-0.066
-193.231	132.259	-0.223	0.283
-192.217	-200.000	0.057	0.311
-191.202	38.259	0.189	0.165
-190.187	38.752	-0.099	0.087
-189.173	42.563	-0.170	-0.152
-188.158	-129.395	0.185	0.025
-187.144	-30.062	-0.025	-0.014
-186.129	-118.233	-0.155	-0.027
-185.114	-39.432	-0.098	0.050
-184.100	-49.058	-0.166	0.078
-183.085	87.151	-0.131	0.143
-182.071	43.956	-0.199	0.179
-181.056	-200.000	-0.007	-0.162
-180.042	-93.458	0.291	0.079
-179.027	148.236	-0.080	-0.106
-178.012	289.793	0.101	-0.180
-176.998	-200.000	-0.034	-0.226
-175.983	-112.349	0.053	-0.010
-174.969	-200.000	-0.047	-0.315
-173.954	-132.611	-0.274	0.035
-172.939	800.000	0.053	0.179
-171.925	173.170	0.046	0.065
-170.910	800.000	0.041	0.123
-169.896	800.000	-0.078	-0.239
-168.881	-41.825	0.117	-0.059
-167.866	800.000	-0.051	0.172
-166.852	800.000	0.080	-0.261
-165.837	-57.384	-0.313	-0.135
-164.823	67.829	0.257	0.258
-163.808	-200.000	-0.005	0.339
-162.793	800.000	0.052	0.149
-161.779	725.725	-0.049	-0.128
-160.764	33.542	-0.173	-0.148
-159.750	-43.536	0.200	-0.099
-158.735	800.000	0.108	0.333
-157.720	-106.399	-0.560	-0.123
-156.706	800.000	0.102	-0.324
-155.691	2.281	0.257	0.183
-154.677	72.501	-0.052	-0.053
-153.662	-200.000	0.045	-0.287
-152.647	-40.114	-0.251	0.129
-151.633	48.284	-0.247	-0.227
-150.618	38.592	0.097	0.085
-149.604	-92.058	-0.310	0.086
-148.589	-72.941	0.364	-0.132
-147.574	-76.917	-0.295	-0.101
-146.560	800.000	0.048	0.141
-145.545	89.651	-0.153	0.168
-144.531	-1.816	0.253	-0.175
-143.516	61.862	0.121	-0.119
-142.502	-89.607	0.311	0.090
-141.487	103.193	-0.162	-0.187
-140.472	-200.000	0.074	-0.460
-139.458	31.117	0.178	-0.150
-138.443	86.505	-0.081	0.088
-137.429	260.246	-0.064	0.108
-136.414	-200.000	0.010	-0.246
-135.399	-200.000	0.027	-0.233
-134.385	114.499	-0.093	0.111
-133.370	143.793	0.237	-0.310
-132.356	34.114	-0.090	-0.077
-131.341	-10.883	-0.190	0.123
-130.326	108.264	0.155	-0.182
-129.312	527.850	-0.136	-0.314
-128.297	11.808	0.142	-0.107
-127.283	-125.782	0.258	0.038
-126.268	-124.782	0.209	-0.032
-125.253	379.081	-0.190	-0.381
-124.239	-200.000	-0.024	-0.118
-123.224	168.201	-0.067	-0.093
-122.210	359.274	0.067	0.132
-121.195	800.000	0.012	0.039
-120.180	-127.264	0.168	-0.024
-119.166	-200.000	0.040	-0.338
-118.151	-151.802	0.341	0.025
-117.137	121.629	0.255	0.312
-116.122	769.700	-0.084	0.224
-115.107	277.574	0.112	0.195
-114.093	800.000	0.030	-0.123
-113.078	800.000	-0.112	-0.307
-112.064	-200.000	-0.008	0.072
-111.049	-66.594	0.172	-0.067
-110.034	68.375	-0.206	-0.207
-109.020	-102.142	0.128	-0.030
-108.005	800.000	0.069	-0.246
-106.991	-34.237	-0.102	-0.055
-105.976	34.077	0.156	0.134
-104.962	-200.000	-0.013	0.153
-103.947	86.600	-0.173	0.187
-102.932	-38.997	0.110	0.057
-101.918	102.390	-0.118	-0.136
-100.903	84.386	0.139	0.150
-99.889	-200.000	0.045	-0.195
-98.874	84.829	-0.219	-0.235
-97.859	279.708	-0.105	-0.183
-96.845	-33.543	-0.319	-0.173
-95.830	-60.573	-0.152	-0.063
-94.816	-64.795	0.201	-0.080
-93.801	279.518	0.042	0.074
-92.786	36.428	-0.110	0.095
-91.772	303.323	-0.036	-0.065
-90.757	-83.364	0.212	-0.067
-89.743	800.000	-0.090	-0.360
-88.728	107.298	-0.118	-0.138
-87.713	114.205	0.169	-0.201
-86.699	70.198	0.123	0.125
-85.684	9.655	-0.325	-0.241
-84.670	-82.942	0.275	0.087
-83.655	-200.000	-0.041	-0.349
-82.640	61.464	0.093	0.090
-81.626	238.449	-0.149	-0.242
-80.611	800.000	-0.033	-0.125
-79.597	703.118	0.138	-0.356
-78.582	69.787	0.326	-0.329
-77.567	-200.000	-0.038	-0.293
-76.553	800.000	0.068	-0.233
-75.538	711.439	0.078	-0.202
-74.524	-76.315	-0.122	-0.042
-73.509	245.649	0.022	0.036
-72.494	340.583	-0.231	-0.442
-71.480	-44.152	0.134	-0.066
-70.465	-200.000	0.016	0.068
-69.451	-200.000	-0.021	-0.141
-68.436	46.432	0.115	0.104
-67.422	800.000	0.066	-0.239
-66.407	-29.644	0.266	0.149
-65.392	-200.000	0.008	0.227
-64.378	555.720	-0.076	0.180
-63.363	-200.000	0.022	-0.294
-62.349	511.695	0.066	0.150
-61.334	176.043	-0.927	-1.317
-60.319	49.165	0.608	0.559
-59.305	-200.000	0.135	-1.365
-58.290	80.947	0.950	1.004
-57.276	197.702	0.812	1.215
-56.261	-200.000	109.242	590.579
-55.246	411.681	1531.646	3183.919
-54.232	137.002	2752.691	3522.090
-53.217	96.244	2341.729	2621.725
-52.203	37.396	1939.741	1683.538
-51.188	31.462	1723.748	1450.170
-50.173	28.925	1680.469	1394.491
-49.159	47.827	1735.647	1586.506
-48.144	47.832	1751.560	1601.025
-47.130	31.161	1707.297	1433.785
-46.115	28.412	1692.844	1400.615
-45.100	28.235	1687.606	1394.882
-44.086	28.205	1685.203	1392.609
-43.071	28.186	1682.059	1389.810
-42.057	28.268	1679.488	1388.256
-41.042	28.174	1677.935	1386.203
-40.027	28.266	1675.274	1384.647
-39.013	28.234	1673.599	1382.964
-37.998	28.222	1672.137	1381.609
-36.984	28.199	1671.008	1380.446
-35.969	28.354	1669.411	1380.241
-34.954	28.337	1667.992	1378.888
-33.940	28.357	1666.270	1377.557
-32.925	28.333	1664.412	1375.790
-31.911	28.355	1662.406	1374.244
-30.896	28.367	1661.015	1373.127
-29.881	28.370	1658.918	1371.360
-28.867	28.280	1657.450	1369.421
-27.852	28.325	1656.309	1368.758
-26.838	28.418	1654.460	1367.868
-25.823	28.380	1653.463	1366.712
-24.809	28.389	1651.797	1365.346
-23.794	28.432	1650.145	1364.244
-22.779	28.481	1648.888	1363.515
-21.765	28.379	1647.536	1361.590
-20.750	28.348	1646.136	1360.144
-19.736	28.410	1644.578	1359.262
-18.721	28.412	1643.145	1358.041
-17.706	28.370	1641.510	1356.323
-16.692	28.482	1640.145	1355.972
-15.677	28.448	1638.730	1354.498
-14.663	28.495	1637.290	1353.598
-13.648	28.493	1635.524	1352.072
-12.633	28.408	1634.453	1350.506
-11.619	28.471	1632.587	1349.376
-10.604	28.410	1631.428	1347.911
-9.590	28.434	1629.984	1346.844
-8.575	28.458	1628.902	1346.071
-7.560	28.433	1627.628	1344.781
-6.546	28.412	1626.461	1343.609
-5.531	28.306	1625.305	1341.826
-4.517	28.362	1623.868	1340.999
-3.502	28.458	1622.774	1340.740
-2.487	28.431	1621.264	1339.243
-1.473	28.418	1611.036	1330.649
-0.458	26.402	1592.223	1300.574
0.556	22.103	1593.601	1270.743
1.571	19.441	1616.880	1269.630
2.586	18.508	1628.476	1271.702
3.600	16.661	1574.230	1215.978
4.615	9.600	1462.274	1082.121
5.629	2.405	1398.024	988.151
6.644	0.964	1390.224	973.294
7.659	0.903	1389.096	972.027
8.673	0.939	1387.928	971.355
9.688	0.833	1385.834	969.125
10.702	0.691	1382.270	965.638
11.717	3.763	1387.351	988.777
12.731	11.205	1399.041	1044.899
13.746	16.249	1405.714	1082.208
14.761	17.275	1406.347	1089.178
15.775	16.754	1404.261	1084.133
16.790	15.732	1401.972	1075.733
17.804	14.898	1399.634	1068.516
18.819	14.621	1397.765	1065.227
19.834	14.361	1396.714	1062.676
20.848	13.983	1395.511	1059.257
21.863	13.843	1393.912	1057.059
22.877	13.513	1392.698	1053.942
23.892	13.548	1391.812	1053.400
24.907	13.637	1391.068	1053.308
25.921	13.527	1390.275	1051.918
26.936	13.600	1389.100	1051.396
27.950	13.658	1388.050	1050.882
28.965	13.778	1387.192	1050.896
29.980	13.789	1386.220	1050.140
30.994	13.748	1385.405	1049.171
32.009	13.815	1384.350	1048.699
33.023	13.837	1383.288	1047.942
34.038	13.860	1381.606	1046.718
35.053	13.775	1381.051	1045.672
36.067	13.746	1379.880	1044.506
37.082	13.799	1378.867	1043.984
38.096	13.776	1377.739	1042.891
39.111	13.730	1377.063	1042.001
40.126	13.662	1376.212	1040.835
41.140	13.555	1375.599	1039.609
42.155	13.543	1375.092	1039.060
43.169	13.553	1374.866	1038.858
44.184	13.502	1374.808	1038.401
45.199	13.513	1374.215	1037.931
46.213	13.686	1373.221	1038.171
47.228	13.730	1372.520	1037.828
48.242	13.683	1371.311	1036.529
49.257	13.572	1370.017	1034.763
50.271	13.682	1368.262	1034.033
51.286	13.738	1366.818	1033.196
52.301	13.624	1365.650	1031.513
53.315	13.604	1364.780	1030.641
54.330	13.624	1363.758	1029.904
55.344	13.671	1362.512	1029.161
56.359	13.576	1361.598	1027.792
57.374	13.523	1361.004	1026.923
58.388	13.561	1360.168	1026.435
59.403	13.558	1359.521	1025.839
60.417	13.590	1358.521	1025.192
61.432	13.634	1357.427	1024.550
62.447	13.609	1356.326	1023.471
63.461	13.622	1355.012	1022.469
64.476	13.430	1354.583	1020.869
65.490	13.526	1352.880	1020.087
66.505	13.564	1351.698	1019.342
67.520	13.604	1350.307	1018.448
68.534	13.513	1349.717	1017.355
69.549	13.531	1348.146	1016.189
70.563	13.628	1346.949	1015.790
71.578	13.501	1345.740	1014.013
72.593	13.526	1344.720	1013.306
73.607	13.511	1344.027	1012.602
74.622	13.454	1343.312	1011.626
75.636	13.522	1342.331	1011.215
76.651	13.534	1341.147	1010.307
77.666	13.462	1340.756	1009.481
78.680	13.496	1340.365	1009.310
79.695	13.549	1339.368	1008.790
80.709	13.437	1339.158	1007.861
81.724	13.565	1338.067	1007.728
82.739	13.604	1336.720	1006.865
83.753	13.601	1335.742	1006.016
84.768	13.708	1334.383	1005.558
85.782	13.743	1333.142	1004.742
86.797	13.719	1331.426	1003.217
87.812	13.654	1330.562	1002.084
88.826	13.537	1329.904	1000.792
89.841	13.589	1328.639	1000.064
90.855	13.782	1327.607	1000.362
91.870	13.733	1326.786	999.358
92.884	13.761	1326.004	998.853
93.899	13.792	1325.177	998.325
94.914	13.684	1324.600	997.152
95.928	13.767	1323.593	996.808
96.943	13.743	1322.862	996.023
97.957	13.716	1321.722	994.917
98.972	13.634	1320.631	993.518
99.987	13.687	1319.591	992.960
101.001	13.821	1318.407	992.783
102.016	13.688	1317.354	991.107
103.030	13.734	1316.262	990.475
104.045	13.746	1315.542	989.915
105.060	13.701	1314.487	988.767
106.074	13.666	1312.747	987.163
107.089	13.563	1312.099	985.973
108.103	13.634	1310.171	984.858
109.118	13.524	1309.413	983.550
110.133	13.636	1307.767	982.892
111.147	13.705	1306.163	982.008
112.162	13.625	1304.979	980.556
113.176	13.609	1304.838	980.272
114.191	13.663	1303.176	979.252
115.206	13.736	1301.861	978.609
116.220	13.670	1300.511	977.120
117.235	13.652	1299.466	976.143
118.249	13.699	1298.082	975.291
119.264	13.715	1297.036	974.516
120.279	13.598	1295.902	972.891
121.293	13.616	1294.717	972.020
122.308	13.710	1293.406	971.501
123.322	13.645	1292.969	970.705
124.337	13.643	1291.691	969.646
125.352	13.622	1290.630	968.646
126.366	13.639	1289.312	967.669
127.381	13.610	1288.746	966.984
128.395	13.700	1287.066	966.167
129.410	13.578	1286.541	964.976
130.424	13.605	1285.525	964.285
131.439	13.723	1284.464	964.091
132.454	13.791	1283.328	963.549
133.468	13.761	1282.274	962.495
134.483	13.658	1281.885	961.521
135.497	13.715	1280.506	960.730
136.512	13.742	1278.881	959.584
137.527	13.760	1277.698	958.716
138.541	13.725	1276.419	957.470
139.556	13.716	1274.923	956.209
140.570	13.673	1274.292	955.405
141.585	13.870	1272.593	955.182
142.600	13.805	1271.429	953.847
143.614	13.911	1270.753	953.866
144.629	13.825	1269.460	952.320
145.643	13.886	1268.263	951.688
146.658	13.763	1267.292	950.167
147.673	13.730	1266.427	949.247
148.687	13.775	1264.553	948.016
149.702	13.784	1263.188	946.956
150.716	13.767	1262.073	945.940
151.731	13.718	1261.263	944.974
152.746	13.816	1259.340	944.005
153.760	13.874	1258.352	943.514
154.775	13.903	1257.426	942.896
155.789	13.762	1256.426	941.263
156.804	13.916	1255.151	941.101
157.819	13.958	1254.267	940.590
158.833	13.977	1253.163	939.789
159.848	13.940	1252.921	939.311
160.862	13.905	1251.347	937.852
161.877	13.947	1249.982	936.982
162.892	14.051	1248.917	936.691
163.906	13.943	1248.021	935.327
164.921	13.807	1247.810	934.321
165.935	13.974	1246.525	934.211
166.950	13.948	1245.515	933.228
167.964	14.000	1245.289	933.267
168.979	13.948	1244.373	932.205
169.994	13.951	1243.940	931.815
171.008	14.101	1242.908	931.804
172.023	13.978	1242.099	930.426
173.037	14.105	1240.763	930.053
174.052	14.122	1239.865	929.393
175.067	14.038	1238.973	928.173
176.081	13.997	1237.907	927.060
177.096	13.996	1237.578	926.727
178.110	14.075	1236.192	926.050
179.125	14.030	1235.034	924.846
180.140	14.121	1233.383	924.034
181.154	14.192	1232.284	923.526
182.169	14.103	1231.375	922.266
183.183	14.265	1229.501	921.679
184.198	14.226	1228.516	920.646
185.213	14.309	1227.258	920.079
186.227	14.274	1226.275	919.065
187.242	14.264	1225.343	918.232
188.256	14.252	1224.538	917.483
189.271	14.303	1223.746	917.088
190.286	14.198	1222.273	915.326
191.300	14.105	1221.852	914.418
192.315	14.140	1221.842	914.519
193.329	14.158	1220.800	913.757
194.344	14.165	1219.949	913.078
195.359	14.178	1219.264	912.559
196.373	14.213	1218.814	912.335
197.388	14.327	1218.511	912.649
198.402	14.290	1218.056	912.026
199.417	14.315	1216.926	911.235
200.432	14.412	1216.004	910.994
201.446	14.470	1215.139	910.584
202.461	14.490	1214.285	909.969
203.475	14.377	1213.321	908.554
204.490	14.490	1211.916	908.033
205.504	14.442	1210.534	906.659
206.519	14.477	1209.397	905.915
207.534	14.421	1208.539	904.892
208.548	14.460	1207.206	904.022
209.563	14.465	1206.107	903.146
210.577	14.689	1205.210	903.609
211.592	14.628	1204.754	902.858
212.607	14.552	1204.068	901.850
213.621	14.672	1202.840	901.499
214.636	14.607	1202.099	900.512
215.650	14.656	1201.247	900.060
216.665	14.684	1200.182	899.334
217.680	14.731	1199.199	898.769
218.694	14.668	1198.746	898.014
219.709	14.631	1197.800	897.027
220.723	14.595	1197.155	896.269
221.738	14.666	1196.474	896.064
222.753	14.669	1195.437	895.221
223.767	14.734	1194.745	894.971
224.782	14.805	1194.390	895.008
225.796	14.806	1193.355	894.156
226.811	14.753	1193.125	893.622
227.826	14.788	1191.781	892.727
228.840	14.824	1191.606	892.706
229.855	14.818	1190.466	891.741
230.869	14.864	1189.659	891.302
231.884	14.835	1188.840	890.456
232.899	14.824	1187.883	889.602
233.913	14.716	1187.662	888.785
234.928	14.669	1186.836	887.836
235.942	14.780	1185.910	887.656
236.957	14.829	1185.416	887.469
237.972	14.801	1184.685	886.692
238.986	14.902	1183.805	886.491
240.001	14.736	1183.422	885.245
241.015	14.756	1182.754	884.775
242.030	14.825	1181.355	884.013
243.045	14.872	1180.782	883.755
244.059	14.982	1179.466	883.272
245.074	14.900	1178.609	882.120
246.088	15.017	1178.229	882.373
247.103	14.955	1177.189	881.190
248.117	15.108	1175.978	881.014
249.132	15.064	1175.727	880.515
250.147	15.118	1175.002	880.178
251.161	15.171	1174.220	879.794
252.176	15.149	1173.470	879.036
253.190	15.201	1172.935	878.833
254.205	15.323	1172.247	878.878
255.220	15.222	1171.594	877.781
256.234	15.368	1170.619	877.736
257.249	15.326	1170.333	877.228
258.263	15.209	1169.944	876.247
259.278	15.378	1168.786	876.182
260.293	15.398	1168.577	876.053
261.307	15.424	1167.824	875.545
262.322	15.455	1167.157	875.130
263.336	15.381	1166.479	874.161
264.351	15.522	1165.748	874.266
265.366	15.455	1165.334	873.531
266.380	15.479	1164.616	873.042
267.395	15.401	1163.735	871.896
268.409	15.420	1163.575	871.798
269.424	15.486	1162.221	871.050
270.439	15.442	1161.814	870.442
271.453	15.544	1160.960	870.253
272.468	15.455	1160.389	869.284
273.482	15.468	1159.718	868.772
274.497	15.545	1158.818	868.418
275.512	15.585	1158.137	868.041
276.526	15.455	1157.708	866.973
277.541	15.568	1156.572	866.624
278.555	15.632	1155.912	866.385
279.570	15.638	1155.387	865.947
280.585	15.575	1154.601	864.953
281.599	15.643	1153.206	864.185
282.614	15.631	1152.418	863.455
283.628	15.710	1151.441	863.051
284.643	15.653	1150.635	862.079
285.657	15.729	1149.535	861.567
286.672	15.742	1148.205	860.560
287.687	15.810	1147.573	860.360
288.701	15.623	1147.473	859.251
289.716	15.724	1146.392	858.883
290.730	15.711	1145.734	858.249
291.745	15.722	1144.987	857.666
292.760	15.740	1144.474	857.301
293.774	15.860	1143.545	857.141
294.789	15.824	1143.440	856.801
295.803	15.868	1142.368	856.144
296.818	15.929	1141.490	855.724
297.833	15.939	1140.629	855.052
298.847	15.946	1139.976	854.522
299.862	15.983	1138.893	853.824
300.876	15.954	1138.660	853.424
301.891	15.942	1137.905	852.723
302.906	16.043	1137.163	852.602
303.920	16.047	1136.375	851.956
304.935	16.033	1136.058	851.575
305.949	16.155	1135.330	851.570
306.964	16.233	1134.054	850.927
307.979	16.114	1133.778	850.047
308.993	16.114	1132.991	849.378
310.008	16.113	1132.010	848.566
311.022	16.171	1131.335	848.277
312.037	16.282	1130.018	847.770
313.052	16.169	1129.942	847.069
314.066	16.152	1128.823	846.071
315.081	16.061	1128.322	845.166
316.095	16.141	1127.293	844.720
317.110	16.219	1126.136	844.170
318.125	16.207	1125.926	843.879
319.139	16.074	1125.482	842.802
320.154	16.115	1124.610	842.284
321.168	16.170	1123.811	841.884
322.183	16.262	1123.054	841.702
323.197	16.122	1122.726	840.683
324.212	16.218	1121.812	840.403
325.227	16.290	1121.358	840.347
326.241	16.339	1120.572	839.928
327.256	16.328	1119.796	839.216
328.270	16.316	1118.328	837.980
329.285	16.268	1118.036	837.450
330.300	16.272	1117.128	836.718
331.314	16.298	1116.328	836.171
332.329	16.312	1115.525	835.563
333.343	16.398	1114.471	835.125
334.358	16.334	1113.367	833.907
335.373	16.450	1112.641	833.865
336.387	16.495	1111.670	833.283
337.402	16.384	1111.449	832.496
338.416	16.369	1111.149	832.128
339.431	16.398	1110.339	831.589
340.446	16.439	1109.367	830.990
341.460	16.608	1108.626	831.192
342.475	16.652	1107.514	830.500
343.489	16.556	1106.775	829.400
344.504	16.598	1106.176	829.084
345.519	16.641	1105.340	828.596
346.533	16.730	1104.519	828.339
347.548	16.664	1103.933	827.506
348.562	16.808	1102.893	827.355
349.577	16.732	1102.292	826.464
350.592	16.619	1101.545	825.279
351.606	16.690	1100.508	824.772
352.621	16.679	1099.943	824.221
353.635	16.821	1099.158	824.254
354.650	16.747	1098.247	823.135
355.665	16.591	1098.089	822.187
356.679	16.730	1097.283	822.189
357.694	16.720	1096.503	821.480
358.708	16.829	1096.081	821.620
359.723	16.869	1095.166	821.057
360.738	16.808	1094.431	820.138
361.752	16.764	1094.310	819.762
362.767	16.893	1093.082	819.392
363.781	16.852	1092.983	819.047
364.796	16.882	1092.259	818.577
365.810	16.947	1091.709	818.405
366.825	16.956	1091.151	817.959
367.840	16.982	1090.599	817.599
368.854	17.066	1089.779	817.313
369.869	16.919	1089.461	816.299
370.883	16.955	1088.542	815.709
371.898	17.036	1087.619	815.335
372.913	17.049	1086.764	814.684
373.927	17.024	1086.565	814.341
374.942	17.056	1085.957	813.967
375.956	17.179	1085.398	814.068
376.971	17.188	1084.651	813.477
377.986	17.196	1084.380	813.242
379.000	17.153	1084.167	812.805
380.015	17.259	1083.224	812.530
381.029	17.183	1082.598	811.624
382.044	17.142	1081.973	810.892
383.059	17.370	1080.748	810.987
384.073	17.198	1080.245	809.721
385.088	17.240	1079.418	809.225
386.102	17.275	1078.685	808.771
387.117	17.232	1077.813	807.844
388.132	17.236	1076.812	807.038
389.146	17.336	1076.224	807.004
390.161	17.372	1075.141	806.289
391.175	17.279	1074.200	805.070
392.190	17.290	1073.957	804.871
393.205	17.403	1073.166	804.741
394.219	17.531	1072.176	804.533
395.234	17.426	1071.323	803.326
396.248	17.417	1070.186	802.360
397.263	17.430	1069.279	801.670
398.278	17.368	1068.850	800.986
399.292	17.369	1068.204	800.436
400.307	17.373	1067.485	799.845
401.321	17.410	1067.150	799.697
402.336	17.415	1066.240	798.969
403.350	17.333	1065.741	798.137
404.365	17.427	1064.556	797.620
405.380	17.579	1063.985	797.835
406.394	17.609	1063.372	797.445
407.409	17.631	1062.450	796.784
408.423	17.694	1061.756	796.489
409.438	17.636	1061.270	795.782
410.453	17.529	1060.695	794.784
411.467	17.600	1059.847	794.406
412.482	17.676	1058.997	794.051
413.496	17.734	1058.020	793.520
414.511	17.667	1057.380	792.660
415.526	17.674	1057.136	792.440
416.540	17.819	1056.921	792.881
417.555	17.711	1056.254	791.808
418.569	17.701	1056.126	791.596
419.584	17.881	1055.417	791.832
420.599	17.902	1054.770	791.374
421.613	105.196	1325.997	1474.224
422.628	96.962	1365.467	1474.323
