DTS Sentinel unit serial number:	SN413079Multiplexer serial number:	ORYXHardware model number:	OX4-SRSoftware version number:	ORYX F/W v4.00 Oryx Data Collector v3.7.2.0data status	okinstallation	princeton_trtdifferential loss correction	single-endedforward channel	channel 2reverse channel	N/Adate	2019/09/13time	04:43:35forward acquisition time	60.00reverse acquisition time	0.00gamma	496.2192k internal	0.2337k external	0.2337temperature offset calibration	1.0191default loss term (dB/km)	0.3790temperature slope calibration	1.0000multiplexer offset coefficient	1.0000multiplexer slope coefficient	1.0000fibre end	0.00T internal ref (°C)	26.62T ext. ref 1 (°C)	4.05T ext. ref 2 (°C)	21.21length (m)	temperature (°C)	Stokes	anti-Stokes-747.200	-200.000	0.001	0.043
-746.185	122.938	-0.024	0.030
-745.171	-200.000	0.022	-0.187
-744.156	-200.000	-0.009	0.181
-743.142	-41.329	0.543	0.281
-742.127	12.874	-0.246	0.191
-741.112	-200.000	-0.022	-0.146
-740.098	-102.050	0.190	0.046
-739.083	262.135	-0.151	0.263
-738.069	-40.965	-0.220	0.114
-737.054	-200.000	0.002	-0.217
-736.039	-128.664	-0.307	-0.044
-735.025	408.934	-0.101	0.216
-734.010	191.303	0.124	0.188
-732.996	800.000	-0.100	-0.367
-731.981	-54.593	-0.329	-0.149
-730.966	-33.396	0.234	-0.130
-729.952	-66.194	0.160	-0.064
-728.937	-113.704	0.126	0.025
-727.923	486.136	-0.176	-0.402
-726.908	-69.385	0.293	-0.113
-725.894	-23.941	-0.316	0.190
-724.879	87.541	0.045	0.050
-723.864	301.605	0.107	-0.199
-722.850	-27.684	-0.111	-0.064
-721.835	800.000	-0.098	-0.381
-720.821	-93.034	0.491	-0.137
-719.806	-49.545	-0.271	-0.130
-718.791	-2.706	-0.108	0.076
-717.777	800.000	-0.083	-0.295
-716.762	370.086	0.028	0.056
-715.748	82.062	-0.179	-0.194
-714.733	642.921	-0.045	-0.114
-713.718	56.052	0.066	-0.064
-712.704	-147.632	-0.215	0.018
-711.689	29.788	0.287	-0.245
-710.675	500.908	0.031	0.071
-709.660	19.469	-0.311	-0.251
-708.645	-200.000	0.005	0.214
-707.631	800.000	0.019	-0.061
-706.616	-92.896	-0.128	0.036
-705.602	711.014	0.042	-0.110
-704.587	148.350	-0.082	-0.111
-703.572	-98.599	-0.330	0.084
-702.558	-39.870	0.163	-0.085
-701.543	-46.948	-0.306	-0.150
-700.529	800.000	-0.034	0.132
-699.514	-128.976	-0.186	0.026
-698.499	-200.000	-0.044	-0.343
-697.485	-200.000	0.004	0.042
-696.470	36.579	-0.188	-0.167
-695.456	-57.264	0.196	0.086
-694.441	-47.700	-0.087	-0.042
-693.426	-20.698	-0.289	-0.177
-692.412	-106.968	0.188	-0.042
-691.397	3.585	0.239	-0.175
-690.383	800.000	0.040	-0.148
-689.368	-12.000	-0.146	0.096
-688.354	-200.000	-0.015	0.099
-687.339	-72.473	0.217	-0.080
-686.324	-63.803	-0.138	0.057
-685.310	-60.129	0.377	-0.161
-684.295	-8.566	-0.247	0.166
-683.281	-55.978	0.292	-0.130
-682.266	395.348	0.158	-0.330
-681.251	97.852	0.131	-0.151
-680.237	217.196	-0.111	-0.178
-679.222	-4.761	-0.228	-0.158
-678.208	187.469	-0.105	-0.156
-677.193	109.454	-0.152	-0.183
-676.178	93.537	-0.092	-0.104
-675.164	800.000	0.051	-0.216
-674.149	-76.074	0.236	-0.083
-673.135	-67.946	-0.271	-0.106
-672.120	-142.933	0.251	0.024
-671.105	-200.000	0.019	-0.383
-670.091	-80.781	-0.279	-0.093
-669.076	-140.756	0.463	-0.048
-668.062	-164.796	-0.537	0.024
-667.047	-123.124	0.188	-0.030
-666.032	-90.818	0.201	0.058
-665.018	-140.998	-0.250	-0.026
-664.003	-64.799	-0.217	-0.088
-662.989	800.000	-0.047	0.163
-661.974	10.625	0.124	0.094
-660.959	800.000	-0.041	0.170
-659.945	161.414	0.100	-0.139
-658.930	96.548	0.218	0.249
-657.916	799.469	0.073	-0.201
-656.901	67.754	-0.170	0.174
-655.886	356.920	-0.104	-0.207
-654.872	-55.632	-0.146	-0.065
-653.857	-133.419	0.297	-0.037
-652.843	190.122	0.097	-0.146
-651.828	57.906	-0.159	-0.156
-650.814	69.516	0.089	-0.092
-649.799	-56.159	0.165	0.073
-648.784	800.000	-0.038	-0.150
-647.770	800.000	-0.055	0.161
-646.755	248.649	-0.066	-0.112
-645.741	800.000	0.040	-0.132
-644.726	522.385	-0.065	-0.153
-643.711	-134.241	0.125	-0.015
-642.697	-62.326	0.288	0.120
-641.682	118.043	-0.057	-0.070
-640.668	199.054	-0.144	-0.221
-639.653	800.000	0.031	0.102
-638.638	-200.000	-0.019	0.262
-637.624	-80.285	0.066	-0.022
-636.609	-135.506	0.218	0.026
-635.595	-200.000	0.052	0.393
-634.580	-58.122	-0.438	-0.191
-633.565	-200.000	-0.033	0.362
-632.551	194.987	0.078	-0.119
-631.536	-85.954	0.094	-0.029
-630.522	800.000	-0.027	0.101
-629.507	79.917	-0.093	0.100
-628.492	-117.750	0.110	-0.020
-627.478	-82.918	-0.280	0.090
-626.463	-200.000	-0.009	0.193
-625.449	88.777	-0.155	-0.172
-624.434	-162.895	0.244	-0.012
-623.419	-74.459	0.206	-0.074
-622.405	-41.967	-0.139	0.071
-621.390	4.695	0.209	-0.154
-620.376	451.485	0.012	-0.026
-619.361	45.239	-0.296	0.273
-618.346	18.235	-0.030	-0.024
-617.332	800.000	0.087	0.251
-616.317	-162.296	0.170	0.008
-615.303	199.465	-0.088	-0.135
-614.288	51.737	-0.179	0.170
-613.273	121.174	0.235	0.292
-612.259	115.216	0.132	0.161
-611.244	226.619	-0.204	-0.331
-610.230	32.079	-0.311	-0.268
-609.215	-166.321	0.427	-0.018
-608.201	-200.000	0.005	-0.049
-607.186	-104.341	-0.282	0.065
-606.171	41.899	0.012	0.011
-605.157	192.513	-0.221	0.333
-604.142	273.742	0.048	0.084
-603.128	-82.396	0.205	-0.067
-602.113	55.286	0.293	-0.282
-601.098	-115.123	0.457	0.086
-600.084	-5.760	-0.182	-0.124
-599.069	800.000	0.058	-0.220
-598.055	-159.393	0.210	-0.012
-597.040	-97.399	-0.169	0.044
-596.025	-200.000	-0.026	-0.153
-595.011	-200.000	0.053	0.259
-593.996	800.000	-0.157	0.567
-592.982	-99.586	0.122	-0.031
-591.967	-200.000	-0.020	0.222
-590.952	-200.000	-0.003	0.094
-589.938	-200.000	0.020	-0.098
-588.923	-135.729	0.287	-0.034
-587.909	-200.000	-0.003	-0.099
-586.894	-71.188	0.130	0.049
-585.879	-55.129	-0.315	0.141
-584.865	356.559	-0.147	-0.292
-583.850	-200.000	0.005	-0.192
-582.836	-200.000	-0.023	-0.101
-581.821	45.912	-0.201	-0.185
-580.806	51.809	-0.156	-0.148
-579.792	-107.621	0.097	0.021
-578.777	77.979	-0.099	-0.105
-577.763	-158.525	0.252	-0.015
-576.748	-101.708	0.103	-0.025
-575.733	-200.000	0.016	0.194
-574.719	800.000	0.065	0.244
-573.704	-13.255	-0.165	0.107
-572.690	146.050	0.052	-0.070
-571.675	328.486	0.143	-0.274
-570.661	-64.328	-0.233	0.095
-569.646	10.632	-0.043	0.032
-568.631	-46.747	-0.209	-0.102
-567.617	158.749	0.086	-0.119
-566.602	-32.089	-0.447	-0.249
-565.588	-159.364	0.309	0.017
-564.573	-80.681	0.213	0.071
-563.558	-181.286	0.225	-0.004
-562.544	248.673	0.165	-0.278
-561.529	-47.790	-0.208	-0.100
-560.515	-33.686	-0.230	0.126
-559.500	89.732	0.149	0.166
-558.485	-106.241	-0.239	-0.053
-557.471	-200.000	-0.103	0.482
-556.456	-5.988	0.112	0.077
-555.442	73.789	0.140	-0.146
-554.427	-90.266	0.077	0.022
-553.412	-113.649	0.203	-0.040
-552.398	279.066	-0.126	-0.224
-551.383	123.769	-0.080	0.101
-550.369	-32.288	0.206	-0.114
-549.354	-100.019	-0.411	-0.102
-548.339	162.387	0.104	-0.146
-547.325	800.000	0.073	0.208
-546.310	195.181	-0.096	0.145
-545.296	-32.284	-0.204	-0.113
-544.281	622.918	-0.067	0.169
-543.266	-108.481	-0.032	0.007
-542.252	-200.000	-0.393	0.002
-541.237	800.000	0.042	-0.165
-540.223	-31.761	-0.223	-0.125
-539.208	-51.643	0.327	0.152
-538.193	81.078	0.036	0.039
-537.179	41.654	-0.149	-0.134
-536.164	-140.910	-0.025	0.003
-535.150	-182.258	0.440	0.008
-534.135	331.176	-0.048	-0.091
-533.121	-50.552	0.061	-0.029
-532.106	41.143	-0.185	0.167
-531.091	470.707	0.087	0.195
-530.077	-137.710	-0.188	-0.021
-529.062	-160.257	-0.281	-0.015
-528.048	-200.000	0.015	-0.160
-527.033	0.565	-0.295	-0.210
-526.018	154.786	-0.102	-0.139
-525.004	-164.619	0.036	-0.002
-523.989	-20.346	0.069	0.043
-522.975	-9.300	-0.150	0.100
-521.960	-60.645	0.265	0.112
-520.945	-141.473	0.037	0.004
-519.931	471.059	0.228	-0.510
-518.916	-58.832	-0.145	-0.062
-517.902	-116.214	0.217	0.040
-516.887	-200.000	0.016	-0.095
-515.872	-190.996	0.229	0.002
-514.858	112.782	-0.068	-0.082
-513.843	-79.765	-0.168	0.056
-512.829	-200.000	-0.014	-0.275
-511.814	31.537	-0.037	0.032
-510.799	609.082	0.028	-0.070
-509.785	229.711	0.103	-0.167
-508.770	800.000	-0.020	-0.079
-507.756	-99.261	0.133	-0.033
-506.741	520.379	0.075	0.176
-505.726	-200.000	0.020	0.264
-504.712	-11.265	-0.082	0.054
-503.697	-86.157	0.228	-0.070
-502.683	41.958	-0.321	-0.289
-501.668	500.082	-0.059	-0.134
-500.653	39.147	0.094	-0.083
-499.639	-132.644	0.507	0.065
-498.624	800.000	0.127	-0.379
-497.610	800.000	0.034	-0.117
-496.595	219.149	0.074	-0.117
-495.581	-200.000	0.014	0.234
-494.566	800.000	-0.035	0.126
-493.551	-114.926	-0.396	0.075
-492.537	-2.661	0.168	-0.117
-491.522	-200.000	0.057	-0.331
-490.508	800.000	-0.075	0.226
-489.493	129.082	-0.192	0.243
-488.478	-200.000	0.039	0.184
-487.464	-54.626	-0.151	-0.068
-486.449	319.458	0.059	0.110
-485.435	573.475	-0.099	-0.239
-484.420	-102.610	-0.064	-0.015
-483.405	-97.246	0.313	0.081
-482.391	-200.000	-0.007	-0.163
-481.376	-37.622	0.079	-0.042
-480.362	-48.480	0.339	0.162
-479.347	16.317	0.025	-0.020
-478.332	225.817	0.103	-0.166
-477.318	-112.423	-0.261	0.052
-476.303	195.187	0.145	-0.219
-475.289	-131.803	-0.155	-0.020
-474.274	437.281	0.119	-0.258
-473.259	-48.224	-0.178	-0.085
-472.245	800.000	-0.168	0.563
-471.230	-40.692	-0.358	-0.184
-470.216	-200.000	-0.002	0.171
-469.201	421.571	0.066	0.140
-468.186	-175.200	0.168	0.005
-467.172	-99.601	-0.079	0.020
-466.157	-157.064	0.345	-0.021
-465.143	378.707	-0.161	-0.327
-464.128	161.775	0.075	0.104
-463.113	-71.559	-0.082	0.030
-462.099	365.928	-0.038	-0.077
-461.084	-200.000	0.019	0.173
-460.070	85.815	-0.066	0.072
-459.055	400.762	-0.011	0.023
-458.040	-200.000	-0.050	0.253
-457.026	-62.083	-0.136	-0.056
-456.011	37.314	0.188	-0.166
-454.997	-44.585	0.124	0.062
-453.982	-53.725	-0.248	-0.112
-452.968	-114.930	0.107	-0.020
-451.953	-93.042	0.066	-0.018
-450.938	403.041	0.209	0.437
-449.924	-200.000	-0.041	0.419
-448.909	800.000	-0.075	0.256
-447.895	-49.080	-0.377	0.179
-446.880	-154.376	0.127	0.008
-445.865	-47.472	-0.208	-0.100
-444.851	-184.480	-0.221	0.004
-443.836	-40.082	0.181	-0.094
-442.822	648.916	-0.120	-0.305
-441.807	-65.209	0.329	-0.131
-440.792	-100.339	0.102	-0.025
-439.778	270.968	-0.103	-0.179
-438.763	-112.612	0.145	-0.029
-437.749	-91.796	-0.284	0.080
-436.734	611.447	0.124	0.307
-435.719	2.991	-0.191	0.137
-434.705	800.000	0.030	0.102
-433.690	11.708	0.047	0.036
-432.676	800.000	-0.024	0.093
-431.661	800.000	0.075	-0.221
-430.646	40.574	0.278	-0.248
-429.632	182.336	-0.121	0.177
-428.617	-41.920	0.303	-0.154
-427.603	-57.186	-0.370	0.161
-426.588	145.973	0.183	0.244
-425.573	-106.109	0.194	-0.043
-424.559	380.539	0.123	-0.250
-423.544	41.153	0.159	-0.143
-422.530	-94.054	-0.221	-0.060
-421.515	-69.368	0.248	-0.094
-420.500	82.779	-0.175	0.189
-419.486	-142.823	-0.232	0.022
-418.471	368.752	0.148	0.297
-417.457	-200.000	0.012	0.072
-416.442	108.226	-0.095	-0.112
-415.428	418.825	-0.115	-0.245
-414.413	-101.294	0.345	-0.083
-413.398	293.527	0.187	0.339
-412.384	54.119	-0.246	0.234
-411.369	-22.376	0.226	-0.136
-410.355	310.555	0.133	-0.246
-409.340	65.240	-0.072	0.072
-408.325	206.926	-0.106	-0.164
-407.311	-200.000	0.013	-0.179
-406.296	-200.000	0.033	-0.373
-405.282	-161.981	0.107	0.005
-404.267	-18.163	0.238	0.147
-403.252	-200.000	-0.015	0.132
-402.238	-18.684	-0.145	-0.089
-401.223	-81.589	0.197	0.064
-400.209	-48.833	0.085	0.040
-399.194	800.000	-0.076	-0.288
-398.179	213.159	-0.125	-0.196
-397.165	55.714	-0.101	-0.097
-396.150	800.000	-0.023	-0.091
-395.136	-194.622	-0.098	0.001
-394.121	451.819	0.153	0.334
-393.106	800.000	-0.083	0.315
-392.092	-51.155	0.205	0.095
-391.077	-58.195	0.368	-0.159
-390.063	186.475	-0.055	-0.081
-389.048	-129.283	-0.432	0.059
-388.033	37.265	-0.103	-0.090
-387.019	-200.000	-0.124	-0.000
-386.004	-83.294	0.259	0.082
-384.990	407.866	-0.025	0.052
-383.975	-83.367	-0.366	-0.116
-382.960	-129.025	0.216	-0.030
-381.946	-200.000	0.030	-0.129
-380.931	218.891	-0.075	-0.119
-379.917	-114.778	0.161	-0.030
-378.902	58.175	0.123	-0.119
-377.888	-37.855	0.066	0.035
-376.873	-66.406	0.252	0.099
-375.858	-91.973	-0.102	-0.029
-374.844	-200.000	-0.032	0.203
-373.829	-126.713	0.283	0.041
-372.815	-130.979	-0.273	0.036
-371.800	-145.343	-0.149	-0.013
-370.785	-103.976	0.124	-0.029
-369.771	571.073	0.100	0.241
-368.756	-132.017	0.131	-0.017
-367.742	-165.494	-0.213	-0.009
-366.727	36.338	0.241	-0.210
-365.712	-200.000	0.018	-0.124
-364.698	564.695	-0.042	0.102
-363.683	624.244	-0.097	0.243
-362.669	127.998	0.135	0.170
-361.654	525.163	-0.061	-0.141
-360.639	112.212	-0.169	0.202
-359.625	113.637	-0.029	-0.035
-358.610	210.617	0.144	0.224
-357.596	800.000	-0.065	-0.221
-356.581	18.018	0.225	-0.178
-355.566	-200.000	0.012	0.209
-354.552	49.103	0.315	-0.293
-353.537	85.045	0.064	-0.070
-352.523	76.259	0.095	-0.099
-351.508	800.000	0.018	-0.063
-350.493	-139.141	-0.099	0.011
-349.479	-78.116	-0.054	-0.018
-348.464	-135.202	-0.285	0.034
-347.450	97.369	-0.105	0.119
-346.435	-76.446	-0.029	-0.010
-345.420	24.746	0.145	0.119
-344.406	-42.509	-0.109	-0.055
-343.391	800.000	-0.011	0.038
-342.377	22.022	-0.191	0.154
-341.362	800.000	0.064	0.193
-340.348	-13.400	0.133	0.085
-339.333	27.427	-0.225	0.187
-338.318	126.381	0.134	-0.168
-337.304	800.000	0.045	0.162
-336.289	280.235	-0.097	-0.171
-335.275	-200.000	0.022	-0.271
-334.260	80.765	-0.224	-0.239
-333.245	-200.000	-0.004	-0.154
-332.231	-30.951	-0.113	0.063
-331.216	-200.000	0.035	0.345
-330.202	610.875	-0.050	0.124
-329.187	17.919	-0.107	0.085
-328.172	617.357	0.117	-0.290
-327.158	143.985	0.148	-0.195
-326.143	159.039	-0.106	0.145
-325.129	340.470	-0.209	0.402
-324.114	-101.645	-0.158	-0.038
-323.099	800.000	-0.043	-0.171
-322.085	70.857	-0.128	-0.131
-321.070	-103.131	-0.353	-0.083
-320.056	-84.976	-0.306	-0.095
-319.041	-103.720	0.166	-0.038
-318.026	128.296	0.090	-0.113
-317.012	-72.986	0.079	0.028
-315.997	-1.045	0.081	0.057
-314.983	-148.887	0.277	-0.022
-313.968	-58.553	-0.177	-0.076
-312.953	515.656	0.095	-0.220
-311.939	800.000	-0.064	-0.191
-310.924	-108.974	0.162	0.034
-309.910	333.152	-0.110	-0.211
-308.895	-171.468	0.212	-0.007
-307.880	640.269	-0.032	0.080
-306.866	-46.790	-0.063	-0.030
-305.851	-58.958	0.252	-0.107
-304.837	338.093	-0.115	0.220
-303.822	-150.791	-0.236	0.018
-302.807	148.525	0.254	-0.338
-301.793	-115.955	-0.048	-0.009
-300.778	-2.569	0.029	0.020
-299.764	-178.143	-0.234	-0.005
-298.749	341.952	0.024	-0.045
-297.735	300.074	0.110	-0.201
-296.720	-189.756	0.210	-0.002
-295.705	139.005	0.098	-0.127
-294.691	-13.860	0.056	0.036
-293.676	-120.601	-0.092	0.015
-292.662	800.000	-0.167	-0.462
-291.647	222.708	0.152	-0.242
-290.632	-166.122	0.237	-0.010
-289.618	172.962	-0.139	-0.197
-288.603	241.037	0.188	0.310
-287.589	-48.380	0.266	-0.126
-286.574	800.000	-0.075	-0.241
-285.559	58.087	0.052	-0.050
-284.545	421.023	-0.033	-0.069
-283.530	5.672	0.169	-0.124
-282.516	-132.427	-0.186	0.024
-281.501	287.118	0.104	0.186
-280.486	-200.000	0.057	0.296
-279.472	-23.474	-0.172	-0.102
-278.457	24.408	0.267	-0.217
-277.443	-164.235	-0.196	-0.009
-276.428	97.917	-0.223	-0.253
-275.413	-68.713	0.126	0.048
-274.399	-0.753	-0.260	0.182
-273.384	447.237	0.072	0.156
-272.370	-79.338	-0.206	0.069
-271.355	-104.655	-0.194	-0.044
-270.340	-3.463	-0.398	-0.273
-269.326	800.000	0.078	0.253
-268.311	-140.908	-0.294	0.030
-267.297	-60.306	0.291	0.122
-266.282	353.527	0.071	-0.139
-265.267	-4.463	0.138	-0.094
-264.253	623.205	0.020	0.049
-263.238	-200.000	0.001	0.194
-262.224	42.432	0.203	-0.182
-261.209	-63.194	0.150	0.061
-260.195	12.316	-0.123	-0.093
-259.180	151.215	0.119	0.160
-258.165	-0.013	-0.071	-0.050
-257.151	93.888	-0.236	0.264
-256.136	290.844	0.063	-0.113
-255.122	312.275	0.101	-0.186
-254.107	-86.861	-0.207	-0.062
-253.092	128.503	-0.093	-0.117
-252.078	348.752	-0.036	-0.070
-251.063	-161.350	0.123	0.006
-250.049	-13.785	-0.217	0.138
-249.034	800.000	0.037	-0.140
-248.019	-200.000	0.002	0.373
-247.005	-200.000	0.047	0.380
-245.990	-17.605	-0.219	0.135
-244.976	15.230	0.124	0.096
-243.961	-119.101	-0.299	-0.051
-242.946	-133.976	0.346	-0.042
-241.932	-113.103	0.146	0.028
-240.917	-56.987	-0.181	0.078
-239.903	-82.933	-0.130	-0.041
-238.888	-100.350	0.021	-0.005
-237.873	-171.085	0.204	-0.007
-236.859	-134.416	-0.094	-0.011
-235.844	-200.000	0.016	-0.191
-234.830	-26.979	0.195	0.112
-233.815	195.939	-0.110	0.164
-232.800	-16.198	-0.097	-0.061
-231.786	12.649	0.240	0.183
-230.771	-36.067	-0.256	-0.136
-229.757	459.815	0.143	-0.313
-228.742	-156.076	0.414	-0.026
-227.727	337.357	-0.091	0.174
-226.713	39.545	-0.145	-0.128
-225.698	-153.429	0.228	-0.016
-224.684	-29.270	0.176	0.099
-223.669	591.289	-0.092	-0.222
-222.655	92.019	-0.085	-0.094
-221.640	193.927	-0.123	0.183
-220.625	546.240	-0.050	0.117
-219.611	-200.000	0.026	0.488
-218.596	90.343	-0.032	0.036
-217.582	46.215	0.101	-0.092
-216.567	13.711	0.172	0.131
-215.552	172.849	-0.276	0.391
-214.538	-59.553	0.060	-0.025
-213.523	-200.000	-0.013	-0.088
-212.509	-138.954	-0.246	0.026
-211.494	-200.000	0.026	0.273
-210.479	-200.000	-0.023	0.182
-209.465	-71.766	-0.221	-0.081
-208.450	-85.080	-0.122	0.038
-207.436	59.890	0.115	-0.112
-206.421	-200.000	-0.026	0.147
-205.406	85.867	0.227	-0.245
-204.392	354.812	0.086	0.167
-203.377	-134.136	-0.220	-0.027
-202.363	210.405	-0.042	0.065
-201.348	-85.327	0.268	0.082
-200.333	109.735	-0.257	-0.303
-199.319	-200.000	0.028	-0.164
-198.304	224.165	-0.053	0.084
-197.290	-167.618	-0.281	0.011
-196.275	-82.372	-0.231	-0.074
-195.260	-57.761	-0.220	0.094
-194.246	133.601	-0.209	-0.266
-193.231	183.109	-0.152	-0.220
-192.217	-200.000	0.040	-0.217
-191.202	260.036	0.203	-0.344
-190.187	-2.131	-0.241	0.166
-189.173	-10.788	0.161	0.104
-188.158	189.295	0.124	0.183
-187.144	-50.404	0.387	0.179
-186.129	64.232	0.194	0.192
-185.114	238.199	-0.102	-0.167
-184.100	-42.940	0.259	-0.129
-183.085	-79.760	-0.200	-0.066
-182.071	198.394	-0.143	0.214
-181.056	-35.815	0.353	0.188
-180.042	-157.722	0.144	-0.008
-179.027	81.212	-0.138	0.147
-178.012	23.242	-0.110	-0.089
-176.998	-200.000	0.063	-0.323
-175.983	7.944	-0.163	-0.120
-174.969	-40.236	0.184	-0.094
-173.954	-159.999	0.345	-0.019
-172.939	-5.397	-0.073	-0.049
-171.925	39.669	0.107	-0.094
-170.910	300.736	-0.092	0.167
-169.896	-6.380	-0.173	0.116
-168.881	75.184	0.163	0.169
-167.866	46.115	-0.124	-0.113
-166.852	-200.000	-0.047	-0.205
-165.837	-3.844	-0.180	0.122
-164.823	196.567	-0.268	0.401
-163.808	45.972	0.245	0.222
-162.793	351.674	-0.034	0.065
-161.779	-200.000	-0.057	0.397
-160.764	-118.173	0.264	-0.046
-159.750	19.582	-0.158	0.125
-158.735	314.744	-0.144	0.266
-157.720	-200.000	-0.008	0.064
-156.706	449.379	0.060	0.129
-155.691	800.000	-0.022	0.068
-154.677	146.988	-0.131	-0.173
-153.662	-165.860	-0.356	0.015
-152.647	-86.232	0.222	0.067
-151.633	547.769	0.119	0.279
-150.618	108.007	0.151	0.177
-149.604	3.573	-0.425	0.304
-148.589	-115.427	-0.127	-0.023
-147.574	-95.331	-0.092	0.024
-146.560	82.609	-0.233	-0.248
-145.545	-9.848	-0.088	-0.058
-144.531	24.484	0.082	0.067
-143.516	111.214	-0.322	0.380
-142.502	-103.144	0.275	0.064
-141.487	-33.697	0.265	-0.143
-140.472	277.009	-0.062	-0.108
-139.458	-200.000	0.262	0.000
-138.443	84.176	0.080	0.086
-137.429	-84.485	-0.120	0.037
-136.414	27.249	-0.117	0.096
-135.399	-90.834	-0.212	0.060
-134.385	-137.423	-0.243	0.027
-133.370	800.000	-0.072	0.258
-132.356	800.000	0.073	-0.286
-131.341	-200.000	0.046	0.323
-130.326	491.645	-0.039	0.087
-129.312	-20.334	-0.248	0.150
-128.297	-51.906	-0.118	-0.054
-127.283	46.191	0.325	-0.295
-126.268	-144.416	-0.308	0.028
-125.253	-79.190	-0.096	-0.032
-124.239	-95.554	0.476	-0.125
-123.224	584.139	-0.119	0.287
-122.210	-59.113	-0.197	-0.083
-121.195	800.000	0.058	-0.225
-120.180	451.856	0.177	0.383
-119.166	-200.000	0.012	-0.225
-118.151	-37.982	-0.206	0.107
-117.137	-45.047	0.154	-0.075
-116.122	-200.000	0.017	0.079
-115.107	495.348	0.089	0.199
-114.093	-27.233	0.051	0.029
-113.078	-0.873	-0.075	0.052
-112.064	-68.490	0.418	0.159
-111.049	86.323	-0.237	-0.256
-110.034	353.278	0.050	0.097
-109.020	-96.435	0.167	0.043
-108.005	800.000	0.067	-0.209
-106.991	-173.590	0.309	0.009
-105.976	-53.516	-0.115	-0.051
-104.962	-113.475	0.246	0.047
-103.947	-200.000	0.010	-0.438
-102.932	4.694	-0.203	-0.146
-101.918	-58.584	0.248	0.105
-100.903	-96.380	0.280	0.072
-99.889	-107.911	-0.160	0.034
-98.874	-126.764	0.328	0.047
-97.859	-200.000	0.009	0.447
-96.845	-200.000	-0.049	0.272
-95.830	122.367	0.080	-0.098
-94.816	143.302	0.152	-0.199
-93.801	69.012	-0.274	-0.276
-92.786	-200.000	-0.027	-0.144
-91.772	82.954	0.330	-0.352
-90.757	-146.536	0.364	-0.031
-89.743	30.877	0.129	-0.108
-88.728	-4.272	0.098	0.066
-87.713	-62.269	0.356	-0.145
-86.699	-165.660	0.244	-0.010
-85.684	-95.204	0.086	0.023
-84.670	-170.034	0.243	0.008
-83.655	399.467	0.095	-0.194
-82.640	-118.979	0.302	0.052
-81.626	81.643	0.102	-0.108
-80.611	37.717	-0.084	-0.073
-79.597	163.982	0.057	-0.078
-78.582	718.617	-0.029	0.076
-77.567	-200.000	0.045	0.302
-76.553	-154.165	0.333	-0.022
-75.538	-30.858	-0.103	-0.057
-74.524	312.058	-0.202	-0.371
-73.509	726.489	-0.026	-0.067
-72.494	-57.922	0.303	-0.129
-71.480	-38.381	-0.146	-0.075
-70.465	-79.444	0.356	0.118
-69.451	94.404	0.182	0.202
-68.436	48.278	-0.108	0.099
-67.422	638.696	-0.053	0.133
-66.407	-200.000	-0.026	0.228
-65.392	-121.601	0.360	0.058
-64.378	-111.926	-0.098	-0.019
-63.363	132.444	-0.167	0.210
-62.349	800.000	0.061	0.209
-61.334	61.150	-0.899	-0.873
-60.319	245.457	0.532	0.875
-59.305	770.928	-0.481	-1.282
-58.290	146.694	0.882	1.159
-57.276	452.073	0.666	1.438
-56.261	-200.000	117.086	651.165
-55.246	510.407	1541.230	3503.313
-54.232	174.837	2718.430	3844.986
-53.217	99.687	2291.024	2591.949
-52.203	35.602	1897.158	1628.206
-51.188	29.704	1689.916	1405.600
-50.173	27.332	1647.848	1352.938
-49.159	47.973	1704.948	1556.517
-48.144	46.679	1718.374	1558.939
-47.130	29.205	1676.052	1390.076
-46.115	26.650	1661.710	1358.989
-45.100	26.426	1657.369	1353.706
-44.086	26.514	1654.485	1351.958
-43.071	26.425	1651.646	1348.919
-42.057	26.440	1649.859	1347.518
-41.042	26.455	1647.325	1345.508
-40.027	26.489	1645.733	1344.407
-39.013	26.423	1643.439	1341.990
-37.998	26.414	1641.952	1340.652
-36.984	26.532	1640.141	1339.997
-35.969	26.671	1638.602	1339.710
-34.954	26.596	1637.503	1338.209
-33.940	26.581	1635.499	1336.409
-32.925	26.583	1634.110	1335.234
-31.911	26.614	1632.136	1333.793
-30.896	26.615	1630.936	1332.768
-29.881	26.647	1628.727	1331.150
-28.867	26.653	1627.708	1330.305
-27.852	26.597	1626.517	1328.866
-26.838	26.599	1624.750	1327.384
-25.823	26.622	1623.286	1326.303
-24.809	26.637	1621.786	1325.137
-23.794	26.656	1620.363	1324.059
-22.779	26.645	1618.924	1322.750
-21.765	26.603	1617.225	1321.008
-20.750	26.628	1615.376	1319.626
-19.736	26.634	1614.372	1318.799
-18.721	26.696	1612.708	1317.834
-17.706	26.673	1611.315	1316.477
-16.692	26.768	1609.466	1315.606
-15.677	26.694	1608.376	1314.123
-14.663	26.739	1606.886	1313.184
-13.648	26.745	1605.659	1312.172
-12.633	26.668	1604.071	1310.260
-11.619	26.635	1602.734	1308.880
-10.604	26.715	1600.791	1307.819
-9.590	26.710	1599.854	1306.968
-8.575	26.622	1598.535	1305.200
-7.560	26.635	1597.064	1304.041
-6.546	26.642	1596.446	1303.534
-5.531	26.605	1595.432	1302.391
-4.517	26.618	1594.179	1301.407
-3.502	26.648	1592.795	1300.445
-2.487	26.744	1591.352	1299.902
-1.473	26.428	1579.076	1287.573
-0.458	23.506	1559.773	1251.201
0.556	21.872	1561.080	1219.289
1.571	19.370	1585.760	1220.768
2.586	19.026	1597.692	1227.393
3.600	17.284	1543.883	1173.932
4.615	10.889	1438.150	1052.176
5.629	5.105	1378.563	972.520
6.644	4.088	1370.815	960.667
7.659	3.955	1370.471	959.516
8.673	4.143	1369.206	959.712
9.688	4.034	1367.662	957.867
10.702	4.095	1364.176	955.719
11.717	6.998	1368.903	976.897
12.731	14.226	1383.473	1032.183
13.746	20.947	1393.997	1081.797
14.761	22.879	1396.067	1095.306
15.775	22.397	1394.154	1090.725
16.790	21.437	1392.096	1083.073
17.804	20.715	1389.998	1076.878
18.819	20.345	1388.655	1073.457
19.834	20.368	1387.904	1072.925
20.848	20.328	1386.948	1071.841
21.863	20.124	1385.722	1069.540
22.877	20.030	1384.466	1067.894
23.892	20.079	1383.337	1067.234
24.907	20.009	1382.667	1066.190
25.921	19.997	1381.662	1065.248
26.936	19.915	1380.737	1063.935
27.950	20.011	1379.798	1063.707
28.965	20.103	1378.645	1063.293
29.980	20.233	1377.986	1063.481
30.994	20.432	1377.316	1064.092
32.009	20.429	1376.420	1063.286
33.023	20.360	1375.267	1061.883
34.038	20.347	1373.564	1060.393
35.053	20.152	1372.447	1058.244
36.067	20.128	1371.277	1057.102
37.082	20.142	1370.291	1056.338
38.096	20.283	1369.858	1056.767
39.111	20.259	1368.964	1055.837
40.126	20.073	1368.047	1053.904
41.140	19.879	1366.754	1051.637
42.155	19.634	1365.990	1049.470
43.169	19.492	1366.303	1048.752
44.184	19.679	1365.439	1049.133
45.199	19.613	1365.586	1048.754
46.213	19.793	1365.080	1049.364
47.228	20.091	1364.263	1050.452
48.242	20.035	1362.883	1048.957
49.257	20.016	1362.214	1048.230
50.271	20.026	1360.848	1047.150
51.286	20.044	1359.222	1045.914
52.301	20.079	1357.533	1044.736
53.315	19.867	1356.632	1042.670
54.330	19.803	1355.620	1041.415
55.344	19.750	1353.944	1039.714
56.359	19.759	1353.106	1039.035
57.374	19.643	1352.541	1037.810
58.388	19.611	1351.444	1036.685
59.403	19.618	1350.906	1036.225
60.417	19.485	1350.187	1034.785
61.432	19.386	1349.271	1033.395
62.447	19.402	1348.610	1032.897
63.461	19.311	1346.914	1030.962
64.476	19.252	1346.232	1029.996
65.490	19.297	1344.828	1029.095
66.505	19.281	1343.231	1027.686
67.520	19.344	1342.053	1027.073
68.534	19.304	1341.486	1026.309
69.549	19.340	1340.117	1025.387
70.563	19.289	1339.002	1024.135
71.578	19.095	1337.530	1021.770
72.593	19.049	1336.859	1020.895
73.607	18.953	1336.289	1019.796
74.622	19.152	1334.872	1019.809
75.636	19.184	1334.691	1019.766
76.651	19.225	1333.943	1019.345
77.666	19.178	1333.978	1019.009
78.680	19.273	1333.578	1019.175
79.695	19.446	1332.377	1019.189
80.709	19.477	1332.076	1019.049
81.724	19.658	1331.291	1019.424
82.739	19.892	1330.423	1020.054
83.753	19.887	1330.190	1019.750
84.768	20.124	1329.494	1020.524
85.782	20.260	1328.157	1020.210
86.797	20.290	1327.060	1019.453
87.812	20.106	1325.884	1017.374
88.826	20.026	1324.971	1016.117
89.841	20.097	1323.750	1015.505
90.855	20.275	1322.861	1015.776
91.870	20.307	1322.292	1015.436
92.884	20.313	1321.268	1014.598
93.899	20.386	1320.410	1014.272
94.914	20.373	1319.646	1013.521
95.928	20.425	1318.788	1013.075
96.943	20.335	1318.072	1011.913
97.957	20.111	1317.686	1010.220
98.972	20.192	1315.984	1009.297
99.987	20.250	1314.954	1008.759
101.001	20.146	1314.569	1007.770
102.016	20.255	1313.181	1007.244
103.030	20.174	1312.566	1006.215
104.045	20.215	1311.502	1005.551
105.060	20.009	1309.759	1002.930
106.074	19.682	1308.323	999.853
107.089	19.476	1306.188	996.942
108.103	19.377	1305.236	995.556
109.118	19.334	1303.832	994.148
110.133	19.353	1302.988	993.526
111.147	19.327	1301.873	992.437
112.162	19.442	1300.401	991.890
113.176	19.563	1299.421	991.747
114.191	19.568	1298.638	991.094
115.206	19.573	1297.743	990.348
116.220	19.596	1296.216	989.228
117.235	19.524	1295.244	987.985
118.249	19.514	1293.749	986.704
119.264	19.407	1292.695	985.202
120.279	19.258	1291.438	983.304
121.293	19.237	1290.606	982.468
122.308	19.082	1289.302	980.504
123.322	19.107	1288.245	979.754
124.337	19.062	1286.985	978.452
125.352	19.072	1285.907	977.607
126.366	19.002	1284.898	976.353
127.381	19.001	1283.995	975.574
128.395	19.004	1282.599	974.444
129.410	19.073	1282.000	974.296
130.424	19.210	1281.559	974.650
131.439	19.297	1280.728	974.420
132.454	19.427	1279.714	974.300
133.468	19.444	1279.492	974.141
134.483	19.507	1278.581	973.715
135.497	19.500	1277.617	972.852
136.512	19.569	1276.214	972.087
137.527	19.606	1275.114	971.372
138.541	19.648	1273.579	970.351
139.556	19.742	1272.356	969.862
140.570	19.759	1271.875	969.506
141.585	19.914	1270.627	969.337
142.600	19.918	1269.874	968.699
143.614	20.163	1269.318	969.562
144.629	20.164	1268.137	968.580
145.643	20.160	1267.253	967.793
146.658	19.841	1265.494	964.588
147.673	19.858	1263.708	963.238
148.687	19.526	1263.373	961.045
149.702	19.474	1261.466	959.220
150.716	19.576	1259.726	958.378
151.731	19.416	1258.941	956.813
152.746	19.543	1258.061	956.760
153.760	19.647	1256.770	956.273
154.775	19.726	1255.779	955.871
155.789	19.803	1255.007	955.625
156.804	19.922	1254.079	955.486
157.819	20.035	1252.605	954.903
158.833	20.107	1252.410	955.069
159.848	20.258	1251.600	955.197
160.862	20.187	1250.434	953.831
161.877	19.813	1248.670	950.344
162.892	19.512	1247.371	947.623
163.906	19.493	1246.911	947.083
164.921	19.569	1245.562	946.395
165.935	19.683	1244.895	946.429
166.950	19.750	1244.165	946.155
167.964	19.723	1243.626	945.510
168.979	19.685	1242.599	944.442
169.994	19.666	1242.096	943.869
171.008	19.630	1241.540	943.167
172.023	19.927	1240.514	943.927
173.037	20.145	1240.028	944.658
174.052	19.969	1239.395	943.137
175.067	19.772	1237.871	940.820
176.081	19.435	1237.041	938.273
177.096	19.475	1235.955	937.585
178.110	19.525	1234.859	936.940
179.125	19.667	1233.467	936.574
180.140	19.787	1232.421	936.344
181.154	19.965	1231.691	936.672
182.169	20.118	1230.419	936.447
183.183	20.109	1229.833	935.872
184.198	20.098	1228.393	934.632
185.213	20.221	1226.899	934.077
186.227	20.157	1226.397	933.269
187.242	20.272	1225.288	932.957
188.256	20.313	1224.142	932.225
189.271	20.316	1224.027	932.069
190.286	19.972	1222.565	929.028
191.300	19.700	1221.011	926.308
192.315	19.416	1220.734	924.491
193.329	19.555	1220.039	924.629
194.344	19.664	1219.282	924.558
195.359	19.788	1218.990	924.915
196.373	19.758	1218.576	924.362
197.388	20.006	1218.323	925.414
198.402	20.214	1218.049	926.231
199.417	20.272	1217.904	926.350
200.432	20.544	1216.787	926.872
201.446	20.673	1216.285	927.094
202.461	20.674	1215.894	926.716
203.475	20.723	1214.056	925.497
204.490	20.512	1212.442	923.064
205.504	20.175	1211.283	920.313
206.519	20.098	1210.479	919.211
207.534	20.064	1209.153	917.939
208.548	20.081	1208.064	917.124
209.563	20.021	1207.337	916.174
210.577	20.110	1206.458	915.895
211.592	20.205	1205.683	915.729
212.607	20.431	1205.452	916.664
213.621	20.305	1204.690	915.338
214.636	20.398	1202.843	914.346
215.650	20.363	1201.908	913.367
216.665	20.529	1201.784	914.069
217.680	20.524	1201.531	913.765
218.694	20.747	1200.220	913.858
219.709	20.651	1199.476	912.707
220.723	20.673	1198.799	912.227
221.738	20.547	1198.049	910.918
222.753	20.558	1197.181	910.232
223.767	20.522	1196.639	909.554
224.782	20.755	1196.088	910.274
225.796	20.875	1195.466	910.345
226.811	20.759	1194.631	909.021
227.826	20.578	1193.541	907.167
228.840	20.463	1192.972	906.055
229.855	20.420	1192.213	905.173
230.869	20.430	1191.656	904.726
231.884	20.252	1190.733	903.020
232.899	20.278	1189.451	902.102
233.913	20.203	1188.458	900.878
234.928	20.122	1187.933	899.981
235.942	19.963	1187.272	898.574
236.957	20.001	1186.176	897.863
237.972	20.051	1185.643	897.638
238.986	20.058	1185.265	897.307
240.001	20.069	1184.463	896.681
241.015	20.154	1183.739	896.494
242.030	20.283	1182.901	896.443
243.045	20.403	1182.130	896.401
244.059	20.336	1181.539	895.526
245.074	20.469	1180.580	895.409
246.088	20.540	1180.002	895.254
247.103	20.739	1179.620	895.910
248.117	20.829	1178.869	895.723
249.132	21.036	1178.440	896.383
250.147	21.343	1177.791	897.385
251.161	21.439	1177.101	897.272
252.176	21.510	1176.738	897.282
253.190	21.502	1176.413	896.913
254.205	21.583	1175.667	896.677
255.220	21.742	1174.890	896.822
256.234	21.653	1174.639	896.093
257.249	21.544	1173.792	894.810
258.263	21.634	1172.946	894.546
259.278	21.432	1172.289	892.935
260.293	21.537	1171.854	893.062
261.307	21.622	1171.590	893.214
262.322	21.527	1170.940	892.156
263.336	21.651	1170.126	892.088
264.351	21.678	1169.730	891.846
265.366	21.726	1169.051	891.494
266.380	21.720	1167.555	890.245
267.395	21.650	1167.003	889.388
268.409	21.385	1166.571	887.634
269.424	21.384	1165.556	886.779
270.439	21.291	1165.311	886.041
271.453	21.344	1163.816	885.098
272.468	21.264	1162.626	883.707
273.482	21.186	1161.823	882.627
274.497	21.228	1161.431	882.463
275.512	21.214	1160.998	881.981
276.526	21.127	1160.328	880.955
277.541	21.235	1159.083	880.476
278.555	21.378	1158.911	880.988
279.570	21.445	1158.478	880.919
280.585	21.668	1157.920	881.538
281.599	21.744	1156.757	880.961
282.614	21.362	1155.812	878.245
283.628	21.333	1153.870	876.542
284.643	21.328	1153.057	875.822
285.657	21.322	1152.505	875.297
286.672	21.370	1151.875	874.983
287.687	21.286	1150.927	873.763
288.701	21.392	1150.256	873.708
289.716	21.284	1149.363	872.411
290.730	21.371	1148.399	872.037
291.745	21.452	1147.940	872.014
292.760	21.565	1147.373	872.072
293.774	21.532	1147.100	871.621
294.789	21.717	1146.540	872.039
295.803	21.517	1146.190	870.700
296.818	21.559	1144.525	869.567
297.833	21.451	1143.593	868.245
298.847	21.338	1143.069	867.210
299.862	21.402	1142.477	867.002
300.876	21.494	1141.661	866.762
301.891	21.589	1141.340	866.913
302.906	21.771	1140.799	867.325
303.920	21.858	1140.352	867.340
304.935	21.988	1139.769	867.460
305.949	22.046	1139.211	867.244
306.964	22.040	1138.390	866.513
307.979	21.921	1137.438	865.129
308.993	21.877	1136.700	864.275
310.008	22.025	1135.755	864.207
311.022	22.002	1135.407	863.752
312.037	21.892	1134.628	862.542
313.052	21.780	1133.277	860.889
314.066	21.701	1131.789	859.293
315.081	21.385	1131.019	857.086
316.095	21.398	1130.210	856.460
317.110	21.316	1129.713	855.604
318.125	21.407	1128.680	855.195
319.139	21.422	1128.060	854.722
320.154	21.317	1127.539	853.737
321.168	21.374	1126.957	853.499
322.183	21.426	1126.218	853.116
323.197	21.540	1126.030	853.456
324.212	21.632	1125.424	853.369
325.227	21.544	1124.879	852.453
326.241	21.635	1124.223	852.324
327.256	21.502	1123.380	850.962
328.270	21.359	1122.114	849.233
329.285	21.434	1121.260	848.874
330.300	21.491	1120.034	848.146
331.314	21.441	1119.502	847.426
332.329	21.481	1118.290	846.630
333.343	21.560	1117.485	846.328
334.358	21.728	1116.957	846.665
335.373	21.850	1116.645	846.942
336.387	22.026	1115.925	847.172
337.402	21.857	1115.408	845.885
338.416	21.972	1114.559	845.724
339.431	22.020	1114.497	845.830
340.446	22.328	1113.586	846.549
341.460	22.333	1113.648	846.544
342.475	22.458	1112.352	846.083
343.489	22.384	1111.581	845.070
344.504	22.509	1110.886	845.066
345.519	22.716	1109.701	845.082
346.533	22.659	1108.840	844.079
347.548	22.619	1108.550	843.592
348.562	22.635	1107.582	842.857
349.577	22.355	1106.444	840.580
350.592	22.021	1105.894	838.489
351.606	21.909	1104.637	836.930
352.621	21.889	1103.348	835.782
353.635	21.858	1102.789	835.137
354.650	21.836	1102.438	834.694
355.665	21.973	1101.797	834.786
356.679	21.949	1101.127	834.088
357.694	22.157	1100.513	834.542
358.708	22.236	1100.238	834.634
359.723	22.213	1099.435	833.841
360.738	22.245	1098.811	833.443
361.752	22.171	1098.239	832.586
362.767	22.326	1097.709	832.844
363.781	22.238	1097.044	831.850
364.796	22.527	1096.311	832.585
365.810	22.657	1096.253	833.082
366.825	22.779	1095.531	833.037
367.840	22.814	1095.623	833.197
368.854	22.988	1095.184	833.611
369.869	22.779	1094.428	831.976
370.883	22.765	1092.905	830.679
371.898	22.656	1092.239	829.588
372.913	22.570	1091.522	828.566
373.927	22.655	1091.136	828.598
374.942	22.837	1090.759	829.094
375.956	22.869	1089.758	828.408
376.971	22.758	1089.529	827.641
377.986	22.919	1088.856	827.809
379.000	23.006	1088.593	827.948
380.015	22.881	1088.202	826.991
381.029	23.175	1087.333	827.631
382.044	22.961	1086.841	826.181
383.059	22.932	1086.236	825.513
384.073	23.077	1084.743	824.985
385.088	23.156	1084.077	824.775
386.102	23.082	1083.070	823.590
387.117	22.872	1081.637	821.450
388.132	22.536	1080.739	819.132
389.146	22.650	1079.812	818.889
390.161	22.618	1079.398	818.351
391.175	22.655	1078.544	817.804
392.190	22.815	1078.001	818.061
393.205	22.936	1077.454	818.134
394.219	22.859	1076.736	817.163
395.234	22.783	1075.490	815.792
396.248	22.619	1074.587	814.275
397.263	22.650	1073.273	813.353
398.278	22.549	1073.001	812.609
399.292	22.358	1072.148	811.012
400.307	22.313	1071.245	810.049
401.321	22.313	1070.737	809.591
402.336	22.410	1069.705	809.186
403.350	22.359	1069.391	808.643
404.365	22.466	1068.665	808.511
405.380	22.563	1068.478	808.744
406.394	22.670	1067.476	808.407
407.409	22.926	1066.870	809.047
408.423	23.092	1065.981	809.064
409.438	23.192	1065.598	809.156
410.453	23.262	1065.329	809.200
411.467	23.262	1064.641	808.610
412.482	23.305	1064.053	808.284
413.496	23.473	1063.273	808.386
414.511	23.438	1062.455	807.535
415.526	23.452	1062.634	807.661
416.540	23.637	1062.093	808.021
417.555	23.765	1061.045	807.734
418.569	23.491	1060.773	806.210
419.584	23.350	1059.947	804.872
420.599	23.317	1059.596	804.382
421.613	158.344	1404.045	1799.438
422.628	145.609	1454.206	1799.513
