DTS Sentinel unit serial number:	SN413079Multiplexer serial number:	ORYXHardware model number:	OX4-SRSoftware version number:	ORYX F/W v4.00 Oryx Data Collector v3.7.2.0data status	okinstallation	princeton_trtdifferential loss correction	single-endedforward channel	channel 2reverse channel	N/Adate	2019/09/16time	05:27:35forward acquisition time	60.00reverse acquisition time	0.00gamma	496.2192k internal	0.2335k external	0.2335temperature offset calibration	0.9978default loss term (dB/km)	0.3790temperature slope calibration	1.0000multiplexer offset coefficient	1.0000multiplexer slope coefficient	1.0000fibre end	0.00T internal ref (°C)	27.28T ext. ref 1 (°C)	11.11T ext. ref 2 (°C)	22.11length (m)	temperature (°C)	Stokes	anti-Stokes-747.200	153.402	-0.293	0.403
-746.185	-10.060	-0.346	0.231
-745.171	228.070	0.045	-0.073
-744.156	-200.000	-0.026	0.211
-743.142	320.160	-0.084	0.160
-742.127	-43.610	-0.110	0.056
-741.112	-4.890	0.149	0.103
-740.098	800.000	0.049	0.186
-739.083	-53.618	0.144	0.066
-738.069	73.545	-0.129	-0.135
-737.054	-200.000	0.468	0.000
-736.039	322.592	0.141	-0.269
-735.025	-22.638	0.292	0.177
-734.010	384.963	0.162	-0.335
-732.996	-200.000	-0.009	0.117
-731.981	800.000	-0.056	0.208
-730.966	-200.000	0.001	0.178
-729.952	17.378	0.280	0.223
-728.937	12.884	-0.177	-0.137
-727.923	-163.000	-0.310	0.015
-726.908	800.000	-0.069	0.195
-725.894	800.000	-0.046	0.177
-724.879	-200.000	-0.052	-0.420
-723.864	-71.075	0.155	-0.058
-722.850	122.721	0.067	0.084
-721.835	-200.000	-0.019	0.381
-720.821	800.000	0.028	0.094
-719.806	-2.922	-0.058	-0.041
-718.791	-114.707	0.263	0.050
-717.777	39.976	-0.206	0.186
-716.762	198.502	-0.074	-0.113
-715.748	682.512	0.111	0.290
-714.733	-41.102	-0.220	0.114
-713.718	800.000	0.045	-0.157
-712.704	-200.000	0.034	-0.220
-711.689	-26.371	0.119	-0.070
-710.675	-200.000	0.015	0.092
-709.660	-57.489	-0.114	-0.050
-708.645	-110.587	-0.192	0.040
-707.631	-130.835	0.181	-0.024
-706.616	-60.344	0.149	0.064
-705.602	61.710	-0.236	-0.236
-704.587	-152.818	-0.296	-0.021
-703.572	23.010	0.075	0.061
-702.558	-19.826	-0.230	0.143
-701.543	294.823	0.205	-0.377
-700.529	56.928	-0.102	-0.100
-699.514	-79.488	0.266	0.090
-698.499	-200.000	-0.008	-0.037
-697.485	-37.525	-0.285	0.152
-696.470	-200.000	-0.069	-0.441
-695.456	-44.519	-0.100	0.050
-694.441	523.742	-0.020	-0.048
-693.426	180.750	0.102	0.150
-692.412	116.427	0.302	-0.371
-691.397	-139.614	-0.095	0.010
-690.383	-200.000	-0.022	-0.151
-689.368	-200.000	-0.056	-0.364
-688.354	-200.000	0.029	0.154
-687.339	-143.128	-0.421	0.041
-686.324	-88.450	0.320	-0.096
-685.310	521.759	0.043	0.102
-684.295	-200.000	0.009	0.313
-683.281	8.002	-0.212	0.159
-682.266	34.736	-0.229	-0.200
-681.251	-76.839	-0.285	0.100
-680.237	-155.368	-0.209	-0.014
-679.222	64.683	-0.178	-0.180
-678.208	800.000	-0.053	-0.211
-677.193	43.874	0.262	0.240
-676.178	16.912	-0.122	0.096
-675.164	-159.307	0.019	-0.001
-674.149	97.142	0.010	0.012
-673.135	44.802	0.147	-0.135
-672.120	-87.470	-0.090	0.027
-671.105	-11.689	0.258	-0.170
-670.091	58.144	0.079	-0.078
-669.076	-200.000	-0.060	-0.266
-668.062	-49.733	-0.264	-0.126
-667.047	131.593	0.085	0.109
-666.032	-200.000	0.013	-0.305
-665.018	734.637	0.033	-0.089
-664.003	-157.286	-0.056	-0.003
-662.989	-62.145	0.145	0.060
-661.974	800.000	0.161	-0.474
-660.959	-99.254	-0.308	0.078
-659.945	-200.000	0.000	0.010
-658.930	20.423	-0.282	-0.229
-657.916	-129.367	-0.333	-0.046
-656.901	-61.335	0.411	0.173
-655.886	-200.000	0.039	0.285
-654.872	148.450	-0.070	0.095
-653.857	114.347	-0.045	-0.055
-652.843	-107.265	-0.066	0.014
-651.828	283.622	0.058	0.105
-650.814	-50.648	0.236	0.111
-649.799	46.790	0.018	0.017
-648.784	-22.783	-0.256	-0.155
-647.770	15.950	0.092	-0.072
-646.755	-107.742	-0.249	-0.054
-645.741	-126.493	0.213	0.032
-644.726	476.318	0.072	-0.164
-643.711	800.000	0.123	-0.398
-642.697	-91.060	0.102	-0.029
-641.682	800.000	-0.048	-0.158
-640.668	-74.537	-0.393	0.142
-639.653	209.947	-0.168	0.264
-638.638	-93.114	0.286	0.080
-637.624	72.519	0.267	-0.279
-636.609	-50.519	0.233	0.110
-635.595	-200.000	-0.024	0.144
-634.580	-101.479	-0.062	-0.015
-633.565	129.563	-0.029	0.037
-632.551	28.840	-0.292	0.248
-631.536	480.850	0.084	-0.190
-630.522	209.825	-0.221	-0.346
-629.507	310.133	0.218	0.407
-628.492	-134.965	-0.176	-0.021
-627.478	181.859	0.082	-0.121
-626.463	149.863	0.035	0.048
-625.449	73.596	0.136	0.142
-624.434	91.779	-0.080	0.090
-623.419	-60.516	0.146	-0.062
-622.405	-200.000	0.043	0.492
-621.390	-137.911	-0.244	-0.027
-620.376	335.504	-0.114	-0.222
-619.361	173.655	0.146	0.211
-618.346	89.034	-0.231	0.257
-617.332	96.568	-0.216	0.248
-616.317	-136.410	0.224	0.026
-615.303	-85.698	-0.185	-0.057
-614.288	-24.760	0.310	-0.184
-613.273	800.000	-0.076	0.249
-612.259	-200.000	0.002	-0.065
-611.244	-157.747	0.114	-0.007
-610.230	-53.714	-0.171	-0.078
-609.215	120.757	0.124	-0.154
-608.201	47.728	-0.125	0.117
-607.186	-98.716	0.418	0.106
-606.171	-168.786	0.300	-0.011
-605.157	99.819	0.082	0.094
-604.142	39.049	0.053	-0.048
-603.128	198.397	0.121	0.185
-602.113	800.000	0.052	-0.171
-601.098	-29.994	-0.041	0.023
-600.084	51.566	-0.171	-0.162
-599.069	-48.066	-0.301	-0.145
-598.055	-122.158	-0.060	0.010
-597.040	578.277	-0.107	-0.262
-596.025	-115.318	-0.167	-0.031
-595.011	-129.043	-0.076	-0.011
-593.996	800.000	-0.021	0.066
-592.982	135.127	0.196	-0.255
-591.967	-13.311	-0.195	0.126
-590.952	-22.013	0.435	0.264
-589.938	297.126	-0.105	-0.193
-588.923	-20.900	-0.084	0.051
-587.909	560.546	0.178	-0.429
-586.894	-200.000	0.008	-0.109
-585.879	-53.355	0.137	-0.062
-584.865	-49.206	0.202	0.096
-583.850	-123.068	-0.302	-0.048
-582.836	40.045	-0.312	-0.280
-581.821	800.000	0.066	-0.190
-580.806	22.611	0.171	-0.140
-579.792	13.871	0.311	-0.242
-578.777	166.406	0.144	0.204
-577.763	269.664	0.142	-0.249
-576.748	348.662	0.165	-0.326
-575.733	237.654	0.069	0.114
-574.719	-156.155	-0.120	-0.008
-573.704	-130.114	-0.359	-0.049
-572.690	44.123	-0.109	0.100
-571.675	18.300	0.286	-0.228
-570.661	335.544	-0.169	-0.327
-569.646	-200.000	0.005	0.029
-568.631	-14.271	0.108	0.070
-567.617	-8.718	0.170	0.114
-566.602	397.172	0.029	-0.060
-565.588	221.898	-0.135	-0.216
-564.573	-112.443	-0.111	0.022
-563.558	-19.295	-0.249	-0.154
-562.544	171.389	-0.104	0.148
-561.529	182.994	-0.289	-0.426
-560.515	-61.759	-0.133	0.055
-559.500	-83.989	-0.288	-0.091
-558.485	460.826	0.060	-0.132
-557.471	-0.247	0.115	-0.082
-556.456	52.930	0.216	-0.206
-555.442	24.287	-0.134	-0.110
-554.427	122.811	-0.139	-0.173
-553.412	8.645	-0.196	0.148
-552.398	-200.000	0.008	0.092
-551.383	-152.524	-0.269	0.019
-550.369	-200.000	-0.030	0.174
-549.354	800.000	0.036	-0.148
-548.339	223.330	0.070	-0.112
-547.325	293.761	-0.030	0.054
-546.310	800.000	0.090	-0.333
-545.296	-153.136	-0.311	0.022
-544.281	72.812	0.256	0.267
-543.266	78.406	0.324	-0.345
-542.252	135.818	-0.161	-0.210
-541.237	-93.427	0.296	0.082
-540.223	89.595	-0.316	0.351
-539.208	-9.532	-0.204	-0.136
-538.193	86.405	0.154	0.170
-537.179	800.000	-0.060	0.178
-536.164	-97.342	-0.165	-0.043
-535.150	-200.000	-0.052	-0.268
-534.135	261.242	0.048	-0.083
-533.121	10.892	-0.140	-0.106
-532.106	-200.000	0.010	0.168
-531.091	800.000	0.087	-0.302
-530.077	512.399	0.118	-0.275
-529.062	126.303	-0.139	0.175
-528.048	433.017	0.107	-0.231
-527.033	-103.651	0.152	0.036
-526.018	-39.069	0.281	-0.147
-525.004	130.296	-0.035	0.044
-523.989	1.079	0.204	-0.146
-522.975	221.062	-0.166	0.265
-521.960	800.000	-0.067	-0.224
-520.945	-19.633	-0.293	-0.181
-519.931	800.000	-0.135	-0.421
-518.916	14.863	-0.146	-0.113
-517.902	203.181	0.057	0.088
-516.887	425.014	-0.057	0.122
-515.872	-191.319	-0.333	-0.003
-514.858	1.603	0.032	-0.023
-513.843	99.875	-0.177	-0.204
-512.829	-200.000	0.008	0.082
-511.814	-141.503	0.243	-0.024
-510.799	562.770	0.086	-0.207
-509.785	576.923	-0.119	-0.290
-508.770	-200.000	-0.001	-0.050
-507.756	-179.068	-0.357	-0.008
-506.741	-49.596	-0.118	-0.056
-505.726	39.318	0.293	-0.261
-504.712	-135.626	0.087	-0.010
-503.697	800.000	0.084	-0.267
-502.683	31.779	-0.113	0.097
-501.668	25.262	0.141	-0.117
-500.653	122.761	-0.016	-0.020
-499.639	-45.142	-0.337	0.167
-498.624	-67.166	0.088	-0.034
-497.610	-102.736	-0.472	0.112
-496.595	-87.762	0.149	-0.045
-495.581	-108.921	0.029	0.006
-494.566	44.556	-0.055	-0.051
-493.551	204.913	-0.210	0.324
-492.537	-169.602	0.499	0.018
-491.522	47.464	-0.084	0.078
-490.508	-68.875	0.310	-0.119
-489.493	-77.317	0.130	0.045
-488.478	800.000	-0.034	-0.095
-487.464	599.174	0.118	-0.292
-486.449	-147.269	-0.192	0.016
-485.435	-74.143	0.274	0.098
-484.420	97.886	-0.021	0.024
-483.405	-6.097	-0.102	0.070
-482.391	800.000	-0.121	0.369
-481.376	-67.083	-0.183	-0.072
-480.362	68.238	0.040	0.041
-479.347	-200.000	0.040	-0.300
-478.332	399.763	0.243	-0.507
-477.318	44.142	-0.261	0.238
-476.303	-25.736	0.290	-0.170
-475.289	-200.000	0.023	0.126
-474.274	800.000	0.022	-0.065
-473.259	-74.082	-0.197	-0.071
-472.245	-8.763	-0.262	0.175
-471.230	485.705	-0.089	-0.202
-470.216	-200.000	-0.049	-0.304
-469.201	103.250	0.246	-0.286
-468.186	-104.389	0.194	0.045
-467.172	-51.658	-0.245	-0.114
-466.157	-200.000	0.009	0.309
-465.143	68.878	0.069	0.070
-464.128	-182.831	0.086	-0.002
-463.113	158.560	0.060	0.083
-462.099	-64.848	-0.201	-0.081
-461.084	800.000	-0.026	0.080
-460.070	11.796	0.092	-0.070
-459.055	-88.049	-0.077	0.023
-458.040	800.000	-0.069	-0.240
-457.026	-97.911	-0.146	0.037
-456.011	21.568	0.234	0.189
-454.997	238.167	-0.161	-0.265
-453.982	-44.730	-0.281	0.139
-452.968	-168.178	-0.299	-0.012
-451.953	161.776	-0.127	0.176
-450.938	-107.624	0.232	0.050
-449.924	598.776	-0.025	0.061
-448.909	-158.870	-0.149	-0.008
-447.895	-10.724	0.133	0.087
-446.880	465.498	0.156	-0.346
-445.865	-82.513	0.270	0.087
-444.851	-105.047	0.252	-0.057
-443.836	72.996	0.114	0.119
-442.822	-186.451	-0.300	-0.004
-441.807	-105.791	0.429	-0.096
-440.792	216.928	-0.132	-0.209
-439.778	488.281	-0.092	-0.209
-438.763	-85.090	0.205	-0.064
-437.749	-84.341	0.385	0.121
-436.734	-200.000	-0.014	-0.107
-435.719	-171.681	-0.283	-0.009
-434.705	-21.870	0.259	0.157
-433.690	-19.378	0.258	-0.159
-432.676	800.000	-0.067	-0.238
-431.661	16.472	-0.114	0.090
-430.646	-27.173	0.297	0.172
-429.632	1.186	-0.142	0.101
-428.617	107.396	0.201	-0.237
-427.603	-21.882	0.234	0.141
-426.588	800.000	0.050	0.211
-425.573	41.268	0.342	0.307
-424.559	23.005	-0.095	0.077
-423.544	42.630	-0.188	-0.170
-422.530	153.334	-0.186	0.253
-421.515	-131.515	0.064	-0.008
-420.500	-3.993	0.432	0.297
-419.486	-156.775	-0.081	-0.005
-418.471	41.925	0.075	-0.068
-417.457	297.151	0.259	-0.472
-416.442	-59.534	0.090	0.038
-415.428	-66.301	-0.275	0.109
-414.413	-200.000	0.001	-0.106
-413.398	-200.000	-0.020	-0.166
-412.384	-200.000	-0.027	-0.179
-411.369	-200.000	-0.021	0.223
-410.355	252.389	-0.108	-0.183
-409.340	-200.000	0.010	-0.152
-408.325	207.181	-0.044	0.068
-407.311	259.034	0.075	0.127
-406.296	37.744	0.133	0.117
-405.282	722.759	-0.035	0.094
-404.267	441.650	-0.127	-0.275
-403.252	800.000	0.023	0.069
-402.238	-200.000	-0.053	-0.298
-401.223	278.434	0.306	0.541
-400.209	7.197	-0.269	-0.199
-399.194	-148.940	-0.366	-0.029
-398.179	-31.332	-0.197	0.110
-397.165	-200.000	-0.014	-0.188
-396.150	-94.201	0.065	0.018
-395.136	-20.572	0.081	0.049
-394.121	12.336	0.071	0.054
-393.106	41.436	-0.056	0.050
-392.092	-200.000	-0.047	-0.524
-391.077	106.269	-0.140	-0.164
-390.063	26.024	0.254	-0.210
-389.048	153.835	-0.087	-0.119
-388.033	-200.000	-0.013	0.101
-387.019	20.150	0.006	-0.005
-386.004	59.138	0.112	-0.109
-384.990	-38.636	0.138	-0.072
-383.975	800.000	-0.063	-0.213
-382.960	-183.244	0.347	0.006
-381.946	-46.915	0.210	-0.102
-380.931	-3.529	-0.167	-0.115
-379.917	13.874	0.115	-0.089
-378.902	139.401	-0.232	0.303
-377.888	294.448	0.012	-0.022
-376.873	-151.387	0.317	0.023
-375.858	124.573	0.111	0.138
-374.844	-93.274	0.419	-0.115
-373.829	-73.861	0.044	-0.016
-372.815	-200.000	-0.036	0.163
-371.800	-106.828	0.309	-0.068
-370.785	39.674	-0.184	-0.163
-369.771	800.000	0.068	-0.283
-368.756	-33.620	-0.094	0.051
-367.742	-200.000	0.004	0.289
-366.727	55.490	-0.100	-0.095
-365.712	800.000	-0.065	-0.179
-364.698	-138.047	-0.111	-0.012
-363.683	800.000	0.099	0.286
-362.669	179.207	0.072	-0.104
-361.654	800.000	0.041	0.113
-360.639	156.480	0.086	-0.117
-359.625	800.000	0.054	0.150
-358.610	-63.622	0.190	0.077
-357.596	-122.044	0.118	-0.019
-356.581	-48.832	-0.126	0.060
-355.566	282.110	0.044	-0.079
-354.552	-200.000	-0.069	-0.305
-353.537	-200.000	0.043	0.337
-352.523	51.329	-0.109	0.103
-351.508	-200.000	0.009	0.380
-350.493	424.662	0.114	0.243
-349.479	-142.932	-0.330	-0.032
-348.464	-132.568	-0.063	0.008
-347.450	-117.155	-0.030	-0.005
-346.435	-20.406	-0.210	0.128
-345.420	-200.000	0.018	0.091
-344.406	-192.008	0.300	-0.003
-343.391	-176.824	0.279	0.007
-342.377	515.278	-0.202	0.466
-341.362	-21.570	-0.050	0.030
-340.348	800.000	-0.112	-0.332
-339.333	122.423	0.075	0.093
-338.318	800.000	-0.081	0.273
-337.304	-91.537	-0.041	0.012
-336.289	71.710	0.145	0.149
-335.275	-160.536	-0.332	0.018
-334.260	-14.543	-0.186	-0.118
-333.245	800.000	-0.110	0.341
-332.231	-123.878	-0.270	-0.042
-331.216	172.379	0.220	0.312
-330.202	-56.021	0.162	0.071
-329.187	20.984	-0.196	-0.157
-328.172	78.554	-0.021	-0.022
-327.158	242.211	0.170	-0.281
-326.143	-38.668	0.240	0.125
-325.129	-200.000	-0.005	0.057
-324.114	120.738	0.116	0.143
-323.099	800.000	-0.042	-0.143
-322.085	5.065	-0.087	-0.063
-321.070	-200.000	-0.022	0.380
-320.056	800.000	0.087	0.328
-319.041	-200.000	0.005	-0.078
-318.026	800.000	-0.064	0.264
-317.012	47.376	-0.198	0.183
-315.997	-62.965	0.156	-0.064
-314.983	-125.394	-0.361	0.054
-313.968	-200.000	0.000	-0.066
-312.953	-190.969	0.083	-0.001
-311.939	224.785	0.236	-0.377
-310.924	800.000	0.099	0.305
-309.910	-200.000	0.014	0.089
-308.895	108.688	-0.271	0.320
-307.880	-90.962	-0.321	-0.091
-306.866	-114.256	-0.405	-0.077
-305.851	-200.000	-0.000	-0.380
-304.837	686.008	0.102	0.263
-303.822	80.378	0.152	0.162
-302.807	65.384	0.136	-0.136
-301.793	-164.867	-0.173	0.008
-300.778	451.819	-0.093	0.203
-299.764	800.000	-0.079	-0.298
-298.749	800.000	0.126	-0.390
-297.735	576.466	0.070	-0.169
-296.720	-98.754	-0.128	-0.032
-295.705	203.171	-0.029	0.045
-294.691	-200.000	0.055	0.240
-293.676	-128.116	-0.135	-0.019
-292.662	-200.000	-0.000	0.233
-291.647	507.329	0.058	0.134
-290.632	-200.000	0.015	-0.137
-289.618	-78.555	-0.099	0.033
-288.603	-23.425	0.409	0.242
-287.589	-79.584	-0.061	-0.020
-286.574	83.622	-0.167	0.180
-285.559	-64.018	-0.125	-0.050
-284.545	-25.969	-0.073	-0.042
-283.530	-86.539	0.227	0.069
-282.516	129.126	0.118	0.149
-281.501	46.154	0.115	0.106
-280.486	405.167	0.026	0.054
-279.472	0.077	0.270	-0.190
-278.457	-101.216	-0.179	0.043
-277.443	38.103	0.227	-0.200
-276.428	-87.784	-0.207	0.061
-275.413	-200.000	0.068	0.386
-274.399	-103.957	-0.188	0.043
-273.384	800.000	0.094	0.262
-272.370	-200.000	-0.045	-0.250
-271.355	800.000	-0.069	-0.224
-270.340	-146.923	0.032	0.003
-269.326	-147.504	0.100	-0.008
-268.311	-15.525	0.237	0.149
-267.297	-75.710	-0.488	0.171
-266.282	-86.972	0.282	-0.085
-265.267	-200.000	-0.003	-0.080
-264.253	-200.000	-0.059	0.258
-263.238	-110.208	-0.379	0.078
-262.224	48.867	0.035	-0.033
-261.209	800.000	-0.131	0.380
-260.195	-200.000	-0.001	0.014
-259.180	-19.139	0.122	0.075
-258.165	292.346	-0.079	-0.141
-257.151	-200.000	0.052	0.261
-256.136	110.142	-0.054	0.064
-255.122	-115.795	0.382	0.070
-254.107	-42.923	0.147	0.074
-253.092	295.668	-0.176	0.317
-252.078	-67.382	0.243	-0.094
-251.063	-68.992	-0.046	0.018
-250.049	-4.629	0.282	-0.192
-249.034	622.690	0.077	0.191
-248.019	-132.240	-0.393	0.050
-247.005	298.447	0.131	0.237
-245.990	-200.000	0.035	0.410
-244.976	-200.000	-0.009	-0.119
-243.961	34.779	-0.134	-0.115
-242.946	57.528	0.123	0.119
-241.932	53.752	-0.144	-0.137
-240.917	139.982	0.117	0.152
-239.903	41.883	-0.201	0.179
-238.888	2.971	0.186	-0.133
-237.873	-35.411	-0.116	0.062
-236.859	-140.501	0.548	0.056
-235.844	43.782	0.139	0.126
-234.830	-146.386	0.099	0.009
-233.815	17.309	-0.171	0.134
-232.800	-200.000	-0.036	0.368
-231.786	-183.938	0.145	0.002
-230.771	50.146	-0.065	0.060
-229.757	6.770	-0.098	0.072
-228.742	-145.604	-0.209	-0.018
-227.727	377.876	-0.039	0.079
-226.713	-23.371	-0.265	-0.157
-225.698	-200.000	-0.063	0.279
-224.684	-200.000	0.021	0.384
-223.669	-40.323	-0.169	-0.086
-222.655	6.533	-0.136	0.099
-221.640	800.000	-0.087	0.324
-220.625	-132.910	-0.429	0.054
-219.611	351.876	0.084	-0.164
-218.596	468.765	-0.066	0.146
-217.582	-110.578	0.310	-0.063
-216.567	-144.715	-0.073	0.007
-215.552	21.619	-0.237	-0.189
-214.538	-200.000	-0.027	-0.181
-213.523	800.000	0.074	0.204
-212.509	800.000	-0.067	0.195
-211.494	-53.871	0.082	-0.037
-210.479	-200.000	-0.027	-0.374
-209.465	83.970	-0.038	0.040
-208.450	800.000	-0.036	0.133
-207.436	-6.567	0.044	-0.030
-206.421	334.390	-0.134	-0.256
-205.406	-200.000	-0.025	-0.368
-204.392	41.483	0.028	-0.025
-203.377	800.000	-0.051	0.140
-202.363	8.200	-0.017	0.013
-201.348	-58.136	0.098	-0.042
-200.333	126.830	-0.114	-0.143
-199.319	-156.916	-0.184	-0.011
-198.304	87.267	0.101	-0.110
-197.290	1.676	-0.054	-0.038
-196.275	-200.000	-0.002	0.391
-195.260	-17.868	-0.153	-0.094
-194.246	-200.000	-0.018	-0.158
-193.231	693.833	0.070	-0.180
-192.217	-57.347	0.200	-0.087
-191.202	91.171	-0.218	0.240
-190.187	-139.591	0.391	0.041
-189.173	303.183	-0.123	-0.225
-188.158	-200.000	0.027	0.341
-187.144	46.506	0.223	0.204
-186.129	-70.694	0.203	-0.076
-185.114	546.208	-0.095	0.223
-184.100	-115.413	0.105	-0.019
-183.085	-13.716	-0.215	0.137
-182.071	84.737	-0.102	0.109
-181.056	-200.000	-0.001	0.096
-180.042	-71.836	-0.221	-0.081
-179.027	83.490	0.141	0.151
-178.012	-143.764	-0.116	0.011
-176.998	255.737	0.131	-0.220
-175.983	352.924	0.160	-0.312
-174.969	-200.000	0.029	0.182
-173.954	-200.000	-0.016	0.133
-172.939	68.123	0.117	0.118
-171.925	-200.000	-0.009	-0.082
-170.910	-85.938	0.214	0.065
-169.896	207.150	-0.078	0.119
-168.881	351.039	0.100	0.195
-167.866	-61.851	-0.338	-0.139
-166.852	240.313	-0.171	0.280
-165.837	-26.189	0.142	0.082
-164.823	-200.000	-0.012	0.151
-163.808	417.301	0.119	0.250
-162.793	800.000	0.007	0.027
-161.779	66.506	0.313	-0.312
-160.764	-152.385	-0.177	0.012
-159.750	83.128	0.131	0.141
-158.735	89.449	0.198	0.216
-157.720	-200.000	0.006	-0.069
-156.706	800.000	-0.074	-0.285
-155.691	-9.315	-0.155	0.102
-154.677	-120.611	-0.212	0.035
-153.662	112.004	0.111	0.131
-152.647	-200.000	-0.053	-0.312
-151.633	-156.715	0.185	0.011
-150.618	37.919	-0.086	-0.075
-149.604	-200.000	-0.008	0.068
-148.589	4.315	-0.050	-0.036
-147.574	-200.000	0.045	-0.331
-146.560	-200.000	-0.060	-0.282
-145.545	800.000	0.059	0.210
-144.531	173.003	0.157	-0.222
-143.516	-14.570	0.087	-0.055
-142.502	4.227	0.166	0.119
-141.487	-200.000	0.089	0.700
-140.472	2.860	0.111	-0.079
-139.458	-200.000	0.030	-0.181
-138.443	-200.000	0.060	0.324
-137.429	800.000	-0.088	0.294
-136.414	800.000	-0.057	0.189
-135.399	59.871	-0.236	0.228
-134.385	-109.256	-0.151	0.031
-133.370	-13.437	0.135	0.086
-132.356	246.297	0.123	-0.204
-131.341	43.192	0.233	0.208
-130.326	718.712	0.067	0.175
-129.312	-162.882	0.088	-0.004
-128.297	-31.935	-0.188	-0.103
-127.283	-82.563	0.273	-0.087
-126.268	-200.000	-0.010	0.176
-125.253	-48.465	-0.246	-0.116
-124.239	73.369	0.125	-0.129
-123.224	-148.372	-0.108	0.009
-122.210	153.303	-0.080	0.108
-121.195	-56.366	-0.063	0.028
-120.180	-145.304	0.277	0.024
-119.166	-200.000	-0.017	-0.477
-118.151	53.392	0.128	-0.120
-117.137	800.000	0.071	0.207
-116.122	420.971	-0.137	-0.289
-115.107	148.134	0.310	-0.409
-114.093	800.000	-0.025	-0.098
-113.078	116.995	-0.197	-0.237
-112.064	-62.121	0.249	-0.102
-111.049	96.486	-0.184	-0.206
-110.034	-72.016	0.196	0.072
-109.020	-67.358	-0.175	0.067
-108.005	15.346	0.108	-0.083
-106.991	239.415	0.183	-0.298
-105.976	-200.000	0.003	0.177
-104.962	800.000	-0.016	-0.052
-103.947	800.000	0.046	-0.160
-102.932	-88.768	0.028	-0.008
-101.918	-80.845	0.115	0.038
-100.903	85.196	-0.044	-0.047
-99.889	-14.013	0.319	-0.202
-98.874	44.173	-0.047	-0.042
-97.859	-200.000	0.028	0.165
-96.845	202.264	-0.031	-0.047
-95.830	-46.064	-0.346	-0.167
-94.816	59.727	-0.078	0.076
-93.801	714.403	0.038	-0.098
-92.786	244.415	0.089	0.146
-91.772	-200.000	0.062	0.281
-90.757	342.006	-0.116	0.221
-89.743	621.886	0.180	-0.445
-88.728	773.154	-0.034	0.090
-87.713	120.523	-0.104	0.127
-86.699	-86.643	0.170	-0.051
-85.684	-200.000	-0.027	0.248
-84.670	800.000	0.033	-0.094
-83.655	-200.000	0.017	0.145
-82.640	330.066	0.244	-0.460
-81.626	-81.906	-0.197	-0.063
-80.611	-49.691	-0.486	-0.226
-79.597	29.556	-0.145	-0.121
-78.582	1.893	0.217	-0.153
-77.567	-83.762	0.012	-0.004
-76.553	-200.000	-0.035	0.187
-75.538	72.146	0.082	0.084
-74.524	-91.711	0.221	-0.061
-73.509	-200.000	0.001	0.029
-72.494	-60.030	0.323	0.135
-71.480	800.000	0.054	-0.212
-70.465	92.772	-0.218	0.241
-69.451	-114.686	0.193	0.036
-68.436	-53.971	-0.279	-0.124
-67.422	104.119	-0.199	-0.229
-66.407	42.188	-0.221	0.196
-65.392	-168.277	-0.254	-0.010
-64.378	800.000	0.045	-0.151
-63.363	317.469	0.064	0.119
-62.349	-13.878	0.159	-0.100
-61.334	14.985	-1.202	-0.920
-60.319	77.701	0.474	0.494
-59.305	-200.000	-0.072	-1.004
-58.290	242.145	0.713	1.166
-57.276	603.219	0.760	1.849
-56.261	-200.000	113.698	642.640
-55.246	466.571	1509.719	3307.814
-54.232	145.936	2688.318	3525.447
-53.217	96.525	2294.363	2568.308
-52.203	36.250	1905.197	1641.878
-51.188	30.283	1696.615	1416.667
-50.173	27.979	1654.385	1364.177
-49.159	49.758	1708.806	1574.627
-48.144	48.419	1723.503	1577.983
-47.130	29.966	1682.793	1402.509
-46.115	27.392	1667.820	1370.618
-45.100	27.250	1662.863	1365.423
-44.086	27.183	1660.010	1362.526
-43.071	27.085	1658.119	1360.186
-42.057	27.099	1655.426	1358.026
-41.042	27.109	1653.426	1356.408
-40.027	27.169	1651.138	1354.923
-39.013	27.129	1649.364	1353.118
-37.998	27.145	1647.684	1351.800
-36.984	27.161	1646.645	1351.020
-35.969	27.273	1645.162	1350.580
-34.954	27.188	1643.428	1348.468
-33.940	27.254	1641.949	1347.694
-32.925	27.226	1639.964	1345.803
-31.911	27.278	1637.678	1344.255
-30.896	27.355	1635.843	1343.264
-29.881	27.217	1634.685	1341.243
-28.867	27.287	1632.779	1340.145
-27.852	27.314	1631.183	1338.980
-26.838	27.256	1629.863	1337.415
-25.823	27.239	1629.026	1336.548
-24.809	27.356	1627.032	1335.717
-23.794	27.307	1625.796	1334.293
-22.779	27.319	1624.172	1332.992
-21.765	27.268	1623.012	1331.613
-20.750	27.292	1621.407	1330.425
-19.736	27.337	1620.036	1329.577
-18.721	27.368	1618.296	1328.323
-17.706	27.281	1617.527	1327.000
-16.692	27.283	1615.507	1325.302
-15.677	27.256	1614.390	1324.138
-14.663	27.364	1612.741	1323.517
-13.648	27.315	1611.864	1322.394
-12.633	27.372	1609.890	1321.132
-11.619	27.303	1608.543	1319.476
-10.604	27.343	1607.117	1318.545
-9.590	27.361	1605.649	1317.417
-8.575	27.335	1604.149	1315.944
-7.560	27.365	1603.228	1315.353
-6.546	27.283	1602.320	1313.965
-5.531	27.374	1601.021	1313.505
-4.517	27.194	1599.888	1311.227
-3.502	27.253	1599.126	1310.972
-2.487	27.420	1596.805	1310.220
-1.473	27.105	1585.178	1298.379
-0.458	24.403	1566.241	1263.707
0.556	19.352	1568.149	1233.945
1.571	17.263	1592.065	1237.461
2.586	17.025	1605.052	1245.693
3.600	16.534	1555.165	1203.380
4.615	14.178	1456.754	1111.403
5.629	11.614	1402.907	1053.717
6.644	11.141	1395.611	1045.107
7.659	11.124	1394.355	1043.965
8.673	11.113	1393.484	1043.149
9.688	11.053	1391.061	1040.865
10.702	10.932	1388.704	1038.234
11.717	12.140	1389.628	1046.544
12.731	14.903	1394.392	1067.709
13.746	17.276	1397.553	1085.199
14.761	17.505	1397.342	1086.401
15.775	16.649	1394.721	1078.813
16.790	15.658	1392.024	1070.323
17.804	14.888	1389.369	1063.296
18.819	14.340	1388.152	1058.786
19.834	14.068	1386.253	1055.515
20.848	13.820	1385.530	1053.302
21.863	13.674	1383.540	1050.770
22.877	13.412	1382.869	1048.508
23.892	13.360	1381.872	1047.327
24.907	13.333	1381.554	1046.821
25.921	13.309	1380.394	1045.699
26.936	13.442	1379.154	1045.506
27.950	13.562	1377.840	1045.179
28.965	13.466	1377.510	1044.231
29.980	13.536	1376.229	1043.609
30.994	13.730	1374.978	1043.783
32.009	13.728	1373.528	1042.579
33.023	13.717	1372.176	1041.393
34.038	13.752	1370.806	1040.478
35.053	13.659	1369.442	1038.772
36.067	13.664	1368.534	1038.021
37.082	13.611	1367.522	1036.832
38.096	13.720	1366.465	1036.618
39.111	13.583	1366.140	1035.424
40.126	13.559	1364.651	1034.051
41.140	13.476	1363.892	1032.867
42.155	13.422	1363.940	1032.477
43.169	13.316	1363.651	1031.507
44.184	13.360	1363.463	1031.545
45.199	13.384	1362.695	1031.027
46.213	13.365	1362.129	1030.389
47.228	13.454	1361.315	1030.232
48.242	13.454	1360.080	1029.208
49.257	13.490	1358.430	1028.093
50.271	13.502	1356.969	1026.967
51.286	13.536	1355.423	1025.920
52.301	13.490	1354.280	1024.679
53.315	13.386	1353.628	1023.448
54.330	13.384	1352.058	1022.161
55.344	13.520	1351.049	1022.146
56.359	13.460	1349.999	1020.896
57.374	13.466	1349.128	1020.182
58.388	13.428	1348.246	1019.187
59.403	13.352	1348.372	1018.724
60.417	13.281	1347.376	1017.445
61.432	13.322	1346.136	1016.670
62.447	13.221	1345.650	1015.598
63.461	13.253	1344.269	1014.662
64.476	13.204	1343.034	1013.334
65.490	13.252	1342.153	1012.879
66.505	13.369	1340.391	1012.173
67.520	13.207	1339.514	1010.430
68.534	13.282	1338.395	1009.953
69.549	13.364	1337.305	1009.547
70.563	13.247	1336.491	1008.128
71.578	13.279	1335.241	1007.291
72.593	13.198	1334.252	1005.961
73.607	13.211	1333.528	1005.405
74.622	13.206	1332.590	1004.580
75.636	13.085	1332.296	1003.532
76.651	13.148	1331.637	1003.329
77.666	13.158	1331.047	1002.859
78.680	13.209	1330.497	1002.664
79.695	13.271	1329.232	1002.000
80.709	13.257	1328.813	1001.507
81.724	13.349	1327.794	1001.208
82.739	13.334	1327.251	1000.622
83.753	13.440	1326.073	1000.282
84.768	13.517	1324.865	999.749
85.782	13.526	1323.998	999.058
86.797	13.481	1322.890	997.868
87.812	13.523	1321.387	996.893
88.826	13.464	1320.628	995.879
89.841	13.521	1319.049	994.941
90.855	13.438	1318.250	993.752
91.870	13.481	1317.489	993.354
92.884	13.616	1316.287	993.168
93.899	13.578	1315.948	992.596
94.914	13.648	1314.928	992.155
95.928	13.547	1314.627	991.236
96.943	13.584	1312.611	989.852
97.957	13.479	1312.567	989.100
98.972	13.568	1310.840	988.247
99.987	13.523	1310.402	987.561
101.001	13.525	1309.194	986.571
102.016	13.563	1308.281	986.026
103.030	13.654	1307.420	985.826
104.045	13.656	1306.384	984.974
105.060	13.494	1305.434	983.208
106.074	13.421	1303.824	981.475
107.089	13.442	1302.223	980.305
108.103	13.287	1301.390	978.676
109.118	13.277	1299.671	977.239
110.133	13.343	1298.322	976.527
111.147	13.253	1297.623	975.383
112.162	13.320	1296.030	974.495
113.176	13.429	1294.668	974.025
114.191	13.407	1294.585	973.750
115.206	13.531	1292.871	973.099
116.220	13.380	1291.716	971.261
117.235	13.374	1290.552	970.263
118.249	13.394	1289.801	969.729
119.264	13.344	1288.440	968.325
120.279	13.321	1286.917	966.964
121.293	13.357	1286.620	966.865
122.308	13.416	1285.306	966.136
123.322	13.267	1284.070	964.253
124.337	13.353	1283.327	964.112
125.352	13.412	1281.460	962.966
126.366	13.375	1280.809	962.178
127.381	13.322	1279.583	960.860
128.395	13.355	1278.782	960.369
129.410	13.298	1278.103	959.444
130.424	13.377	1276.707	958.766
131.439	13.386	1275.951	958.167
132.454	13.496	1274.760	957.821
133.468	13.446	1274.180	957.015
134.483	13.378	1273.660	956.147
135.497	13.475	1272.103	955.450
136.512	13.498	1270.787	954.513
137.527	13.487	1269.598	953.468
138.541	13.406	1268.378	952.007
139.556	13.452	1266.700	950.924
140.570	13.567	1265.358	950.495
141.585	13.613	1264.441	949.984
142.600	13.619	1263.673	949.356
143.614	13.718	1262.542	948.993
144.629	13.655	1261.271	947.593
145.643	13.692	1260.174	946.893
146.658	13.641	1259.121	945.727
147.673	13.556	1258.114	944.403
148.687	13.599	1256.627	943.449
149.702	13.555	1255.013	941.902
150.716	13.425	1253.918	940.257
151.731	13.519	1252.563	939.694
152.746	13.615	1251.236	939.162
153.760	13.524	1250.379	937.917
154.775	13.683	1249.120	937.789
155.789	13.779	1247.370	936.933
156.804	13.780	1246.831	936.453
157.819	13.656	1246.196	935.192
158.833	13.611	1245.517	934.347
159.848	13.768	1244.365	934.287
160.862	13.798	1243.402	933.649
161.877	13.643	1242.016	931.654
162.892	13.600	1240.986	930.557
163.906	13.602	1240.273	929.953
164.921	13.617	1239.225	929.166
165.935	13.584	1238.556	928.397
166.950	13.673	1237.869	928.302
167.964	13.773	1236.822	927.990
168.979	13.662	1236.520	927.065
169.994	13.682	1235.563	926.378
171.008	13.794	1234.684	926.260
172.023	13.821	1233.951	925.779
173.037	13.886	1233.150	925.460
174.052	13.855	1231.952	924.305
175.067	13.903	1230.884	923.690
176.081	13.826	1229.720	922.305
177.096	13.660	1229.219	920.926
178.110	13.738	1228.134	920.465
179.125	13.792	1226.486	919.445
180.140	13.786	1225.380	918.500
181.154	13.830	1224.477	917.990
182.169	13.874	1223.103	917.123
183.183	13.930	1221.783	916.356
184.198	13.973	1220.447	915.510
185.213	13.863	1219.830	914.361
186.227	13.990	1218.521	913.997
187.242	14.044	1217.348	913.336
188.256	14.017	1216.681	912.605
189.271	14.060	1215.575	911.930
190.286	13.893	1214.340	910.010
191.300	13.909	1213.532	909.412
192.315	13.800	1212.922	908.276
193.329	13.764	1212.415	907.618
194.344	13.863	1211.732	907.570
195.359	13.968	1210.918	907.449
196.373	14.010	1210.350	907.176
197.388	14.029	1210.545	907.347
198.402	14.222	1209.879	907.820
199.417	14.206	1209.020	907.007
200.432	14.329	1207.936	906.785
201.446	14.333	1207.609	906.481
202.461	14.189	1206.686	904.923
203.475	14.236	1205.499	904.207
204.490	14.288	1203.793	903.129
205.504	14.231	1203.026	902.165
206.519	14.297	1201.614	901.385
207.534	14.177	1200.926	900.141
208.548	14.261	1199.611	899.526
209.563	14.219	1198.784	898.602
210.577	14.234	1198.018	898.028
211.592	14.308	1197.356	897.850
212.607	14.359	1196.298	897.255
213.621	14.317	1195.365	896.246
214.636	14.441	1194.255	896.001
215.650	14.472	1193.246	895.332
216.665	14.493	1192.465	894.784
217.680	14.482	1191.904	894.225
218.694	14.442	1191.146	893.360
219.709	14.506	1190.161	892.885
220.723	14.450	1189.219	891.798
221.738	14.472	1188.733	891.476
222.753	14.423	1188.075	890.642
223.767	14.477	1187.433	890.368
224.782	14.536	1186.858	890.173
225.796	14.608	1186.209	889.993
226.811	14.674	1185.641	889.841
227.826	14.595	1184.586	888.548
228.840	14.558	1183.775	887.663
229.855	14.563	1183.156	887.148
230.869	14.652	1182.213	886.837
231.884	14.520	1181.806	885.752
232.899	14.489	1180.876	884.812
233.913	14.448	1180.263	884.054
234.928	14.463	1179.695	883.632
235.942	14.467	1178.464	882.655
236.957	14.546	1177.279	882.104
237.972	14.543	1177.160	881.923
238.986	14.612	1176.154	881.453
240.001	14.524	1175.804	880.648
241.015	14.516	1174.691	879.693
242.030	14.605	1174.175	879.700
243.045	14.625	1173.195	878.995
244.059	14.618	1172.598	878.429
245.074	14.659	1171.751	877.936
246.088	14.678	1170.920	877.333
247.103	14.711	1170.185	876.881
248.117	14.774	1169.201	876.394
249.132	14.831	1168.712	876.247
250.147	14.969	1167.870	876.263
251.161	15.027	1167.116	875.925
252.176	15.041	1166.262	875.277
253.190	15.019	1166.157	875.005
254.205	15.142	1165.471	875.058
255.220	15.145	1164.418	874.203
256.234	15.128	1163.781	873.561
257.249	15.208	1162.984	873.301
258.263	15.114	1162.608	872.454
259.278	15.221	1162.042	872.510
260.293	15.165	1161.523	871.750
261.307	15.264	1160.625	871.516
262.322	15.254	1160.037	870.941
263.336	15.180	1159.440	870.031
264.351	15.295	1158.992	870.216
265.366	15.348	1158.096	869.744
266.380	15.235	1157.476	868.613
267.395	15.216	1156.387	867.623
268.409	15.249	1155.523	867.065
269.424	15.320	1154.792	866.808
270.439	15.235	1154.451	866.035
271.453	15.182	1153.861	865.245
272.468	15.143	1153.049	864.357
273.482	15.117	1152.034	863.388
274.497	15.246	1151.202	863.351
275.512	15.378	1150.697	863.574
276.526	15.362	1149.876	862.801
277.541	15.269	1149.400	861.886
278.555	15.274	1148.939	861.490
279.570	15.376	1148.127	861.331
280.585	15.464	1147.102	860.935
281.599	15.443	1146.054	859.968
282.614	15.446	1144.885	859.030
283.628	15.405	1144.151	858.190
284.643	15.404	1142.927	857.194
285.657	15.395	1142.534	856.776
286.672	15.382	1141.522	855.874
287.687	15.406	1140.670	855.283
288.701	15.584	1139.618	855.323
289.716	15.504	1138.937	854.332
290.730	15.462	1138.095	853.410
291.745	15.573	1137.544	853.484
292.760	15.486	1137.075	852.616
293.774	15.563	1136.408	852.430
294.789	15.713	1135.774	852.642
295.803	15.713	1135.107	852.064
296.818	15.527	1134.465	850.566
297.833	15.623	1133.520	850.268
298.847	15.730	1132.576	850.026
299.862	15.698	1132.403	849.661
300.876	15.652	1131.538	848.700
301.891	15.609	1130.847	847.893
302.906	15.832	1129.847	848.189
303.920	15.902	1128.967	847.811
304.935	15.819	1128.798	847.188
305.949	15.957	1127.814	847.070
306.964	15.963	1127.585	846.855
307.979	15.873	1126.666	845.637
308.993	15.843	1126.133	845.010
310.008	15.968	1125.145	844.822
311.022	15.868	1124.713	843.919
312.037	15.859	1123.638	842.992
313.052	15.956	1122.555	842.592
314.066	15.840	1121.788	841.362
315.081	15.890	1120.629	840.669
316.095	15.847	1120.194	840.051
317.110	15.803	1119.569	839.290
318.125	15.922	1118.396	838.927
319.139	15.852	1117.609	837.917
320.154	15.845	1117.284	837.562
321.168	15.704	1116.667	836.326
322.183	15.911	1115.975	836.763
323.197	15.852	1115.427	835.985
324.212	15.946	1114.754	835.873
325.227	15.864	1114.492	835.194
326.241	15.928	1113.525	834.713
327.256	15.946	1112.887	834.253
328.270	15.908	1111.967	833.300
329.285	15.942	1110.586	832.360
330.300	15.970	1109.886	831.900
331.314	15.930	1109.021	830.981
332.329	15.954	1107.866	830.159
333.343	16.016	1107.052	829.782
334.358	16.119	1106.142	829.531
335.373	16.056	1105.566	828.718
336.387	16.123	1104.647	828.285
337.402	16.056	1104.394	827.691
338.416	16.150	1103.235	827.212
339.431	16.241	1102.849	827.293
340.446	16.252	1102.180	826.771
341.460	16.270	1101.433	826.230
342.475	16.288	1100.610	825.628
343.489	16.332	1099.773	825.140
344.504	16.365	1098.584	824.337
345.519	16.464	1097.806	824.161
346.533	16.348	1097.111	823.001
347.548	16.456	1096.687	823.136
348.562	16.510	1095.800	822.659
349.577	16.474	1094.780	821.647
350.592	16.339	1094.228	820.503
351.606	16.276	1093.749	819.768
352.621	16.303	1092.559	818.931
353.635	16.379	1092.248	818.997
354.650	16.235	1091.743	817.845
355.665	16.538	1090.245	818.116
356.679	16.393	1090.202	817.314
357.694	16.384	1089.798	816.892
358.708	16.493	1088.667	816.502
359.723	16.522	1087.997	816.064
360.738	16.498	1087.014	815.142
361.752	16.478	1086.835	814.837
362.767	16.471	1086.441	814.438
363.781	16.566	1085.571	814.169
364.796	16.646	1084.790	813.894
365.810	16.612	1084.583	813.505
366.825	16.657	1084.201	813.363
367.840	16.798	1083.381	813.352
368.854	16.788	1082.827	812.817
369.869	16.766	1082.018	812.031
370.883	16.807	1080.873	811.296
371.898	16.878	1080.303	811.136
372.913	16.691	1080.025	809.965
373.927	16.729	1079.320	809.545
374.942	16.881	1078.842	809.839
375.956	16.764	1078.423	808.895
376.971	16.827	1077.792	808.650
377.986	16.777	1077.281	807.958
379.000	16.850	1076.697	807.796
380.015	16.895	1076.213	807.574
381.029	17.041	1075.160	807.408
382.044	16.877	1074.519	806.076
383.059	17.002	1073.581	805.895
384.073	16.996	1072.952	805.322
385.088	17.002	1071.916	804.503
386.102	16.979	1071.184	803.772
387.117	17.043	1069.973	803.097
388.132	16.868	1069.498	801.840
389.146	16.894	1068.630	801.244
390.161	17.009	1067.760	801.064
391.175	17.051	1067.201	800.772
392.190	16.956	1066.770	799.927
393.205	17.063	1065.561	799.456
394.219	17.200	1064.672	799.358
395.234	17.122	1064.019	798.434
396.248	17.188	1062.787	797.746
397.263	16.999	1062.267	796.400
398.278	16.937	1061.632	795.561
399.292	16.894	1060.912	794.752
400.307	16.945	1060.262	794.434
401.321	17.105	1059.650	794.655
402.336	17.026	1058.913	793.659
403.350	17.061	1058.217	793.232
404.365	17.059	1057.675	792.745
405.380	17.168	1057.036	792.707
406.394	17.203	1056.161	792.142
407.409	17.220	1055.129	791.379
408.423	17.147	1054.704	790.648
409.438	17.266	1053.623	790.322
410.453	17.339	1053.003	790.125
411.467	17.348	1052.435	789.673
412.482	17.390	1051.687	789.237
413.496	17.394	1050.995	788.667
414.511	17.269	1050.717	787.806
415.526	17.490	1050.054	788.267
416.540	17.511	1049.763	788.073
417.555	17.582	1048.864	787.658
418.569	17.461	1048.852	787.019
419.584	17.555	1047.687	786.510
420.599	17.371	1047.512	785.458
421.613	105.170	1325.896	1477.702
422.628	96.720	1366.418	1477.773
