DTS Sentinel unit serial number:	SN413079Multiplexer serial number:	ORYXHardware model number:	OX4-SRSoftware version number:	ORYX F/W v4.00 Oryx Data Collector v3.7.2.0data status	okinstallation	princeton_trtdifferential loss correction	single-endedforward channel	channel 2reverse channel	N/Adate	2019/09/16time	07:03:35forward acquisition time	60.00reverse acquisition time	0.00gamma	496.2192k internal	0.2334k external	0.2334temperature offset calibration	0.9979default loss term (dB/km)	0.3790temperature slope calibration	1.0000multiplexer offset coefficient	1.0000multiplexer slope coefficient	1.0000fibre end	0.00T internal ref (°C)	27.37T ext. ref 1 (°C)	11.51T ext. ref 2 (°C)	21.87length (m)	temperature (°C)	Stokes	anti-Stokes-747.200	-144.920	-0.198	0.018
-746.185	199.490	-0.298	0.460
-745.171	-200.000	0.020	0.158
-744.156	-76.846	-0.121	0.042
-743.142	121.372	-0.145	0.181
-742.127	544.746	-0.031	0.074
-741.112	-18.044	-0.230	0.145
-740.098	-11.757	0.089	-0.059
-739.083	-126.435	-0.075	0.011
-738.069	-79.299	0.060	-0.020
-737.054	-200.000	-0.017	0.166
-736.039	39.552	-0.345	0.311
-735.025	-56.731	0.001	0.001
-734.010	131.219	-0.082	0.106
-732.996	-77.577	-0.161	-0.056
-731.981	64.661	-0.059	-0.059
-730.966	-33.252	-0.357	-0.199
-729.952	26.150	-0.141	-0.118
-728.937	47.985	-0.058	-0.055
-727.923	9.818	-0.178	-0.136
-726.908	116.774	-0.042	0.052
-725.894	-200.000	-0.034	-0.206
-724.879	-77.532	-0.210	-0.073
-723.864	136.344	-0.147	-0.193
-722.850	158.431	-0.106	-0.148
-721.835	-109.178	-0.432	0.092
-720.821	-200.000	-0.027	0.334
-719.806	800.000	0.014	-0.043
-718.791	467.624	-0.105	-0.237
-717.777	-119.153	0.217	0.038
-716.762	16.196	-0.158	-0.125
-715.748	9.294	0.264	-0.200
-714.733	-200.000	0.018	-0.232
-713.718	-85.739	-0.113	-0.035
-712.704	149.914	0.106	-0.144
-711.689	505.372	0.141	0.327
-710.675	34.811	0.312	0.274
-709.660	135.548	0.054	0.070
-708.645	-89.510	0.084	-0.025
-707.631	458.640	0.197	-0.439
-706.616	-200.000	0.034	-0.189
-705.602	-153.287	-0.269	-0.019
-704.587	425.828	-0.058	0.125
-703.572	-200.000	0.039	0.281
-702.558	-52.422	-0.193	-0.090
-701.543	-137.215	0.209	0.024
-700.529	-200.000	-0.014	0.133
-699.514	-48.951	-0.175	0.084
-698.499	-200.000	-0.007	-0.537
-697.485	-95.302	-0.046	0.012
-696.470	-200.000	-0.015	0.073
-695.456	800.000	-0.057	-0.195
-694.441	433.369	0.123	-0.269
-693.426	256.419	-0.128	0.220
-692.412	614.261	-0.150	-0.376
-691.397	-133.241	-0.168	0.021
-690.383	-84.276	-0.201	-0.064
-689.368	-200.000	-0.005	0.282
-688.354	171.422	-0.093	0.133
-687.339	-57.065	-0.271	-0.120
-686.324	-200.000	-0.010	-0.152
-685.310	-88.061	-0.207	-0.062
-684.295	193.571	-0.179	-0.271
-683.281	-103.145	0.411	0.098
-682.266	-200.000	0.008	0.090
-681.251	136.597	-0.153	0.200
-680.237	-134.120	0.269	0.033
-679.222	52.327	0.021	0.020
-678.208	-138.691	0.410	0.045
-677.193	800.000	-0.131	-0.404
-676.178	1.531	-0.129	-0.093
-675.164	800.000	-0.025	0.100
-674.149	800.000	0.221	-0.723
-673.135	800.000	0.091	0.283
-672.120	800.000	-0.040	-0.152
-671.105	-161.292	-0.188	0.010
-670.091	-200.000	-0.043	-0.272
-669.076	-200.000	-0.033	-0.305
-668.062	149.061	0.099	-0.135
-667.047	171.119	-0.072	0.103
-666.032	800.000	0.079	-0.247
-665.018	-14.812	0.186	-0.120
-664.003	104.652	-0.253	0.299
-662.989	-144.298	0.245	0.023
-661.974	366.968	-0.119	-0.241
-660.959	-200.000	0.037	0.229
-659.945	310.062	0.168	0.315
-658.930	800.000	-0.087	0.279
-657.916	370.362	-0.107	-0.218
-656.901	-164.421	-0.253	-0.012
-655.886	-12.599	-0.191	-0.125
-654.872	-56.571	-0.401	0.178
-653.857	-45.087	-0.257	0.128
-652.843	-55.306	0.181	-0.081
-651.828	54.262	-0.054	-0.052
-650.814	22.279	0.148	-0.121
-649.799	479.171	0.068	0.155
-648.784	546.239	-0.048	-0.116
-647.770	163.563	0.159	0.224
-646.755	-186.272	-0.030	-0.000
-645.741	-44.661	-0.106	-0.053
-644.726	-117.717	-0.199	0.036
-643.711	113.580	-0.130	-0.158
-642.697	53.043	0.298	-0.286
-641.682	-100.976	0.243	-0.060
-640.668	99.563	0.179	-0.207
-639.653	-22.876	-0.333	0.201
-638.638	48.250	0.283	-0.265
-637.624	4.639	0.175	-0.129
-636.609	457.113	-0.098	-0.217
-635.595	175.602	0.149	-0.216
-634.580	-200.000	-0.015	0.484
-633.565	8.595	0.200	0.151
-632.551	-42.504	0.198	-0.101
-631.536	-15.978	-0.201	-0.128
-630.522	-165.010	0.479	-0.021
-629.507	77.171	-0.160	0.171
-628.492	-48.268	0.196	0.094
-627.478	-200.000	0.005	-0.178
-626.463	-134.398	0.272	0.033
-625.449	-60.990	-0.049	0.021
-624.434	-90.963	0.163	-0.047
-623.419	-176.677	0.360	-0.009
-622.405	-200.000	0.005	0.330
-621.390	-100.345	0.354	-0.088
-620.376	-92.353	0.057	0.016
-619.361	-52.040	-0.182	-0.085
-618.346	-168.285	-0.303	-0.012
-617.332	85.473	0.062	0.068
-616.317	-77.450	-0.169	-0.059
-615.303	800.000	-0.115	-0.354
-614.288	-25.958	0.091	-0.054
-613.273	800.000	-0.048	0.169
-612.259	800.000	0.016	-0.070
-611.244	800.000	-0.055	-0.183
-610.230	800.000	-0.071	-0.259
-609.215	20.762	0.437	-0.354
-608.201	-79.662	-0.059	0.020
-607.186	-188.741	-0.216	0.003
-606.171	800.000	0.041	-0.149
-605.157	89.064	0.099	-0.110
-604.142	800.000	-0.083	0.257
-603.128	-200.000	-0.058	0.254
-602.113	-72.019	0.238	-0.088
-601.098	537.626	0.021	0.050
-600.084	-158.594	-0.314	0.018
-599.069	-50.729	0.171	-0.081
-598.055	-200.000	0.006	0.091
-597.040	-34.013	0.058	0.032
-596.025	-162.565	0.349	0.017
-595.011	52.631	-0.151	0.144
-593.996	-17.085	0.025	0.016
-592.982	-200.000	0.012	-0.106
-591.967	26.584	-0.126	-0.106
-590.952	-112.934	0.228	0.045
-589.938	390.967	-0.143	0.296
-588.923	-21.170	-0.082	-0.050
-587.909	-72.566	0.355	-0.131
-586.894	43.681	-0.146	0.133
-585.879	525.463	-0.088	-0.207
-584.865	-33.618	-0.290	0.160
-583.850	800.000	0.077	0.313
-582.836	-23.371	-0.307	-0.184
-581.821	496.922	-0.177	-0.406
-580.806	89.523	0.127	0.141
-579.792	-195.160	0.178	0.001
-578.777	99.144	-0.238	0.274
-577.763	-173.586	-0.118	-0.004
-576.748	441.554	-0.091	-0.199
-575.733	71.948	-0.090	0.093
-574.719	-29.175	0.204	0.117
-573.704	-116.337	0.134	0.025
-572.690	253.550	0.154	-0.263
-571.675	-200.000	0.000	0.049
-570.661	9.425	0.091	0.069
-569.646	73.633	0.185	0.193
-568.631	-200.000	-0.081	-0.559
-567.617	-42.665	-0.263	-0.134
-566.602	-116.882	-0.090	-0.016
-565.588	90.226	0.093	0.104
-564.573	-200.000	0.030	0.237
-563.558	-200.000	0.017	-0.224
-562.544	-200.000	-0.038	-0.184
-561.529	446.642	-0.050	-0.110
-560.515	-67.234	-0.028	-0.011
-559.500	142.935	-0.220	-0.292
-558.485	512.709	-0.039	-0.091
-557.471	555.293	0.177	0.425
-556.456	-163.762	0.110	0.005
-555.442	5.561	-0.104	0.077
-554.427	63.802	-0.294	0.295
-553.412	-98.354	0.042	-0.011
-552.398	-42.239	-0.427	0.218
-551.383	-6.708	0.142	0.097
-550.369	194.979	-0.123	-0.186
-549.354	173.512	-0.076	0.110
-548.339	168.664	-0.047	-0.066
-547.325	-84.306	0.164	-0.052
-546.310	800.000	-0.085	-0.252
-545.296	-43.803	-0.192	0.097
-544.281	-96.915	-0.302	0.079
-543.266	236.176	-0.073	-0.121
-542.252	520.117	-0.081	-0.190
-541.237	59.761	0.234	0.230
-540.223	-126.941	-0.164	-0.024
-539.208	-200.000	0.002	-0.151
-538.193	-26.209	0.324	-0.190
-537.179	-200.000	0.018	-0.292
-536.164	-37.138	0.020	0.011
-535.150	-186.931	-0.267	-0.004
-534.135	-15.375	0.373	-0.238
-533.121	101.415	-0.039	0.045
-532.106	19.153	0.223	-0.179
-531.091	-31.380	-0.218	-0.122
-530.077	800.000	-0.085	-0.297
-529.062	452.700	0.120	-0.265
-528.048	273.177	-0.093	-0.163
-527.033	351.791	-0.082	-0.162
-526.018	800.000	0.068	0.242
-525.004	-49.149	0.086	-0.041
-523.989	-200.000	0.043	0.402
-522.975	-34.853	0.053	-0.029
-521.960	168.504	0.129	-0.182
-520.945	-156.687	0.046	-0.003
-519.931	45.793	0.074	-0.069
-518.916	-94.167	0.049	-0.013
-517.902	49.230	-0.080	-0.075
-516.887	-59.586	-0.123	0.053
-515.872	632.037	-0.082	-0.206
-514.858	171.608	-0.156	0.223
-513.843	495.023	0.096	0.220
-512.829	418.568	0.087	-0.186
-511.814	800.000	-0.083	0.348
-510.799	-200.000	-0.028	0.228
-509.785	-176.486	0.053	-0.001
-508.770	55.630	-0.229	0.221
-507.756	-200.000	0.021	-0.335
-506.741	800.000	0.041	0.141
-505.726	231.872	0.072	0.118
-504.712	-200.000	0.022	0.147
-503.697	97.621	0.119	-0.136
-502.683	136.832	-0.140	0.183
-501.668	-200.000	-0.062	-0.340
-500.653	-107.319	-0.403	0.088
-499.639	-200.000	0.016	0.091
-498.624	-35.493	-0.196	-0.106
-497.610	38.967	0.192	0.171
-496.595	-95.814	0.109	0.029
-495.581	163.817	-0.233	-0.326
-494.566	-28.928	0.043	-0.025
-493.551	-114.807	-0.166	-0.032
-492.537	100.266	0.222	-0.257
-491.522	-184.147	0.091	-0.002
-490.508	362.109	-0.059	0.117
-489.493	-44.813	-0.196	-0.097
-488.478	90.810	-0.202	-0.226
-487.464	263.351	-0.139	-0.241
-486.449	80.581	0.179	-0.191
-485.435	-200.000	0.035	0.353
-484.420	505.434	-0.028	0.063
-483.405	-166.346	-0.202	-0.008
-482.391	-200.000	0.015	-0.084
-481.376	-34.590	0.286	-0.156
-480.362	-175.369	0.342	-0.009
-479.347	-200.000	-0.012	0.168
-478.332	-200.000	0.067	0.398
-477.318	-84.489	0.372	0.117
-476.303	-45.609	-0.215	0.106
-475.289	-86.333	0.352	0.108
-474.274	-90.326	0.028	-0.008
-473.259	-127.036	-0.194	-0.028
-472.245	-125.170	-0.379	-0.058
-471.230	316.114	0.051	0.096
-470.216	-140.272	-0.195	-0.020
-469.201	-200.000	-0.020	-0.132
-468.186	121.221	0.078	-0.096
-467.172	-58.141	-0.121	-0.053
-466.157	-200.000	-0.028	-0.133
-465.143	76.453	-0.116	-0.122
-464.128	122.931	-0.141	0.175
-463.113	-200.000	0.010	0.150
-462.099	-54.172	0.239	-0.108
-461.084	-6.510	0.062	0.042
-460.070	-200.000	0.013	0.120
-459.055	47.167	0.109	0.100
-458.040	-200.000	-0.017	0.101
-457.026	-92.387	-0.101	-0.028
-456.011	800.000	-0.082	0.232
-454.997	-146.982	-0.110	-0.009
-453.982	-60.408	-0.112	0.047
-452.968	101.621	-0.085	0.098
-451.953	-119.548	0.518	0.089
-450.938	-4.692	-0.350	-0.240
-449.924	-21.154	0.117	-0.071
-448.909	-200.000	-0.003	-0.014
-447.895	-160.728	0.124	0.007
-446.880	74.700	-0.173	-0.181
-445.865	800.000	-0.075	-0.222
-444.851	399.877	-0.079	-0.164
-443.836	17.351	0.288	0.227
-442.822	32.553	0.045	0.039
-441.807	-200.000	0.019	0.088
-440.792	-173.418	0.238	-0.007
-439.778	788.794	-0.130	-0.355
-438.763	172.742	-0.037	0.053
-437.749	-73.906	0.201	-0.072
-436.734	86.741	-0.074	0.081
-435.719	-105.102	-0.374	-0.085
-434.705	21.290	0.343	0.276
-433.690	104.018	-0.154	-0.180
-432.676	-134.495	0.298	0.036
-431.661	-168.295	-0.279	0.011
-430.646	405.549	0.102	0.213
-429.632	420.441	0.052	0.111
-428.617	-122.532	-0.325	-0.052
-427.603	112.538	-0.109	0.130
-426.588	-200.000	0.008	0.096
-425.573	724.982	0.085	0.225
-424.559	-135.090	0.236	0.028
-423.544	800.000	0.023	0.071
-422.530	154.261	0.135	0.184
-421.515	290.217	0.015	0.028
-420.500	96.712	0.074	0.084
-419.486	-169.548	-0.148	0.005
-418.471	204.762	-0.052	-0.080
-417.457	51.334	0.044	-0.042
-416.442	-184.085	0.304	0.005
-415.428	-116.558	0.118	-0.022
-414.413	538.931	-0.020	-0.046
-413.398	-79.711	-0.212	-0.071
-412.384	42.633	0.026	0.023
-411.369	-139.174	0.226	0.024
-410.355	-37.263	0.075	-0.040
-409.340	86.789	-0.192	-0.211
-408.325	93.966	-0.135	0.152
-407.311	179.330	0.017	-0.024
-406.296	-177.248	-0.067	-0.002
-405.282	229.501	-0.183	0.296
-404.267	-74.755	-0.311	-0.111
-403.252	-200.000	0.078	0.353
-402.238	-89.134	-0.246	0.072
-401.223	46.772	-0.109	-0.100
-400.209	-11.012	-0.213	0.140
-399.194	34.074	-0.144	-0.124
-398.179	-57.237	0.221	-0.096
-397.165	-200.000	-0.044	0.347
-396.150	351.034	-0.122	-0.239
-395.136	-17.281	-0.066	-0.041
-394.121	-200.000	0.007	0.080
-393.106	800.000	-0.026	-0.103
-392.092	800.000	0.103	-0.313
-391.077	-66.892	-0.126	0.049
-390.063	442.033	0.026	-0.056
-389.048	800.000	0.057	-0.219
-388.033	800.000	0.063	0.257
-387.019	16.905	0.145	-0.114
-386.004	555.249	0.063	-0.150
-384.990	-200.000	0.016	-0.172
-383.975	-200.000	-0.016	-0.410
-382.960	800.000	-0.022	-0.073
-381.946	630.154	-0.061	0.152
-380.931	-16.007	-0.051	-0.032
-379.917	-200.000	-0.015	0.647
-378.902	-119.959	-0.198	-0.034
-377.888	-50.541	-0.098	0.046
-376.873	422.079	0.125	0.266
-375.858	-35.705	0.225	0.121
-374.844	-200.000	0.002	-0.068
-373.829	-124.872	0.314	-0.048
-372.815	-15.259	-0.218	-0.138
-371.800	14.502	0.053	-0.041
-370.785	127.558	-0.214	0.269
-369.771	800.000	0.007	0.029
-368.756	-4.759	0.123	0.084
-367.742	148.568	0.175	0.234
-366.727	-200.000	0.020	-0.096
-365.712	54.653	-0.204	-0.195
-364.698	-200.000	-0.002	-0.371
-363.683	-22.809	-0.145	-0.087
-362.669	-48.995	0.196	-0.093
-361.654	191.684	0.124	-0.185
-360.639	95.353	-0.200	0.226
-359.625	-138.749	0.540	0.058
-358.610	52.959	0.101	0.096
-357.596	67.193	0.102	-0.103
-356.581	-101.522	-0.154	0.037
-355.566	-200.000	0.042	0.258
-354.552	-37.738	0.145	-0.076
-353.537	178.343	0.159	0.230
-352.523	-200.000	0.014	-0.066
-351.508	-200.000	-0.345	-0.000
-350.493	49.250	-0.083	-0.077
-349.479	515.240	-0.023	-0.054
-348.464	-55.969	0.185	-0.082
-347.450	800.000	-0.074	0.207
-346.435	149.815	0.138	0.185
-345.420	465.940	-0.090	-0.199
-344.406	-152.244	0.427	0.031
-343.391	-0.997	0.443	0.310
-342.377	37.389	0.230	0.202
-341.362	800.000	-0.043	-0.165
-340.348	-42.411	-0.328	0.166
-339.333	-7.255	-0.243	0.163
-338.318	187.687	-0.074	-0.109
-337.304	-78.658	0.053	0.018
-336.289	800.000	0.050	0.207
-335.275	-19.228	-0.246	-0.151
-334.260	-5.025	-0.227	-0.154
-333.245	77.899	-0.163	0.172
-332.231	-126.158	0.205	0.030
-331.216	11.577	0.055	0.041
-330.202	-158.751	-0.162	-0.009
-329.187	800.000	0.107	-0.371
-328.172	-62.518	-0.196	-0.081
-327.158	-200.000	0.010	-0.069
-326.143	-131.088	-0.195	0.026
-325.129	267.334	-0.166	-0.288
-324.114	224.468	-0.187	-0.298
-323.099	142.650	-0.073	-0.096
-322.085	79.706	0.060	0.064
-321.070	-107.557	0.173	0.038
-320.056	-200.000	0.006	0.612
-319.041	51.921	0.138	0.130
-318.026	118.558	-0.189	0.230
-317.012	47.335	0.224	0.206
-315.997	233.229	0.074	0.121
-314.983	7.857	-0.203	0.151
-313.968	800.000	0.043	-0.166
-312.953	-32.446	-0.349	-0.192
-311.939	7.819	-0.131	0.097
-310.924	147.466	0.098	0.131
-309.910	426.807	-0.099	0.212
-308.895	-33.377	-0.339	0.185
-307.880	177.731	-0.071	-0.102
-306.866	260.948	0.030	-0.051
-305.851	-200.000	-0.009	0.297
-304.837	130.225	-0.094	0.119
-303.822	-137.494	-0.162	0.018
-302.807	800.000	-0.078	0.258
-301.793	-30.082	0.039	-0.022
-300.778	-0.607	-0.357	-0.250
-299.764	800.000	-0.016	0.058
-298.749	-9.930	-0.234	-0.154
-297.735	50.959	0.158	-0.148
-296.720	353.874	-0.113	0.222
-295.705	-43.549	0.387	-0.193
-294.691	-98.483	0.142	0.036
-293.676	800.000	0.062	-0.187
-292.662	95.710	-0.142	-0.160
-291.647	285.987	0.046	-0.083
-290.632	-200.000	-0.003	0.081
-289.618	-104.757	0.197	-0.045
-288.603	285.764	0.063	0.112
-287.589	141.786	-0.077	-0.101
-286.574	-89.513	0.261	-0.076
-285.559	272.325	0.201	-0.350
-284.545	509.177	0.053	0.121
-283.530	-121.791	-0.216	-0.035
-282.516	-41.476	-0.316	0.160
-281.501	-1.424	-0.088	0.061
-280.486	-200.000	0.001	-0.056
-279.472	154.282	0.141	-0.191
-278.457	-157.271	0.062	-0.004
-277.443	51.538	0.270	0.253
-276.428	354.089	-0.102	-0.200
-275.413	-200.000	-0.007	-0.046
-274.399	800.000	-0.012	0.034
-273.384	19.696	-0.225	-0.178
-272.370	-200.000	0.074	-0.368
-271.355	-72.207	0.494	0.181
-270.340	-78.731	0.188	0.063
-269.326	-200.000	0.107	-0.473
-268.311	106.344	0.121	-0.142
-267.297	800.000	0.034	0.134
-266.282	800.000	0.054	0.196
-265.267	219.095	0.025	-0.040
-264.253	800.000	0.024	-0.069
-263.238	347.291	-0.032	0.062
-262.224	-200.000	0.024	-0.306
-261.209	121.954	0.173	0.213
-260.195	13.786	-0.118	-0.091
-259.180	-137.081	-0.368	-0.042
-258.165	-200.000	-0.026	0.438
-257.151	388.039	-0.028	-0.056
-256.136	-158.199	-0.304	-0.018
-255.122	235.207	-0.139	0.226
-254.107	200.058	-0.126	-0.191
-253.092	-34.291	-0.181	-0.098
-252.078	-0.358	-0.156	0.109
-251.063	131.949	-0.109	0.138
-250.049	-200.000	0.002	0.170
-249.034	-18.988	-0.261	-0.160
-248.019	270.567	0.068	0.117
-247.005	55.039	-0.188	-0.179
-245.990	-200.000	0.023	0.412
-244.976	-14.326	0.113	-0.072
-243.961	-2.745	0.384	-0.265
-242.946	-200.000	-0.026	-0.165
-241.932	800.000	-0.087	-0.262
-240.917	436.106	0.008	0.017
-239.903	323.196	0.142	0.268
-238.888	287.756	-0.174	0.310
-237.873	-69.129	-0.185	0.070
-236.859	-28.545	0.083	0.047
-235.844	-99.135	0.172	0.043
-234.830	18.231	-0.122	0.096
-233.815	596.203	0.024	-0.057
-232.800	-200.000	-0.001	0.065
-231.786	-48.204	0.096	0.046
-230.771	-200.000	-0.021	-0.101
-229.757	214.193	0.085	0.132
-228.742	800.000	0.040	-0.135
-227.727	-63.036	0.268	-0.109
-226.713	-46.244	-0.410	-0.198
-225.698	349.176	-0.042	0.081
-224.684	-132.866	-0.168	0.021
-223.669	-200.000	-0.047	-0.338
-222.655	117.589	0.084	-0.102
-221.640	-88.459	0.216	-0.063
-220.625	45.433	0.321	0.291
-219.611	-150.806	0.145	-0.011
-218.596	-186.967	0.315	-0.004
-217.582	368.587	-0.120	-0.240
-216.567	461.648	0.068	-0.149
-215.552	226.149	-0.130	0.208
-214.538	800.000	-0.068	-0.264
-213.523	17.450	-0.223	0.175
-212.509	-200.000	-0.000	-0.007
-211.494	-200.000	-0.022	-0.137
-210.479	800.000	-0.032	-0.123
-209.465	87.621	-0.051	-0.055
-208.450	197.391	-0.127	-0.191
-207.436	-200.000	0.004	0.307
-206.421	30.582	-0.198	-0.167
-205.406	88.037	-0.220	-0.241
-204.392	145.348	0.153	0.202
-203.377	684.941	0.041	0.106
-202.363	-51.417	0.313	0.144
-201.348	-68.731	-0.115	-0.044
-200.333	-132.365	0.159	-0.020
-199.319	-146.201	0.074	0.006
-198.304	800.000	0.035	0.125
-197.290	-200.000	-0.011	-0.171
-196.275	-61.668	0.175	0.072
-195.260	-110.093	0.187	0.038
-194.246	-183.909	-0.375	-0.006
-193.231	-149.328	0.112	-0.009
-192.217	-39.796	0.158	-0.081
-191.202	-140.691	-0.197	-0.020
-190.187	-69.701	-0.144	0.054
-189.173	74.497	0.119	0.123
-188.158	-200.000	0.014	0.214
-187.144	-1.194	0.151	0.105
-186.129	-72.855	0.205	0.074
-185.114	142.130	-0.084	0.110
-184.100	-148.018	0.047	0.004
-183.085	-200.000	0.023	0.136
-182.071	-34.071	0.208	-0.112
-181.056	-64.063	-0.061	0.025
-180.042	-96.028	0.137	-0.036
-179.027	-200.000	0.070	0.364
-178.012	600.210	0.059	-0.143
-176.998	800.000	-0.046	0.194
-175.983	133.159	-0.243	-0.309
-174.969	18.581	-0.263	-0.207
-173.954	652.401	0.123	0.310
-172.939	-135.267	0.277	-0.033
-171.925	0.573	-0.033	-0.023
-170.910	-187.312	-0.080	-0.001
-169.896	-81.389	0.170	0.055
-168.881	-84.691	-0.117	-0.036
-167.866	800.000	0.052	0.205
-166.852	-49.704	0.303	0.142
-165.837	-55.022	0.242	0.107
-164.823	8.684	-0.020	-0.015
-163.808	-40.425	-0.166	0.085
-162.793	-128.969	-0.289	0.040
-161.779	277.601	-0.054	-0.094
-160.764	-28.586	0.395	-0.223
-159.750	-19.451	-0.068	0.042
-158.735	82.318	-0.105	0.112
-157.720	35.354	0.111	0.095
-156.706	140.670	0.105	-0.136
-155.691	-116.933	-0.101	0.018
-154.677	-200.000	-0.007	0.242
-153.662	77.564	0.029	0.030
-152.647	800.000	0.048	0.146
-151.633	-98.072	-0.138	0.035
-150.618	-137.770	0.159	-0.018
-149.604	-200.000	0.025	-0.276
-148.589	-83.674	0.208	0.065
-147.574	-200.000	-0.001	0.306
-146.560	394.887	-0.147	0.301
-145.545	-200.000	-0.003	0.142
-144.531	-47.260	-0.206	0.098
-143.516	-87.902	-0.148	-0.044
-142.502	800.000	0.040	-0.148
-141.487	-200.000	-0.040	0.195
-140.472	-166.514	0.214	-0.009
-139.458	13.109	0.098	-0.075
-138.443	-26.052	0.368	-0.213
-137.429	-200.000	0.003	-0.299
-136.414	-200.000	0.005	-0.074
-135.399	25.002	0.161	0.131
-134.385	-181.648	0.194	0.004
-133.370	52.197	0.265	-0.248
-132.356	-200.000	-0.007	0.359
-131.341	-136.932	-0.191	-0.021
-130.326	191.930	0.333	-0.492
-129.312	-200.000	0.046	-0.279
-128.297	-90.727	0.177	-0.050
-127.283	-146.734	0.287	-0.024
-126.268	548.227	-0.076	-0.178
-125.253	-73.749	0.287	-0.102
-124.239	-139.204	0.327	0.035
-123.224	-200.000	0.026	-0.270
-122.210	-198.635	-0.589	0.003
-121.195	-200.000	-0.049	-0.301
-120.180	-0.803	0.317	-0.220
-119.166	-200.000	0.055	0.272
-118.151	-196.270	-0.332	-0.002
-117.137	-67.720	0.058	-0.022
-116.122	-8.258	0.192	0.127
-115.107	800.000	0.028	0.108
-114.093	-200.000	-0.018	-0.193
-113.078	-200.000	-0.094	0.404
-112.064	-200.000	-0.026	0.185
-111.049	-6.124	0.151	0.101
-110.034	-94.019	-0.095	-0.026
-109.020	100.215	-0.035	0.040
-108.005	-200.000	-0.039	-0.204
-106.991	202.935	-0.241	-0.365
-105.976	800.000	0.146	0.398
-104.962	-200.000	-0.024	-0.145
-103.947	-157.577	0.290	0.017
-102.932	55.436	0.280	-0.266
-101.918	-24.944	-0.104	0.060
-100.903	800.000	0.063	0.216
-99.889	-91.411	-0.072	-0.020
-98.874	-48.339	-0.126	-0.059
-97.859	-108.135	0.176	0.037
-96.845	800.000	-0.064	-0.219
-95.830	245.133	-0.191	0.314
-94.816	800.000	0.089	-0.269
-93.801	800.000	-0.109	0.421
-92.786	180.633	-0.092	0.133
-91.772	61.113	-0.214	0.208
-90.757	-200.000	-0.063	0.428
-89.743	-26.461	0.295	-0.170
-88.728	-200.000	0.016	-0.155
-87.713	-52.441	-0.285	-0.129
-86.699	86.781	-0.118	0.127
-85.684	-200.000	0.026	0.226
-84.670	344.612	0.043	-0.082
-83.655	231.193	0.137	0.220
-82.640	587.382	0.063	-0.153
-81.626	-21.052	-0.116	0.070
-80.611	-135.774	0.341	0.039
-79.597	800.000	0.026	0.084
-78.582	30.104	0.065	0.054
-77.567	-200.000	0.016	0.091
-76.553	-32.817	-0.061	0.033
-75.538	-127.612	-0.064	0.009
-74.524	-91.362	-0.387	-0.108
-73.509	-56.817	0.183	0.079
-72.494	-160.228	-0.230	0.012
-71.480	-1.715	-0.245	0.169
-70.465	-200.000	-0.024	-0.342
-69.451	263.129	-0.189	-0.322
-68.436	260.151	0.061	-0.104
-67.422	44.368	0.115	0.104
-66.407	-200.000	-0.002	-0.132
-65.392	800.000	0.129	-0.388
-64.378	128.087	-0.227	-0.282
-63.363	-200.000	0.012	0.512
-62.349	-200.000	-0.016	0.163
-61.334	49.210	-1.068	-0.983
-60.319	261.032	0.291	0.493
-59.305	266.614	-0.516	-0.881
-58.290	151.574	0.795	1.060
-57.276	345.429	0.748	1.437
-56.261	-200.000	113.923	642.403
-55.246	464.198	1512.777	3308.212
-54.232	145.351	2691.282	3524.406
-53.217	96.650	2297.162	2573.265
-52.203	36.273	1907.298	1644.303
-51.188	30.559	1697.859	1420.179
-50.173	27.972	1656.233	1365.995
-49.159	49.887	1710.382	1577.450
-48.144	48.497	1725.238	1580.566
-47.130	30.113	1684.033	1405.009
-46.115	27.438	1669.458	1372.662
-45.100	27.349	1664.165	1367.583
-44.086	27.210	1661.866	1364.602
-43.071	27.281	1659.180	1362.875
-42.057	27.228	1656.312	1360.063
-41.042	27.209	1654.626	1358.490
-40.027	27.320	1652.522	1357.534
-39.013	27.160	1651.397	1355.364
-37.998	27.196	1649.247	1353.811
-36.984	27.319	1648.049	1353.694
-35.969	27.368	1646.270	1352.539
-34.954	27.462	1644.706	1351.900
-33.940	27.391	1642.693	1349.667
-32.925	27.361	1641.274	1348.221
-31.911	27.375	1639.224	1346.588
-30.896	27.404	1637.377	1345.235
-29.881	27.389	1635.908	1343.857
-28.867	27.373	1634.559	1342.577
-27.852	27.402	1632.689	1341.202
-26.838	27.389	1631.465	1340.053
-25.823	27.401	1629.940	1338.833
-24.809	27.400	1629.017	1338.015
-23.794	27.335	1627.684	1336.387
-22.779	27.420	1625.783	1335.400
-21.765	27.355	1624.443	1333.769
-20.750	27.298	1622.693	1331.862
-19.736	27.329	1621.715	1331.236
-18.721	27.434	1620.029	1330.563
-17.706	27.412	1618.815	1329.354
-16.692	27.383	1617.134	1327.712
-15.677	27.411	1615.943	1326.881
-14.663	27.466	1614.028	1325.661
-13.648	27.428	1613.281	1324.716
-12.633	27.431	1611.701	1323.386
-11.619	27.437	1609.722	1321.755
-10.604	27.363	1608.571	1320.217
-9.590	27.405	1607.740	1319.792
-8.575	27.364	1605.877	1317.910
-7.560	27.423	1604.387	1317.059
-6.546	27.466	1603.483	1316.578
-5.531	27.446	1602.536	1315.603
-4.517	27.448	1601.370	1314.607
-3.502	27.366	1600.355	1313.133
-2.487	27.498	1598.527	1312.533
-1.473	27.147	1586.658	1300.224
-0.458	24.326	1567.622	1264.599
0.556	19.197	1569.288	1233.858
1.571	17.060	1593.016	1236.841
2.586	16.705	1605.416	1243.751
3.600	16.288	1555.172	1201.753
4.615	14.271	1457.543	1112.742
5.629	12.050	1403.742	1057.261
6.644	11.527	1396.867	1048.638
7.659	11.426	1395.931	1047.194
8.673	11.524	1394.560	1046.700
9.688	11.542	1392.376	1045.085
10.702	11.426	1389.568	1042.142
11.717	12.378	1390.383	1048.741
12.731	14.922	1394.824	1068.265
13.746	17.113	1398.350	1084.884
14.761	17.655	1397.769	1087.800
15.775	16.723	1395.266	1079.814
16.790	15.619	1392.370	1070.451
17.804	14.936	1389.847	1064.075
18.819	14.390	1388.292	1059.320
19.834	14.049	1387.499	1056.456
20.848	13.922	1385.762	1054.231
21.863	13.651	1384.916	1051.773
22.877	13.549	1383.487	1049.948
23.892	13.464	1382.328	1048.442
24.907	13.416	1382.114	1047.881
25.921	13.465	1380.991	1047.244
26.936	13.492	1379.834	1046.447
27.950	13.533	1378.805	1045.834
28.965	13.631	1377.804	1045.600
29.980	13.657	1376.779	1044.891
30.994	13.747	1375.462	1044.364
32.009	13.755	1373.966	1043.191
33.023	13.657	1373.282	1041.962
34.038	13.688	1371.984	1041.081
35.053	13.542	1370.747	1039.132
36.067	13.606	1369.645	1038.604
37.082	13.670	1368.512	1038.059
38.096	13.647	1367.579	1037.114
39.111	13.695	1366.920	1036.823
40.126	13.606	1365.927	1035.423
41.140	13.496	1364.625	1033.655
42.155	13.435	1364.299	1032.937
43.169	13.326	1364.483	1032.305
44.184	13.459	1363.776	1032.509
45.199	13.437	1363.416	1032.008
46.213	13.383	1362.851	1031.153
47.228	13.527	1361.720	1031.101
48.242	13.432	1360.939	1029.828
49.257	13.452	1359.546	1028.808
50.271	13.520	1357.825	1027.836
51.286	13.498	1356.235	1026.400
52.301	13.533	1355.024	1025.613
53.315	13.497	1353.750	1024.333
54.330	13.447	1353.244	1023.553
55.344	13.546	1351.416	1022.691
56.359	13.393	1350.957	1021.308
57.374	13.467	1349.712	1020.731
58.388	13.335	1349.326	1019.539
59.403	13.389	1348.455	1019.121
60.417	13.366	1348.074	1018.600
61.432	13.282	1346.919	1017.121
62.447	13.336	1346.262	1016.865
63.461	13.239	1345.041	1015.258
64.476	13.254	1344.154	1014.595
65.490	13.224	1342.806	1013.303
66.505	13.259	1341.314	1012.299
67.520	13.247	1340.572	1011.576
68.534	13.336	1339.123	1010.935
69.549	13.338	1338.430	1010.337
70.563	13.273	1337.115	1008.856
71.578	13.240	1336.163	1007.851
72.593	13.253	1335.052	1007.002
73.607	13.220	1334.412	1006.230
74.622	13.188	1333.682	1005.398
75.636	13.237	1332.804	1004.943
76.651	13.209	1332.247	1004.263
77.666	13.244	1331.385	1003.739
78.680	13.221	1331.162	1003.341
79.695	13.213	1330.173	1002.456
80.709	13.401	1329.076	1002.684
81.724	13.315	1328.909	1001.947
82.739	13.488	1327.578	1001.899
83.753	13.478	1326.938	1001.271
84.768	13.521	1326.133	1000.835
85.782	13.620	1324.600	1000.184
86.797	13.503	1323.251	998.374
87.812	13.440	1322.038	996.988
88.826	13.436	1321.043	996.125
89.841	13.485	1319.861	995.438
90.855	13.528	1318.885	994.877
91.870	13.570	1317.891	994.289
92.884	13.630	1317.156	994.008
93.899	13.580	1316.550	993.160
94.914	13.690	1315.611	993.022
95.928	13.759	1314.490	992.502
96.943	13.708	1313.701	991.513
97.957	13.553	1313.060	990.018
98.972	13.561	1311.777	989.009
99.987	13.640	1310.590	988.496
101.001	13.557	1309.754	987.285
102.016	13.629	1308.066	986.357
103.030	13.553	1307.890	985.683
104.045	13.673	1306.928	985.586
105.060	13.512	1305.881	983.753
106.074	13.469	1304.093	982.063
107.089	13.296	1303.024	980.143
108.103	13.313	1301.821	979.255
109.118	13.295	1300.496	978.063
110.133	13.352	1299.089	977.258
111.147	13.467	1297.427	976.601
112.162	13.347	1296.675	975.235
113.176	13.382	1295.573	974.530
114.191	13.477	1294.435	974.145
115.206	13.446	1293.412	973.107
116.220	13.456	1292.303	972.248
117.235	13.341	1291.342	970.761
118.249	13.398	1290.150	970.113
119.264	13.422	1289.032	969.327
120.279	13.388	1288.030	968.288
121.293	13.349	1287.085	967.266
122.308	13.351	1285.349	965.889
123.322	13.286	1285.090	965.230
124.337	13.323	1283.725	964.331
125.352	13.285	1281.833	962.607
126.366	13.384	1281.144	962.578
127.381	13.340	1280.883	962.041
128.395	13.386	1279.100	960.882
129.410	13.419	1278.301	960.391
130.424	13.453	1276.983	959.510
131.439	13.331	1276.633	958.459
132.454	13.322	1275.416	957.408
133.468	13.477	1274.560	957.574
134.483	13.410	1273.758	956.504
135.497	13.395	1272.727	955.558
136.512	13.314	1272.004	954.460
137.527	13.412	1269.890	953.355
138.541	13.472	1268.507	952.577
139.556	13.448	1267.477	951.583
140.570	13.601	1266.155	951.386
141.585	13.692	1264.897	950.877
142.600	13.600	1263.751	949.402
143.614	13.548	1263.496	948.833
144.629	13.742	1261.976	948.712
145.643	13.758	1260.898	947.912
146.658	13.570	1259.730	945.877
147.673	13.545	1258.396	944.646
148.687	13.465	1257.200	943.212
149.702	13.564	1255.913	942.727
150.716	13.519	1254.543	941.357
151.731	13.543	1253.388	940.546
152.746	13.524	1252.068	939.363
153.760	13.690	1250.588	939.108
154.775	13.662	1249.933	938.375
155.789	13.680	1248.753	937.512
156.804	13.618	1247.969	936.490
157.819	13.744	1246.973	936.371
158.833	13.845	1245.584	935.815
159.848	13.781	1244.998	934.926
160.862	13.874	1243.615	934.329
161.877	13.691	1242.999	932.756
162.892	13.735	1241.462	931.768
163.906	13.705	1240.481	930.778
164.921	13.641	1239.636	929.705
165.935	13.719	1238.582	929.269
166.950	13.611	1238.649	928.635
167.964	13.765	1237.618	928.638
168.979	13.700	1236.639	927.458
169.994	13.775	1236.300	927.543
171.008	13.783	1235.292	926.746
172.023	13.858	1234.395	926.412
173.037	13.841	1233.713	925.721
174.052	13.899	1232.297	924.901
175.067	13.860	1231.377	923.910
176.081	13.805	1230.533	922.889
177.096	13.814	1229.395	922.008
178.110	13.775	1228.398	920.962
179.125	13.883	1227.384	920.715
180.140	13.867	1225.955	919.476
181.154	13.782	1225.112	918.292
182.169	13.886	1223.975	917.935
183.183	13.931	1222.400	916.919
184.198	13.917	1221.316	915.947
185.213	14.035	1220.146	915.642
186.227	13.952	1219.350	914.502
187.242	13.997	1218.420	913.971
188.256	14.102	1217.451	913.744
189.271	14.099	1216.115	912.643
190.286	13.992	1215.221	911.302
191.300	13.678	1214.347	908.850
192.315	13.856	1213.570	909.159
193.329	13.918	1212.702	908.768
194.344	13.779	1212.756	907.969
195.359	13.843	1211.983	907.658
196.373	14.099	1210.983	908.230
197.388	14.118	1210.685	908.030
198.402	14.042	1210.468	907.372
199.417	14.150	1209.750	907.343
200.432	14.235	1208.665	906.913
201.446	14.281	1207.985	906.573
202.461	14.439	1207.044	906.640
203.475	14.273	1206.303	905.103
204.490	14.247	1204.488	903.518
205.504	14.172	1203.619	902.382
206.519	14.228	1202.312	901.624
207.534	14.203	1201.036	900.456
208.548	14.179	1200.419	899.783
209.563	14.258	1199.352	899.330
210.577	14.272	1198.705	898.839
211.592	14.232	1197.665	897.767
212.607	14.297	1197.112	897.620
213.621	14.436	1196.007	897.461
214.636	14.459	1194.764	896.573
215.650	14.350	1194.293	895.557
216.665	14.333	1193.492	894.786
217.680	14.435	1192.218	894.297
218.694	14.456	1191.708	893.945
219.709	14.471	1190.849	893.305
220.723	14.439	1190.143	892.527
221.738	14.587	1189.149	892.489
222.753	14.444	1188.853	891.427
223.767	14.458	1188.261	890.977
224.782	14.538	1187.375	890.664
225.796	14.664	1186.587	890.665
226.811	14.606	1186.004	889.837
227.826	14.515	1185.233	888.694
228.840	14.546	1184.566	888.285
229.855	14.615	1183.703	887.925
230.869	14.591	1183.196	887.340
231.884	14.620	1182.043	886.546
232.899	14.533	1181.436	885.555
233.913	14.511	1180.334	884.532
234.928	14.531	1179.808	884.168
235.942	14.511	1179.193	883.520
236.957	14.548	1178.352	883.009
237.972	14.632	1177.924	883.055
238.986	14.499	1177.311	881.814
240.001	14.635	1176.209	881.629
241.015	14.609	1175.359	880.775
242.030	14.546	1174.925	880.042
243.045	14.696	1173.786	879.900
244.059	14.757	1172.793	879.399
245.074	14.771	1172.295	879.021
246.088	14.720	1171.523	878.094
247.103	14.864	1170.693	878.150
248.117	14.885	1170.037	877.692
249.132	14.849	1169.424	876.969
250.147	14.932	1168.565	876.680
251.161	15.079	1167.860	876.845
252.176	15.027	1167.495	876.220
253.190	15.098	1166.559	875.812
254.205	15.074	1166.103	875.267
255.220	15.179	1165.429	875.231
256.234	15.240	1164.493	874.769
257.249	15.141	1163.913	873.737
258.263	15.141	1163.311	873.211
259.278	15.172	1162.409	872.618
260.293	15.195	1162.125	872.449
261.307	15.254	1161.533	872.233
262.322	15.301	1160.388	871.538
263.336	15.243	1160.105	870.947
264.351	15.303	1159.217	870.518
265.366	15.318	1158.873	870.260
266.380	15.272	1158.318	869.525
267.395	15.271	1157.363	868.725
268.409	15.327	1156.235	868.094
269.424	15.296	1155.740	867.483
270.439	15.194	1155.547	866.736
271.453	15.315	1154.490	866.491
272.468	15.177	1153.576	865.017
273.482	15.255	1152.307	864.390
274.497	15.279	1152.213	864.366
275.512	15.346	1151.694	864.246
276.526	15.267	1150.923	863.185
277.541	15.256	1150.212	862.521
278.555	15.320	1149.067	861.912
279.570	15.369	1148.806	861.891
280.585	15.601	1147.761	862.222
281.599	15.516	1147.079	861.200
282.614	15.410	1145.984	859.758
283.628	15.347	1145.302	858.847
284.643	15.314	1144.351	857.889
285.657	15.467	1143.333	857.834
286.672	15.519	1142.322	857.264
287.687	15.438	1141.131	855.877
288.701	15.469	1140.936	855.816
289.716	15.627	1139.421	855.410
290.730	15.602	1138.537	854.541
291.745	15.543	1138.348	854.023
292.760	15.665	1137.259	853.750
293.774	15.569	1137.126	853.089
294.789	15.630	1136.397	852.774
295.803	15.636	1135.590	852.127
296.818	15.475	1135.363	851.065
297.833	15.573	1134.311	850.697
298.847	15.661	1133.474	850.436
299.862	15.674	1132.760	849.894
300.876	15.535	1132.498	848.916
301.891	15.849	1131.405	849.611
302.906	15.739	1130.659	848.419
303.920	15.854	1129.992	848.425
304.935	15.876	1129.399	848.013
305.949	15.932	1129.001	847.923
306.964	15.959	1128.194	847.375
307.979	15.886	1127.364	846.310
308.993	15.827	1126.593	845.360
310.008	15.918	1125.951	845.259
311.022	15.887	1125.474	844.671
312.037	15.873	1124.356	843.688
313.052	15.882	1123.253	842.832
314.066	15.854	1122.405	841.982
315.081	15.921	1121.514	841.573
316.095	15.809	1121.231	840.723
317.110	15.641	1120.442	839.222
318.125	15.791	1119.795	839.409
319.139	15.854	1118.567	838.732
320.154	15.903	1117.707	838.256
321.168	15.878	1117.307	837.757
322.183	15.832	1116.770	837.049
323.197	16.001	1115.860	837.134
324.212	15.925	1115.029	836.058
325.227	16.052	1114.583	836.281
326.241	16.019	1114.077	835.665
327.256	15.940	1113.385	834.681
328.270	15.944	1112.598	834.034
329.285	15.913	1111.606	833.066
330.300	15.933	1110.457	832.226
331.314	15.956	1109.616	831.636
332.329	16.080	1108.489	831.330
333.343	15.963	1107.755	830.132
334.358	16.016	1107.329	830.002
335.373	16.124	1106.458	829.804
336.387	16.097	1105.653	828.995
337.402	16.047	1104.903	828.115
338.416	16.134	1104.286	828.006
339.431	16.242	1103.657	827.992
340.446	16.284	1102.919	827.571
341.460	16.351	1102.093	827.202
342.475	16.318	1101.632	826.622
343.489	16.378	1100.461	825.964
344.504	16.442	1099.407	825.415
345.519	16.482	1098.396	824.777
346.533	16.410	1097.807	823.912
347.548	16.517	1097.258	823.946
348.562	16.401	1096.419	822.679
349.577	16.438	1095.567	822.148
350.592	16.395	1094.838	821.316
351.606	16.321	1094.174	820.387
352.621	16.416	1093.330	820.145
353.635	16.322	1092.796	819.212
354.650	16.321	1092.362	818.810
355.665	16.464	1091.372	818.687
356.679	16.472	1090.819	818.241
357.694	16.388	1090.312	817.384
358.708	16.533	1089.532	817.424
359.723	16.497	1088.819	816.644
360.738	16.365	1088.399	815.622
361.752	16.574	1087.605	815.962
362.767	16.575	1087.037	815.470
363.781	16.524	1086.508	814.755
364.796	16.525	1086.472	814.661
365.810	16.610	1085.760	814.463
366.825	16.745	1084.501	814.095
367.840	16.786	1083.934	813.793
368.854	16.712	1083.726	813.212
369.869	16.770	1083.140	812.975
370.883	16.794	1082.168	812.289
371.898	16.717	1081.120	811.062
372.913	16.761	1080.548	810.774
373.927	16.812	1079.720	810.325
374.942	16.863	1079.544	810.365
375.956	16.963	1078.871	810.266
376.971	16.862	1078.855	809.700
377.986	16.855	1078.042	808.983
379.000	16.974	1077.316	808.936
380.015	16.905	1077.050	808.332
381.029	17.001	1076.164	808.054
382.044	17.075	1075.367	807.737
383.059	17.036	1074.698	806.978
384.073	17.026	1073.747	806.146
385.088	17.150	1072.882	806.011
386.102	17.050	1071.990	804.798
387.117	16.973	1071.204	803.768
388.132	16.982	1070.426	803.157
389.146	16.951	1069.640	802.352
390.161	16.785	1068.914	800.949
391.175	16.888	1068.186	800.821
392.190	17.051	1067.371	800.908
393.205	17.137	1066.248	800.398
394.219	17.038	1065.909	799.609
395.234	17.056	1064.989	798.931
396.248	17.136	1063.857	798.389
397.263	17.098	1062.976	797.478
398.278	17.037	1062.391	796.683
399.292	16.949	1061.684	795.668
400.307	16.889	1061.045	794.838
401.321	17.061	1060.034	794.815
402.336	17.096	1059.466	794.483
403.350	17.004	1059.133	793.733
404.365	17.056	1058.388	793.348
405.380	17.113	1057.822	793.119
406.394	17.156	1056.933	792.584
407.409	17.181	1056.280	792.140
408.423	17.338	1055.560	792.260
409.438	17.353	1054.566	791.513
410.453	17.252	1054.056	790.593
411.467	17.457	1053.204	790.836
412.482	17.452	1053.066	790.641
413.496	17.381	1051.995	789.436
414.511	17.444	1051.687	789.428
415.526	17.488	1051.122	789.136
416.540	17.555	1050.516	788.922
417.555	17.421	1050.253	788.035
418.569	17.433	1049.618	787.545
419.584	17.482	1049.108	787.317
420.599	17.537	1048.737	787.225
421.613	104.940	1325.832	1476.601
422.628	96.549	1366.123	1476.690
