DTS Sentinel unit serial number:	SN413079Multiplexer serial number:	ORYXHardware model number:	OX4-SRSoftware version number:	ORYX F/W v4.00 Oryx Data Collector v3.7.2.0data status	okinstallation	princeton_trtdifferential loss correction	single-endedforward channel	channel 2reverse channel	N/Adate	2019/09/18time	15:39:35forward acquisition time	60.00reverse acquisition time	0.00gamma	496.2192k internal	0.2315k external	0.2315temperature offset calibration	1.0006default loss term (dB/km)	0.3790temperature slope calibration	1.0000multiplexer offset coefficient	1.0000multiplexer slope coefficient	1.0000fibre end	0.00T internal ref (°C)	36.37T ext. ref 1 (°C)	0.79T ext. ref 2 (°C)	30.87length (m)	temperature (°C)	Stokes	anti-Stokes-747.200	-103.341	-0.166	-0.040
-746.185	-200.000	-0.026	0.310
-745.171	194.553	-0.149	0.229
-744.156	371.559	-0.183	0.376
-743.142	-84.932	0.284	-0.090
-742.127	-200.000	-0.016	0.339
-741.112	215.299	0.060	-0.097
-740.098	30.484	-0.066	0.057
-739.083	800.000	0.050	0.203
-738.069	800.000	0.062	-0.274
-737.054	165.360	0.229	-0.328
-736.039	28.183	-0.216	-0.185
-735.025	-38.330	0.296	0.159
-734.010	-47.267	-0.166	-0.082
-732.996	93.777	-0.226	-0.259
-731.981	-49.421	-0.283	-0.136
-730.966	-200.000	-0.055	0.266
-729.952	15.005	0.099	0.078
-728.937	-200.000	-0.001	-0.127
-727.923	21.087	-0.336	-0.276
-726.908	9.651	0.046	-0.035
-725.894	46.207	-0.083	-0.078
-724.879	-188.901	-0.497	-0.006
-723.864	-175.083	0.090	0.003
-722.850	-26.649	0.101	-0.060
-721.835	-102.096	0.238	-0.058
-720.821	398.599	0.048	-0.102
-719.806	706.931	0.074	-0.198
-718.791	-17.922	-0.113	-0.072
-717.777	25.633	0.331	-0.279
-716.762	307.217	-0.106	0.201
-715.748	-151.861	-0.246	0.018
-714.733	-200.000	-0.019	0.091
-713.718	-200.000	0.101	0.475
-712.704	-200.000	0.003	0.278
-711.689	-38.567	0.051	0.027
-710.675	-85.576	0.261	0.082
-709.660	-114.664	-0.374	-0.072
-708.645	-177.326	-0.238	-0.006
-707.631	-27.796	0.090	0.053
-706.616	-146.228	0.137	0.012
-705.602	-200.000	-0.003	0.214
-704.587	552.531	0.059	0.143
-703.572	64.549	0.358	-0.365
-702.558	-11.947	0.140	0.093
-701.543	800.000	-0.089	-0.277
-700.529	72.251	-0.249	-0.262
-699.514	-200.000	0.007	0.031
-698.499	31.047	-0.054	-0.047
-697.485	-200.000	0.004	-0.425
-696.470	800.000	-0.041	-0.136
-695.456	800.000	0.027	-0.096
-694.441	70.716	-0.016	-0.016
-693.426	377.817	0.050	0.103
-692.412	-135.056	0.363	0.044
-691.397	0.229	-0.058	0.042
-690.383	-200.000	0.017	-0.087
-689.368	-200.000	0.024	-0.136
-688.354	-57.364	0.073	-0.032
-687.339	-175.276	0.266	-0.007
-686.324	13.792	0.203	0.159
-685.310	-142.504	0.052	0.005
-684.295	-200.000	-0.009	0.043
-683.281	-115.650	0.264	0.050
-682.266	-200.000	0.000	0.033
-681.251	-112.474	0.310	-0.063
-680.237	19.804	-0.008	-0.007
-679.222	-121.892	0.297	-0.050
-678.208	-200.000	0.342	-0.000
-677.193	21.253	0.284	-0.233
-676.178	-128.304	-0.121	0.017
-675.164	-200.000	0.027	-0.175
-674.149	800.000	0.070	0.270
-673.135	-57.330	-0.122	0.054
-672.120	-200.000	-0.005	-0.039
-671.105	235.726	0.151	0.251
-670.091	-99.015	-0.049	0.012
-669.076	157.903	0.195	-0.273
-668.062	34.139	-0.049	-0.043
-667.047	-3.031	0.167	0.118
-666.032	60.342	-0.156	0.156
-665.018	64.188	0.195	0.198
-664.003	-23.517	0.361	0.219
-662.989	-99.935	0.173	-0.044
-661.974	11.803	0.162	-0.126
-660.959	-200.000	-0.034	0.265
-659.945	95.972	-0.085	0.099
-658.930	-31.448	-0.077	0.044
-657.916	64.217	-0.131	0.133
-656.901	-200.000	0.009	0.139
-655.886	-127.324	-0.173	-0.026
-654.872	-200.000	-0.038	-0.267
-653.857	-26.484	0.203	-0.120
-652.843	169.566	0.055	-0.079
-651.828	-63.560	0.214	0.089
-650.814	-138.520	0.242	0.027
-649.799	-200.000	0.042	0.259
-648.784	-200.000	0.002	0.159
-647.770	800.000	0.111	-0.422
-646.755	-200.000	-0.036	-0.266
-645.741	-200.000	-0.008	0.133
-644.726	-131.837	-0.049	-0.007
-643.711	-78.390	-0.250	0.086
-642.697	29.409	-0.030	-0.026
-641.682	-41.780	0.319	-0.165
-640.668	-200.000	-0.011	-0.060
-639.653	-5.140	-0.291	0.202
-638.638	50.606	-0.048	0.046
-637.624	85.515	-0.146	-0.162
-636.609	18.603	-0.117	-0.094
-635.595	418.337	0.087	-0.187
-634.580	75.676	-0.055	0.058
-633.565	-189.492	0.225	0.003
-632.551	-200.000	0.029	-0.256
-631.536	-22.678	-0.426	-0.260
-630.522	-38.577	0.107	-0.057
-629.507	128.170	-0.064	0.082
-628.492	-200.000	0.018	-0.121
-627.478	-200.000	-0.016	-0.152
-626.463	-81.162	0.125	0.042
-625.449	800.000	0.015	-0.050
-624.434	-64.624	0.302	0.124
-623.419	-17.445	-0.264	-0.168
-622.405	27.606	-0.118	0.100
-621.390	151.688	0.211	0.289
-620.376	800.000	0.071	0.303
-619.361	14.996	0.172	-0.136
-618.346	4.493	-0.463	0.342
-617.332	68.363	0.220	0.227
-616.317	-75.963	0.097	0.035
-615.303	2.062	0.214	0.156
-614.288	-89.740	0.227	0.067
-613.273	76.555	-0.058	-0.062
-612.259	113.306	-0.069	-0.085
-611.244	42.448	-0.163	0.149
-610.230	-62.000	-0.303	-0.128
-609.215	382.056	0.121	-0.250
-608.201	109.729	0.050	0.060
-607.186	-134.792	0.159	0.019
-606.171	-168.221	-0.289	0.011
-605.157	110.938	-0.075	-0.091
-604.142	800.000	-0.082	0.341
-603.128	-60.313	-0.270	0.116
-602.113	800.000	-0.059	0.253
-601.098	800.000	-0.076	-0.279
-600.084	800.000	0.062	0.182
-599.069	-165.132	-0.259	0.012
-598.055	-198.863	-0.082	0.000
-597.040	-200.000	-0.028	-0.443
-596.025	-15.461	0.099	0.064
-595.011	347.835	-0.093	-0.185
-593.996	-18.186	-0.214	0.135
-592.982	-200.000	-0.003	-0.074
-591.967	-69.029	0.015	0.006
-590.952	-114.704	0.139	0.027
-589.938	-69.934	-0.114	-0.044
-588.923	140.789	0.221	0.294
-587.909	800.000	0.078	0.325
-586.894	-102.599	0.376	0.090
-585.879	-104.632	-0.127	-0.030
-584.865	117.971	-0.095	0.118
-583.850	432.842	0.123	-0.269
-582.836	-113.393	-0.315	0.062
-581.821	800.000	-0.116	0.418
-580.806	294.499	-0.162	0.299
-579.792	-170.597	0.263	-0.009
-578.777	800.000	-0.054	-0.216
-577.763	-85.842	-0.149	0.046
-576.748	-200.000	-0.009	0.428
-575.733	-200.000	0.039	0.441
-574.719	-80.601	0.290	0.097
-573.704	489.677	0.214	-0.491
-572.690	800.000	0.077	-0.249
-571.675	20.833	0.240	0.195
-570.661	-100.759	0.108	-0.027
-569.646	576.372	0.038	0.093
-568.631	800.000	0.135	-0.564
-567.617	76.871	-0.135	0.145
-566.602	-200.000	-0.004	0.207
-565.588	800.000	0.100	-0.299
-564.573	-20.926	0.317	-0.195
-563.558	418.732	0.059	0.127
-562.544	-82.610	-0.161	-0.052
-561.529	-82.944	-0.045	-0.015
-560.515	-59.408	-0.293	-0.127
-559.500	62.243	-0.083	-0.083
-558.485	718.794	0.128	0.341
-557.471	-69.608	-0.401	0.154
-556.456	-135.897	0.244	-0.029
-555.442	702.697	-0.077	-0.205
-554.427	199.737	-0.113	0.175
-553.412	-200.000	0.056	-0.264
-552.398	-200.000	-0.077	0.350
-551.383	-49.431	-0.242	-0.116
-550.369	-108.534	-0.173	0.038
-549.354	322.625	0.138	-0.265
-548.339	800.000	-0.054	0.169
-547.325	-122.569	-0.423	0.069
-546.310	179.767	-0.072	-0.107
-545.296	377.385	0.151	-0.310
-544.281	684.333	0.101	0.266
-543.266	209.317	0.168	0.264
-542.252	800.000	-0.054	0.171
-541.237	-200.000	-0.087	-0.406
-540.223	200.811	-0.021	0.032
-539.208	-200.000	0.017	0.201
-538.193	800.000	0.073	0.228
-537.179	4.202	0.143	0.105
-536.164	568.423	0.136	0.331
-535.150	800.000	0.054	-0.221
-534.135	688.697	-0.091	-0.238
-533.121	-200.000	0.012	-0.083
-532.106	-144.265	-0.406	-0.038
-531.091	-59.009	-0.380	-0.165
-530.077	102.668	-0.181	-0.213
-529.062	-200.000	-0.001	-0.132
-528.048	115.349	-0.053	-0.066
-527.033	-200.000	0.010	0.054
-526.018	-100.319	0.273	-0.068
-525.004	-125.646	-0.148	-0.023
-523.989	-168.179	0.159	0.006
-522.975	182.706	-0.113	-0.168
-521.960	-98.558	-0.081	-0.021
-520.945	-200.000	0.003	-0.026
-519.931	-136.270	0.037	-0.004
-518.916	800.000	0.066	0.211
-517.902	800.000	-0.072	0.241
-516.887	-200.000	-0.090	-0.404
-515.872	80.017	-0.238	0.257
-514.858	71.464	-0.196	0.204
-513.843	-194.184	-0.214	0.002
-512.829	-18.444	0.118	-0.074
-511.814	-125.240	-0.127	0.020
-510.799	44.819	-0.368	0.340
-509.785	155.274	0.160	-0.220
-508.770	184.314	-0.059	-0.088
-507.756	-88.016	-0.324	-0.098
-506.741	-0.156	-0.177	0.126
-505.726	9.601	-0.066	-0.050
-504.712	-80.561	-0.200	0.067
-503.697	-168.707	-0.058	0.002
-502.683	-60.247	-0.191	-0.082
-501.668	117.034	-0.292	-0.360
-500.653	43.195	0.043	0.039
-499.639	60.999	0.208	-0.207
-498.624	657.116	0.155	-0.399
-497.610	-200.000	0.006	0.147
-496.595	-76.212	-0.185	-0.066
-495.581	113.832	-0.132	0.161
-494.566	-200.000	-0.014	-0.132
-493.551	-66.666	-0.130	-0.052
-492.537	135.836	-0.244	0.319
-491.522	153.918	0.138	0.190
-490.508	-104.151	-0.113	-0.026
-489.493	-107.944	0.131	0.028
-488.478	-200.000	0.033	0.173
-487.464	98.136	-0.116	-0.134
-486.449	-200.000	0.007	0.171
-485.435	6.184	-0.103	-0.076
-484.420	-121.344	-0.469	-0.078
-483.405	-200.000	-0.002	0.087
-482.391	-142.712	0.327	0.032
-481.376	503.237	-0.071	-0.164
-480.362	-25.209	0.354	-0.210
-479.347	-128.501	-0.219	0.031
-478.332	-200.000	-0.036	-0.176
-477.318	-99.123	-0.226	0.057
-476.303	-200.000	-0.004	-0.141
-475.289	800.000	-0.072	-0.270
-474.274	316.949	-0.090	0.170
-473.259	-200.000	0.000	-0.128
-472.245	219.839	-0.098	0.158
-471.230	132.833	-0.289	0.374
-470.216	144.826	-0.212	-0.284
-469.201	-200.000	0.020	0.330
-468.186	-176.170	0.485	0.013
-467.172	-200.000	-0.040	0.226
-466.157	-77.987	0.064	-0.022
-465.143	491.905	0.083	-0.190
-464.128	-29.091	0.363	0.209
-463.113	-47.675	0.086	0.042
-462.099	-29.310	0.201	0.115
-461.084	286.124	0.122	-0.220
-460.070	84.923	0.279	0.307
-459.055	242.161	-0.043	0.072
-458.040	90.100	-0.136	-0.153
-457.026	-82.593	-0.010	-0.003
-456.011	579.381	0.120	-0.294
-454.997	-200.000	-0.015	0.251
-453.982	359.351	0.125	0.249
-452.968	728.841	0.062	-0.166
-451.953	-42.985	0.311	-0.158
-450.938	761.853	-0.116	-0.316
-449.924	103.990	0.105	0.124
-448.909	56.888	0.206	-0.201
-447.895	-70.879	0.320	-0.121
-446.880	-105.638	0.035	-0.008
-445.865	800.000	0.147	-0.453
-444.851	338.135	0.085	-0.165
-443.836	-144.396	0.407	-0.038
-442.822	-200.000	0.002	-0.280
-441.807	-73.644	0.116	0.042
-440.792	-200.000	-0.053	-0.293
-439.778	546.900	0.098	-0.235
-438.763	32.770	-0.218	0.189
-437.749	-200.000	-0.023	0.253
-436.734	131.161	0.220	0.283
-435.719	-200.000	-0.021	0.183
-434.705	-200.000	0.004	0.028
-433.690	-94.900	-0.119	0.032
-432.676	-174.775	0.085	-0.002
-431.661	277.326	0.154	0.274
-430.646	-69.234	0.466	0.179
-429.632	207.503	-0.118	-0.184
-428.617	95.623	0.130	0.148
-427.603	141.300	-0.214	0.284
-426.588	800.000	0.040	-0.122
-425.573	-200.000	-0.001	0.144
-424.559	-113.626	-0.308	-0.060
-423.544	-126.100	-0.026	-0.004
-422.530	-16.989	0.149	0.094
-421.515	35.912	0.234	-0.206
-420.500	142.938	-0.184	-0.244
-419.486	60.198	0.142	0.140
-418.471	800.000	-0.023	-0.086
-417.457	62.866	0.120	0.120
-416.442	-103.408	0.080	-0.019
-415.428	-200.000	0.006	-0.095
-414.413	-25.387	-0.184	0.109
-413.398	-15.739	0.091	0.058
-412.384	-200.000	0.032	-0.260
-411.369	-80.667	-0.163	-0.054
-410.355	273.298	0.043	0.076
-409.340	-200.000	0.049	-0.235
-408.325	153.384	0.221	0.303
-407.311	800.000	0.031	0.116
-406.296	54.598	-0.182	-0.175
-405.282	68.204	-0.230	-0.236
-404.267	-125.529	-0.093	-0.014
-403.252	800.000	-0.058	0.159
-402.238	-9.629	-0.217	-0.144
-401.223	151.903	-0.098	0.134
-400.209	-170.978	-0.208	0.007
-399.194	-24.027	0.201	-0.120
-398.179	60.370	-0.195	-0.193
-397.165	662.871	0.076	0.197
-396.150	-56.736	0.167	0.074
-395.136	800.000	-0.062	-0.241
-394.121	-200.000	-0.056	0.278
-393.106	-186.338	0.258	0.004
-392.092	-200.000	-0.030	-0.190
-391.077	-177.101	-0.262	0.007
-390.063	-200.000	0.055	-0.350
-389.048	499.988	0.064	0.148
-388.033	22.831	-0.159	0.130
-387.019	291.537	0.183	-0.333
-386.004	-115.928	-0.222	-0.041
-384.990	9.616	0.116	-0.088
-383.975	227.294	0.082	0.132
-382.960	-15.122	-0.350	0.224
-381.946	-9.703	-0.089	0.059
-380.931	251.793	-0.111	-0.189
-379.917	281.251	-0.129	-0.230
-378.902	800.000	0.048	0.180
-377.888	-200.000	0.063	0.312
-376.873	-18.807	-0.159	0.099
-375.858	-85.748	0.059	-0.018
-374.844	309.178	0.198	-0.370
-373.829	415.071	0.031	-0.066
-372.815	189.864	-0.199	-0.298
-371.800	-200.000	0.008	-0.201
-370.785	800.000	0.016	-0.053
-369.771	-3.875	-0.085	0.059
-368.756	-200.000	-0.012	0.304
-367.742	-200.000	-0.099	0.441
-366.727	800.000	-0.048	-0.134
-365.712	-200.000	0.029	0.229
-364.698	-159.141	0.179	-0.010
-363.683	149.407	0.190	-0.256
-362.669	-29.708	0.174	-0.099
-361.654	131.607	0.035	-0.045
-360.639	-37.009	0.172	-0.092
-359.625	-145.249	0.203	0.018
-358.610	800.000	0.043	-0.142
-357.596	-200.000	-0.034	0.287
-356.581	93.671	-0.317	-0.359
-355.566	37.245	0.110	0.097
-354.552	800.000	-0.047	-0.193
-353.537	240.246	0.047	0.077
-352.523	32.237	-0.206	-0.177
-351.508	-200.000	0.008	-0.051
-350.493	93.588	-0.168	-0.190
-349.479	310.329	-0.080	-0.149
-348.464	-14.604	-0.299	-0.192
-347.450	601.179	-0.155	0.385
-346.435	-200.000	-0.057	0.523
-345.420	-52.906	0.279	0.128
-344.406	169.533	-0.192	-0.273
-343.391	403.501	-0.110	-0.231
-342.377	-200.000	0.017	0.157
-341.362	800.000	0.036	-0.156
-340.348	197.340	-0.069	-0.105
-339.333	800.000	-0.095	0.325
-338.318	-200.000	-0.006	0.142
-337.304	369.999	0.094	-0.189
-336.289	-200.000	-0.010	0.212
-335.275	-200.000	0.001	0.212
-334.260	-90.760	0.112	-0.032
-333.245	-61.021	0.143	-0.060
-332.231	-200.000	0.024	-0.230
-331.216	-200.000	0.044	-0.247
-330.202	694.677	0.059	-0.153
-329.187	52.090	-0.034	0.032
-328.172	-67.211	-0.100	0.039
-327.158	-2.677	0.170	-0.119
-326.143	-86.429	-0.192	-0.059
-325.129	800.000	0.113	0.345
-324.114	122.244	0.395	0.491
-323.099	-117.552	-0.252	-0.045
-322.085	137.109	-0.069	-0.089
-321.070	223.553	-0.066	-0.106
-320.056	-91.142	0.202	-0.058
-319.041	495.256	-0.050	-0.114
-318.026	200.747	0.042	-0.064
-317.012	118.596	0.064	0.079
-315.997	-103.346	-0.169	0.040
-314.983	-200.000	-0.028	-0.228
-313.968	24.899	-0.036	0.029
-312.953	-200.000	0.029	-0.131
-311.939	-158.002	0.139	-0.008
-310.924	-72.854	0.259	-0.095
-309.910	-97.324	-0.286	-0.074
-308.895	-31.389	-0.178	-0.100
-307.880	-200.000	-0.018	0.365
-306.866	197.593	0.124	-0.189
-305.851	317.445	-0.219	0.412
-304.837	29.711	-0.202	-0.171
-303.822	111.588	0.122	-0.147
-302.807	-200.000	-0.000	-0.069
-301.793	-154.770	0.303	-0.020
-300.778	-133.061	0.205	-0.026
-299.764	-73.753	-0.145	-0.053
-298.749	399.292	0.025	-0.053
-297.735	-200.000	0.014	0.101
-296.720	800.000	-0.007	-0.027
-295.705	-159.901	-0.128	0.007
-294.691	350.897	-0.080	-0.157
-293.676	800.000	0.030	-0.114
-292.662	800.000	0.027	-0.078
-291.647	-85.452	-0.069	0.022
-290.632	-54.659	-0.025	0.011
-289.618	10.311	0.119	-0.090
-288.603	233.896	0.097	-0.159
-287.589	-70.201	0.178	-0.067
-286.574	800.000	0.031	0.104
-285.559	-83.695	-0.028	-0.009
-284.545	7.028	-0.097	-0.072
-283.530	-41.884	0.151	-0.077
-282.516	-102.788	0.065	-0.015
-281.501	-200.000	0.036	-0.189
-280.486	21.141	0.132	-0.107
-279.472	-200.000	0.026	-0.333
-278.457	-0.357	0.037	-0.026
-277.443	38.003	0.065	0.057
-276.428	-200.000	-0.019	-0.126
-275.413	196.030	0.029	0.045
-274.399	-165.069	0.259	-0.011
-273.384	-8.077	-0.245	0.164
-272.370	222.423	-0.129	-0.207
-271.355	-11.633	0.044	-0.029
-270.340	108.967	-0.092	-0.109
-269.326	-105.323	0.110	-0.025
-268.311	149.781	-0.149	0.201
-267.297	-101.149	0.244	-0.059
-266.282	-50.088	-0.200	-0.094
-265.267	43.585	0.135	0.123
-264.253	-63.282	-0.110	0.045
-263.238	584.001	0.079	0.194
-262.224	-59.375	-0.339	0.145
-261.209	-51.201	-0.195	-0.091
-260.195	-55.534	-0.166	-0.074
-259.180	439.401	-0.115	-0.249
-258.165	-36.982	-0.130	0.069
-257.151	242.240	0.070	0.116
-256.136	555.137	0.072	0.172
-255.122	57.011	-0.052	-0.050
-254.107	132.161	-0.045	0.058
-253.092	800.000	-0.014	-0.053
-252.078	55.580	-0.029	0.028
-251.063	-14.391	-0.011	-0.007
-250.049	-116.540	0.122	-0.022
-249.034	610.150	-0.047	0.116
-248.019	-15.042	-0.210	0.134
-247.005	-72.483	-0.248	0.091
-245.990	-200.000	-0.022	-0.109
-244.976	448.076	0.035	0.077
-243.961	-200.000	0.052	-0.227
-242.946	59.908	-0.213	-0.209
-241.932	107.558	0.226	0.267
-240.917	-90.581	-0.156	-0.045
-239.903	-103.235	-0.026	0.006
-238.888	800.000	0.008	0.023
-237.873	-76.016	0.273	0.096
-236.859	278.447	0.127	0.226
-235.844	296.392	0.144	0.262
-234.830	-38.430	0.241	-0.126
-233.815	-88.739	0.202	0.060
-232.800	-192.307	0.048	0.000
-231.786	-11.278	0.452	0.296
-230.771	-36.666	0.356	0.190
-229.757	-99.230	0.365	-0.092
-228.742	689.947	-0.066	0.172
-227.727	72.943	-0.157	0.163
-226.713	-200.000	-0.042	0.247
-225.698	-169.188	0.112	0.004
-224.684	-200.000	-0.039	0.276
-223.669	615.422	0.073	0.182
-222.655	28.634	-0.034	0.029
-221.640	-200.000	0.014	-0.269
-220.625	-200.000	-0.032	-0.177
-219.611	-100.929	-0.106	-0.026
-218.596	-30.561	0.142	-0.080
-217.582	456.518	0.015	-0.033
-216.567	35.392	-0.133	0.116
-215.552	170.893	0.109	-0.155
-214.538	-196.165	0.195	0.001
-213.523	-148.902	-0.055	0.004
-212.509	-200.000	0.004	0.293
-211.494	-103.342	-0.333	0.078
-210.479	33.542	-0.133	-0.115
-209.465	-49.095	-0.067	-0.032
-208.450	237.686	-0.200	-0.329
-207.436	-200.000	-0.017	-0.094
-206.421	-73.694	0.209	-0.075
-205.406	500.700	-0.068	0.155
-204.392	800.000	0.013	0.052
-203.377	-41.155	0.204	0.104
-202.363	-200.000	-0.052	-0.344
-201.348	661.558	0.075	-0.191
-200.333	-60.350	0.230	0.097
-199.319	24.704	0.263	0.216
-198.304	166.958	0.081	-0.114
-197.290	-96.563	-0.211	0.055
-196.275	57.273	-0.239	0.231
-195.260	71.515	-0.109	-0.112
-194.246	-83.360	0.126	0.040
-193.231	54.380	-0.107	0.102
-192.217	800.000	-0.068	0.291
-191.202	97.449	0.211	0.240
-190.187	800.000	-0.038	0.153
-189.173	-200.000	0.021	-0.114
-188.158	65.136	0.063	0.064
-187.144	-45.670	0.188	-0.092
-186.129	693.756	-0.129	-0.335
-185.114	-109.432	0.001	0.000
-184.100	-200.000	0.114	0.585
-183.085	342.769	-0.092	0.178
-182.071	51.917	0.138	-0.130
-181.056	85.710	0.100	0.108
-180.042	-146.474	0.209	-0.018
-179.027	-63.886	0.380	0.154
-178.012	102.404	-0.157	-0.182
-176.998	125.787	-0.106	0.133
-175.983	-117.695	0.096	-0.017
-174.969	505.233	0.089	0.205
-173.954	800.000	0.019	0.065
-172.939	-200.000	-0.016	0.110
-171.925	-200.000	-0.006	-0.097
-170.910	-0.737	-0.185	0.130
-169.896	-75.198	0.156	0.055
-168.881	-26.517	-0.073	-0.042
-167.866	20.232	-0.158	0.127
-166.852	800.000	0.053	-0.175
-165.837	-200.000	0.029	-0.139
-164.823	138.501	0.090	-0.117
-163.808	252.756	0.207	0.350
-162.793	-11.447	-0.072	-0.047
-161.779	-122.900	-0.346	-0.055
-160.764	-54.579	0.248	-0.111
-159.750	-200.000	0.034	-0.186
-158.735	-56.363	0.279	0.123
-157.720	-148.119	0.387	-0.032
-156.706	-46.600	0.291	0.141
-155.691	132.797	0.069	-0.088
-154.677	-127.085	0.058	-0.008
-153.662	137.409	-0.119	0.154
-152.647	-200.000	-0.022	-0.162
-151.633	340.158	-0.053	-0.103
-150.618	-6.485	0.307	-0.207
-149.604	29.946	-0.162	-0.137
-148.589	24.430	-0.166	-0.136
-147.574	6.821	0.120	-0.088
-146.560	2.805	0.288	-0.207
-145.545	57.395	-0.132	0.127
-144.531	-200.000	0.012	0.227
-143.516	800.000	-0.063	-0.201
-142.502	-81.091	0.168	-0.055
-141.487	57.121	0.193	-0.186
-140.472	-98.910	0.218	-0.055
-139.458	-157.366	-0.226	-0.013
-138.443	102.105	0.156	0.180
-137.429	-31.414	0.411	0.229
-136.414	-87.374	-0.253	0.076
-135.399	410.287	0.123	-0.257
-134.385	-1.908	0.102	0.071
-133.370	-200.000	-0.001	-0.114
-132.356	-200.000	0.025	0.185
-131.341	-124.846	0.065	0.010
-130.326	-48.971	-0.251	0.119
-129.312	800.000	0.082	0.225
-128.297	800.000	-0.011	-0.037
-127.283	21.507	-0.262	0.210
-126.268	800.000	0.122	0.416
-125.253	-85.373	0.334	0.103
-124.239	-1.949	-0.185	-0.128
-123.224	165.211	0.120	0.168
-122.210	8.998	0.248	0.185
-121.195	4.439	-0.181	0.131
-120.180	7.858	0.182	0.135
-119.166	-100.021	-0.375	0.092
-118.151	434.746	0.027	-0.057
-117.137	-170.133	0.140	0.005
-116.122	-61.133	0.153	-0.064
-115.107	165.070	0.051	-0.071
-114.093	247.833	0.165	0.276
-113.078	-200.000	-0.028	-0.134
-112.064	417.256	-0.122	0.258
-111.049	-200.000	0.008	-0.047
-110.034	-101.976	0.422	-0.101
-109.020	-169.014	0.274	0.010
-108.005	-74.680	0.298	0.106
-106.991	-119.743	0.156	0.027
-105.976	159.807	-0.088	0.121
-104.962	-163.363	0.242	0.011
-103.947	133.144	-0.127	0.162
-102.932	-200.000	0.004	0.193
-101.918	-105.121	0.229	-0.052
-100.903	800.000	0.056	-0.209
-99.889	74.206	-0.073	0.076
-98.874	-135.137	0.360	-0.043
-97.859	8.200	-0.158	-0.117
-96.845	-63.300	0.105	-0.043
-95.830	-143.475	0.357	0.034
-94.816	318.344	-0.148	0.278
-93.801	178.990	0.029	-0.042
-92.786	-83.034	0.283	-0.090
-91.772	800.000	0.062	-0.170
-90.757	50.887	-0.048	-0.045
-89.743	532.146	-0.194	-0.454
-88.728	-23.316	0.286	-0.170
-87.713	-200.000	-0.007	-0.161
-86.699	131.683	0.119	-0.151
-85.684	537.799	0.095	-0.223
-84.670	-200.000	-0.009	-0.141
-83.655	-131.516	0.245	-0.032
-82.640	-66.387	0.165	-0.065
-81.626	150.928	0.159	-0.213
-80.611	-114.293	0.156	0.030
-79.597	25.789	0.181	0.148
-78.582	800.000	0.078	-0.268
-77.567	-7.925	0.231	-0.154
-76.553	-34.203	-0.132	-0.072
-75.538	277.529	0.137	0.242
-74.524	116.222	0.264	0.319
-73.509	351.123	-0.118	-0.231
-72.494	-108.943	0.433	0.091
-71.480	800.000	-0.075	0.318
-70.465	188.585	0.219	-0.323
-69.451	-63.353	0.356	0.144
-68.436	151.016	0.147	0.198
-67.422	224.160	-0.097	-0.154
-66.407	110.595	-0.151	-0.180
-65.392	-200.000	-0.034	0.311
-64.378	-200.000	0.006	0.153
-63.363	800.000	-0.066	-0.180
-62.349	-125.048	0.069	0.010
-61.334	281.932	-0.565	-0.998
-60.319	440.973	0.286	0.617
-59.305	491.873	-0.441	-0.995
-58.290	800.000	0.290	1.027
-57.276	573.013	0.526	1.264
-56.261	-200.000	91.034	528.346
-55.246	476.372	1421.259	3168.105
-54.232	144.542	2639.023	3476.421
-53.217	106.867	2359.586	2762.847
-52.203	45.769	1965.428	1791.921
-51.188	39.569	1750.522	1547.443
-50.173	36.819	1704.993	1486.067
-49.159	52.577	1749.673	1647.744
-48.144	55.844	1767.927	1690.251
-47.130	39.498	1725.811	1524.807
-46.115	36.455	1711.676	1488.847
-45.100	36.261	1706.639	1482.916
-44.086	36.238	1703.809	1480.228
-43.071	36.336	1700.923	1478.407
-42.057	36.189	1698.847	1475.418
-41.042	36.222	1697.054	1474.060
-40.027	36.256	1695.295	1472.730
-39.013	36.287	1692.821	1470.763
-37.998	36.260	1691.093	1468.997
-36.984	36.310	1689.603	1468.025
-35.969	36.312	1688.948	1467.410
-34.954	36.458	1686.683	1466.495
-33.940	36.370	1685.360	1464.617
-32.925	36.397	1683.172	1462.864
-31.911	36.420	1681.219	1461.281
-30.896	36.445	1679.416	1459.841
-29.881	36.338	1677.786	1457.565
-28.867	36.330	1676.614	1456.426
-27.852	36.359	1674.924	1455.119
-26.838	36.436	1673.266	1454.197
-25.823	36.378	1671.811	1452.442
-24.809	36.435	1670.245	1451.449
-23.794	36.481	1668.826	1450.507
-22.779	36.534	1667.266	1449.487
-21.765	36.425	1665.443	1447.029
-20.750	36.368	1664.104	1445.385
-19.736	36.363	1662.724	1444.090
-18.721	36.372	1661.209	1442.785
-17.706	36.391	1659.400	1441.294
-16.692	36.397	1657.969	1440.039
-15.677	36.362	1656.898	1438.793
-14.663	36.389	1655.905	1438.079
-13.648	36.379	1653.823	1436.139
-12.633	36.395	1652.419	1434.977
-11.619	36.434	1651.256	1434.200
-10.604	36.404	1649.109	1432.061
-9.590	36.332	1648.414	1430.866
-8.575	36.326	1647.205	1429.712
-7.560	36.314	1645.769	1428.318
-6.546	36.390	1644.496	1427.718
-5.531	36.414	1642.798	1426.370
-4.517	36.379	1642.122	1425.462
-3.502	36.385	1641.043	1424.515
-2.487	36.451	1639.532	1423.634
-1.473	36.344	1627.691	1412.510
-0.458	33.496	1607.185	1374.050
0.556	27.855	1605.345	1332.667
1.571	24.318	1627.093	1324.381
2.586	22.754	1639.189	1322.403
3.600	20.205	1585.478	1260.456
4.615	11.495	1470.977	1110.339
5.629	2.805	1400.315	1000.448
6.644	0.942	1391.962	982.311
7.659	0.824	1389.883	979.997
8.673	0.758	1389.195	978.995
9.688	0.617	1387.544	976.833
10.702	0.474	1384.421	973.628
11.717	4.075	1391.023	1001.499
12.731	12.501	1404.033	1065.578
13.746	17.438	1410.262	1102.267
14.761	17.411	1409.199	1101.167
15.775	16.665	1406.842	1094.403
16.790	15.644	1403.985	1085.495
17.804	14.923	1401.715	1078.995
18.819	14.489	1400.332	1075.033
19.834	14.257	1398.542	1072.075
20.848	13.883	1397.434	1068.722
21.863	13.740	1396.287	1066.829
22.877	13.523	1394.936	1064.307
23.892	13.435	1394.029	1062.956
24.907	13.461	1393.109	1062.326
25.921	13.556	1391.947	1061.959
26.936	13.557	1391.392	1061.443
27.950	13.593	1390.450	1060.867
28.965	13.633	1389.189	1060.065
29.980	13.782	1388.176	1060.148
30.994	13.704	1387.256	1058.853
32.009	13.733	1386.383	1058.277
33.023	13.735	1385.078	1057.202
34.038	13.739	1383.930	1056.262
35.053	13.686	1383.179	1055.255
36.067	13.651	1381.891	1053.954
37.082	13.713	1380.687	1053.338
38.096	13.650	1379.948	1052.281
39.111	13.689	1379.084	1051.780
40.126	13.551	1378.177	1050.114
41.140	13.537	1377.592	1049.488
42.155	13.491	1377.309	1048.890
43.169	13.492	1376.864	1048.462
44.184	13.507	1376.599	1048.263
45.199	13.502	1376.316	1047.922
46.213	13.503	1375.753	1047.409
47.228	13.530	1374.604	1046.611
48.242	13.609	1373.116	1045.889
49.257	13.601	1372.049	1044.930
50.271	13.601	1370.420	1043.601
51.286	13.602	1369.401	1042.735
52.301	13.612	1367.781	1041.475
53.315	13.515	1367.071	1040.228
54.330	13.547	1366.008	1039.533
55.344	13.554	1364.948	1038.678
56.359	13.569	1363.605	1037.659
57.374	13.502	1362.876	1036.592
58.388	13.505	1362.270	1036.055
59.403	13.463	1361.703	1035.270
60.417	13.494	1360.713	1034.619
61.432	13.340	1359.859	1032.916
62.447	13.446	1358.997	1032.833
63.461	13.386	1358.015	1031.625
64.476	13.424	1356.623	1030.712
65.490	13.445	1355.333	1029.768
66.505	13.441	1353.720	1028.427
67.520	13.325	1352.897	1026.994
68.534	13.442	1351.503	1026.565
69.549	13.507	1350.209	1025.896
70.563	13.499	1349.267	1025.041
71.578	13.435	1348.264	1023.793
72.593	13.314	1347.627	1022.468
73.607	13.425	1346.655	1022.327
74.622	13.380	1345.604	1021.161
75.636	13.431	1344.708	1020.704
76.651	13.424	1344.294	1020.259
77.666	13.430	1343.604	1019.682
78.680	13.400	1343.709	1019.484
79.695	13.431	1342.331	1018.540
80.709	13.443	1341.674	1018.025
81.724	13.453	1340.720	1017.272
82.739	13.393	1339.775	1016.098
83.753	13.528	1338.765	1016.067
84.768	13.549	1337.509	1015.154
85.782	13.679	1336.272	1014.919
86.797	13.567	1334.806	1013.035
87.812	13.525	1333.716	1011.860
88.826	13.553	1332.691	1011.167
89.841	13.542	1331.577	1010.162
90.855	13.634	1330.146	1009.550
91.870	13.618	1329.660	1008.991
92.884	13.734	1328.420	1008.667
93.899	13.741	1327.507	1007.928
94.914	13.684	1327.306	1007.340
95.928	13.710	1326.033	1006.442
96.943	13.649	1325.348	1005.463
97.957	13.708	1323.974	1004.688
98.972	13.651	1323.418	1003.833
99.987	13.598	1322.436	1002.682
101.001	13.562	1321.405	1001.594
102.016	13.615	1320.332	1001.007
103.030	13.629	1319.106	1000.075
104.045	13.617	1318.489	999.447
105.060	13.592	1317.252	998.268
106.074	13.609	1315.888	997.250
107.089	13.484	1314.710	995.519
108.103	13.501	1313.245	994.424
109.118	13.541	1311.986	993.622
110.133	13.515	1310.407	992.184
111.147	13.527	1309.251	991.289
112.162	13.480	1308.034	990.002
113.176	13.481	1307.186	989.277
114.191	13.609	1305.863	988.952
115.206	13.609	1304.873	988.116
116.220	13.605	1303.568	987.014
117.235	13.545	1302.230	985.560
118.249	13.579	1300.893	984.662
119.264	13.595	1300.306	984.223
120.279	13.597	1299.201	983.315
121.293	13.479	1297.800	981.469
122.308	13.524	1297.029	981.063
123.322	13.560	1296.000	980.413
124.337	13.559	1294.757	979.377
125.352	13.585	1293.525	978.512
126.366	13.485	1292.411	976.993
127.381	13.483	1291.226	975.999
128.395	13.485	1290.341	975.257
129.410	13.557	1289.531	974.981
130.424	13.636	1288.109	974.285
131.439	13.675	1287.634	974.067
132.454	13.671	1286.381	973.011
133.468	13.610	1285.585	971.966
134.483	13.676	1284.802	971.674
135.497	13.635	1283.820	970.608
136.512	13.629	1282.384	969.401
137.527	13.664	1281.182	968.607
138.541	13.621	1279.454	966.965
139.556	13.549	1278.472	965.719
140.570	13.606	1277.405	965.162
141.585	13.770	1275.736	964.768
142.600	13.645	1274.755	963.214
143.614	13.736	1273.579	962.767
144.629	13.734	1272.597	961.927
145.643	13.723	1271.231	960.748
146.658	13.779	1269.918	959.993
147.673	13.790	1268.129	958.617
148.687	13.775	1267.295	957.820
149.702	13.705	1265.895	956.273
150.716	13.622	1265.037	955.061
151.731	13.693	1263.354	954.116
152.746	13.631	1262.648	953.139
153.760	13.687	1261.023	952.149
154.775	13.694	1259.535	950.983
155.789	13.853	1258.987	951.396
156.804	13.773	1257.845	949.989
157.819	13.825	1256.768	949.391
158.833	13.924	1255.815	949.152
159.848	13.792	1255.265	947.897
160.862	13.869	1254.117	947.386
161.877	13.893	1252.557	946.262
162.892	13.767	1251.691	944.809
163.906	13.741	1251.165	944.177
164.921	13.812	1249.856	943.511
165.935	13.871	1249.114	943.204
166.950	13.905	1248.491	942.842
167.964	13.871	1247.279	941.650
168.979	13.925	1246.914	941.600
169.994	13.853	1246.283	940.631
171.008	13.861	1244.936	939.578
172.023	14.015	1244.232	939.831
173.037	13.916	1243.110	938.342
174.052	13.950	1242.596	938.061
175.067	13.911	1241.235	936.732
176.081	13.871	1240.227	935.665
177.096	13.907	1239.705	935.390
178.110	13.943	1238.190	934.367
179.125	14.060	1236.883	933.952
180.140	14.045	1235.580	932.802
181.154	13.952	1234.646	931.493
182.169	13.964	1233.414	930.551
183.183	14.035	1232.334	930.052
184.198	14.089	1231.182	929.402
185.213	14.146	1229.574	928.421
186.227	14.119	1228.692	927.524
187.242	14.131	1227.619	926.701
188.256	14.247	1226.638	926.525
189.271	14.123	1226.050	925.306
190.286	14.032	1225.056	923.969
191.300	14.012	1223.910	922.912
192.315	13.941	1223.506	922.128
193.329	13.981	1222.536	921.542
194.344	13.967	1222.458	921.324
195.359	14.094	1221.381	921.133
196.373	14.119	1221.016	920.916
197.388	14.216	1220.268	920.802
198.402	14.065	1220.251	919.875
199.417	14.220	1218.923	919.647
200.432	14.303	1218.081	919.393
201.446	14.382	1217.216	919.091
202.461	14.495	1216.046	918.750
203.475	14.340	1215.823	917.648
204.490	14.334	1214.169	916.284
205.504	14.339	1213.247	915.534
206.519	14.341	1211.728	914.316
207.534	14.270	1211.033	913.322
208.548	14.317	1209.804	912.574
209.563	14.372	1209.064	912.235
210.577	14.322	1208.138	911.185
211.592	14.432	1207.362	911.117
212.607	14.412	1206.574	910.336
213.621	14.485	1205.729	910.015
214.636	14.482	1204.137	908.716
215.650	14.503	1203.729	908.440
216.665	14.618	1202.601	908.135
217.680	14.592	1201.935	907.409
218.694	14.522	1201.452	906.587
219.709	14.558	1200.363	905.877
220.723	14.535	1199.389	904.940
221.738	14.545	1198.671	904.370
222.753	14.458	1198.061	903.362
223.767	14.601	1197.332	903.505
224.782	14.620	1196.968	903.256
225.796	14.684	1196.154	902.904
226.811	14.721	1195.551	902.570
227.826	14.634	1195.096	901.678
228.840	14.731	1194.043	901.326
229.855	14.579	1193.577	900.072
230.869	14.618	1192.463	899.366
231.884	14.620	1191.757	898.762
232.899	14.572	1191.035	897.883
233.913	14.704	1190.111	897.816
234.928	14.723	1189.185	897.137
235.942	14.608	1188.543	895.959
236.957	14.666	1187.934	895.730
237.972	14.698	1187.124	895.210
238.986	14.539	1187.007	894.190
240.001	14.725	1185.668	894.101
241.015	14.710	1184.920	893.376
242.030	14.773	1184.019	892.954
243.045	14.802	1182.982	892.249
244.059	14.866	1182.428	892.095
245.074	14.841	1181.285	891.019
246.088	14.750	1180.938	890.193
247.103	14.786	1180.331	889.848
248.117	14.814	1179.693	889.441
249.132	14.901	1178.462	888.894
250.147	15.051	1177.934	889.212
251.161	15.048	1177.228	888.584
252.176	15.141	1176.393	888.368
253.190	15.046	1175.746	887.299
254.205	15.128	1174.850	886.977
255.220	15.178	1174.831	887.150
256.234	15.224	1173.553	886.349
257.249	15.146	1172.986	885.435
258.263	15.079	1172.394	884.552
259.278	15.156	1171.810	884.441
260.293	15.227	1171.367	884.404
261.307	15.166	1171.026	883.744
262.322	15.288	1170.163	883.660
263.336	15.390	1169.347	883.502
264.351	15.240	1169.021	882.388
265.366	15.319	1168.058	881.997
266.380	15.319	1167.605	881.576
267.395	15.391	1166.383	880.958
268.409	15.451	1165.303	880.374
269.424	15.407	1165.120	879.929
270.439	15.388	1164.764	879.482
271.453	15.347	1163.944	878.574
272.468	15.383	1162.598	877.668
273.482	15.302	1162.222	876.884
274.497	15.225	1161.907	876.161
275.512	15.368	1161.119	876.237
276.526	15.489	1160.122	876.043
277.541	15.395	1159.272	874.829
278.555	15.410	1158.818	874.489
279.570	15.434	1157.911	873.850
280.585	15.639	1157.064	874.200
281.599	15.639	1156.068	873.374
282.614	15.595	1155.392	872.557
283.628	15.537	1154.112	871.213
284.643	15.487	1153.219	870.199
285.657	15.569	1152.385	869.919
286.672	15.641	1151.348	869.433
287.687	15.552	1150.510	868.262
288.701	15.616	1149.521	867.769
289.716	15.701	1148.645	867.470
290.730	15.559	1148.146	866.285
291.745	15.668	1147.519	866.297
292.760	15.618	1147.010	865.579
293.774	15.774	1146.478	865.902
294.789	15.696	1145.983	865.052
295.803	15.754	1145.009	864.537
296.818	15.712	1144.568	863.911
297.833	15.725	1143.808	863.328
298.847	15.737	1142.712	862.485
299.862	15.723	1141.739	861.602
300.876	15.762	1141.357	861.440
301.891	15.702	1140.535	860.435
302.906	15.860	1139.957	860.733
303.920	15.837	1139.191	859.957
304.935	15.898	1138.362	859.566
305.949	15.974	1137.547	859.263
306.964	15.905	1137.194	858.569
307.979	15.918	1136.442	857.994
308.993	15.894	1135.932	857.408
310.008	16.014	1134.736	857.040
311.022	16.044	1133.953	856.526
312.037	16.084	1132.756	855.751
313.052	16.021	1131.777	854.614
314.066	16.050	1131.378	854.383
315.081	15.987	1130.654	853.444
316.095	15.910	1129.921	852.424
317.110	16.048	1128.610	852.058
318.125	15.956	1128.516	851.445
319.139	15.981	1127.494	850.729
320.154	16.090	1126.824	850.694
321.168	16.049	1126.250	849.980
322.183	16.094	1125.427	849.513
323.197	16.009	1125.033	848.712
324.212	16.083	1124.211	848.387
325.227	16.090	1123.706	847.966
326.241	16.119	1122.858	847.395
327.256	16.112	1122.199	846.791
328.270	16.052	1121.298	845.733
329.285	16.185	1120.347	845.609
330.300	16.240	1119.322	845.037
331.314	16.097	1118.830	843.871
332.329	16.076	1117.789	842.907
333.343	15.981	1117.213	841.923
334.358	16.240	1116.033	842.255
335.373	16.229	1115.537	841.752
336.387	16.309	1114.490	841.286
337.402	16.268	1113.674	840.392
338.416	16.280	1112.924	839.810
339.431	16.231	1112.420	839.112
340.446	16.369	1111.832	839.278
341.460	16.280	1111.417	838.449
342.475	16.365	1110.696	838.254
343.489	16.451	1109.168	837.452
344.504	16.487	1108.235	836.850
345.519	16.487	1107.681	836.360
346.533	16.534	1106.717	835.788
347.548	16.575	1106.133	835.477
348.562	16.504	1105.419	834.514
349.577	16.469	1104.431	833.521
350.592	16.505	1103.593	832.993
351.606	16.562	1102.845	832.634
352.621	16.601	1102.203	832.267
353.635	16.549	1101.599	831.481
354.650	16.526	1100.802	830.697
355.665	16.530	1100.161	830.157
356.679	16.668	1099.502	830.262
357.694	16.549	1099.410	829.537
358.708	16.645	1098.298	829.094
359.723	16.719	1097.702	828.934
360.738	16.694	1097.190	828.349
361.752	16.530	1096.597	827.026
362.767	16.599	1096.056	826.885
363.781	16.677	1095.665	826.898
364.796	16.742	1094.683	826.402
365.810	16.676	1094.168	825.615
366.825	16.803	1093.332	825.532
367.840	16.849	1092.739	825.233
368.854	16.946	1092.338	825.328
369.869	16.802	1091.365	823.821
370.883	16.868	1090.384	823.328
371.898	16.736	1089.695	822.095
372.913	16.785	1089.307	821.969
373.927	16.932	1088.459	821.967
374.942	16.956	1088.285	821.879
375.956	16.901	1087.753	821.140
376.971	16.880	1087.308	820.628
377.986	16.971	1086.640	820.493
379.000	17.029	1085.856	820.109
380.015	17.099	1085.262	819.928
381.029	17.095	1084.601	819.335
382.044	17.112	1083.852	818.778
383.059	17.136	1082.735	817.978
384.073	17.108	1082.218	817.379
385.088	17.075	1081.689	816.747
386.102	17.133	1080.315	815.919
387.117	17.094	1079.530	815.066
388.132	17.161	1078.335	814.411
389.146	17.041	1078.257	813.705
390.161	16.979	1077.421	812.707
391.175	17.101	1076.188	812.286
392.190	17.222	1075.441	812.232
393.205	17.268	1074.791	811.888
394.219	17.228	1074.032	811.052
395.234	17.125	1073.612	810.169
396.248	17.228	1072.307	809.605
397.263	17.173	1071.270	808.489
398.278	17.178	1070.634	807.963
399.292	17.299	1069.647	807.718
400.307	17.228	1069.291	807.041
401.321	17.221	1068.530	806.362
402.336	17.187	1068.226	805.901
403.350	17.132	1067.331	804.893
404.365	17.296	1066.555	805.014
405.380	17.364	1065.679	804.602
406.394	17.303	1065.185	803.872
407.409	17.434	1064.341	803.781
408.423	17.296	1063.790	802.645
409.438	17.464	1062.823	802.635
410.453	17.393	1062.361	801.878
411.467	17.399	1062.123	801.657
412.482	17.475	1060.824	800.966
413.496	17.533	1060.227	800.714
414.511	17.537	1059.756	800.306
415.526	17.614	1059.130	800.124
416.540	17.669	1058.696	799.986
417.555	17.598	1058.033	799.078
418.569	17.595	1058.076	799.026
419.584	17.673	1057.242	798.693
420.599	17.636	1056.683	798.028
421.613	96.977	1312.013	1428.360
422.628	89.462	1349.209	1428.477
