DTS Sentinel unit serial number:	SN413079Multiplexer serial number:	ORYXHardware model number:	OX4-SRSoftware version number:	ORYX F/W v4.00 Oryx Data Collector v3.7.2.0data status	okinstallation	princeton_trtdifferential loss correction	single-endedforward channel	channel 2reverse channel	N/Adate	2019/09/14time	14:51:34forward acquisition time	60.00reverse acquisition time	0.00gamma	496.2192k internal	0.2302k external	0.2302temperature offset calibration	1.0142default loss term (dB/km)	0.3790temperature slope calibration	1.0000multiplexer offset coefficient	1.0000multiplexer slope coefficient	1.0000fibre end	0.00T internal ref (°C)	39.16T ext. ref 1 (°C)	5.00T ext. ref 2 (°C)	33.79length (m)	temperature (°C)	Stokes	anti-Stokes-747.200	-200.000	-0.015	-0.210
-746.185	115.501	-0.164	0.205
-745.171	800.000	-0.046	0.157
-744.156	800.000	-0.061	0.182
-743.142	423.001	-0.134	0.293
-742.127	795.915	0.084	0.235
-741.112	-56.927	-0.421	0.189
-740.098	56.404	0.194	0.192
-739.083	30.106	-0.213	0.185
-738.069	800.000	0.113	0.483
-737.054	18.949	-0.099	-0.081
-736.039	-41.984	-0.196	-0.102
-735.025	153.720	-0.097	0.135
-734.010	476.947	0.102	-0.236
-732.996	-144.502	-0.461	-0.043
-731.981	183.690	-0.229	-0.345
-730.966	-103.996	-0.095	0.023
-729.952	-59.706	-0.159	0.070
-728.937	800.000	0.106	0.319
-727.923	-200.000	0.009	0.314
-726.908	-200.000	-0.003	0.072
-725.894	-171.355	-0.132	0.004
-724.879	-200.000	-0.010	0.045
-723.864	-11.714	0.122	-0.081
-722.850	-35.784	0.074	-0.041
-721.835	-142.204	-0.247	0.025
-720.821	800.000	-0.084	-0.266
-719.806	-200.000	-0.000	0.157
-718.791	-39.195	-0.299	0.160
-717.777	-200.000	-0.054	0.267
-716.762	-62.025	0.178	0.076
-715.748	-81.389	-0.160	0.054
-714.733	-142.059	-0.093	0.009
-713.718	24.278	-0.252	-0.212
-712.704	267.322	-0.101	-0.179
-711.689	-86.712	-0.096	0.030
-710.675	-58.435	0.393	-0.174
-709.660	295.163	0.075	-0.140
-708.645	800.000	-0.082	0.236
-707.631	207.433	-0.179	-0.285
-706.616	-200.000	0.005	0.184
-705.602	169.574	0.017	0.025
-704.587	-66.661	0.187	-0.075
-703.572	329.890	0.058	0.113
-702.558	15.398	-0.217	0.173
-701.543	-80.117	0.094	-0.032
-700.529	800.000	-0.056	-0.240
-699.514	-158.575	-0.371	-0.022
-698.499	-117.030	-0.361	0.067
-697.485	-13.182	-0.218	-0.144
-696.470	176.302	-0.114	-0.169
-695.456	-200.000	-0.023	0.136
-694.441	-200.000	-0.007	-0.569
-693.426	343.076	0.025	0.050
-692.412	-200.000	-0.031	0.151
-691.397	-108.918	0.203	-0.044
-690.383	-16.790	0.289	0.186
-689.368	-200.000	-0.008	0.232
-688.354	-200.000	0.011	-0.106
-687.339	128.131	0.179	0.231
-686.324	740.073	0.140	-0.383
-685.310	800.000	0.070	-0.239
-684.295	800.000	0.028	-0.099
-683.281	693.163	0.119	-0.316
-682.266	-14.494	-0.219	-0.143
-681.251	165.996	-0.141	0.202
-680.237	46.845	0.159	-0.150
-679.222	49.704	0.161	-0.154
-678.208	-200.000	-0.001	-0.340
-677.193	-200.000	0.004	-0.025
-676.178	-154.014	0.065	0.004
-675.164	-54.786	-0.026	-0.012
-674.149	457.162	-0.042	-0.095
-673.135	-8.662	-0.074	-0.050
-672.120	266.602	-0.154	-0.273
-671.105	-151.297	0.073	0.006
-670.091	396.977	0.156	0.332
-669.076	-29.509	-0.131	-0.076
-668.062	260.179	-0.030	-0.053
-667.047	-148.433	-0.323	0.027
-666.032	-1.765	-0.177	0.127
-665.018	800.000	-0.032	0.104
-664.003	-89.445	-0.109	-0.033
-662.989	-147.091	0.168	0.015
-661.974	-200.000	0.000	0.029
-660.959	6.345	-0.230	0.173
-659.945	-200.000	0.004	0.017
-658.930	800.000	-0.124	0.412
-657.916	-78.347	-0.239	-0.083
-656.901	-200.000	-0.020	0.120
-655.886	57.308	0.152	0.151
-654.872	-56.570	0.417	-0.188
-653.857	-29.411	-0.227	-0.132
-652.843	364.512	0.102	0.208
-651.828	-9.348	-0.206	0.140
-650.814	-74.253	-0.304	0.112
-649.799	-161.656	-0.129	0.007
-648.784	-0.602	0.280	0.201
-647.770	718.478	0.123	0.333
-646.755	31.980	-0.212	-0.186
-645.741	-114.971	0.121	0.023
-644.726	-61.684	0.158	-0.067
-643.711	-200.000	-0.024	-0.143
-642.697	6.606	-0.083	0.062
-641.682	-124.334	-0.418	0.066
-640.668	-155.274	-0.295	0.019
-639.653	16.711	-0.087	-0.070
-638.638	-116.850	-0.167	-0.031
-637.624	32.447	0.146	-0.128
-636.609	-10.867	-0.119	-0.080
-635.595	-14.642	0.240	-0.157
-634.580	13.352	0.156	-0.122
-633.565	-5.318	-0.078	0.054
-632.551	-200.000	-0.000	0.154
-631.536	98.147	0.049	-0.057
-630.522	-70.029	0.068	0.026
-629.507	346.386	-0.120	-0.239
-628.492	-105.827	-0.173	-0.040
-627.478	216.597	0.105	-0.169
-626.463	-11.882	0.167	0.111
-625.449	299.818	-0.036	0.067
-624.434	-18.447	0.258	0.164
-623.419	19.179	0.219	-0.179
-622.405	-168.441	-0.222	0.009
-621.390	-115.627	-0.148	0.028
-620.376	376.472	-0.054	-0.111
-619.361	31.676	0.229	-0.200
-618.346	738.751	-0.098	-0.266
-617.332	-24.009	-0.111	0.067
-616.317	79.650	-0.196	0.214
-615.303	-27.904	0.049	0.028
-614.288	351.836	0.140	0.280
-613.273	-85.821	0.203	0.064
-612.259	-102.251	0.200	0.049
-611.244	62.380	-0.101	0.103
-610.230	-35.869	-0.103	-0.056
-609.215	-200.000	0.005	0.053
-608.201	329.441	0.144	0.281
-607.186	75.080	-0.174	-0.186
-606.171	448.659	0.108	-0.240
-605.157	-200.000	-0.004	-0.128
-604.142	-192.583	0.098	0.001
-603.128	-27.712	0.002	0.001
-602.113	-102.375	0.047	0.011
-601.098	-200.000	-0.018	-0.099
-600.084	-200.000	-0.027	-0.129
-599.069	-200.000	-0.011	0.135
-598.055	-108.368	-0.483	-0.106
-597.040	800.000	-0.020	0.074
-596.025	113.969	-0.203	-0.250
-595.011	-200.000	-0.006	0.066
-593.996	-8.983	0.317	0.215
-592.982	800.000	-0.040	-0.121
-591.967	190.061	-0.050	0.077
-590.952	608.477	-0.062	0.156
-589.938	-69.812	-0.034	0.013
-588.923	25.738	-0.207	-0.174
-587.909	540.159	0.101	-0.244
-586.894	-118.860	-0.105	0.019
-585.879	-86.548	-0.391	-0.122
-584.865	-91.752	0.069	0.020
-583.850	-162.498	0.195	-0.010
-582.836	99.394	-0.180	-0.211
-581.821	-19.057	0.174	-0.110
-580.806	-105.646	0.051	0.012
-579.792	-200.000	0.009	-0.111
-578.777	-200.000	0.034	-0.365
-577.763	130.169	0.210	-0.272
-576.748	83.253	0.192	-0.212
-575.733	800.000	0.005	0.015
-574.719	-200.000	-0.019	0.122
-573.704	-2.494	0.249	-0.177
-572.690	0.025	-0.152	-0.109
-571.675	-200.000	0.032	0.282
-570.661	125.569	0.238	0.304
-569.646	800.000	-0.046	-0.137
-568.631	306.538	0.156	-0.295
-567.617	-24.426	-0.129	-0.078
-566.602	-1.955	0.126	-0.090
-565.588	502.342	-0.021	-0.049
-564.573	298.433	0.077	-0.144
-563.558	453.988	0.099	-0.223
-562.544	-145.762	0.097	0.009
-561.529	44.999	-0.078	0.073
-560.515	167.194	-0.175	-0.251
-559.500	5.422	-0.253	0.189
-558.485	-70.076	0.288	-0.111
-557.471	-28.608	0.294	-0.171
-556.456	-200.000	0.006	-0.291
-555.442	-112.015	-0.219	0.045
-554.427	-65.186	0.172	0.070
-553.412	-200.000	-0.024	0.361
-552.398	-141.380	-0.095	-0.010
-551.383	-200.000	-0.014	-0.260
-550.369	-200.000	0.001	0.110
-549.354	-47.559	-0.349	0.171
-548.339	509.650	-0.122	0.288
-547.325	-200.000	-0.009	-0.275
-546.310	-101.346	-0.223	0.055
-545.296	65.581	0.052	0.054
-544.281	237.080	0.139	-0.233
-543.266	-200.000	0.006	0.226
-542.252	-177.800	-0.342	0.008
-541.237	103.917	0.121	-0.144
-540.223	385.800	0.114	0.237
-539.208	-80.009	0.288	-0.098
-538.193	-96.742	0.225	-0.060
-537.179	3.380	0.191	0.141
-536.164	-118.508	0.241	0.043
-535.150	330.007	-0.075	-0.145
-534.135	-19.707	-0.189	-0.118
-533.121	-71.512	0.086	-0.032
-532.106	-200.000	0.066	-0.502
-531.091	792.632	0.034	0.094
-530.077	-200.000	-0.072	0.416
-529.062	215.639	-0.261	0.419
-528.048	71.757	0.161	-0.169
-527.033	-66.067	-0.166	-0.067
-526.018	-43.994	0.173	0.088
-525.004	800.000	-0.049	-0.214
-523.989	533.002	-0.083	-0.198
-522.975	25.725	0.124	0.104
-521.960	-197.550	0.210	-0.001
-520.945	-46.703	-0.162	-0.080
-519.931	-112.869	0.159	-0.032
-518.916	-25.297	0.382	-0.228
-517.902	189.154	-0.088	-0.133
-516.887	-112.711	-0.139	-0.028
-515.872	-60.280	0.344	-0.148
-514.858	800.000	0.012	-0.048
-513.843	-110.388	-0.332	0.070
-512.829	539.603	-0.156	-0.375
-511.814	-91.644	-0.117	0.034
-510.799	-27.456	0.132	0.077
-509.785	60.374	0.065	-0.065
-508.770	360.207	-0.067	-0.135
-507.756	800.000	-0.033	-0.139
-506.741	98.803	0.297	0.346
-505.726	443.799	-0.111	-0.246
-504.712	-36.043	-0.464	0.253
-503.697	-149.735	-0.142	-0.011
-502.683	42.184	0.156	0.143
-501.668	-2.436	0.225	-0.159
-500.653	-200.000	0.018	-0.085
-499.639	116.370	-0.250	0.310
-498.624	-189.532	0.276	-0.003
-497.610	127.550	-0.234	0.300
-496.595	157.266	0.102	0.142
-495.581	-48.084	-0.338	0.165
-494.566	-98.869	-0.309	-0.079
-493.551	-93.701	0.102	-0.028
-492.537	-151.961	-0.109	0.008
-491.522	123.454	0.075	-0.095
-490.508	-123.783	-0.374	0.060
-489.493	279.917	0.074	-0.133
-488.478	800.000	-0.113	-0.405
-487.464	-19.977	0.141	-0.088
-486.449	12.306	-0.176	-0.137
-485.435	544.239	0.131	0.315
-484.420	-200.000	0.024	-0.000
-483.405	-83.133	0.233	-0.076
-482.391	800.000	0.052	-0.157
-481.376	-92.044	0.254	0.073
-480.362	-122.885	-0.316	0.051
-479.347	40.232	-0.171	-0.155
-478.332	-200.000	-0.014	-0.437
-477.318	-105.912	-0.174	0.039
-476.303	62.722	0.291	0.293
-475.289	-89.818	0.114	0.034
-474.274	-200.000	0.009	-0.265
-473.259	-41.205	-0.236	-0.123
-472.245	800.000	-0.054	0.180
-471.230	-140.166	0.227	-0.024
-470.216	67.077	0.222	-0.228
-469.201	65.560	-0.050	-0.051
-468.186	-146.204	-0.338	0.030
-467.172	165.327	0.058	0.083
-466.157	-28.136	-0.216	0.126
-465.143	-148.273	-0.168	0.014
-464.128	452.954	0.092	0.205
-463.113	800.000	0.079	0.331
-462.099	-131.599	0.191	-0.025
-461.084	470.246	0.237	-0.537
-460.070	-200.000	0.155	-0.000
-459.055	126.690	-0.251	-0.320
-458.040	-45.134	0.133	-0.066
-457.026	43.120	0.107	0.098
-456.011	-200.000	0.000	-0.011
-454.997	800.000	0.012	0.038
-453.982	-200.000	0.030	0.166
-452.968	489.432	0.019	0.044
-451.953	-122.649	0.351	-0.057
-450.938	255.563	-0.045	0.077
-449.924	364.836	0.086	-0.175
-448.909	226.255	-0.174	0.284
-447.895	-200.000	0.045	0.374
-446.880	-77.799	-0.252	-0.088
-445.865	134.343	-0.121	-0.158
-444.851	-97.829	0.090	-0.024
-443.836	121.565	-0.314	-0.394
-442.822	-73.412	-0.421	0.155
-441.807	-200.000	0.023	-0.124
-440.792	-100.308	0.409	-0.102
-439.778	-200.000	0.038	0.290
-438.763	223.073	0.111	0.181
-437.749	-168.389	-0.126	-0.005
-436.734	-47.384	0.166	0.081
-435.719	-200.000	0.036	0.423
-434.705	-30.374	0.145	-0.083
-433.690	149.296	0.121	-0.165
-432.676	251.931	0.082	0.140
-431.661	38.339	0.289	-0.259
-430.646	368.771	-0.108	-0.220
-429.632	-193.382	-0.131	-0.001
-428.617	-200.000	0.024	-0.168
-427.603	-200.000	-0.004	-0.098
-426.588	92.165	-0.243	0.276
-425.573	-65.676	0.138	0.055
-424.559	140.209	0.069	-0.091
-423.544	317.597	-0.073	-0.139
-422.530	38.661	-0.232	-0.208
-421.515	356.927	-0.124	0.250
-420.500	-52.078	-0.089	0.042
-419.486	-60.199	-0.228	-0.098
-418.471	695.405	-0.058	0.153
-417.457	-137.584	0.565	-0.064
-416.442	-200.000	0.007	-0.199
-415.428	-200.000	0.031	0.301
-414.413	-35.606	-0.288	0.157
-413.398	-39.433	-0.359	0.189
-412.384	-103.980	0.076	-0.018
-411.369	-21.357	-0.305	-0.187
-410.355	-200.000	0.024	0.464
-409.340	-97.847	0.185	-0.048
-408.325	201.715	0.140	0.217
-407.311	-200.000	0.030	-0.201
-406.296	-79.923	-0.192	0.065
-405.282	-5.596	0.151	0.104
-404.267	-52.186	-0.071	-0.033
-403.252	-144.881	-0.041	0.004
-402.238	-200.000	0.302	-0.001
-401.223	-79.748	-0.198	-0.067
-400.209	202.493	-0.060	0.093
-399.194	-140.647	-0.441	-0.046
-398.179	-200.000	0.030	-0.251
-397.165	-185.642	0.330	-0.005
-396.150	-60.487	-0.152	-0.065
-395.136	-150.594	0.190	0.015
-394.121	256.567	0.066	0.113
-393.106	-184.472	-0.501	0.008
-392.092	764.171	-0.076	0.208
-391.077	-18.076	0.245	-0.154
-390.063	118.068	0.098	0.122
-389.048	17.721	0.227	0.181
-388.033	-51.735	0.380	0.178
-387.019	-112.504	0.444	0.089
-386.004	800.000	0.109	-0.305
-384.990	-26.257	0.141	-0.083
-383.975	330.125	-0.037	0.072
-382.960	68.528	0.134	0.139
-381.946	449.270	0.140	0.310
-380.931	-26.213	0.225	0.133
-379.917	-115.001	-0.356	-0.068
-378.902	155.649	-0.106	-0.146
-377.888	329.584	0.134	0.258
-376.873	129.514	0.091	-0.117
-375.858	-159.029	-0.555	0.032
-374.844	-200.000	-0.013	-0.094
-373.829	170.549	-0.192	-0.276
-372.815	579.833	0.056	-0.137
-371.800	-126.561	0.167	0.025
-370.785	341.034	-0.075	-0.148
-369.771	714.323	-0.085	-0.225
-368.756	677.332	0.192	0.501
-367.742	519.914	0.050	0.118
-366.727	-5.628	-0.399	0.275
-365.712	-172.799	-0.143	0.004
-364.698	-135.716	-0.276	0.033
-363.683	-7.809	-0.321	-0.218
-362.669	-200.000	0.013	0.058
-361.654	562.793	0.079	0.193
-360.639	216.496	-0.036	0.058
-359.625	202.245	0.050	0.077
-358.610	-131.092	-0.178	-0.024
-357.596	800.000	-0.065	-0.220
-356.581	-22.236	-0.201	-0.122
-355.566	362.591	-0.042	-0.085
-354.552	399.233	0.049	0.103
-353.537	-200.000	0.034	0.179
-352.523	-200.000	-0.044	0.251
-351.508	478.194	0.069	0.157
-350.493	-200.000	-0.016	-0.253
-349.479	-4.795	-0.090	0.062
-348.464	-127.897	-0.261	0.038
-347.450	-1.214	-0.216	-0.153
-346.435	115.066	0.287	-0.351
-345.420	-114.183	-0.151	-0.029
-344.406	-112.389	-0.266	0.053
-343.391	-200.000	0.020	0.090
-342.377	33.508	0.152	-0.133
-341.362	-200.000	-0.029	0.183
-340.348	110.288	-0.123	-0.148
-339.333	-200.000	0.005	-0.079
-338.318	260.185	-0.159	-0.275
-337.304	800.000	0.082	0.260
-336.289	-38.857	0.111	0.059
-335.275	135.815	-0.106	0.138
-334.260	-200.000	-0.032	0.159
-333.245	-140.784	-0.256	-0.027
-332.231	273.459	0.045	0.080
-331.216	487.518	0.012	0.027
-330.202	-69.785	0.337	0.129
-329.187	269.451	0.142	0.251
-328.172	-38.181	0.321	-0.171
-327.158	94.340	-0.183	-0.209
-326.143	-70.495	-0.425	-0.161
-325.129	89.687	-0.181	0.203
-324.114	-144.197	0.122	-0.011
-323.099	-61.895	-0.399	-0.167
-322.085	-47.656	-0.210	0.102
-321.070	104.268	-0.200	0.236
-320.056	-127.881	-0.217	-0.031
-319.041	130.777	0.128	-0.165
-318.026	-200.000	0.028	0.157
-317.012	282.089	-0.113	0.203
-315.997	16.652	-0.096	-0.076
-314.983	800.000	-0.076	0.330
-313.968	-200.000	0.028	0.257
-312.953	20.878	0.098	-0.080
-311.939	-15.593	0.295	0.188
-310.924	608.940	-0.083	0.207
-309.910	800.000	-0.067	0.248
-308.895	-200.000	0.026	0.145
-307.880	2.438	0.124	0.090
-306.866	-71.264	-0.093	0.035
-305.851	-3.737	-0.131	-0.091
-304.837	-200.000	0.066	-0.385
-303.822	-42.787	0.388	0.197
-302.807	-22.209	0.232	0.141
-301.793	-200.000	-0.020	-0.088
-300.778	-89.212	0.277	0.082
-299.764	92.846	-0.129	0.146
-298.749	134.226	0.328	0.425
-297.735	-67.438	-0.071	0.028
-296.720	-122.102	0.337	-0.055
-295.705	-118.296	-0.163	0.029
-294.691	-80.922	-0.334	0.111
-293.676	-70.383	0.023	-0.009
-292.662	-200.000	0.005	0.144
-291.647	-153.937	0.102	-0.007
-290.632	-36.762	0.168	0.090
-289.618	-200.000	0.033	-0.423
-288.603	24.638	-0.185	-0.153
-287.589	-200.000	0.013	0.061
-286.574	32.380	-0.107	0.092
-285.559	-200.000	-0.006	-0.059
-284.545	800.000	0.030	-0.115
-283.530	73.308	0.044	-0.046
-282.516	800.000	-0.023	-0.074
-281.501	62.133	-0.033	-0.033
-280.486	-137.054	0.462	0.053
-279.472	9.650	-0.184	0.140
-278.457	192.904	0.150	0.227
-277.443	621.271	-0.123	-0.310
-276.428	270.770	-0.186	0.328
-275.413	-200.000	0.072	0.344
-274.399	-7.045	0.167	-0.113
-273.384	454.987	0.113	-0.250
-272.370	-18.908	0.049	0.031
-271.355	-200.000	0.014	0.100
-270.340	-200.000	-0.012	0.162
-269.326	-44.963	0.091	0.045
-268.311	-20.227	-0.132	-0.081
-267.297	-200.000	0.023	0.116
-266.282	18.003	-0.183	-0.146
-265.267	-200.000	0.030	-0.217
-264.253	-50.068	0.203	0.096
-263.238	-200.000	-0.014	-0.211
-262.224	-200.000	-0.002	-0.196
-261.209	16.442	0.155	0.122
-260.195	800.000	0.066	0.193
-259.180	-154.228	0.229	0.015
-258.165	267.684	-0.158	-0.276
-257.151	-79.901	-0.249	0.084
-256.136	77.327	0.046	-0.049
-255.122	800.000	0.072	-0.286
-254.107	-200.000	0.010	0.057
-253.092	577.822	-0.093	-0.227
-252.078	-200.000	-0.000	-0.139
-251.063	141.086	0.071	0.094
-250.049	18.125	0.134	0.107
-249.034	52.398	-0.195	0.186
-248.019	-200.000	0.001	0.246
-247.005	800.000	-0.082	-0.349
-245.990	721.362	0.090	0.241
-244.976	-127.397	-0.361	0.053
-243.961	-156.216	0.165	-0.010
-242.946	191.923	0.048	-0.073
-241.932	-200.000	0.037	-0.356
-240.917	800.000	-0.086	-0.272
-239.903	-200.000	0.013	0.332
-238.888	-156.107	-0.253	-0.016
-237.873	-102.873	0.149	0.035
-236.859	-118.858	0.343	0.060
-235.844	-28.158	-0.294	-0.170
-234.830	-200.000	-0.029	-0.182
-233.815	77.892	0.112	0.120
-232.800	-200.000	0.017	0.204
-231.786	161.295	-0.102	0.142
-230.771	800.000	-0.105	0.444
-229.757	-2.391	0.114	0.080
-228.742	28.165	-0.144	0.122
-227.727	-200.000	-0.010	0.191
-226.713	-61.446	-0.019	0.008
-225.698	-200.000	0.010	0.102
-224.684	289.563	-0.221	-0.399
-223.669	-87.300	-0.136	0.041
-222.655	-14.205	-0.076	-0.049
-221.640	65.904	0.265	0.268
-220.625	-200.000	0.055	0.570
-219.611	-93.544	0.235	0.065
-218.596	-44.786	0.046	-0.023
-217.582	-151.118	0.101	-0.008
-216.567	-135.885	0.285	0.034
-215.552	-200.000	-0.019	0.087
-214.538	419.714	0.101	-0.216
-213.523	183.208	0.172	-0.253
-212.509	-86.090	0.298	0.092
-211.494	-35.917	-0.096	0.052
-210.479	-22.395	-0.208	0.125
-209.465	188.183	-0.229	-0.342
-208.450	-200.000	0.003	0.019
-207.436	-200.000	0.018	0.324
-206.421	7.120	0.464	0.346
-205.406	-200.000	0.033	-0.266
-204.392	45.888	-0.123	0.113
-203.377	-135.949	-0.274	0.032
-202.363	-41.294	0.108	-0.056
-201.348	538.629	-0.042	-0.099
-200.333	-164.558	0.120	-0.005
-199.319	-18.155	0.058	-0.036
-198.304	-86.623	-0.322	0.098
-197.290	-200.000	-0.026	-0.164
-196.275	-100.995	0.336	-0.082
-195.260	167.434	0.176	-0.249
-194.246	-39.978	0.149	-0.078
-193.231	332.213	-0.140	-0.270
-192.217	-11.181	0.208	-0.137
-191.202	-200.000	-0.060	-0.265
-190.187	5.791	-0.214	0.158
-189.173	800.000	0.053	0.172
-188.158	-54.787	0.318	-0.143
-187.144	-79.319	0.174	-0.059
-186.129	-45.810	0.072	-0.035
-185.114	-200.000	-0.041	-0.547
-184.100	303.028	-0.088	-0.163
-183.085	298.720	0.069	-0.127
-182.071	21.170	-0.153	-0.123
-181.056	156.510	0.055	0.076
-180.042	-14.931	0.109	-0.069
-179.027	-200.000	-0.015	0.167
-178.012	-200.000	0.019	-0.101
-176.998	44.768	-0.194	0.178
-175.983	-199.684	0.081	-0.000
-174.969	-13.534	0.188	0.122
-173.954	800.000	-0.073	0.234
-172.939	109.080	0.089	-0.106
-171.925	189.309	-0.044	0.065
-170.910	-32.616	0.362	-0.201
-169.896	9.523	0.144	0.109
-168.881	594.157	0.062	0.153
-167.866	554.891	-0.143	-0.342
-166.852	-56.376	0.066	-0.029
-165.837	-200.000	0.030	0.291
-164.823	-55.520	0.244	-0.109
-163.808	-181.068	-0.292	0.006
-162.793	184.872	-0.103	-0.152
-161.779	-14.225	-0.116	0.074
-160.764	52.496	-0.093	0.088
-159.750	-53.650	-0.148	0.067
-158.735	654.154	0.047	0.121
-157.720	-97.667	0.152	0.039
-156.706	-166.859	-0.243	0.010
-155.691	793.263	0.069	0.189
-154.677	-200.000	0.034	-0.167
-153.662	-200.000	-0.021	0.458
-152.647	-126.970	-0.354	-0.052
-151.633	167.820	0.203	0.287
-150.618	69.643	0.108	-0.110
-149.604	11.565	-0.100	0.077
-148.589	-67.692	0.103	0.040
-147.574	-67.167	-0.091	0.036
-146.560	-14.555	-0.248	-0.159
-145.545	-105.650	0.176	0.040
-144.531	800.000	0.075	0.269
-143.516	-200.000	-0.091	0.466
-142.502	800.000	0.068	-0.241
-141.487	-200.000	-0.038	0.262
-140.472	89.637	0.136	-0.152
-139.458	-69.402	0.367	0.140
-138.443	-200.000	-0.014	0.205
-137.429	362.737	0.134	-0.269
-136.414	-4.524	-0.069	-0.047
-135.399	800.000	0.078	0.271
-134.385	800.000	0.042	0.147
-133.370	-37.559	0.143	0.076
-132.356	-200.000	0.024	0.191
-131.341	-200.000	-0.048	-0.272
-130.326	-128.463	-0.168	-0.024
-129.312	-5.982	-0.126	-0.086
-128.297	-6.643	-0.107	0.073
-127.283	178.704	0.052	0.076
-126.268	-123.722	0.314	-0.049
-125.253	35.007	0.165	0.144
-124.239	665.417	0.110	0.283
-123.224	-22.986	0.196	0.118
-122.210	69.268	0.056	-0.057
-121.195	50.539	0.203	-0.191
-120.180	800.000	-0.028	0.102
-119.166	800.000	-0.055	0.160
-118.151	354.814	0.155	0.307
-117.137	800.000	-0.035	0.117
-116.122	89.622	-0.195	-0.217
-115.107	-34.598	-0.100	-0.054
-114.093	-3.895	0.112	-0.077
-113.078	-23.684	0.129	-0.077
-112.064	21.102	-0.360	0.291
-111.049	-200.000	-0.008	0.502
-110.034	13.090	0.015	-0.012
-109.020	49.465	0.071	-0.067
-108.005	-133.505	-0.031	0.004
-106.991	706.740	-0.035	0.092
-105.976	-157.381	0.284	-0.017
-104.962	-200.000	0.004	-0.051
-103.947	618.724	0.031	0.077
-102.932	-200.000	-0.022	0.148
-101.918	-1.176	0.204	0.143
-100.903	-27.518	-0.175	0.101
-99.889	800.000	-0.045	0.131
-98.874	-129.605	-0.139	-0.019
-97.859	-200.000	-0.063	0.283
-96.845	260.075	0.180	0.309
-95.830	54.302	-0.108	0.103
-94.816	-62.524	-0.297	0.123
-93.801	-141.698	-0.328	-0.033
-92.786	-200.000	0.039	-0.235
-91.772	800.000	0.040	0.148
-90.757	63.947	-0.151	-0.151
-89.743	-200.000	0.070	-0.327
-88.728	-200.000	-0.004	-0.129
-87.713	-200.000	-0.008	0.177
-86.699	-112.279	0.510	-0.102
-85.684	100.524	0.158	0.182
-84.670	24.156	-0.129	0.106
-83.655	91.833	-0.240	0.268
-82.640	74.142	-0.130	0.135
-81.626	40.453	0.087	0.078
-80.611	800.000	-0.045	-0.126
-79.597	-40.209	0.291	0.151
-78.582	-200.000	0.025	0.292
-77.567	349.595	-0.063	-0.124
-76.553	-200.000	0.025	0.122
-75.538	-4.757	-0.038	0.026
-74.524	-85.717	-0.281	0.086
-73.509	497.097	-0.110	0.250
-72.494	-63.839	0.292	0.119
-71.480	83.047	0.219	0.237
-70.465	25.133	-0.059	0.049
-69.451	110.452	0.089	-0.106
-68.436	-200.000	0.020	-0.191
-67.422	-192.634	-0.197	0.002
-66.407	172.088	-0.195	-0.278
-65.392	177.362	0.055	-0.080
-64.378	-200.000	0.001	0.152
-63.363	-200.000	0.003	0.044
-62.349	321.948	0.112	0.212
-61.334	68.455	-0.801	-0.815
-60.319	800.000	0.154	0.648
-59.305	542.312	-0.323	-0.764
-58.290	261.136	0.415	0.713
-57.276	534.757	0.658	1.547
-56.261	-200.000	81.226	493.488
-55.246	557.403	1360.023	3252.109
-54.232	184.337	2593.158	3809.251
-53.217	114.492	2359.349	2850.427
-52.203	47.948	1970.209	1825.577
-51.188	42.328	1755.425	1582.331
-50.173	39.587	1709.430	1519.710
-49.159	53.692	1747.395	1663.500
-48.144	57.864	1765.746	1713.373
-47.130	42.215	1727.809	1556.313
-46.115	39.249	1713.806	1520.750
-45.100	39.070	1709.229	1515.245
-44.086	39.059	1706.815	1512.959
-43.071	39.114	1704.099	1510.917
-42.057	39.077	1701.078	1507.892
-41.042	38.924	1699.804	1505.534
-40.027	39.002	1697.415	1503.954
-39.013	39.024	1695.336	1502.222
-37.998	38.941	1693.602	1499.988
-36.984	39.062	1692.288	1499.694
-35.969	39.192	1690.521	1499.060
-34.954	39.301	1688.906	1498.397
-33.940	39.203	1687.101	1495.988
-32.925	39.116	1685.431	1493.783
-31.911	39.110	1683.285	1491.779
-30.896	39.110	1681.757	1490.370
-29.881	39.165	1679.869	1489.052
-28.867	39.158	1678.204	1487.464
-27.852	39.173	1677.084	1486.524
-26.838	39.094	1675.698	1484.640
-25.823	39.181	1673.858	1483.606
-24.809	39.207	1672.734	1482.751
-23.794	39.147	1670.940	1480.649
-22.779	39.227	1669.521	1479.935
-21.765	39.199	1667.986	1478.308
-20.750	39.138	1666.343	1476.334
-19.736	39.206	1665.086	1475.666
-18.721	39.194	1663.519	1474.132
-17.706	39.194	1661.743	1472.500
-16.692	39.234	1660.338	1471.494
-15.677	39.197	1658.536	1469.567
-14.663	39.240	1657.203	1468.647
-13.648	39.154	1656.051	1466.925
-12.633	39.172	1654.174	1465.339
-11.619	39.216	1652.322	1463.968
-10.604	39.195	1650.963	1462.547
-9.590	39.039	1650.117	1460.578
-8.575	39.151	1648.767	1460.161
-7.560	39.176	1647.389	1459.068
-6.546	39.258	1646.166	1458.535
-5.531	39.192	1644.830	1456.807
-4.517	39.122	1643.699	1455.228
-3.502	39.132	1642.469	1454.150
-2.487	39.216	1640.378	1452.863
-1.473	38.865	1629.652	1440.733
-0.458	35.922	1608.096	1400.248
0.556	32.998	1606.088	1360.041
1.571	30.069	1629.857	1358.608
2.586	28.712	1643.448	1359.769
3.600	24.867	1587.683	1285.948
4.615	14.760	1472.195	1124.608
5.629	6.598	1402.757	1018.925
6.644	5.171	1393.819	1003.179
7.659	4.963	1391.821	1000.319
8.673	4.910	1391.004	999.300
9.688	4.946	1389.291	998.210
10.702	4.924	1387.145	996.442
11.717	8.435	1393.884	1023.720
12.731	17.205	1410.862	1092.741
13.746	22.114	1417.228	1129.208
14.761	21.097	1413.863	1119.905
15.775	19.940	1411.449	1110.472
16.790	18.820	1408.496	1100.880
17.804	18.024	1406.205	1093.896
18.819	17.639	1405.128	1090.498
19.834	17.350	1403.546	1087.325
20.848	17.126	1402.501	1084.988
21.863	16.925	1400.892	1082.364
22.877	16.789	1399.527	1080.351
23.892	16.828	1398.767	1079.914
24.907	16.765	1398.007	1078.830
25.921	16.750	1396.951	1077.828
26.936	16.743	1396.284	1077.169
27.950	16.868	1395.192	1077.028
28.965	16.833	1394.540	1076.209
29.980	16.948	1393.511	1076.047
30.994	17.104	1391.676	1075.523
32.009	17.059	1390.918	1074.560
33.023	17.079	1389.444	1073.448
34.038	17.017	1388.299	1072.081
35.053	16.947	1387.189	1070.684
36.067	16.998	1385.664	1069.738
37.082	16.883	1385.295	1068.629
38.096	16.964	1384.151	1068.165
39.111	16.949	1383.641	1067.579
40.126	17.002	1382.001	1066.555
41.140	16.751	1381.014	1064.120
42.155	16.670	1380.606	1063.207
43.169	16.699	1380.628	1063.311
44.184	16.687	1380.267	1062.861
45.199	16.539	1379.954	1061.598
46.213	16.702	1379.381	1062.084
47.228	16.748	1378.623	1061.695
48.242	16.825	1377.272	1061.043
49.257	17.022	1375.485	1060.807
50.271	16.894	1374.287	1058.987
51.286	16.881	1373.125	1057.919
52.301	16.881	1371.440	1056.529
53.315	16.787	1370.712	1055.286
54.330	16.752	1369.507	1054.049
55.344	16.599	1368.355	1052.115
56.359	16.749	1367.195	1052.063
57.374	16.702	1366.346	1051.025
58.388	16.625	1365.402	1049.731
59.403	16.542	1365.487	1049.187
60.417	16.539	1364.303	1048.167
61.432	16.616	1363.587	1048.001
62.447	16.596	1362.378	1046.855
63.461	16.429	1361.382	1044.963
64.476	16.525	1360.339	1044.663
65.490	16.423	1359.032	1042.935
66.505	16.535	1356.823	1041.842
67.520	16.651	1355.711	1041.605
68.534	16.531	1355.084	1040.295
69.549	16.641	1353.597	1039.737
70.563	16.519	1352.918	1038.373
71.578	16.397	1352.045	1036.864
72.593	16.366	1350.920	1035.719
73.607	16.331	1350.317	1034.953
74.622	16.324	1349.477	1034.172
75.636	16.386	1348.763	1033.915
76.651	16.418	1347.640	1033.157
77.666	16.393	1347.462	1032.779
78.680	16.444	1347.183	1032.785
79.695	16.519	1345.550	1031.895
80.709	16.536	1345.284	1031.705
81.724	16.544	1344.772	1031.273
82.739	16.623	1343.939	1031.021
83.753	16.739	1342.698	1030.682
84.768	16.817	1341.879	1030.439
85.782	16.936	1340.998	1030.396
86.797	16.871	1339.415	1028.691
87.812	16.866	1338.144	1027.593
88.826	16.896	1336.593	1026.495
89.841	16.919	1335.636	1025.808
90.855	16.938	1334.919	1025.285
91.870	16.987	1334.014	1024.791
92.884	17.039	1332.965	1024.206
93.899	17.003	1332.205	1023.320
94.914	17.085	1331.602	1023.259
95.928	17.023	1330.668	1022.077
96.943	17.004	1329.968	1021.331
97.957	17.021	1328.523	1020.235
98.972	16.974	1327.674	1019.212
99.987	16.958	1326.966	1018.483
101.001	16.848	1325.994	1016.985
102.016	16.940	1324.690	1016.448
103.030	16.964	1324.013	1015.980
104.045	16.966	1322.997	1015.126
105.060	16.903	1321.206	1013.284
106.074	16.791	1320.052	1011.640
107.089	16.598	1318.306	1009.059
108.103	16.548	1316.946	1007.634
109.118	16.580	1315.895	1006.933
110.133	16.565	1314.595	1005.755
111.147	16.578	1313.570	1004.959
112.162	16.621	1312.165	1004.051
113.176	16.596	1311.649	1003.423
114.191	16.704	1310.676	1003.228
115.206	16.696	1309.332	1002.063
116.220	16.656	1307.689	1000.481
117.235	16.654	1306.732	999.648
118.249	16.728	1305.215	998.837
119.264	16.672	1304.063	997.537
120.279	16.571	1302.996	996.034
121.293	16.549	1302.308	995.295
122.308	16.386	1301.272	993.458
123.322	16.489	1300.185	993.140
124.337	16.511	1299.174	992.410
125.352	16.440	1298.022	991.027
126.366	16.481	1296.710	990.180
127.381	16.513	1295.398	989.278
128.395	16.580	1294.523	988.910
129.410	16.526	1293.931	988.057
130.424	16.553	1292.960	987.383
131.439	16.673	1291.748	987.074
132.454	16.726	1290.581	986.404
133.468	16.834	1289.626	986.211
134.483	16.717	1289.907	985.660
135.497	16.678	1288.866	984.552
136.512	16.795	1286.855	983.605
137.527	16.698	1286.161	982.424
138.541	16.653	1284.201	980.578
139.556	16.845	1282.745	980.496
140.570	16.820	1282.253	979.887
141.585	17.112	1280.303	979.996
142.600	16.945	1279.954	978.675
143.614	17.041	1278.869	978.313
144.629	17.116	1277.595	977.687
145.643	17.033	1276.625	976.376
146.658	16.888	1275.226	974.388
147.673	16.961	1273.643	973.512
148.687	16.824	1272.463	971.738
149.702	16.786	1271.279	970.532
150.716	16.730	1269.851	969.036
151.731	16.714	1268.743	968.010
152.746	16.832	1267.378	967.560
153.760	16.789	1266.570	966.608
154.775	16.864	1265.329	966.004
155.789	16.948	1264.313	965.624
156.804	16.971	1263.292	964.886
157.819	16.906	1262.063	963.498
158.833	17.066	1261.712	964.052
159.848	17.086	1260.539	963.182
160.862	17.026	1259.726	962.135
161.877	16.998	1258.015	960.586
162.892	16.717	1257.187	958.278
163.906	16.815	1256.459	958.192
164.921	16.835	1255.193	957.256
165.935	16.827	1254.663	956.720
166.950	16.880	1254.052	956.472
167.964	16.951	1253.092	956.053
168.979	16.930	1252.319	955.261
169.994	17.016	1251.566	955.084
171.008	16.879	1250.663	953.540
172.023	17.118	1249.570	953.969
173.037	17.143	1249.014	953.598
174.052	17.088	1248.088	952.498
175.067	16.939	1247.017	950.763
176.081	16.929	1246.445	950.186
177.096	16.890	1244.693	948.546
178.110	16.966	1243.687	948.124
179.125	16.979	1242.767	947.412
180.140	17.013	1241.136	946.272
181.154	17.026	1240.165	945.522
182.169	17.062	1239.292	944.969
183.183	17.094	1238.228	944.254
184.198	17.218	1236.251	943.351
185.213	17.244	1235.522	942.855
186.227	17.317	1234.576	942.455
187.242	17.300	1233.317	941.318
188.256	17.251	1232.939	940.675
189.271	17.306	1231.528	939.820
190.286	17.189	1229.999	937.925
191.300	16.986	1229.323	936.205
192.315	16.909	1228.563	935.121
193.329	16.950	1227.740	934.635
194.344	16.889	1227.717	934.196
195.359	16.969	1226.902	933.934
196.373	17.087	1226.343	934.077
197.388	17.118	1226.362	934.181
198.402	17.245	1225.696	934.287
199.417	17.472	1224.904	934.849
200.432	17.522	1224.369	934.629
201.446	17.535	1223.558	934.003
202.461	17.600	1222.673	933.600
203.475	17.566	1221.194	932.201
204.490	17.505	1219.729	930.665
205.504	17.443	1218.455	929.271
206.519	17.390	1217.216	927.958
207.534	17.271	1216.273	926.507
208.548	17.366	1215.000	925.972
209.563	17.363	1214.699	925.646
210.577	17.450	1213.584	925.186
211.592	17.433	1212.851	924.454
212.607	17.607	1211.930	924.613
213.621	17.528	1211.257	923.589
214.636	17.612	1209.801	922.854
215.650	17.557	1209.279	922.078
216.665	17.667	1208.297	921.841
217.680	17.762	1207.485	921.651
218.694	17.784	1206.442	920.895
219.709	17.751	1205.616	920.007
220.723	17.773	1204.861	919.468
221.738	17.707	1204.043	918.405
222.753	17.644	1203.637	917.673
223.767	17.738	1202.776	917.442
224.782	17.800	1202.625	917.578
225.796	17.963	1201.376	917.421
226.811	17.780	1201.146	916.181
227.826	17.767	1200.469	915.515
228.840	17.734	1199.608	914.598
229.855	17.770	1198.910	914.178
230.869	17.792	1197.629	913.239
231.884	17.757	1196.839	912.368
232.899	17.686	1196.073	911.327
233.913	17.608	1195.550	910.431
234.928	17.575	1194.596	909.447
235.942	17.636	1193.809	909.092
236.957	17.730	1192.641	908.624
237.972	17.698	1192.117	907.974
238.986	17.654	1191.764	907.391
240.001	17.650	1190.996	906.701
241.015	17.696	1190.152	906.226
242.030	17.757	1189.364	905.866
243.045	17.677	1188.933	905.037
244.059	17.819	1187.966	904.972
245.074	17.920	1186.939	904.645
246.088	17.815	1186.535	903.701
247.103	17.958	1185.402	903.513
248.117	17.981	1184.927	903.195
249.132	18.207	1184.054	903.640
250.147	18.300	1183.276	903.459
251.161	18.332	1182.955	903.302
252.176	18.441	1182.149	903.181
253.190	18.243	1181.631	901.664
254.205	18.433	1181.062	902.153
255.220	18.515	1180.331	901.947
256.234	18.401	1180.065	901.061
257.249	18.414	1179.260	900.436
258.263	18.518	1178.102	900.019
259.278	18.444	1177.571	899.146
260.293	18.439	1177.092	898.673
261.307	18.536	1176.797	898.878
262.322	18.623	1175.722	898.433
263.336	18.510	1175.312	897.447
264.351	18.653	1174.906	897.803
265.366	18.552	1174.244	896.693
266.380	18.622	1173.173	896.163
267.395	18.587	1172.473	895.362
268.409	18.619	1171.404	894.634
269.424	18.521	1170.823	893.599
270.439	18.522	1170.520	893.296
271.453	18.503	1169.665	892.465
272.468	18.474	1168.373	891.251
273.482	18.409	1167.720	890.334
274.497	18.425	1167.394	890.091
275.512	18.526	1166.368	889.754
276.526	18.507	1165.780	889.127
277.541	18.480	1165.134	888.417
278.555	18.465	1164.540	887.807
279.570	18.705	1163.532	888.204
280.585	18.752	1163.133	888.061
281.599	18.700	1161.837	886.727
282.614	18.675	1160.711	885.659
283.628	18.660	1159.699	884.729
284.643	18.481	1158.879	883.108
285.657	18.605	1157.803	882.847
286.672	18.603	1156.994	882.142
287.687	18.656	1156.508	881.966
288.701	18.670	1155.482	881.174
289.716	18.734	1154.643	880.789
290.730	18.593	1154.154	879.613
291.745	18.778	1153.188	879.746
292.760	18.710	1152.880	879.084
293.774	18.716	1152.167	878.492
294.789	18.890	1151.282	878.632
295.803	18.937	1150.583	878.261
296.818	18.869	1149.847	877.273
297.833	18.836	1149.068	876.432
298.847	18.822	1147.938	875.424
299.862	18.872	1147.531	875.290
300.876	18.938	1146.970	875.119
301.891	18.919	1146.526	874.606
302.906	19.034	1145.512	874.342
303.920	19.029	1145.058	873.891
304.935	19.175	1144.001	873.747
305.949	19.291	1143.172	873.628
306.964	19.194	1142.631	872.644
307.979	19.178	1142.066	872.052
308.993	19.022	1141.781	870.968
310.008	19.080	1140.788	870.429
311.022	19.214	1139.698	870.198
312.037	19.286	1138.840	869.825
313.052	19.055	1137.992	867.939
314.066	19.064	1137.042	867.181
315.081	19.007	1135.861	865.917
316.095	18.939	1135.921	865.545
317.110	18.925	1134.779	864.526
318.125	18.968	1133.808	863.924
319.139	19.000	1133.400	863.702
320.154	19.030	1132.306	862.943
321.168	19.022	1131.701	862.363
322.183	18.923	1131.533	861.660
323.197	19.113	1130.629	861.850
324.212	19.067	1130.490	861.438
325.227	19.042	1129.448	860.440
326.241	19.101	1128.808	860.172
327.256	19.046	1128.176	859.340
328.270	19.070	1127.194	858.636
329.285	19.086	1125.992	857.723
330.300	19.023	1125.142	856.685
331.314	19.075	1124.163	856.122
332.329	19.100	1123.149	855.401
333.343	19.134	1122.233	854.796
334.358	19.217	1121.405	854.500
335.373	19.349	1120.781	854.607
336.387	19.284	1120.083	853.674
337.402	19.285	1119.217	852.947
338.416	19.341	1119.085	853.045
339.431	19.452	1118.177	852.825
340.446	19.383	1117.696	852.042
341.460	19.489	1117.365	852.238
342.475	19.573	1115.924	851.477
343.489	19.632	1115.382	851.281
344.504	19.567	1114.524	850.232
345.519	19.586	1113.624	849.561
346.533	19.677	1112.806	849.310
347.548	19.601	1112.043	848.278
348.562	19.749	1110.948	848.095
349.577	19.598	1109.969	846.534
350.592	19.525	1109.550	845.779
351.606	19.415	1108.551	844.407
352.621	19.448	1107.716	843.856
353.635	19.384	1107.193	843.070
354.650	19.534	1106.264	843.022
355.665	19.506	1105.520	842.244
356.679	19.519	1105.192	841.984
357.694	19.547	1104.648	841.628
358.708	19.703	1104.217	841.987
359.723	19.620	1103.510	840.971
360.738	19.613	1102.901	840.396
361.752	19.720	1101.953	840.118
362.767	19.682	1101.096	839.205
363.781	19.682	1101.080	839.120
364.796	19.811	1100.442	839.187
365.810	19.949	1099.761	839.262
366.825	19.944	1098.929	838.529
367.840	20.030	1098.911	838.860
368.854	19.998	1098.404	838.243
369.869	19.983	1097.456	837.371
370.883	19.999	1096.237	836.446
371.898	20.011	1095.494	835.862
372.913	20.022	1094.715	835.247
373.927	19.989	1094.464	834.820
374.942	19.998	1094.197	834.586
375.956	19.935	1093.839	833.937
376.971	20.049	1092.766	833.594
377.986	20.175	1091.956	833.506
379.000	20.129	1091.754	833.057
380.015	20.220	1091.211	833.008
381.029	20.244	1090.678	832.643
382.044	20.282	1089.723	832.020
383.059	20.260	1088.876	831.195
384.073	20.159	1088.169	830.099
385.088	20.320	1087.304	830.137
386.102	20.289	1086.296	829.147
387.117	20.186	1085.166	827.715
388.132	20.058	1084.316	826.383
389.146	20.159	1083.401	826.097
390.161	20.092	1082.608	825.098
391.175	20.192	1081.988	825.031
392.190	20.097	1081.520	824.148
393.205	20.290	1080.582	824.276
394.219	20.334	1079.663	823.714
395.234	20.297	1078.962	822.929
396.248	20.196	1077.765	821.467
397.263	20.149	1077.322	820.833
398.278	20.071	1076.373	819.667
399.292	20.031	1075.608	818.822
400.307	20.091	1074.717	818.358
401.321	20.088	1073.940	817.675
402.336	20.120	1073.433	817.370
403.350	20.191	1072.411	816.852
404.365	20.317	1071.813	816.920
405.380	20.132	1071.268	815.562
406.394	20.296	1070.591	815.745
407.409	20.344	1070.050	815.486
408.423	20.377	1069.545	815.184
409.438	20.427	1068.806	814.781
410.453	20.590	1067.807	814.714
411.467	20.613	1066.984	814.121
412.482	20.633	1066.525	813.793
413.496	20.622	1065.725	813.059
414.511	20.667	1065.299	812.873
415.526	20.801	1064.995	813.195
416.540	20.805	1064.433	812.708
417.555	20.694	1064.263	811.992
418.569	20.706	1063.368	811.294
419.584	20.693	1063.133	810.983
420.599	20.762	1062.231	810.544
421.613	146.087	1393.943	1761.784
422.628	134.400	1442.283	1761.888
