DTS Sentinel unit serial number:	SN413079Multiplexer serial number:	ORYXHardware model number:	OX4-SRSoftware version number:	ORYX F/W v4.00 Oryx Data Collector v3.7.2.0data status	okinstallation	princeton_trtdifferential loss correction	single-endedforward channel	channel 2reverse channel	N/Adate	2019/09/14time	14:35:35forward acquisition time	60.00reverse acquisition time	0.00gamma	496.2192k internal	0.2300k external	0.2300temperature offset calibration	1.0143default loss term (dB/km)	0.3790temperature slope calibration	1.0000multiplexer offset coefficient	1.0000multiplexer slope coefficient	1.0000fibre end	0.00T internal ref (°C)	39.20T ext. ref 1 (°C)	5.02T ext. ref 2 (°C)	35.33length (m)	temperature (°C)	Stokes	anti-Stokes-747.200	196.880	0.270	0.420
-746.185	-101.637	-0.380	0.094
-745.171	800.000	0.055	-0.233
-744.156	10.239	-0.042	0.033
-743.142	149.731	0.166	-0.229
-742.127	191.367	-0.104	0.160
-741.112	-64.372	0.315	0.131
-740.098	10.484	0.341	0.265
-739.083	475.958	-0.082	0.189
-738.069	67.956	-0.129	0.134
-737.054	-200.000	-0.027	0.229
-736.039	-75.536	-0.244	0.089
-735.025	81.981	0.347	0.383
-734.010	-200.000	0.009	-0.213
-732.996	162.057	-0.321	-0.458
-731.981	207.139	-0.131	-0.208
-730.966	-200.000	-0.004	0.165
-729.952	-200.000	0.019	-0.166
-728.937	24.590	0.194	-0.164
-727.923	-200.000	-0.001	-0.018
-726.908	-24.850	-0.035	-0.021
-725.894	-92.247	-0.110	-0.032
-724.879	-115.549	-0.227	-0.044
-723.864	-78.002	-0.234	-0.082
-722.850	800.000	0.111	0.359
-721.835	-200.000	0.046	0.413
-720.821	-87.722	0.126	0.039
-719.806	36.489	-0.119	0.107
-718.791	-49.575	-0.308	0.149
-717.777	800.000	0.047	0.205
-716.762	-200.000	-0.001	-0.011
-715.748	488.061	0.108	0.250
-714.733	465.120	-0.063	-0.144
-713.718	-63.089	-0.151	0.064
-712.704	15.140	-0.263	-0.210
-711.689	-200.000	0.002	-0.015
-710.675	-112.872	-0.108	-0.022
-709.660	153.241	-0.058	0.081
-708.645	-137.208	-0.170	-0.020
-707.631	135.672	0.051	-0.067
-706.616	33.786	-0.168	-0.149
-705.602	50.325	0.227	0.218
-704.587	800.000	-0.046	-0.155
-703.572	-92.193	-0.221	0.064
-702.558	117.511	-0.162	0.203
-701.543	-158.734	0.092	0.005
-700.529	353.062	0.202	0.407
-699.514	-35.496	0.029	-0.016
-698.499	-125.614	-0.237	-0.037
-697.485	2.111	0.151	0.111
-696.470	377.094	-0.177	0.368
-695.456	217.920	0.241	-0.392
-694.441	-51.939	0.139	-0.066
-693.426	-24.360	-0.275	0.167
-692.412	134.751	0.132	-0.175
-691.397	800.000	-0.109	-0.328
-690.383	50.259	-0.117	-0.113
-689.368	409.945	-0.120	-0.259
-688.354	-148.400	-0.096	-0.008
-687.339	-95.994	0.375	-0.102
-686.324	-51.575	-0.068	0.032
-685.310	-200.000	0.041	-0.195
-684.295	800.000	0.020	0.084
-683.281	156.071	0.104	-0.146
-682.266	77.170	-0.329	-0.356
-681.251	-157.755	0.218	-0.013
-680.237	150.870	-0.215	-0.298
-679.222	-61.483	-0.176	-0.075
-678.208	224.550	-0.201	-0.331
-677.193	800.000	-0.131	-0.410
-676.178	-162.386	-0.273	-0.014
-675.164	430.867	0.077	0.170
-674.149	576.384	0.029	-0.073
-673.135	-200.000	0.049	-0.273
-672.120	-16.060	-0.431	-0.279
-671.105	-39.041	-0.052	-0.028
-670.091	800.000	-0.106	0.336
-669.076	-67.599	-0.011	0.004
-668.062	800.000	-0.048	-0.145
-667.047	382.678	0.125	0.261
-666.032	-200.000	0.027	-0.227
-665.018	111.687	0.098	0.121
-664.003	-200.000	0.020	0.554
-662.989	-4.308	-0.231	-0.162
-661.974	12.973	0.173	-0.136
-660.959	-104.059	0.126	0.030
-659.945	-17.593	-0.153	0.098
-658.930	-86.958	0.165	0.051
-657.916	-131.802	0.089	-0.012
-656.901	-6.509	0.134	-0.093
-655.886	-119.109	-0.507	0.090
-654.872	-200.000	0.028	-0.166
-653.857	-70.332	0.171	0.066
-652.843	-200.000	-0.024	-0.110
-651.828	-88.714	-0.136	-0.041
-650.814	-165.991	-0.285	0.012
-649.799	128.100	-0.318	0.411
-648.784	-12.837	-0.221	0.146
-647.770	-200.000	-0.023	-0.175
-646.755	-72.849	-0.341	0.127
-645.741	88.991	0.117	-0.132
-644.726	800.000	-0.095	-0.272
-643.711	-154.483	-0.155	0.011
-642.697	790.124	-0.040	0.112
-641.682	102.206	0.118	-0.140
-640.668	-200.000	-0.003	-0.199
-639.653	-98.687	-0.145	-0.038
-638.638	150.837	-0.156	0.215
-637.624	297.257	0.067	-0.126
-636.609	-88.251	-0.495	0.150
-635.595	-2.162	0.080	-0.057
-634.580	104.046	0.042	-0.050
-633.565	311.391	-0.070	0.133
-632.551	443.032	-0.095	-0.212
-631.536	-57.348	0.314	-0.140
-630.522	-94.669	0.308	0.085
-629.507	-146.395	-0.021	-0.002
-628.492	-17.437	-0.171	0.109
-627.478	-17.499	-0.178	0.114
-626.463	-68.712	-0.192	0.076
-625.449	394.501	0.143	0.302
-624.434	51.549	0.079	0.076
-623.419	33.966	0.257	-0.227
-622.405	124.781	0.116	-0.148
-621.390	182.423	-0.188	-0.282
-620.376	-200.000	0.045	-0.266
-619.361	-5.659	-0.153	-0.107
-618.346	-61.512	-0.407	-0.174
-617.332	-21.003	0.143	-0.089
-616.317	800.000	-0.015	-0.059
-615.303	-38.816	0.286	0.153
-614.288	-176.623	0.426	-0.011
-613.273	-77.592	-0.398	0.140
-612.259	800.000	0.080	0.266
-611.244	800.000	0.052	0.157
-610.230	-200.000	-0.017	0.078
-609.215	80.340	-0.204	-0.223
-608.201	-49.627	0.157	0.076
-607.186	-136.070	0.256	-0.031
-606.171	-200.000	0.020	-0.126
-605.157	-200.000	0.033	0.187
-604.142	-15.081	-0.239	-0.155
-603.128	229.171	-0.146	-0.242
-602.113	7.648	-0.155	-0.118
-601.098	-200.000	0.004	0.344
-600.084	56.098	0.108	-0.106
-599.069	-25.165	-0.376	0.226
-598.055	66.840	0.122	-0.126
-597.040	83.622	-0.105	-0.116
-596.025	-153.905	0.277	0.019
-595.011	125.435	-0.157	-0.201
-593.996	-23.697	0.125	-0.076
-592.982	-50.241	0.222	0.107
-591.967	49.762	0.172	0.165
-590.952	-200.000	0.019	-0.268
-589.938	-92.171	-0.156	0.045
-588.923	-163.621	-0.233	0.011
-587.909	78.192	-0.237	-0.257
-586.894	-200.000	-0.024	-0.239
-585.879	364.668	-0.103	-0.211
-584.865	356.687	-0.072	0.146
-583.850	-200.000	-0.031	0.228
-582.836	-88.219	0.244	-0.074
-581.821	-32.548	-0.210	-0.118
-580.806	397.038	-0.045	0.095
-579.792	428.099	-0.145	0.317
-578.777	800.000	0.116	-0.366
-577.763	148.502	-0.246	0.337
-576.748	-131.452	-0.180	0.024
-575.733	307.038	0.056	-0.105
-574.719	-127.811	0.271	-0.040
-573.704	-40.070	-0.528	-0.279
-572.690	-112.106	-0.315	-0.064
-571.675	11.622	0.209	-0.163
-570.661	800.000	0.035	0.132
-569.646	67.145	-0.225	0.232
-568.631	179.146	0.039	0.058
-567.617	-115.716	0.211	-0.040
-566.602	-98.081	-0.178	0.046
-565.588	-121.355	0.359	-0.061
-564.573	-200.000	-0.014	0.087
-563.558	-174.275	-0.236	-0.007
-562.544	800.000	0.039	0.148
-561.529	589.248	-0.038	0.096
-560.515	206.710	-0.033	0.052
-559.500	-64.586	-0.037	-0.015
-558.485	-150.636	0.196	0.015
-557.471	-200.000	-0.032	0.150
-556.456	14.396	-0.224	-0.177
-555.442	-182.485	0.149	-0.003
-554.427	538.368	-0.099	0.239
-553.412	-200.000	0.016	0.115
-552.398	268.524	-0.126	0.223
-551.383	-103.541	-0.220	-0.052
-550.369	-92.059	0.256	-0.073
-549.354	-71.938	-0.357	-0.135
-548.339	-15.324	0.063	0.041
-547.325	-5.850	0.148	-0.102
-546.310	28.356	0.103	-0.088
-545.296	-131.169	0.238	-0.032
-544.281	-200.000	0.003	0.072
-543.266	-40.228	-0.107	0.057
-542.252	405.787	-0.048	-0.102
-541.237	-124.686	0.238	-0.037
-540.223	-58.579	-0.196	0.086
-539.208	-200.000	-0.018	0.134
-538.193	800.000	0.053	0.155
-537.179	-129.018	-0.075	0.011
-536.164	-50.366	0.252	-0.120
-535.150	-200.000	0.002	-0.057
-534.135	-200.000	0.040	-0.294
-533.121	-58.192	-0.344	-0.152
-532.106	29.942	-0.102	0.088
-531.091	-200.000	-0.020	0.239
-530.077	200.688	-0.158	-0.245
-529.062	28.670	-0.054	0.046
-528.048	-107.075	-0.144	0.032
-527.033	-42.846	-0.132	-0.068
-526.018	-22.592	0.064	0.039
-525.004	-23.273	0.158	0.096
-523.989	-86.789	-0.128	-0.040
-522.975	128.697	-0.053	0.068
-521.960	-6.079	0.017	0.011
-520.945	-126.098	-0.087	-0.013
-519.931	-93.343	-0.196	-0.055
-518.916	-136.655	-0.291	-0.034
-517.902	44.851	0.142	0.132
-516.887	800.000	-0.076	-0.276
-515.872	-73.191	0.105	-0.039
-514.858	800.000	0.059	-0.170
-513.843	-45.236	-0.161	-0.081
-512.829	-41.928	-0.118	-0.061
-511.814	313.400	0.212	-0.403
-510.799	362.990	0.151	0.307
-509.785	249.372	0.098	-0.168
-508.770	-12.421	0.022	-0.014
-507.756	800.000	0.073	-0.235
-506.741	-200.000	-0.007	-0.280
-505.726	177.699	-0.036	-0.053
-504.712	424.505	0.082	0.179
-503.697	432.378	-0.160	-0.351
-502.683	11.571	-0.056	0.043
-501.668	600.969	-0.132	0.330
-500.653	-200.000	-0.030	0.229
-499.639	800.000	-0.034	-0.101
-498.624	-200.000	0.008	-0.092
-497.610	-200.000	-0.034	0.280
-496.595	-200.000	0.005	0.105
-495.581	-106.439	0.437	0.099
-494.566	636.817	0.085	0.218
-493.551	294.901	0.195	-0.360
-492.537	800.000	0.027	-0.113
-491.522	-91.047	0.192	-0.056
-490.508	156.162	-0.157	-0.218
-489.493	-97.119	0.240	-0.063
-488.478	-100.479	-0.037	-0.009
-487.464	76.579	0.137	-0.147
-486.449	281.902	0.134	0.242
-485.435	606.719	-0.036	0.089
-484.420	-50.630	-0.123	-0.059
-483.405	-175.665	-0.197	0.005
-482.391	-120.059	-0.226	0.039
-481.376	278.423	0.266	0.479
-480.362	-200.000	0.017	0.461
-479.347	625.940	-0.145	-0.369
-478.332	-107.431	0.301	-0.067
-477.318	-0.497	-0.067	0.048
-476.303	53.407	0.102	-0.099
-475.289	800.000	0.055	0.163
-474.274	-142.581	0.064	-0.006
-473.259	-200.000	-0.002	-0.181
-472.245	568.847	-0.054	-0.132
-471.230	411.732	-0.052	-0.112
-470.216	800.000	0.012	0.043
-469.201	491.153	-0.074	-0.171
-468.186	105.703	-0.201	0.240
-467.172	-200.000	0.041	0.184
-466.157	-200.000	0.078	0.376
-465.143	-104.905	0.275	-0.064
-464.128	-72.979	-0.271	0.100
-463.113	800.000	-0.078	-0.271
-462.099	656.304	-0.085	-0.220
-461.084	800.000	-0.027	-0.087
-460.070	7.461	0.194	-0.147
-459.055	-47.056	0.220	-0.108
-458.040	800.000	0.040	-0.176
-457.026	800.000	0.083	0.292
-456.011	261.675	-0.141	-0.246
-454.997	-23.967	0.227	-0.137
-453.982	18.726	-0.024	-0.019
-452.968	100.864	0.186	0.219
-451.953	-137.924	0.093	-0.010
-450.938	48.284	-0.155	0.146
-449.924	-113.791	-0.060	0.012
-448.909	800.000	0.033	-0.096
-447.895	363.640	0.004	-0.008
-446.880	82.503	-0.196	-0.214
-445.865	-200.000	-0.019	-0.123
-444.851	230.329	0.062	0.102
-443.836	800.000	0.051	-0.144
-442.822	287.622	0.059	-0.108
-441.807	800.000	-0.034	-0.105
-440.792	38.973	0.237	0.213
-439.778	41.195	-0.074	0.068
-438.763	225.498	-0.102	0.166
-437.749	-76.417	0.263	-0.093
-436.734	800.000	0.073	-0.282
-435.719	334.169	-0.070	0.137
-434.705	230.426	0.196	0.323
-433.690	59.112	-0.186	0.185
-432.676	-97.360	0.136	-0.036
-431.661	-80.097	0.114	-0.039
-430.646	-98.957	0.125	0.032
-429.632	-200.000	-0.001	0.175
-428.617	800.000	-0.012	-0.051
-427.603	-92.736	0.293	0.083
-426.588	800.000	0.008	-0.033
-425.573	-84.242	0.090	-0.029
-424.559	800.000	-0.019	-0.080
-423.544	-200.000	0.067	-0.315
-422.530	-93.527	-0.469	0.131
-421.515	-19.151	0.334	0.209
-420.500	-121.335	0.255	-0.043
-419.486	-78.840	0.019	0.007
-418.471	623.769	0.124	-0.313
-417.457	-200.000	0.019	-0.334
-416.442	-77.132	0.281	-0.098
-415.428	-200.000	0.037	-0.224
-414.413	64.759	-0.108	-0.110
-413.398	-13.914	0.160	0.104
-412.384	800.000	-0.085	0.322
-411.369	9.218	0.232	-0.176
-410.355	-175.387	-0.171	-0.005
-409.340	-32.935	0.420	0.235
-408.325	454.227	0.190	0.424
-407.311	113.274	-0.047	-0.058
-406.296	0.531	0.095	-0.068
-405.282	-152.219	0.308	0.022
-404.267	-52.068	-0.122	0.057
-403.252	-200.000	0.051	-0.470
-402.238	24.013	-0.174	-0.145
-401.223	423.641	-0.110	-0.238
-400.209	3.052	-0.091	0.067
-399.194	-111.438	0.068	0.014
-398.179	-53.012	0.395	0.183
-397.165	602.001	-0.093	-0.233
-396.150	-94.029	0.055	0.015
-395.136	-25.039	0.280	-0.167
-394.121	-71.389	0.254	0.096
-393.106	-200.000	-0.050	0.297
-392.092	45.354	-0.155	0.144
-391.077	218.737	0.039	-0.063
-390.063	110.426	-0.107	-0.129
-389.048	77.036	-0.180	-0.192
-388.033	631.263	0.089	-0.227
-387.019	-81.790	0.172	0.057
-386.004	93.669	0.071	0.081
-384.990	250.897	-0.033	-0.056
-383.975	-17.753	-0.357	0.225
-382.960	800.000	0.071	-0.221
-381.946	219.342	0.046	0.074
-380.931	-139.895	0.189	0.020
-379.917	-53.157	0.144	0.067
-378.902	-2.034	-0.143	0.101
-377.888	-155.918	0.277	0.018
-376.873	-200.000	-0.025	-0.173
-375.858	-200.000	0.010	-0.072
-374.844	50.051	0.116	-0.110
-373.829	578.623	0.044	0.109
-372.815	162.135	-0.058	0.081
-371.800	13.127	-0.060	-0.047
-370.785	256.603	-0.092	0.159
-369.771	-170.984	-0.235	0.008
-368.756	61.957	0.157	-0.157
-367.742	-200.000	0.009	0.071
-366.727	-143.077	0.121	0.012
-365.712	-200.000	0.015	-0.081
-364.698	-52.864	0.129	0.060
-363.683	800.000	-0.061	-0.174
-362.669	-47.456	0.234	0.114
-361.654	-116.282	0.222	-0.041
-360.639	-200.000	0.019	-0.164
-359.625	-118.656	0.130	-0.023
-358.610	459.630	0.074	-0.165
-357.596	-200.000	-0.015	0.097
-356.581	141.182	0.003	0.004
-355.566	513.254	0.103	-0.241
-354.552	121.545	0.123	0.154
-353.537	-130.067	-0.063	-0.009
-352.523	9.448	-0.411	-0.312
-351.508	161.950	0.120	0.169
-350.493	-200.000	0.000	0.041
-349.479	-32.091	-0.138	-0.077
-348.464	75.483	0.169	0.179
-347.450	198.791	-0.150	0.230
-346.435	-96.379	-0.169	0.045
-345.420	14.077	0.019	0.015
-344.406	800.000	-0.056	-0.196
-343.391	-116.970	-0.271	0.050
-342.377	-200.000	-0.017	0.247
-341.362	-44.182	-0.211	-0.106
-340.348	-92.601	-0.135	0.038
-339.333	-200.000	0.033	-0.259
-338.318	605.951	0.030	0.074
-337.304	-0.110	0.128	-0.092
-336.289	800.000	-0.022	0.060
-335.275	-200.000	0.041	0.251
-334.260	-3.504	0.174	-0.122
-333.245	193.965	-0.051	-0.078
-332.231	-136.748	0.128	-0.015
-331.216	-123.870	-0.148	0.023
-330.202	-159.411	0.194	0.011
-329.187	-49.000	-0.288	0.139
-328.172	-4.922	-0.127	-0.088
-327.158	-191.457	0.179	0.002
-326.143	-200.000	0.004	0.112
-325.129	-119.751	-0.335	-0.058
-324.114	268.042	0.051	0.090
-323.099	-121.911	-0.551	0.091
-322.085	506.812	-0.198	-0.461
-321.070	659.842	-0.046	0.119
-320.056	105.496	0.066	0.078
-319.041	-107.772	-0.263	-0.058
-318.026	60.078	0.142	-0.140
-317.012	-48.543	0.060	-0.029
-315.997	237.871	0.177	0.295
-314.983	-89.952	-0.213	0.062
-313.968	-200.000	0.031	-0.163
-312.953	-101.619	-0.248	0.060
-311.939	-108.919	-0.220	-0.047
-310.924	463.372	0.144	0.323
-309.910	780.263	0.054	-0.149
-308.895	-122.156	-0.319	0.052
-307.880	65.079	-0.130	0.131
-306.866	53.173	-0.065	-0.062
-305.851	-200.000	-0.004	0.152
-304.837	350.382	-0.154	-0.304
-303.822	-53.521	0.139	0.064
-302.807	-54.165	-0.365	0.167
-301.793	-115.066	-0.295	-0.056
-300.778	-162.887	0.113	0.006
-299.764	-85.964	0.186	-0.058
-298.749	-200.000	0.010	-0.140
-297.735	-54.184	0.267	-0.122
-296.720	-200.000	-0.033	0.224
-295.705	11.790	-0.266	0.205
-294.691	-150.106	-0.080	0.006
-293.676	-200.000	-0.031	0.374
-292.662	145.838	-0.167	-0.224
-291.647	454.311	-0.156	0.346
-290.632	-0.115	0.095	0.068
-289.618	-200.000	0.005	-0.229
-288.603	574.199	-0.098	-0.239
-287.589	-30.571	0.077	-0.044
-286.574	169.990	0.144	0.206
-285.559	91.616	0.156	0.175
-284.545	-27.407	0.293	-0.170
-283.530	70.330	0.103	0.107
-282.516	-200.000	-0.025	-0.167
-281.501	-136.035	0.364	-0.043
-280.486	-80.234	-0.370	0.124
-279.472	-200.000	0.044	0.213
-278.457	704.710	-0.062	0.165
-277.443	-61.911	0.259	0.109
-276.428	800.000	0.065	0.242
-275.413	-141.559	0.301	-0.030
-274.399	-88.970	-0.455	0.135
-273.384	87.970	0.157	-0.174
-272.370	-200.000	0.016	-0.241
-271.355	-137.215	-0.263	0.030
-270.340	-167.445	-0.232	-0.009
-269.326	-50.496	-0.114	0.054
-268.311	177.258	-0.243	-0.354
-267.297	-200.000	-0.087	-0.453
-266.282	62.389	0.152	0.152
-265.267	17.722	0.055	0.044
-264.253	-31.176	0.223	0.126
-263.238	-126.013	0.246	-0.037
-262.224	735.976	-0.090	0.241
-261.209	92.884	-0.093	0.105
-260.195	15.371	-0.477	-0.375
-259.180	77.183	-0.085	0.090
-258.165	800.000	-0.122	0.363
-257.151	32.909	-0.153	-0.132
-256.136	-133.578	0.118	-0.015
-255.122	-131.321	0.212	0.028
-254.107	800.000	0.079	0.258
-253.092	-200.000	-0.069	0.334
-252.078	213.325	-0.119	0.189
-251.063	-64.413	-0.432	-0.176
-250.049	800.000	-0.024	-0.082
-249.034	-200.000	-0.008	0.202
-248.019	29.600	0.153	-0.130
-247.005	101.187	0.108	-0.126
-245.990	51.686	-0.098	0.093
-244.976	-50.738	-0.090	0.042
-243.961	78.574	0.041	-0.044
-242.946	143.094	0.082	0.110
-241.932	67.621	-0.273	-0.279
-240.917	163.213	-0.067	-0.094
-239.903	182.970	-0.162	-0.239
-238.888	-123.994	0.434	0.068
-237.873	-85.220	-0.127	0.040
-236.859	-119.879	0.240	0.041
-235.844	176.195	0.067	0.098
-234.830	-10.568	0.186	-0.123
-233.815	35.175	0.302	-0.264
-232.800	149.962	-0.087	-0.118
-231.786	294.817	-0.043	0.078
-230.771	-200.000	0.032	0.144
-229.757	-38.311	0.154	-0.081
-228.742	87.719	0.138	-0.153
-227.727	-123.713	0.324	0.051
-226.713	-200.000	-0.023	0.362
-225.698	28.453	-0.153	0.129
-224.684	181.238	-0.212	0.312
-223.669	-200.000	-0.024	-0.119
-222.655	-101.275	-0.192	0.047
-221.640	217.990	0.089	0.141
-220.625	-83.924	0.223	0.071
-219.611	-5.226	0.457	-0.314
-218.596	-142.005	0.316	-0.031
-217.582	-200.000	0.011	-0.207
-216.567	403.528	-0.023	-0.048
-215.552	23.293	0.017	-0.014
-214.538	123.521	-0.159	-0.200
-213.523	68.889	0.244	0.250
-212.509	-93.457	-0.123	0.034
-211.494	-71.414	0.400	-0.150
-210.479	24.210	-0.298	-0.246
-209.465	15.744	0.083	0.065
-208.450	-159.787	0.206	0.011
-207.436	156.114	-0.154	0.212
-206.421	-200.000	0.003	-0.062
-205.406	800.000	-0.097	0.290
-204.392	-26.311	-0.309	-0.181
-203.377	-173.010	0.418	-0.013
-202.363	129.265	-0.123	0.157
-201.348	57.647	0.263	0.257
-200.333	12.616	-0.228	0.176
-199.319	-95.808	-0.067	-0.018
-198.304	800.000	-0.149	0.477
-197.290	-54.560	-0.240	0.108
-196.275	117.986	-0.175	0.215
-195.260	17.411	0.131	-0.104
-194.246	100.058	0.122	-0.141
-193.231	258.238	0.114	0.195
-192.217	65.165	-0.165	-0.166
-191.202	-181.465	-0.184	0.004
-190.187	284.854	0.124	-0.224
-189.173	-172.921	0.188	0.006
-188.158	-200.000	-0.020	-0.217
-187.144	179.261	-0.064	0.093
-186.129	57.761	-0.119	-0.116
-185.114	2.865	-0.154	-0.111
-184.100	3.999	0.082	0.060
-183.085	147.897	-0.152	0.204
-182.071	-19.935	-0.061	0.037
-181.056	-200.000	-0.002	-0.110
-180.042	-0.310	0.263	0.187
-179.027	-200.000	0.002	0.263
-178.012	16.298	0.203	0.160
-176.998	-48.884	0.110	0.053
-175.983	800.000	0.044	0.161
-174.969	63.594	0.132	-0.132
-173.954	-77.839	-0.148	-0.051
-172.939	-13.086	0.246	-0.159
-171.925	276.502	0.005	0.009
-170.910	800.000	-0.026	0.094
-169.896	49.822	-0.168	0.157
-168.881	141.528	0.067	-0.088
-167.866	-163.104	0.240	-0.012
-166.852	-98.937	0.215	0.054
-165.837	800.000	-0.029	0.110
-164.823	86.333	0.125	-0.137
-163.808	276.330	-0.161	0.286
-162.793	90.744	-0.181	0.202
-161.779	800.000	0.034	-0.116
-160.764	197.415	-0.123	0.187
-159.750	584.203	-0.149	-0.364
-158.735	42.040	0.132	-0.120
-157.720	800.000	-0.063	0.232
-156.706	-135.064	0.303	0.036
-155.691	207.279	-0.080	0.124
-154.677	-189.319	0.263	-0.003
-153.662	800.000	-0.079	-0.271
-152.647	-200.000	-0.026	-0.203
-151.633	800.000	0.079	0.236
-150.618	44.099	0.245	0.224
-149.604	-200.000	0.021	-0.126
-148.589	112.534	0.095	-0.115
-147.574	629.632	0.066	0.167
-146.560	800.000	-0.095	-0.287
-145.545	84.230	-0.162	0.177
-144.531	122.661	-0.029	-0.036
-143.516	-26.709	0.099	-0.058
-142.502	-200.000	-0.034	0.212
-141.487	13.235	-0.033	0.025
-140.472	-76.705	0.195	0.068
-139.458	-200.000	-0.034	-0.336
-138.443	-101.199	-0.146	0.036
-137.429	-24.654	-0.150	-0.089
-136.414	-200.000	-0.005	-0.032
-135.399	33.227	0.181	0.156
-134.385	68.904	-0.134	-0.137
-133.370	-35.210	-0.096	-0.052
-132.356	-128.342	-0.056	0.008
-131.341	59.488	0.187	-0.183
-130.326	73.213	0.261	0.272
-129.312	-200.000	-0.018	0.163
-128.297	-200.000	0.007	-0.099
-127.283	9.089	-0.140	-0.105
-126.268	320.184	-0.048	0.090
-125.253	-0.943	0.241	-0.170
-124.239	203.105	-0.219	-0.336
-123.224	-130.958	0.376	0.050
-122.210	-44.345	-0.149	0.074
-121.195	-65.936	-0.264	-0.105
-120.180	15.152	0.154	-0.120
-119.166	-1.626	-0.159	0.111
-118.151	800.000	-0.016	0.048
-117.137	-120.995	0.329	0.055
-116.122	272.429	-0.192	-0.337
-115.107	-63.362	0.089	0.036
-114.093	-98.563	-0.264	0.067
-113.078	218.332	0.076	-0.120
-112.064	23.005	-0.313	0.256
-111.049	-58.865	-0.128	0.055
-110.034	68.360	-0.249	-0.253
-109.020	142.788	0.159	0.210
-108.005	9.477	0.008	0.006
-106.991	-122.466	0.158	-0.026
-105.976	-200.000	0.074	0.350
-104.962	-200.000	-0.068	-0.315
-103.947	-200.000	0.031	-0.315
-102.932	331.894	0.140	-0.269
-101.918	138.278	0.100	-0.131
-100.903	3.862	0.039	0.029
-99.889	62.855	0.195	0.194
-98.874	418.501	0.107	-0.227
-97.859	-35.225	0.071	0.039
-96.845	-200.000	0.028	0.259
-95.830	-200.000	-0.073	-0.380
-94.816	-67.002	0.557	-0.219
-93.801	-200.000	-0.050	-0.253
-92.786	35.014	0.020	0.018
-91.772	-113.519	0.146	0.028
-90.757	-138.371	0.282	-0.031
-89.743	12.053	0.269	0.206
-88.728	-126.552	0.252	-0.037
-87.713	117.080	-0.176	-0.215
-86.699	-200.000	0.022	0.238
-85.684	44.922	0.073	0.066
-84.670	800.000	0.019	-0.061
-83.655	-175.700	0.287	-0.008
-82.640	105.686	-0.119	-0.140
-81.626	394.982	0.047	0.097
-80.611	-200.000	-0.019	0.280
-79.597	-83.815	0.239	-0.076
-78.582	15.057	-0.206	-0.160
-77.567	110.328	0.210	0.251
-76.553	402.477	0.049	0.102
-75.538	-9.292	-0.156	0.103
-74.524	-81.831	-0.255	0.083
-73.509	351.283	0.148	-0.291
-72.494	-124.094	0.074	0.012
-71.480	720.200	-0.129	0.340
-70.465	800.000	-0.113	0.425
-69.451	-89.407	-0.235	-0.069
-68.436	592.406	0.050	0.122
-67.422	-136.521	0.081	0.009
-66.407	-200.000	-0.028	-0.201
-65.392	153.556	0.184	0.250
-64.378	-62.842	0.151	0.062
-63.363	42.954	-0.361	-0.327
-62.349	35.625	-0.007	-0.006
-61.334	31.928	-0.824	-0.705
-60.319	-200.000	-0.020	0.427
-59.305	800.000	0.247	-0.980
-58.290	575.745	0.356	0.863
-57.276	653.195	0.597	1.520
-56.261	-200.000	79.751	495.152
-55.246	550.505	1363.762	3247.501
-54.232	181.685	2602.863	3802.592
-53.217	114.560	2365.428	2860.817
-52.203	47.931	1972.931	1829.488
-51.188	42.369	1756.615	1585.057
-50.173	39.570	1710.500	1521.815
-49.159	53.690	1747.458	1664.939
-48.144	58.073	1765.667	1716.364
-47.130	42.219	1728.736	1558.490
-46.115	39.285	1714.121	1522.586
-45.100	39.045	1709.779	1516.816
-44.086	39.093	1707.296	1514.920
-43.071	39.079	1704.442	1512.225
-42.057	39.098	1702.162	1510.287
-41.042	39.027	1699.942	1507.713
-40.027	39.117	1697.728	1506.381
-39.013	39.080	1695.972	1504.475
-37.998	39.059	1694.293	1502.769
-36.984	39.043	1693.149	1501.570
-35.969	39.252	1690.779	1501.003
-34.954	39.311	1689.518	1500.276
-33.940	39.249	1687.797	1498.214
-32.925	39.268	1685.391	1496.160
-31.911	39.188	1684.043	1494.303
-30.896	39.242	1681.757	1492.621
-29.881	39.185	1680.376	1490.907
-28.867	39.244	1678.663	1489.769
-27.852	39.192	1677.471	1488.260
-26.838	39.166	1676.820	1487.428
-25.823	39.196	1674.925	1485.917
-24.809	39.279	1673.140	1484.903
-23.794	39.228	1672.096	1483.527
-22.779	39.255	1670.121	1481.924
-21.765	39.274	1668.619	1480.676
-20.750	39.140	1666.750	1477.952
-19.736	39.231	1665.048	1477.065
-18.721	39.220	1664.096	1476.076
-17.706	39.262	1662.290	1474.731
-16.692	39.177	1660.694	1472.620
-15.677	39.194	1659.430	1471.567
-14.663	39.191	1658.055	1470.271
-13.648	39.305	1656.033	1469.268
-12.633	39.136	1654.881	1466.926
-11.619	39.223	1653.217	1466.042
-10.604	39.166	1651.767	1464.278
-9.590	39.265	1650.113	1463.487
-8.575	39.237	1648.997	1462.229
-7.560	39.269	1647.610	1461.184
-6.546	39.218	1646.667	1459.905
-5.531	39.210	1645.733	1458.966
-4.517	39.170	1643.987	1457.063
-3.502	39.125	1643.047	1455.837
-2.487	39.250	1641.345	1455.196
-1.473	39.124	1630.183	1444.319
-0.458	36.574	1609.522	1407.422
0.556	33.859	1608.611	1369.348
1.571	31.082	1632.533	1369.241
2.586	29.743	1646.224	1370.680
3.600	25.537	1591.104	1294.460
4.615	15.157	1474.287	1129.684
5.629	6.535	1403.986	1020.133
6.644	5.148	1394.329	1004.108
7.659	5.096	1392.677	1002.495
8.673	4.944	1391.828	1000.817
9.688	4.892	1390.713	999.596
10.702	5.077	1387.643	998.483
11.717	8.509	1394.915	1025.678
12.731	17.590	1411.876	1096.777
13.746	22.354	1418.605	1132.650
14.761	21.086	1415.322	1121.780
15.775	20.008	1411.767	1111.947
16.790	18.948	1409.214	1103.038
17.804	18.079	1406.704	1095.410
18.819	17.616	1406.231	1091.982
19.834	17.424	1404.032	1088.947
20.848	17.175	1403.220	1086.627
21.863	16.972	1401.891	1084.204
22.877	16.898	1400.779	1082.776
23.892	16.897	1399.470	1081.661
24.907	16.745	1399.113	1080.324
25.921	16.767	1398.238	1079.692
26.936	16.838	1397.086	1079.161
27.950	16.882	1396.334	1078.760
28.965	16.819	1395.600	1077.699
29.980	16.984	1394.276	1077.629
30.994	17.096	1392.996	1077.258
32.009	17.206	1391.332	1076.573
33.023	17.077	1390.944	1075.359
34.038	17.110	1388.717	1073.746
35.053	17.036	1387.788	1072.469
36.067	17.038	1386.325	1071.255
37.082	17.029	1385.672	1070.597
38.096	17.055	1385.105	1070.233
39.111	17.069	1384.398	1069.680
40.126	16.906	1383.501	1067.865
41.140	16.813	1382.036	1066.056
42.155	16.653	1382.096	1064.997
43.169	16.645	1381.748	1064.589
44.184	16.646	1381.041	1063.956
45.199	16.638	1380.907	1063.707
46.213	16.801	1380.186	1064.079
47.228	16.821	1379.342	1063.462
48.242	16.950	1378.291	1063.365
49.257	16.944	1376.506	1061.855
50.271	17.005	1374.739	1060.780
51.286	16.962	1373.454	1059.424
52.301	16.986	1372.369	1058.648
53.315	16.786	1371.383	1056.545
54.330	16.732	1370.091	1055.120
55.344	16.803	1368.421	1054.182
56.359	16.819	1367.733	1053.655
57.374	16.854	1366.536	1052.859
58.388	16.588	1366.678	1051.224
59.403	16.616	1366.036	1050.810
60.417	16.587	1365.054	1049.779
61.432	16.737	1363.943	1049.763
62.447	16.575	1362.850	1047.826
63.461	16.491	1361.767	1046.382
64.476	16.489	1360.435	1045.253
65.490	16.503	1359.265	1044.346
66.505	16.518	1357.861	1043.271
67.520	16.644	1356.732	1043.090
68.534	16.611	1355.652	1041.960
69.549	16.657	1354.507	1041.274
70.563	16.561	1353.478	1039.796
71.578	16.511	1352.383	1038.559
72.593	16.511	1351.273	1037.614
73.607	16.404	1350.523	1036.290
74.622	16.340	1349.992	1035.399
75.636	16.391	1349.409	1035.170
76.651	16.483	1348.395	1034.869
77.666	16.526	1347.707	1034.511
78.680	16.482	1347.312	1033.846
79.695	16.457	1346.796	1033.203
80.709	16.651	1345.992	1033.685
81.724	16.622	1345.253	1032.847
82.739	16.758	1344.189	1032.766
83.753	16.859	1343.436	1032.715
84.768	16.896	1342.523	1032.143
85.782	17.042	1341.439	1032.106
86.797	16.968	1340.080	1030.519
87.812	16.929	1338.631	1029.077
88.826	16.839	1337.804	1027.806
89.841	16.977	1336.330	1027.417
90.855	16.955	1335.677	1026.693
91.870	16.992	1335.109	1026.387
92.884	17.140	1333.664	1026.084
93.899	16.977	1333.576	1024.941
94.914	17.150	1332.534	1025.089
95.928	17.066	1331.769	1023.908
96.943	17.091	1330.390	1022.904
97.957	16.983	1329.656	1021.597
98.972	17.041	1328.167	1020.714
99.987	17.042	1327.191	1019.879
101.001	16.960	1326.609	1018.850
102.016	17.034	1325.567	1018.405
103.030	16.993	1324.768	1017.455
104.045	16.983	1323.855	1016.601
105.060	16.854	1322.542	1014.732
106.074	16.754	1320.933	1012.809
107.089	16.568	1319.688	1010.657
108.103	16.540	1318.676	1009.625
109.118	16.559	1317.524	1008.764
110.133	16.661	1315.500	1007.733
111.147	16.667	1314.158	1006.651
112.162	16.685	1313.213	1005.943
113.176	16.711	1312.601	1005.546
114.191	16.799	1311.132	1004.848
115.206	16.722	1309.945	1003.396
116.220	16.726	1308.858	1002.498
117.235	16.726	1307.396	1001.290
118.249	16.657	1307.116	1000.578
119.264	16.601	1305.243	998.728
120.279	16.541	1304.748	997.902
121.293	16.579	1303.398	997.006
122.308	16.598	1302.116	996.049
123.322	16.521	1300.676	994.408
124.337	16.509	1300.029	993.755
125.352	16.509	1298.908	992.808
126.366	16.528	1298.059	992.185
127.381	16.508	1296.838	991.046
128.395	16.586	1295.506	990.400
129.410	16.594	1294.728	989.760
130.424	16.646	1293.776	989.251
131.439	16.673	1293.209	988.887
132.454	16.747	1292.034	988.333
133.468	16.791	1290.749	987.518
134.483	16.754	1290.289	986.865
135.497	16.716	1289.581	986.014
136.512	16.753	1288.216	985.100
137.527	16.881	1286.633	984.547
138.541	16.889	1285.623	983.734
139.556	16.884	1284.306	982.606
140.570	16.943	1283.144	981.971
141.585	16.971	1282.074	981.229
142.600	16.964	1281.391	980.581
143.614	17.169	1279.734	980.408
144.629	17.080	1278.670	978.995
145.643	17.113	1277.676	978.335
146.658	16.951	1276.574	976.472
147.673	16.887	1275.156	974.931
148.687	16.888	1273.666	973.713
149.702	16.813	1272.660	972.430
150.716	16.792	1271.102	971.030
151.731	16.820	1270.083	970.327
152.746	16.774	1269.028	969.173
153.760	16.766	1267.842	968.137
154.775	16.893	1266.723	967.921
155.789	16.991	1265.332	967.329
156.804	17.010	1264.223	966.506
157.819	17.057	1263.018	965.767
158.833	17.017	1262.308	964.912
159.848	17.170	1261.537	965.104
160.862	17.076	1260.710	963.853
161.877	16.943	1259.347	961.971
162.892	16.777	1258.259	960.113
163.906	16.835	1256.893	959.317
164.921	16.875	1255.952	958.736
165.935	16.914	1255.413	958.465
166.950	17.099	1254.368	958.623
167.964	17.006	1253.756	957.550
168.979	17.005	1253.014	956.889
169.994	16.935	1252.526	956.039
171.008	16.953	1252.022	955.670
172.023	17.071	1250.830	955.341
173.037	17.114	1250.315	955.104
174.052	17.194	1249.291	954.687
175.067	17.025	1248.021	952.686
176.081	16.941	1246.962	951.317
177.096	16.873	1246.325	950.370
178.110	17.049	1244.620	949.971
179.125	16.958	1243.910	948.831
180.140	17.005	1242.471	947.918
181.154	17.093	1241.516	947.594
182.169	17.163	1240.034	946.769
183.183	17.225	1239.279	946.456
184.198	17.272	1237.901	945.578
185.213	17.319	1236.674	944.822
186.227	17.197	1235.429	943.106
187.242	17.327	1234.618	943.124
188.256	17.419	1233.567	942.748
189.271	17.323	1233.015	941.712
190.286	17.212	1231.527	939.880
191.300	17.034	1230.255	937.839
192.315	16.880	1230.156	936.831
193.329	16.881	1229.669	936.386
194.344	16.967	1228.567	935.935
195.359	17.135	1227.928	936.294
196.373	17.245	1227.739	936.673
197.388	17.285	1227.495	936.624
198.402	17.436	1226.879	936.903
199.417	17.585	1225.776	936.794
200.432	17.726	1225.138	937.003
201.446	17.584	1224.479	935.635
202.461	17.527	1223.550	934.531
203.475	17.521	1222.681	933.749
204.490	17.612	1220.857	932.772
205.504	17.551	1219.488	931.312
206.519	17.493	1218.601	930.236
207.534	17.351	1217.389	928.448
208.548	17.426	1216.688	928.244
209.563	17.402	1216.105	927.587
210.577	17.488	1215.137	927.235
211.592	17.531	1214.215	926.679
212.607	17.602	1213.557	926.484
213.621	17.644	1212.796	926.051
214.636	17.546	1211.827	924.697
215.650	17.611	1210.633	924.053
216.665	17.586	1210.194	923.501
217.680	17.785	1209.224	923.759
218.694	17.766	1208.298	922.865
219.709	17.721	1207.565	921.982
220.723	17.808	1206.461	921.526
221.738	17.747	1205.707	920.542
222.753	17.727	1204.789	919.648
223.767	17.793	1204.284	919.536
224.782	17.883	1203.622	919.436
225.796	17.889	1203.343	919.175
226.811	17.902	1202.276	918.351
227.826	17.811	1201.694	917.331
228.840	17.719	1201.149	916.342
229.855	17.914	1199.709	916.212
230.869	17.901	1199.064	915.566
231.884	17.694	1198.463	913.917
232.899	17.818	1197.296	913.607
233.913	17.644	1196.878	912.279
234.928	17.671	1195.594	911.364
235.942	17.684	1194.959	910.867
236.957	17.708	1194.289	910.403
237.972	17.695	1193.754	909.847
238.986	17.829	1192.728	909.700
240.001	17.753	1192.314	908.895
241.015	17.716	1191.431	907.945
242.030	17.909	1190.276	908.015
243.045	17.903	1189.567	907.358
244.059	17.886	1189.163	906.879
245.074	17.897	1188.562	906.398
246.088	18.001	1187.516	906.074
247.103	18.013	1186.667	905.412
248.117	18.200	1186.023	905.832
249.132	18.182	1185.307	905.105
250.147	18.242	1185.247	905.299
251.161	18.410	1184.199	905.306
252.176	18.433	1183.377	904.720
253.190	18.377	1182.855	903.942
254.205	18.507	1182.407	904.209
255.220	18.490	1181.614	903.432
256.234	18.505	1180.968	902.938
257.249	18.491	1180.542	902.460
258.263	18.392	1179.927	901.387
259.278	18.409	1179.085	900.754
260.293	18.542	1178.490	900.915
261.307	18.496	1178.199	900.373
262.322	18.591	1177.339	900.133
263.336	18.622	1176.555	899.616
264.351	18.582	1176.095	898.977
265.366	18.580	1175.542	898.467
266.380	18.628	1174.603	897.919
267.395	18.660	1173.172	896.914
268.409	18.598	1172.852	896.268
269.424	18.620	1171.831	895.522
270.439	18.518	1171.463	894.628
271.453	18.513	1170.969	894.144
272.468	18.453	1169.540	892.665
273.482	18.551	1168.692	892.444
274.497	18.469	1168.445	891.751
275.512	18.472	1167.947	891.309
276.526	18.501	1167.127	890.753
277.541	18.517	1166.209	890.060
278.555	18.541	1165.881	889.854
279.570	18.733	1164.758	889.911
280.585	18.668	1164.295	889.142
281.599	18.763	1162.956	888.537
282.614	18.717	1161.952	887.451
283.628	18.685	1161.095	886.553
284.643	18.630	1160.273	885.565
285.657	18.660	1159.396	884.969
286.672	18.701	1158.115	884.127
287.687	18.685	1157.612	883.578
288.701	18.863	1156.361	883.464
289.716	18.792	1155.954	882.710
290.730	18.858	1154.976	882.222
291.745	18.872	1154.687	881.994
292.760	18.623	1154.580	880.560
293.774	18.826	1153.547	880.732
294.789	18.946	1152.929	880.800
295.803	19.052	1152.221	880.720
296.818	18.903	1151.328	879.198
297.833	18.789	1150.638	878.009
298.847	18.891	1149.642	877.695
299.862	18.913	1148.749	877.048
300.876	18.962	1148.650	877.145
301.891	18.971	1147.995	876.613
302.906	19.099	1146.786	876.266
303.920	19.029	1146.696	875.759
304.935	19.073	1145.739	875.177
305.949	19.194	1145.017	875.162
306.964	19.323	1144.059	875.006
307.979	19.192	1143.653	873.953
308.993	19.126	1142.869	872.943
310.008	19.113	1142.325	872.385
311.022	19.165	1141.602	872.021
312.037	19.250	1140.452	871.495
313.052	19.116	1139.345	869.894
314.066	19.071	1138.371	868.847
315.081	18.983	1137.610	867.745
316.095	19.031	1136.559	867.108
317.110	18.993	1135.870	866.311
318.125	19.076	1135.265	866.191
319.139	18.911	1134.479	864.685
320.154	19.122	1133.456	864.893
321.168	19.105	1133.219	864.549
322.183	19.038	1132.840	863.846
323.197	19.026	1132.529	863.470
324.212	19.043	1132.007	863.083
325.227	19.181	1131.453	863.277
326.241	19.245	1130.443	862.748
327.256	19.143	1129.426	861.387
328.270	19.146	1128.359	860.513
329.285	18.994	1128.074	859.458
330.300	19.244	1126.957	859.777
331.314	19.106	1125.905	858.211
332.329	19.233	1124.760	857.895
333.343	19.071	1124.086	856.499
334.358	19.179	1123.333	856.387
335.373	19.295	1122.713	856.417
336.387	19.378	1121.556	855.870
337.402	19.304	1120.974	854.981
338.416	19.378	1120.354	854.800
339.431	19.485	1119.729	854.777
340.446	19.520	1119.098	854.392
341.460	19.663	1118.429	854.515
342.475	19.644	1117.626	853.734
343.489	19.654	1116.596	852.919
344.504	19.732	1115.654	852.510
345.519	19.634	1114.860	851.343
346.533	19.795	1114.061	851.449
347.548	19.908	1113.113	851.207
348.562	19.725	1112.729	849.940
349.577	19.641	1112.027	848.916
350.592	19.522	1111.059	847.517
351.606	19.477	1110.117	846.501
352.621	19.440	1109.266	845.595
353.635	19.443	1108.940	845.288
354.650	19.528	1108.192	845.057
355.665	19.531	1107.391	844.387
356.679	19.631	1106.788	844.342
357.694	19.691	1106.233	844.137
358.708	19.673	1105.714	843.579
359.723	19.712	1104.923	843.089
360.738	19.685	1104.147	842.292
361.752	19.769	1103.382	842.043
362.767	19.795	1103.116	841.890
363.781	19.817	1102.079	841.131
364.796	19.819	1102.058	841.054
365.810	19.946	1101.574	841.228
366.825	20.032	1100.853	841.019
367.840	20.144	1100.587	841.284
368.854	20.140	1099.671	840.490
369.869	20.016	1099.337	839.562
370.883	20.101	1097.974	838.857
371.898	19.947	1097.306	837.528
372.913	20.021	1096.455	837.159
373.927	20.049	1096.189	837.019
374.942	20.104	1095.788	836.906
375.956	20.162	1095.057	836.551
376.971	20.224	1093.859	835.862
377.986	20.211	1093.602	835.530
379.000	20.370	1093.301	835.991
380.015	20.297	1092.900	835.257
381.029	20.433	1091.911	835.082
382.044	20.273	1091.779	834.140
383.059	20.376	1090.336	833.456
384.073	20.301	1089.766	832.585
385.088	20.412	1088.790	832.299
386.102	20.376	1087.823	831.313
387.117	20.322	1086.395	829.889
388.132	20.133	1085.795	828.457
389.146	20.083	1085.309	827.775
390.161	20.120	1084.328	827.130
391.175	20.187	1083.666	826.871
392.190	20.208	1083.257	826.583
393.205	20.447	1082.435	827.023
394.219	20.379	1081.115	825.619
395.234	20.278	1080.527	824.616
396.248	20.187	1079.676	823.463
397.263	20.262	1078.369	822.748
398.278	20.121	1077.942	821.682
399.292	20.154	1077.319	821.287
400.307	20.080	1076.414	820.176
401.321	20.214	1075.512	820.051
402.336	20.196	1074.965	819.474
403.350	20.192	1074.047	818.684
404.365	20.252	1073.174	818.228
405.380	20.283	1073.052	818.209
406.394	20.343	1072.070	817.669
407.409	20.481	1071.227	817.603
408.423	20.517	1070.559	817.192
409.438	20.585	1070.296	817.239
410.453	20.603	1069.482	816.630
411.467	20.601	1068.934	816.128
412.482	20.696	1067.827	815.659
413.496	20.691	1067.368	815.210
414.511	20.818	1067.013	815.464
415.526	20.844	1066.407	815.047
416.540	20.824	1066.193	814.718
417.555	20.755	1065.613	813.884
418.569	20.779	1065.139	813.560
419.584	20.832	1064.211	813.027
420.599	20.863	1063.880	812.848
421.613	144.686	1393.132	1755.022
422.628	133.151	1441.123	1755.137
