DTS Sentinel unit serial number:	SN413079Multiplexer serial number:	ORYXHardware model number:	OX4-SRSoftware version number:	ORYX F/W v4.00 Oryx Data Collector v3.7.2.0data status	okinstallation	princeton_trtdifferential loss correction	single-endedforward channel	channel 2reverse channel	N/Adate	2019/09/15time	03:51:35forward acquisition time	60.00reverse acquisition time	0.00gamma	496.2192k internal	0.2325k external	0.2325temperature offset calibration	1.0031default loss term (dB/km)	0.3790temperature slope calibration	1.0000multiplexer offset coefficient	1.0000multiplexer slope coefficient	1.0000fibre end	0.00T internal ref (°C)	30.94T ext. ref 1 (°C)	4.61T ext. ref 2 (°C)	25.87length (m)	temperature (°C)	Stokes	anti-Stokes-747.200	50.831	0.398	-0.380
-746.185	-101.876	-0.185	-0.045
-745.171	-200.000	0.004	0.377
-744.156	-200.000	0.010	0.235
-743.142	-200.000	-0.017	-0.181
-742.127	-16.621	-0.091	0.058
-741.112	-82.178	-0.051	0.017
-740.098	-200.000	0.012	0.267
-739.083	7.125	0.185	-0.139
-738.069	-163.226	0.155	-0.008
-737.054	-123.831	-0.263	0.042
-736.039	-63.488	-0.292	-0.121
-735.025	-100.513	0.280	0.070
-734.010	-42.423	-0.157	-0.081
-732.996	-61.896	-0.287	0.121
-731.981	800.000	-0.055	0.189
-730.966	-74.376	0.318	0.116
-729.952	307.645	0.189	-0.356
-728.937	-84.632	0.398	-0.126
-727.923	-63.932	-0.119	0.049
-726.908	-200.000	-0.040	0.187
-725.894	128.448	-0.114	-0.147
-724.879	-16.985	-0.057	-0.036
-723.864	800.000	-0.042	-0.128
-722.850	-20.930	-0.427	0.264
-721.835	800.000	0.025	-0.071
-720.821	-30.734	-0.097	0.056
-719.806	-167.108	-0.198	-0.008
-718.791	-179.212	0.232	-0.005
-717.777	94.876	0.067	-0.077
-716.762	55.050	-0.221	-0.215
-715.748	-200.000	0.023	-0.178
-714.733	233.085	-0.133	0.220
-713.718	14.289	0.241	0.189
-712.704	800.000	-0.032	-0.134
-711.689	-200.000	-0.029	-0.233
-710.675	800.000	-0.039	-0.123
-709.660	-200.000	-0.041	-0.204
-708.645	255.352	-0.033	0.057
-707.631	-41.809	-0.170	-0.088
-706.616	-26.546	0.061	0.036
-705.602	800.000	-0.027	-0.096
-704.587	160.642	-0.143	-0.201
-703.572	-200.000	0.047	-0.282
-702.558	-102.458	0.122	-0.030
-701.543	-177.106	-0.322	-0.008
-700.529	67.065	0.171	-0.176
-699.514	-99.903	-0.238	0.060
-698.499	239.545	-0.153	-0.257
-697.485	800.000	0.066	-0.196
-696.470	46.653	0.065	0.061
-695.456	-83.882	-0.163	-0.052
-694.441	-68.765	-0.128	0.050
-693.426	104.627	-0.111	-0.131
-692.412	-106.374	-0.314	0.071
-691.397	142.038	0.211	0.282
-690.383	-147.840	-0.122	-0.010
-689.368	326.406	-0.043	-0.083
-688.354	109.863	0.189	0.228
-687.339	-200.000	-0.038	0.288
-686.324	419.534	0.009	0.020
-685.310	800.000	-0.059	-0.237
-684.295	-72.629	0.159	0.059
-683.281	656.194	-0.067	-0.174
-682.266	-10.967	0.204	-0.135
-681.251	-163.444	-0.333	0.016
-680.237	644.017	-0.051	-0.131
-679.222	-179.992	-0.362	0.008
-678.208	-200.000	-0.040	-0.248
-677.193	636.346	0.122	-0.313
-676.178	508.506	-0.090	-0.211
-675.164	-116.377	-0.141	0.026
-674.149	458.605	0.022	-0.049
-673.135	-200.000	-0.004	0.125
-672.120	37.473	-0.111	-0.099
-671.105	-20.336	-0.088	-0.055
-670.091	-81.914	-0.101	0.033
-669.076	464.542	0.137	-0.308
-668.062	-130.856	0.037	0.005
-667.047	-28.112	0.273	0.159
-666.032	-200.000	-0.022	-0.133
-665.018	-123.149	0.298	-0.048
-664.003	-71.326	-0.171	-0.064
-662.989	6.461	-0.242	0.181
-661.974	800.000	-0.028	-0.082
-660.959	-94.570	-0.161	-0.044
-659.945	104.711	0.080	0.094
-658.930	411.030	-0.118	0.251
-657.916	385.187	0.123	0.254
-656.901	-12.483	-0.213	-0.140
-655.886	-62.364	-0.064	-0.027
-654.872	272.766	0.082	-0.146
-653.857	-61.111	0.060	-0.026
-652.843	7.393	-0.131	-0.098
-651.828	58.160	0.075	-0.074
-650.814	-123.591	0.426	0.068
-649.799	262.447	-0.106	-0.185
-648.784	-200.000	-0.033	0.252
-647.770	57.243	0.089	-0.087
-646.755	800.000	-0.018	0.073
-645.741	41.141	-0.013	-0.012
-644.726	74.016	0.058	-0.061
-643.711	684.059	-0.082	0.216
-642.697	197.990	0.191	-0.293
-641.682	-200.000	0.010	-0.176
-640.668	79.229	0.078	-0.084
-639.653	-83.331	-0.204	-0.066
-638.638	146.229	0.101	0.137
-637.624	800.000	-0.040	-0.171
-636.609	-47.824	0.159	0.077
-635.595	-200.000	0.031	0.206
-634.580	76.772	-0.159	-0.170
-633.565	46.544	-0.086	0.080
-632.551	-68.967	0.206	0.080
-631.536	-200.000	-0.045	-0.316
-630.522	355.491	-0.099	-0.198
-629.507	-14.619	-0.228	0.147
-628.492	-175.513	-0.286	-0.008
-627.478	-6.356	-0.100	-0.069
-626.463	800.000	-0.017	-0.056
-625.449	-100.172	0.060	-0.015
-624.434	276.049	0.029	-0.052
-623.419	437.156	0.050	-0.110
-622.405	-27.382	-0.291	-0.170
-621.390	-133.595	-0.149	-0.019
-620.376	24.042	-0.190	0.157
-619.361	666.958	-0.105	-0.274
-618.346	103.360	0.125	0.148
-617.332	144.302	-0.153	-0.206
-616.317	325.189	0.105	-0.201
-615.303	800.000	-0.085	-0.316
-614.288	-11.562	0.112	0.074
-613.273	231.978	0.088	0.145
-612.259	591.006	-0.068	-0.169
-611.244	14.597	0.194	0.152
-610.230	250.605	-0.089	-0.152
-609.215	-57.065	0.508	-0.225
-608.201	710.260	-0.130	0.344
-607.186	800.000	-0.035	-0.108
-606.171	32.764	0.217	0.189
-605.157	-200.000	0.007	-0.252
-604.142	91.649	-0.109	-0.123
-603.128	185.092	0.059	0.088
-602.113	-128.102	-0.364	-0.052
-601.098	99.404	-0.096	0.111
-600.084	-200.000	0.014	-0.085
-599.069	217.671	-0.129	0.206
-598.055	-149.187	0.409	-0.033
-597.040	53.383	0.083	-0.080
-596.025	6.347	-0.197	-0.147
-595.011	-117.616	0.316	0.057
-593.996	-184.295	-0.282	0.005
-592.982	-31.272	0.175	0.099
-591.967	441.057	-0.096	0.210
-590.952	800.000	-0.085	0.243
-589.938	-3.162	-0.189	0.132
-588.923	208.145	-0.092	0.145
-587.909	68.737	0.325	0.335
-586.894	-180.291	-0.444	0.009
-585.879	3.335	0.202	0.147
-584.865	308.725	-0.046	-0.086
-583.850	-5.642	-0.319	0.219
-582.836	800.000	0.054	-0.161
-581.821	-200.000	0.024	-0.130
-580.806	800.000	0.122	-0.343
-579.792	408.797	-0.067	0.142
-578.777	-146.960	0.150	-0.013
-577.763	-200.000	-0.013	0.207
-576.748	-200.000	0.017	-0.306
-575.733	-66.227	-0.153	-0.061
-574.719	603.261	0.087	0.218
-573.704	-200.000	0.055	0.401
-572.690	-49.816	0.176	0.084
-571.675	229.599	0.143	-0.234
-570.661	-54.023	0.197	0.090
-569.646	-45.215	0.290	0.144
-568.631	-50.770	-0.115	-0.054
-567.617	-33.666	-0.237	0.131
-566.602	-200.000	0.019	0.161
-565.588	247.645	0.030	0.050
-564.573	36.260	0.077	0.068
-563.558	-61.272	-0.192	-0.081
-562.544	113.321	-0.139	0.169
-561.529	-22.357	-0.093	0.056
-560.515	257.638	0.115	0.198
-559.500	218.382	0.118	-0.189
-558.485	68.173	0.037	0.037
-557.471	800.000	-0.070	-0.244
-556.456	60.964	-0.299	0.297
-555.442	-82.157	0.330	-0.108
-554.427	800.000	-0.082	-0.228
-553.412	-36.218	0.291	0.157
-552.398	-200.000	0.026	0.217
-551.383	800.000	0.063	0.272
-550.369	-3.603	0.132	-0.092
-549.354	-163.204	0.168	-0.008
-548.339	-167.120	-0.022	-0.001
-547.325	305.001	0.116	-0.216
-546.310	-19.798	-0.277	-0.171
-545.296	-113.601	0.244	-0.048
-544.281	324.843	-0.092	-0.175
-543.266	-104.787	0.357	0.082
-542.252	-133.186	-0.094	0.012
-541.237	-78.731	0.034	0.012
-540.223	-47.321	0.084	-0.041
-539.208	51.216	0.108	-0.103
-538.193	-200.000	0.028	0.212
-537.179	717.722	-0.032	0.085
-536.164	10.071	-0.217	-0.165
-535.150	-61.395	0.232	-0.098
-534.135	502.274	0.035	-0.081
-533.121	-161.532	-0.142	0.007
-532.106	59.496	-0.308	-0.304
-531.091	134.065	0.243	-0.316
-530.077	59.870	0.117	-0.116
-529.062	800.000	-0.031	0.125
-528.048	27.915	0.072	-0.061
-527.033	177.697	0.062	0.091
-526.018	-121.982	-0.182	0.030
-525.004	27.039	0.348	0.292
-523.989	-37.313	-0.080	0.043
-522.975	282.434	0.112	-0.200
-521.960	800.000	0.058	-0.163
-520.945	51.217	-0.109	0.103
-519.931	119.431	-0.092	-0.114
-518.916	-59.060	-0.080	-0.034
-517.902	589.112	-0.100	-0.246
-516.887	800.000	0.075	-0.217
-515.872	-134.453	0.246	0.030
-514.858	524.992	0.041	-0.096
-513.843	64.359	0.282	-0.284
-512.829	69.268	0.125	0.129
-511.814	-45.103	-0.593	-0.295
-510.799	-71.830	-0.190	-0.071
-509.785	-9.560	0.018	-0.012
-508.770	35.604	-0.134	-0.118
-507.756	-99.028	-0.239	-0.061
-506.741	-200.000	-0.000	0.198
-505.726	788.537	-0.139	0.381
-504.712	-132.025	0.336	-0.044
-503.697	-9.993	-0.285	-0.189
-502.683	-200.000	0.008	-0.041
-501.668	99.764	0.095	0.110
-500.653	-175.476	0.198	0.005
-499.639	800.000	-0.091	0.321
-498.624	-196.810	-0.172	-0.001
-497.610	204.133	-0.086	0.133
-496.595	66.428	0.106	0.108
-495.581	-200.000	-0.006	0.039
-494.566	800.000	0.055	-0.213
-493.551	147.902	-0.294	0.396
-492.537	800.000	0.122	0.356
-491.522	291.235	0.073	0.133
-490.508	800.000	-0.047	-0.200
-489.493	30.361	0.046	0.039
-488.478	75.697	0.172	0.181
-487.464	-76.213	-0.085	0.030
-486.449	800.000	0.081	-0.228
-485.435	31.166	-0.071	-0.061
-484.420	-40.832	0.219	-0.113
-483.405	-21.254	-0.228	-0.139
-482.391	37.264	0.134	0.118
-481.376	554.698	-0.149	0.357
-480.362	800.000	-0.035	0.107
-479.347	-134.998	0.431	-0.052
-478.332	198.494	0.047	-0.071
-477.318	193.009	0.100	0.150
-476.303	34.758	-0.367	0.321
-475.289	-70.521	-0.386	-0.146
-474.274	70.194	0.184	-0.189
-473.259	755.924	0.136	0.368
-472.245	466.350	-0.121	-0.271
-471.230	-74.955	-0.208	0.074
-470.216	-185.235	-0.112	-0.002
-469.201	-157.146	0.364	-0.022
-468.186	158.867	-0.157	0.217
-467.172	717.004	0.131	-0.346
-466.157	-55.200	-0.338	0.152
-465.143	-196.454	0.133	-0.001
-464.128	-88.294	-0.027	0.008
-463.113	-81.287	0.233	-0.077
-462.099	800.000	-0.026	0.101
-461.084	-20.051	0.223	-0.137
-460.070	-93.724	-0.114	0.031
-459.055	-49.759	0.231	-0.110
-458.040	4.332	0.101	0.074
-457.026	280.483	-0.114	0.203
-456.011	379.745	0.084	-0.172
-454.997	-17.720	0.233	0.146
-453.982	-82.890	-0.165	-0.053
-452.968	107.615	-0.276	-0.328
-451.953	-15.291	0.147	-0.094
-450.938	-118.364	0.090	-0.016
-449.924	-13.860	-0.156	0.101
-448.909	-145.190	0.105	-0.010
-447.895	-200.000	0.042	-0.194
-446.880	-60.149	0.306	0.130
-445.865	163.637	-0.126	0.177
-444.851	-130.880	-0.473	-0.063
-443.836	-18.125	0.061	0.038
-442.822	-9.145	-0.177	0.118
-441.807	-200.000	0.044	-0.203
-440.792	23.121	0.307	-0.251
-439.778	74.602	0.104	0.109
-438.763	-153.277	0.407	0.028
-437.749	571.011	0.097	-0.235
-436.734	35.130	0.194	-0.169
-435.719	148.412	-0.090	-0.120
-434.705	-26.079	0.157	-0.092
-433.690	-120.190	-0.285	0.049
-432.676	-171.706	0.186	-0.006
-431.661	614.982	-0.064	0.160
-430.646	-92.102	-0.086	-0.024
-429.632	-1.300	-0.306	0.215
-428.617	59.052	0.095	-0.093
-427.603	-93.409	0.379	0.105
-426.588	-200.000	-0.084	-0.476
-425.573	800.000	0.055	-0.194
-424.559	-81.755	-0.279	0.091
-423.544	-200.000	-0.032	0.311
-422.530	-49.088	-0.274	-0.131
-421.515	-143.930	-0.308	-0.029
-420.500	637.449	-0.095	0.240
-419.486	-7.851	0.115	0.078
-418.471	534.287	0.120	-0.284
-417.457	-56.559	0.346	-0.153
-416.442	-200.000	-0.039	0.242
-415.428	43.709	0.254	-0.232
-414.413	335.809	0.103	0.199
-413.398	57.488	0.060	0.058
-412.384	-97.329	-0.339	-0.088
-411.369	-200.000	0.012	0.276
-410.355	-200.000	-0.001	-0.047
-409.340	32.291	0.116	-0.099
-408.325	-200.000	-0.046	0.331
-407.311	-78.341	-0.264	-0.090
-406.296	-77.572	0.222	-0.077
-405.282	-112.436	-0.436	0.087
-404.267	-108.449	-0.136	0.029
-403.252	800.000	-0.073	-0.287
-402.238	40.148	0.032	-0.028
-401.223	-23.764	0.128	-0.076
-400.209	-9.755	-0.338	-0.224
-399.194	221.767	-0.234	-0.374
-398.179	-200.000	-0.008	-0.136
-397.165	615.310	0.109	0.272
-396.150	-99.192	0.138	0.035
-395.136	33.400	-0.198	0.171
-394.121	10.630	0.130	0.098
-393.106	-68.316	0.337	0.131
-392.092	216.568	-0.185	0.293
-391.077	-200.000	0.000	0.203
-390.063	43.063	-0.110	-0.100
-389.048	-73.134	0.235	0.086
-388.033	-149.442	0.081	-0.006
-387.019	-144.475	0.062	-0.006
-386.004	800.000	-0.093	-0.375
-384.990	83.723	0.100	-0.108
-383.975	800.000	-0.119	0.353
-382.960	-200.000	0.035	-0.381
-381.946	282.629	0.037	-0.067
-380.931	800.000	0.076	-0.303
-379.917	106.845	0.068	-0.081
-378.902	-93.679	-0.337	-0.093
-377.888	112.146	0.250	0.300
-376.873	800.000	0.033	0.121
-375.858	20.243	-0.050	0.040
-374.844	800.000	0.059	0.209
-373.829	-153.344	0.308	-0.021
-372.815	260.310	-0.060	-0.103
-371.800	-119.919	0.069	0.012
-370.785	-130.284	-0.149	0.020
-369.771	192.260	-0.042	-0.063
-368.756	-119.898	-0.146	0.025
-367.742	-68.419	0.204	-0.079
-366.727	22.978	-0.013	0.011
-365.712	490.079	0.044	0.101
-364.698	338.369	-0.075	-0.145
-363.683	-176.269	-0.303	-0.008
-362.669	711.890	0.042	0.112
-361.654	6.738	-0.250	-0.185
-360.639	-200.000	0.022	-0.143
-359.625	-27.129	0.077	-0.045
-358.610	15.144	0.225	-0.175
-357.596	-38.913	0.307	0.161
-356.581	371.046	0.068	-0.138
-355.566	-200.000	-0.053	0.260
-354.552	501.645	-0.157	-0.359
-353.537	17.718	-0.274	0.217
-352.523	800.000	-0.023	-0.066
-351.508	-200.000	0.035	0.197
-350.493	-78.922	-0.062	-0.021
-349.479	246.734	-0.124	-0.208
-348.464	-200.000	-0.002	0.019
-347.450	344.213	0.102	0.198
-346.435	-200.000	-0.001	0.037
-345.420	246.081	0.022	-0.037
-344.406	-113.368	-0.288	0.056
-343.391	-200.000	-0.001	0.145
-342.377	60.255	-0.161	-0.158
-341.362	800.000	-0.064	-0.212
-340.348	-200.000	0.035	-0.197
-339.333	-200.000	0.019	-0.082
-338.318	-72.514	0.234	0.086
-337.304	169.853	-0.175	0.249
-336.289	-72.608	-0.361	0.132
-335.275	134.800	-0.051	-0.065
-334.260	-200.000	0.018	0.140
-333.245	-85.132	-0.238	-0.074
-332.231	442.000	-0.132	0.288
-331.216	20.600	-0.248	0.199
-330.202	96.008	0.239	0.271
-329.187	475.828	-0.072	0.162
-328.172	584.876	-0.085	-0.207
-327.158	6.933	-0.126	0.093
-326.143	670.544	-0.070	-0.180
-325.129	519.422	0.009	0.022
-324.114	-200.000	-0.043	-0.233
-323.099	84.572	0.186	0.202
-322.085	-152.116	0.077	0.006
-321.070	403.749	0.121	-0.254
-320.056	-139.313	-0.082	-0.009
-319.041	45.441	0.186	0.171
-318.026	-200.000	-0.043	0.274
-317.012	-132.491	-0.216	-0.028
-315.997	-138.175	-0.242	0.027
-314.983	692.013	0.037	0.096
-313.968	130.242	0.134	0.171
-312.953	-48.457	0.183	-0.088
-311.939	-200.000	-0.046	-0.205
-310.924	178.150	0.172	-0.249
-309.910	-105.302	0.206	0.046
-308.895	-28.222	0.088	0.051
-307.880	180.297	-0.168	0.245
-306.866	97.132	0.136	0.155
-305.851	-135.278	0.208	-0.025
-304.837	-128.932	-0.122	0.017
-303.822	-200.000	-0.028	-0.163
-302.807	800.000	-0.038	0.157
-301.793	322.268	-0.063	-0.120
-300.778	800.000	0.083	-0.265
-299.764	161.630	0.153	-0.212
-298.749	57.187	0.153	0.148
-297.735	-114.275	-0.242	0.046
-296.720	-190.868	0.072	-0.001
-295.705	-155.532	0.205	0.013
-294.691	-140.320	0.408	0.042
-293.676	-157.557	-0.102	-0.006
-292.662	14.336	-0.216	-0.167
-291.647	570.560	-0.119	-0.287
-290.632	554.640	0.054	0.129
-289.618	766.710	0.093	0.251
-288.603	99.954	-0.116	0.134
-287.589	-200.000	-0.051	0.268
-286.574	-93.915	0.043	0.012
-285.559	-147.973	0.089	-0.007
-284.545	-20.758	-0.264	0.161
-283.530	130.200	-0.250	0.317
-282.516	-160.213	0.185	0.010
-281.501	-39.946	0.124	0.064
-280.486	-18.902	0.030	-0.018
-279.472	315.375	0.086	-0.162
-278.457	-200.000	-0.024	-0.316
-277.443	-200.000	0.014	-0.217
-276.428	-68.125	0.054	0.021
-275.413	-200.000	0.029	-0.190
-274.399	57.895	0.139	0.135
-273.384	95.383	0.130	-0.147
-272.370	-51.103	-0.339	0.157
-271.355	800.000	-0.088	0.371
-270.340	42.890	0.281	0.254
-269.326	-20.847	0.146	0.088
-268.311	165.601	0.200	0.280
-267.297	-128.345	-0.149	-0.021
-266.282	-200.000	-0.087	0.410
-265.267	800.000	-0.071	0.217
-264.253	90.107	0.023	0.025
-263.238	221.788	-0.094	-0.149
-262.224	-26.745	0.058	0.034
-261.209	413.921	0.058	-0.123
-260.195	-7.650	-0.317	-0.212
-259.180	-200.000	0.044	0.337
-258.165	-200.000	-0.010	0.292
-257.151	365.313	-0.051	0.102
-256.136	367.583	0.060	0.119
-255.122	-110.392	0.105	-0.022
-254.107	133.140	0.195	0.249
-253.092	-142.361	-0.285	-0.028
-252.078	-200.000	0.009	-0.090
-251.063	144.284	0.135	-0.178
-250.049	-200.000	-0.000	0.087
-249.034	800.000	-0.044	0.171
-248.019	253.296	-0.081	-0.138
-247.005	33.402	-0.108	0.093
-245.990	290.898	0.026	-0.047
-244.976	764.767	-0.197	-0.530
-243.961	-200.000	-0.017	-0.087
-242.946	183.220	0.114	-0.167
-241.932	690.872	0.129	-0.335
-240.917	-200.000	0.036	-0.426
-239.903	800.000	-0.061	-0.187
-238.888	140.926	-0.088	0.115
-237.873	-31.175	-0.193	0.107
-236.859	644.956	0.037	-0.092
-235.844	65.013	-0.223	0.223
-234.830	-159.171	0.345	-0.019
-233.815	745.533	-0.068	-0.180
-232.800	48.533	-0.189	0.175
-231.786	-161.730	0.364	0.018
-230.771	57.610	-0.187	-0.180
-229.757	800.000	0.037	0.107
-228.742	-200.000	-0.021	0.399
-227.727	313.601	0.064	-0.118
-226.713	598.917	-0.012	-0.028
-225.698	-200.000	0.002	-0.473
-224.684	151.990	-0.202	-0.273
-223.669	800.000	0.055	0.156
-222.655	-56.060	-0.407	0.179
-221.640	-200.000	0.019	-0.226
-220.625	98.412	0.091	0.103
-219.611	98.976	0.296	-0.338
-218.596	70.911	0.206	0.211
-217.582	53.127	-0.064	-0.061
-216.567	-76.568	-0.215	-0.075
-215.552	38.143	0.221	-0.194
-214.538	464.060	0.188	-0.416
-213.523	-44.267	-0.308	-0.152
-212.509	800.000	0.031	-0.104
-211.494	800.000	0.078	0.313
-210.479	-126.388	-0.390	0.057
-209.465	628.583	-0.119	-0.296
-208.450	-81.002	-0.240	0.078
-207.436	-200.000	0.028	0.225
-206.421	104.158	0.089	-0.104
-205.406	-200.000	0.001	0.009
-204.392	2.804	0.087	-0.063
-203.377	-26.435	0.265	-0.154
-202.363	-200.000	0.037	-0.229
-201.348	214.464	0.158	0.247
-200.333	-200.000	0.041	0.210
-199.319	328.118	0.075	0.141
-198.304	-58.493	0.235	0.101
-197.290	800.000	0.042	-0.152
-196.275	168.852	-0.129	-0.182
-195.260	520.437	-0.125	-0.289
-194.246	-92.033	-0.351	0.098
-193.231	-168.515	0.295	-0.011
-192.217	-23.340	0.137	0.082
-191.202	-148.015	0.137	0.011
-190.187	-35.506	0.165	0.089
-189.173	638.410	0.136	-0.341
-188.158	-6.848	-0.261	-0.175
-187.144	-58.576	0.148	-0.063
-186.129	1.396	0.183	0.130
-185.114	-200.000	-0.009	-0.102
-184.100	-200.000	-0.014	-0.243
-183.085	287.116	-0.196	0.349
-182.071	-79.730	-0.154	0.051
-181.056	211.935	0.018	-0.028
-180.042	69.827	0.256	-0.261
-179.027	-200.000	0.026	0.154
-178.012	-200.000	0.015	-0.145
-176.998	-81.296	-0.232	0.075
-175.983	-200.000	-0.018	0.293
-174.969	-54.262	-0.082	0.037
-173.954	-108.986	-0.112	-0.024
-172.939	16.888	0.084	-0.065
-171.925	-200.000	-0.006	0.121
-170.910	337.399	-0.025	0.048
-169.896	800.000	0.067	-0.260
-168.881	-200.000	0.033	0.210
-167.866	-95.945	0.448	0.118
-166.852	-56.771	-0.275	-0.120
-165.837	-60.407	-0.545	-0.229
-164.823	37.593	-0.138	-0.121
-163.808	-200.000	-0.062	0.325
-162.793	-119.071	0.146	-0.025
-161.779	-41.932	0.146	0.074
-160.764	-60.164	-0.230	0.097
-159.750	86.262	0.210	0.228
-158.735	-200.000	-0.005	0.176
-157.720	78.024	0.061	-0.065
-156.706	15.047	0.103	-0.079
-155.691	496.036	-0.115	0.261
-154.677	-181.164	0.060	0.001
-153.662	-150.933	0.192	-0.014
-152.647	800.000	0.146	0.407
-151.633	-200.000	-0.001	0.391
-150.618	-165.238	-0.328	-0.014
-149.604	511.570	-0.089	0.204
-148.589	99.428	-0.207	-0.236
-147.574	-29.098	-0.225	-0.127
-146.560	-55.459	0.167	0.074
-145.545	-200.000	0.022	-0.214
-144.531	-83.104	0.229	0.073
-143.516	402.258	0.025	0.051
-142.502	-200.000	-0.004	0.040
-141.487	-2.610	0.102	-0.070
-140.472	-20.062	0.045	0.027
-139.458	-200.000	0.004	-0.174
-138.443	-89.033	-0.260	0.076
-137.429	-147.668	0.382	0.032
-136.414	-111.189	-0.257	0.052
-135.399	42.829	0.243	0.218
-134.385	478.728	0.087	-0.193
-133.370	-111.396	0.215	-0.043
-132.356	214.689	0.254	0.396
-131.341	800.000	0.032	-0.133
-130.326	-102.640	0.189	-0.044
-129.312	-183.918	0.137	0.002
-128.297	172.409	-0.059	-0.083
-127.283	132.863	-0.095	0.121
-126.268	4.752	0.293	0.212
-125.253	-200.000	-0.004	0.258
-124.239	12.714	-0.082	-0.062
-123.224	-142.779	-0.215	0.021
-122.210	171.947	0.113	0.160
-121.195	-70.080	0.178	0.067
-120.180	256.459	0.185	0.313
-119.166	-200.000	0.010	0.228
-118.151	-126.966	0.333	-0.048
-117.137	704.651	-0.079	-0.204
-116.122	-7.261	-0.195	-0.130
-115.107	-123.158	-0.125	-0.020
-114.093	45.150	-0.245	-0.222
-113.078	36.333	-0.052	-0.045
-112.064	-74.717	0.239	-0.084
-111.049	712.420	-0.030	-0.077
-110.034	-131.053	0.254	0.033
-109.020	-112.132	-0.178	0.035
-108.005	19.342	-0.044	-0.035
-106.991	367.975	0.209	0.416
-105.976	-3.793	0.207	0.142
-104.962	154.833	0.109	-0.147
-103.947	-87.823	0.128	0.038
-102.932	-200.000	0.029	0.132
-101.918	-200.000	0.027	0.164
-100.903	111.075	-0.024	-0.028
-99.889	317.726	0.209	0.389
-98.874	30.820	0.126	-0.106
-97.859	81.822	0.199	-0.212
-96.845	-62.429	-0.114	-0.047
-95.830	800.000	0.068	-0.198
-94.816	-152.039	0.146	0.010
-93.801	-87.886	0.402	-0.119
-92.786	313.076	0.085	0.158
-91.772	-40.469	0.105	0.054
-90.757	309.693	-0.153	-0.281
-89.743	354.342	0.133	-0.259
-88.728	-200.000	-0.006	0.238
-87.713	-200.000	-0.009	0.167
-86.699	49.516	0.163	0.151
-85.684	-43.670	-0.181	0.090
-84.670	792.147	-0.089	0.241
-83.655	-200.000	0.009	-0.210
-82.640	41.302	-0.249	0.221
-81.626	-20.387	-0.156	0.094
-80.611	-144.767	-0.234	0.021
-79.597	-137.663	-0.094	0.010
-78.582	779.493	-0.021	-0.056
-77.567	-200.000	0.024	0.340
-76.553	-200.000	0.041	0.318
-75.538	46.352	-0.221	0.202
-74.524	-85.603	-0.049	0.015
-73.509	-200.000	-0.035	-0.261
-72.494	-56.932	0.106	-0.046
-71.480	330.327	0.029	0.055
-70.465	1.336	-0.226	0.159
-69.451	238.940	0.090	-0.147
-68.436	52.909	0.103	-0.096
-67.422	61.847	-0.332	0.325
-66.407	22.881	0.087	0.070
-65.392	-200.000	0.225	-0.001
-64.378	-23.728	-0.096	0.057
-63.363	-200.000	0.033	0.179
-62.349	66.535	0.113	0.113
-61.334	109.977	-0.887	-1.045
-60.319	129.430	0.544	0.683
-59.305	177.970	-0.541	-0.775
-58.290	297.262	0.576	1.038
-57.276	768.895	0.514	1.374
-56.261	-200.000	101.087	594.721
-55.246	571.825	1415.101	3384.807
-54.232	189.833	2609.200	3844.224
-53.217	110.694	2275.949	2688.306
-52.203	40.265	1895.095	1674.041
-51.188	34.162	1684.100	1441.552
-50.173	31.547	1640.582	1384.922
-49.159	49.157	1690.052	1559.383
-48.144	50.692	1706.737	1586.253
-47.130	33.752	1665.722	1422.524
-46.115	31.039	1651.232	1389.901
-45.100	30.906	1646.996	1385.291
-44.086	30.751	1644.705	1382.160
-43.071	30.856	1641.865	1380.496
-42.057	30.820	1639.573	1378.245
-41.042	30.996	1636.920	1377.265
-40.027	30.947	1635.429	1375.593
-39.013	30.777	1633.582	1372.729
-37.998	30.717	1632.725	1371.515
-36.984	30.776	1631.118	1370.543
-35.969	30.936	1629.022	1369.906
-34.954	31.032	1627.283	1369.095
-33.940	30.964	1625.975	1367.441
-32.925	30.915	1624.186	1365.525
-31.911	30.877	1622.797	1364.021
-30.896	30.909	1621.134	1362.805
-29.881	30.845	1619.299	1360.742
-28.867	30.999	1617.503	1360.299
-27.852	30.906	1616.532	1358.751
-26.838	30.934	1614.571	1357.252
-25.823	30.864	1613.652	1355.916
-24.809	30.919	1611.736	1354.651
-23.794	30.991	1610.466	1354.057
-22.779	30.962	1608.902	1352.478
-21.765	30.938	1607.525	1351.091
-20.750	30.924	1606.043	1349.688
-19.736	31.045	1604.467	1349.190
-18.721	31.015	1602.829	1347.537
-17.706	31.042	1601.046	1346.187
-16.692	31.019	1599.993	1345.075
-15.677	30.984	1598.875	1343.832
-14.663	30.975	1597.615	1342.654
-13.648	30.969	1596.454	1341.581
-12.633	31.018	1594.354	1340.120
-11.619	30.929	1592.742	1338.071
-10.604	30.970	1591.371	1337.162
-9.590	31.023	1589.812	1336.174
-8.575	30.941	1589.176	1335.003
-7.560	31.023	1587.816	1334.390
-6.546	31.010	1586.566	1333.197
-5.531	30.968	1585.693	1332.106
-4.517	30.927	1584.259	1330.562
-3.502	30.880	1583.890	1329.859
-2.487	31.073	1581.644	1329.302
-1.473	30.697	1570.357	1317.103
-0.458	27.976	1551.225	1281.943
0.556	23.862	1551.835	1251.491
1.571	21.588	1575.417	1254.127
2.586	21.166	1588.245	1261.180
3.600	18.851	1535.172	1202.741
4.615	11.529	1428.350	1071.098
5.629	5.586	1367.558	988.013
6.644	4.718	1360.109	977.095
7.659	4.550	1358.830	975.031
8.673	4.569	1357.851	974.361
9.688	4.594	1355.554	972.783
10.702	4.480	1353.246	970.332
11.717	7.300	1358.036	991.338
12.731	14.293	1371.426	1045.054
13.746	18.881	1377.748	1078.639
14.761	18.684	1376.776	1076.546
15.775	17.833	1373.377	1068.470
16.790	16.718	1370.846	1059.436
17.804	15.799	1368.800	1052.014
18.819	15.522	1367.423	1049.134
19.834	15.201	1366.294	1046.173
20.848	14.936	1365.227	1043.606
21.863	14.748	1363.865	1041.304
22.877	14.604	1362.729	1039.446
23.892	14.563	1361.856	1038.434
24.907	14.636	1360.789	1037.982
25.921	14.614	1360.002	1037.151
26.936	14.676	1358.883	1036.592
27.950	14.700	1357.900	1035.899
28.965	14.815	1357.011	1035.839
29.980	14.871	1355.561	1034.992
30.994	15.028	1354.623	1035.153
32.009	14.978	1353.998	1034.275
33.023	14.982	1352.530	1033.085
34.038	14.864	1351.119	1031.187
35.053	14.761	1349.994	1029.604
36.067	14.769	1348.945	1028.762
37.082	14.751	1347.998	1027.837
38.096	14.922	1347.013	1028.048
39.111	14.843	1346.037	1026.726
40.126	14.710	1345.635	1025.513
41.140	14.620	1344.341	1023.886
42.155	14.559	1343.966	1023.136
43.169	14.453	1343.740	1022.219
44.184	14.491	1343.399	1022.107
45.199	14.509	1342.770	1021.649
46.213	14.630	1342.357	1021.980
47.228	14.687	1341.024	1021.228
48.242	14.765	1340.201	1020.983
49.257	14.716	1338.849	1019.568
50.271	14.712	1337.234	1018.223
51.286	14.770	1336.017	1017.559
52.301	14.675	1334.925	1016.058
53.315	14.656	1333.980	1015.134
54.330	14.618	1332.623	1013.779
55.344	14.547	1331.923	1012.727
56.359	14.586	1330.916	1012.111
57.374	14.523	1329.752	1010.749
58.388	14.537	1328.864	1010.074
59.403	14.399	1328.686	1009.011
60.417	14.356	1327.969	1008.117
61.432	14.386	1326.979	1007.456
62.447	14.434	1325.840	1006.796
63.461	14.381	1324.922	1005.689
64.476	14.363	1323.618	1004.501
65.490	14.403	1322.259	1003.625
66.505	14.339	1320.860	1002.085
67.520	14.386	1319.779	1001.459
68.534	14.441	1318.823	1000.975
69.549	14.478	1317.492	1000.099
70.563	14.461	1316.470	999.134
71.578	14.255	1315.409	997.005
72.593	14.376	1314.346	996.836
73.607	14.261	1313.610	995.504
74.622	14.224	1313.200	994.885
75.636	14.220	1312.685	994.382
76.651	14.275	1312.046	994.137
77.666	14.339	1311.103	993.716
78.680	14.312	1311.363	993.661
79.695	14.334	1310.299	992.899
80.709	14.406	1309.767	992.840
81.724	14.574	1308.550	992.828
82.739	14.554	1307.822	992.068
83.753	14.647	1306.680	991.666
84.768	14.784	1305.746	991.684
85.782	14.787	1304.775	990.879
86.797	14.763	1303.879	989.969
87.812	14.685	1302.296	988.216
88.826	14.626	1301.184	986.936
89.841	14.735	1299.934	986.543
90.855	14.779	1299.499	986.387
91.870	14.720	1298.259	985.011
92.884	14.763	1297.813	984.838
93.899	14.864	1297.052	984.765
94.914	14.868	1296.306	984.140
95.928	14.839	1295.203	983.045
96.943	14.767	1294.426	981.943
97.957	14.692	1293.471	980.688
98.972	14.682	1292.256	979.625
99.987	14.789	1290.953	979.179
101.001	14.863	1290.064	978.847
102.016	14.854	1288.999	977.903
103.030	14.767	1288.798	977.151
104.045	14.767	1288.084	976.526
105.060	14.687	1286.447	974.730
106.074	14.611	1284.734	972.906
107.089	14.564	1283.459	971.577
108.103	14.533	1282.148	970.321
109.118	14.504	1281.059	969.241
110.133	14.598	1279.543	968.554
111.147	14.471	1278.529	966.965
112.162	14.528	1277.375	966.336
113.176	14.545	1276.477	965.672
114.191	14.705	1274.958	965.361
115.206	14.614	1273.945	963.986
116.220	14.505	1273.096	962.625
117.235	14.569	1272.044	962.114
118.249	14.562	1270.552	960.863
119.264	14.494	1269.757	959.784
120.279	14.510	1268.676	958.973
121.293	14.582	1267.465	958.388
122.308	14.406	1266.976	956.921
123.322	14.382	1265.634	955.684
124.337	14.461	1264.347	955.082
125.352	14.340	1263.628	953.763
126.366	14.410	1262.474	953.204
127.381	14.519	1261.230	952.807
128.395	14.395	1260.292	951.307
129.410	14.531	1259.440	951.353
130.424	14.449	1258.953	950.433
131.439	14.523	1257.796	949.896
132.454	14.592	1256.378	949.135
133.468	14.608	1256.012	948.865
134.483	14.532	1255.437	947.917
135.497	14.540	1254.428	947.116
136.512	14.620	1252.766	946.231
137.527	14.581	1251.958	945.315
138.541	14.535	1250.322	943.734
139.556	14.664	1249.013	943.392
140.570	14.693	1248.173	942.838
141.585	14.712	1246.969	941.954
142.600	14.793	1245.811	941.454
143.614	14.777	1244.851	940.555
144.629	14.914	1243.881	940.506
145.643	14.789	1242.581	938.741
146.658	14.833	1241.495	938.084
147.673	14.772	1240.325	936.775
148.687	14.676	1238.992	935.144
149.702	14.675	1237.690	934.078
150.716	14.722	1236.270	933.182
151.731	14.658	1235.484	932.151
152.746	14.768	1234.570	931.990
153.760	14.701	1233.732	930.903
154.775	14.811	1232.259	930.322
155.789	14.866	1231.148	929.706
156.804	14.880	1230.073	928.889
157.819	14.839	1229.370	928.048
158.833	14.850	1228.663	927.498
159.848	15.009	1227.618	927.505
160.862	15.031	1226.551	926.742
161.877	14.921	1225.116	924.966
162.892	14.740	1224.269	923.241
163.906	14.746	1223.408	922.543
164.921	14.749	1222.808	922.027
165.935	14.886	1221.610	921.798
166.950	14.836	1221.164	921.106
167.964	14.845	1220.050	920.231
168.979	14.789	1219.628	919.527
169.994	14.888	1218.706	919.291
171.008	14.870	1218.038	918.609
172.023	14.988	1217.009	918.398
173.037	14.929	1216.700	917.762
174.052	15.069	1215.378	917.451
175.067	14.846	1214.494	915.481
176.081	14.896	1213.262	914.742
177.096	14.974	1212.284	914.349
178.110	14.872	1211.372	913.027
179.125	14.846	1209.921	911.708
180.140	14.977	1208.548	911.309
181.154	14.923	1207.905	910.450
182.169	14.998	1206.681	909.851
183.183	15.193	1205.347	909.823
184.198	15.130	1204.212	908.546
185.213	15.184	1203.407	908.153
186.227	15.229	1202.061	907.300
187.242	15.162	1201.350	906.322
188.256	15.258	1199.850	905.625
189.271	15.243	1199.596	905.276
190.286	15.021	1198.279	903.000
191.300	14.893	1197.629	901.742
192.315	14.856	1196.814	900.848
193.329	14.891	1196.292	900.564
194.344	14.986	1195.323	900.267
195.359	15.019	1195.091	900.189
196.373	15.045	1194.912	900.115
197.388	15.043	1194.636	899.816
198.402	15.219	1194.057	900.247
199.417	15.359	1193.230	900.295
200.432	15.362	1192.328	899.554
201.446	15.509	1191.190	899.400
202.461	15.447	1190.555	898.508
203.475	15.493	1189.493	897.876
204.490	15.370	1188.188	896.153
205.504	15.376	1187.016	895.222
206.519	15.420	1185.910	894.543
207.534	15.376	1184.305	893.019
208.548	15.450	1183.376	892.633
209.563	15.374	1183.052	891.904
210.577	15.408	1182.242	891.399
211.592	15.447	1181.557	891.006
212.607	15.540	1180.615	890.712
213.621	15.471	1180.234	889.982
214.636	15.495	1178.979	889.080
215.650	15.558	1177.457	888.189
216.665	15.553	1176.984	887.729
217.680	15.637	1176.143	887.456
218.694	15.600	1175.109	886.403
219.709	15.603	1174.914	886.196
220.723	15.690	1173.693	885.652
221.738	15.664	1173.093	884.986
222.753	15.761	1171.905	884.523
223.767	15.640	1171.660	883.622
224.782	15.754	1171.152	883.760
225.796	15.745	1170.516	883.156
226.811	15.799	1169.683	882.729
227.826	15.675	1169.256	881.681
228.840	15.660	1168.615	881.040
229.855	15.655	1167.564	880.146
230.869	15.780	1166.901	880.219
231.884	15.775	1165.713	879.221
232.899	15.689	1164.972	878.133
233.913	15.630	1164.424	877.338
234.928	15.545	1163.984	876.484
235.942	15.618	1162.807	875.897
236.957	15.579	1162.328	875.260
237.972	15.606	1161.418	874.636
238.986	15.640	1160.969	874.396
240.001	15.631	1159.928	873.488
241.015	15.685	1158.854	872.886
242.030	15.732	1158.397	872.707
243.045	15.828	1157.727	872.623
244.059	15.762	1156.958	871.624
245.074	15.786	1156.437	871.279
246.088	15.849	1155.367	870.720
247.103	15.880	1154.566	870.199
248.117	15.948	1153.891	869.966
249.132	16.011	1153.703	870.072
250.147	16.081	1152.807	869.681
251.161	16.167	1152.147	869.551
252.176	16.325	1151.199	869.570
253.190	16.379	1150.634	869.343
254.205	16.347	1149.967	868.597
255.220	16.507	1149.065	868.663
256.234	16.303	1149.004	867.490
257.249	16.334	1148.197	866.962
258.263	16.322	1147.466	866.275
259.278	16.316	1146.763	865.634
260.293	16.407	1145.966	865.423
261.307	16.432	1145.668	865.249
262.322	16.368	1145.122	864.434
263.336	16.430	1144.035	863.853
264.351	16.557	1143.304	863.874
265.366	16.544	1142.575	863.182
266.380	16.361	1142.263	861.934
267.395	16.517	1141.285	861.917
268.409	16.409	1140.637	860.798
269.424	16.253	1140.299	859.674
270.439	16.463	1139.247	859.872
271.453	16.441	1138.543	859.157
272.468	16.366	1137.643	858.018
273.482	16.342	1137.118	857.422
274.497	16.441	1136.059	857.055
275.512	16.385	1135.752	856.460
276.526	16.445	1135.361	856.396
277.541	16.525	1134.061	855.743
278.555	16.440	1133.685	854.953
279.570	16.541	1132.818	854.733
280.585	16.674	1132.183	854.854
281.599	16.720	1130.961	854.087
282.614	16.644	1130.226	853.072
283.628	16.544	1129.023	851.587
284.643	16.592	1128.198	851.126
285.657	16.652	1127.148	850.561
286.672	16.641	1126.328	849.814
287.687	16.664	1125.405	849.159
288.701	16.646	1124.939	848.638
289.716	16.831	1123.406	848.336
290.730	16.648	1123.301	847.263
291.745	16.793	1122.628	847.405
292.760	16.717	1122.160	846.601
293.774	16.727	1121.624	846.171
294.789	16.846	1120.763	846.040
295.803	16.882	1120.172	845.697
296.818	16.787	1119.282	844.479
297.833	16.768	1118.450	843.681
298.847	16.803	1117.662	843.184
299.862	16.819	1117.082	842.751
300.876	16.746	1116.938	842.205
301.891	16.907	1116.098	842.300
302.906	16.886	1115.215	841.453
303.920	16.983	1115.072	841.751
304.935	16.979	1114.389	841.143
305.949	17.079	1113.479	840.875
306.964	17.139	1112.525	840.380
307.979	17.030	1111.872	839.274
308.993	16.931	1111.689	838.570
310.008	17.066	1110.539	838.293
311.022	17.114	1109.810	837.907
312.037	17.203	1108.420	837.223
313.052	17.110	1107.612	836.079
314.066	17.015	1106.821	834.943
315.081	16.936	1106.050	833.900
316.095	16.968	1105.188	833.333
317.110	16.788	1105.004	832.235
318.125	16.938	1104.038	832.169
319.139	16.940	1103.381	831.612
320.154	16.936	1102.772	831.058
321.168	16.934	1102.138	830.500
322.183	16.939	1101.735	830.143
323.197	17.042	1100.800	829.871
324.212	17.057	1100.035	829.293
325.227	17.187	1099.914	829.766
326.241	17.134	1098.922	828.685
327.256	17.066	1098.170	827.711
328.270	17.066	1097.026	826.778
329.285	17.003	1096.494	825.993
330.300	16.976	1095.354	824.932
331.314	17.103	1094.451	824.796
332.329	17.096	1093.581	824.032
333.343	17.187	1092.667	823.715
334.358	17.158	1092.100	823.071
335.373	17.185	1091.513	822.690
336.387	17.164	1090.581	821.810
337.402	17.176	1090.058	821.404
338.416	17.274	1089.303	821.236
339.431	17.332	1088.593	820.904
340.446	17.443	1088.339	821.180
341.460	17.378	1087.604	820.239
342.475	17.496	1086.849	820.162
343.489	17.476	1086.038	819.383
344.504	17.634	1084.538	818.938
345.519	17.528	1084.139	818.055
346.533	17.568	1083.652	817.809
347.548	17.600	1082.530	817.042
348.562	17.740	1081.730	817.036
349.577	17.548	1081.130	815.590
350.592	17.484	1080.065	814.409
351.606	17.522	1079.170	813.844
352.621	17.509	1078.864	813.478
353.635	17.402	1078.282	812.460
354.650	17.477	1077.353	812.044
355.665	17.524	1076.291	811.396
356.679	17.526	1075.948	811.076
357.694	17.606	1075.389	810.961
358.708	17.633	1074.467	810.324
359.723	17.586	1074.279	809.887
360.738	17.654	1073.556	809.594
361.752	17.672	1073.188	809.329
362.767	17.574	1072.767	808.474
363.781	17.612	1072.133	808.108
364.796	17.735	1071.527	808.161
365.810	17.729	1070.862	807.557
366.825	17.797	1070.260	807.355
367.840	17.853	1070.055	807.393
368.854	17.911	1069.088	806.870
369.869	17.933	1068.325	806.326
370.883	17.923	1067.438	805.537
371.898	17.879	1066.767	804.749
372.913	17.920	1066.100	804.371
373.927	17.978	1065.557	804.162
374.942	18.016	1065.171	803.977
375.956	18.050	1064.426	803.504
376.971	17.949	1063.791	802.480
377.986	18.082	1063.083	802.498
379.000	18.130	1062.973	802.570
380.015	18.069	1062.693	802.001
381.029	18.111	1061.858	801.498
382.044	18.165	1061.027	801.052
383.059	18.053	1060.174	799.812
384.073	18.111	1059.603	799.582
385.088	18.253	1058.226	799.135
386.102	18.220	1057.662	798.487
387.117	18.003	1056.931	796.852
388.132	18.087	1055.648	796.206
389.146	17.996	1054.704	794.998
390.161	18.103	1054.196	795.044
391.175	18.047	1053.591	794.257
392.190	18.175	1052.966	794.310
393.205	18.116	1052.343	793.497
394.219	18.199	1051.370	793.076
395.234	18.162	1050.405	792.108
396.248	18.140	1049.324	791.120
397.263	18.265	1048.135	790.730
398.278	18.059	1047.613	789.317
399.292	18.165	1046.850	789.161
400.307	18.091	1046.271	788.311
401.321	18.050	1045.692	787.615
402.336	18.134	1045.078	787.473
403.350	18.118	1044.289	786.736
404.365	18.058	1043.796	786.017
405.380	18.171	1043.348	786.132
406.394	18.170	1042.484	785.406
407.409	18.340	1041.868	785.649
408.423	18.549	1040.514	785.520
409.438	18.484	1040.117	784.851
410.453	18.473	1039.837	784.518
411.467	18.563	1039.046	784.264
412.482	18.593	1038.467	783.897
413.496	18.662	1037.424	783.355
414.511	18.638	1037.172	782.985
415.526	18.607	1036.880	782.556
416.540	18.719	1036.426	782.651
417.555	18.688	1035.685	781.884
418.569	18.766	1034.986	781.639
419.584	18.639	1034.913	780.938
420.599	18.645	1034.170	780.335
421.613	150.798	1401.703	1796.920
422.628	137.694	1455.226	1797.015
