DTS Sentinel unit serial number:	SN413079Multiplexer serial number:	ORYXHardware model number:	OX4-SRSoftware version number:	ORYX F/W v4.00 Oryx Data Collector v3.7.2.0data status	okinstallation	princeton_trtdifferential loss correction	single-endedforward channel	channel 2reverse channel	N/Adate	2019/09/19time	12:51:35forward acquisition time	60.00reverse acquisition time	0.00gamma	496.2192k internal	0.2333k external	0.2333temperature offset calibration	1.0012default loss term (dB/km)	0.3790temperature slope calibration	1.0000multiplexer offset coefficient	1.0000multiplexer slope coefficient	1.0000fibre end	0.00T internal ref (°C)	28.16T ext. ref 1 (°C)	0.91T ext. ref 2 (°C)	26.37length (m)	temperature (°C)	Stokes	anti-Stokes-747.200	-85.121	0.182	0.057
-746.185	-88.655	-0.282	-0.084
-745.171	-48.337	-0.314	-0.152
-744.156	120.755	0.178	0.222
-743.142	32.307	-0.146	-0.127
-742.127	-132.798	-0.205	-0.026
-741.112	-31.160	0.313	-0.177
-740.098	-9.510	0.085	0.057
-739.083	-200.000	-0.049	-0.307
-738.069	-200.000	-0.009	-0.055
-737.054	-110.221	-0.325	-0.068
-736.039	-114.685	-0.229	-0.044
-735.025	7.751	0.119	0.090
-734.010	106.965	0.119	0.142
-732.996	70.463	-0.115	0.119
-731.981	-82.953	-0.176	-0.057
-730.966	-51.633	0.105	-0.049
-729.952	29.334	0.387	-0.331
-728.937	-200.000	-0.013	0.211
-727.923	-154.351	-0.345	0.023
-726.908	-145.335	-0.350	0.032
-725.894	53.387	0.208	0.201
-724.879	115.892	0.307	0.378
-723.864	-200.000	-0.009	-0.050
-722.850	-16.179	-0.231	-0.148
-721.835	-66.732	-0.310	-0.123
-720.821	213.268	-0.053	-0.084
-719.806	42.262	-0.096	-0.088
-718.791	192.577	0.183	-0.278
-717.777	162.211	0.166	-0.233
-716.762	-97.658	-0.166	-0.043
-715.748	-79.529	-0.212	0.072
-714.733	800.000	0.020	0.070
-713.718	109.438	-0.238	0.286
-712.704	800.000	-0.047	-0.139
-711.689	33.591	0.141	0.123
-710.675	-142.085	0.172	-0.017
-709.660	-186.416	-0.288	0.004
-708.645	-29.250	-0.044	0.025
-707.631	235.742	-0.025	0.041
-706.616	-200.000	0.029	-0.196
-705.602	130.084	0.164	-0.211
-704.587	-44.291	-0.214	0.108
-703.572	-97.862	0.267	-0.069
-702.558	186.251	-0.142	-0.212
-701.543	-58.839	-0.117	-0.051
-700.529	427.513	0.049	0.107
-699.514	-11.249	0.383	0.253
-698.499	-19.626	-0.225	0.140
-697.485	6.522	-0.115	-0.086
-696.470	-114.869	-0.486	-0.093
-695.456	-70.372	-0.223	0.085
-694.441	-39.381	0.199	-0.105
-693.426	25.281	0.292	0.244
-692.412	800.000	-0.040	-0.136
-691.397	8.356	0.047	-0.035
-690.383	-13.078	-0.196	0.128
-689.368	-153.853	0.097	-0.007
-688.354	-73.879	0.244	0.089
-687.339	352.985	-0.077	0.153
-686.324	16.535	-0.233	-0.185
-685.310	-19.671	-0.260	-0.162
-684.295	71.119	-0.212	0.220
-683.281	-200.000	0.006	-0.313
-682.266	9.908	0.079	-0.060
-681.251	-200.000	0.027	0.150
-680.237	-92.084	-0.098	0.028
-679.222	-167.297	-0.172	-0.007
-678.208	-200.000	0.060	-0.280
-677.193	-114.859	0.386	0.074
-676.178	-24.691	0.071	-0.043
-675.164	-200.000	0.004	0.341
-674.149	-200.000	0.033	0.255
-673.135	800.000	-0.058	-0.211
-672.120	800.000	0.072	-0.210
-671.105	241.338	-0.242	-0.405
-670.091	-89.982	0.193	-0.057
-669.076	-57.038	-0.312	-0.138
-668.062	22.017	-0.175	0.143
-667.047	-87.302	0.288	-0.088
-666.032	-23.352	-0.123	0.074
-665.018	-109.904	-0.249	0.052
-664.003	-200.000	0.014	-0.145
-662.989	-42.208	0.184	-0.094
-661.974	65.208	-0.081	-0.082
-660.959	783.158	-0.090	0.246
-659.945	-200.000	-0.079	-0.378
-658.930	-200.000	-0.037	-0.262
-657.916	49.870	-0.234	-0.221
-656.901	-86.241	0.254	0.078
-655.886	571.948	0.077	-0.188
-654.872	1.273	0.128	0.092
-653.857	429.244	0.073	-0.158
-652.843	251.503	-0.058	0.100
-651.828	-158.691	0.400	0.023
-650.814	-115.390	0.147	0.028
-649.799	-141.268	0.106	-0.011
-648.784	73.184	-0.126	0.132
-647.770	-1.911	-0.331	-0.233
-646.755	345.419	0.194	-0.382
-645.741	-200.000	-0.050	0.233
-644.726	-200.000	-0.001	-0.180
-643.711	-59.861	0.211	-0.090
-642.697	800.000	0.081	0.350
-641.682	-76.276	0.095	-0.034
-640.668	517.847	-0.051	0.118
-639.653	-64.153	-0.159	0.065
-638.638	-93.957	0.306	-0.084
-637.624	-84.892	-0.302	-0.095
-636.609	-200.000	0.124	0.000
-635.595	78.705	-0.124	-0.133
-634.580	-200.000	-0.062	-0.272
-633.565	-121.561	-0.288	0.048
-632.551	728.209	-0.089	-0.237
-631.536	-183.975	0.168	0.003
-630.522	74.192	-0.074	0.078
-629.507	18.448	0.074	0.059
-628.492	-200.000	-0.008	-0.100
-627.478	-81.241	-0.203	0.067
-626.463	-200.000	0.062	0.328
-625.449	15.422	-0.201	-0.158
-624.434	800.000	0.024	-0.081
-623.419	-122.792	-0.103	-0.017
-622.405	4.598	0.170	0.125
-621.390	-34.318	-0.144	-0.079
-620.376	-80.785	0.025	0.008
-619.361	458.838	0.164	0.366
-618.346	354.562	0.106	0.210
-617.332	-69.912	-0.200	0.076
-616.317	-48.777	-0.346	0.166
-615.303	7.553	-0.238	0.178
-614.288	-80.674	-0.241	0.080
-613.273	89.910	-0.089	0.099
-612.259	-94.994	0.318	-0.086
-611.244	-38.256	0.135	0.072
-610.230	-200.000	-0.003	-0.129
-609.215	-38.776	0.320	-0.169
-608.201	-134.560	0.350	-0.043
-607.186	-35.901	0.152	0.082
-606.171	517.156	0.015	-0.035
-605.157	-57.977	0.017	-0.007
-604.142	-36.473	0.107	-0.058
-603.128	-64.618	0.128	-0.052
-602.113	-179.101	0.272	-0.006
-601.098	200.082	-0.242	0.372
-600.084	-91.917	0.244	0.069
-599.069	-8.785	-0.200	-0.134
-598.055	237.519	0.132	-0.219
-597.040	433.783	-0.084	-0.182
-596.025	-200.000	-0.040	0.230
-595.011	-17.523	-0.156	-0.098
-593.996	20.621	-0.209	0.169
-592.982	-73.789	0.231	0.084
-591.967	-200.000	-0.011	-0.127
-590.952	32.053	-0.254	0.219
-589.938	-98.118	-0.339	-0.087
-588.923	-45.057	-0.267	0.133
-587.909	372.009	-0.106	0.215
-586.894	545.302	0.134	-0.319
-585.879	703.885	-0.130	-0.343
-584.865	-16.786	-0.009	-0.006
-583.850	96.520	0.350	-0.401
-582.836	195.854	-0.111	0.168
-581.821	-200.000	-0.042	-0.310
-580.806	800.000	-0.047	0.143
-579.792	114.926	0.307	0.375
-578.777	-200.000	-0.075	-0.453
-577.763	136.697	-0.021	-0.027
-576.748	800.000	-0.151	0.515
-575.733	800.000	-0.185	0.526
-574.719	-200.000	0.019	0.205
-573.704	196.295	0.244	-0.371
-572.690	738.854	-0.066	-0.176
-571.675	-100.142	-0.119	0.030
-570.661	103.382	0.098	-0.114
-569.646	800.000	0.056	-0.197
-568.631	-200.000	-0.028	0.136
-567.617	-3.675	0.337	0.234
-566.602	157.735	-0.103	0.143
-565.588	35.553	0.198	-0.174
-564.573	194.978	0.029	0.044
-563.558	172.889	-0.284	-0.409
-562.544	126.806	-0.081	0.103
-561.529	320.517	-0.122	0.231
-560.515	222.850	0.075	0.121
-559.500	-54.556	-0.059	0.027
-558.485	800.000	0.026	0.086
-557.471	-19.267	0.136	-0.084
-556.456	-155.126	-0.109	0.007
-555.442	-61.937	0.220	0.092
-554.427	800.000	-0.069	-0.193
-553.412	131.452	0.054	0.069
-552.398	800.000	0.050	-0.154
-551.383	15.229	0.027	-0.021
-550.369	55.713	-0.210	-0.204
-549.354	390.989	-0.054	-0.112
-548.339	300.359	0.190	0.350
-547.325	-186.381	-0.134	0.002
-546.310	38.085	-0.123	-0.109
-545.296	793.191	-0.092	0.252
-544.281	85.978	0.344	-0.377
-543.266	-31.732	-0.096	-0.054
-542.252	800.000	0.058	0.235
-541.237	-200.000	0.004	0.135
-540.223	410.506	-0.056	-0.119
-539.208	-200.000	-0.010	-0.137
-538.193	-200.000	-0.007	0.099
-537.179	-160.582	-0.217	0.012
-536.164	800.000	-0.084	-0.248
-535.150	-167.648	0.375	0.015
-534.135	-200.000	-0.009	-0.276
-533.121	-200.000	-0.017	0.179
-532.106	-95.390	0.272	-0.073
-531.091	150.094	-0.022	-0.030
-530.077	92.823	0.114	0.128
-529.062	20.130	0.161	0.130
-528.048	-121.705	-0.129	0.021
-527.033	-169.925	-0.170	0.006
-526.018	-51.850	-0.216	-0.100
-525.004	-156.526	0.160	-0.010
-523.989	800.000	0.046	0.165
-522.975	-19.656	0.026	0.016
-521.960	-8.259	0.291	0.195
-520.945	1.270	-0.183	0.131
-519.931	103.931	-0.245	0.287
-518.916	800.000	0.076	0.269
-517.902	74.815	0.159	-0.167
-516.887	-200.000	-0.007	-0.041
-515.872	323.611	-0.184	-0.350
-514.858	282.099	-0.044	-0.078
-513.843	800.000	0.094	-0.263
-512.829	54.131	0.127	-0.122
-511.814	25.853	-0.202	0.168
-510.799	800.000	-0.031	0.134
-509.785	28.520	0.270	-0.228
-508.770	-90.538	0.249	-0.072
-507.756	-65.421	0.439	0.176
-506.741	209.620	0.238	0.372
-505.726	-33.721	0.190	0.104
-504.712	-10.188	-0.300	-0.199
-503.697	13.966	-0.209	0.162
-502.683	-38.756	0.188	-0.099
-501.668	71.915	0.098	-0.101
-500.653	-89.270	0.445	-0.131
-499.639	-66.837	-0.133	0.053
-498.624	800.000	0.042	0.137
-497.610	140.669	-0.113	-0.149
-496.595	-200.000	0.004	0.196
-495.581	-52.177	0.254	-0.117
-494.566	51.886	0.124	0.118
-493.551	120.062	0.091	-0.112
-492.537	-11.274	0.083	-0.054
-491.522	-200.000	-0.023	-0.322
-490.508	68.621	0.011	0.011
-489.493	-56.452	-0.057	0.025
-488.478	-79.435	-0.199	-0.067
-487.464	-76.702	0.136	-0.047
-486.449	-92.113	0.180	-0.051
-485.435	-179.417	-0.359	0.008
-484.420	267.865	0.151	0.263
-483.405	463.916	-0.074	-0.164
-482.391	-28.881	-0.238	-0.136
-481.376	-200.000	-0.022	-0.393
-480.362	-100.540	-0.260	-0.064
-479.347	-161.019	0.173	0.009
-478.332	-70.854	-0.448	-0.168
-477.318	800.000	-0.117	0.331
-476.303	129.325	-0.097	-0.124
-475.289	-61.384	0.198	0.083
-474.274	-90.804	-0.227	0.065
-473.259	131.933	0.136	-0.174
-472.245	-128.423	0.150	-0.021
-471.230	492.650	-0.135	0.307
-470.216	-54.536	0.295	0.133
-469.201	10.876	-0.214	-0.163
-468.186	-40.312	0.152	-0.078
-467.172	-42.508	-0.109	0.055
-466.157	800.000	-0.109	-0.308
-465.143	50.597	0.190	-0.178
-464.128	422.641	0.067	-0.142
-463.113	-71.850	0.333	0.123
-462.099	359.160	0.049	0.098
-461.084	-76.258	0.255	0.089
-460.070	-52.334	-0.360	-0.166
-459.055	-117.166	-0.171	0.031
-458.040	86.237	0.163	-0.178
-457.026	-200.000	-0.052	-0.378
-456.011	129.741	0.161	0.205
-454.997	-200.000	0.013	0.117
-453.982	-12.080	-0.175	-0.114
-452.968	800.000	-0.050	-0.186
-451.953	84.917	-0.032	0.035
-450.938	13.237	-0.228	0.175
-449.924	-200.000	0.017	-0.136
-448.909	-148.856	-0.319	0.026
-447.895	-9.452	-0.198	-0.131
-446.880	434.483	0.102	-0.219
-445.865	-105.494	-0.042	0.009
-444.851	221.967	0.058	-0.093
-443.836	-135.188	-0.278	-0.033
-442.822	800.000	-0.040	0.112
-441.807	800.000	-0.042	-0.179
-440.792	-87.100	0.263	-0.079
-439.778	-49.642	0.091	0.043
-438.763	413.029	-0.096	-0.202
-437.749	99.086	-0.155	-0.178
-436.734	-27.992	-0.102	0.059
-435.719	800.000	0.042	0.119
-434.705	368.241	0.081	0.163
-433.690	108.555	-0.362	-0.429
-432.676	-26.866	0.127	0.074
-431.661	73.295	-0.373	-0.387
-430.646	-26.894	-0.135	-0.078
-429.632	800.000	-0.057	-0.197
-428.617	-200.000	-0.070	-0.319
-427.603	121.362	-0.189	-0.234
-426.588	-137.669	0.343	-0.038
-425.573	-15.407	0.134	0.085
-424.559	-35.026	-0.167	0.090
-423.544	-200.000	0.006	-0.229
-422.530	16.627	-0.268	-0.210
-421.515	-200.000	0.012	0.207
-420.500	800.000	-0.128	-0.407
-419.486	12.981	0.203	-0.156
-418.471	-117.207	-0.134	0.024
-417.457	-200.000	-0.008	0.056
-416.442	-200.000	0.005	-0.059
-415.428	-95.730	-0.255	-0.068
-414.413	-125.116	0.174	0.027
-413.398	-200.000	0.007	0.139
-412.384	-71.321	-0.277	0.103
-411.369	-132.156	-0.339	0.044
-410.355	-185.497	0.147	0.002
-409.340	-200.000	-0.003	0.334
-408.325	-96.934	0.104	0.027
-407.311	751.516	0.162	-0.434
-406.296	800.000	0.041	-0.155
-405.282	71.493	-0.129	0.133
-404.267	-165.158	-0.473	0.021
-403.252	-200.000	0.034	0.278
-402.238	-42.462	0.211	-0.107
-401.223	91.107	-0.044	0.049
-400.209	30.499	0.115	-0.097
-399.194	-91.295	0.221	0.063
-398.179	322.526	-0.107	0.202
-397.165	-122.408	0.302	0.049
-396.150	-200.000	0.048	0.211
-395.136	226.659	-0.104	-0.168
-394.121	36.804	0.192	0.168
-393.106	-50.055	0.239	-0.112
-392.092	800.000	-0.087	0.289
-391.077	-113.252	-0.106	0.021
-390.063	-35.901	0.066	-0.036
-389.048	24.042	0.171	-0.140
-388.033	-6.050	-0.156	0.106
-387.019	724.581	-0.074	0.195
-386.004	-200.000	0.066	-0.357
-384.990	-44.587	-0.142	0.070
-383.975	-141.474	0.126	0.013
-382.960	238.789	-0.261	0.431
-381.946	-96.632	0.194	0.051
-380.931	-61.994	0.090	0.037
-379.917	37.303	-0.022	-0.019
-378.902	84.543	-0.067	0.073
-377.888	54.094	-0.060	0.057
-376.873	6.219	0.299	-0.220
-375.858	-15.056	-0.102	-0.065
-374.844	800.000	0.018	0.060
-373.829	-168.091	-0.342	-0.013
-372.815	-4.691	-0.123	-0.084
-371.800	-157.261	-0.326	0.020
-370.785	592.509	-0.113	0.277
-369.771	-195.437	-0.244	-0.002
-368.756	18.676	-0.288	-0.228
-367.742	-23.427	0.092	0.055
-366.727	-120.535	0.165	0.028
-365.712	800.000	-0.082	-0.342
-364.698	164.829	-0.011	0.016
-363.683	17.827	-0.111	-0.087
-362.669	800.000	-0.068	-0.227
-361.654	613.231	-0.091	-0.225
-360.639	-200.000	0.009	0.337
-359.625	800.000	-0.051	-0.142
-358.610	425.107	-0.105	-0.224
-357.596	86.170	-0.182	0.198
-356.581	338.446	0.264	0.508
-355.566	144.677	-0.119	0.157
-354.552	800.000	-0.078	-0.324
-353.537	105.318	0.192	0.225
-352.523	-200.000	-0.035	0.398
-351.508	-71.123	0.294	0.109
-350.493	-131.593	-0.030	0.004
-349.479	-103.416	-0.423	-0.099
-348.464	-75.369	0.140	-0.049
-347.450	-17.422	0.062	-0.039
-346.435	-200.000	0.009	-0.047
-345.420	-38.530	0.337	-0.176
-344.406	91.674	0.075	-0.084
-343.391	57.790	0.123	-0.119
-342.377	43.010	-0.144	-0.130
-341.362	334.593	-0.054	-0.104
-340.348	395.537	0.096	0.198
-339.333	-146.268	0.217	0.019
-338.318	32.215	-0.266	0.227
-337.304	93.730	-0.043	-0.048
-336.289	-84.865	-0.245	0.076
-335.275	63.397	0.145	0.144
-334.260	-8.243	0.189	-0.126
-333.245	-138.331	0.100	-0.011
-332.231	-61.428	0.114	0.048
-331.216	191.355	-0.123	-0.184
-330.202	800.000	0.023	-0.075
-329.187	21.292	0.073	-0.058
-328.172	194.598	0.077	0.115
-327.158	-35.708	-0.431	-0.231
-326.143	-90.080	-0.275	-0.079
-325.129	-200.000	0.013	-0.180
-324.114	282.111	-0.035	0.063
-323.099	360.766	0.178	0.353
-322.085	96.778	0.213	0.242
-321.070	-101.532	-0.081	0.020
-320.056	-200.000	-0.016	0.214
-319.041	15.105	0.211	-0.164
-318.026	760.846	0.084	0.224
-317.012	93.195	-0.227	0.254
-315.997	-99.966	-0.311	0.077
-314.983	800.000	-0.068	0.245
-313.968	354.158	-0.071	0.139
-312.953	-82.122	0.262	-0.085
-311.939	-85.912	0.196	-0.060
-310.924	41.071	0.189	-0.169
-309.910	174.529	-0.045	0.064
-308.895	-122.030	-0.137	-0.022
-307.880	114.358	-0.225	-0.270
-306.866	800.000	0.147	0.503
-305.851	800.000	0.054	0.161
-304.837	-200.000	-0.016	0.206
-303.822	130.948	0.106	0.134
-302.807	-136.996	-0.291	-0.033
-301.793	10.439	0.022	0.016
-300.778	123.083	-0.178	0.220
-299.764	-87.314	-0.126	0.038
-298.749	-145.572	0.492	0.044
-297.735	-200.000	-0.054	0.304
-296.720	30.041	-0.093	0.078
-295.705	800.000	-0.051	-0.188
-294.691	-200.000	-0.049	0.326
-293.676	756.895	-0.198	0.529
-292.662	-200.000	-0.002	-0.049
-291.647	259.062	0.160	-0.273
-290.632	-200.000	-0.040	0.315
-289.618	-200.000	0.003	0.069
-288.603	-109.653	0.209	-0.043
-287.589	-83.269	-0.109	-0.035
-286.574	-200.000	0.035	0.164
-285.559	-3.764	-0.257	0.176
-284.545	47.099	-0.086	-0.079
-283.530	99.949	-0.074	0.085
-282.516	800.000	-0.030	0.127
-281.501	-200.000	0.046	-0.259
-280.486	-24.296	0.456	-0.269
-279.472	-200.000	-0.029	0.155
-278.457	-103.868	-0.107	0.025
-277.443	-169.454	0.197	-0.007
-276.428	240.676	0.084	0.138
-275.413	-141.865	-0.066	0.007
-274.399	-200.000	0.103	0.654
-273.384	-38.077	-0.398	0.208
-272.370	-200.000	0.057	-0.567
-271.355	-80.211	0.110	0.036
-270.340	40.979	0.208	0.185
-269.326	800.000	0.049	0.191
-268.311	44.550	-0.244	0.221
-267.297	800.000	0.123	-0.400
-266.282	110.404	-0.149	-0.176
-265.267	800.000	0.023	0.070
-264.253	-124.753	-0.211	-0.032
-263.238	6.936	-0.128	-0.094
-262.224	-110.196	-0.167	-0.034
-261.209	206.634	0.097	0.150
-260.195	-96.610	-0.048	0.013
-259.180	34.816	-0.071	0.061
-258.165	129.794	0.157	0.198
-257.151	-7.922	-0.052	-0.034
-256.136	800.000	0.018	-0.068
-255.122	-69.304	-0.116	0.044
-254.107	479.898	-0.097	-0.217
-253.092	-200.000	-0.014	-0.226
-252.078	-150.246	-0.076	-0.006
-251.063	222.289	0.139	-0.220
-250.049	90.708	0.100	0.110
-249.034	-105.349	0.106	0.024
-248.019	-48.701	-0.112	-0.053
-247.005	0.991	-0.321	0.227
-245.990	37.655	-0.228	-0.200
-244.976	-164.469	-0.125	-0.006
-243.961	607.097	-0.097	0.238
-242.946	37.190	0.086	0.075
-241.932	31.959	-0.102	0.087
-240.917	41.857	0.106	-0.095
-239.903	-118.126	0.180	0.032
-238.888	-200.000	0.038	0.172
-237.873	96.575	0.155	-0.175
-236.859	231.910	0.146	0.236
-235.844	-200.000	-0.028	0.127
-234.830	-150.527	-0.197	0.015
-233.815	274.147	-0.150	-0.262
-232.800	-6.738	0.292	-0.196
-231.786	25.634	-0.229	0.188
-230.771	-77.253	-0.116	0.040
-229.757	154.504	0.164	-0.222
-228.742	-102.744	-0.267	-0.063
-227.727	703.495	-0.010	0.026
-226.713	-126.044	0.195	-0.029
-225.698	-200.000	0.022	-0.136
-224.684	10.770	0.163	-0.123
-223.669	-105.737	0.287	0.064
-222.655	21.853	-0.080	-0.064
-221.640	-156.482	0.222	-0.014
-220.625	202.860	0.231	0.351
-219.611	-30.994	0.190	-0.106
-218.596	-200.000	-0.056	0.318
-217.582	386.089	0.122	0.249
-216.567	-200.000	0.008	-0.262
-215.552	-51.228	0.279	0.128
-214.538	745.234	0.089	-0.235
-213.523	12.137	0.281	-0.213
-212.509	-200.000	-0.101	-0.721
-211.494	76.989	-0.191	-0.200
-210.479	-15.757	-0.170	0.107
-209.465	-177.700	0.280	0.007
-208.450	-188.945	0.424	0.005
-207.436	-154.730	0.270	0.018
-206.421	45.687	-0.271	0.247
-205.406	-43.855	0.218	-0.108
-204.392	-200.000	0.042	0.382
-203.377	68.197	0.068	0.068
-202.363	-200.000	0.006	-0.367
-201.348	800.000	0.078	-0.216
-200.333	268.123	-0.171	-0.295
-199.319	373.141	-0.051	0.102
-198.304	193.699	-0.063	0.094
-197.290	456.125	0.111	-0.242
-196.275	60.172	0.052	0.051
-195.260	198.034	-0.167	-0.251
-194.246	54.483	-0.113	-0.108
-193.231	-11.316	0.092	0.060
-192.217	-200.000	0.057	-0.253
-191.202	-150.689	0.321	-0.024
-190.187	-61.020	-0.032	-0.013
-189.173	-134.436	-0.119	0.014
-188.158	800.000	0.141	-0.429
-187.144	-200.000	0.036	0.180
-186.129	-82.557	-0.095	-0.030
-185.114	-200.000	-0.004	-0.083
-184.100	10.421	0.279	0.209
-183.085	-200.000	0.023	0.233
-182.071	86.219	-0.090	0.097
-181.056	-105.695	-0.313	0.070
-180.042	-200.000	-0.009	0.324
-179.027	74.176	0.212	0.219
-178.012	98.886	0.088	-0.100
-176.998	-112.178	0.101	0.020
-175.983	-19.065	0.346	-0.212
-174.969	-200.000	0.029	-0.229
-173.954	800.000	0.054	-0.154
-172.939	34.200	-0.126	0.108
-171.925	18.241	-0.250	-0.196
-170.910	201.363	0.138	0.209
-169.896	-25.596	-0.059	-0.034
-168.881	-6.726	-0.185	-0.124
-167.866	93.275	-0.133	-0.148
-166.852	800.000	-0.020	0.076
-165.837	204.211	0.244	0.372
-164.823	-126.235	0.137	-0.020
-163.808	-28.174	0.234	0.133
-162.793	-200.000	-0.028	0.314
-161.779	619.449	-0.061	-0.151
-160.764	574.170	-0.141	-0.339
-159.750	626.528	-0.126	-0.312
-158.735	37.459	0.086	0.075
-157.720	263.097	-0.133	0.227
-156.706	800.000	0.053	0.195
-155.691	36.495	0.196	0.170
-154.677	356.634	0.126	0.247
-153.662	83.050	-0.130	0.139
-152.647	-47.363	0.204	-0.098
-151.633	-146.736	0.217	0.018
-150.618	70.803	-0.132	-0.134
-149.604	106.616	-0.231	-0.269
-148.589	507.051	-0.085	-0.195
-147.574	-28.886	0.308	0.174
-146.560	-50.268	0.291	-0.135
-145.545	-200.000	0.022	0.239
-144.531	-68.560	0.284	-0.108
-143.516	-78.318	-0.046	-0.015
-142.502	-108.997	0.145	-0.030
-141.487	442.500	0.048	-0.104
-140.472	-200.000	-0.034	-0.215
-139.458	-200.000	0.002	-0.269
-138.443	800.000	-0.005	0.015
-137.429	326.992	-0.078	0.147
-136.414	-98.901	-0.252	0.063
-135.399	128.228	0.152	-0.190
-134.385	183.210	0.230	-0.333
-133.370	50.786	0.083	-0.078
-132.356	43.608	-0.068	0.061
-131.341	321.449	0.237	0.442
-130.326	-60.898	0.243	-0.101
-129.312	-61.810	-0.266	-0.109
-128.297	-7.275	-0.126	-0.084
-127.283	-163.623	0.141	-0.007
-126.268	156.661	0.106	-0.144
-125.253	-200.000	0.047	-0.314
-124.239	216.542	0.146	0.228
-123.224	477.495	0.071	-0.159
-122.210	-200.000	-0.061	-0.393
-121.195	800.000	0.071	-0.273
-120.180	99.165	-0.139	-0.157
-119.166	-93.513	0.267	0.072
-118.151	165.283	0.137	0.190
-117.137	131.456	0.168	0.212
-116.122	-91.305	0.245	0.069
-115.107	-188.437	-0.169	-0.002
-114.093	-51.295	-0.085	0.039
-113.078	-120.090	-0.247	-0.042
-112.064	-7.102	-0.391	0.260
-111.049	-200.000	0.027	0.252
-110.034	333.505	0.127	-0.242
-109.020	-140.442	-0.228	0.023
-108.005	23.743	-0.240	-0.194
-106.991	-66.802	0.059	0.023
-105.976	-29.891	-0.242	-0.135
-104.962	-200.000	-0.001	0.136
-103.947	539.445	-0.217	0.507
-102.932	800.000	0.023	-0.080
-101.918	800.000	-0.034	-0.118
-100.903	191.296	-0.030	-0.044
-99.889	129.226	-0.198	-0.247
-98.874	79.736	0.044	0.046
-97.859	728.432	-0.059	0.156
-96.845	208.318	-0.078	-0.120
-95.830	-45.176	0.112	0.055
-94.816	-63.798	-0.204	-0.082
-93.801	-143.230	-0.249	-0.023
-92.786	800.000	0.066	-0.207
-91.772	595.589	0.204	-0.495
-90.757	-10.626	-0.154	-0.100
-89.743	-119.937	0.140	-0.024
-88.728	37.128	-0.128	-0.111
-87.713	-200.000	-0.049	0.232
-86.699	-200.000	-0.034	0.267
-85.684	129.715	-0.041	0.051
-84.670	369.054	-0.173	0.343
-83.655	-200.000	0.021	0.202
-82.640	-200.000	-0.010	0.219
-81.626	-42.628	0.268	0.134
-80.611	64.220	0.189	0.186
-79.597	301.109	-0.159	0.288
-78.582	800.000	-0.047	0.133
-77.567	-200.000	0.030	-0.268
-76.553	-75.110	-0.315	0.110
-75.538	800.000	-0.026	0.109
-74.524	261.203	-0.067	0.113
-73.509	-144.810	-0.063	0.006
-72.494	-103.769	0.162	-0.037
-71.480	571.926	-0.074	0.178
-70.465	-200.000	-0.024	0.142
-69.451	800.000	0.118	-0.344
-68.436	-83.428	-0.052	0.016
-67.422	25.086	0.075	-0.061
-66.407	-64.283	-0.223	-0.089
-65.392	-122.315	-0.207	0.033
-64.378	487.402	0.117	0.260
-63.363	-200.000	-0.033	-0.237
-62.349	800.000	-0.026	0.091
-61.334	82.114	-0.986	-1.046
-60.319	79.941	0.564	0.594
-59.305	-200.000	-0.038	-0.885
-58.290	185.874	0.667	0.971
-57.276	-200.000	0.295	1.444
-56.261	-200.000	109.230	580.177
-55.246	404.289	1534.025	3162.714
-54.232	137.405	2751.022	3522.974
-53.217	94.810	2339.512	2604.710
-52.203	37.137	1937.059	1678.418
-51.188	31.227	1721.725	1446.169
-50.173	28.750	1678.735	1391.266
-49.159	47.710	1733.673	1583.286
-48.144	47.456	1749.272	1595.512
-47.130	30.917	1705.594	1430.016
-46.115	28.285	1690.648	1397.369
-45.100	28.047	1685.833	1391.527
-44.086	28.036	1682.984	1389.036
-43.071	27.927	1680.996	1386.510
-42.057	27.981	1678.345	1384.682
-41.042	27.960	1675.688	1382.271
-40.027	28.010	1673.724	1380.977
-39.013	27.996	1671.832	1379.253
-37.998	28.020	1670.366	1378.172
-36.984	28.092	1668.618	1377.215
-35.969	28.138	1667.487	1376.574
-34.954	28.134	1665.869	1375.152
-33.940	28.178	1664.182	1374.040
-32.925	28.171	1662.362	1372.430
-31.911	28.128	1660.787	1370.752
-30.896	28.192	1658.766	1369.511
-29.881	28.166	1656.843	1367.670
-28.867	28.115	1655.968	1366.513
-27.852	28.111	1654.297	1365.049
-26.838	28.094	1652.798	1363.634
-25.823	28.132	1651.347	1362.667
-24.809	28.186	1650.436	1362.260
-23.794	28.099	1648.877	1360.270
-22.779	28.194	1646.877	1359.277
-21.765	28.199	1645.309	1357.967
-20.750	28.219	1643.904	1356.897
-19.736	28.130	1643.145	1355.555
-18.721	28.214	1641.394	1354.681
-17.706	28.180	1640.056	1353.275
-16.692	28.169	1638.638	1351.968
-15.677	28.135	1637.257	1350.524
-14.663	28.231	1635.813	1349.985
-13.648	28.248	1633.828	1348.419
-12.633	28.155	1633.056	1347.046
-11.619	28.226	1631.063	1345.870
-10.604	28.263	1629.461	1344.764
-9.590	28.212	1628.574	1343.604
-8.575	28.207	1627.280	1342.448
-7.560	28.290	1625.813	1341.797
-6.546	28.144	1624.950	1339.961
-5.531	28.184	1623.883	1339.320
-4.517	28.206	1622.246	1338.075
-3.502	28.155	1621.302	1336.874
-2.487	28.286	1619.371	1336.179
-1.473	28.261	1608.742	1327.178
-0.458	26.166	1591.168	1297.590
0.556	21.964	1592.290	1268.567
1.571	19.366	1616.499	1268.650
2.586	18.455	1627.758	1270.624
3.600	16.639	1573.689	1215.279
4.615	9.384	1462.312	1080.594
5.629	2.298	1398.338	987.585
6.644	1.065	1390.095	973.756
7.659	0.863	1388.974	971.590
8.673	0.862	1387.854	970.714
9.688	0.840	1385.561	968.882
10.702	0.579	1383.045	965.368
11.717	3.818	1387.652	989.252
12.731	11.161	1398.710	1044.266
13.746	16.229	1405.634	1081.908
14.761	17.220	1406.376	1088.739
15.775	16.709	1404.334	1083.796
16.790	15.726	1401.480	1075.211
17.804	14.952	1399.004	1068.275
18.819	14.608	1397.890	1065.138
19.834	14.281	1396.539	1061.924
20.848	14.115	1395.174	1059.735
21.863	13.830	1393.695	1056.708
22.877	13.629	1393.125	1054.899
23.892	13.503	1391.807	1053.011
24.907	13.499	1390.947	1052.240
25.921	13.577	1390.270	1052.132
26.936	13.576	1389.625	1051.542
27.950	13.709	1388.092	1051.132
28.965	13.785	1387.055	1050.734
29.980	13.782	1386.107	1049.907
30.994	13.696	1385.628	1048.906
32.009	13.734	1384.546	1048.230
33.023	13.788	1383.367	1047.589
34.038	13.718	1382.190	1046.161
35.053	13.690	1380.700	1044.769
36.067	13.685	1380.318	1044.351
37.082	13.801	1378.919	1043.932
38.096	13.725	1378.292	1042.888
39.111	13.699	1377.218	1041.820
40.126	13.758	1376.025	1041.197
41.140	13.648	1375.546	1040.051
42.155	13.560	1375.469	1039.349
43.169	13.500	1375.605	1038.982
44.184	13.587	1374.486	1038.590
45.199	13.559	1374.556	1038.376
46.213	13.637	1373.414	1037.909
47.228	13.667	1372.560	1037.362
48.242	13.723	1371.335	1036.690
49.257	13.667	1369.724	1035.033
50.271	13.734	1368.166	1034.181
51.286	13.668	1367.411	1033.108
52.301	13.679	1365.697	1031.789
53.315	13.640	1364.705	1030.706
54.330	13.602	1363.721	1029.635
55.344	13.574	1362.827	1028.700
56.359	13.555	1362.006	1027.869
57.374	13.632	1360.604	1027.198
58.388	13.620	1359.961	1026.547
59.403	13.545	1359.181	1025.400
60.417	13.571	1358.397	1024.883
61.432	13.472	1357.860	1023.770
62.447	13.560	1356.722	1023.367
63.461	13.356	1355.792	1021.317
64.476	13.539	1354.329	1021.252
65.490	13.455	1353.021	1019.656
66.505	13.503	1351.580	1018.779
67.520	13.605	1350.026	1018.145
68.534	13.606	1349.347	1017.544
69.549	13.550	1348.555	1016.513
70.563	13.586	1346.977	1015.456
71.578	13.483	1346.140	1014.104
72.593	13.438	1345.376	1013.162
73.607	13.475	1344.586	1012.709
74.622	13.544	1343.181	1011.981
75.636	13.448	1342.735	1010.968
76.651	13.450	1341.874	1010.245
77.666	13.520	1341.350	1010.184
78.680	13.498	1340.711	1009.482
79.695	13.391	1340.248	1008.391
80.709	13.451	1339.470	1008.081
81.724	13.498	1338.388	1007.466
82.739	13.583	1337.131	1006.949
83.753	13.629	1335.990	1006.278
84.768	13.712	1335.396	1006.245
85.782	13.682	1333.996	1004.919
86.797	13.669	1332.253	1003.439
87.812	13.695	1330.964	1002.535
88.826	13.607	1330.129	1001.284
89.841	13.564	1329.334	1000.337
90.855	13.594	1328.188	999.566
91.870	13.683	1327.098	999.200
92.884	13.717	1326.519	998.878
93.899	13.692	1325.717	998.035
94.914	13.749	1325.045	997.782
95.928	13.688	1324.334	996.792
96.943	13.706	1322.996	995.805
97.957	13.725	1322.327	995.330
98.972	13.665	1321.566	994.306
99.987	13.730	1320.160	993.549
101.001	13.749	1318.987	992.696
102.016	13.811	1317.305	991.711
103.030	13.781	1316.744	991.022
104.045	13.667	1316.203	989.847
105.060	13.621	1315.128	988.677
106.074	13.662	1313.926	987.927
107.089	13.628	1312.352	986.458
108.103	13.559	1311.239	985.119
109.118	13.541	1310.372	984.279
110.133	13.605	1308.204	982.939
111.147	13.606	1307.367	982.228
112.162	13.628	1305.672	980.998
113.176	13.600	1304.753	980.058
114.191	13.808	1303.398	980.184
115.206	13.727	1302.867	979.219
116.220	13.777	1300.603	977.725
117.235	13.613	1300.320	976.457
118.249	13.570	1299.455	975.471
119.264	13.675	1297.792	974.750
120.279	13.691	1296.542	973.820
121.293	13.714	1295.492	973.083
122.308	13.674	1294.894	972.310
123.322	13.618	1293.597	970.922
124.337	13.728	1292.417	970.593
125.352	13.613	1291.784	969.362
126.366	13.638	1290.532	968.481
127.381	13.702	1289.257	967.812
128.395	13.605	1288.425	966.540
129.410	13.700	1286.956	965.903
130.424	13.685	1286.636	965.492
131.439	13.743	1285.420	964.831
132.454	13.664	1284.619	963.681
133.468	13.732	1283.500	963.152
134.483	13.631	1282.686	961.870
135.497	13.676	1281.616	961.245
136.512	13.765	1280.197	960.614
137.527	13.697	1279.230	959.410
138.541	13.741	1277.225	958.073
139.556	13.740	1276.147	957.172
140.570	13.738	1275.206	956.373
141.585	13.833	1273.837	955.806
142.600	13.774	1273.180	954.888
143.614	13.865	1271.749	954.256
144.629	13.892	1270.707	953.545
145.643	13.868	1269.411	952.348
146.658	13.907	1268.119	951.521
147.673	13.744	1267.463	950.011
148.687	13.813	1265.964	949.197
149.702	13.820	1264.580	948.116
150.716	13.760	1263.155	946.619
151.731	13.894	1262.061	946.483
152.746	13.798	1261.105	945.134
153.760	13.861	1259.612	944.288
154.775	13.947	1258.588	943.929
155.789	13.867	1257.617	942.660
156.804	13.865	1256.799	941.956
157.819	13.967	1255.362	941.371
158.833	13.855	1254.842	940.266
159.848	13.954	1253.750	939.924
160.862	13.966	1252.803	939.200
161.877	14.019	1251.427	938.382
162.892	13.861	1250.789	936.930
163.906	13.946	1249.531	936.383
164.921	13.888	1248.777	935.409
165.935	13.995	1247.769	935.173
166.950	13.971	1247.131	934.477
167.964	13.981	1246.457	933.942
168.979	14.051	1245.599	933.615
169.994	14.014	1244.824	932.744
171.008	13.962	1244.238	931.926
172.023	13.982	1243.330	931.279
173.037	14.099	1242.064	930.900
174.052	14.114	1241.368	930.381
175.067	14.169	1240.181	929.717
176.081	14.170	1239.111	928.837
177.096	14.051	1238.412	927.567
178.110	14.150	1237.424	927.296
179.125	14.152	1236.038	926.188
180.140	14.187	1234.701	925.302
181.154	14.215	1233.445	924.431
182.169	14.145	1232.554	923.292
183.183	14.184	1231.000	922.265
184.198	14.304	1229.930	922.045
185.213	14.252	1228.929	920.928
186.227	14.345	1227.835	920.538
187.242	14.290	1226.831	919.403
188.256	14.314	1225.751	918.645
189.271	14.257	1225.000	917.683
190.286	14.211	1223.828	916.470
191.300	14.212	1223.265	915.972
192.315	14.164	1222.325	914.927
193.329	14.126	1221.768	914.219
194.344	14.254	1220.691	914.035
195.359	14.194	1220.373	913.387
196.373	14.326	1219.970	913.727
197.388	14.297	1219.357	913.032
198.402	14.420	1218.788	913.198
199.417	14.376	1218.271	912.486
200.432	14.436	1217.327	912.026
201.446	14.559	1216.084	911.691
202.461	14.459	1215.442	910.580
203.475	14.455	1214.572	909.825
204.490	14.546	1213.258	909.255
205.504	14.521	1211.836	907.972
206.519	14.526	1210.475	906.905
207.534	14.477	1209.367	905.725
208.548	14.495	1208.904	905.398
209.563	14.537	1207.804	904.722
210.577	14.467	1206.894	903.581
211.592	14.561	1206.325	903.583
212.607	14.601	1205.324	902.972
213.621	14.505	1204.394	901.672
214.636	14.590	1203.502	901.386
215.650	14.626	1202.838	901.005
216.665	14.591	1201.991	900.098
217.680	14.687	1200.840	899.676
218.694	14.700	1200.188	899.180
219.709	14.784	1198.892	898.577
220.723	14.659	1198.494	897.528
221.738	14.698	1197.603	896.989
222.753	14.769	1196.897	896.762
223.767	14.781	1196.283	896.289
224.782	14.768	1195.698	895.704
225.796	14.917	1194.889	895.813
226.811	14.800	1194.061	894.489
227.826	14.805	1193.571	894.070
228.840	14.900	1192.589	893.760
229.855	14.827	1192.125	892.947
230.869	14.887	1190.808	892.200
231.884	14.935	1189.943	891.730
232.899	14.868	1189.504	890.967
233.913	14.899	1188.459	890.270
234.928	14.934	1187.987	890.024
235.942	14.812	1187.417	888.870
236.957	14.748	1186.495	887.757
237.972	14.797	1185.719	887.361
238.986	14.959	1184.647	887.338
240.001	14.875	1184.433	886.654
241.015	14.908	1183.344	885.934
242.030	14.953	1182.405	885.391
243.045	14.920	1181.612	884.547
244.059	15.003	1180.953	884.414
245.074	14.945	1180.190	883.457
246.088	14.966	1179.705	883.127
247.103	15.043	1178.167	882.299
248.117	15.085	1177.348	881.833
249.132	15.163	1176.836	881.779
250.147	15.205	1176.295	881.519
251.161	15.157	1175.281	880.430
252.176	15.127	1175.026	880.004
253.190	15.229	1174.211	879.850
254.205	15.244	1173.471	879.294
255.220	15.333	1172.888	879.248
256.234	15.345	1172.352	878.829
257.249	15.440	1171.290	878.452
258.263	15.239	1171.194	877.250
259.278	15.354	1170.187	877.023
260.293	15.391	1169.783	876.834
261.307	15.373	1168.990	876.069
262.322	15.329	1168.459	875.361
263.336	15.547	1167.325	875.574
264.351	15.363	1167.226	874.465
265.366	15.512	1166.011	874.252
266.380	15.541	1165.650	874.053
267.395	15.451	1164.804	872.875
268.409	15.477	1164.124	872.420
269.424	15.446	1163.610	871.799
270.439	15.578	1163.052	871.988
271.453	15.531	1162.260	871.075
272.468	15.470	1161.102	869.813
273.482	15.399	1160.571	868.968
274.497	15.435	1159.658	868.399
275.512	15.510	1159.661	868.708
276.526	15.591	1158.378	868.087
277.541	15.457	1158.048	867.075
278.555	15.542	1157.507	867.032
279.570	15.535	1156.158	865.907
280.585	15.605	1155.467	865.673
281.599	15.741	1154.398	865.496
282.614	15.658	1153.410	864.251
283.628	15.609	1152.377	863.152
284.643	15.730	1151.648	863.149
285.657	15.721	1150.685	862.305
286.672	15.764	1149.727	861.732
287.687	15.786	1148.673	860.976
288.701	15.799	1148.181	860.601
289.716	15.890	1147.321	860.340
290.730	15.717	1146.833	859.015
291.745	15.826	1145.941	858.831
292.760	15.818	1145.373	858.287
293.774	15.860	1144.670	857.899
294.789	15.887	1144.258	857.650
295.803	15.887	1143.544	857.040
296.818	15.884	1142.721	856.335
297.833	15.980	1141.790	856.044
298.847	15.966	1141.167	855.435
299.862	15.966	1140.045	854.517
300.876	16.013	1139.640	854.375
301.891	16.026	1138.992	853.881
302.906	16.117	1138.077	853.580
303.920	16.129	1137.311	852.991
304.935	16.053	1137.156	852.411
305.949	16.078	1136.555	852.013
306.964	16.064	1135.853	851.342
307.979	16.142	1134.657	850.761
308.993	16.125	1134.176	850.243
310.008	16.182	1133.194	849.715
311.022	16.200	1132.010	848.843
312.037	16.266	1131.030	848.368
313.052	16.114	1130.634	847.228
314.066	16.146	1129.411	846.400
315.081	16.190	1128.697	846.011
316.095	16.013	1128.856	845.167
317.110	16.169	1127.586	844.921
318.125	16.160	1126.646	844.097
319.139	16.216	1126.006	843.823
320.154	16.307	1125.295	843.672
321.168	16.246	1124.775	842.902
322.183	16.145	1124.327	841.988
323.197	16.203	1123.432	841.535
324.212	16.207	1123.015	841.168
325.227	16.284	1122.430	841.038
326.241	16.243	1121.317	839.923
327.256	16.204	1121.232	839.591
328.270	16.179	1120.224	838.640
329.285	16.290	1118.829	838.070
330.300	16.339	1117.743	837.426
331.314	16.239	1117.054	836.343
332.329	16.282	1115.970	835.668
333.343	16.280	1115.366	835.131
334.358	16.377	1114.452	834.852
335.373	16.376	1113.689	834.201
336.387	16.430	1113.186	834.020
337.402	16.496	1112.124	833.472
338.416	16.468	1111.278	832.629
339.431	16.459	1110.597	831.999
340.446	16.559	1110.097	832.045
341.460	16.558	1109.449	831.483
342.475	16.576	1108.791	831.004
343.489	16.617	1107.511	830.169
344.504	16.540	1107.142	829.444
345.519	16.496	1106.529	828.697
346.533	16.685	1104.811	828.259
347.548	16.736	1104.295	828.048
348.562	16.790	1103.732	827.816
349.577	16.734	1102.955	826.888
350.592	16.758	1102.233	826.392
351.606	16.608	1101.571	825.090
352.621	16.676	1100.767	824.744
353.635	16.600	1100.303	823.955
354.650	16.641	1099.384	823.394
355.665	16.726	1098.721	823.237
356.679	16.741	1097.996	822.692
357.694	16.695	1097.834	822.278
358.708	16.707	1096.979	821.621
359.723	16.837	1095.927	821.392
360.738	16.807	1095.529	820.875
361.752	16.880	1095.033	820.781
362.767	16.814	1094.336	819.867
363.781	16.930	1093.622	819.824
364.796	16.860	1093.381	819.232
365.810	16.890	1092.612	818.725
366.825	17.067	1091.570	818.729
367.840	16.980	1091.236	817.988
368.854	16.948	1090.678	817.339
369.869	17.056	1089.771	817.111
370.883	17.068	1088.870	816.421
371.898	17.033	1088.386	815.814
372.913	17.052	1087.400	815.094
373.927	17.037	1087.315	814.887
374.942	17.138	1086.713	814.847
375.956	17.042	1086.471	814.136
376.971	17.017	1086.051	813.630
377.986	17.191	1085.052	813.640
379.000	17.127	1084.764	813.048
380.015	17.392	1083.851	813.556
381.029	17.236	1083.357	812.368
382.044	17.275	1082.478	811.825
383.059	17.373	1081.429	811.432
384.073	17.346	1080.750	810.722
385.088	17.267	1079.873	809.617
386.102	17.308	1078.789	808.927
387.117	17.367	1078.110	808.629
388.132	17.284	1077.056	807.370
389.146	17.233	1076.640	806.747
390.161	17.346	1075.565	806.404
391.175	17.338	1074.823	805.741
392.190	17.308	1074.603	805.359
393.205	17.459	1073.664	805.303
394.219	17.416	1073.042	804.561
395.234	17.408	1071.612	803.379
396.248	17.333	1070.949	802.458
397.263	17.358	1069.948	801.752
398.278	17.402	1069.439	801.506
399.292	17.395	1068.936	801.029
400.307	17.323	1068.352	800.179
401.321	17.317	1067.464	799.415
402.336	17.412	1066.743	799.254
403.350	17.459	1065.617	798.559
404.365	17.472	1064.888	798.002
405.380	17.448	1064.470	797.504
406.394	17.560	1063.747	797.417
407.409	17.510	1063.166	796.677
408.423	17.574	1062.706	796.561
409.438	17.581	1061.870	795.898
410.453	17.632	1061.141	795.521
411.467	17.702	1060.179	795.055
412.482	17.707	1059.657	794.616
413.496	17.771	1058.630	794.072
414.511	17.754	1058.347	793.710
415.526	17.789	1057.863	793.441
416.540	17.791	1057.292	792.952
417.555	17.855	1056.752	792.771
418.569	17.764	1056.582	792.154
419.584	17.820	1055.657	791.650
420.599	17.865	1055.145	791.405
421.613	105.445	1325.879	1475.221
422.628	97.205	1365.304	1475.298
