DTS Sentinel unit serial number:	SN413079Multiplexer serial number:	ORYXHardware model number:	OX4-SRSoftware version number:	ORYX F/W v4.00 Oryx Data Collector v3.7.2.0data status	okinstallation	princeton_trtdifferential loss correction	single-endedforward channel	channel 2reverse channel	N/Adate	2019/09/15time	00:07:35forward acquisition time	60.00reverse acquisition time	0.00gamma	496.2192k internal	0.2324k external	0.2324temperature offset calibration	1.0044default loss term (dB/km)	0.3790temperature slope calibration	1.0000multiplexer offset coefficient	1.0000multiplexer slope coefficient	1.0000fibre end	0.00T internal ref (°C)	32.19T ext. ref 1 (°C)	4.58T ext. ref 2 (°C)	27.22length (m)	temperature (°C)	Stokes	anti-Stokes-747.200	12.845	0.322	0.251
-746.185	800.000	0.046	0.169
-745.171	211.596	0.145	-0.231
-744.156	-69.320	0.336	-0.130
-743.142	800.000	0.100	-0.307
-742.127	6.903	-0.063	0.047
-741.112	-49.741	-0.123	0.059
-740.098	171.937	0.114	0.165
-739.083	-200.000	-0.015	-0.078
-738.069	-101.201	0.066	0.016
-737.054	-24.281	-0.304	0.183
-736.039	-200.000	0.013	-0.101
-735.025	251.269	-0.020	0.034
-734.010	-68.993	-0.210	-0.082
-732.996	-200.000	-0.057	-0.267
-731.981	1.795	0.279	-0.203
-730.966	-200.000	-0.033	0.185
-729.952	-9.940	-0.081	-0.054
-728.937	-105.216	-0.148	-0.034
-727.923	-120.166	-0.372	-0.064
-726.908	-200.000	-0.113	-0.000
-725.894	132.453	-0.069	0.090
-724.879	243.845	0.165	0.280
-723.864	-108.944	-0.415	-0.089
-722.850	-200.000	0.028	-0.280
-721.835	201.588	0.244	-0.380
-720.821	134.495	-0.118	-0.154
-719.806	92.662	0.258	-0.293
-718.791	8.773	-0.110	-0.084
-717.777	-109.031	-0.372	-0.080
-716.762	800.000	-0.041	0.162
-715.748	-39.366	0.306	-0.162
-714.733	-117.118	-0.121	-0.022
-713.718	348.990	0.139	-0.277
-712.704	115.529	-0.155	-0.191
-711.689	-146.003	-0.201	0.018
-710.675	-200.000	-0.058	-0.313
-709.660	136.494	-0.154	-0.202
-708.645	55.972	-0.146	-0.143
-707.631	339.122	-0.109	-0.213
-706.616	800.000	0.044	0.192
-705.602	-50.696	-0.198	-0.094
-704.587	-200.000	0.027	-0.167
-703.572	400.174	0.139	-0.294
-702.558	-114.962	-0.342	0.066
-701.543	800.000	-0.017	0.061
-700.529	-113.795	-0.374	0.073
-699.514	-10.011	0.192	0.129
-698.499	-83.054	-0.331	0.107
-697.485	87.770	-0.114	0.127
-696.470	71.428	-0.101	-0.106
-695.456	-154.998	0.296	-0.020
-694.441	-26.830	0.071	0.042
-693.426	-66.076	-0.145	-0.058
-692.412	92.001	-0.179	0.203
-691.397	-138.877	-0.457	0.050
-690.383	-29.153	0.247	-0.143
-689.368	-16.708	0.261	0.167
-688.354	-200.000	-0.030	0.190
-687.339	-56.609	-0.118	-0.053
-686.324	-109.930	0.027	-0.006
-685.310	-200.000	-0.024	-0.141
-684.295	-200.000	0.037	-0.217
-683.281	264.011	-0.149	-0.261
-682.266	-120.629	-0.248	0.042
-681.251	-45.793	0.131	-0.065
-680.237	-41.435	-0.370	0.192
-679.222	800.000	0.018	-0.068
-678.208	483.282	-0.075	0.172
-677.193	-166.953	0.152	-0.006
-676.178	-135.567	-0.151	-0.018
-675.164	-168.384	0.227	-0.009
-674.149	-54.585	0.338	0.154
-673.135	-200.000	-0.059	0.287
-672.120	-160.693	0.058	0.003
-671.105	-176.323	-0.225	0.006
-670.091	-175.134	-0.254	0.007
-669.076	222.507	0.163	-0.264
-668.062	28.863	-0.305	-0.260
-667.047	-118.176	-0.113	-0.020
-666.032	-68.665	0.220	0.086
-665.018	-70.981	-0.234	0.088
-664.003	-125.911	-0.277	0.042
-662.989	-200.000	-0.051	-0.237
-661.974	-117.667	0.173	0.031
-660.959	-17.954	-0.216	-0.136
-659.945	434.586	-0.142	-0.310
-658.930	800.000	-0.092	-0.380
-657.916	-60.354	-0.236	-0.101
-656.901	99.522	0.061	-0.071
-655.886	-163.718	-0.181	0.009
-654.872	485.866	-0.064	-0.147
-653.857	31.937	-0.168	-0.145
-652.843	283.835	0.147	-0.266
-651.828	36.455	-0.113	0.101
-650.814	800.000	-0.035	-0.142
-649.799	99.420	0.128	-0.149
-648.784	-86.770	-0.057	0.018
-647.770	-115.186	0.221	-0.042
-646.755	-48.181	-0.040	-0.019
-645.741	-200.000	0.020	0.096
-644.726	224.890	-0.261	-0.424
-643.711	-40.755	0.186	-0.097
-642.697	-145.659	0.359	0.032
-641.682	-33.865	-0.220	0.122
-640.668	-28.838	-0.283	-0.163
-639.653	-100.324	0.227	0.057
-638.638	-200.000	0.044	-0.306
-637.624	150.672	-0.120	-0.163
-636.609	-84.121	-0.284	0.091
-635.595	-200.000	0.019	-0.162
-634.580	-97.921	0.098	-0.026
-633.565	800.000	0.042	-0.166
-632.551	-18.870	-0.228	-0.143
-631.536	30.392	-0.148	-0.127
-630.522	169.514	-0.162	-0.233
-629.507	800.000	-0.013	-0.047
-628.492	78.052	-0.236	0.253
-627.478	-86.457	0.146	0.045
-626.463	-68.899	-0.245	-0.095
-625.449	800.000	0.117	-0.442
-624.434	-0.757	-0.277	-0.197
-623.419	457.115	-0.076	-0.169
-622.405	-4.916	-0.060	-0.042
-621.390	153.711	0.168	-0.231
-620.376	218.626	0.022	0.035
-619.361	89.853	0.340	-0.382
-618.346	-200.000	0.021	-0.140
-617.332	590.020	0.098	0.244
-616.317	52.081	0.182	-0.174
-615.303	180.033	0.189	-0.278
-614.288	256.063	-0.087	0.149
-613.273	-102.025	-0.352	-0.085
-612.259	80.651	-0.316	0.342
-611.244	-200.000	0.047	-0.272
-610.230	759.150	-0.057	-0.155
-609.215	420.935	-0.047	-0.101
-608.201	144.714	0.106	-0.143
-607.186	521.222	0.057	0.135
-606.171	537.727	-0.075	-0.179
-605.157	45.905	0.149	0.138
-604.142	102.820	0.181	0.213
-603.128	91.453	-0.225	0.253
-602.113	-111.920	0.037	-0.008
-601.098	164.189	0.043	-0.061
-600.084	-200.000	-0.302	-0.001
-599.069	47.392	-0.114	-0.107
-598.055	800.000	0.048	0.141
-597.040	-200.000	0.000	-0.037
-596.025	92.851	-0.103	-0.117
-595.011	-180.412	0.130	-0.003
-593.996	185.732	0.222	0.332
-592.982	214.546	0.102	0.163
-591.967	-77.538	-0.323	-0.112
-590.952	-47.291	-0.035	0.017
-589.938	-93.612	0.220	0.061
-588.923	39.994	-0.192	-0.173
-587.909	202.314	-0.128	-0.199
-586.894	4.209	-0.254	-0.186
-585.879	-156.030	-0.198	0.013
-584.865	800.000	-0.107	-0.349
-583.850	-200.000	-0.050	-0.256
-582.836	-200.000	-0.015	0.215
-581.821	-200.000	0.005	0.066
-580.806	-171.843	0.173	-0.006
-579.792	-124.017	0.250	-0.039
-578.777	-167.922	-0.054	-0.002
-577.763	22.265	0.220	-0.180
-576.748	-130.083	0.099	-0.014
-575.733	-200.000	0.004	0.235
-574.719	215.382	-0.129	-0.205
-573.704	181.342	-0.259	-0.382
-572.690	143.499	0.095	-0.127
-571.675	-59.297	0.036	-0.016
-570.661	-200.000	0.001	-0.255
-569.646	800.000	-0.103	0.305
-568.631	59.464	-0.102	0.101
-567.617	-166.326	-0.393	0.017
-566.602	-97.980	-0.197	0.051
-565.588	800.000	0.043	0.185
-564.573	-165.330	0.161	0.007
-563.558	-149.729	-0.064	-0.005
-562.544	-159.127	0.149	0.008
-561.529	184.501	0.044	-0.066
-560.515	362.815	-0.152	0.306
-559.500	-200.000	0.033	0.297
-558.485	256.807	-0.070	-0.120
-557.471	-62.742	-0.053	0.022
-556.456	-134.295	-0.286	-0.035
-555.442	543.748	0.123	-0.295
-554.427	800.000	0.047	-0.144
-553.412	-85.421	0.108	-0.034
-552.398	-1.529	-0.056	-0.039
-551.383	-75.503	0.280	0.100
-550.369	-115.799	0.144	-0.027
-549.354	800.000	-0.012	0.037
-548.339	-3.911	0.254	0.177
-547.325	114.596	0.203	-0.248
-546.310	80.598	-0.266	-0.287
-545.296	96.040	0.132	0.151
-544.281	-64.127	-0.189	0.077
-543.266	-200.000	0.017	-0.392
-542.252	-200.000	0.000	0.017
-541.237	70.069	-0.046	0.048
-540.223	-32.786	0.141	0.079
-539.208	-200.000	-0.001	-0.078
-538.193	-69.215	-0.242	0.093
-537.179	-200.000	0.018	-0.239
-536.164	-108.395	-0.318	-0.069
-535.150	586.703	0.048	0.118
-534.135	-151.301	-0.260	-0.019
-533.121	-25.148	-0.073	-0.043
-532.106	-70.466	0.055	0.021
-531.091	-76.612	0.076	0.027
-530.077	800.000	-0.037	-0.143
-529.062	-200.000	0.010	-0.053
-528.048	-118.455	-0.426	-0.076
-527.033	156.933	0.102	-0.141
-526.018	424.665	0.036	0.078
-525.004	-35.426	-0.458	0.249
-523.989	468.382	0.069	0.155
-522.975	-68.751	0.127	0.049
-521.960	-68.384	-0.041	0.016
-520.945	-158.581	0.265	-0.015
-519.931	-74.613	-0.264	0.095
-518.916	-71.606	0.049	0.019
-517.902	800.000	0.089	0.252
-516.887	-200.000	-0.008	0.169
-515.872	58.580	0.066	-0.065
-514.858	255.863	-0.186	0.319
-513.843	-200.000	0.040	-0.300
-512.829	-7.913	-0.058	0.039
-511.814	-45.020	0.417	0.208
-510.799	-80.684	-0.381	-0.127
-509.785	-200.000	0.063	-0.312
-508.770	752.237	0.032	-0.086
-507.756	-99.163	0.170	-0.043
-506.741	-200.000	-0.023	0.389
-505.726	110.098	-0.173	0.208
-504.712	-16.538	0.209	0.132
-503.697	80.680	0.103	-0.111
-502.683	-200.000	0.007	0.366
-501.668	-200.000	-0.023	-0.292
-500.653	-200.000	-0.005	0.041
-499.639	-40.294	0.222	-0.115
-498.624	-200.000	-0.018	0.123
-497.610	-143.234	0.094	-0.009
-496.595	326.264	0.096	-0.184
-495.581	-52.638	0.034	-0.016
-494.566	6.369	-0.180	0.133
-493.551	-173.310	0.201	-0.006
-492.537	-56.540	-0.317	-0.140
-491.522	260.657	-0.028	0.048
-490.508	117.997	-0.173	-0.213
-489.493	-200.000	0.058	-0.295
-488.478	-2.395	-0.169	0.118
-487.464	-79.533	-0.343	0.116
-486.449	467.967	0.110	-0.247
-485.435	478.206	0.119	-0.268
-484.420	114.069	0.198	-0.240
-483.405	-193.515	-0.116	0.001
-482.391	14.218	0.127	0.099
-481.376	109.433	-0.179	0.214
-480.362	-26.631	0.139	0.081
-479.347	-80.804	-0.197	-0.065
-478.332	-139.070	0.159	-0.017
-477.318	-46.099	-0.135	0.067
-476.303	800.000	0.070	0.209
-475.289	-146.222	-0.267	-0.023
-474.274	-128.492	-0.068	-0.010
-473.259	-24.773	0.178	-0.106
-472.245	-31.765	0.145	-0.081
-471.230	87.349	-0.355	0.392
-470.216	114.891	-0.141	-0.171
-469.201	-43.065	0.283	0.144
-468.186	366.193	-0.100	0.202
-467.172	-77.524	-0.064	-0.022
-466.157	69.019	-0.179	0.183
-465.143	-46.085	-0.142	0.070
-464.128	-200.000	-0.006	-0.050
-463.113	-63.376	-0.162	0.066
-462.099	-157.896	-0.104	-0.006
-461.084	-108.651	0.395	0.085
-460.070	-153.588	-0.235	-0.016
-459.055	800.000	0.089	-0.253
-458.040	-58.096	-0.372	0.162
-457.026	-200.000	-0.035	-0.181
-456.011	619.675	-0.027	-0.069
-454.997	12.075	-0.457	0.351
-453.982	2.343	0.070	-0.050
-452.968	28.716	0.184	-0.155
-451.953	596.515	0.151	0.372
-450.938	-142.195	-0.260	-0.026
-449.924	4.968	0.027	-0.020
-448.909	15.504	-0.354	-0.278
-447.895	473.491	-0.111	-0.250
-446.880	-187.137	0.339	-0.005
-445.865	-130.954	0.117	-0.016
-444.851	800.000	0.089	0.302
-443.836	245.415	0.073	0.122
-442.822	-122.851	0.217	-0.035
-441.807	-67.369	-0.163	0.064
-440.792	371.641	0.125	-0.253
-439.778	-0.578	0.210	-0.149
-438.763	-138.808	0.300	-0.033
-437.749	67.727	0.156	-0.159
-436.734	95.114	-0.178	-0.202
-435.719	-200.000	-0.037	-0.197
-434.705	271.892	0.144	-0.254
-433.690	188.552	-0.129	0.193
-432.676	614.870	0.030	-0.074
-431.661	104.289	-0.126	0.148
-430.646	110.277	0.112	0.134
-429.632	-146.969	0.372	0.032
-428.617	67.597	-0.131	-0.134
-427.603	-200.000	-0.005	-0.084
-426.588	-200.000	-0.018	0.099
-425.573	-92.713	-0.177	-0.049
-424.559	392.949	0.249	0.517
-423.544	277.224	-0.107	-0.190
-422.530	-200.000	0.054	0.236
-421.515	145.631	0.033	-0.045
-420.500	-200.000	-0.067	0.409
-419.486	-51.228	0.175	0.082
-418.471	22.780	-0.034	-0.027
-417.457	800.000	0.061	-0.189
-416.442	-200.000	-0.025	-0.196
-415.428	44.393	-0.190	0.174
-414.413	-200.000	-0.005	0.301
-413.398	66.260	-0.142	0.144
-412.384	800.000	0.028	0.101
-411.369	64.252	-0.117	0.117
-410.355	-155.245	-0.215	-0.014
-409.340	263.758	-0.129	0.224
-408.325	437.531	-0.159	-0.346
-407.311	800.000	0.060	0.217
-406.296	-20.425	0.067	-0.041
-405.282	-120.292	0.175	0.030
-404.267	-104.766	-0.233	0.053
-403.252	-108.885	0.252	0.054
-402.238	-159.447	0.341	0.019
-401.223	800.000	0.045	-0.133
-400.209	194.089	0.074	0.112
-399.194	-52.230	0.320	0.148
-398.179	86.474	-0.225	0.247
-397.165	742.904	0.032	0.084
-396.150	-115.220	0.202	0.038
-395.136	560.155	-0.123	-0.296
-394.121	357.057	0.052	-0.103
-393.106	-151.783	0.138	-0.010
-392.092	-34.634	0.116	-0.063
-391.077	371.748	-0.107	0.217
-390.063	-100.310	0.028	-0.007
-389.048	-200.000	-0.007	0.199
-388.033	-200.000	0.050	0.244
-387.019	-123.272	-0.321	0.051
-386.004	59.353	0.126	0.124
-384.990	-104.023	0.222	-0.051
-383.975	800.000	0.024	-0.071
-382.960	747.682	0.086	-0.231
-381.946	-200.000	0.006	0.103
-380.931	26.423	-0.098	0.081
-379.917	740.844	-0.026	0.070
-378.902	275.759	-0.099	0.175
-377.888	-200.000	0.009	0.273
-376.873	15.030	0.325	0.253
-375.858	335.117	0.142	0.274
-374.844	-147.211	-0.277	-0.023
-373.829	188.876	0.078	-0.116
-372.815	-23.409	-0.250	-0.149
-371.800	-200.000	-0.053	-0.367
-370.785	-166.669	-0.085	0.004
-369.771	-26.729	0.373	-0.217
-368.756	176.110	-0.054	0.077
-367.742	-128.887	-0.157	0.022
-366.727	85.394	-0.080	-0.088
-365.712	-65.329	0.403	-0.161
-364.698	-89.634	-0.288	0.084
-363.683	800.000	0.086	0.295
-362.669	36.630	0.186	0.164
-361.654	-148.617	-0.204	0.017
-360.639	-21.254	0.274	0.166
-359.625	-120.888	0.261	-0.044
-358.610	-78.292	-0.197	0.067
-357.596	12.634	-0.218	0.168
-356.581	2.844	0.207	0.150
-355.566	100.088	-0.020	0.023
-354.552	-32.921	0.150	0.083
-353.537	91.249	0.199	0.222
-352.523	800.000	0.024	-0.071
-351.508	-55.188	-0.216	0.097
-350.493	-80.222	0.114	0.038
-349.479	-54.187	0.105	-0.048
-348.464	-104.247	0.248	-0.057
-347.450	16.451	0.132	-0.103
-346.435	-147.254	-0.419	0.035
-345.420	386.269	0.174	-0.356
-344.406	47.089	0.220	-0.203
-343.391	-109.052	0.033	-0.007
-342.377	-49.191	0.137	-0.065
-341.362	603.076	-0.195	0.483
-340.348	-49.437	-0.076	-0.036
-339.333	462.244	0.065	-0.145
-338.318	-157.806	-0.266	0.016
-337.304	114.918	-0.085	0.103
-336.289	-30.170	0.256	0.145
-335.275	800.000	0.054	0.178
-334.260	-95.211	-0.200	-0.054
-333.245	-5.813	-0.151	0.103
-332.231	-105.281	-0.025	0.006
-331.216	586.649	-0.074	0.180
-330.202	187.770	0.078	0.116
-329.187	139.257	-0.183	-0.239
-328.172	143.352	0.215	-0.284
-327.158	593.818	0.022	-0.054
-326.143	-30.922	0.301	-0.169
-325.129	108.783	-0.167	-0.198
-324.114	-200.000	0.081	-0.401
-323.099	-146.779	-0.270	-0.023
-322.085	339.475	0.089	0.173
-321.070	-200.000	-0.009	-0.199
-320.056	-60.092	-0.346	-0.147
-319.041	-200.000	-0.023	0.144
-318.026	338.956	0.101	0.195
-317.012	800.000	0.061	-0.222
-315.997	457.603	-0.212	0.468
-314.983	-200.000	-0.001	0.084
-313.968	-71.741	-0.214	-0.079
-312.953	-0.282	-0.373	0.264
-311.939	-44.930	0.271	0.134
-310.924	115.782	0.139	0.169
-309.910	-80.766	-0.091	-0.030
-308.895	-36.334	-0.109	0.059
-307.880	-98.224	-0.179	-0.046
-306.866	1.383	0.329	-0.235
-305.851	800.000	-0.055	-0.191
-304.837	-53.377	-0.120	-0.055
-303.822	-158.845	0.336	-0.019
-302.807	800.000	0.068	-0.215
-301.793	-72.382	-0.163	-0.060
-300.778	78.975	0.209	0.222
-299.764	-84.861	0.399	-0.124
-298.749	-200.000	0.017	0.529
-297.735	25.287	-0.220	0.181
-296.720	113.220	0.200	0.241
-295.705	-200.000	0.035	-0.223
-294.691	385.092	0.169	0.345
-293.676	-101.926	-0.471	0.113
-292.662	-172.018	0.423	0.014
-291.647	201.929	0.191	-0.292
-290.632	368.746	-0.087	-0.175
-289.618	16.781	0.281	-0.220
-288.603	-86.305	-0.127	-0.039
-287.589	-115.418	0.118	0.022
-286.574	-200.000	0.007	0.059
-285.559	-91.497	-0.120	0.034
-284.545	-200.000	0.007	0.083
-283.530	-41.886	0.158	-0.081
-282.516	-200.000	0.031	-0.166
-281.501	204.238	-0.089	-0.137
-280.486	-116.177	0.156	-0.029
-279.472	-171.865	0.054	0.002
-278.457	-37.899	-0.071	0.037
-277.443	-153.524	-0.155	0.011
-276.428	-34.402	-0.016	-0.009
-275.413	-64.123	0.118	-0.048
-274.399	-200.000	0.022	0.341
-273.384	4.280	-0.297	0.216
-272.370	800.000	0.113	0.360
-271.355	326.238	-0.150	0.285
-270.340	157.406	-0.239	0.328
-269.326	800.000	0.028	-0.086
-268.311	352.314	-0.080	-0.157
-267.297	300.140	0.092	-0.168
-266.282	76.237	0.130	-0.136
-265.267	800.000	-0.056	-0.236
-264.253	-111.344	-0.236	-0.048
-263.238	-77.086	-0.254	-0.088
-262.224	90.418	-0.163	-0.180
-261.209	-76.885	-0.273	0.095
-260.195	437.806	0.031	0.067
-259.180	62.663	0.292	0.289
-258.165	-6.246	-0.093	-0.063
-257.151	465.900	0.068	0.150
-256.136	420.842	0.137	0.290
-255.122	800.000	0.041	-0.146
-254.107	-33.615	0.196	0.107
-253.092	-200.000	0.039	-0.246
-252.078	528.297	0.112	-0.262
-251.063	-123.366	-0.213	-0.034
-250.049	-200.000	-0.006	0.174
-249.034	-143.865	0.116	-0.011
-248.019	-21.413	-0.269	0.163
-247.005	-7.904	0.060	0.040
-245.990	-49.115	-0.416	-0.197
-244.976	800.000	0.056	0.199
-243.961	-44.530	-0.065	0.032
-242.946	-55.137	-0.274	-0.122
-241.932	433.379	0.164	0.352
-240.917	-87.174	-0.236	-0.071
-239.903	-200.000	-0.006	-0.032
-238.888	800.000	0.136	-0.470
-237.873	0.730	0.180	0.127
-236.859	-200.000	0.039	-0.172
-235.844	352.774	0.032	-0.063
-234.830	153.913	0.131	0.178
-233.815	-32.812	-0.260	0.143
-232.800	-73.477	0.161	-0.058
-231.786	-200.000	-0.024	0.128
-230.771	-0.905	0.220	-0.154
-229.757	-130.097	-0.278	-0.038
-228.742	182.402	-0.029	-0.042
-227.727	-155.681	0.322	0.020
-226.713	-64.127	0.224	0.090
-225.698	65.502	0.171	0.171
-224.684	-118.183	0.314	-0.055
-223.669	-24.687	-0.165	-0.097
-222.655	-12.819	0.066	-0.043
-221.640	500.637	0.084	0.192
-220.625	-200.000	-0.011	0.219
-219.611	-96.097	-0.257	-0.068
-218.596	-200.000	0.027	0.211
-217.582	-74.033	-0.309	0.111
-216.567	-200.000	0.037	0.187
-215.552	-33.261	-0.378	0.207
-214.538	261.542	0.133	-0.229
-213.523	-78.525	0.185	0.063
-212.509	-200.000	-0.047	0.262
-211.494	-200.000	-0.052	0.383
-210.479	35.356	0.152	0.132
-209.465	-200.000	0.015	-0.207
-208.450	-90.026	-0.083	-0.024
-207.436	458.815	-0.045	0.100
-206.421	-67.880	0.104	0.040
-205.406	800.000	0.117	0.446
-204.392	-103.591	-0.247	-0.057
-203.377	-88.191	-0.118	-0.035
-202.363	800.000	0.019	-0.060
-201.348	181.735	-0.174	0.253
-200.333	83.119	0.192	0.207
-199.319	800.000	0.016	-0.059
-198.304	-142.671	0.221	0.021
-197.290	109.993	0.144	-0.170
-196.275	46.091	0.228	0.209
-195.260	-200.000	-0.007	-0.117
-194.246	295.235	0.114	0.205
-193.231	9.802	0.272	-0.204
-192.217	800.000	-0.053	-0.169
-191.202	-200.000	-0.005	-0.348
-190.187	143.404	0.162	-0.214
-189.173	125.518	0.112	0.139
-188.158	11.051	0.106	0.080
-187.144	800.000	-0.030	-0.090
-186.129	-200.000	0.064	0.375
-185.114	63.138	-0.122	-0.121
-184.100	-200.000	-0.041	0.260
-183.085	12.298	-0.111	-0.085
-182.071	-200.000	0.018	0.144
-181.056	800.000	-0.059	-0.173
-180.042	437.111	0.135	-0.290
-179.027	553.253	-0.039	-0.093
-178.012	17.852	0.154	-0.121
-176.998	276.345	-0.062	0.109
-175.983	-142.153	-0.318	-0.031
-174.969	178.101	0.098	0.142
-173.954	243.651	-0.119	-0.197
-172.939	-141.727	0.045	0.004
-171.925	-171.256	0.088	0.003
-170.910	-24.602	0.197	-0.116
-169.896	-113.331	0.398	0.077
-168.881	502.591	0.126	-0.287
-167.866	795.548	-0.031	0.084
-166.852	800.000	0.098	-0.288
-165.837	-104.387	-0.106	0.024
-164.823	-200.000	0.024	-0.229
-163.808	-2.700	-0.153	-0.105
-162.793	-108.870	-0.231	0.049
-161.779	-23.817	-0.162	-0.096
-160.764	71.725	0.128	-0.131
-159.750	305.588	-0.148	-0.271
-158.735	-9.021	-0.084	0.056
-157.720	187.191	0.084	0.124
-156.706	776.040	-0.129	-0.346
-155.691	-200.000	-0.005	-0.028
-154.677	-200.000	0.079	0.392
-153.662	-62.449	0.287	0.118
-152.647	-39.084	0.324	-0.168
-151.633	-149.714	0.429	-0.033
-150.618	-121.062	0.115	0.019
-149.604	188.886	-0.115	-0.169
-148.589	340.448	0.036	-0.069
-147.574	177.116	0.121	-0.173
-146.560	-200.000	0.009	-0.389
-145.545	-200.000	-0.005	-0.074
-144.531	-24.604	0.324	0.190
-143.516	134.929	-0.247	0.316
-142.502	722.092	-0.075	-0.196
-141.487	112.969	-0.116	-0.139
-140.472	-116.610	0.271	-0.049
-139.458	-55.612	-0.184	0.081
-138.443	-136.667	-0.332	0.038
-137.429	106.525	0.140	-0.163
-136.414	499.994	-0.057	-0.130
-135.399	-200.000	0.018	0.170
-134.385	800.000	-0.034	0.103
-133.370	-91.892	0.103	-0.029
-132.356	-103.342	0.081	-0.019
-131.341	325.146	-0.039	0.074
-130.326	68.403	-0.174	0.176
-129.312	-48.156	0.438	-0.208
-128.297	-200.000	-0.009	-0.109
-127.283	716.608	0.059	0.154
-126.268	397.776	-0.072	-0.148
-125.253	149.877	0.131	0.176
-124.239	800.000	0.036	0.108
-123.224	-200.000	-0.035	-0.546
-122.210	-107.783	-0.319	0.068
-121.195	-110.182	0.282	-0.058
-120.180	39.815	-0.034	-0.030
-119.166	-200.000	-0.014	0.120
-118.151	-22.825	-0.120	0.071
-117.137	-53.737	0.241	0.108
-116.122	89.627	-0.170	0.187
-115.107	-13.260	0.127	-0.081
-114.093	-200.000	0.006	-0.142
-113.078	293.857	0.190	-0.342
-112.064	677.853	-0.044	-0.113
-111.049	80.713	0.175	0.186
-110.034	438.864	0.022	0.048
-109.020	-200.000	-0.061	0.429
-108.005	121.728	-0.022	-0.027
-106.991	800.000	-0.038	0.112
-105.976	-18.933	0.252	0.154
-104.962	590.297	0.119	0.290
-103.947	416.003	-0.118	-0.248
-102.932	-200.000	-0.027	0.155
-101.918	783.579	0.145	0.392
-100.903	-65.512	-0.226	0.089
-99.889	33.121	-0.286	0.244
-98.874	800.000	0.074	-0.213
-97.859	49.550	-0.139	-0.129
-96.845	208.189	-0.038	0.059
-95.830	313.542	0.154	0.285
-94.816	-75.745	0.198	0.069
-93.801	800.000	0.062	0.195
-92.786	-44.226	-0.363	0.179
-91.772	-200.000	-0.096	-0.420
-90.757	-54.989	-0.148	0.066
-89.743	-200.000	-0.008	0.147
-88.728	-133.118	0.206	-0.026
-87.713	-55.166	0.219	0.097
-86.699	-200.000	0.019	0.279
-85.684	-200.000	-0.020	-0.089
-84.670	187.654	-0.090	-0.132
-83.655	80.922	0.292	-0.310
-82.640	6.041	0.164	-0.119
-81.626	-137.412	0.391	0.044
-80.611	458.569	0.023	-0.050
-79.597	800.000	-0.072	0.203
-78.582	800.000	0.054	-0.178
-77.567	-137.500	-0.211	0.023
-76.553	-200.000	-0.042	0.207
-75.538	-200.000	-0.008	-0.518
-74.524	800.000	0.020	0.080
-73.509	-80.511	-0.222	0.073
-72.494	82.628	-0.178	-0.191
-71.480	-11.286	0.234	-0.151
-70.465	146.006	0.122	0.161
-69.451	-141.760	0.094	0.009
-68.436	-200.000	0.009	0.289
-67.422	-200.000	0.008	0.044
-66.407	-200.000	0.026	0.130
-65.392	800.000	-0.066	0.258
-64.378	-137.070	0.190	0.021
-63.363	-178.233	-0.050	0.001
-62.349	-200.000	-0.084	0.000
-61.334	45.805	-1.060	-0.964
-60.319	249.415	0.354	0.589
-59.305	800.000	-0.258	-0.744
-58.290	275.883	0.625	1.090
-57.276	264.509	0.942	1.612
-56.261	-200.000	95.065	596.038
-55.246	684.198	1366.935	3505.178
-54.232	199.485	2549.329	3841.599
-53.217	115.745	2267.454	2725.365
-52.203	41.915	1895.905	1689.781
-51.188	35.530	1685.912	1454.398
-50.173	32.841	1641.638	1396.283
-49.159	50.458	1687.985	1568.154
-48.144	52.065	1704.531	1595.502
-47.130	35.034	1665.937	1433.228
-46.115	32.245	1651.544	1400.051
-45.100	32.191	1646.256	1395.107
-44.086	32.153	1643.776	1392.668
-43.071	32.068	1641.436	1390.000
-42.057	32.104	1638.427	1387.668
-41.042	32.093	1637.210	1386.500
-40.027	32.044	1635.112	1384.308
-39.013	32.005	1633.206	1382.352
-37.998	31.931	1631.710	1380.483
-36.984	32.108	1629.812	1380.123
-35.969	32.194	1628.743	1379.795
-34.954	32.163	1627.419	1378.393
-33.940	32.120	1625.166	1376.115
-32.925	32.183	1623.771	1375.337
-31.911	32.101	1622.193	1373.348
-30.896	32.206	1619.838	1372.069
-29.881	32.128	1618.279	1370.120
-28.867	32.150	1617.244	1369.353
-27.852	32.211	1615.632	1368.379
-26.838	32.214	1613.641	1366.660
-25.823	32.225	1612.425	1365.656
-24.809	32.176	1611.230	1364.234
-23.794	32.313	1609.174	1363.432
-22.779	32.161	1608.424	1361.640
-21.765	32.258	1606.001	1360.239
-20.750	32.186	1605.285	1359.058
-19.736	32.255	1603.940	1358.360
-18.721	32.269	1602.200	1356.938
-17.706	32.228	1600.385	1355.048
-16.692	32.178	1599.310	1353.726
-15.677	32.164	1598.160	1352.596
-14.663	32.289	1596.306	1351.872
-13.648	32.266	1594.842	1350.416
-12.633	32.252	1593.634	1349.237
-11.619	32.268	1591.943	1347.867
-10.604	32.194	1590.792	1346.310
-9.590	32.191	1589.201	1344.886
-8.575	32.289	1587.936	1344.463
-7.560	32.205	1587.011	1343.025
-6.546	32.294	1585.533	1342.360
-5.531	32.239	1584.535	1341.067
-4.517	32.213	1583.352	1339.826
-3.502	32.224	1582.043	1338.742
-2.487	32.382	1580.027	1338.109
-1.473	32.028	1568.737	1325.994
-0.458	29.249	1550.097	1290.753
0.556	25.319	1549.744	1259.260
1.571	22.997	1572.851	1261.368
2.586	22.419	1585.730	1267.427
3.600	19.978	1532.078	1207.439
4.615	12.001	1424.996	1071.004
5.629	5.546	1363.118	983.942
6.644	4.650	1355.214	972.544
7.659	4.558	1353.696	970.795
8.673	4.507	1352.523	969.553
9.688	4.596	1350.726	968.732
10.702	4.488	1347.969	965.996
11.717	7.325	1353.957	987.903
12.731	14.706	1366.967	1043.590
13.746	19.309	1373.756	1077.521
14.761	19.011	1372.092	1074.259
15.775	17.980	1369.205	1065.481
16.790	17.050	1366.602	1057.569
17.804	16.098	1364.585	1049.986
18.819	15.722	1363.267	1046.541
19.834	15.533	1361.908	1044.229
20.848	15.241	1360.736	1041.425
21.863	15.027	1359.708	1039.215
22.877	14.854	1358.319	1036.991
23.892	14.870	1357.458	1036.343
24.907	14.884	1356.597	1035.680
25.921	14.949	1355.328	1035.022
26.936	14.871	1354.798	1034.042
27.950	15.007	1353.685	1033.941
28.965	15.035	1353.021	1033.514
29.980	15.020	1352.082	1032.612
30.994	15.326	1350.435	1033.149
32.009	15.212	1349.959	1031.995
33.023	15.184	1348.291	1030.453
34.038	15.092	1346.922	1028.751
35.053	15.047	1345.045	1026.949
36.067	15.049	1344.503	1026.457
37.082	15.101	1343.794	1026.144
38.096	15.112	1342.931	1025.464
39.111	15.044	1342.355	1024.515
40.126	15.069	1341.110	1023.629
41.140	14.895	1340.343	1021.888
42.155	14.825	1339.969	1021.085
43.169	14.857	1339.208	1020.612
44.184	14.713	1339.449	1019.821
45.199	14.818	1338.670	1019.783
46.213	14.913	1338.070	1019.815
47.228	15.002	1337.521	1019.847
48.242	14.946	1336.267	1018.460
49.257	14.985	1334.949	1017.600
50.271	14.968	1333.338	1016.178
51.286	14.943	1332.210	1015.079
52.301	14.955	1330.828	1014.009
53.315	14.925	1329.669	1012.853
54.330	14.841	1328.894	1011.666
55.344	14.815	1327.438	1010.310
56.359	14.849	1326.573	1009.769
57.374	14.810	1325.570	1008.682
58.388	14.771	1324.697	1007.693
59.403	14.799	1324.245	1007.428
60.417	14.750	1323.255	1006.291
61.432	14.589	1322.756	1004.849
62.447	14.719	1321.434	1004.543
63.461	14.684	1320.376	1003.440
64.476	14.620	1319.651	1002.413
65.490	14.558	1318.337	1000.954
66.505	14.596	1316.419	999.635
67.520	14.671	1315.604	999.379
68.534	14.674	1314.144	998.199
69.549	14.746	1312.970	997.651
70.563	14.709	1312.163	996.730
71.578	14.613	1311.107	995.267
72.593	14.526	1310.459	994.167
73.607	14.538	1309.308	993.278
74.622	14.530	1308.760	992.723
75.636	14.586	1308.072	992.450
76.651	14.560	1307.439	991.728
77.666	14.605	1306.711	991.356
78.680	14.691	1306.500	991.618
79.695	14.626	1305.799	990.611
80.709	14.620	1305.036	989.911
81.724	14.799	1303.946	990.052
82.739	14.899	1303.401	990.145
83.753	14.933	1302.523	989.593
84.768	15.026	1301.553	989.319
85.782	15.070	1300.558	988.732
86.797	15.025	1299.435	987.524
87.812	14.970	1297.938	985.979
88.826	15.100	1296.517	985.577
89.841	14.979	1295.933	984.333
90.855	15.034	1294.897	983.783
91.870	15.041	1294.716	983.596
92.884	15.076	1293.208	982.571
93.899	15.086	1292.466	981.977
94.914	15.094	1292.053	981.623
95.928	15.115	1290.938	980.814
96.943	15.158	1289.989	980.261
97.957	15.119	1289.032	979.215
98.972	14.932	1288.587	977.699
99.987	14.986	1287.693	977.251
101.001	15.010	1286.344	976.281
102.016	15.099	1285.031	975.717
103.030	15.055	1284.227	974.761
104.045	15.076	1283.064	973.913
105.060	15.048	1281.761	972.680
106.074	14.891	1280.514	970.734
107.089	14.810	1279.118	969.121
108.103	14.739	1277.883	967.688
109.118	14.726	1276.689	966.624
110.133	14.850	1275.331	966.225
111.147	14.731	1274.084	964.507
112.162	14.667	1272.993	963.226
113.176	14.915	1271.483	963.425
114.191	14.870	1270.832	962.591
115.206	14.789	1269.786	961.249
116.220	14.789	1268.390	960.106
117.235	14.764	1267.211	958.986
118.249	14.759	1266.412	958.269
119.264	14.793	1264.828	957.176
120.279	14.699	1263.807	955.782
121.293	14.718	1263.036	955.225
122.308	14.635	1262.311	954.115
123.322	14.595	1261.137	952.918
124.337	14.642	1260.107	952.321
125.352	14.635	1259.030	951.381
126.366	14.685	1257.700	950.578
127.381	14.668	1257.002	949.872
128.395	14.680	1256.071	949.152
129.410	14.864	1254.790	949.147
130.424	14.799	1254.141	948.203
131.439	14.822	1253.462	947.732
132.454	14.815	1252.287	946.723
133.468	14.890	1251.176	946.221
134.483	14.755	1251.042	945.276
135.497	14.871	1250.007	945.063
136.512	14.917	1248.658	944.222
137.527	14.885	1247.628	943.177
138.541	14.826	1246.064	941.576
139.556	14.961	1244.860	941.346
140.570	14.957	1243.558	940.256
141.585	15.034	1242.604	939.882
142.600	15.048	1241.581	939.103
143.614	15.107	1240.799	938.758
144.629	15.172	1239.435	938.008
145.643	15.201	1238.725	937.554
146.658	15.012	1236.991	935.101
147.673	14.890	1236.141	933.693
148.687	14.922	1234.693	932.698
149.702	14.881	1233.169	931.233
150.716	14.895	1231.825	930.213
151.731	14.993	1230.588	929.741
152.746	14.927	1229.895	928.768
153.760	15.076	1228.300	928.309
154.775	14.971	1228.030	927.439
155.789	14.985	1226.961	926.631
156.804	15.059	1225.266	925.676
157.819	15.084	1224.813	925.390
158.833	15.089	1223.870	924.627
159.848	15.121	1223.342	924.318
160.862	15.137	1222.394	923.611
161.877	15.122	1220.936	922.343
162.892	14.957	1220.019	920.663
163.906	15.000	1218.990	920.041
164.921	15.027	1217.920	919.300
165.935	15.121	1217.153	919.154
166.950	15.094	1216.387	918.346
167.964	15.105	1215.612	917.741
168.979	15.062	1215.178	917.098
169.994	15.075	1214.138	916.302
171.008	14.998	1213.888	915.609
172.023	15.227	1212.762	915.931
173.037	15.314	1211.754	915.565
174.052	15.346	1210.764	914.911
175.067	15.063	1210.086	912.777
176.081	15.134	1208.573	911.938
177.096	15.076	1208.108	911.194
178.110	15.218	1206.942	911.004
179.125	15.076	1206.015	909.453
180.140	15.149	1204.592	908.693
181.154	15.126	1203.514	907.679
182.169	15.184	1202.256	906.962
183.183	15.394	1201.044	907.102
184.198	15.314	1199.881	905.714
185.213	15.311	1199.019	904.965
186.227	15.422	1197.649	904.452
187.242	15.534	1196.523	904.120
188.256	15.536	1195.755	903.475
189.271	15.391	1195.130	902.141
190.286	15.372	1193.738	900.906
191.300	15.209	1192.755	899.214
192.315	15.096	1192.205	898.109
193.329	15.097	1191.389	897.423
194.344	15.161	1190.595	897.086
195.359	15.261	1190.472	897.452
196.373	15.354	1189.906	897.442
197.388	15.384	1189.635	897.319
198.402	15.533	1189.094	897.627
199.417	15.729	1188.620	898.238
200.432	15.655	1187.826	897.161
201.446	15.750	1186.833	896.838
202.461	15.796	1185.816	896.238
203.475	15.739	1185.101	895.313
204.490	15.593	1183.572	893.302
205.504	15.576	1182.293	892.168
206.519	15.651	1181.058	891.559
207.534	15.541	1180.223	890.262
208.548	15.600	1179.086	889.641
209.563	15.516	1178.949	889.013
210.577	15.662	1177.734	888.788
211.592	15.626	1176.710	887.749
212.607	15.871	1175.461	888.021
213.621	15.816	1174.520	886.942
214.636	15.798	1173.860	886.268
215.650	15.773	1173.443	885.746
216.665	15.712	1172.840	884.892
217.680	15.812	1171.466	884.299
218.694	15.849	1170.820	883.928
219.709	15.901	1170.124	883.598
220.723	15.855	1169.600	882.883
221.738	15.925	1168.543	882.375
222.753	15.776	1167.855	880.994
223.767	15.699	1167.679	880.380
224.782	15.928	1166.898	880.915
225.796	16.077	1165.963	880.909
226.811	15.969	1165.583	879.980
227.826	15.866	1164.676	878.678
228.840	16.022	1163.612	878.613
229.855	15.876	1163.174	877.443
230.869	15.906	1162.649	877.125
231.884	15.829	1161.489	875.774
232.899	15.955	1160.471	875.580
233.913	15.870	1160.076	874.766
234.928	15.836	1159.316	873.937
235.942	15.729	1158.959	873.037
236.957	15.883	1157.585	872.722
237.972	15.805	1156.878	871.709
238.986	15.871	1156.108	871.393
240.001	15.839	1155.561	870.736
241.015	15.924	1154.758	870.496
242.030	15.994	1153.920	870.148
243.045	16.040	1153.247	869.800
244.059	15.944	1152.420	868.605
245.074	16.256	1151.225	869.232
246.088	16.174	1150.654	868.303
247.103	16.091	1150.120	867.399
248.117	16.093	1149.550	866.899
249.132	16.279	1149.234	867.543
250.147	16.385	1148.242	867.262
251.161	16.466	1147.077	866.717
252.176	16.432	1147.072	866.466
253.190	16.503	1146.342	866.202
254.205	16.623	1145.516	866.113
255.220	16.576	1144.737	865.207
256.234	16.586	1144.175	864.755
257.249	16.641	1143.584	864.515
258.263	16.470	1143.021	863.141
259.278	16.610	1142.368	863.284
260.293	16.612	1141.822	862.808
261.307	16.663	1141.007	862.374
262.322	16.626	1140.737	861.907
263.336	16.692	1139.946	861.563
264.351	16.761	1139.174	861.255
265.366	16.822	1138.507	860.987
266.380	16.773	1137.616	859.988
267.395	16.676	1136.807	858.811
268.409	16.616	1136.395	858.114
269.424	16.682	1135.407	857.629
270.439	16.686	1135.118	857.354
271.453	16.659	1134.155	856.418
272.468	16.507	1133.378	854.986
273.482	16.705	1132.432	855.195
274.497	16.528	1132.320	854.141
275.512	16.679	1131.469	854.185
276.526	16.690	1130.392	853.351
277.541	16.658	1129.995	852.814
278.555	16.723	1129.357	852.587
279.570	16.812	1128.501	852.311
280.585	16.856	1127.762	851.897
281.599	16.820	1126.911	851.000
282.614	16.822	1125.948	850.208
283.628	16.856	1124.601	849.286
284.643	16.775	1123.838	848.232
285.657	16.683	1123.529	847.462
286.672	16.843	1121.916	846.971
287.687	16.871	1120.904	846.268
288.701	16.870	1120.603	845.961
289.716	16.885	1119.650	845.242
290.730	16.939	1119.107	845.025
291.745	16.923	1118.531	844.439
292.760	16.982	1117.667	844.007
293.774	16.917	1117.468	843.457
294.789	16.935	1117.079	843.179
295.803	17.029	1116.153	842.872
296.818	16.940	1114.984	841.470
297.833	16.916	1114.302	840.762
298.847	16.879	1114.144	840.387
299.862	17.087	1112.686	840.241
300.876	16.952	1112.504	839.361
301.891	17.109	1111.570	839.358
302.906	17.120	1111.060	838.953
303.920	17.197	1110.352	838.727
304.935	17.150	1109.826	838.023
305.949	17.414	1108.760	838.445
306.964	17.292	1108.229	837.366
307.979	17.250	1107.699	836.687
308.993	17.297	1106.978	836.301
310.008	17.293	1106.425	835.789
311.022	17.312	1105.383	835.023
312.037	17.347	1104.332	834.324
313.052	17.294	1103.579	833.419
314.066	17.136	1102.608	831.839
315.081	17.065	1101.886	830.873
316.095	17.010	1101.542	830.273
317.110	17.135	1100.492	830.017
318.125	17.084	1100.201	829.476
319.139	17.175	1099.204	829.098
320.154	17.264	1098.701	829.078
321.168	17.208	1098.037	828.231
322.183	17.112	1097.575	827.338
323.197	17.113	1096.800	826.687
324.212	17.230	1096.170	826.709
325.227	17.215	1095.863	826.331
326.241	17.194	1095.333	825.757
327.256	17.301	1093.999	825.196
328.270	17.233	1093.256	824.233
329.285	17.255	1092.251	823.511
330.300	17.328	1090.979	822.834
331.314	17.346	1090.388	822.398
332.329	17.383	1089.469	821.811
333.343	17.355	1088.364	820.772
334.358	17.433	1087.804	820.653
335.373	17.413	1087.364	820.150
336.387	17.502	1086.376	819.760
337.402	17.416	1086.114	819.080
338.416	17.491	1085.255	818.719
339.431	17.559	1084.686	818.544
340.446	17.630	1084.026	818.312
341.460	17.734	1083.110	818.051
342.475	17.884	1082.383	818.145
343.489	17.686	1081.970	816.814
344.504	17.813	1080.708	816.397
345.519	17.942	1079.671	816.155
346.533	17.963	1079.199	815.831
347.548	17.895	1078.868	815.180
348.562	17.895	1077.859	814.347
349.577	17.778	1077.321	813.313
350.592	17.773	1076.178	812.350
351.606	17.656	1075.762	811.408
352.621	17.655	1074.825	810.625
353.635	17.608	1074.340	809.966
354.650	17.641	1073.671	809.546
355.665	17.675	1072.581	808.815
356.679	17.828	1071.812	808.885
357.694	17.855	1071.469	808.686
358.708	17.879	1070.827	808.241
359.723	17.798	1070.379	807.450
360.738	17.833	1069.929	807.205
361.752	17.926	1069.069	806.921
362.767	17.808	1068.785	806.079
363.781	17.953	1068.148	806.214
364.796	17.888	1067.881	805.635
365.810	17.971	1067.149	805.401
366.825	18.064	1066.720	805.446
367.840	18.087	1065.961	804.910
368.854	18.257	1065.185	805.051
369.869	18.254	1064.741	804.629
370.883	18.210	1063.675	803.546
371.898	18.102	1063.084	802.523
372.913	18.110	1062.465	802.023
373.927	18.160	1061.826	801.701
374.942	18.270	1061.200	801.673
375.956	18.270	1060.853	801.341
376.971	18.142	1060.522	800.418
377.986	18.325	1059.642	800.540
379.000	18.293	1059.238	800.014
380.015	18.275	1058.779	799.514
381.029	18.333	1058.040	799.155
382.044	18.409	1057.075	798.712
383.059	18.364	1056.563	798.044
384.073	18.545	1055.540	798.043
385.088	18.419	1054.750	796.789
386.102	18.346	1054.275	796.020
387.117	18.344	1052.824	794.848
388.132	18.314	1051.866	793.912
389.146	18.260	1050.872	792.843
390.161	18.359	1050.118	792.659
391.175	18.376	1049.530	792.226
392.190	18.315	1049.226	791.646
393.205	18.455	1048.446	791.633
394.219	18.487	1047.726	791.166
395.234	18.491	1046.545	790.226
396.248	18.441	1046.012	789.522
397.263	18.342	1044.820	788.096
398.278	18.200	1044.488	787.123
399.292	18.339	1043.540	786.975
400.307	18.177	1042.747	785.565
401.321	18.270	1042.117	785.447
402.336	18.378	1041.299	785.257
403.350	18.429	1040.328	784.687
404.365	18.426	1039.913	784.292
405.380	18.395	1039.151	783.509
406.394	18.426	1038.436	783.041
407.409	18.619	1037.595	783.218
408.423	18.560	1037.153	782.547
409.438	18.709	1036.483	782.650
410.453	18.764	1035.915	782.403
411.467	18.746	1035.452	781.902
412.482	18.675	1034.883	781.082
413.496	18.798	1033.718	780.691
414.511	18.832	1033.598	780.685
415.526	18.938	1032.817	780.506
416.540	18.903	1032.751	780.228
417.555	18.870	1032.322	779.685
418.569	18.844	1031.446	778.839
419.584	18.958	1030.976	778.931
420.599	18.913	1030.639	778.406
421.613	150.699	1400.772	1794.121
422.628	137.496	1454.700	1794.206
