DTS Sentinel unit serial number:	SN413079Multiplexer serial number:	ORYXHardware model number:	OX4-SRSoftware version number:	ORYX F/W v4.00 Oryx Data Collector v3.7.2.0data status	okinstallation	princeton_trtdifferential loss correction	single-endedforward channel	channel 2reverse channel	N/Adate	2019/09/15time	04:15:34forward acquisition time	60.00reverse acquisition time	0.00gamma	496.2192k internal	0.2325k external	0.2325temperature offset calibration	1.0030default loss term (dB/km)	0.3790temperature slope calibration	1.0000multiplexer offset coefficient	1.0000multiplexer slope coefficient	1.0000fibre end	0.00T internal ref (°C)	30.92T ext. ref 1 (°C)	4.64T ext. ref 2 (°C)	25.71length (m)	temperature (°C)	Stokes	anti-Stokes-747.200	-26.681	-0.258	0.152
-746.185	-74.832	0.225	-0.081
-745.171	-172.451	-0.306	-0.010
-744.156	-123.199	-0.411	0.066
-743.142	-200.000	-0.026	0.181
-742.127	73.578	-0.340	0.359
-741.112	-138.199	-0.377	-0.042
-740.098	297.111	-0.035	-0.064
-739.083	-58.409	-0.097	0.042
-738.069	-38.718	-0.451	0.240
-737.054	-87.000	0.396	-0.122
-736.039	-200.000	-0.022	-0.402
-735.025	-200.000	0.038	0.224
-734.010	32.043	0.037	-0.032
-732.996	-73.716	0.330	0.121
-731.981	-200.000	0.004	0.124
-730.966	-200.000	0.048	-0.344
-729.952	-94.850	0.033	0.009
-728.937	7.297	-0.226	-0.170
-727.923	50.886	-0.097	-0.093
-726.908	19.046	-0.150	0.122
-725.894	-200.000	0.048	-0.227
-724.879	469.817	0.045	-0.101
-723.864	-200.000	-0.005	-0.196
-722.850	-82.003	-0.510	-0.168
-721.835	-7.770	0.093	-0.064
-720.821	-141.106	-0.279	0.029
-719.806	-34.921	-0.061	0.034
-718.791	222.080	0.153	0.248
-717.777	-2.867	-0.205	0.145
-716.762	14.770	-0.067	0.052
-715.748	70.656	-0.141	0.147
-714.733	-200.000	-0.512	0.002
-713.718	-117.833	-0.131	-0.024
-712.704	-78.172	-0.295	-0.102
-711.689	800.000	0.051	0.188
-710.675	-11.001	-0.078	0.052
-709.660	231.742	0.073	-0.121
-708.645	-9.330	-0.120	-0.081
-707.631	-200.000	0.024	0.160
-706.616	211.332	-0.068	-0.108
-705.602	280.511	-0.051	-0.091
-704.587	-56.374	-0.235	-0.105
-703.572	800.000	-0.038	0.152
-702.558	22.277	0.095	0.078
-701.543	-31.818	0.207	-0.117
-700.529	-167.316	-0.435	-0.018
-699.514	-96.266	0.118	-0.031
-698.499	214.484	0.112	-0.179
-697.485	150.007	0.173	0.236
-696.470	104.797	-0.211	-0.250
-695.456	-34.683	0.291	0.161
-694.441	77.592	-0.191	0.205
-693.426	800.000	0.020	-0.067
-692.412	-200.000	-0.033	-0.509
-691.397	6.400	0.112	-0.084
-690.383	402.487	0.040	-0.084
-689.368	-51.194	-0.293	0.138
-688.354	330.343	-0.094	-0.182
-687.339	-173.766	0.136	0.004
-686.324	800.000	-0.045	-0.146
-685.310	169.824	0.189	-0.272
-684.295	-92.908	-0.151	-0.042
-683.281	385.040	0.057	-0.118
-682.266	800.000	0.042	-0.137
-681.251	800.000	-0.061	0.203
-680.237	-200.000	-0.054	-0.319
-679.222	-200.000	-0.024	0.214
-678.208	800.000	-0.077	-0.303
-677.193	254.516	0.075	-0.130
-676.178	-160.629	-0.235	0.013
-675.164	-43.682	-0.403	0.205
-674.149	-200.000	0.007	0.183
-673.135	83.340	-0.230	0.252
-672.120	153.150	-0.202	-0.278
-671.105	-25.208	-0.351	0.209
-670.091	1.250	0.342	-0.247
-669.076	-200.000	-0.038	0.170
-668.062	-93.353	-0.114	0.032
-667.047	-200.000	-0.354	0.001
-666.032	-200.000	-0.004	0.203
-665.018	-79.480	0.202	0.069
-664.003	766.088	-0.091	0.250
-662.989	-56.077	-0.265	0.119
-661.974	-53.645	-0.399	-0.183
-660.959	-43.920	-0.439	-0.222
-659.945	95.314	0.189	0.216
-658.930	416.396	-0.075	-0.160
-657.916	104.400	0.165	-0.195
-656.901	-68.043	-0.328	0.129
-655.886	-40.371	-0.116	-0.060
-654.872	800.000	0.050	-0.191
-653.857	-59.899	-0.171	-0.074
-652.843	-138.240	-0.135	0.015
-651.828	-19.534	-0.200	-0.125
-650.814	461.728	0.043	0.097
-649.799	173.946	0.061	-0.089
-648.784	-200.000	0.065	-0.301
-647.770	-31.630	-0.109	0.062
-646.755	125.634	0.196	-0.248
-645.741	-200.000	-0.053	-0.238
-644.726	79.962	-0.192	-0.207
-643.711	700.162	-0.053	0.140
-642.697	-12.028	0.115	0.076
-641.682	139.459	-0.161	0.213
-640.668	49.599	-0.188	0.178
-639.653	422.890	-0.036	-0.077
-638.638	-200.000	-0.027	-0.149
-637.624	-1.995	-0.434	0.307
-636.609	800.000	-0.077	0.238
-635.595	-32.875	0.280	-0.156
-634.580	119.749	0.064	-0.079
-633.565	-66.276	-0.277	-0.111
-632.551	-168.336	0.136	0.005
-631.536	427.722	-0.074	-0.161
-630.522	-32.796	-0.400	0.223
-629.507	-12.508	0.206	0.135
-628.492	175.826	0.155	-0.225
-627.478	-102.894	0.282	-0.067
-626.463	-90.021	-0.416	-0.122
-625.449	800.000	-0.065	0.199
-624.434	-123.529	0.269	0.043
-623.419	130.554	-0.017	-0.021
-622.405	-86.387	0.279	0.086
-621.390	-65.941	0.067	-0.027
-620.376	-43.267	0.216	-0.110
-619.361	253.957	0.110	0.189
-618.346	-137.623	-0.417	-0.047
-617.332	-93.258	-0.482	-0.135
-616.317	-189.481	-0.489	-0.006
-615.303	27.746	-0.089	0.076
-614.288	-194.451	0.194	0.002
-613.273	-15.488	0.268	-0.172
-612.259	-4.687	-0.048	-0.033
-611.244	-200.000	-0.013	0.235
-610.230	800.000	-0.018	-0.076
-609.215	-114.599	-0.101	-0.019
-608.201	-8.085	0.096	0.065
-607.186	640.618	-0.027	0.068
-606.171	-106.226	-0.090	0.020
-605.157	6.103	0.163	-0.121
-604.142	-108.027	0.264	-0.057
-603.128	800.000	-0.047	0.167
-602.113	800.000	-0.043	0.183
-601.098	-200.000	-0.056	0.284
-600.084	800.000	0.014	0.045
-599.069	77.784	0.058	0.062
-598.055	44.090	0.166	0.153
-597.040	43.556	-0.165	-0.151
-596.025	49.343	0.204	-0.193
-595.011	-112.742	-0.051	-0.010
-593.996	-81.662	-0.002	-0.001
-592.982	496.020	-0.181	-0.416
-591.967	-200.000	-0.002	-0.269
-590.952	25.730	0.255	0.213
-589.938	69.779	-0.253	0.262
-588.923	-200.000	-0.049	-0.350
-587.909	57.171	0.210	0.206
-586.894	-200.000	-0.038	0.335
-585.879	-181.775	0.350	0.007
-584.865	800.000	0.087	0.279
-583.850	-107.710	0.321	0.070
-582.836	-125.100	0.019	-0.003
-581.821	800.000	0.054	0.197
-580.806	-34.585	-0.179	0.098
-579.792	-134.514	-0.171	0.021
-578.777	100.280	-0.249	0.290
-577.763	54.085	0.185	-0.179
-576.748	45.542	0.078	0.072
-575.733	-67.179	-0.170	0.067
-574.719	-104.506	0.106	0.025
-573.704	54.599	-0.119	0.115
-572.690	-200.000	0.310	0.000
-571.675	-108.724	0.471	0.101
-570.661	61.217	-0.028	-0.028
-569.646	800.000	-0.052	-0.208
-568.631	800.000	0.083	0.339
-567.617	-200.000	0.047	0.278
-566.602	43.222	-0.385	0.352
-565.588	9.063	0.085	-0.064
-564.573	-86.541	-0.387	-0.119
-563.558	462.683	0.113	0.254
-562.544	-29.131	-0.070	-0.040
-561.529	-200.000	0.049	0.227
-560.515	-63.073	0.209	-0.086
-559.500	-50.778	-0.095	-0.045
-558.485	222.570	0.111	-0.179
-557.471	-136.581	-0.285	-0.033
-556.456	255.143	-0.103	-0.176
-555.442	658.167	-0.012	-0.032
-554.427	-109.670	0.274	-0.058
-553.412	-152.719	-0.176	0.013
-552.398	-50.820	-0.386	0.182
-551.383	-200.000	0.038	-0.198
-550.369	146.614	-0.175	-0.235
-549.354	-200.000	0.015	0.106
-548.339	98.976	-0.148	0.171
-547.325	48.213	0.157	0.147
-546.310	800.000	-0.091	-0.259
-545.296	-200.000	0.008	0.114
-544.281	800.000	-0.050	0.211
-543.266	-84.505	-0.349	-0.110
-542.252	800.000	0.087	-0.248
-541.237	46.017	-0.255	0.236
-540.223	-200.000	-0.002	0.150
-539.208	218.693	0.105	-0.169
-538.193	159.018	-0.211	-0.293
-537.179	-22.053	-0.143	0.087
-536.164	254.672	-0.224	0.383
-535.150	-200.000	0.004	0.054
-534.135	-54.341	0.167	0.076
-533.121	37.922	-0.211	0.188
-532.106	352.552	-0.044	-0.088
-531.091	-96.308	-0.216	-0.057
-530.077	-200.000	0.000	0.167
-529.062	-69.030	0.362	-0.139
-528.048	-200.000	0.077	0.504
-527.033	155.107	0.115	0.158
-526.018	-26.585	0.137	-0.080
-525.004	15.489	0.227	-0.179
-523.989	-200.000	0.013	0.230
-522.975	-200.000	0.007	-0.288
-521.960	-58.685	0.201	0.087
-520.945	-9.655	0.136	0.091
-519.931	105.185	-0.314	0.371
-518.916	800.000	-0.141	-0.447
-517.902	237.830	0.078	-0.129
-516.887	-200.000	0.006	-0.098
-515.872	-107.757	0.394	0.086
-514.858	-73.443	0.191	0.070
-513.843	-126.987	0.460	-0.068
-512.829	-140.971	-0.194	0.020
-511.814	-9.253	-0.140	0.094
-510.799	255.939	-0.119	-0.204
-509.785	730.916	-0.082	0.219
-508.770	-13.560	-0.236	-0.153
-507.756	-109.110	0.079	-0.017
-506.741	199.981	0.161	-0.247
-505.726	800.000	0.039	-0.133
-504.712	136.255	-0.121	-0.157
-503.697	-84.554	-0.235	0.074
-502.683	-190.829	-0.288	0.003
-501.668	157.314	-0.107	-0.148
-500.653	335.789	-0.159	-0.308
-499.639	-145.843	0.171	-0.015
-498.624	353.042	0.137	0.271
-497.610	55.510	0.083	0.080
-496.595	-200.000	-0.002	-0.058
-495.581	9.709	0.144	0.109
-494.566	-3.878	0.235	-0.163
-493.551	-172.560	-0.239	0.008
-492.537	-200.000	-0.020	-0.320
-491.522	84.957	-0.061	-0.067
-490.508	17.556	0.308	0.245
-489.493	110.134	0.125	0.150
-488.478	711.778	0.057	-0.150
-487.464	297.743	-0.122	-0.224
-486.449	-47.704	0.278	0.135
-485.435	-200.000	0.007	0.053
-484.420	-151.657	0.094	-0.007
-483.405	800.000	0.067	0.190
-482.391	146.276	0.084	0.112
-481.376	-200.000	-0.022	-0.110
-480.362	429.780	-0.036	0.078
-479.347	139.052	-0.131	-0.172
-478.332	800.000	-0.077	-0.270
-477.318	-186.631	0.285	-0.004
-476.303	-145.896	-0.207	0.018
-475.289	-67.461	0.185	-0.073
-474.274	106.297	0.090	0.107
-473.259	-200.000	0.003	0.035
-472.245	-36.906	-0.135	-0.072
-471.230	52.880	0.181	0.173
-470.216	-200.000	0.023	-0.110
-469.201	-30.148	-0.223	-0.127
-468.186	11.178	0.394	0.301
-467.172	-33.585	0.117	0.064
-466.157	-34.907	-0.116	0.063
-465.143	-71.371	0.131	-0.049
-464.128	70.435	-0.018	0.018
-463.113	-40.015	0.148	0.077
-462.099	-88.527	0.118	0.035
-461.084	-112.590	-0.031	-0.006
-460.070	-119.395	-0.510	0.088
-459.055	335.363	-0.126	-0.244
-458.040	-117.581	-0.198	0.036
-457.026	289.676	-0.056	0.101
-456.011	302.484	0.092	0.169
-454.997	45.168	0.062	-0.057
-453.982	-13.316	-0.208	0.135
-452.968	100.099	-0.074	0.085
-451.953	117.706	-0.307	-0.377
-450.938	6.679	0.059	0.044
-449.924	-140.582	0.101	-0.010
-448.909	-145.415	-0.282	0.025
-447.895	-63.211	0.069	0.028
-446.880	800.000	0.129	0.358
-445.865	-160.787	0.223	-0.012
-444.851	-11.830	0.174	-0.114
-443.836	19.148	0.072	-0.057
-442.822	65.566	0.074	0.075
-441.807	-64.266	-0.189	0.077
-440.792	-12.797	0.085	-0.055
-439.778	479.747	0.048	0.108
-438.763	-153.887	0.279	-0.019
-437.749	-200.000	0.008	-0.252
-436.734	800.000	0.086	-0.333
-435.719	2.267	0.061	0.044
-434.705	-161.744	-0.234	-0.012
-433.690	129.354	-0.138	0.176
-432.676	-64.625	0.247	0.100
-431.661	-200.000	-0.024	0.110
-430.646	-96.128	-0.090	-0.024
-429.632	-200.000	-0.001	-0.145
-428.617	-108.569	0.157	-0.034
-427.603	-129.994	-0.102	-0.014
-426.588	-45.296	-0.213	0.106
-425.573	-200.000	-0.012	-0.295
-424.559	4.008	-0.399	-0.291
-423.544	-84.258	0.064	-0.020
-422.530	-98.147	-0.218	-0.056
-421.515	57.277	0.048	0.046
-420.500	42.195	0.091	0.082
-419.486	-128.964	-0.342	-0.048
-418.471	1.355	0.136	-0.097
-417.457	-81.389	0.115	0.038
-416.442	-36.033	0.163	-0.088
-415.428	-29.258	0.151	0.086
-414.413	800.000	-0.025	0.071
-413.398	301.565	0.063	0.117
-412.384	-32.323	-0.026	0.015
-411.369	-29.642	-0.047	-0.027
-410.355	0.444	-0.228	0.162
-409.340	800.000	-0.113	-0.334
-408.325	262.660	0.015	0.026
-407.311	91.361	-0.020	0.022
-406.296	800.000	-0.043	-0.164
-405.282	154.123	0.145	0.198
-404.267	535.243	0.098	-0.231
-403.252	85.616	0.057	0.062
-402.238	671.551	-0.038	-0.099
-401.223	328.641	0.070	0.133
-400.209	-76.280	0.262	-0.092
-399.194	-200.000	0.008	0.104
-398.179	239.990	0.175	0.290
-397.165	46.099	-0.358	-0.330
-396.150	-200.000	-0.006	-0.084
-395.136	533.108	-0.097	0.228
-394.121	-78.554	0.279	-0.095
-393.106	40.629	0.231	0.208
-392.092	90.913	-0.132	0.147
-391.077	105.605	0.109	0.128
-390.063	6.499	0.036	-0.027
-389.048	-200.000	-0.031	-0.217
-388.033	6.466	0.176	-0.130
-387.019	-200.000	0.023	-0.499
-386.004	48.433	0.409	0.381
-384.990	178.112	0.147	-0.214
-383.975	165.198	0.140	0.197
-382.960	-200.000	-0.044	-0.289
-381.946	-200.000	0.015	0.230
-380.931	566.810	0.020	0.047
-379.917	63.421	0.078	0.078
-378.902	800.000	0.047	0.152
-377.888	272.912	-0.065	0.115
-376.873	85.173	0.214	-0.233
-375.858	-200.000	0.026	-0.214
-374.844	-200.000	0.006	-0.323
-373.829	-46.074	-0.094	-0.046
-372.815	-30.593	-0.183	0.103
-371.800	-26.283	0.232	0.135
-370.785	-82.860	0.109	0.035
-369.771	-200.000	-0.055	-0.251
-368.756	800.000	0.023	-0.089
-367.742	17.647	-0.068	-0.054
-366.727	-6.896	-0.166	0.112
-365.712	-200.000	-0.052	-0.521
-364.698	191.366	-0.022	-0.033
-363.683	-140.398	-0.340	0.035
-362.669	65.826	-0.094	0.095
-361.654	359.856	0.081	0.162
-360.639	-108.890	0.099	0.021
-359.625	531.865	0.059	0.140
-358.610	800.000	-0.062	-0.201
-357.596	-166.655	-0.201	0.008
-356.581	135.396	-0.110	-0.143
-355.566	-41.667	0.372	-0.190
-354.552	-46.613	0.128	-0.062
-353.537	-72.513	0.065	-0.024
-352.523	-42.837	0.331	0.167
-351.508	-200.000	-0.057	-0.302
-350.493	53.892	0.209	0.200
-349.479	-50.538	-0.230	-0.108
-348.464	231.245	0.026	0.042
-347.450	-200.000	-0.012	-0.267
-346.435	257.722	-0.156	0.266
-345.420	-95.963	0.169	0.045
-344.406	-200.000	-0.006	0.085
-343.391	388.225	-0.140	-0.288
-342.377	-46.227	-0.188	0.092
-341.362	-200.000	-0.047	0.270
-340.348	82.551	-0.329	0.354
-339.333	251.929	-0.021	0.036
-338.318	183.516	-0.111	0.163
-337.304	81.150	-0.158	-0.170
-336.289	-63.906	-0.276	0.112
-335.275	-94.413	-0.265	-0.072
-334.260	-17.083	0.493	-0.309
-333.245	491.796	0.174	0.396
-332.231	226.860	0.259	0.417
-331.216	-200.000	-0.024	0.364
-330.202	542.537	0.048	0.114
-329.187	324.126	-0.103	-0.195
-328.172	-145.816	-0.323	0.029
-327.158	-39.250	-0.152	0.079
-326.143	242.412	0.109	-0.182
-325.129	157.390	0.057	0.078
-324.114	800.000	0.022	-0.069
-323.099	-90.385	-0.301	0.087
-322.085	66.031	0.047	-0.047
-321.070	-5.959	-0.375	0.255
-320.056	532.399	-0.075	-0.175
-319.041	472.698	0.095	-0.213
-318.026	20.202	0.064	-0.051
-317.012	-200.000	-0.003	-0.376
-315.997	328.686	-0.091	0.174
-314.983	50.379	-0.245	-0.230
-313.968	-53.418	0.105	-0.048
-312.953	680.411	-0.050	0.128
-311.939	-166.298	0.225	0.009
-310.924	-126.908	0.278	-0.041
-309.910	-200.000	-0.016	-0.157
-308.895	800.000	0.047	-0.169
-307.880	415.903	0.033	-0.070
-306.866	-38.508	0.142	0.074
-305.851	656.668	0.081	0.207
-304.837	392.129	-0.097	0.199
-303.822	-104.185	-0.172	0.040
-302.807	-146.571	0.057	0.005
-301.793	196.568	0.137	0.207
-300.778	287.532	0.121	0.218
-299.764	-1.719	-0.185	0.129
-298.749	40.889	0.513	-0.459
-297.735	432.208	-0.023	-0.049
-296.720	800.000	0.045	0.137
-295.705	-200.000	-0.027	-0.156
-294.691	-156.967	-0.185	0.011
-293.676	599.163	-0.052	0.127
-292.662	-29.666	0.250	-0.141
-291.647	-107.976	-0.184	-0.040
-290.632	-61.307	0.227	0.095
-289.618	266.411	0.082	0.143
-288.603	800.000	0.016	0.054
-287.589	-111.022	0.317	-0.064
-286.574	-106.363	-0.129	-0.028
-285.559	800.000	-0.163	-0.483
-284.545	108.157	0.129	-0.152
-283.530	-3.327	0.157	-0.108
-282.516	280.914	0.023	-0.042
-281.501	-136.518	-0.424	-0.049
-280.486	-121.428	-0.295	0.049
-279.472	-200.000	-0.013	-0.218
-278.457	-105.122	-0.315	0.071
-277.443	82.553	0.092	-0.099
-276.428	-69.866	-0.173	0.066
-275.413	800.000	0.191	0.562
-274.399	-61.839	0.344	0.143
-273.384	101.705	0.169	-0.196
-272.370	20.864	-0.188	-0.151
-271.355	-94.730	0.293	0.079
-270.340	405.815	0.125	0.262
-269.326	-200.000	0.004	0.275
-268.311	-14.772	-0.100	0.064
-267.297	336.589	0.110	-0.212
-266.282	-200.000	0.129	-0.000
-265.267	-116.750	-0.138	-0.025
-264.253	265.563	0.158	-0.273
-263.238	-51.532	-0.228	0.105
-262.224	-200.000	0.014	-0.233
-261.209	-136.715	-0.258	0.029
-260.195	550.374	0.094	0.223
-259.180	800.000	0.014	-0.054
-258.165	-6.989	0.283	-0.190
-257.151	-88.757	-0.149	0.044
-256.136	99.084	-0.061	-0.070
-255.122	443.093	0.052	0.112
-254.107	-72.141	0.102	0.038
-253.092	-200.000	-0.022	-0.231
-252.078	800.000	0.011	0.030
-251.063	40.389	0.133	-0.118
-250.049	-200.000	0.043	0.325
-249.034	52.283	-0.056	-0.053
-248.019	-76.217	0.160	0.056
-247.005	-200.000	0.008	-0.259
-245.990	-200.000	0.005	0.137
-244.976	21.110	0.204	0.164
-243.961	800.000	-0.023	-0.069
-242.946	-73.691	0.090	0.033
-241.932	800.000	0.063	-0.212
-240.917	428.411	-0.105	-0.225
-239.903	-35.544	0.164	0.088
-238.888	307.984	-0.203	0.375
-237.873	135.434	0.044	-0.057
-236.859	-101.929	-0.139	-0.033
-235.844	61.374	-0.072	0.071
-234.830	-15.826	0.096	0.061
-233.815	187.194	0.118	0.175
-232.800	800.000	0.092	0.281
-231.786	-129.202	0.176	-0.024
-230.771	182.585	0.098	-0.143
-229.757	132.522	-0.208	-0.265
-228.742	216.975	-0.046	0.072
-227.727	800.000	0.070	-0.246
-226.713	390.831	0.019	0.040
-225.698	-200.000	0.034	0.280
-224.684	-37.604	-0.202	0.106
-223.669	-200.000	-0.001	-0.007
-222.655	-139.736	-0.196	-0.021
-221.640	175.850	-0.130	0.187
-220.625	800.000	0.156	0.442
-219.611	493.946	-0.071	-0.161
-218.596	-31.452	0.258	0.144
-217.582	-149.072	-0.144	-0.011
-216.567	28.814	-0.167	-0.140
-215.552	28.407	-0.108	0.090
-214.538	-68.770	-0.056	-0.021
-213.523	-114.079	-0.318	-0.061
-212.509	800.000	-0.025	-0.082
-211.494	-76.640	-0.162	-0.056
-210.479	28.258	0.005	0.004
-209.465	175.473	0.083	-0.119
-208.450	-88.499	-0.353	0.104
-207.436	-122.615	-0.189	0.030
-206.421	-18.847	-0.068	-0.042
-205.406	-11.606	0.152	-0.098
-204.392	43.806	-0.173	0.156
-203.377	385.648	-0.129	-0.264
-202.363	-79.153	0.153	0.051
-201.348	568.484	0.019	0.045
-200.333	235.950	0.101	0.166
-199.319	2.406	-0.168	-0.120
-198.304	39.545	-0.283	-0.251
-197.290	104.750	-0.027	0.031
-196.275	-200.000	0.086	-0.464
-195.260	800.000	-0.033	-0.127
-194.246	-118.693	-0.137	-0.024
-193.231	227.272	-0.143	-0.230
-192.217	165.673	-0.181	0.252
-191.202	800.000	-0.075	0.254
-190.187	800.000	-0.086	0.276
-189.173	-200.000	-0.044	-0.256
-188.158	381.452	0.043	-0.087
-187.144	-200.000	-0.077	-0.359
-186.129	-200.000	-0.055	0.246
-185.114	800.000	0.106	0.397
-184.100	230.382	-0.103	0.166
-183.085	-122.365	0.261	0.042
-182.071	-118.024	0.399	0.070
-181.056	-200.000	-0.099	-0.571
-180.042	800.000	-0.051	-0.167
-179.027	-138.359	0.282	0.031
-178.012	34.529	-0.073	-0.063
-176.998	-92.631	0.200	-0.055
-175.983	561.114	-0.090	0.215
-174.969	-112.945	-0.238	0.046
-173.954	686.605	0.053	0.135
-172.939	-40.878	0.397	-0.203
-171.925	-112.784	-0.231	0.045
-170.910	78.039	-0.111	-0.117
-169.896	800.000	0.023	0.082
-168.881	197.214	-0.269	0.406
-167.866	255.753	0.024	-0.040
-166.852	800.000	0.062	0.254
-165.837	-52.259	0.246	-0.113
-164.823	-200.000	-0.029	-0.370
-163.808	800.000	-0.045	-0.136
-162.793	-200.000	-0.028	-0.130
-161.779	497.087	0.133	-0.301
-160.764	-105.308	0.175	0.039
-159.750	-36.084	-0.116	-0.062
-158.735	-200.000	-0.025	-0.163
-157.720	-71.519	0.353	-0.130
-156.706	137.544	0.069	-0.089
-155.691	-200.000	0.297	0.001
-154.677	-159.677	-0.210	-0.011
-153.662	-200.000	0.002	-0.016
-152.647	-200.000	-0.009	0.114
-151.633	-200.000	0.048	0.226
-150.618	169.504	0.111	-0.156
-149.604	-66.592	0.187	0.073
-148.589	-78.957	0.057	-0.019
-147.574	800.000	0.035	0.142
-146.560	39.585	0.221	0.195
-145.545	80.650	0.139	-0.147
-144.531	-121.011	-0.235	0.039
-143.516	-139.991	0.096	-0.010
-142.502	-28.531	-0.293	0.167
-141.487	267.671	0.103	0.178
-140.472	-200.000	-0.002	-0.129
-139.458	-200.000	-0.061	-0.296
-138.443	-200.000	0.021	-0.197
-137.429	-13.032	0.107	-0.069
-136.414	800.000	0.015	-0.047
-135.399	39.702	0.109	-0.097
-134.385	390.689	-0.130	0.266
-133.370	363.647	-0.119	0.236
-132.356	-103.994	0.242	0.056
-131.341	219.774	0.079	0.124
-130.326	179.713	-0.249	0.360
-129.312	800.000	0.009	-0.037
-128.297	90.247	-0.281	0.310
-127.283	406.915	-0.159	-0.331
-126.268	280.744	0.032	0.057
-125.253	116.343	-0.172	-0.207
-124.239	800.000	0.034	0.109
-123.224	-135.875	0.177	-0.021
-122.210	-98.079	0.451	-0.114
-121.195	-200.000	-0.046	0.310
-120.180	181.017	-0.123	0.178
-119.166	-142.550	-0.240	0.023
-118.151	-195.093	0.215	0.002
-117.137	58.579	0.354	-0.342
-116.122	-200.000	-0.007	0.158
-115.107	-170.869	0.117	-0.004
-114.093	142.380	0.098	0.128
-113.078	52.815	0.040	0.038
-112.064	-65.281	-0.175	0.070
-111.049	-200.000	-0.028	-0.279
-110.034	-200.000	0.032	0.320
-109.020	-151.274	0.219	0.016
-108.005	800.000	-0.064	0.201
-106.991	665.943	0.129	0.327
-105.976	-200.000	-0.046	-0.224
-104.962	100.534	-0.162	-0.185
-103.947	-200.000	0.019	0.107
-102.932	-4.605	-0.082	0.056
-101.918	-42.794	0.403	0.201
-100.903	463.980	-0.028	0.061
-99.889	-200.000	0.045	0.366
-98.874	-200.000	-0.033	-0.236
-97.859	-40.578	0.233	0.119
-96.845	-67.235	-0.132	0.051
-95.830	59.965	-0.132	0.128
-94.816	-200.000	-0.008	-0.055
-93.801	-85.632	-0.062	0.019
-92.786	-87.152	0.146	-0.044
-91.772	-128.151	-0.117	0.016
-90.757	-63.412	-0.107	-0.043
-89.743	35.504	-0.177	0.153
-88.728	-200.000	-0.005	-0.132
-87.713	-200.000	-0.089	-0.415
-86.699	490.572	0.033	0.073
-85.684	388.791	0.140	0.284
-84.670	84.885	0.140	0.151
-83.655	-58.290	0.270	0.115
-82.640	165.405	-0.211	-0.293
-81.626	800.000	-0.052	0.174
-80.611	78.195	-0.265	0.278
-79.597	97.993	0.018	-0.021
-78.582	-200.000	-0.072	-0.330
-77.567	-200.000	0.060	0.400
-76.553	-106.939	0.255	-0.056
-75.538	33.256	0.160	0.137
-74.524	-4.403	-0.062	0.042
-73.509	-144.099	-0.220	0.020
-72.494	800.000	-0.029	-0.099
-71.480	-4.618	-0.131	-0.089
-70.465	-68.939	0.303	-0.115
-69.451	-39.942	-0.039	0.020
-68.436	698.851	-0.064	-0.165
-67.422	-200.000	-0.023	-0.178
-66.407	-8.349	-0.405	0.268
-65.392	225.905	-0.017	-0.027
-64.378	-60.143	0.196	-0.082
-63.363	-200.000	0.024	-0.183
-62.349	483.768	0.080	0.179
-61.334	57.208	-0.892	-0.855
-60.319	10.006	0.634	0.473
-59.305	-200.000	-0.132	-0.895
-58.290	340.141	0.732	1.404
-57.276	-200.000	0.365	1.749
-56.261	-200.000	101.841	592.995
-55.246	567.481	1417.950	3381.537
-54.232	189.302	2611.647	3843.313
-53.217	110.216	2277.486	2685.943
-52.203	40.293	1895.576	1674.800
-51.188	34.251	1684.392	1442.559
-50.173	31.468	1641.201	1384.938
-49.159	49.155	1691.073	1560.402
-48.144	50.576	1707.137	1585.838
-47.130	33.877	1666.463	1424.170
-46.115	31.140	1651.905	1391.298
-45.100	30.929	1646.976	1385.528
-44.086	30.876	1644.681	1383.143
-43.071	30.930	1641.816	1381.081
-42.057	30.851	1639.608	1378.584
-41.042	30.722	1638.438	1376.596
-40.027	30.853	1635.784	1375.279
-39.013	30.790	1633.900	1373.177
-37.998	30.726	1632.983	1371.880
-36.984	30.903	1630.729	1371.232
-35.969	30.948	1629.712	1370.656
-34.954	30.941	1628.111	1369.198
-33.940	30.949	1626.266	1367.653
-32.925	30.831	1625.144	1365.787
-31.911	30.950	1623.157	1364.939
-30.896	30.928	1621.325	1363.180
-29.881	30.973	1619.485	1361.905
-28.867	30.928	1617.733	1360.051
-27.852	30.941	1616.718	1359.239
-26.838	30.869	1615.331	1357.495
-25.823	30.926	1613.792	1356.563
-24.809	30.917	1612.495	1355.351
-23.794	30.968	1611.088	1354.486
-22.779	31.023	1609.484	1353.484
-21.765	30.907	1608.064	1351.393
-20.750	30.944	1606.454	1350.256
-19.736	30.949	1604.965	1348.989
-18.721	30.950	1603.579	1347.780
-17.706	30.944	1602.125	1346.459
-16.692	30.982	1600.173	1345.036
-15.677	30.905	1598.745	1343.230
-14.663	31.048	1597.391	1343.072
-13.648	30.949	1596.351	1341.430
-12.633	30.940	1595.006	1340.177
-11.619	30.932	1593.300	1338.634
-10.604	30.888	1591.943	1337.127
-9.590	30.874	1590.994	1336.180
-8.575	30.990	1589.400	1335.615
-7.560	30.928	1588.235	1334.144
-6.546	30.945	1587.123	1333.275
-5.531	30.997	1585.951	1332.612
-4.517	30.940	1584.934	1331.295
-3.502	31.060	1583.513	1330.904
-2.487	31.087	1582.196	1329.940
-1.473	30.688	1570.786	1317.466
-0.458	27.979	1551.352	1282.139
0.556	23.748	1551.956	1251.051
1.571	21.471	1575.267	1253.438
2.586	20.865	1589.188	1260.019
3.600	18.710	1535.580	1202.330
4.615	11.568	1428.444	1071.650
5.629	5.565	1367.993	988.406
6.644	4.779	1360.284	977.810
7.659	4.536	1359.674	975.757
8.673	4.554	1358.297	974.799
9.688	4.682	1356.219	974.021
10.702	4.569	1353.347	971.167
11.717	7.326	1358.706	992.200
12.731	14.256	1371.567	1045.155
13.746	18.808	1378.206	1078.771
14.761	18.734	1377.220	1077.440
15.775	17.784	1374.221	1069.049
16.790	16.658	1371.842	1060.056
17.804	15.860	1369.166	1052.904
18.819	15.472	1368.101	1049.567
19.834	15.242	1366.425	1046.751
20.848	14.938	1365.657	1044.172
21.863	14.721	1364.126	1041.552
22.877	14.597	1362.942	1039.788
23.892	14.609	1361.993	1039.047
24.907	14.526	1361.527	1038.082
25.921	14.630	1360.544	1037.885
26.936	14.632	1359.558	1037.052
27.950	14.685	1358.587	1036.550
28.965	14.723	1357.646	1035.975
29.980	14.760	1356.788	1035.459
30.994	14.872	1355.531	1035.100
32.009	14.950	1353.798	1034.171
33.023	14.863	1352.612	1032.637
34.038	14.861	1351.646	1031.793
35.053	14.816	1350.419	1030.490
36.067	14.770	1349.059	1029.075
37.082	14.767	1348.071	1028.214
38.096	14.861	1347.015	1027.892
39.111	14.861	1346.827	1027.661
40.126	14.783	1345.700	1026.229
41.140	14.678	1344.672	1024.714
42.155	14.594	1344.179	1023.727
43.169	14.529	1344.355	1023.376
44.184	14.477	1343.804	1022.543
45.199	14.595	1343.387	1022.864
46.213	14.621	1342.763	1022.453
47.228	14.706	1342.192	1022.450
48.242	14.711	1340.931	1021.430
49.257	14.671	1339.304	1019.854
50.271	14.788	1338.125	1019.580
51.286	14.713	1336.595	1017.869
52.301	14.764	1334.926	1016.818
53.315	14.577	1334.446	1015.222
54.330	14.618	1333.470	1014.640
55.344	14.534	1332.115	1013.013
56.359	14.648	1331.071	1012.817
57.374	14.523	1330.146	1011.268
58.388	14.519	1329.368	1010.564
59.403	14.470	1329.364	1010.174
60.417	14.403	1328.272	1008.845
61.432	14.493	1326.765	1008.159
62.447	14.392	1325.971	1006.857
63.461	14.374	1325.100	1005.998
64.476	14.327	1324.297	1005.015
65.490	14.416	1322.976	1004.460
66.505	14.445	1321.489	1003.415
67.520	14.512	1319.685	1002.359
68.534	14.436	1319.078	1001.355
69.549	14.415	1318.154	1000.436
70.563	14.485	1316.920	999.831
71.578	14.389	1316.119	998.559
72.593	14.280	1315.199	997.119
73.607	14.253	1314.732	996.516
74.622	14.361	1313.605	996.221
75.636	14.291	1313.107	995.334
76.651	14.328	1312.293	994.852
77.666	14.339	1311.797	994.451
78.680	14.434	1311.211	994.491
79.695	14.339	1310.920	993.614
80.709	14.525	1309.590	993.625
81.724	14.602	1308.885	993.462
82.739	14.584	1307.947	992.555
83.753	14.628	1307.081	992.072
84.768	14.612	1306.359	991.343
85.782	14.746	1305.240	991.198
86.797	14.711	1304.577	990.399
87.812	14.688	1302.955	988.947
88.826	14.555	1302.015	987.357
89.841	14.597	1301.120	986.838
90.855	14.701	1299.924	986.459
91.870	14.825	1299.034	986.426
92.884	14.909	1298.240	986.234
93.899	14.811	1297.697	985.155
94.914	14.732	1297.317	984.315
95.928	14.830	1295.997	983.803
96.943	14.851	1294.733	982.882
97.957	14.728	1294.375	981.795
98.972	14.770	1292.957	980.883
99.987	14.772	1291.584	979.767
101.001	14.876	1290.492	979.462
102.016	14.762	1290.147	978.446
103.030	14.828	1289.057	977.914
104.045	14.840	1288.037	977.128
105.060	14.821	1286.504	975.766
106.074	14.541	1285.570	973.336
107.089	14.470	1284.407	971.954
108.103	14.433	1282.808	970.444
109.118	14.377	1281.602	969.118
110.133	14.389	1280.718	968.436
111.147	14.599	1279.051	968.311
112.162	14.610	1277.439	967.068
113.176	14.615	1276.610	966.384
114.191	14.663	1275.509	965.743
115.206	14.635	1274.506	964.733
116.220	14.476	1273.592	963.039
117.235	14.662	1272.370	963.104
118.249	14.545	1271.317	961.548
119.264	14.498	1270.006	960.200
120.279	14.482	1269.259	959.457
121.293	14.473	1268.102	958.447
122.308	14.472	1266.599	957.223
123.322	14.483	1265.816	956.609
124.337	14.377	1264.937	955.251
125.352	14.422	1264.038	954.742
126.366	14.501	1262.478	953.937
127.381	14.508	1261.299	952.999
128.395	14.445	1260.605	952.029
129.410	14.543	1259.973	952.029
130.424	14.557	1259.275	951.495
131.439	14.568	1258.577	950.947
132.454	14.625	1257.332	950.249
133.468	14.547	1256.380	949.000
134.483	14.623	1255.855	948.952
135.497	14.630	1254.756	948.078
136.512	14.498	1253.813	946.529
137.527	14.516	1252.232	945.353
138.541	14.593	1250.652	944.516
139.556	14.643	1249.745	944.029
140.570	14.747	1248.668	943.719
141.585	14.801	1247.239	942.863
142.600	14.790	1246.381	942.068
143.614	14.879	1245.516	941.834
144.629	14.826	1244.757	940.878
145.643	14.817	1243.570	939.844
146.658	14.849	1242.288	938.971
147.673	14.697	1241.026	937.085
148.687	14.686	1240.018	936.176
149.702	14.633	1238.786	934.868
150.716	14.592	1237.577	933.640
151.731	14.720	1236.032	933.110
152.746	14.617	1235.108	931.756
153.760	14.805	1233.925	931.827
154.775	14.819	1232.698	930.900
155.789	14.915	1231.672	930.574
156.804	14.932	1230.782	929.913
157.819	14.964	1229.605	929.119
158.833	15.005	1228.980	928.796
159.848	14.938	1228.195	927.745
160.862	15.014	1227.430	927.507
161.877	14.923	1226.049	925.876
162.892	14.816	1224.638	924.137
163.906	14.827	1223.776	923.467
164.921	14.818	1223.190	922.895
165.935	14.911	1221.937	922.380
166.950	14.824	1221.687	921.631
167.964	14.827	1220.591	920.740
168.979	14.823	1219.993	920.183
169.994	14.843	1219.672	919.968
171.008	14.865	1218.562	919.170
172.023	14.976	1217.555	918.943
173.037	15.042	1216.806	918.655
174.052	14.905	1216.224	917.387
175.067	15.024	1214.552	916.693
176.081	14.829	1214.008	915.134
177.096	14.899	1212.936	914.630
178.110	14.875	1212.102	913.789
179.125	14.927	1210.542	912.815
180.140	15.066	1209.344	912.589
181.154	14.900	1208.064	910.638
182.169	15.039	1206.872	910.415
183.183	15.072	1205.845	909.738
184.198	15.158	1204.816	909.347
185.213	15.126	1203.585	908.165
186.227	15.176	1202.790	907.759
187.242	15.167	1202.016	907.043
188.256	15.134	1201.089	906.087
189.271	15.288	1200.113	906.100
190.286	15.062	1199.227	904.129
191.300	14.926	1198.337	902.644
192.315	14.809	1197.236	901.105
193.329	14.819	1196.786	900.741
194.344	14.904	1196.394	900.823
195.359	15.118	1195.321	901.087
196.373	15.002	1195.501	900.520
197.388	15.213	1195.164	901.321
198.402	15.309	1194.409	901.191
199.417	15.435	1193.293	900.944
200.432	15.486	1192.597	900.615
201.446	15.497	1191.654	899.879
202.461	15.508	1191.235	899.541
203.475	15.494	1190.519	898.850
204.490	15.392	1188.797	896.923
205.504	15.365	1187.597	895.795
206.519	15.258	1186.565	894.364
207.534	15.296	1185.318	893.546
208.548	15.441	1184.396	893.544
209.563	15.316	1183.792	892.349
210.577	15.424	1182.605	891.946
211.592	15.429	1182.274	891.646
212.607	15.583	1181.017	891.436
213.621	15.546	1180.199	890.540
214.636	15.563	1178.892	889.567
215.650	15.517	1178.481	888.937
216.665	15.661	1177.165	888.628
217.680	15.637	1176.192	887.684
218.694	15.730	1175.585	887.638
219.709	15.659	1174.906	886.671
220.723	15.587	1174.548	885.946
221.738	15.567	1173.942	885.306
222.753	15.611	1172.935	884.700
223.767	15.646	1172.495	884.470
224.782	15.830	1171.408	884.543
225.796	15.735	1171.131	883.753
226.811	15.750	1170.226	883.073
227.826	15.757	1169.501	882.486
228.840	15.706	1168.962	881.730
229.855	15.812	1167.963	881.457
230.869	15.634	1167.509	880.104
231.884	15.586	1166.147	878.750
232.899	15.679	1165.549	878.705
233.913	15.671	1164.843	878.055
234.928	15.575	1164.257	877.033
235.942	15.673	1163.300	876.747
236.957	15.613	1162.970	876.105
237.972	15.462	1162.264	874.710
238.986	15.619	1161.603	874.950
240.001	15.664	1160.357	874.168
241.015	15.647	1159.967	873.712
242.030	15.799	1158.726	873.491
243.045	15.737	1158.364	872.818
244.059	15.839	1157.215	872.404
245.074	15.776	1156.783	871.674
246.088	15.900	1156.134	871.749
247.103	15.907	1155.298	871.078
248.117	15.850	1154.865	870.380
249.132	16.058	1153.650	870.459
250.147	16.191	1153.046	870.614
251.161	16.368	1152.302	870.888
252.176	16.240	1151.717	869.711
253.190	16.238	1151.509	869.463
254.205	16.320	1150.640	869.154
255.220	16.400	1149.672	868.754
256.234	16.355	1149.555	868.361
257.249	16.364	1149.037	867.941
258.263	16.360	1147.899	866.984
259.278	16.372	1147.441	866.620
260.293	16.390	1146.474	865.907
261.307	16.368	1146.158	865.478
262.322	16.425	1145.407	865.128
263.336	16.477	1144.452	864.595
264.351	16.507	1144.313	864.566
265.366	16.479	1143.278	863.564
266.380	16.420	1142.878	862.885
267.395	16.500	1141.821	862.417
268.409	16.338	1141.108	860.979
269.424	16.410	1140.593	860.882
270.439	16.479	1139.761	860.525
271.453	16.460	1138.935	859.728
272.468	16.240	1138.351	858.095
273.482	16.329	1137.630	857.930
274.497	16.372	1137.026	857.616
275.512	16.331	1136.209	856.714
276.526	16.291	1135.993	856.274
277.541	16.372	1134.922	855.802
278.555	16.537	1134.144	855.974
279.570	16.674	1133.315	855.967
280.585	16.544	1132.846	854.879
281.599	16.588	1131.660	854.129
282.614	16.596	1130.516	853.230
283.628	16.540	1129.872	852.387
284.643	16.704	1128.231	851.901
285.657	16.632	1127.915	851.224
286.672	16.588	1127.166	850.361
287.687	16.478	1126.452	849.193
288.701	16.678	1125.207	849.183
289.716	16.660	1124.705	848.642
290.730	16.546	1124.235	847.639
291.745	16.709	1123.162	847.569
292.760	16.698	1122.679	847.078
293.774	16.657	1122.257	846.479
294.789	16.798	1121.880	846.825
295.803	16.862	1120.864	846.302
296.818	16.748	1119.915	844.939
297.833	16.738	1119.434	844.453
298.847	16.597	1118.793	843.194
299.862	16.716	1117.691	842.881
300.876	16.803	1116.764	842.537
301.891	16.887	1116.629	842.777
302.906	16.935	1115.562	842.139
303.920	17.046	1114.964	842.164
304.935	17.112	1114.404	841.991
305.949	17.013	1113.942	841.080
306.964	17.145	1113.139	841.050
307.979	17.153	1111.993	840.152
308.993	17.061	1111.569	839.300
310.008	17.033	1110.701	838.431
311.022	17.065	1110.535	838.391
312.037	17.091	1109.155	837.406
313.052	16.918	1108.573	836.038
314.066	16.946	1107.268	835.116
315.081	16.950	1106.627	834.582
316.095	16.814	1106.126	833.461
317.110	16.897	1104.997	832.941
318.125	16.850	1104.933	832.588
319.139	16.966	1103.785	832.218
320.154	16.996	1103.116	831.791
321.168	16.885	1102.700	830.856
322.183	17.012	1102.157	830.996
323.197	17.046	1101.259	830.415
324.212	17.026	1100.660	829.792
325.227	17.007	1100.103	829.202
326.241	17.075	1099.313	828.869
327.256	17.135	1098.681	828.608
328.270	17.028	1097.752	827.314
329.285	17.079	1097.067	826.972
330.300	17.065	1096.049	826.067
331.314	17.048	1095.140	825.226
332.329	17.171	1094.267	825.090
333.343	17.148	1093.383	824.238
334.358	17.137	1092.915	823.761
335.373	17.226	1092.000	823.431
336.387	17.255	1091.149	822.853
337.402	17.251	1090.453	822.238
338.416	17.342	1090.003	822.264
339.431	17.376	1089.041	821.633
340.446	17.332	1088.537	820.968
341.460	17.510	1087.660	821.089
342.475	17.434	1087.151	820.270
343.489	17.552	1085.858	819.787
344.504	17.768	1084.729	819.899
345.519	17.615	1084.418	818.859
346.533	17.663	1083.552	818.362
347.548	17.753	1082.567	817.978
348.562	17.679	1082.172	817.254
349.577	17.457	1081.524	815.627
350.592	17.520	1080.677	815.219
351.606	17.412	1079.861	814.015
352.621	17.482	1079.132	813.726
353.635	17.393	1078.682	812.888
354.650	17.414	1077.954	812.368
355.665	17.492	1076.695	811.722
356.679	17.473	1076.678	811.547
357.694	17.609	1076.069	811.662
358.708	17.596	1075.054	810.765
359.723	17.653	1074.281	810.381
360.738	17.642	1074.166	810.171
361.752	17.682	1073.760	809.983
362.767	17.739	1072.858	809.498
363.781	17.796	1072.544	809.463
364.796	17.725	1072.123	808.733
365.810	17.834	1071.124	808.427
366.825	17.899	1070.484	808.182
367.840	17.936	1070.262	808.114
368.854	17.983	1069.625	807.787
369.869	17.926	1068.912	806.907
370.883	17.940	1067.973	806.190
371.898	17.925	1067.021	805.329
372.913	17.882	1066.765	804.865
373.927	17.947	1066.402	804.824
374.942	17.978	1065.856	804.487
375.956	18.022	1065.326	804.225
376.971	17.908	1064.589	803.060
377.986	18.198	1063.662	803.651
379.000	18.161	1063.275	803.114
380.015	18.154	1062.859	802.696
381.029	18.167	1062.110	802.123
382.044	18.082	1061.686	801.331
383.059	18.269	1060.490	801.233
384.073	18.084	1059.955	799.892
385.088	18.251	1059.164	800.004
386.102	18.205	1058.028	798.862
387.117	18.096	1057.256	797.700
388.132	18.145	1055.815	796.772
389.146	18.087	1054.738	795.616
390.161	18.173	1054.853	796.034
391.175	18.134	1053.738	794.942
392.190	18.093	1053.244	794.306
393.205	18.305	1052.395	794.579
394.219	18.357	1051.556	794.120
395.234	18.169	1050.902	792.684
396.248	18.172	1049.589	791.636
397.263	18.250	1048.785	791.322
398.278	18.135	1048.128	790.224
399.292	17.983	1047.829	789.225
400.307	18.033	1047.076	788.822
401.321	18.124	1046.177	788.493
402.336	18.019	1045.691	787.573
403.350	18.123	1044.694	787.233
404.365	17.988	1044.471	786.371
405.380	18.344	1042.841	786.711
406.394	18.227	1042.505	785.851
407.409	18.231	1042.244	785.603
408.423	18.420	1041.478	785.821
409.438	18.458	1040.479	785.171
410.453	18.428	1040.363	784.879
411.467	18.596	1039.395	784.850
412.482	18.622	1038.655	784.339
413.496	18.555	1038.046	783.504
414.511	18.564	1037.989	783.430
415.526	18.729	1037.028	783.389
416.540	18.742	1036.690	783.125
417.555	18.668	1036.494	782.572
418.569	18.616	1035.915	781.826
419.584	18.800	1035.009	781.911
420.599	18.698	1034.639	781.097
421.613	150.456	1402.069	1796.075
422.628	137.378	1455.599	1796.189
