DTS Sentinel unit serial number:	SN413079Multiplexer serial number:	ORYXHardware model number:	OX4-SRSoftware version number:	ORYX F/W v4.00 Oryx Data Collector v3.7.2.0data status	okinstallation	princeton_trtdifferential loss correction	single-endedforward channel	channel 2reverse channel	N/Adate	2019/09/12time	03:05:11forward acquisition time	60.00reverse acquisition time	0.00gamma	496.2192k internal	0.2326k external	0.2326temperature offset calibration	1.0093default loss term (dB/km)	0.3790temperature slope calibration	1.0000multiplexer offset coefficient	1.0000multiplexer slope coefficient	1.0000fibre end	0.00T internal ref (°C)	32.30T ext. ref 1 (°C)	2.11T ext. ref 2 (°C)	27.41length (m)	temperature (°C)	Stokes	anti-Stokes-747.200	-23.442	0.250	0.152
-746.185	-200.000	-0.026	0.279
-745.171	-102.054	0.074	0.018
-744.156	-88.646	0.064	-0.019
-743.142	291.603	-0.300	-0.551
-742.127	186.715	0.035	0.053
-741.112	142.430	0.176	-0.235
-740.098	249.428	0.189	0.323
-739.083	-57.888	0.081	-0.036
-738.069	482.373	0.056	-0.129
-737.054	-200.000	-0.030	0.176
-736.039	-126.194	0.031	-0.005
-735.025	-200.000	-0.003	0.070
-734.010	97.447	-0.101	-0.116
-732.996	-200.000	0.001	-0.105
-731.981	13.006	-0.225	0.176
-730.966	-85.961	-0.204	-0.064
-729.952	235.584	0.072	0.119
-728.937	-70.001	-0.274	-0.105
-727.923	73.688	0.225	-0.238
-726.908	-200.000	0.013	0.212
-725.894	-32.173	-0.256	-0.144
-724.879	7.779	-0.091	-0.068
-723.864	-200.000	-0.025	-0.416
-722.850	-200.000	-0.004	0.548
-721.835	800.000	0.008	0.028
-720.821	-119.551	0.167	-0.029
-719.806	-0.378	-0.240	-0.172
-718.791	-200.000	-0.001	0.058
-717.777	-142.307	-0.298	-0.030
-716.762	300.399	-0.111	0.207
-715.748	-200.000	0.019	-0.291
-714.733	-36.884	0.090	-0.049
-713.718	723.432	0.070	-0.187
-712.704	387.541	-0.095	-0.197
-711.689	-70.452	-0.253	-0.097
-710.675	-200.000	-0.021	0.136
-709.660	800.000	0.063	0.180
-708.645	115.510	0.200	0.246
-707.631	-27.474	-0.207	-0.121
-706.616	-120.847	-0.298	0.050
-705.602	800.000	-0.077	-0.302
-704.587	800.000	0.058	-0.184
-703.572	-69.923	0.090	-0.034
-702.558	36.857	0.264	-0.235
-701.543	-200.000	0.058	-0.517
-700.529	-140.934	0.084	0.009
-699.514	-200.000	-0.022	-0.193
-698.499	134.969	0.061	-0.079
-697.485	203.124	-0.024	-0.037
-696.470	300.670	-0.170	-0.316
-695.456	-33.926	0.211	-0.117
-694.441	-163.562	0.304	0.014
-693.426	-200.000	0.022	-0.125
-692.412	-200.000	0.005	0.158
-691.397	164.708	-0.241	0.342
-690.383	-102.527	0.265	-0.064
-689.368	173.402	0.067	0.098
-688.354	209.649	0.090	-0.141
-687.339	252.516	0.163	0.279
-686.324	-44.996	0.178	0.089
-685.310	-200.000	0.041	-0.257
-684.295	453.550	-0.145	0.322
-683.281	-200.000	0.047	-0.238
-682.266	-87.174	-0.167	-0.051
-681.251	119.491	-0.180	-0.225
-680.237	-16.327	-0.182	0.116
-679.222	-3.137	0.043	0.030
-678.208	-177.848	0.298	0.007
-677.193	582.654	0.028	-0.068
-676.178	-90.332	0.303	-0.088
-675.164	-77.084	0.044	0.015
-674.149	-44.001	0.356	-0.180
-673.135	-58.913	-0.186	-0.081
-672.120	-200.000	-0.063	0.484
-671.105	-121.689	0.499	-0.083
-670.091	-200.000	-0.021	-0.106
-669.076	-116.368	0.273	0.051
-668.062	761.478	-0.086	-0.235
-667.047	114.293	-0.180	0.220
-666.032	210.810	-0.104	-0.164
-665.018	163.445	0.122	-0.173
-664.003	-200.000	0.073	-0.405
-662.989	37.185	-0.241	-0.214
-661.974	327.857	0.096	-0.186
-660.959	34.630	0.247	-0.217
-659.945	-200.000	-0.004	-0.346
-658.930	487.270	0.081	-0.186
-657.916	-69.716	0.167	-0.064
-656.901	-72.435	-0.253	0.094
-655.886	154.286	0.164	0.226
-654.872	800.000	0.108	-0.418
-653.857	-17.100	0.302	-0.192
-652.843	-19.569	-0.070	0.044
-651.828	-129.298	-0.252	0.035
-650.814	-161.555	0.226	0.012
-649.799	-104.017	0.004	-0.001
-648.784	251.399	0.139	-0.237
-647.770	800.000	-0.033	-0.097
-646.755	224.798	0.098	0.159
-645.741	800.000	-0.056	0.239
-644.726	800.000	0.013	-0.037
-643.711	-170.395	0.010	-0.000
-642.697	-147.580	-0.177	0.015
-641.682	-144.860	0.036	0.003
-640.668	390.787	0.146	0.304
-639.653	64.456	-0.149	0.151
-638.638	800.000	0.040	0.155
-637.624	800.000	-0.118	0.352
-636.609	173.065	0.051	-0.074
-635.595	23.159	0.100	-0.082
-634.580	-114.146	-0.098	0.019
-633.565	24.501	-0.250	-0.208
-632.551	157.421	0.098	-0.137
-631.536	800.000	0.018	0.064
-630.522	-107.064	0.235	0.052
-629.507	-152.946	-0.382	-0.027
-628.492	90.532	0.128	-0.144
-627.478	800.000	-0.121	0.402
-626.463	54.432	-0.164	0.159
-625.449	800.000	0.124	-0.350
-624.434	147.246	-0.050	-0.068
-623.419	661.067	-0.079	-0.204
-622.405	-45.334	-0.223	-0.111
-621.390	118.425	-0.041	-0.050
-620.376	-82.712	0.210	-0.068
-619.361	-44.345	-0.181	0.091
-618.346	800.000	-0.058	0.164
-617.332	-63.305	0.168	0.069
-616.317	-11.949	-0.317	-0.209
-615.303	-200.000	0.041	-0.183
-614.288	-200.000	0.022	-0.128
-613.273	89.175	-0.099	0.110
-612.259	-14.861	-0.164	0.106
-611.244	76.510	-0.080	0.085
-610.230	-120.628	-0.181	0.031
-609.215	-200.000	-0.004	-0.088
-608.201	-55.471	-0.149	-0.067
-607.186	-50.790	0.366	0.173
-606.171	352.297	-0.163	-0.324
-605.157	367.382	-0.127	-0.258
-604.142	-116.032	-0.104	0.019
-603.128	-25.165	0.044	-0.026
-602.113	800.000	-0.119	0.369
-601.098	-106.098	0.096	0.022
-600.084	-73.530	0.327	0.120
-599.069	-51.629	0.172	-0.080
-598.055	-49.157	-0.114	0.055
-597.040	-105.137	0.197	0.045
-596.025	-200.000	-0.038	0.273
-595.011	85.081	0.105	-0.116
-593.996	-200.000	0.003	-0.146
-592.982	41.971	0.227	-0.207
-591.967	-25.362	0.099	-0.059
-590.952	-92.025	-0.282	-0.080
-589.938	-80.233	-0.128	-0.043
-588.923	-86.521	-0.065	0.020
-587.909	-200.000	0.029	-0.482
-586.894	-76.069	-0.176	-0.062
-585.879	34.183	0.087	-0.076
-584.865	800.000	0.044	0.145
-583.850	11.368	-0.247	0.189
-582.836	800.000	-0.057	-0.186
-581.821	-85.261	-0.369	-0.116
-580.806	-200.000	0.008	0.307
-579.792	175.073	-0.178	-0.259
-578.777	525.294	0.029	-0.067
-577.763	-22.905	0.150	0.090
-576.748	208.232	0.304	0.476
-575.733	47.664	-0.191	-0.179
-574.719	-200.000	-0.006	-0.230
-573.704	-76.814	0.140	-0.049
-572.690	-188.810	-0.103	0.001
-571.675	307.739	0.024	0.044
-570.661	-168.018	0.260	0.010
-569.646	213.295	-0.163	-0.259
-568.631	0.939	-0.442	-0.317
-567.617	504.214	0.031	0.072
-566.602	150.143	-0.076	-0.103
-565.588	-28.142	-0.163	-0.095
-564.573	83.585	-0.160	0.175
-563.558	-186.344	0.074	-0.001
-562.544	20.976	0.122	-0.099
-561.529	82.798	0.245	0.266
-560.515	312.738	-0.035	-0.066
-559.500	8.538	-0.239	-0.180
-558.485	118.562	-0.036	-0.044
-557.471	54.053	0.178	-0.171
-556.456	-72.742	0.178	-0.066
-555.442	147.998	0.131	0.177
-554.427	264.943	0.032	0.056
-553.412	-200.000	-0.004	0.079
-552.398	-200.000	0.035	-0.207
-551.383	753.348	0.120	0.324
-550.369	-200.000	-0.011	-0.200
-549.354	186.661	0.119	-0.178
-548.339	21.110	-0.305	-0.247
-547.325	-92.799	-0.323	-0.090
-546.310	607.880	0.105	-0.262
-545.296	-143.913	0.142	-0.013
-544.281	20.157	0.217	0.175
-543.266	800.000	0.064	0.243
-542.252	-200.000	-0.022	-0.171
-541.237	-76.727	-0.154	-0.054
-540.223	214.580	0.078	-0.123
-539.208	292.967	-0.098	-0.179
-538.193	204.920	-0.150	0.232
-537.179	138.178	-0.040	0.052
-536.164	-88.329	0.259	0.077
-535.150	130.082	0.269	0.345
-534.135	800.000	-0.054	-0.159
-533.121	245.635	0.126	-0.212
-532.106	121.087	0.197	-0.246
-531.091	-167.384	-0.195	0.008
-530.077	178.358	-0.011	-0.016
-529.062	13.760	0.096	0.075
-528.048	-9.438	-0.336	0.224
-527.033	-163.965	0.175	0.008
-526.018	-200.000	0.000	0.054
-525.004	-200.000	0.031	-0.200
-523.989	-200.000	-0.013	0.073
-522.975	-163.804	-0.143	-0.007
-521.960	-44.194	0.203	-0.102
-520.945	-130.104	-0.095	-0.013
-519.931	-142.425	-0.115	-0.011
-518.916	-200.000	-0.069	0.441
-517.902	-139.076	0.394	0.043
-516.887	240.747	-0.074	0.123
-515.872	-40.352	-0.270	-0.140
-514.858	-28.254	0.146	-0.084
-513.843	-175.991	0.282	-0.007
-512.829	385.618	0.050	0.104
-511.814	-107.573	-0.160	-0.035
-510.799	800.000	-0.066	0.202
-509.785	227.641	0.269	0.437
-508.770	-200.000	-0.001	0.198
-507.756	-115.169	-0.260	0.049
-506.741	134.940	-0.126	0.163
-505.726	800.000	0.010	0.029
-504.712	800.000	-0.058	-0.201
-503.697	-101.319	0.155	-0.038
-502.683	-55.509	-0.359	0.161
-501.668	800.000	-0.008	-0.028
-500.653	-200.000	0.003	-0.224
-499.639	9.785	0.354	-0.268
-498.624	-110.430	0.137	-0.029
-497.610	760.598	-0.081	0.219
-496.595	-56.672	-0.308	-0.136
-495.581	-106.562	-0.278	0.062
-494.566	-200.000	-0.083	-0.484
-493.551	12.717	0.200	-0.154
-492.537	-200.000	0.022	-0.204
-491.522	-200.000	-0.004	0.083
-490.508	51.133	-0.036	-0.034
-489.493	-50.598	0.194	0.091
-488.478	652.665	0.159	-0.406
-487.464	800.000	0.049	-0.186
-486.449	91.054	-0.161	-0.180
-485.435	-41.504	0.203	-0.104
-484.420	-143.254	0.269	0.026
-483.405	-152.837	-0.204	0.014
-482.391	800.000	-0.078	0.246
-481.376	-85.974	0.408	0.126
-480.362	-200.000	0.023	0.216
-479.347	793.172	0.067	0.184
-478.332	160.797	-0.039	0.054
-477.318	-65.434	0.337	0.135
-476.303	-118.957	-0.207	-0.036
-475.289	-90.191	-0.105	0.031
-474.274	-200.000	0.008	-0.479
-473.259	104.628	-0.063	-0.074
-472.245	800.000	-0.100	0.309
-471.230	-120.054	-0.060	-0.010
-470.216	-200.000	0.016	0.535
-469.201	-17.113	-0.156	0.098
-468.186	-130.474	-0.179	0.024
-467.172	-200.000	-0.021	0.344
-466.157	451.599	-0.050	0.111
-465.143	64.727	-0.166	0.167
-464.128	-1.266	0.179	0.126
-463.113	87.342	0.256	-0.283
-462.099	-125.695	0.287	-0.043
-461.084	-200.000	-0.023	-0.131
-460.070	550.497	-0.015	0.037
-459.055	-52.935	0.074	-0.034
-458.040	-27.566	-0.280	-0.162
-457.026	800.000	0.028	0.082
-456.011	-81.266	-0.217	-0.071
-454.997	-20.111	-0.255	-0.157
-453.982	-163.959	-0.234	-0.011
-452.968	-73.764	-0.345	-0.125
-451.953	-200.000	-0.014	-0.523
-450.938	-114.529	-0.068	-0.013
-449.924	-46.512	-0.245	-0.120
-448.909	-168.045	0.273	-0.011
-447.895	21.235	-0.135	-0.109
-446.880	338.835	-0.084	0.163
-445.865	-200.000	-0.027	0.251
-444.851	17.929	0.128	-0.102
-443.836	800.000	-0.090	-0.292
-442.822	-25.765	-0.188	0.110
-441.807	-109.411	0.158	0.033
-440.792	549.149	0.172	0.410
-439.778	210.858	0.077	0.121
-438.763	69.479	-0.069	0.071
-437.749	-4.338	0.359	-0.248
-436.734	548.492	-0.002	0.005
-435.719	-55.532	-0.213	0.095
-434.705	-200.000	0.002	-0.134
-433.690	31.987	0.272	-0.234
-432.676	43.422	-0.049	-0.045
-431.661	800.000	0.081	0.223
-430.646	-35.223	-0.371	0.201
-429.632	-56.766	0.545	-0.240
-428.617	656.976	0.080	-0.206
-427.603	-183.911	-0.175	0.003
-426.588	-200.000	0.197	0.001
-425.573	-123.108	-0.236	0.038
-424.559	-167.258	-0.304	-0.012
-423.544	-200.000	-0.033	0.288
-422.530	55.221	-0.103	-0.099
-421.515	-200.000	-0.024	-0.135
-420.500	-24.371	0.311	-0.185
-419.486	-59.094	0.350	-0.150
-418.471	143.156	-0.201	-0.267
-417.457	429.460	0.131	0.282
-416.442	-176.800	0.185	-0.005
-415.428	9.241	0.145	0.109
-414.413	209.758	-0.156	-0.244
-413.398	-200.000	0.011	-0.233
-412.384	-137.232	0.151	0.017
-411.369	27.467	0.148	-0.124
-410.355	591.284	-0.075	0.183
-409.340	89.846	-0.225	0.250
-408.325	-164.982	-0.299	0.013
-407.311	17.298	0.183	-0.144
-406.296	-38.982	-0.154	0.081
-405.282	456.666	-0.128	0.284
-404.267	-78.510	0.113	0.038
-403.252	800.000	0.022	-0.095
-402.238	-189.577	-0.174	-0.002
-401.223	-119.398	0.279	0.048
-400.209	-200.000	-0.078	0.367
-399.194	-200.000	0.014	0.297
-398.179	-116.928	-0.163	-0.030
-397.165	800.000	-0.141	0.405
-396.150	75.300	-0.235	0.246
-395.136	-135.006	0.556	-0.067
-394.121	800.000	-0.111	-0.395
-393.106	-69.630	0.113	-0.043
-392.092	65.613	0.076	-0.076
-391.077	-131.458	-0.316	0.041
-390.063	15.834	-0.306	0.240
-389.048	221.721	0.107	-0.171
-388.033	-200.000	-0.032	-0.287
-387.019	-200.000	0.000	-0.011
-386.004	82.495	0.260	-0.281
-384.990	590.886	-0.041	-0.099
-383.975	-105.646	-0.206	-0.046
-382.960	800.000	0.106	0.304
-381.946	-110.060	0.146	-0.030
-380.931	-200.000	0.009	0.356
-379.917	31.236	0.305	0.260
-378.902	273.760	-0.152	0.267
-377.888	-200.000	0.054	-0.428
-376.873	-60.662	0.018	-0.008
-375.858	-40.296	-0.328	0.170
-374.844	513.626	0.086	-0.200
-373.829	-97.781	0.386	0.099
-372.815	6.264	-0.120	-0.089
-371.800	388.744	0.013	-0.027
-370.785	330.342	0.123	-0.236
-369.771	-200.000	-0.015	-0.123
-368.756	129.650	0.138	0.175
-367.742	-33.692	-0.076	0.042
-366.727	-124.490	0.061	-0.009
-365.712	263.371	-0.147	0.254
-364.698	-114.320	0.194	0.037
-363.683	-132.940	0.158	-0.020
-362.669	-13.887	0.101	-0.065
-361.654	800.000	-0.069	-0.190
-360.639	148.210	0.124	0.167
-359.625	-129.253	-0.166	0.023
-358.610	-82.282	-0.118	0.038
-357.596	-172.406	-0.242	0.008
-356.581	151.923	0.082	0.110
-355.566	-159.103	0.176	-0.010
-354.552	-200.000	-0.003	-0.070
-353.537	191.744	0.118	-0.176
-352.523	-200.000	-0.053	0.329
-351.508	147.113	0.198	0.265
-350.493	-171.752	-0.283	-0.009
-349.479	-200.000	0.027	-0.136
-348.464	-121.283	-0.081	-0.013
-347.450	70.920	0.154	-0.159
-346.435	-40.200	0.103	0.054
-345.420	17.394	-0.132	-0.104
-344.406	355.801	0.009	-0.019
-343.391	800.000	-0.027	-0.079
-342.377	-81.468	-0.071	-0.023
-341.362	3.516	0.092	-0.067
-340.348	224.720	0.086	-0.139
-339.333	-135.970	0.106	-0.012
-338.318	150.778	-0.065	-0.088
-337.304	-10.513	-0.222	-0.146
-336.289	-27.229	0.122	-0.070
-335.275	192.744	0.176	0.264
-334.260	-128.405	-0.248	-0.035
-333.245	161.420	0.110	-0.152
-332.231	-33.771	-0.193	0.105
-331.216	241.539	-0.029	-0.048
-330.202	-200.000	0.067	-0.303
-329.187	57.537	0.108	0.105
-328.172	79.896	-0.096	-0.103
-327.158	89.168	-0.168	-0.186
-326.143	458.434	-0.095	0.210
-325.129	-153.109	-0.344	-0.024
-324.114	-60.568	0.261	0.110
-323.099	-89.834	0.188	0.055
-322.085	-36.418	-0.126	-0.067
-321.070	160.957	-0.337	0.467
-320.056	-5.088	0.120	-0.082
-319.041	94.879	0.283	0.320
-318.026	-200.000	0.086	-0.393
-317.012	-158.427	0.177	0.010
-315.997	382.869	0.146	0.298
-314.983	23.700	-0.355	0.290
-313.968	-50.134	-0.121	0.057
-312.953	46.741	0.064	0.059
-311.939	22.266	0.097	-0.078
-310.924	-113.879	-0.251	0.048
-309.910	800.000	0.034	-0.123
-308.895	-135.790	0.233	-0.027
-307.880	-200.000	0.067	-0.297
-306.866	-45.287	-0.269	-0.133
-305.851	74.340	0.069	-0.072
-304.837	-2.767	-0.039	0.027
-303.822	400.394	0.112	0.234
-302.807	-200.000	-0.015	0.133
-301.793	-200.000	0.028	-0.171
-300.778	129.191	0.047	0.060
-299.764	-200.000	0.024	-0.240
-298.749	82.419	0.049	0.052
-297.735	-55.830	-0.204	0.090
-296.720	294.255	-0.109	-0.198
-295.705	-112.951	-0.183	-0.036
-294.691	-200.000	-0.029	0.340
-293.676	-67.559	0.079	-0.031
-292.662	-61.019	-0.255	-0.107
-291.647	33.992	0.153	-0.132
-290.632	99.633	0.263	-0.302
-289.618	-200.000	0.005	-0.057
-288.603	53.643	-0.084	0.080
-287.589	161.806	-0.088	0.122
-286.574	402.301	-0.092	-0.191
-285.559	350.049	-0.084	-0.165
-284.545	646.408	0.038	-0.096
-283.530	-37.331	0.214	-0.113
-282.516	-41.351	-0.315	-0.161
-281.501	393.543	0.023	-0.047
-280.486	-50.190	0.236	0.111
-279.472	-101.209	0.109	-0.026
-278.457	-20.057	-0.206	0.126
-277.443	26.807	-0.292	0.242
-276.428	134.116	0.247	-0.317
-275.413	-123.853	0.353	0.055
-274.399	664.142	-0.078	0.201
-273.384	-141.553	-0.080	0.008
-272.370	76.978	-0.219	-0.231
-271.355	-200.000	0.065	-0.443
-270.340	-18.416	-0.128	0.079
-269.326	800.000	0.043	-0.144
-268.311	-79.009	0.278	0.094
-267.297	-200.000	-0.007	0.271
-266.282	-44.088	-0.134	-0.067
-265.267	800.000	-0.077	-0.275
-264.253	226.389	-0.117	0.188
-263.238	-19.266	0.330	-0.203
-262.224	194.729	-0.096	-0.144
-261.209	-73.273	-0.227	-0.082
-260.195	223.774	-0.035	-0.056
-259.180	-92.886	-0.276	0.076
-258.165	-92.162	-0.375	-0.105
-257.151	502.353	0.069	0.159
-256.136	154.476	-0.083	0.112
-255.122	-51.890	-0.395	0.182
-254.107	800.000	-0.076	0.207
-253.092	90.042	0.032	0.036
-252.078	323.151	0.105	0.199
-251.063	145.177	-0.134	-0.177
-250.049	-200.000	0.058	0.312
-249.034	800.000	-0.091	0.300
-248.019	-200.000	-0.012	-0.442
-247.005	-94.868	-0.148	-0.040
-245.990	503.953	0.188	0.431
-244.976	69.801	0.248	0.253
-243.961	-21.660	0.040	-0.024
-242.946	335.507	0.012	-0.022
-241.932	50.369	-0.136	-0.127
-240.917	-121.333	-0.196	-0.032
-239.903	37.559	-0.047	0.041
-238.888	-49.964	-0.126	0.059
-237.873	51.232	0.198	-0.186
-236.859	141.002	-0.181	0.236
-235.844	-18.989	-0.272	0.167
-234.830	-167.892	-0.213	0.008
-233.815	-166.765	0.401	0.016
-232.800	673.754	-0.107	0.275
-231.786	-13.286	-0.258	-0.165
-230.771	236.448	0.193	-0.316
-229.757	-81.128	-0.241	0.079
-228.742	88.737	-0.045	-0.049
-227.727	215.754	-0.146	-0.229
-226.713	203.071	-0.059	-0.090
-225.698	-200.000	-0.068	-0.356
-224.684	99.090	-0.149	0.170
-223.669	-174.931	0.158	0.004
-222.655	-137.958	-0.661	0.073
-221.640	-178.323	0.549	0.013
-220.625	-81.171	0.204	-0.067
-219.611	800.000	-0.019	0.063
-218.596	7.226	0.177	0.130
-217.582	-16.178	-0.352	0.221
-216.567	81.667	0.297	-0.318
-215.552	-22.149	-0.019	0.011
-214.538	197.643	-0.051	-0.077
-213.523	113.357	0.197	-0.237
-212.509	800.000	0.046	0.179
-211.494	153.105	0.262	0.354
-210.479	-63.752	0.148	-0.060
-209.465	167.352	0.067	0.094
-208.450	50.252	0.105	-0.098
-207.436	-108.991	0.347	0.073
-206.421	171.020	0.235	0.333
-205.406	-15.323	0.196	-0.124
-204.392	-84.951	0.123	0.038
-203.377	800.000	0.040	0.121
-202.363	282.567	0.026	-0.045
-201.348	526.864	-0.049	0.114
-200.333	105.753	0.284	-0.332
-199.319	166.752	0.071	-0.100
-198.304	415.236	-0.104	0.218
-197.290	-21.580	-0.162	-0.098
-196.275	800.000	-0.049	0.173
-195.260	-200.000	-0.002	0.120
-194.246	90.067	-0.219	0.242
-193.231	-19.080	0.166	-0.102
-192.217	-165.724	0.270	0.012
-191.202	-25.814	-0.038	-0.022
-190.187	73.959	-0.189	-0.196
-189.173	-200.000	0.009	0.099
-188.158	-28.736	-0.151	0.086
-187.144	75.803	0.378	0.395
-186.129	85.491	0.124	0.134
-185.114	95.554	-0.044	-0.049
-184.100	-163.938	0.377	0.017
-183.085	54.470	-0.291	0.277
-182.071	-85.755	0.205	-0.063
-181.056	800.000	0.056	-0.159
-180.042	7.934	0.158	-0.117
-179.027	74.709	0.198	0.205
-178.012	800.000	0.043	-0.180
-176.998	-114.147	0.313	0.060
-175.983	-47.014	0.037	0.018
-174.969	-59.646	-0.292	0.123
-173.954	-116.678	-0.304	-0.055
-172.939	-57.825	0.081	0.035
-171.925	800.000	0.093	0.317
-170.910	800.000	0.101	-0.312
-169.896	-151.285	-0.199	0.015
-168.881	94.568	0.107	-0.119
-167.866	-32.349	0.195	-0.108
-166.852	82.848	-0.184	-0.197
-165.837	-200.000	-0.004	-0.101
-164.823	67.329	0.221	-0.222
-163.808	-91.583	-0.140	0.039
-162.793	800.000	0.045	0.160
-161.779	17.010	-0.127	-0.099
-160.764	-111.303	0.266	0.053
-159.750	-34.220	0.312	0.169
-158.735	-22.499	-0.106	-0.063
-157.720	205.580	0.135	0.207
-156.706	-200.000	-0.063	0.530
-155.691	-108.527	0.080	-0.017
-154.677	-101.754	-0.061	-0.014
-153.662	277.060	0.063	0.111
-152.647	2.291	0.331	-0.236
-151.633	60.103	0.184	0.179
-150.618	-200.000	0.001	0.106
-149.604	124.909	-0.227	0.281
-148.589	-78.683	-0.188	0.063
-147.574	137.854	-0.228	0.295
-146.560	146.978	0.061	0.081
-145.545	800.000	-0.059	0.210
-144.531	-200.000	0.000	-0.373
-143.516	-80.294	0.257	0.084
-142.502	800.000	0.037	-0.129
-141.487	677.791	-0.072	-0.185
-140.472	360.236	0.167	-0.330
-139.458	-119.868	-0.189	0.032
-138.443	-200.000	-0.010	0.184
-137.429	-94.696	0.410	-0.110
-136.414	-200.000	-0.066	0.350
-135.399	239.936	-0.119	-0.196
-134.385	-113.150	0.147	0.029
-133.370	454.826	0.046	0.101
-132.356	-26.998	-0.215	0.124
-131.341	-45.548	-0.154	-0.075
-130.326	-51.015	0.223	0.103
-129.312	-49.115	-0.369	0.174
-128.297	45.676	-0.164	0.149
-127.283	64.096	-0.155	-0.153
-126.268	-31.422	0.360	-0.200
-125.253	800.000	0.088	-0.284
-124.239	42.844	0.097	0.087
-123.224	46.287	0.091	0.083
-122.210	-200.000	0.042	0.199
-121.195	282.215	0.142	-0.250
-120.180	-141.574	0.450	-0.045
-119.166	-125.955	-0.226	-0.034
-118.151	26.815	0.161	0.133
-117.137	-200.000	0.013	0.178
-116.122	51.867	-0.044	-0.041
-115.107	223.567	-0.195	0.310
-114.093	-200.000	-0.019	-0.133
-113.078	20.302	0.270	0.214
-112.064	23.280	0.159	0.128
-111.049	136.538	0.188	0.242
-110.034	80.034	0.094	-0.100
-109.020	-37.061	0.173	0.091
-108.005	11.736	0.098	-0.074
-106.991	-200.000	-0.016	-0.097
-105.976	-95.634	0.240	0.063
-104.962	-6.781	-0.233	0.156
-103.947	453.558	0.081	0.177
-102.932	-200.000	0.031	0.144
-101.918	-84.788	0.403	-0.125
-100.903	-84.893	-0.078	0.024
-99.889	-200.000	-0.068	0.513
-98.874	-200.000	-0.039	0.381
-97.859	-200.000	0.065	0.306
-96.845	800.000	-0.029	-0.107
-95.830	169.071	0.111	0.156
-94.816	-10.957	0.126	0.082
-93.801	-200.000	0.025	-0.225
-92.786	-115.877	0.321	0.059
-91.772	-200.000	-0.003	0.470
-90.757	-200.000	-0.007	-0.193
-89.743	43.872	0.160	-0.144
-88.728	-34.426	0.412	0.222
-87.713	527.259	0.016	0.038
-86.699	-20.676	0.153	-0.092
-85.684	-200.000	0.018	0.198
-84.670	-118.238	0.275	-0.048
-83.655	-118.404	-0.252	-0.044
-82.640	-175.376	-0.288	-0.008
-81.626	6.992	-0.068	0.049
-80.611	-200.000	0.002	-0.178
-79.597	-24.852	-0.213	-0.124
-78.582	-70.698	0.108	0.040
-77.567	510.242	0.028	0.064
-76.553	-200.000	-0.006	-0.047
-75.538	80.472	0.293	-0.310
-74.524	118.548	-0.031	-0.037
-73.509	-73.668	0.153	-0.055
-72.494	62.296	0.165	-0.162
-71.480	260.527	-0.100	-0.171
-70.465	-43.742	0.310	-0.154
-69.451	162.340	0.326	-0.449
-68.436	113.534	-0.134	-0.160
-67.422	28.010	-0.022	0.018
-66.407	-200.000	-0.002	-0.121
-65.392	800.000	-0.087	0.287
-64.378	-200.000	-0.014	0.076
-63.363	-200.000	0.007	-0.092
-62.349	204.172	0.083	0.126
-61.334	292.015	-0.665	-1.189
-60.319	78.260	0.338	0.354
-59.305	-200.000	-0.133	-1.105
-58.290	261.534	0.580	0.987
-57.276	800.000	0.335	1.441
-56.261	-200.000	94.796	589.807
-55.246	575.677	1363.240	3268.330
-54.232	162.198	2547.642	3505.442
-53.217	107.159	2263.610	2640.879
-52.203	41.712	1891.566	1682.545
-51.188	35.516	1681.934	1449.428
-50.173	32.888	1637.457	1391.701
-49.159	49.989	1684.006	1559.433
-48.144	51.620	1700.655	1586.980
-47.130	35.115	1661.229	1428.365
-46.115	32.364	1646.589	1395.349
-45.100	32.301	1641.442	1390.469
-44.086	32.071	1640.007	1387.500
-43.071	32.237	1636.353	1385.577
-42.057	32.140	1634.441	1383.190
-41.042	32.116	1632.564	1381.368
-40.027	32.139	1630.806	1379.997
-39.013	32.169	1628.597	1378.288
-37.998	32.233	1626.533	1376.960
-36.984	32.196	1626.034	1376.208
-35.969	32.305	1623.856	1375.109
-34.954	32.296	1622.590	1373.915
-33.940	32.279	1620.582	1372.036
-32.925	32.252	1619.143	1370.568
-31.911	32.243	1617.174	1368.783
-30.896	32.323	1615.425	1367.825
-29.881	32.311	1613.784	1366.301
-28.867	32.247	1612.444	1364.646
-27.852	32.375	1610.324	1363.728
-26.838	32.297	1609.173	1362.132
-25.823	32.337	1607.689	1361.110
-24.809	32.358	1606.783	1360.444
-23.794	32.366	1605.145	1359.058
-22.779	32.394	1603.853	1358.115
-21.765	32.282	1602.253	1355.896
-20.750	32.259	1600.688	1354.355
-19.736	32.281	1599.743	1353.658
-18.721	32.283	1598.178	1352.296
-17.706	32.326	1596.645	1351.253
-16.692	32.273	1594.626	1349.108
-15.677	32.251	1593.751	1348.159
-14.663	32.350	1591.743	1347.114
-13.648	32.310	1590.781	1345.958
-12.633	32.317	1588.948	1344.404
-11.619	32.374	1587.553	1343.578
-10.604	32.326	1585.758	1341.668
-9.590	32.353	1584.478	1340.718
-8.575	32.322	1583.355	1339.500
-7.560	32.344	1582.224	1338.640
-6.546	32.392	1581.554	1338.363
-5.531	32.309	1580.051	1336.449
-4.517	32.308	1578.823	1335.354
-3.502	32.318	1577.745	1334.457
-2.487	32.527	1575.821	1334.258
-1.473	31.998	1564.996	1321.319
-0.458	29.398	1545.685	1286.849
0.556	26.398	1546.396	1256.654
1.571	24.207	1570.006	1260.251
2.586	23.760	1583.822	1268.043
3.600	21.350	1531.174	1209.130
4.615	12.355	1420.987	1064.013
5.629	3.721	1355.161	961.106
6.644	2.193	1346.239	945.242
7.659	2.122	1344.959	943.820
8.673	2.051	1344.025	942.644
9.688	2.084	1341.842	941.235
10.702	1.798	1339.302	937.609
11.717	5.245	1346.271	963.701
12.731	15.359	1365.170	1040.146
13.746	23.898	1379.556	1104.286
14.761	26.263	1382.722	1121.419
15.775	26.767	1382.241	1124.055
16.790	26.694	1382.024	1123.328
17.804	26.802	1381.336	1123.341
18.819	27.034	1381.244	1124.600
19.834	27.029	1380.880	1124.173
20.848	27.096	1379.844	1123.649
21.863	27.044	1379.113	1122.630
22.877	27.142	1378.419	1122.573
23.892	27.080	1378.107	1121.833
24.907	26.994	1377.061	1120.355
25.921	27.069	1375.701	1119.612
26.936	27.153	1374.492	1119.043
27.950	27.179	1373.133	1117.997
28.965	27.040	1372.434	1116.475
29.980	27.106	1371.380	1115.926
30.994	27.103	1369.544	1114.314
32.009	27.007	1368.882	1113.090
33.023	27.135	1367.320	1112.506
34.038	27.090	1366.412	1111.394
35.053	27.145	1365.415	1110.817
36.067	27.114	1364.519	1109.800
37.082	27.161	1363.485	1109.151
38.096	27.118	1362.915	1108.326
39.111	27.145	1361.833	1107.514
40.126	26.992	1361.617	1106.308
41.140	27.073	1360.833	1106.063
42.155	27.144	1359.898	1105.640
43.169	27.090	1360.462	1105.672
44.184	27.147	1359.832	1105.406
45.199	27.005	1360.185	1104.732
46.213	27.090	1359.199	1104.349
47.228	27.009	1358.172	1102.925
48.242	27.014	1357.769	1102.530
49.257	27.095	1356.056	1101.532
50.271	26.973	1354.765	1099.651
51.286	27.102	1352.701	1098.659
52.301	27.151	1351.733	1098.068
53.315	27.059	1350.877	1096.723
54.330	27.049	1350.157	1095.979
55.344	27.180	1348.627	1095.429
56.359	27.173	1347.612	1094.468
57.374	27.106	1347.442	1093.828
58.388	27.116	1346.866	1093.325
59.403	27.144	1346.244	1092.894
60.417	27.169	1345.343	1092.211
61.432	27.132	1344.774	1091.430
62.447	27.038	1344.041	1090.174
63.461	27.111	1343.005	1089.680
64.476	27.090	1342.274	1088.860
65.490	27.166	1340.679	1087.924
66.505	27.137	1339.166	1086.427
67.520	27.158	1337.971	1085.487
68.534	27.089	1337.146	1084.313
69.549	27.109	1336.276	1083.628
70.563	27.026	1335.761	1082.624
71.578	27.206	1334.272	1082.392
72.593	27.115	1333.768	1081.347
73.607	27.031	1333.538	1080.565
74.622	27.087	1332.410	1079.889
75.636	27.140	1331.537	1079.398
76.651	27.140	1330.468	1078.435
77.666	27.036	1330.749	1077.952
78.680	27.109	1329.814	1077.530
79.695	27.185	1328.847	1077.104
80.709	27.141	1328.111	1076.149
81.724	27.161	1327.430	1075.622
82.739	27.010	1326.394	1073.793
83.753	27.171	1325.383	1073.830
84.768	27.170	1324.289	1072.844
85.782	27.179	1323.228	1071.941
86.797	27.182	1322.182	1071.019
87.812	27.145	1321.069	1069.803
88.826	27.179	1320.041	1069.079
89.841	27.143	1318.955	1067.892
90.855	27.148	1318.114	1067.147
91.870	27.152	1316.869	1066.064
92.884	27.167	1316.586	1065.829
93.899	27.128	1315.753	1064.834
94.914	27.177	1314.797	1064.255
95.928	27.208	1313.912	1063.625
96.943	27.161	1313.323	1062.779
97.957	27.146	1313.079	1062.401
98.972	27.252	1311.816	1061.904
99.987	27.136	1311.237	1060.663
101.001	27.195	1310.295	1060.148
102.016	27.178	1309.199	1059.069
103.030	27.174	1308.155	1058.108
104.045	27.183	1307.675	1057.679
105.060	27.220	1306.451	1056.814
106.074	27.130	1305.785	1055.654
107.089	27.218	1304.708	1055.202
108.103	27.275	1303.261	1054.268
109.118	27.218	1302.758	1053.437
110.133	27.171	1301.497	1052.052
111.147	27.200	1300.312	1051.169
112.162	27.266	1299.037	1050.431
113.176	27.288	1297.942	1049.578
114.191	27.284	1297.151	1048.821
115.206	27.186	1296.607	1047.727
116.220	27.367	1294.522	1046.989
117.235	27.230	1294.295	1045.924
118.249	27.251	1293.739	1045.501
119.264	27.305	1292.685	1044.867
120.279	27.319	1292.035	1044.331
121.293	27.353	1291.249	1043.796
122.308	27.215	1290.566	1042.366
123.322	27.213	1289.997	1041.802
124.337	27.362	1288.629	1041.456
125.352	27.280	1287.855	1040.267
126.366	27.364	1286.744	1039.757
127.381	27.358	1286.093	1039.108
128.395	27.263	1285.787	1038.224
129.410	27.394	1283.996	1037.434
130.424	27.287	1283.704	1036.498
131.439	27.352	1283.023	1036.225
132.454	27.306	1282.245	1035.244
133.468	27.409	1281.305	1034.979
134.483	27.263	1281.054	1033.854
135.497	27.380	1280.185	1033.725
136.512	27.340	1279.051	1032.493
137.527	27.315	1278.197	1031.569
138.541	27.243	1277.231	1030.289
139.556	27.176	1275.947	1028.785
140.570	27.190	1274.846	1027.882
141.585	27.337	1273.798	1027.780
142.600	27.331	1272.827	1026.869
143.614	27.179	1272.383	1025.565
144.629	27.258	1270.833	1024.671
145.643	27.179	1270.124	1023.565
146.658	27.177	1268.952	1022.515
147.673	27.273	1267.714	1021.970
148.687	27.141	1267.534	1020.990
149.702	27.117	1266.323	1019.793
150.716	27.194	1265.126	1019.170
151.731	27.267	1264.185	1018.726
152.746	27.286	1262.904	1017.714
153.760	27.328	1261.927	1017.073
154.775	27.261	1261.329	1016.125
155.789	27.255	1260.282	1015.154
156.804	27.338	1258.970	1014.475
157.819	27.313	1258.272	1013.680
158.833	27.317	1257.450	1012.954
159.848	27.330	1256.968	1012.544
160.862	27.328	1256.153	1011.787
161.877	27.432	1255.620	1011.846
162.892	27.407	1254.692	1010.870
163.906	27.355	1253.965	1009.908
164.921	27.382	1253.444	1009.549
165.935	27.336	1252.457	1008.408
166.950	27.420	1251.779	1008.241
167.964	27.397	1251.259	1007.602
168.979	27.430	1250.705	1007.251
169.994	27.404	1250.220	1006.629
171.008	27.483	1249.233	1006.179
172.023	27.429	1248.420	1005.137
173.037	27.341	1248.100	1004.308
174.052	27.420	1247.442	1004.124
175.067	27.441	1246.722	1003.569
176.081	27.347	1245.885	1002.290
177.096	27.482	1244.819	1002.089
178.110	27.461	1243.808	1001.072
179.125	27.514	1242.678	1000.363
180.140	27.487	1241.862	999.468
181.154	27.527	1240.769	998.719
182.169	27.478	1239.842	997.618
183.183	27.503	1238.629	996.692
184.198	27.549	1238.348	996.624
185.213	27.541	1236.740	995.203
186.227	27.451	1235.807	993.871
187.242	27.481	1235.013	993.307
188.256	27.442	1234.608	992.682
189.271	27.591	1233.192	992.270
190.286	27.577	1232.711	991.715
191.300	27.378	1232.800	990.616
192.315	27.503	1231.831	990.428
193.329	27.444	1231.606	989.842
194.344	27.535	1231.147	989.881
195.359	27.616	1230.232	989.494
196.373	27.497	1230.072	988.631
197.388	27.401	1229.972	987.942
198.402	27.454	1229.469	987.738
199.417	27.592	1228.649	987.743
200.432	27.534	1227.954	986.784
201.446	27.578	1227.548	986.606
202.461	27.469	1226.921	985.424
203.475	27.458	1225.886	984.445
204.490	27.448	1225.440	983.947
205.504	27.416	1224.503	982.937
206.519	27.492	1223.424	982.392
207.534	27.525	1222.279	981.564
208.548	27.602	1221.472	981.246
209.563	27.617	1220.730	980.641
210.577	27.646	1219.443	979.677
211.592	27.538	1219.242	978.848
212.607	27.539	1218.662	978.302
213.621	27.609	1217.645	977.777
214.636	27.682	1216.809	977.409
215.650	27.594	1216.006	976.207
216.665	27.491	1215.277	974.982
217.680	27.600	1214.548	974.895
218.694	27.605	1213.641	974.108
219.709	27.699	1212.796	973.844
220.723	27.640	1212.343	973.078
221.738	27.576	1211.734	972.161
222.753	27.685	1210.446	971.623
223.767	27.630	1210.098	970.967
224.782	27.728	1209.633	971.030
225.796	27.681	1209.106	970.270
226.811	27.685	1208.827	969.981
227.826	27.613	1208.292	969.081
228.840	27.677	1207.416	968.632
229.855	27.695	1206.722	968.087
230.869	27.703	1205.840	967.337
231.884	27.764	1205.319	967.157
232.899	27.711	1204.728	966.316
233.913	27.802	1203.868	966.021
234.928	27.879	1203.262	965.856
235.942	27.883	1203.089	965.654
236.957	27.784	1202.555	964.615
237.972	27.756	1201.708	963.702
238.986	27.819	1200.974	963.364
240.001	27.789	1200.542	962.775
241.015	27.831	1199.394	961.987
242.030	27.925	1198.655	961.803
243.045	27.858	1198.250	961.041
244.059	27.902	1197.280	960.412
245.074	28.042	1196.203	960.196
246.088	27.911	1195.951	959.220
247.103	27.978	1194.707	958.493
248.117	27.945	1194.044	957.702
249.132	28.027	1193.438	957.559
250.147	27.969	1192.625	956.518
251.161	28.061	1192.121	956.511
252.176	28.074	1191.386	955.905
253.190	27.997	1191.008	955.115
254.205	27.899	1190.636	954.222
255.220	27.923	1189.889	953.662
256.234	28.109	1188.808	953.682
257.249	27.966	1188.553	952.648
258.263	27.978	1187.955	952.150
259.278	27.992	1187.434	951.720
260.293	28.065	1186.912	951.594
261.307	28.181	1186.316	951.638
262.322	28.055	1185.655	950.367
263.336	28.007	1185.040	949.543
264.351	28.004	1184.807	949.252
265.366	28.059	1183.890	948.718
266.380	28.087	1182.917	948.001
267.395	28.092	1182.310	947.459
268.409	27.994	1181.967	946.593
269.424	28.067	1181.750	946.711
270.439	28.076	1180.941	946.028
271.453	28.084	1180.533	945.659
272.468	28.118	1179.593	944.999
273.482	28.102	1178.848	944.235
274.497	27.992	1178.760	943.512
275.512	28.179	1177.909	943.711
276.526	28.139	1177.056	942.739
277.541	28.072	1176.146	941.582
278.555	28.185	1175.579	941.624
279.570	28.214	1175.170	941.364
280.585	28.193	1173.880	940.137
281.599	28.168	1173.075	939.282
282.614	28.168	1171.973	938.319
283.628	28.185	1171.352	937.826
284.643	28.265	1170.664	937.601
285.657	28.129	1170.150	936.409
286.672	28.321	1168.929	936.330
287.687	28.298	1168.245	935.583
288.701	28.224	1168.044	934.963
289.716	28.276	1167.013	934.318
290.730	28.264	1166.482	933.748
291.745	28.343	1165.822	933.540
292.760	28.427	1165.403	933.549
293.774	28.273	1164.934	932.309
294.789	28.308	1164.739	932.246
295.803	28.393	1163.347	931.484
296.818	28.353	1163.006	930.923
297.833	28.340	1161.981	929.956
298.847	28.333	1161.468	929.429
299.862	28.448	1160.855	929.440
300.876	28.356	1160.635	928.716
301.891	28.363	1160.224	928.337
302.906	28.423	1159.481	927.967
303.920	28.492	1158.303	927.289
304.935	28.453	1157.867	926.660
305.949	28.430	1157.143	925.881
306.964	28.492	1156.427	925.540
307.979	28.509	1155.732	924.988
308.993	28.522	1155.038	924.418
310.008	28.539	1154.151	923.714
311.022	28.481	1153.727	922.996
312.037	28.435	1153.282	922.331
313.052	28.575	1152.364	922.216
314.066	28.507	1151.184	920.849
315.081	28.521	1150.512	920.303
316.095	28.566	1150.086	920.104
317.110	28.595	1149.196	919.455
318.125	28.599	1148.838	919.107
319.139	28.579	1148.197	918.413
320.154	28.485	1147.608	917.392
321.168	28.552	1146.972	917.139
322.183	28.492	1146.517	916.392
323.197	28.538	1146.305	916.372
324.212	28.575	1145.744	916.027
325.227	28.539	1145.274	915.391
326.241	28.814	1143.692	915.415
327.256	28.812	1143.324	915.030
328.270	28.672	1142.497	913.588
329.285	28.566	1142.228	912.766
330.300	28.711	1141.019	912.443
331.314	28.745	1140.093	911.786
332.329	28.667	1139.976	911.227
333.343	28.767	1138.862	910.749
334.358	28.684	1138.271	909.787
335.373	28.606	1137.747	908.900
336.387	28.764	1136.915	908.939
337.402	28.630	1136.088	907.534
338.416	28.769	1135.519	907.687
339.431	28.752	1134.953	907.071
340.446	28.856	1134.231	906.922
341.460	28.823	1133.497	906.096
342.475	28.850	1132.918	905.683
343.489	28.903	1131.992	905.124
344.504	29.022	1130.800	904.675
345.519	28.887	1130.473	903.674
346.533	28.989	1129.616	903.407
347.548	28.827	1129.122	902.137
348.562	28.967	1127.860	901.737
349.577	28.913	1127.374	901.001
350.592	28.825	1126.546	899.832
351.606	28.873	1126.149	899.671
352.621	28.854	1125.825	899.240
353.635	28.952	1125.223	899.156
354.650	28.882	1124.530	898.182
355.665	28.860	1123.867	897.464
356.679	28.971	1123.371	897.532
357.694	28.954	1122.706	896.838
358.708	29.052	1121.473	896.249
359.723	29.065	1121.125	895.955
360.738	29.024	1120.657	895.302
361.752	29.022	1120.152	894.808
362.767	29.040	1119.573	894.356
363.781	29.028	1119.058	893.809
364.796	29.194	1118.511	894.098
365.810	29.033	1118.095	892.906
366.825	29.114	1117.309	892.591
367.840	29.120	1116.973	892.273
368.854	29.277	1115.666	891.909
369.869	29.191	1115.498	891.280
370.883	29.191	1114.958	890.768
371.898	29.183	1113.948	889.843
372.913	29.250	1113.190	889.485
373.927	29.291	1112.371	888.948
374.942	29.221	1112.738	888.826
375.956	29.119	1112.202	887.828
376.971	29.271	1111.369	887.816
377.986	29.182	1110.984	887.003
379.000	29.235	1110.839	887.062
380.015	29.268	1110.358	886.760
381.029	29.324	1109.190	886.014
382.044	29.318	1108.477	885.340
383.059	29.323	1107.867	884.800
384.073	29.455	1106.902	884.582
385.088	29.322	1106.127	883.244
386.102	29.386	1105.584	883.042
387.117	29.270	1104.759	881.750
388.132	29.339	1103.800	881.234
389.146	29.393	1103.538	881.208
390.161	29.293	1103.105	880.306
391.175	29.354	1102.379	879.938
392.190	29.379	1101.401	879.201
393.205	29.404	1100.885	878.831
394.219	29.427	1100.137	878.265
395.234	29.466	1099.665	877.995
396.248	29.469	1098.063	876.654
397.263	29.447	1097.778	876.242
398.278	29.529	1097.191	876.086
399.292	29.511	1096.698	875.530
400.307	29.593	1095.706	875.046
401.321	29.481	1095.636	874.385
402.336	29.552	1094.773	873.956
403.350	29.551	1093.549	872.895
404.365	29.508	1093.352	872.458
405.380	29.565	1092.490	871.963
406.394	29.613	1091.958	871.687
407.409	29.710	1091.022	871.322
408.423	29.709	1090.231	870.607
409.438	29.810	1089.333	870.285
410.453	29.675	1088.909	869.237
411.467	29.637	1088.647	868.773
412.482	29.609	1087.672	867.787
413.496	29.663	1087.115	867.517
414.511	29.730	1086.641	867.379
415.526	29.740	1086.128	866.940
416.540	29.668	1085.639	866.134
417.555	29.822	1084.925	866.210
418.569	29.779	1084.458	865.557
419.584	29.895	1084.572	866.116
420.599	29.784	1084.005	865.067
421.613	104.278	1321.942	1457.474
422.628	97.039	1356.581	1457.575
