DTS Sentinel unit serial number:	SN413079Multiplexer serial number:	ORYXHardware model number:	OX4-SRSoftware version number:	ORYX F/W v4.00 Oryx Data Collector v3.7.2.0data status	okinstallation	princeton_trtdifferential loss correction	single-endedforward channel	channel 2reverse channel	N/Adate	2019/09/12time	19:25:49forward acquisition time	15.00reverse acquisition time	0.00gamma	496.2192k internal	0.2326k external	0.2326temperature offset calibration	1.0148default loss term (dB/km)	0.3790temperature slope calibration	1.0000multiplexer offset coefficient	1.0000multiplexer slope coefficient	1.0000fibre end	0.00T internal ref (°C)	32.31T ext. ref 1 (°C)	3.26T ext. ref 2 (°C)	26.89length (m)	temperature (°C)	Stokes	anti-Stokes-747.200	123.633	0.105	-0.134
-746.185	-142.006	-0.488	0.049
-745.171	73.782	-0.991	1.047
-744.156	800.000	-0.126	0.524
-743.142	-69.329	0.884	0.343
-742.127	800.000	0.124	-0.511
-741.112	118.268	0.287	0.358
-740.098	564.849	-0.183	0.448
-739.083	800.000	-0.106	-0.340
-738.069	-200.000	0.042	-0.651
-737.054	-162.213	-0.565	-0.028
-736.039	-200.000	0.062	0.767
-735.025	434.996	-0.377	-0.828
-734.010	-189.156	-0.472	0.006
-732.996	77.247	-0.236	-0.253
-731.981	1.900	0.730	-0.531
-730.966	88.269	0.533	0.596
-729.952	161.336	0.248	0.350
-728.937	-77.218	0.580	-0.203
-727.923	419.113	0.122	-0.264
-726.908	-52.717	-0.366	-0.170
-725.894	-54.866	1.118	0.508
-724.879	8.605	-0.200	-0.152
-723.864	321.964	-0.366	-0.703
-722.850	18.270	0.479	0.385
-721.835	-200.000	-0.030	-0.413
-720.821	-200.000	0.078	0.426
-719.806	800.000	-0.070	0.300
-718.791	-200.000	-0.227	-1.104
-717.777	86.707	-0.487	-0.542
-716.762	-200.000	0.004	-0.087
-715.748	-28.993	-0.694	0.401
-714.733	-109.022	0.784	-0.168
-713.718	-86.552	-0.864	0.267
-712.704	-108.805	-0.182	-0.039
-711.689	-148.462	-0.280	0.023
-710.675	-47.582	0.169	-0.083
-709.660	39.731	-0.114	0.103
-708.645	-99.073	-1.268	0.323
-707.631	-138.458	0.675	-0.075
-706.616	-85.322	-0.091	0.028
-705.602	800.000	0.135	-0.595
-704.587	-9.925	0.373	-0.250
-703.572	-200.000	-0.040	0.356
-702.558	-200.000	-0.129	-0.893
-701.543	89.623	0.168	0.189
-700.529	-2.379	0.395	-0.279
-699.514	-73.165	0.854	0.315
-698.499	-98.810	0.375	0.096
-697.485	-20.350	0.391	0.242
-696.470	241.019	0.431	-0.724
-695.456	-16.345	-0.447	-0.286
-694.441	461.898	-0.171	0.385
-693.426	-200.000	0.062	0.507
-692.412	800.000	-0.116	-0.360
-691.397	-15.658	0.556	-0.357
-690.383	-87.339	0.485	-0.148
-689.368	-200.000	0.050	0.296
-688.354	-95.808	-0.569	0.153
-687.339	-27.202	0.277	0.163
-686.324	101.718	0.638	0.749
-685.310	576.670	0.241	-0.594
-684.295	-64.362	-0.565	-0.231
-683.281	-200.000	-0.031	0.220
-682.266	-16.674	0.698	-0.445
-681.251	-15.043	-0.496	-0.320
-680.237	-200.000	-0.023	0.778
-679.222	304.302	-0.175	-0.327
-678.208	366.566	-0.103	-0.210
-677.193	-200.000	0.051	0.574
-676.178	3.710	0.522	-0.383
-675.164	-121.645	-0.102	-0.017
-674.149	-200.000	-0.114	0.556
-673.135	-200.000	0.010	0.427
-672.120	-58.486	0.818	-0.357
-671.105	134.224	0.216	0.281
-670.091	214.984	-0.170	-0.271
-669.076	-92.380	0.644	0.182
-668.062	-200.000	-0.057	0.381
-667.047	438.612	-0.051	-0.112
-666.032	-64.642	-0.372	-0.152
-665.018	455.663	-0.153	0.342
-664.003	57.266	0.603	0.592
-662.989	800.000	-0.058	0.165
-661.974	-39.760	0.495	0.260
-660.959	-61.538	-0.558	-0.236
-659.945	800.000	0.169	0.636
-658.930	-89.717	0.368	0.108
-657.916	-200.000	0.008	-0.325
-656.901	-16.488	0.428	0.273
-655.886	84.862	-0.406	-0.447
-654.872	587.823	0.084	0.207
-653.857	-28.724	0.128	-0.074
-652.843	141.093	0.279	-0.371
-651.828	315.344	0.194	0.367
-650.814	-87.013	0.314	0.096
-649.799	656.742	0.054	-0.140
-648.784	335.850	0.138	0.269
-647.770	-44.570	0.323	-0.162
-646.755	-200.000	-0.023	-0.104
-645.741	245.585	-0.014	0.023
-644.726	190.191	0.206	0.311
-643.711	140.438	0.151	-0.201
-642.697	145.106	0.393	-0.529
-641.682	-133.329	-0.930	-0.118
-640.668	-200.000	-0.013	-0.289
-639.653	-100.220	0.496	0.124
-638.638	-128.396	-0.952	0.136
-637.624	-200.000	-0.015	-0.347
-636.609	-200.000	0.042	-0.204
-635.595	-195.627	0.552	-0.004
-634.580	-83.465	0.199	-0.064
-633.565	499.177	0.047	0.110
-632.551	195.242	0.215	-0.328
-631.536	490.326	-0.260	0.597
-630.522	-27.912	0.461	0.268
-629.507	-200.000	0.052	0.494
-628.492	49.582	-0.046	-0.044
-627.478	238.281	-0.357	0.595
-626.463	-116.952	0.355	-0.065
-625.449	25.906	0.152	-0.127
-624.434	208.520	0.041	0.065
-623.419	138.067	-0.398	-0.524
-622.405	-200.000	-0.052	0.402
-621.390	79.224	0.704	-0.758
-620.376	-60.432	-1.005	0.429
-619.361	-43.985	-0.463	-0.233
-618.346	-65.986	-0.552	-0.221
-617.332	74.847	0.390	-0.412
-616.317	-127.046	0.415	-0.061
-615.303	-21.284	0.853	-0.523
-614.288	-19.349	-0.430	-0.268
-613.273	-200.000	0.128	-0.860
-612.259	256.481	-0.349	-0.602
-611.244	250.663	-0.135	0.231
-610.230	-200.000	0.001	0.016
-609.215	-142.658	-0.436	-0.043
-608.201	-196.006	-1.188	-0.008
-607.186	-122.896	0.860	-0.139
-606.171	800.000	0.239	0.819
-605.157	-200.000	0.122	0.620
-604.142	-68.021	-0.678	0.265
-603.128	-84.981	-0.213	0.067
-602.113	-86.502	-0.378	0.116
-601.098	-200.000	-0.055	0.263
-600.084	-2.875	-0.078	-0.055
-599.069	-200.000	-0.113	0.631
-598.055	16.992	0.840	0.668
-597.040	-102.315	-0.613	0.148
-596.025	-43.429	0.103	-0.052
-595.011	-200.000	0.042	-0.641
-593.996	357.256	0.304	0.607
-592.982	800.000	0.365	-1.082
-591.967	800.000	0.043	-0.128
-590.952	314.540	-0.265	0.500
-589.938	328.227	-0.442	0.852
-588.923	-76.270	0.081	-0.028
-587.909	-137.694	-1.225	0.138
-586.894	-200.000	-0.014	-0.179
-585.879	-200.000	0.233	-1.172
-584.865	208.561	0.195	-0.306
-583.850	-41.602	0.311	-0.160
-582.836	-21.533	0.419	0.256
-581.821	654.711	-0.227	0.583
-580.806	502.613	0.086	-0.199
-579.792	-128.964	0.155	0.022
-578.777	6.193	-0.758	-0.563
-577.763	-200.000	0.210	0.001
-576.748	4.691	0.450	0.332
-575.733	-78.026	-1.143	0.395
-574.719	-95.446	-1.264	-0.340
-573.704	400.877	-0.248	0.522
-572.690	-13.004	-0.351	0.229
-571.675	-33.838	0.023	0.013
-570.661	-200.000	-0.051	0.339
-569.646	228.369	0.287	0.469
-568.631	-21.395	-0.676	0.414
-567.617	-65.080	-0.304	-0.123
-566.602	-200.000	0.053	-0.377
-565.588	81.501	0.546	0.591
-564.573	70.716	0.439	0.455
-563.558	90.799	0.430	-0.483
-562.544	168.271	-0.268	-0.382
-561.529	800.000	-0.096	-0.319
-560.515	800.000	-0.107	0.421
-559.500	-35.768	-0.300	0.163
-558.485	-23.206	0.063	-0.038
-557.471	-140.957	-0.354	0.036
-556.456	161.804	0.150	0.210
-555.442	-63.762	-0.446	0.183
-554.427	-92.247	0.680	0.192
-553.412	800.000	-0.318	0.997
-552.398	-200.000	0.074	0.695
-551.383	50.976	-0.262	0.249
-550.369	50.787	0.114	-0.108
-549.354	-180.944	-0.884	0.018
-548.339	35.701	-0.342	-0.301
-547.325	738.832	-0.138	0.371
-546.310	-64.863	-0.094	-0.038
-545.296	-8.953	0.469	-0.314
-544.281	-60.208	-0.358	-0.152
-543.266	62.056	0.513	-0.512
-542.252	263.457	0.201	0.349
-541.237	129.480	-0.057	-0.073
-540.223	230.913	0.216	-0.354
-539.208	325.229	-0.264	-0.505
-538.193	-141.719	-0.616	0.062
-537.179	-200.000	0.001	0.731
-536.164	-115.294	0.095	-0.018
-535.150	12.162	-0.834	0.642
-534.135	-67.981	0.511	-0.200
-533.121	-77.471	0.678	0.235
-532.106	800.000	0.246	0.868
-531.091	164.172	0.585	-0.824
-530.077	-101.061	0.448	-0.110
-529.062	65.320	0.235	0.238
-528.048	617.982	-0.360	-0.903
-527.033	190.370	0.338	-0.507
-526.018	-112.615	0.507	-0.101
-525.004	407.263	0.366	0.774
-523.989	25.779	0.797	0.664
-522.975	-116.117	-0.475	0.088
-521.960	-96.094	0.645	0.171
-520.945	-200.000	0.028	-0.507
-519.931	-184.930	1.096	-0.017
-518.916	-64.794	0.234	0.095
-517.902	-174.931	-0.144	-0.004
-516.887	800.000	0.217	-0.660
-515.872	61.256	-0.806	-0.800
-514.858	86.477	0.361	0.398
-513.843	-70.517	-0.405	0.153
-512.829	0.940	0.094	-0.067
-511.814	-70.099	0.257	0.098
-510.799	-147.229	-0.325	0.028
-509.785	-81.751	0.380	-0.124
-508.770	532.146	-0.194	0.458
-507.756	-200.000	-0.003	-0.357
-506.741	66.930	-0.395	0.402
-505.726	800.000	0.091	-0.265
-504.712	-159.206	0.716	0.040
-503.697	115.843	-0.103	-0.126
-502.683	96.354	0.153	0.175
-501.668	-154.262	0.264	-0.018
-500.653	800.000	-0.150	-0.528
-499.639	41.153	0.169	-0.152
-498.624	-8.456	0.523	0.351
-497.610	384.736	-0.124	0.254
-496.595	648.638	0.154	-0.393
-495.581	-180.943	-0.355	-0.007
-494.566	-200.000	-0.059	0.369
-493.551	-108.001	-0.523	0.114
-492.537	-200.000	-0.094	-0.463
-491.522	-188.534	0.513	-0.006
-490.508	138.574	0.139	-0.183
-489.493	-7.003	0.860	0.584
-488.478	-200.000	-0.041	-0.510
-487.464	800.000	-0.089	-0.351
-486.449	-17.614	-0.525	0.330
-485.435	-67.418	0.718	0.281
-484.420	592.022	0.326	0.804
-483.405	-83.666	0.117	0.037
-482.391	10.223	-1.029	-0.782
-481.376	-200.000	-0.049	0.259
-480.362	-54.060	0.063	0.029
-479.347	-68.072	0.486	0.189
-478.332	-145.538	0.557	0.050
-477.318	800.000	0.128	0.415
-476.303	-15.301	0.126	0.081
-475.289	228.915	0.233	-0.379
-474.274	644.854	0.164	-0.418
-473.259	275.505	0.195	-0.345
-472.245	-200.000	-0.038	0.344
-471.230	800.000	0.276	0.761
-470.216	593.026	0.243	0.598
-469.201	328.519	0.336	-0.644
-468.186	-200.000	-0.034	-0.404
-467.172	-155.498	0.494	0.032
-466.157	-134.733	0.560	-0.068
-465.143	-47.259	-0.456	-0.222
-464.128	483.297	0.094	0.212
-463.113	800.000	-0.051	0.188
-462.099	-38.749	-0.072	0.038
-461.084	-33.101	-0.094	-0.052
-460.070	800.000	0.309	1.036
-459.055	-33.751	-0.319	-0.175
-458.040	800.000	-0.116	-0.429
-457.026	12.208	0.274	-0.210
-456.011	-200.000	0.018	-0.271
-454.997	388.749	-0.184	0.381
-453.982	-39.428	0.377	0.197
-452.968	-106.354	0.298	-0.066
-451.953	-200.000	-0.002	0.018
-450.938	103.514	-0.281	0.329
-449.924	181.710	0.451	-0.661
-448.909	-71.384	0.486	0.182
-447.895	800.000	-0.143	-0.555
-446.880	153.836	-0.454	0.621
-445.865	-108.758	-0.091	0.019
-444.851	88.763	-0.417	-0.462
-443.836	-200.000	0.087	-0.537
-442.822	-168.662	-0.321	0.012
-441.807	-55.076	0.318	0.143
-440.792	69.778	0.778	0.799
-439.778	-110.655	-0.681	-0.140
-438.763	-59.645	0.711	0.304
-437.749	348.646	-0.300	-0.589
-436.734	-200.000	0.109	0.744
-435.719	-200.000	0.079	0.395
-434.705	10.279	-0.518	-0.393
-433.690	-84.376	0.245	0.077
-432.676	-20.407	-0.469	-0.288
-431.661	134.822	-0.398	-0.515
-430.646	-120.434	-0.756	-0.128
-429.632	-43.861	-0.647	0.325
-428.617	-200.000	0.200	-1.129
-427.603	-200.000	0.084	-0.551
-426.588	11.504	0.660	-0.504
-425.573	106.483	0.377	-0.446
-424.559	189.535	0.097	0.145
-423.544	222.771	0.236	0.379
-422.530	-24.746	-0.755	-0.447
-421.515	587.466	-0.143	-0.350
-420.500	-200.000	-0.015	0.859
-419.486	547.070	-0.162	0.386
-418.471	800.000	-0.090	-0.377
-417.457	-128.940	-0.616	-0.086
-416.442	-98.400	0.580	0.148
-415.428	-18.390	-0.081	-0.050
-414.413	-118.701	-0.444	-0.078
-413.398	-77.144	-0.687	0.238
-412.384	-200.000	-0.003	0.133
-411.369	26.535	0.728	-0.607
-410.355	-158.350	0.230	-0.013
-409.340	-31.009	0.808	-0.454
-408.325	108.597	-0.273	-0.325
-407.311	-117.800	-0.280	-0.050
-406.296	-137.698	0.859	0.096
-405.282	-21.262	-0.207	-0.126
-404.267	326.203	-0.344	-0.655
-403.252	800.000	0.203	-0.837
-402.238	800.000	-0.055	0.216
-401.223	202.188	-0.374	-0.575
-400.209	-56.521	-0.289	-0.127
-399.194	5.558	0.217	0.160
-398.179	44.425	0.724	0.661
-397.165	232.943	0.410	0.670
-396.150	6.743	0.538	0.398
-395.136	-47.657	0.556	-0.268
-394.121	44.997	-0.288	-0.264
-393.106	-79.349	0.505	-0.170
-392.092	-106.403	-0.640	0.142
-391.077	-59.999	0.757	0.322
-390.063	-108.920	-0.817	-0.174
-389.048	-108.428	0.862	0.185
-388.033	800.000	0.158	-0.459
-387.019	-156.739	-0.284	-0.017
-386.004	73.302	-0.501	0.522
-384.990	184.343	-0.883	1.301
-383.975	-200.000	-0.127	0.947
-382.960	39.446	0.243	-0.217
-381.946	800.000	0.230	0.917
-380.931	-163.408	-0.274	-0.013
-379.917	-120.830	0.356	-0.060
-378.902	-136.392	-0.880	0.102
-377.888	38.822	-0.304	-0.270
-376.873	-200.000	0.074	-0.385
-375.858	-94.172	1.095	0.298
-374.844	800.000	-0.162	-0.622
-373.829	-200.000	-0.219	-0.979
-372.815	-13.112	-0.331	-0.214
-371.800	-41.711	-0.771	-0.393
-370.785	-113.963	0.503	-0.097
-369.771	168.887	-0.381	-0.539
-368.756	120.402	0.135	0.167
-367.742	417.116	-0.482	1.022
-366.727	-164.189	-0.655	0.030
-365.712	-60.439	0.331	-0.140
-364.698	-107.252	1.164	0.255
-363.683	800.000	-0.173	0.648
-362.669	-137.141	0.168	-0.019
-361.654	-54.942	0.963	0.431
-360.639	-55.002	-0.788	0.353
-359.625	54.049	0.208	0.199
-358.610	-100.206	0.628	-0.155
-357.596	800.000	-0.142	0.473
-356.581	-98.575	-0.250	0.063
-355.566	-12.106	-0.843	0.548
-354.552	-20.232	0.318	-0.195
-353.537	0.037	0.461	0.327
-352.523	-200.000	-0.198	-1.013
-351.508	-59.427	-0.306	0.131
-350.493	-30.037	-0.529	0.299
-349.479	19.695	-0.375	-0.300
-348.464	-26.244	-0.318	-0.185
-347.450	-200.000	0.030	-0.494
-346.435	-68.000	0.430	0.166
-345.420	-200.000	-0.123	0.826
-344.406	93.607	0.505	-0.568
-343.391	109.599	0.082	0.098
-342.377	290.900	0.626	-1.130
-341.362	-57.514	-0.160	-0.070
-340.348	182.770	-0.087	-0.128
-339.333	800.000	-0.080	0.269
-338.318	-116.869	0.315	-0.057
-337.304	-46.204	0.667	0.326
-336.289	800.000	0.268	0.853
-335.275	18.799	-0.237	-0.188
-334.260	-176.705	-0.109	0.003
-333.245	-102.456	-0.451	-0.107
-332.231	-115.790	-0.342	-0.063
-331.216	7.099	-0.556	0.411
-330.202	-110.365	-0.574	-0.118
-329.187	-200.000	0.075	0.517
-328.172	-200.000	-0.022	0.263
-327.158	-177.749	-0.886	-0.021
-326.143	40.565	-0.415	-0.371
-325.129	-166.436	-0.255	-0.011
-324.114	-200.000	0.004	0.106
-323.099	288.933	-0.255	0.458
-322.085	-176.259	0.621	-0.016
-321.070	-91.690	0.597	-0.169
-320.056	-200.000	0.051	0.361
-319.041	545.650	0.178	0.423
-318.026	-84.889	0.615	-0.192
-317.012	-81.380	-0.353	-0.115
-315.997	117.867	0.254	-0.311
-314.983	70.272	-0.082	0.084
-313.968	42.936	-0.135	-0.122
-312.953	-57.031	0.649	-0.284
-311.939	34.753	-0.480	0.416
-310.924	-29.308	0.160	0.091
-309.910	-142.999	0.768	-0.074
-308.895	145.660	0.617	0.820
-307.880	153.778	0.412	-0.560
-306.866	-200.000	-0.118	0.586
-305.851	-129.371	-0.046	-0.006
-304.837	-200.000	0.024	-1.001
-303.822	800.000	-0.286	-0.959
-302.807	443.824	0.051	-0.110
-301.793	291.317	-0.302	0.544
-300.778	-81.497	0.938	-0.306
-299.764	-200.000	0.063	-0.602
-298.749	446.791	0.192	0.419
-297.735	-186.522	0.748	0.011
-296.720	117.388	0.317	-0.387
-295.705	-82.019	0.363	-0.118
-294.691	204.947	0.141	0.218
-293.676	-53.031	0.228	0.104
-292.662	140.916	0.225	0.295
-291.647	-119.401	-0.356	0.061
-290.632	-200.000	-0.080	-0.808
-289.618	99.465	-0.377	-0.432
-288.603	-28.729	-1.049	-0.598
-287.589	73.465	0.547	0.568
-286.574	225.259	-0.434	-0.697
-285.559	-58.812	-0.954	-0.409
-284.545	-55.374	-0.737	-0.328
-283.530	20.843	0.744	0.597
-282.516	-200.000	-0.091	0.441
-281.501	-147.193	-0.218	0.018
-280.486	767.087	-0.089	0.240
-279.472	800.000	-0.061	0.257
-278.457	-200.000	-0.107	-1.023
-277.443	-48.222	-0.195	0.093
-276.428	-53.262	-0.102	-0.046
-275.413	-200.000	-0.123	0.839
-274.399	-43.359	-0.602	-0.302
-273.384	-153.638	-0.795	-0.054
-272.370	-102.935	0.350	-0.082
-271.355	74.278	-0.599	0.623
-270.340	-42.799	-0.800	-0.403
-269.326	800.000	0.337	0.947
-268.311	143.732	0.318	-0.420
-267.297	-89.993	0.483	0.140
-266.282	800.000	0.033	-0.116
-265.267	538.746	0.174	0.410
-264.253	-10.980	0.688	0.450
-263.238	88.961	0.204	-0.225
-262.224	-109.926	-0.677	0.141
-261.209	800.000	-0.123	-0.512
-260.195	124.790	-0.857	1.068
-259.180	423.322	0.171	0.364
-258.165	-139.921	0.492	-0.051
-257.151	-43.940	0.322	0.160
-256.136	-108.141	-0.668	-0.143
-255.122	-106.161	-0.660	-0.146
-254.107	3.580	0.148	0.107
-253.092	800.000	-0.158	0.673
-252.078	-188.094	-0.450	-0.006
-251.063	-94.104	-0.556	0.151
-250.049	69.348	0.457	0.465
-249.034	800.000	-0.177	0.718
-248.019	-200.000	0.014	0.606
-247.005	71.428	0.354	-0.363
-245.990	-110.751	0.825	-0.168
-244.976	-177.817	0.881	0.021
-243.961	-13.635	-0.516	-0.331
-242.946	-200.000	0.142	0.833
-241.932	-117.056	-0.653	-0.118
-240.917	178.564	-0.250	-0.362
-239.903	336.083	0.342	-0.656
-238.888	-200.000	-0.041	-0.487
-237.873	-57.986	-0.617	-0.266
-236.859	510.752	-0.401	-0.922
-235.844	58.726	-0.440	0.428
-234.830	-57.739	-0.234	0.101
-233.815	-127.924	0.862	0.123
-232.800	-200.000	-0.012	0.259
-231.786	413.073	-0.218	0.458
-230.771	-125.168	0.776	-0.118
-229.757	334.500	-0.443	-0.848
-228.742	-102.281	0.894	0.212
-227.727	-200.000	-0.013	-0.326
-226.713	-200.000	-0.025	-0.301
-225.698	-200.000	0.497	-0.000
-224.684	-200.000	-0.123	0.690
-223.669	123.727	-0.515	0.638
-222.655	446.432	-0.198	0.430
-221.640	-93.707	-0.838	-0.228
-220.625	68.608	-0.388	-0.393
-219.611	121.416	-0.489	0.602
-218.596	410.613	-0.189	0.395
-217.582	-18.215	1.031	-0.637
-216.567	800.000	-0.217	-0.753
-215.552	135.020	0.430	0.552
-214.538	-73.099	-0.416	0.151
-213.523	-39.459	0.614	-0.318
-212.509	-62.530	-0.142	-0.058
-211.494	-200.000	-0.098	0.646
-210.479	798.126	0.213	0.580
-209.465	65.151	-0.448	-0.447
-208.450	206.446	-0.364	0.560
-207.436	800.000	-0.172	-0.672
-206.421	84.034	0.227	-0.245
-205.406	-17.270	0.302	0.188
-204.392	133.309	0.615	-0.786
-203.377	-56.692	0.340	0.149
-202.363	380.781	0.139	0.282
-201.348	-200.000	0.182	0.915
-200.333	-97.501	0.223	0.057
-199.319	-49.417	0.860	-0.405
-198.304	73.286	-0.736	-0.760
-197.290	89.301	-0.690	0.759
-196.275	43.206	-0.154	0.139
-195.260	-41.010	0.045	-0.023
-194.246	596.734	0.254	-0.620
-193.231	386.405	-0.540	-1.101
-192.217	-200.000	-0.072	0.697
-191.202	800.000	-0.187	-0.708
-190.187	-200.000	0.037	-0.427
-189.173	108.049	-0.198	0.233
-188.158	-62.284	0.526	0.216
-187.144	1.699	-0.077	0.055
-186.129	418.681	0.231	-0.488
-185.114	800.000	0.217	0.609
-184.100	-128.828	-0.836	0.116
-183.085	-83.899	0.551	0.173
-182.071	-127.669	-0.577	-0.082
-181.056	-72.297	-0.565	0.206
-180.042	-110.762	0.854	-0.174
-179.027	101.535	-0.136	0.157
-178.012	800.000	0.110	0.432
-176.998	239.964	-0.779	-1.280
-175.983	375.920	0.524	-1.055
-174.969	62.154	-0.347	-0.341
-173.954	139.304	0.280	0.363
-172.939	-59.513	0.253	-0.107
-171.925	-159.169	0.224	0.012
-170.910	-116.575	0.349	0.063
-169.896	72.353	-0.785	0.807
-168.881	800.000	0.136	0.512
-167.866	-200.000	-0.054	0.269
-166.852	-82.668	-0.709	-0.226
-165.837	-98.649	-0.390	0.098
-164.823	-21.569	0.212	0.128
-163.808	266.270	0.228	-0.392
-162.793	-6.216	0.654	-0.440
-161.779	-140.843	0.206	-0.021
-160.764	44.980	0.398	0.361
-159.750	124.183	-0.131	-0.162
-158.735	387.673	-0.149	-0.303
-157.720	26.192	-0.313	-0.257
-156.706	72.033	0.359	-0.368
-155.691	-200.000	0.193	-1.060
-154.677	749.288	0.242	-0.643
-153.662	567.922	0.105	-0.250
-152.647	-54.928	-0.641	-0.285
-151.633	800.000	-0.086	0.335
-150.618	-200.000	0.033	0.258
-149.604	-194.250	-0.644	-0.005
-148.589	1.333	0.784	0.556
-147.574	51.275	0.569	0.532
-146.560	147.703	-0.196	0.261
-145.545	-6.896	0.362	-0.242
-144.531	-153.283	-0.416	-0.029
-143.516	-134.180	0.620	0.075
-142.502	54.029	-0.800	-0.757
-141.487	194.681	0.566	0.846
-140.472	-200.000	0.093	0.407
-139.458	310.100	0.070	0.130
-138.443	595.795	0.173	0.422
-137.429	319.235	0.167	-0.312
-136.414	39.740	0.227	-0.201
-135.399	-34.835	-0.348	0.187
-134.385	-5.238	0.932	-0.631
-133.370	-200.000	0.103	-0.581
-132.356	800.000	0.074	-0.254
-131.341	-56.434	0.271	0.119
-130.326	-131.973	0.518	0.067
-129.312	-70.899	0.625	-0.232
-128.297	-86.320	0.511	0.155
-127.283	240.658	-0.235	0.386
-126.268	-200.000	0.175	-1.043
-125.253	-91.219	-0.918	-0.259
-124.239	198.902	0.458	-0.690
-123.224	388.343	-0.278	-0.567
-122.210	-101.396	-1.272	-0.305
-121.195	-146.095	0.604	0.052
-120.180	-147.275	0.755	0.063
-119.166	197.706	-0.285	0.429
-118.151	800.000	-0.297	0.826
-117.137	-200.000	0.125	0.903
-116.122	-200.000	0.007	-0.153
-115.107	-200.000	0.126	-0.853
-114.093	-3.879	0.596	0.407
-113.078	-200.000	0.081	-0.401
-112.064	800.000	0.298	0.925
-111.049	-126.327	-0.607	0.089
-110.034	315.715	0.266	-0.494
-109.020	-153.134	-0.733	-0.051
-108.005	800.000	0.049	-0.209
-106.991	595.301	0.117	-0.285
-105.976	-128.638	0.411	-0.057
-104.962	-200.000	0.043	0.453
-103.947	337.995	-0.129	-0.247
-102.932	135.396	-0.345	-0.441
-101.918	-107.513	-0.690	0.149
-100.903	123.940	-0.651	0.804
-99.889	225.569	0.526	-0.838
-98.874	800.000	-0.091	0.277
-97.859	-131.927	0.211	-0.027
-96.845	-200.000	-0.072	0.362
-95.830	62.890	0.676	0.665
-94.816	-56.092	-0.126	0.055
-93.801	51.699	0.809	0.756
-92.786	601.387	-0.187	-0.458
-91.772	-200.000	0.019	0.300
-90.757	89.384	-0.449	0.492
-89.743	-44.304	-0.340	-0.167
-88.728	-83.665	0.728	-0.229
-87.713	-9.401	0.132	0.086
-86.699	13.648	-0.331	-0.253
-85.684	227.849	-0.328	0.524
-84.670	800.000	0.216	-0.850
-83.655	-104.407	-0.641	-0.146
-82.640	-200.000	-0.117	-0.581
-81.626	-74.296	-0.478	0.170
-80.611	153.167	-0.201	-0.270
-79.597	-7.383	0.188	0.125
-78.582	-18.517	0.368	-0.226
-77.567	-200.000	0.014	-0.443
-76.553	-178.367	-0.673	-0.015
-75.538	-200.000	-0.441	-0.001
-74.524	-101.256	-0.232	-0.056
-73.509	-60.832	-0.931	-0.387
-72.494	550.746	0.052	-0.122
-71.480	-158.641	-0.534	-0.030
-70.465	129.013	0.446	-0.559
-69.451	-99.284	0.327	-0.081
-68.436	-10.504	-0.143	0.093
-67.422	-200.000	0.007	0.201
-66.407	702.319	0.041	0.106
-65.392	-200.000	-0.022	0.164
-64.378	-200.000	-0.017	-0.338
-63.363	18.908	-0.549	0.432
-62.349	800.000	-0.111	-0.433
-61.334	43.758	-0.681	-0.613
-60.319	260.545	0.417	0.709
-59.305	398.770	-0.596	-1.224
-58.290	470.794	0.352	0.777
-57.276	394.000	0.524	1.071
-56.261	-200.000	96.140	603.764
-55.246	683.740	1355.338	3471.346
-54.232	204.248	2524.803	3841.127
-53.217	114.513	2245.293	2685.310
-52.203	42.029	1879.690	1674.729
-51.188	35.531	1673.053	1441.969
-50.173	32.691	1631.245	1385.052
-49.159	51.537	1678.267	1565.634
-48.144	52.113	1694.697	1585.181
-47.130	35.211	1656.517	1425.115
-46.115	32.526	1641.463	1392.285
-45.100	32.225	1637.112	1386.320
-44.086	32.166	1633.597	1382.853
-43.071	32.372	1630.240	1381.469
-42.057	32.253	1628.536	1379.102
-41.042	32.210	1626.706	1377.180
-40.027	31.982	1625.846	1374.728
-39.013	31.969	1623.685	1372.751
-37.998	32.196	1621.402	1372.425
-36.984	32.175	1620.050	1371.069
-35.969	32.213	1619.503	1370.831
-34.954	32.308	1617.414	1369.697
-33.940	32.212	1615.340	1367.191
-32.925	32.128	1613.709	1365.149
-31.911	32.262	1611.770	1364.422
-30.896	32.313	1609.760	1363.035
-29.881	32.415	1608.484	1362.644
-28.867	32.196	1607.383	1360.074
-27.852	32.143	1606.729	1359.083
-26.838	32.430	1603.851	1358.661
-25.823	32.549	1601.738	1357.677
-24.809	32.357	1600.697	1355.355
-23.794	32.232	1600.069	1353.869
-22.779	32.399	1598.010	1353.279
-21.765	32.172	1597.375	1351.057
-20.750	32.260	1596.319	1350.741
-19.736	32.452	1594.024	1350.120
-18.721	32.496	1592.264	1348.891
-17.706	32.433	1590.149	1346.599
-16.692	32.115	1590.349	1344.438
-15.677	32.189	1587.909	1342.852
-14.663	32.510	1586.563	1343.949
-13.648	32.520	1585.107	1342.733
-12.633	32.508	1583.389	1341.138
-11.619	32.426	1582.471	1339.727
-10.604	32.323	1580.727	1337.465
-9.590	32.692	1578.561	1338.200
-8.575	32.451	1577.845	1335.825
-7.560	32.326	1576.668	1333.892
-6.546	32.186	1576.870	1333.016
-5.531	32.316	1574.926	1332.239
-4.517	32.287	1573.801	1331.033
-3.502	32.107	1572.725	1328.796
-2.487	32.267	1571.759	1329.056
-1.473	32.003	1558.910	1316.289
-0.458	29.056	1538.833	1278.840
0.556	26.637	1540.288	1246.680
1.571	24.271	1563.214	1248.576
2.586	23.666	1574.864	1253.503
3.600	20.898	1522.599	1192.873
4.615	12.525	1413.307	1053.723
5.629	4.789	1350.027	958.949
6.644	3.246	1341.880	943.626
7.659	3.432	1341.407	944.353
8.673	3.265	1339.003	941.554
9.688	3.097	1338.536	940.118
10.702	2.996	1334.883	936.852
11.717	6.729	1342.102	964.680
12.731	15.893	1359.314	1033.457
13.746	23.302	1370.843	1087.813
14.761	24.939	1372.856	1099.373
15.775	24.907	1371.547	1098.033
16.790	24.324	1371.186	1094.071
17.804	24.258	1369.868	1092.520
18.819	24.352	1368.456	1091.869
19.834	24.253	1368.041	1090.836
20.848	24.130	1368.024	1089.972
21.863	24.279	1366.843	1089.847
22.877	24.435	1365.241	1089.424
23.892	24.529	1364.194	1089.065
24.907	24.145	1363.716	1086.250
25.921	24.595	1363.311	1088.576
26.936	24.511	1361.691	1086.672
27.950	24.579	1360.172	1085.779
28.965	24.317	1359.149	1083.275
29.980	24.503	1358.371	1083.684
30.994	24.416	1358.508	1083.173
32.009	24.545	1357.965	1083.426
33.023	24.609	1355.791	1081.981
34.038	24.637	1354.892	1081.339
35.053	24.482	1354.186	1079.741
36.067	24.548	1352.338	1078.574
37.082	24.536	1351.080	1077.400
38.096	24.407	1351.347	1076.739
39.111	24.472	1350.774	1076.583
40.126	24.240	1350.759	1075.070
41.140	24.220	1348.728	1073.243
42.155	24.456	1347.735	1073.779
43.169	24.167	1346.795	1071.198
44.184	24.160	1347.321	1071.473
45.199	24.160	1346.734	1070.916
46.213	24.170	1347.148	1071.210
47.228	24.305	1347.057	1071.850
48.242	24.343	1345.628	1070.847
49.257	24.341	1343.884	1069.355
50.271	24.603	1343.019	1070.141
51.286	24.425	1341.400	1067.694
52.301	24.298	1340.319	1065.980
53.315	24.426	1339.110	1065.685
54.330	24.075	1339.742	1064.000
55.344	24.306	1337.748	1063.701
56.359	24.297	1335.729	1061.944
57.374	24.409	1335.085	1062.004
58.388	23.937	1335.158	1059.159
59.403	24.047	1334.658	1059.325
60.417	24.199	1333.627	1059.317
61.432	24.025	1333.162	1057.817
62.447	23.948	1332.648	1056.862
63.461	24.062	1330.262	1055.553
64.476	23.854	1330.861	1054.700
65.490	23.881	1327.890	1052.409
66.505	24.040	1326.838	1052.424
67.520	24.128	1325.825	1052.049
68.534	24.268	1324.565	1051.779
69.549	23.924	1323.596	1048.887
70.563	24.045	1322.823	1048.895
71.578	23.782	1322.573	1047.059
72.593	23.869	1321.449	1046.584
73.607	23.874	1321.207	1046.332
74.622	23.926	1319.364	1045.083
75.636	23.815	1319.718	1044.623
76.651	23.823	1318.822	1043.868
77.666	24.112	1318.213	1044.984
78.680	23.797	1318.056	1042.924
79.695	23.939	1317.762	1043.431
80.709	23.746	1316.625	1041.303
81.724	24.163	1315.660	1042.891
82.739	24.221	1315.028	1042.639
83.753	24.283	1314.073	1042.149
84.768	24.466	1314.508	1043.477
85.782	24.828	1312.134	1043.610
86.797	24.713	1311.033	1041.971
87.812	24.664	1309.885	1040.680
88.826	24.582	1308.381	1038.917
89.841	24.401	1309.417	1038.596
90.855	24.667	1307.451	1038.491
91.870	24.741	1306.269	1037.886
92.884	24.767	1306.000	1037.732
93.899	24.682	1305.568	1036.804
94.914	24.946	1303.618	1036.692
95.928	24.641	1303.636	1034.850
96.943	24.610	1302.412	1033.606
97.957	24.560	1302.311	1033.148
98.972	24.478	1301.483	1031.928
99.987	24.759	1300.188	1032.431
101.001	24.683	1298.243	1030.358
102.016	24.708	1297.648	1029.938
103.030	24.738	1297.264	1029.714
104.045	24.620	1297.359	1029.018
105.060	24.600	1295.032	1026.964
106.074	24.377	1292.897	1023.901
107.089	23.926	1293.113	1021.392
108.103	24.197	1290.770	1021.008
109.118	23.905	1290.640	1019.138
110.133	23.985	1287.734	1017.214
111.147	23.872	1287.663	1016.421
112.162	23.966	1287.323	1016.599
113.176	24.079	1285.986	1016.098
114.191	24.170	1285.279	1015.968
115.206	24.151	1284.779	1015.375
116.220	24.135	1283.023	1013.808
117.235	24.253	1281.656	1013.307
118.249	23.852	1280.581	1010.087
119.264	24.202	1278.250	1010.148
120.279	23.995	1278.891	1009.391
121.293	24.081	1277.818	1008.940
122.308	23.802	1277.657	1007.140
123.322	23.736	1275.733	1005.165
124.337	23.386	1275.910	1003.231
125.352	23.676	1275.306	1004.308
126.366	23.617	1273.439	1002.420
127.381	23.735	1272.975	1002.631
128.395	23.898	1271.092	1001.979
129.410	23.611	1270.434	999.752
130.424	23.595	1270.758	999.831
131.439	24.014	1268.921	1000.654
132.454	23.837	1269.740	1000.212
133.468	24.145	1268.108	1000.568
134.483	24.144	1267.442	999.953
135.497	24.246	1267.644	1000.593
136.512	24.094	1265.579	998.025
137.527	23.972	1264.763	996.608
138.541	23.928	1264.156	995.796
139.556	24.125	1262.486	995.490
140.570	24.100	1261.919	994.820
141.585	24.316	1260.665	994.947
142.600	24.442	1260.082	995.100
143.614	24.434	1261.032	995.718
144.629	24.443	1259.740	994.661
145.643	24.539	1257.748	993.534
146.658	24.467	1255.833	991.533
147.673	24.459	1255.524	991.157
148.687	24.306	1254.024	989.036
149.702	24.388	1253.118	988.690
150.716	23.913	1251.838	984.961
151.731	23.747	1250.490	982.894
152.746	24.050	1248.512	982.928
153.760	24.122	1248.283	983.059
154.775	24.236	1247.942	983.333
155.789	24.455	1246.977	983.688
156.804	24.252	1245.177	981.064
157.819	24.279	1244.385	980.502
158.833	24.342	1243.935	980.408
159.848	24.629	1242.770	980.980
160.862	24.566	1242.289	980.166
161.877	24.479	1241.218	978.761
162.892	24.308	1239.616	976.475
163.906	23.644	1239.941	973.002
164.921	24.051	1238.738	974.202
165.935	24.254	1238.396	974.956
166.950	24.271	1237.841	974.525
167.964	24.158	1237.368	973.451
168.979	24.235	1236.917	973.433
169.994	24.133	1235.997	972.062
171.008	23.917	1235.164	970.142
172.023	24.035	1234.751	970.378
173.037	24.286	1233.519	970.692
174.052	24.465	1232.954	971.132
175.067	24.345	1231.634	969.356
176.081	23.968	1231.131	966.825
177.096	23.918	1229.829	965.447
178.110	24.038	1228.590	965.042
179.125	23.888	1228.017	963.692
180.140	24.249	1226.499	964.370
181.154	24.039	1226.652	963.265
182.169	24.479	1223.836	963.344
183.183	24.670	1222.756	963.442
184.198	24.445	1222.753	962.138
185.213	24.589	1221.224	961.623
186.227	24.597	1221.250	961.604
187.242	24.609	1219.796	960.441
188.256	24.514	1218.370	958.722
189.271	24.591	1217.610	958.452
190.286	24.453	1217.269	957.356
191.300	24.294	1216.833	956.077
192.315	24.196	1216.227	954.990
193.329	24.170	1215.233	953.989
194.344	24.315	1213.681	953.458
195.359	24.075	1213.744	952.143
196.373	23.816	1213.271	950.304
197.388	23.529	1213.574	948.918
198.402	24.263	1213.518	952.716
199.417	24.467	1213.578	953.770
200.432	24.721	1212.587	954.260
201.446	24.441	1211.954	952.185
202.461	24.776	1211.399	953.452
203.475	24.447	1211.067	951.351
204.490	24.411	1208.716	949.233
205.504	24.297	1207.809	947.829
206.519	24.138	1207.145	946.380
207.534	24.098	1204.506	944.012
208.548	23.860	1204.081	942.333
209.563	23.850	1203.798	941.977
210.577	24.007	1202.061	941.368
211.592	24.049	1202.058	941.503
212.607	24.466	1201.327	943.052
213.621	24.451	1201.506	943.027
214.636	24.326	1199.943	941.058
215.650	24.261	1199.135	939.999
216.665	24.137	1199.481	939.531
217.680	24.536	1197.663	940.128
218.694	24.839	1196.635	940.829
219.709	24.455	1196.824	938.875
220.723	24.369	1195.138	937.017
221.738	24.491	1194.810	937.318
222.753	24.403	1193.680	935.885
223.767	24.269	1192.893	934.483
224.782	24.569	1193.250	936.254
225.796	24.430	1192.376	934.757
226.811	24.721	1191.232	935.302
227.826	24.551	1190.574	933.813
228.840	24.536	1190.179	933.340
229.855	24.477	1188.456	931.603
230.869	24.062	1188.669	929.518
231.884	24.514	1187.545	930.915
232.899	23.953	1186.541	927.120
233.913	23.947	1186.183	926.729
234.928	23.888	1186.077	926.259
235.942	24.183	1185.256	927.071
236.957	23.837	1183.198	923.580
237.972	23.748	1183.102	922.959
238.986	23.721	1182.780	922.487
240.001	23.924	1181.510	922.467
241.015	23.943	1180.894	922.003
242.030	23.882	1179.771	920.730
243.045	24.493	1179.798	923.832
244.059	24.381	1179.187	922.692
245.074	24.371	1178.280	921.851
246.088	24.369	1178.135	921.644
247.103	24.618	1176.908	921.888
248.117	24.567	1176.398	921.142
249.132	24.740	1175.496	921.248
250.147	25.098	1175.339	922.887
251.161	24.981	1174.401	921.469
252.176	25.123	1173.773	921.621
253.190	25.069	1173.887	921.355
254.205	25.276	1173.710	922.198
255.220	25.422	1173.243	922.498
256.234	25.259	1172.274	920.817
257.249	25.138	1171.492	919.502
258.263	25.044	1170.748	918.353
259.278	25.314	1169.982	919.055
260.293	25.282	1169.105	918.121
261.307	25.484	1168.820	918.847
262.322	25.649	1167.377	918.476
263.336	25.279	1168.142	917.103
264.351	25.027	1168.882	916.315
265.366	25.313	1166.772	916.039
266.380	25.132	1166.944	915.171
267.395	25.136	1165.738	914.166
268.409	25.013	1165.192	913.030
269.424	25.108	1163.641	912.214
270.439	25.275	1163.278	912.699
271.453	25.193	1162.665	911.721
272.468	24.926	1161.301	909.218
273.482	24.775	1160.343	907.619
274.497	24.893	1159.524	907.498
275.512	24.779	1160.026	907.229
276.526	25.089	1157.678	906.882
277.541	25.142	1158.056	907.366
278.555	24.961	1157.653	906.056
279.570	25.311	1156.759	907.045
280.585	25.307	1155.762	906.160
281.599	24.896	1156.568	904.639
282.614	25.300	1153.715	904.362
283.628	24.778	1153.955	901.836
284.643	25.023	1152.269	901.673
285.657	24.932	1151.441	900.488
286.672	24.794	1150.856	899.259
287.687	25.020	1149.621	899.347
288.701	25.042	1149.531	899.310
289.716	25.000	1148.903	898.527
290.730	25.017	1147.446	897.392
291.745	24.727	1148.527	896.708
292.760	24.977	1146.352	896.177
293.774	25.246	1146.984	897.940
294.789	25.158	1147.489	897.814
295.803	25.286	1145.088	896.498
296.818	25.011	1144.218	894.364
297.833	25.297	1142.526	894.389
298.847	25.120	1142.533	893.430
299.862	25.008	1142.812	893.013
300.876	24.672	1142.213	890.793
301.891	25.296	1140.402	892.404
302.906	25.439	1139.618	892.423
303.920	25.317	1140.160	892.162
304.935	25.252	1140.094	891.706
305.949	25.531	1139.034	892.183
306.964	25.615	1138.300	891.944
307.979	25.354	1138.225	890.517
308.993	25.353	1136.024	888.711
310.008	25.394	1135.882	888.724
311.022	25.154	1135.858	887.435
312.037	25.606	1134.917	888.857
313.052	25.162	1133.122	885.184
314.066	25.215	1131.683	884.242
315.081	24.851	1131.919	882.553
316.095	24.533	1131.129	880.293
317.110	24.655	1130.517	880.336
318.125	24.638	1128.920	878.930
319.139	24.772	1127.915	878.730
320.154	24.768	1127.513	878.319
321.168	24.697	1127.696	878.038
322.183	24.804	1127.152	878.061
323.197	24.912	1126.277	877.832
324.212	24.751	1125.604	876.439
325.227	24.906	1124.202	876.030
326.241	25.200	1123.921	877.170
327.256	24.901	1123.518	875.314
328.270	25.022	1122.806	875.276
329.285	24.810	1122.281	873.752
330.300	25.252	1120.981	874.818
331.314	24.956	1120.024	872.555
332.329	24.933	1119.133	871.671
333.343	24.985	1118.375	871.257
334.358	25.087	1117.454	870.959
335.373	25.228	1117.329	871.464
336.387	25.303	1116.542	871.141
337.402	25.370	1116.532	871.379
338.416	25.445	1115.644	870.974
339.431	25.706	1114.000	870.877
340.446	25.894	1114.683	872.245
341.460	26.139	1113.984	872.805
342.475	25.870	1114.026	871.459
343.489	25.695	1112.876	869.639
344.504	25.841	1111.147	868.911
345.519	26.053	1111.010	869.750
346.533	25.938	1109.954	868.294
347.548	25.984	1109.602	868.161
348.562	26.068	1108.066	867.287
349.577	25.530	1108.182	864.714
350.592	25.357	1106.516	862.508
351.606	25.325	1106.255	862.072
352.621	25.021	1105.277	859.776
353.635	25.143	1104.226	859.471
354.650	25.234	1104.118	859.745
355.665	25.322	1103.235	859.401
356.679	25.185	1103.555	858.921
357.694	25.407	1102.308	858.933
358.708	25.616	1100.732	858.626
359.723	25.894	1100.948	860.049
360.738	25.623	1100.081	858.004
361.752	25.637	1099.201	857.304
362.767	25.755	1097.973	856.836
363.781	25.539	1098.194	855.903
364.796	25.708	1098.362	856.763
365.810	25.951	1097.708	857.333
366.825	26.183	1096.899	857.725
367.840	26.122	1097.112	857.528
368.854	26.333	1095.395	857.110
369.869	26.390	1095.188	857.143
370.883	26.125	1094.389	855.188
371.898	25.772	1093.508	852.752
372.913	25.582	1094.513	852.556
373.927	25.926	1093.114	853.022
374.942	26.210	1093.011	854.207
375.956	25.936	1092.342	852.313
376.971	25.870	1091.469	851.248
377.986	25.796	1091.522	850.865
379.000	26.211	1090.971	852.317
380.015	26.132	1090.165	851.239
381.029	26.156	1089.290	850.593
382.044	26.343	1089.084	851.237
383.059	26.300	1086.523	848.959
384.073	26.066	1087.003	848.162
385.088	26.333	1085.621	848.258
386.102	26.286	1084.025	846.717
387.117	26.265	1083.496	846.133
388.132	25.607	1083.385	842.889
389.146	25.533	1082.523	841.795
390.161	25.740	1081.169	841.634
391.175	25.479	1080.447	839.782
392.190	25.771	1080.436	841.062
393.205	26.076	1080.143	842.182
394.219	25.996	1079.746	841.426
395.234	25.856	1078.352	839.610
396.248	25.527	1077.245	837.144
397.263	25.712	1076.190	837.109
398.278	25.614	1075.653	836.162
399.292	25.575	1075.592	835.863
400.307	25.747	1074.314	835.590
401.321	25.767	1073.844	835.247
402.336	25.517	1072.297	832.808
403.350	25.581	1071.167	832.155
404.365	25.782	1071.500	833.270
405.380	25.890	1071.400	833.619
406.394	26.007	1070.439	833.338
407.409	26.125	1069.412	833.007
408.423	26.195	1068.638	832.656
409.438	26.144	1068.350	832.122
410.453	26.425	1067.439	832.632
411.467	26.416	1067.813	832.809
412.482	26.280	1066.388	830.997
413.496	26.285	1067.107	831.510
414.511	26.193	1065.684	829.903
415.526	26.405	1065.733	830.842
416.540	26.387	1065.709	830.667
417.555	26.564	1064.580	830.526
418.569	26.232	1064.974	829.236
419.584	26.393	1063.298	828.593
420.599	26.320	1062.588	827.633
421.613	153.889	1404.238	1794.104
422.628	141.487	1454.010	1794.082
