DTS Sentinel unit serial number:	SN413079Multiplexer serial number:	ORYXHardware model number:	OX4-SRSoftware version number:	ORYX F/W v4.00 Oryx Data Collector v3.7.2.0data status	okinstallation	princeton_trtdifferential loss correction	single-endedforward channel	channel 2reverse channel	N/Adate	2019/09/14time	22:55:35forward acquisition time	60.00reverse acquisition time	0.00gamma	496.2192k internal	0.2323k external	0.2323temperature offset calibration	1.0062default loss term (dB/km)	0.3790temperature slope calibration	1.0000multiplexer offset coefficient	1.0000multiplexer slope coefficient	1.0000fibre end	0.00T internal ref (°C)	32.44T ext. ref 1 (°C)	4.66T ext. ref 2 (°C)	27.47length (m)	temperature (°C)	Stokes	anti-Stokes-747.200	624.838	0.080	0.203
-746.185	800.000	-0.060	0.200
-745.171	467.865	0.156	0.353
-744.156	260.490	0.181	0.317
-743.142	68.618	-0.295	-0.305
-742.127	-134.545	-0.160	0.020
-741.112	188.933	0.067	-0.101
-740.098	-200.000	0.001	-0.063
-739.083	-200.000	0.009	0.199
-738.069	323.533	-0.316	0.609
-737.054	-200.000	-0.002	0.136
-736.039	-169.068	-0.169	-0.006
-735.025	-74.900	0.246	0.089
-734.010	283.344	-0.067	0.121
-732.996	800.000	0.083	-0.352
-731.981	-15.057	-0.333	0.216
-730.966	-146.803	-0.061	-0.005
-729.952	158.776	0.186	0.261
-728.937	83.967	-0.241	0.265
-727.923	89.515	-0.127	-0.143
-726.908	-98.379	0.186	0.048
-725.894	800.000	-0.013	-0.056
-724.879	-200.000	-0.000	-0.219
-723.864	79.462	-0.026	-0.029
-722.850	800.000	-0.066	0.224
-721.835	7.658	0.203	-0.153
-720.821	-122.270	0.181	0.030
-719.806	156.607	-0.148	-0.207
-718.791	-4.740	-0.326	0.227
-717.777	-200.000	-0.022	-0.174
-716.762	800.000	-0.029	-0.127
-715.748	162.384	0.065	-0.092
-714.733	571.323	0.153	-0.376
-713.718	776.980	0.029	0.081
-712.704	452.363	-0.075	-0.168
-711.689	800.000	-0.038	0.109
-710.675	-63.181	0.285	0.118
-709.660	499.914	-0.098	0.228
-708.645	655.086	0.076	0.196
-707.631	125.029	-0.043	0.055
-706.616	-200.000	0.052	-0.257
-705.602	800.000	0.097	-0.413
-704.587	57.809	0.266	0.263
-703.572	-200.000	-0.012	0.255
-702.558	-84.944	-0.308	-0.097
-701.543	35.063	0.420	-0.371
-700.529	72.342	0.072	-0.076
-699.514	128.264	0.109	-0.140
-698.499	-200.000	0.020	-0.119
-697.485	-3.301	-0.252	-0.177
-696.470	66.072	-0.133	0.136
-695.456	-76.855	-0.199	-0.070
-694.441	222.742	0.130	0.210
-693.426	-200.000	0.001	0.458
-692.412	800.000	0.120	-0.458
-691.397	-18.855	0.070	-0.044
-690.383	-200.000	-0.000	0.147
-689.368	126.016	0.040	0.051
-688.354	701.710	0.091	-0.243
-687.339	515.241	0.143	-0.336
-686.324	2.215	0.152	0.111
-685.310	124.699	-0.138	0.175
-684.295	111.117	-0.110	-0.133
-683.281	800.000	-0.084	-0.260
-682.266	-130.674	-0.269	0.036
-681.251	-36.804	-0.092	-0.050
-680.237	23.710	0.089	-0.074
-679.222	-128.908	0.160	-0.023
-678.208	-159.187	-0.181	0.010
-677.193	627.480	0.090	0.229
-676.178	-70.142	0.196	-0.075
-675.164	502.470	-0.079	-0.184
-674.149	800.000	-0.048	0.210
-673.135	-70.594	0.306	-0.117
-672.120	-200.000	0.039	0.240
-671.105	-81.870	-0.089	-0.029
-670.091	178.431	-0.344	-0.506
-669.076	-145.348	0.303	-0.028
-668.062	-39.638	0.192	0.101
-667.047	800.000	-0.068	-0.266
-666.032	-200.000	-0.037	0.227
-665.018	204.684	0.223	0.348
-664.003	397.382	-0.122	0.257
-662.989	10.215	0.238	0.182
-661.974	-22.544	0.241	-0.147
-660.959	-88.534	0.174	-0.052
-659.945	-200.000	0.037	-0.205
-658.930	127.360	0.260	-0.332
-657.916	14.660	-0.132	-0.104
-656.901	-58.809	-0.328	-0.143
-655.886	800.000	-0.225	-0.633
-654.872	800.000	-0.100	-0.316
-653.857	9.361	-0.240	-0.183
-652.843	160.630	0.136	-0.191
-651.828	-89.299	0.120	0.036
-650.814	-182.399	-0.509	-0.009
-649.799	176.561	-0.124	0.181
-648.784	239.150	0.138	-0.232
-647.770	481.917	-0.062	0.141
-646.755	-99.629	0.117	0.030
-645.741	-116.937	0.347	-0.064
-644.726	-24.831	-0.314	0.188
-643.711	103.989	-0.029	0.034
-642.697	-87.472	-0.364	-0.111
-641.682	68.030	-0.073	-0.075
-640.668	-117.960	0.311	-0.056
-639.653	341.174	0.059	-0.115
-638.638	-54.320	-0.132	0.060
-637.624	552.406	0.027	-0.066
-636.609	35.836	0.285	0.252
-635.595	-200.000	0.005	0.117
-634.580	-15.518	-0.126	-0.081
-633.565	-39.430	0.275	0.145
-632.551	-79.150	0.338	-0.115
-631.536	27.035	-0.177	0.149
-630.522	-123.032	-0.264	-0.043
-629.507	-133.958	-0.111	-0.014
-628.492	5.571	0.273	0.203
-627.478	-30.667	0.172	-0.098
-626.463	33.574	0.216	-0.189
-625.449	-200.000	0.061	-0.334
-624.434	687.984	-0.101	-0.265
-623.419	800.000	-0.066	0.231
-622.405	-75.882	-0.113	0.040
-621.390	-68.113	0.198	0.077
-620.376	48.095	-0.320	-0.301
-619.361	-200.000	0.002	0.288
-618.346	44.777	0.184	0.170
-617.332	405.431	0.097	-0.206
-616.317	800.000	-0.074	0.213
-615.303	9.086	-0.114	-0.086
-614.288	-59.625	0.098	-0.042
-613.273	-200.000	0.020	-0.135
-612.259	9.128	0.426	-0.323
-611.244	144.838	0.170	-0.229
-610.230	476.949	-0.065	0.148
-609.215	800.000	0.042	0.133
-608.201	-62.998	-0.078	0.033
-607.186	-200.000	-0.018	0.377
-606.171	69.936	-0.247	0.256
-605.157	-61.565	0.329	-0.139
-604.142	-200.000	0.021	0.181
-603.128	-163.028	-0.110	-0.005
-602.113	-145.058	0.219	0.020
-601.098	245.423	-0.072	-0.121
-600.084	-200.000	-0.030	0.252
-599.069	-90.984	-0.210	-0.061
-598.055	800.000	0.056	-0.218
-597.040	-113.773	0.353	0.069
-596.025	-131.801	0.298	-0.039
-595.011	-48.004	-0.028	0.014
-593.996	-74.241	-0.480	-0.174
-592.982	-137.880	-0.128	-0.014
-591.967	-52.466	-0.161	-0.075
-590.952	-102.552	-0.143	-0.034
-589.938	-126.115	0.148	0.022
-588.923	11.744	-0.170	0.131
-587.909	-141.753	-0.142	0.014
-586.894	10.759	-0.026	-0.020
-585.879	331.807	-0.178	-0.345
-584.865	-162.936	-0.441	0.022
-583.850	10.500	-0.131	0.100
-582.836	800.000	0.039	0.162
-581.821	20.172	-0.023	0.018
-580.806	114.765	0.274	-0.335
-579.792	-68.972	-0.216	-0.084
-578.777	-11.622	0.034	-0.022
-577.763	800.000	-0.056	0.155
-576.748	-133.836	0.164	-0.020
-575.733	-39.042	-0.153	0.081
-574.719	-89.579	-0.243	-0.071
-573.704	-200.000	0.066	-0.387
-572.690	-48.746	0.062	-0.030
-571.675	151.123	0.093	0.127
-570.661	103.468	-0.238	-0.281
-569.646	-153.176	0.136	0.010
-568.631	178.277	0.089	0.130
-567.617	365.180	0.038	-0.077
-566.602	3.215	0.236	-0.172
-565.588	63.246	-0.135	-0.135
-564.573	483.762	-0.075	-0.171
-563.558	579.235	0.088	-0.216
-562.544	358.183	-0.134	-0.269
-561.529	-170.199	-0.229	-0.008
-560.515	800.000	0.083	-0.282
-559.500	-45.824	0.130	0.064
-558.485	-200.000	-0.028	0.290
-557.471	136.743	0.053	-0.070
-556.456	249.997	0.029	0.049
-555.442	800.000	-0.089	-0.247
-554.427	-104.637	0.122	0.028
-553.412	-200.000	-0.010	-0.101
-552.398	-193.669	-0.105	0.001
-551.383	-140.524	0.375	0.039
-550.369	7.890	0.190	-0.143
-549.354	-127.903	0.138	0.020
-548.339	480.244	-0.103	-0.233
-547.325	-57.311	-0.479	-0.211
-546.310	93.670	-0.063	-0.071
-545.296	-99.280	0.124	0.031
-544.281	-27.735	0.166	-0.096
-543.266	1.034	0.289	0.208
-542.252	-200.000	-0.023	-0.200
-541.237	-200.000	0.029	0.184
-540.223	99.963	-0.103	-0.119
-539.208	-93.144	0.128	-0.036
-538.193	144.420	0.136	0.181
-537.179	99.001	-0.156	0.181
-536.164	-200.000	-0.032	0.144
-535.150	63.397	0.126	-0.126
-534.135	118.004	0.054	0.066
-533.121	81.074	-0.042	0.046
-532.106	-200.000	-0.047	-0.215
-531.091	153.158	-0.045	0.061
-530.077	42.418	-0.301	-0.274
-529.062	-3.220	0.263	-0.183
-528.048	-78.289	0.201	-0.069
-527.033	12.000	-0.140	0.108
-526.018	-200.000	0.012	-0.124
-525.004	3.946	0.107	-0.079
-523.989	183.679	-0.083	-0.123
-522.975	800.000	-0.089	-0.272
-521.960	-189.759	-0.170	0.002
-520.945	800.000	-0.019	0.078
-519.931	-60.363	-0.073	-0.031
-518.916	350.457	-0.074	-0.147
-517.902	92.779	-0.048	0.055
-516.887	-5.239	0.041	0.028
-515.872	-84.866	0.079	0.025
-514.858	-139.444	0.089	0.010
-513.843	-74.846	-0.478	-0.172
-512.829	-76.011	-0.095	0.034
-511.814	800.000	0.078	0.288
-510.799	-164.983	-0.396	0.018
-509.785	-45.674	0.066	-0.033
-508.770	-200.000	0.025	0.180
-507.756	-4.754	-0.132	-0.091
-506.741	-42.831	-0.180	0.091
-505.726	19.947	-0.193	0.156
-504.712	-20.203	0.088	0.054
-503.697	800.000	0.042	0.143
-502.683	88.450	-0.108	-0.119
-501.668	68.682	-0.137	-0.140
-500.653	-200.000	0.020	0.087
-499.639	-89.846	0.322	-0.094
-498.624	31.167	0.197	-0.169
-497.610	195.148	0.200	0.304
-496.595	148.954	0.152	-0.205
-495.581	-55.518	0.225	0.101
-494.566	-80.193	0.185	-0.062
-493.551	223.808	0.019	-0.031
-492.537	-1.035	-0.227	-0.161
-491.522	-36.209	0.149	0.081
-490.508	-66.959	0.308	0.122
-489.493	-200.000	-0.053	-0.251
-488.478	-145.014	-0.333	-0.030
-487.464	61.832	0.412	-0.410
-486.449	-200.000	-0.003	-0.379
-485.435	800.000	0.033	0.137
-484.420	-168.203	0.298	-0.012
-483.405	-200.000	0.006	-0.225
-482.391	79.500	-0.045	0.049
-481.376	-200.000	-0.027	0.149
-480.362	-157.811	0.181	0.011
-479.347	-1.731	-0.326	0.229
-478.332	-67.983	-0.283	0.111
-477.318	42.951	0.081	0.074
-476.303	188.433	0.159	-0.237
-475.289	36.954	0.143	0.127
-474.274	-20.261	0.485	-0.298
-473.259	204.660	0.120	0.187
-472.245	76.741	-0.178	0.189
-471.230	597.920	-0.081	0.202
-470.216	-93.813	0.243	0.067
-469.201	47.826	0.354	0.330
-468.186	-15.330	-0.189	0.121
-467.172	-200.000	0.011	0.049
-466.157	-147.696	-0.389	-0.033
-465.143	-200.000	0.012	0.080
-464.128	-132.833	0.165	0.021
-463.113	260.849	-0.069	0.119
-462.099	400.590	0.042	-0.088
-461.084	-95.691	-0.194	0.052
-460.070	355.286	0.196	0.390
-459.055	-164.820	0.241	-0.011
-458.040	-50.634	-0.112	-0.053
-457.026	-110.845	0.553	-0.114
-456.011	-200.000	-0.012	0.133
-454.997	588.337	0.120	0.296
-453.982	184.679	-0.078	0.115
-452.968	-52.708	0.232	0.107
-451.953	-113.750	0.010	0.002
-450.938	317.959	-0.085	0.160
-449.924	435.680	0.108	-0.234
-448.909	800.000	0.056	-0.194
-447.895	800.000	-0.096	0.359
-446.880	-200.000	0.010	0.285
-445.865	148.987	-0.044	-0.060
-444.851	-132.336	0.297	-0.038
-443.836	58.056	-0.319	-0.312
-442.822	172.089	-0.135	-0.194
-441.807	-96.725	0.286	0.075
-440.792	-27.648	-0.226	0.131
-439.778	14.534	0.177	0.138
-438.763	90.783	-0.129	0.144
-437.749	-66.897	-0.059	-0.023
-436.734	-200.000	-0.238	-0.000
-435.719	-200.000	0.065	-0.296
-434.705	39.195	0.216	0.193
-433.690	-133.183	0.331	0.042
-432.676	-164.114	0.019	0.001
-431.661	196.453	-0.127	-0.193
-430.646	5.497	-0.206	-0.152
-429.632	205.828	-0.124	0.192
-428.617	-91.661	-0.156	0.044
-427.603	-200.000	0.012	-0.151
-426.588	-71.708	-0.118	-0.044
-425.573	-6.705	-0.269	0.183
-424.559	-27.064	-0.352	0.205
-423.544	208.465	0.187	0.291
-422.530	-58.584	-0.099	0.043
-421.515	-200.000	0.045	0.251
-420.500	13.335	0.392	-0.303
-419.486	-112.360	0.265	-0.053
-418.471	-9.549	-0.099	-0.066
-417.457	-161.064	0.122	-0.006
-416.442	-200.000	0.000	-0.345
-415.428	-73.028	0.210	-0.077
-414.413	-200.000	-0.034	0.306
-413.398	-200.000	0.003	-0.017
-412.384	-91.548	0.210	0.060
-411.369	-165.734	0.144	-0.006
-410.355	743.344	-0.037	-0.098
-409.340	-149.004	0.141	0.011
-408.325	486.699	0.175	-0.398
-407.311	500.223	-0.036	0.083
-406.296	159.185	0.203	0.282
-405.282	-58.864	0.265	-0.114
-404.267	-200.000	0.001	0.341
-403.252	-200.000	-0.019	0.163
-402.238	60.901	0.237	-0.235
-401.223	134.857	-0.275	-0.356
-400.209	10.235	0.142	0.107
-399.194	-68.143	0.145	-0.056
-398.179	-126.855	-0.174	0.026
-397.165	-200.000	-0.009	-0.331
-396.150	-40.303	0.235	-0.122
-395.136	0.126	0.232	0.164
-394.121	711.779	0.054	0.143
-393.106	-200.000	-0.010	-0.283
-392.092	0.716	-0.290	-0.206
-391.077	-7.310	0.125	0.085
-390.063	-128.731	-0.215	-0.030
-389.048	-92.650	-0.246	-0.069
-388.033	51.377	-0.119	-0.113
-387.019	800.000	-0.083	0.230
-386.004	-200.000	-0.049	-0.373
-384.990	274.296	0.123	0.217
-383.975	104.753	-0.092	-0.108
-382.960	750.694	-0.047	-0.127
-381.946	-39.092	0.243	-0.127
-380.931	77.215	-0.144	-0.152
-379.917	-46.912	-0.102	0.050
-378.902	96.345	0.054	-0.062
-377.888	21.381	-0.082	0.066
-376.873	12.774	0.334	0.257
-375.858	40.133	-0.208	0.186
-374.844	-124.361	-0.195	-0.030
-373.829	37.610	-0.199	-0.176
-372.815	-200.000	-0.023	-0.181
-371.800	294.255	-0.263	-0.478
-370.785	-200.000	0.005	0.060
-369.771	-6.634	0.088	0.060
-368.756	-200.000	-0.063	-0.368
-367.742	-200.000	0.033	0.235
-366.727	-6.784	0.205	0.139
-365.712	-200.000	-0.030	0.336
-364.698	-140.364	0.184	0.019
-363.683	-119.967	-0.402	0.069
-362.669	-200.000	0.021	-0.098
-361.654	80.937	-0.150	0.162
-360.639	-95.793	0.235	-0.063
-359.625	183.525	0.061	-0.090
-358.610	-36.183	-0.314	-0.169
-357.596	93.755	0.050	-0.056
-356.581	-157.035	-0.250	0.015
-355.566	-200.000	0.011	-0.049
-354.552	13.554	0.140	0.108
-353.537	34.802	0.233	0.203
-352.523	-10.541	-0.121	-0.080
-351.508	-200.000	0.013	-0.300
-350.493	6.595	0.277	0.205
-349.479	82.308	0.214	0.231
-348.464	11.528	0.115	0.087
-347.450	-55.527	-0.246	0.109
-346.435	-97.434	0.219	0.057
-345.420	152.610	0.146	-0.198
-344.406	166.698	-0.098	-0.138
-343.391	49.703	0.027	-0.025
-342.377	-200.000	-0.030	0.343
-341.362	798.506	-0.034	0.094
-340.348	800.000	-0.032	-0.088
-339.333	284.556	-0.155	0.278
-338.318	2.776	-0.278	-0.201
-337.304	800.000	-0.019	0.071
-336.289	-39.627	-0.281	0.146
-335.275	-200.000	-0.034	0.330
-334.260	-200.000	-0.261	0.001
-333.245	-113.596	0.055	-0.011
-332.231	-120.603	0.043	-0.007
-331.216	-78.709	0.111	-0.038
-330.202	417.736	0.147	-0.313
-329.187	191.001	-0.064	0.095
-328.172	-7.505	-0.152	0.102
-327.158	87.397	0.174	0.192
-326.143	173.118	0.102	0.147
-325.129	800.000	0.021	0.073
-324.114	-64.697	0.294	-0.118
-323.099	73.473	-0.161	-0.167
-322.085	578.199	-0.086	0.209
-321.070	-121.785	-0.141	-0.023
-320.056	-93.862	0.250	-0.068
-319.041	-107.608	0.188	0.041
-318.026	-22.192	-0.322	0.194
-317.012	410.868	0.180	0.379
-315.997	-17.785	0.209	-0.130
-314.983	-120.914	-0.280	-0.047
-313.968	-154.371	-0.372	0.025
-312.953	179.193	-0.045	0.065
-311.939	-23.086	-0.052	-0.031
-310.924	18.428	-0.102	0.081
-309.910	800.000	0.055	-0.167
-308.895	485.181	0.043	-0.098
-307.880	-93.548	0.099	-0.027
-306.866	800.000	-0.049	0.169
-305.851	708.526	-0.057	0.149
-304.837	2.888	0.184	0.133
-303.822	-200.000	0.040	0.206
-302.807	-200.000	0.011	-0.279
-301.793	800.000	-0.058	-0.230
-300.778	251.421	0.175	-0.295
-299.764	153.085	-0.114	-0.155
-298.749	293.032	-0.102	-0.184
-297.735	99.797	0.122	-0.140
-296.720	-110.469	-0.304	-0.063
-295.705	-18.506	0.126	-0.078
-294.691	-200.000	-0.039	-0.181
-293.676	83.367	0.114	-0.123
-292.662	280.743	0.117	0.208
-291.647	5.101	-0.203	-0.149
-290.632	-149.474	0.089	0.007
-289.618	293.817	-0.150	0.272
-288.603	-200.000	0.002	0.361
-287.589	212.941	0.141	0.221
-286.574	-2.659	0.054	-0.038
-285.559	412.927	0.070	0.148
-284.545	57.188	-0.007	0.007
-283.530	-69.739	0.400	-0.152
-282.516	-41.607	-0.193	-0.099
-281.501	-200.000	-0.010	-0.443
-280.486	-200.000	0.002	0.037
-279.472	292.404	0.030	0.055
-278.457	197.901	-0.010	-0.016
-277.443	-83.335	-0.223	0.071
-276.428	-13.571	0.164	-0.106
-275.413	-45.321	0.229	0.112
-274.399	-118.325	0.535	0.094
-273.384	-75.159	-0.203	-0.072
-272.370	446.403	-0.061	0.133
-271.355	-134.642	0.326	-0.039
-270.340	-200.000	-0.007	0.155
-269.326	-109.338	-0.343	-0.072
-268.311	85.230	0.194	0.211
-267.297	-6.302	0.426	0.288
-266.282	123.028	0.162	0.201
-265.267	-86.328	-0.146	-0.044
-264.253	756.896	-0.093	0.250
-263.238	-200.000	0.038	0.504
-262.224	-99.812	-0.080	0.020
-261.209	-200.000	-0.063	0.342
-260.195	333.315	-0.155	0.297
-259.180	-161.138	0.198	0.010
-258.165	110.747	-0.271	0.323
-257.151	-200.000	0.012	0.206
-256.136	-84.319	-0.269	0.084
-255.122	-200.000	0.001	0.064
-254.107	-107.014	0.439	-0.096
-253.092	800.000	-0.088	-0.241
-252.078	-115.153	-0.009	-0.002
-251.063	-1.501	-0.202	-0.141
-250.049	169.395	-0.236	0.333
-249.034	-122.663	-0.153	-0.025
-248.019	-55.320	-0.270	0.120
-247.005	117.851	-0.057	0.070
-245.990	-200.000	-0.034	-0.150
-244.976	-159.964	-0.124	0.007
-243.961	-104.926	0.103	0.023
-242.946	-34.694	-0.292	-0.158
-241.932	-38.868	-0.390	0.203
-240.917	-200.000	0.020	-0.415
-239.903	33.381	0.297	-0.256
-238.888	800.000	-0.076	0.219
-237.873	800.000	0.103	0.301
-236.859	180.386	-0.089	0.129
-235.844	-51.162	-0.156	-0.072
-234.830	90.415	0.180	-0.199
-233.815	-63.422	0.082	0.033
-232.800	-147.515	0.277	0.023
-231.786	560.976	0.172	-0.412
-230.771	-40.599	-0.113	-0.058
-229.757	-102.251	-0.196	-0.047
-228.742	-153.766	0.112	0.008
-227.727	-22.931	0.233	0.139
-226.713	39.575	-0.240	-0.212
-225.698	85.584	0.115	-0.125
-224.684	165.194	0.081	-0.114
-223.669	-135.009	-0.239	0.028
-222.655	7.304	0.273	-0.202
-221.640	-42.813	0.091	-0.046
-220.625	800.000	0.085	0.261
-219.611	649.327	-0.133	0.336
-218.596	232.120	0.168	0.273
-217.582	-200.000	-0.002	0.027
-216.567	182.437	-0.114	0.167
-215.552	209.468	0.050	0.078
-214.538	171.177	0.140	0.198
-213.523	-200.000	-0.045	-0.325
-212.509	180.274	0.125	0.182
-211.494	122.239	-0.109	-0.135
-210.479	323.197	-0.101	0.191
-209.465	70.502	0.181	-0.185
-208.450	-106.267	0.157	-0.035
-207.436	260.367	0.266	0.455
-206.421	-27.665	-0.110	-0.063
-205.406	66.592	-0.275	-0.277
-204.392	-200.000	-0.004	0.316
-203.377	581.688	-0.062	-0.150
-202.363	685.552	-0.024	-0.061
-201.348	-110.856	-0.080	0.016
-200.333	-81.434	-0.314	-0.102
-199.319	153.513	0.044	-0.059
-198.304	-116.421	-0.320	-0.058
-197.290	11.089	-0.172	-0.130
-196.275	-162.868	-0.132	-0.006
-195.260	-200.000	-0.037	-0.173
-194.246	-34.321	-0.171	0.093
-193.231	-200.000	-0.005	-0.047
-192.217	-116.957	0.220	0.040
-191.202	-77.036	0.274	0.094
-190.187	-200.000	0.003	-0.187
-189.173	800.000	0.018	-0.076
-188.158	197.070	-0.074	0.111
-187.144	26.641	-0.041	-0.034
-186.129	440.258	0.130	0.280
-185.114	800.000	-0.057	-0.191
-184.100	-63.333	-0.083	0.034
-183.085	-176.305	-0.265	0.007
-182.071	-80.292	-0.188	0.062
-181.056	-76.034	-0.139	0.049
-180.042	-200.000	0.012	-0.106
-179.027	24.323	0.470	-0.384
-178.012	266.929	-0.105	-0.181
-176.998	336.194	0.098	-0.188
-175.983	64.840	0.145	-0.144
-174.969	-134.604	-0.301	0.036
-173.954	-200.000	0.011	0.240
-172.939	-200.000	-0.009	0.049
-171.925	-69.793	-0.216	0.082
-170.910	16.044	-0.217	-0.169
-169.896	600.809	-0.158	0.388
-168.881	-50.845	-0.136	-0.063
-167.866	174.319	-0.137	0.196
-166.852	53.422	-0.201	0.191
-165.837	-200.000	-0.002	0.037
-164.823	26.736	0.071	0.059
-163.808	-35.504	0.150	-0.080
-162.793	-200.000	-0.030	-0.304
-161.779	-21.435	-0.337	-0.203
-160.764	25.600	-0.271	-0.222
-159.750	91.657	-0.366	0.407
-158.735	-137.365	0.274	0.031
-157.720	5.504	-0.197	-0.144
-156.706	-200.000	-0.225	-0.001
-155.691	-71.744	0.106	0.039
-154.677	40.795	0.372	-0.331
-153.662	90.975	-0.093	-0.103
-152.647	42.811	0.084	-0.076
-151.633	395.948	0.148	0.306
-150.618	-30.190	0.315	-0.177
-149.604	-200.000	0.065	0.361
-148.589	467.799	0.147	-0.326
-147.574	-51.669	-0.236	-0.109
-146.560	101.374	0.279	-0.321
-145.545	-133.506	-0.244	-0.030
-144.531	-156.484	0.198	-0.012
-143.516	234.994	0.151	0.245
-142.502	-51.492	-0.227	0.105
-141.487	224.948	-0.036	-0.057
-140.472	-200.000	-0.030	-0.175
-139.458	-72.282	0.129	0.047
-138.443	-107.164	0.220	-0.048
-137.429	800.000	-0.067	0.215
-136.414	-7.228	0.292	0.195
-135.399	-200.000	0.019	-0.374
-134.385	-110.112	0.346	-0.071
-133.370	-200.000	0.027	0.167
-132.356	-88.211	-0.229	0.068
-131.341	401.279	0.117	-0.242
-130.326	403.719	-0.092	-0.191
-129.312	315.218	-0.074	0.138
-128.297	-114.982	0.082	-0.015
-127.283	800.000	0.109	-0.394
-126.268	800.000	0.039	-0.110
-125.253	741.599	-0.042	-0.112
-124.239	687.645	-0.106	0.272
-123.224	-15.418	0.105	-0.066
-122.210	90.159	0.129	-0.142
-121.195	170.477	-0.095	-0.134
-120.180	-8.837	0.185	0.122
-119.166	250.062	0.253	0.424
-118.151	-26.634	-0.181	0.104
-117.137	-125.480	0.161	-0.024
-116.122	-103.706	-0.227	0.053
-115.107	-157.601	-0.250	0.015
-114.093	800.000	-0.066	0.185
-113.078	-200.000	0.043	0.288
-112.064	22.910	0.122	0.099
-111.049	35.367	-0.242	0.209
-110.034	-14.411	-0.088	0.056
-109.020	47.419	0.101	-0.093
-108.005	18.287	0.312	0.245
-106.991	77.066	-0.155	-0.163
-105.976	-14.520	-0.367	0.233
-104.962	224.166	0.106	0.169
-103.947	-200.000	0.015	-0.327
-102.932	-191.056	0.293	0.003
-101.918	-75.491	0.123	0.043
-100.903	14.242	0.433	-0.332
-99.889	39.922	-0.197	-0.174
-98.874	172.945	0.165	-0.234
-97.859	3.714	-0.312	-0.225
-96.845	119.267	-0.111	-0.136
-95.830	183.596	-0.140	-0.204
-94.816	286.878	-0.197	-0.351
-93.801	337.041	0.197	0.377
-92.786	776.657	0.093	-0.250
-91.772	-167.236	0.287	0.011
-90.757	173.447	-0.099	0.140
-89.743	63.815	0.210	-0.208
-88.728	25.815	0.059	-0.049
-87.713	-134.440	-0.245	0.030
-86.699	-151.117	-0.098	-0.007
-85.684	126.632	0.182	0.227
-84.670	-47.844	-0.209	0.099
-83.655	-200.000	-0.058	-0.309
-82.640	800.000	-0.071	0.287
-81.626	117.875	-0.106	0.128
-80.611	800.000	-0.044	0.125
-79.597	279.939	-0.121	0.212
-78.582	-95.640	-0.381	-0.100
-77.567	-132.743	0.140	0.018
-76.553	6.140	-0.090	-0.066
-75.538	-121.875	-0.039	0.006
-74.524	-55.401	0.126	-0.055
-73.509	-99.791	-0.038	-0.009
-72.494	38.920	0.181	0.159
-71.480	-111.617	0.288	0.058
-70.465	506.422	-0.085	0.194
-69.451	-63.759	0.221	-0.089
-68.436	-62.100	-0.316	0.130
-67.422	52.566	-0.111	-0.105
-66.407	12.529	-0.205	0.155
-65.392	24.806	-0.022	0.018
-64.378	144.918	0.088	0.115
-63.363	156.089	0.178	0.241
-62.349	-200.000	-0.006	0.084
-61.334	216.209	-0.840	-1.312
-60.319	154.305	0.276	0.372
-59.305	800.000	-0.227	-0.788
-58.290	519.928	0.515	1.187
-57.276	407.469	0.661	1.372
-56.261	-200.000	95.097	583.852
-55.246	669.557	1368.652	3482.371
-54.232	199.311	2549.643	3841.606
-53.217	114.339	2267.316	2713.337
-52.203	41.951	1895.181	1689.896
-51.188	35.703	1685.873	1456.065
-50.173	32.977	1641.453	1397.504
-49.159	50.486	1687.167	1568.015
-48.144	52.136	1703.266	1595.280
-47.130	35.408	1664.853	1435.471
-46.115	32.510	1650.992	1401.924
-45.100	32.457	1645.530	1396.837
-44.086	32.415	1642.876	1394.222
-43.071	32.303	1640.346	1391.186
-42.057	32.288	1638.319	1389.305
-41.042	32.350	1635.777	1387.554
-40.027	32.326	1634.273	1386.042
-39.013	32.286	1632.708	1384.364
-37.998	32.340	1630.472	1382.816
-36.984	32.325	1629.613	1381.922
-35.969	32.420	1627.822	1381.039
-34.954	32.477	1626.833	1380.568
-33.940	32.420	1624.366	1378.002
-32.925	32.508	1622.825	1377.284
-31.911	32.521	1620.944	1375.730
-30.896	32.473	1619.287	1373.914
-29.881	32.405	1617.680	1371.999
-28.867	32.340	1616.756	1370.690
-27.852	32.372	1614.764	1369.182
-26.838	32.488	1613.094	1368.551
-25.823	32.461	1611.832	1367.233
-24.809	32.436	1610.623	1365.969
-23.794	32.405	1608.844	1364.185
-22.779	32.581	1606.902	1363.755
-21.765	32.466	1606.140	1362.220
-20.750	32.450	1604.359	1360.543
-19.736	32.387	1603.341	1359.172
-18.721	32.507	1601.656	1358.554
-17.706	32.475	1599.916	1356.792
-16.692	32.424	1598.487	1355.162
-15.677	32.504	1597.018	1354.440
-14.663	32.503	1595.948	1353.468
-13.648	32.446	1594.419	1351.707
-12.633	32.409	1593.083	1350.259
-11.619	32.505	1591.425	1349.483
-10.604	32.493	1589.599	1347.795
-9.590	32.420	1589.062	1346.768
-8.575	32.507	1587.300	1345.842
-7.560	32.455	1586.427	1344.674
-6.546	32.458	1585.029	1343.463
-5.531	32.445	1583.869	1342.328
-4.517	32.480	1582.215	1341.124
-3.502	32.481	1581.747	1340.684
-2.487	32.512	1580.056	1339.414
-1.473	32.212	1568.781	1327.690
-0.458	29.516	1549.391	1292.381
0.556	25.799	1549.341	1260.408
1.571	23.439	1572.705	1262.513
2.586	22.945	1585.368	1269.022
3.600	20.348	1532.055	1208.190
4.615	12.438	1423.733	1071.303
5.629	5.788	1361.621	982.910
6.644	4.809	1353.334	970.736
7.659	4.611	1351.864	968.366
8.673	4.555	1351.020	967.325
9.688	4.675	1349.434	966.854
10.702	4.558	1346.752	964.117
11.717	7.615	1352.041	986.830
12.731	15.137	1365.775	1043.812
13.746	19.722	1372.512	1077.514
14.761	19.365	1370.558	1073.662
15.775	18.320	1368.101	1065.144
16.790	17.241	1365.584	1056.389
17.804	16.423	1363.118	1049.306
18.819	16.033	1361.710	1045.711
19.834	15.760	1360.668	1043.128
20.848	15.509	1359.688	1040.727
21.863	15.314	1358.442	1038.472
22.877	15.229	1356.972	1036.731
23.892	15.086	1356.765	1035.601
24.907	15.161	1355.503	1035.004
25.921	15.161	1354.766	1034.354
26.936	15.254	1353.871	1034.152
27.950	15.239	1352.728	1033.092
28.965	15.236	1351.909	1032.361
29.980	15.315	1350.422	1031.617
30.994	15.426	1349.406	1031.434
32.009	15.585	1348.201	1031.397
33.023	15.440	1346.994	1029.493
34.038	15.395	1345.771	1028.191
35.053	15.241	1344.718	1026.351
36.067	15.340	1343.309	1025.796
37.082	15.400	1342.295	1025.292
38.096	15.410	1341.440	1024.614
39.111	15.406	1340.728	1023.955
40.126	15.301	1340.265	1022.870
41.140	15.117	1338.989	1020.684
42.155	15.099	1338.451	1020.074
43.169	15.060	1338.833	1020.038
44.184	15.010	1338.626	1019.485
45.199	15.019	1337.957	1018.940
46.213	15.206	1337.326	1019.503
47.228	15.346	1335.884	1019.163
48.242	15.238	1335.510	1018.135
49.257	15.243	1333.462	1016.513
50.271	15.334	1331.973	1015.842
51.286	15.255	1330.853	1014.417
52.301	15.226	1329.770	1013.326
53.315	15.133	1328.910	1012.017
54.330	15.140	1327.526	1010.919
55.344	15.125	1326.099	1009.651
56.359	15.140	1325.026	1008.836
57.374	15.142	1324.346	1008.239
58.388	15.128	1323.828	1007.673
59.403	14.973	1323.309	1006.254
60.417	15.036	1322.485	1005.919
61.432	15.003	1321.311	1004.743
62.447	14.945	1320.715	1003.853
63.461	14.944	1319.240	1002.636
64.476	14.941	1318.582	1002.028
65.490	14.890	1316.981	1000.418
66.505	15.009	1315.929	1000.241
67.520	14.959	1314.171	998.518
68.534	15.095	1313.297	998.575
69.549	14.986	1312.410	997.163
70.563	14.923	1311.559	996.057
71.578	14.903	1310.055	994.703
72.593	14.772	1309.770	993.620
73.607	14.847	1308.484	993.002
74.622	14.882	1307.583	992.437
75.636	14.982	1306.770	992.328
76.651	14.951	1306.191	991.619
77.666	14.828	1306.440	990.986
78.680	14.873	1305.322	990.316
79.695	14.982	1304.640	990.360
80.709	14.941	1304.252	989.733
81.724	14.974	1303.626	989.368
82.739	15.163	1301.994	989.156
83.753	15.236	1301.615	989.213
84.768	15.324	1300.027	988.435
85.782	15.318	1299.480	987.899
86.797	15.362	1298.215	987.111
87.812	15.142	1297.225	984.974
88.826	15.246	1295.585	984.250
89.841	15.337	1294.403	983.802
90.855	15.250	1293.900	982.824
91.870	15.305	1293.041	982.405
92.884	15.447	1291.960	982.330
93.899	15.297	1291.521	981.028
94.914	15.446	1290.404	980.965
95.928	15.396	1289.665	980.026
96.943	15.396	1288.591	979.122
97.957	15.376	1287.640	978.197
98.972	15.315	1286.540	976.918
99.987	15.444	1285.364	976.691
101.001	15.415	1284.183	975.539
102.016	15.351	1283.740	974.742
103.030	15.358	1283.057	974.179
104.045	15.413	1281.897	973.532
105.060	15.256	1280.743	971.658
106.074	15.134	1278.903	969.469
107.089	15.112	1277.625	968.285
108.103	15.061	1276.238	966.859
109.118	14.960	1275.240	965.433
110.133	14.941	1274.199	964.448
111.147	14.971	1272.780	963.462
112.162	14.993	1271.616	962.625
113.176	15.066	1270.504	962.114
114.191	15.031	1269.649	961.183
115.206	15.161	1268.211	960.751
116.220	15.033	1267.207	959.174
117.235	15.105	1265.977	958.574
118.249	15.044	1265.247	957.586
119.264	15.124	1263.887	956.927
120.279	15.044	1262.621	955.427
121.293	15.045	1262.116	954.965
122.308	14.934	1260.941	953.358
123.322	14.976	1259.797	952.653
124.337	14.840	1259.364	951.462
125.352	14.969	1257.707	950.859
126.366	14.912	1256.829	949.790
127.381	15.061	1255.339	949.425
128.395	14.991	1254.738	948.492
129.410	15.009	1253.837	947.827
130.424	15.028	1252.794	947.065
131.439	15.044	1251.982	946.454
132.454	15.178	1250.879	946.294
133.468	15.083	1250.898	945.688
134.483	15.157	1249.524	944.984
135.497	15.142	1248.774	944.250
136.512	15.209	1247.231	943.376
137.527	15.156	1246.387	942.357
138.541	15.196	1244.801	941.295
139.556	15.206	1243.428	940.233
140.570	15.349	1242.631	940.349
141.585	15.468	1241.005	939.703
142.600	15.454	1240.187	938.917
143.614	15.497	1239.406	938.483
144.629	15.478	1238.363	937.505
145.643	15.472	1237.115	936.446
146.658	15.359	1235.971	934.865
147.673	15.221	1234.842	933.164
148.687	15.263	1233.131	932.019
149.702	15.222	1232.085	930.921
150.716	15.195	1230.950	929.829
151.731	15.153	1229.772	928.623
152.746	15.110	1228.989	927.712
153.760	15.219	1227.231	926.905
154.775	15.304	1226.469	926.718
155.789	15.353	1225.577	926.233
156.804	15.364	1224.548	925.433
157.819	15.457	1223.687	925.215
158.833	15.525	1222.531	924.631
159.848	15.521	1221.701	923.903
160.862	15.518	1220.439	922.847
161.877	15.409	1219.399	921.384
162.892	15.294	1218.090	919.679
163.906	15.263	1217.419	918.925
164.921	15.272	1216.708	918.353
165.935	15.360	1215.540	917.875
166.950	15.388	1215.068	917.589
167.964	15.343	1214.036	916.481
168.979	15.293	1213.755	915.918
169.994	15.403	1212.890	915.781
171.008	15.331	1212.075	914.694
172.023	15.412	1211.788	914.837
173.037	15.563	1210.673	914.735
174.052	15.541	1209.796	913.876
175.067	15.427	1208.816	912.433
176.081	15.313	1208.281	911.331
177.096	15.396	1207.121	910.825
178.110	15.436	1205.824	909.979
179.125	15.391	1204.428	908.606
180.140	15.447	1203.331	908.001
181.154	15.551	1201.954	907.443
182.169	15.522	1201.052	906.522
183.183	15.580	1200.319	906.204
184.198	15.652	1198.786	905.352
185.213	15.608	1197.899	904.370
186.227	15.684	1196.819	903.882
187.242	15.685	1195.964	903.161
188.256	15.633	1195.016	902.088
189.271	15.836	1193.943	902.283
190.286	15.633	1192.914	900.339
191.300	15.375	1192.146	898.297
192.315	15.395	1191.012	897.471
193.329	15.293	1190.630	896.559
194.344	15.358	1190.162	896.473
195.359	15.518	1189.392	896.669
196.373	15.553	1189.157	896.598
197.388	15.715	1188.768	897.089
198.402	15.793	1188.505	897.229
199.417	15.874	1187.675	896.954
200.432	15.903	1186.726	896.313
201.446	16.022	1186.140	896.425
202.461	16.125	1185.211	896.190
203.475	16.104	1183.933	895.031
204.490	15.931	1182.726	893.125
205.504	15.861	1181.617	891.835
206.519	15.827	1180.464	890.709
207.534	15.649	1179.855	889.227
208.548	15.875	1178.744	889.507
209.563	15.967	1177.621	889.067
210.577	15.843	1177.008	887.872
211.592	15.934	1175.994	887.505
212.607	15.991	1175.517	887.368
213.621	16.074	1174.200	886.733
214.636	15.933	1173.437	885.338
215.650	16.028	1172.315	884.910
216.665	16.188	1171.654	885.172
217.680	16.116	1170.603	883.923
218.694	16.190	1170.027	883.796
219.709	16.169	1169.304	883.062
220.723	16.162	1168.386	882.256
221.738	16.066	1168.023	881.399
222.753	16.119	1167.217	880.994
223.767	16.137	1166.235	880.267
224.782	16.231	1165.465	880.097
225.796	16.337	1165.413	880.535
226.811	16.323	1164.295	879.538
227.826	16.297	1163.434	878.675
228.840	16.186	1163.186	877.829
229.855	16.270	1162.138	877.400
230.869	16.230	1161.646	876.743
231.884	16.239	1160.293	875.689
232.899	16.168	1159.696	874.794
233.913	16.015	1159.145	873.511
234.928	16.194	1158.298	873.718
235.942	16.182	1157.470	872.957
236.957	16.156	1156.535	872.039
237.972	16.081	1156.065	871.218
238.986	16.216	1155.454	871.382
240.001	16.202	1154.563	870.557
241.015	16.264	1153.542	870.030
242.030	16.208	1153.089	869.326
243.045	16.183	1152.349	868.560
244.059	16.286	1151.477	868.358
245.074	16.326	1150.748	867.933
246.088	16.320	1150.021	867.279
247.103	16.416	1148.939	866.879
248.117	16.473	1148.627	866.861
249.132	16.577	1147.837	866.719
250.147	16.685	1147.142	866.669
251.161	16.778	1145.977	866.190
252.176	16.798	1146.146	866.341
253.190	16.741	1145.286	865.326
254.205	16.844	1144.738	865.360
255.220	16.889	1143.981	864.941
256.234	16.908	1142.999	864.217
257.249	16.883	1142.796	863.858
258.263	16.866	1142.050	863.134
259.278	16.844	1141.702	862.683
260.293	16.844	1141.332	862.328
261.307	16.835	1140.477	861.557
262.322	16.903	1139.546	861.126
263.336	17.023	1138.998	861.243
264.351	16.922	1138.549	860.313
265.366	17.046	1137.742	860.256
266.380	17.014	1137.051	859.497
267.395	17.047	1136.142	858.903
268.409	16.933	1135.189	857.528
269.424	16.885	1134.696	856.835
270.439	17.019	1133.603	856.612
271.453	17.023	1132.880	856.012
272.468	16.886	1132.542	854.990
273.482	17.017	1131.423	854.729
274.497	16.916	1130.954	853.790
275.512	16.896	1130.456	853.237
276.526	16.915	1129.680	852.671
277.541	16.900	1128.590	851.701
278.555	16.926	1128.239	851.491
279.570	17.074	1127.599	851.674
280.585	17.205	1126.843	851.683
281.599	17.121	1126.069	850.604
282.614	17.108	1125.094	849.723
283.628	17.092	1123.817	848.604
284.643	17.138	1122.803	847.997
285.657	17.172	1121.921	847.421
286.672	17.032	1121.465	846.307
287.687	17.033	1120.719	845.673
288.701	17.048	1119.669	844.880
289.716	17.139	1118.965	844.728
290.730	17.126	1118.335	844.110
291.745	17.192	1117.392	843.652
292.760	17.155	1116.775	842.931
293.774	17.356	1115.985	843.253
294.789	17.364	1115.585	842.920
295.803	17.342	1114.986	842.283
296.818	17.333	1114.193	841.563
297.833	17.321	1113.042	840.561
298.847	17.254	1112.512	839.753
299.862	17.325	1111.474	839.248
300.876	17.253	1111.349	838.725
301.891	17.403	1110.410	838.681
302.906	17.421	1109.739	838.186
303.920	17.504	1109.184	838.101
304.935	17.547	1108.595	837.796
305.949	17.490	1108.172	837.122
306.964	17.646	1107.482	837.295
307.979	17.621	1106.290	836.194
308.993	17.411	1106.181	835.009
310.008	17.565	1105.013	834.807
311.022	17.655	1104.275	834.617
312.037	17.515	1103.846	833.533
313.052	17.439	1102.899	832.370
314.066	17.484	1101.621	831.554
315.081	17.453	1100.529	830.503
316.095	17.319	1100.119	829.471
317.110	17.413	1099.366	829.283
318.125	17.421	1098.350	828.487
319.139	17.355	1097.592	827.520
320.154	17.374	1097.205	827.247
321.168	17.407	1096.862	827.073
322.183	17.448	1095.773	826.378
323.197	17.637	1095.243	826.824
324.212	17.544	1094.669	825.865
325.227	17.554	1094.320	825.580
326.241	17.549	1093.437	824.815
327.256	17.666	1092.538	824.630
328.270	17.711	1091.298	823.837
329.285	17.542	1090.509	822.356
330.300	17.529	1089.724	821.628
331.314	17.621	1088.930	821.400
332.329	17.523	1088.143	820.262
333.343	17.547	1087.196	819.587
334.358	17.721	1086.439	819.782
335.373	17.692	1086.080	819.298
336.387	17.642	1085.193	818.316
337.402	17.772	1084.478	818.331
338.416	17.762	1083.746	817.658
339.431	17.823	1082.908	817.246
340.446	17.917	1082.090	817.005
341.460	17.994	1081.990	817.224
342.475	18.114	1080.895	816.900
343.489	17.955	1080.306	815.625
344.504	18.035	1079.018	814.960
345.519	18.003	1078.605	814.424
346.533	18.165	1077.514	814.302
347.548	18.113	1077.370	813.873
348.562	18.233	1076.287	813.553
349.577	18.125	1075.123	812.088
350.592	17.968	1074.572	810.851
351.606	18.056	1073.774	810.595
352.621	17.990	1073.036	809.657
353.635	17.899	1072.556	808.789
354.650	17.946	1071.934	808.473
355.665	17.932	1071.524	808.024
356.679	18.033	1070.614	807.746
357.694	17.947	1070.086	806.866
358.708	18.082	1069.491	806.985
359.723	18.027	1068.576	805.964
360.738	18.175	1068.057	806.201
361.752	18.093	1067.555	805.365
362.767	18.113	1067.233	805.145
363.781	18.092	1066.778	804.630
364.796	18.301	1066.031	804.978
365.810	18.344	1065.070	804.382
366.825	18.324	1064.928	804.113
367.840	18.490	1064.406	804.426
368.854	18.459	1063.725	803.692
369.869	18.498	1062.921	803.199
370.883	18.531	1062.143	802.692
371.898	18.390	1060.888	801.015
372.913	18.461	1060.129	800.703
373.927	18.341	1060.088	800.038
374.942	18.434	1059.836	800.213
375.956	18.494	1059.197	799.942
376.971	18.439	1058.392	799.003
377.986	18.493	1058.377	799.172
379.000	18.653	1057.249	798.996
380.015	18.584	1057.243	798.600
381.029	18.739	1056.189	798.453
382.044	18.615	1055.901	797.589
383.059	18.703	1055.215	797.410
384.073	18.675	1053.840	796.169
385.088	18.727	1053.049	795.744
386.102	18.781	1052.026	795.149
387.117	18.580	1051.289	793.593
388.132	18.600	1050.270	792.846
389.146	18.484	1049.797	791.881
390.161	18.507	1048.976	791.301
391.175	18.569	1048.506	791.159
392.190	18.717	1047.673	791.142
393.205	18.718	1047.485	790.939
394.219	18.625	1046.351	789.583
395.234	18.761	1045.609	789.577
396.248	18.754	1044.311	788.496
397.263	18.703	1043.284	787.415
398.278	18.768	1042.357	786.946
399.292	18.632	1042.099	786.056
400.307	18.510	1041.260	784.797
401.321	18.527	1040.790	784.453
402.336	18.690	1039.728	784.327
403.350	18.683	1038.963	783.646
404.365	18.649	1038.237	782.875
405.380	18.694	1037.838	782.711
406.394	18.754	1037.039	782.312
407.409	18.878	1036.043	782.058
408.423	18.969	1035.913	782.303
409.438	19.030	1035.398	782.123
410.453	18.972	1034.868	781.390
411.467	19.008	1034.073	780.882
412.482	19.133	1033.488	780.937
413.496	19.058	1032.573	779.839
414.511	19.071	1032.227	779.568
415.526	19.130	1031.587	779.284
416.540	19.042	1031.544	778.783
417.555	19.086	1030.650	778.238
418.569	19.218	1029.751	778.087
419.584	19.093	1029.869	777.541
420.599	19.220	1028.980	777.375
421.613	151.247	1400.952	1794.380
422.628	137.951	1455.161	1794.489
