DTS Sentinel unit serial number:	SN413079Multiplexer serial number:	ORYXHardware model number:	OX4-SRSoftware version number:	ORYX F/W v4.00 Oryx Data Collector v3.7.2.0data status	okinstallation	princeton_trtdifferential loss correction	single-endedforward channel	channel 2reverse channel	N/Adate	2019/09/15time	10:11:35forward acquisition time	60.00reverse acquisition time	0.00gamma	496.2192k internal	0.2315k external	0.2315temperature offset calibration	1.0017default loss term (dB/km)	0.3790temperature slope calibration	1.0000multiplexer offset coefficient	1.0000multiplexer slope coefficient	1.0000fibre end	0.00T internal ref (°C)	34.23T ext. ref 1 (°C)	5.02T ext. ref 2 (°C)	29.89length (m)	temperature (°C)	Stokes	anti-Stokes-747.200	-200.000	0.001	-0.349
-746.185	-200.000	-0.034	0.167
-745.171	-183.635	-0.347	-0.006
-744.156	5.408	-0.137	0.103
-743.142	-79.745	0.336	0.115
-742.127	800.000	0.065	-0.198
-741.112	677.291	-0.021	0.055
-740.098	-4.155	-0.072	-0.051
-739.083	800.000	-0.048	-0.150
-738.069	-30.192	-0.189	0.109
-737.054	-200.000	-0.014	-0.122
-736.039	-138.010	-0.198	-0.022
-735.025	-200.000	0.043	0.275
-734.010	-78.057	-0.228	0.080
-732.996	-31.224	-0.239	-0.136
-731.981	800.000	0.122	-0.363
-730.966	-25.156	-0.298	0.179
-729.952	-161.600	-0.164	-0.009
-728.937	-200.000	-0.069	-0.330
-727.923	432.662	0.082	0.180
-726.908	306.512	-0.131	0.248
-725.894	-23.871	-0.034	0.021
-724.879	-77.960	-0.458	-0.160
-723.864	-50.052	-0.082	-0.039
-722.850	-46.888	0.149	-0.074
-721.835	563.160	0.104	0.255
-720.821	-136.461	-0.221	0.026
-719.806	-132.675	-0.072	0.009
-718.791	800.000	0.015	-0.067
-717.777	280.114	0.192	0.347
-716.762	210.988	-0.200	0.319
-715.748	-63.109	0.134	0.056
-714.733	-82.371	0.145	-0.048
-713.718	-55.217	-0.177	0.080
-712.704	-133.939	0.268	0.034
-711.689	-189.846	-0.123	0.001
-710.675	399.216	-0.124	-0.263
-709.660	-23.662	-0.295	0.179
-708.645	-92.570	0.389	0.111
-707.631	-44.934	-0.108	0.054
-706.616	-55.039	0.088	0.040
-705.602	182.733	-0.026	0.039
-704.587	112.843	0.289	-0.355
-703.572	800.000	-0.058	0.208
-702.558	-87.805	-0.269	0.082
-701.543	-29.352	-0.247	-0.143
-700.529	-133.475	0.214	0.027
-699.514	800.000	-0.047	0.183
-698.499	170.502	-0.152	-0.220
-697.485	-60.026	0.233	-0.101
-696.470	-95.130	-0.202	0.055
-695.456	261.502	0.138	0.242
-694.441	32.539	-0.185	0.162
-693.426	-0.367	-0.208	-0.149
-692.412	-68.090	-0.416	0.164
-691.397	-71.210	0.254	0.097
-690.383	-50.911	0.109	0.052
-689.368	783.142	-0.022	-0.061
-688.354	-16.165	0.197	0.127
-687.339	-72.419	0.204	-0.076
-686.324	211.726	0.044	0.070
-685.310	559.415	-0.033	-0.080
-684.295	-148.121	0.299	-0.025
-683.281	42.487	-0.186	-0.171
-682.266	-35.708	-0.185	-0.101
-681.251	241.967	-0.119	0.201
-680.237	-200.000	0.010	-0.347
-679.222	-19.971	0.212	-0.132
-678.208	-117.152	-0.162	0.030
-677.193	223.622	-0.049	0.080
-676.178	-39.245	-0.191	0.101
-675.164	800.000	0.045	-0.186
-674.149	-200.000	-0.053	-0.243
-673.135	-73.912	0.170	-0.063
-672.120	-147.651	-0.205	0.017
-671.105	-141.674	0.250	0.025
-670.091	-76.401	-0.237	-0.084
-669.076	-26.659	-0.202	-0.120
-668.062	571.264	-0.009	-0.022
-667.047	-173.265	-0.147	0.005
-666.032	-56.356	-0.122	-0.055
-665.018	-117.847	-0.093	0.017
-664.003	-20.329	0.146	0.091
-662.989	-46.954	0.349	0.172
-661.974	30.030	-0.056	0.048
-660.959	-6.364	-0.260	-0.179
-659.945	30.883	-0.260	0.225
-658.930	155.498	-0.094	-0.131
-657.916	-166.267	-0.537	0.023
-656.901	286.309	-0.040	-0.073
-655.886	-200.000	0.049	-0.260
-654.872	16.964	-0.046	0.037
-653.857	643.761	-0.036	0.093
-652.843	68.617	-0.084	0.087
-651.828	-131.326	-0.090	0.012
-650.814	134.336	0.066	0.087
-649.799	744.292	0.047	-0.127
-648.784	-26.757	-0.135	0.080
-647.770	-158.424	-0.128	-0.008
-646.755	132.487	-0.248	-0.322
-645.741	-56.650	-0.083	-0.037
-644.726	-125.987	0.333	-0.051
-643.711	-65.303	-0.140	-0.057
-642.697	19.155	-0.198	-0.160
-641.682	78.730	0.187	0.202
-640.668	-200.000	-0.015	-0.104
-639.653	356.734	-0.097	-0.194
-638.638	-200.000	-0.022	-0.168
-637.624	479.806	0.133	0.304
-636.609	-4.775	-0.169	-0.118
-635.595	174.323	-0.136	-0.198
-634.580	-200.000	-0.007	-0.055
-633.565	-127.960	0.258	0.037
-632.551	-174.342	-0.115	0.003
-631.536	-200.000	0.019	0.513
-630.522	-200.000	0.046	0.268
-629.507	-21.564	-0.101	0.062
-628.492	800.000	-0.044	0.151
-627.478	189.505	0.078	0.117
-626.463	-101.808	0.466	0.114
-625.449	84.064	-0.210	0.231
-624.434	-135.675	-0.386	-0.046
-623.419	-117.013	-0.278	-0.051
-622.405	78.684	0.196	0.212
-621.390	-200.000	-0.045	-0.265
-620.376	-200.000	-0.030	0.233
-619.361	-81.444	0.277	-0.092
-618.346	-70.872	-0.391	0.149
-617.332	557.784	0.066	-0.160
-616.317	34.182	-0.076	-0.067
-615.303	-33.118	-0.230	-0.128
-614.288	352.299	0.081	0.163
-613.273	10.991	-0.054	-0.041
-612.259	-32.471	-0.445	0.250
-611.244	-54.800	0.241	0.110
-610.230	-11.913	0.157	-0.104
-609.215	-5.121	-0.058	-0.040
-608.201	-3.750	-0.126	-0.088
-607.186	800.000	0.084	-0.293
-606.171	-93.173	0.142	-0.040
-605.157	-56.276	0.271	0.121
-604.142	79.081	-0.212	-0.229
-603.128	204.768	-0.172	-0.270
-602.113	130.853	0.084	-0.109
-601.098	-147.927	-0.126	0.011
-600.084	617.152	0.063	0.158
-599.069	3.947	0.208	0.153
-598.055	113.684	0.177	-0.217
-597.040	-73.036	0.254	-0.094
-596.025	-98.549	-0.310	-0.080
-595.011	-104.328	-0.284	0.066
-593.996	-177.529	-0.190	0.005
-592.982	-31.449	-0.242	-0.137
-591.967	-131.709	0.296	0.039
-590.952	-106.948	-0.081	0.018
-589.938	210.503	-0.045	-0.071
-588.923	-92.511	-0.196	0.055
-587.909	263.520	-0.202	0.353
-586.894	190.384	-0.071	-0.108
-585.879	-200.000	-0.006	-0.268
-584.865	-200.000	-0.029	0.161
-583.850	-16.013	0.118	-0.075
-582.836	-103.871	0.468	0.110
-581.821	202.553	-0.104	-0.161
-580.806	11.032	-0.292	-0.225
-579.792	-148.084	-0.252	-0.021
-578.777	260.283	0.086	0.149
-577.763	-200.000	-0.004	0.290
-576.748	-200.000	-0.021	0.393
-575.733	48.370	0.037	0.035
-574.719	588.350	0.065	0.161
-573.704	-35.749	0.129	-0.071
-572.690	-58.116	-0.114	0.050
-571.675	-200.000	0.033	0.251
-570.661	-27.490	-0.180	-0.105
-569.646	800.000	-0.009	-0.040
-568.631	186.411	-0.193	-0.289
-567.617	-137.565	0.246	-0.028
-566.602	132.793	-0.110	0.143
-565.588	565.532	0.077	0.187
-564.573	163.612	0.127	-0.180
-563.558	5.144	-0.200	0.148
-562.544	-200.000	-0.001	-0.123
-561.529	800.000	0.031	-0.134
-560.515	147.078	-0.157	0.212
-559.500	754.881	-0.023	-0.062
-558.485	248.012	0.170	0.290
-557.471	67.868	0.066	0.068
-556.456	-200.000	-0.046	-0.268
-555.442	416.809	0.095	-0.203
-554.427	-22.589	-0.260	-0.158
-553.412	-123.239	-0.392	-0.063
-552.398	38.049	0.176	0.157
-551.383	303.023	-0.069	0.128
-550.369	99.241	0.088	-0.102
-549.354	353.220	-0.091	0.182
-548.339	8.359	-0.288	-0.218
-547.325	64.494	-0.059	0.060
-546.310	800.000	0.024	0.084
-545.296	234.484	0.106	-0.176
-544.281	37.857	0.188	-0.168
-543.266	-200.000	-0.012	0.324
-542.252	6.900	-0.051	-0.038
-541.237	685.097	0.094	-0.246
-540.223	456.434	-0.114	0.255
-539.208	-129.297	0.111	-0.016
-538.193	-200.000	0.019	0.264
-537.179	45.555	-0.076	0.070
-536.164	-149.414	-0.228	-0.018
-535.150	68.430	0.102	-0.105
-534.135	210.306	-0.050	0.078
-533.121	-38.498	-0.158	-0.084
-532.106	35.793	0.192	-0.170
-531.091	-8.222	0.129	-0.087
-530.077	270.125	-0.110	0.194
-529.062	-118.414	-0.185	-0.033
-528.048	-90.772	-0.229	-0.066
-527.033	800.000	0.062	0.235
-526.018	365.526	0.029	0.058
-525.004	232.586	-0.074	-0.122
-523.989	-37.088	-0.140	-0.075
-522.975	-200.000	0.010	-0.224
-521.960	40.761	-0.262	0.237
-520.945	457.626	0.027	0.060
-519.931	-46.003	-0.293	0.145
-518.916	-200.000	-0.010	0.327
-517.902	-68.699	-0.221	-0.086
-516.887	0.883	0.150	0.108
-515.872	59.050	-0.112	-0.111
-514.858	-119.882	-0.158	0.027
-513.843	-76.045	-0.116	0.041
-512.829	186.877	0.067	-0.100
-511.814	89.519	0.065	-0.072
-510.799	-145.542	0.156	-0.014
-509.785	110.726	0.166	0.201
-508.770	-200.000	0.062	-0.335
-507.756	102.466	-0.134	0.157
-506.741	329.666	0.102	0.196
-505.726	-64.100	0.261	-0.107
-504.712	-200.000	0.000	-0.096
-503.697	29.136	0.345	-0.294
-502.683	-76.098	-0.143	0.051
-501.668	15.007	0.081	0.064
-500.653	312.682	-0.028	-0.053
-499.639	800.000	0.060	0.172
-498.624	-28.965	0.192	-0.110
-497.610	-44.948	0.251	0.125
-496.595	161.252	-0.087	-0.122
-495.581	-200.000	0.004	-0.062
-494.566	511.161	0.119	0.278
-493.551	-102.998	-0.272	0.065
-492.537	211.974	0.225	-0.356
-491.522	800.000	0.011	0.038
-490.508	800.000	0.080	-0.294
-489.493	-67.484	-0.191	-0.075
-488.478	-200.000	-0.013	-0.059
-487.464	-200.000	-0.029	0.361
-486.449	277.217	-0.146	0.261
-485.435	-14.292	0.266	0.172
-484.420	-42.654	0.221	0.113
-483.405	-98.769	0.099	0.025
-482.391	-100.165	-0.324	0.081
-481.376	-69.332	0.117	-0.045
-480.362	18.533	-0.059	-0.047
-479.347	800.000	0.084	-0.269
-478.332	-200.000	-0.056	-0.341
-477.318	26.425	-0.176	-0.148
-476.303	800.000	0.113	0.372
-475.289	-200.000	-0.076	-0.365
-474.274	-104.928	0.257	0.059
-473.259	232.195	0.032	0.053
-472.245	117.601	-0.158	0.194
-471.230	-30.290	0.321	0.183
-470.216	-139.308	-0.116	0.013
-469.201	-94.409	-0.127	-0.035
-468.186	368.909	-0.155	0.314
-467.172	-86.230	-0.032	-0.010
-466.157	552.588	0.025	-0.060
-465.143	235.506	0.083	0.138
-464.128	21.999	-0.122	-0.099
-463.113	120.561	-0.083	-0.103
-462.099	-30.005	0.296	-0.169
-461.084	401.141	-0.069	0.145
-460.070	-49.532	0.074	0.036
-459.055	-106.098	0.375	-0.084
-458.040	800.000	0.085	0.267
-457.026	-200.000	-0.002	-0.198
-456.011	361.091	-0.059	-0.119
-454.997	23.492	-0.122	0.101
-453.982	91.675	-0.048	-0.055
-452.968	800.000	-0.121	-0.345
-451.953	-200.000	-0.046	0.347
-450.938	389.683	0.002	-0.004
-449.924	-147.626	-0.156	-0.013
-448.909	-97.929	0.307	0.079
-447.895	-24.010	-0.273	-0.163
-446.880	538.781	0.165	0.393
-445.865	-105.584	0.207	0.047
-444.851	94.705	-0.205	0.233
-443.836	-132.362	-0.251	0.032
-442.822	187.925	0.242	-0.362
-441.807	-92.555	-0.121	-0.034
-440.792	-129.922	0.141	-0.019
-439.778	-200.000	-0.009	0.157
-438.763	-54.257	0.111	-0.051
-437.749	-144.672	-0.120	0.011
-436.734	-168.200	-0.067	-0.003
-435.719	20.471	-0.097	0.079
-434.705	444.137	0.086	0.189
-433.690	649.232	-0.061	0.155
-432.676	-169.766	0.298	0.011
-431.661	184.567	0.206	0.306
-430.646	348.238	-0.037	-0.074
-429.632	-109.151	-0.087	0.018
-428.617	-94.880	-0.170	0.046
-427.603	663.695	-0.076	0.196
-426.588	109.211	0.134	0.160
-425.573	39.302	0.052	-0.046
-424.559	87.339	0.188	-0.208
-423.544	237.288	0.028	-0.046
-422.530	-141.270	-0.412	-0.042
-421.515	-200.000	-0.007	-0.198
-420.500	50.942	-0.026	-0.025
-419.486	-200.000	0.048	-0.360
-418.471	-80.732	-0.216	0.072
-417.457	-200.000	-0.054	0.332
-416.442	296.047	-0.068	0.125
-415.428	49.214	0.048	-0.045
-414.413	-19.052	0.299	0.186
-413.398	61.637	0.273	0.272
-412.384	-200.000	-0.053	0.316
-411.369	-106.052	-0.231	-0.052
-410.355	249.661	0.077	-0.130
-409.340	-108.689	-0.190	0.041
-408.325	-200.000	0.024	0.107
-407.311	800.000	0.023	-0.085
-406.296	-200.000	0.036	-0.342
-405.282	383.591	-0.090	0.185
-404.267	125.098	-0.181	-0.228
-403.252	230.828	0.209	0.342
-402.238	-46.803	0.275	-0.135
-401.223	298.030	-0.069	0.127
-400.209	-164.070	0.427	0.020
-399.194	-115.264	0.145	-0.027
-398.179	800.000	0.024	-0.073
-397.165	-200.000	-0.018	-0.090
-396.150	-153.676	-0.020	0.001
-395.136	-200.000	-0.007	-0.365
-394.121	159.813	0.206	0.287
-393.106	63.549	-0.110	0.111
-392.092	124.868	0.130	0.164
-391.077	-129.675	0.139	0.019
-390.063	-200.000	0.000	0.533
-389.048	-80.436	-0.124	0.041
-388.033	-200.000	0.007	-0.138
-387.019	17.088	-0.141	-0.112
-386.004	454.926	-0.258	-0.572
-384.990	800.000	-0.062	-0.251
-383.975	159.634	0.244	0.339
-382.960	96.431	0.077	0.089
-381.946	-87.414	0.212	-0.064
-380.931	-200.000	-0.027	0.211
-379.917	-112.740	0.026	0.005
-378.902	-200.000	-0.032	-0.233
-377.888	-200.000	0.019	-0.368
-376.873	166.003	0.087	-0.124
-375.858	-113.880	-0.084	-0.016
-374.844	-191.055	-0.035	-0.000
-373.829	591.741	-0.091	0.225
-372.815	-34.274	-0.183	0.100
-371.800	583.133	0.078	0.190
-370.785	155.080	0.282	-0.387
-369.771	186.794	-0.147	-0.219
-368.756	-176.181	0.303	0.008
-367.742	7.766	0.113	0.084
-366.727	-200.000	-0.004	-0.126
-365.712	-200.000	0.012	-0.090
-364.698	82.236	-0.176	0.191
-363.683	-155.735	-0.277	0.018
-362.669	-200.000	0.039	0.266
-361.654	-108.156	0.214	0.046
-360.639	800.000	-0.150	-0.426
-359.625	162.594	-0.227	-0.318
-358.610	147.955	-0.077	0.103
-357.596	-200.000	0.011	-0.199
-356.581	-200.000	0.011	0.105
-355.566	300.591	-0.053	0.098
-354.552	33.935	-0.121	-0.105
-353.537	27.828	-0.186	-0.156
-352.523	-4.528	-0.318	-0.219
-351.508	-200.000	0.152	0.001
-350.493	234.951	0.343	0.565
-349.479	-55.729	-0.231	-0.103
-348.464	-112.461	-0.238	0.047
-347.450	-118.994	0.281	0.049
-346.435	-72.471	-0.227	0.084
-345.420	-200.000	0.005	-0.070
-344.406	268.086	-0.081	-0.142
-343.391	-44.231	0.148	0.074
-342.377	-88.816	0.075	-0.022
-341.362	-55.154	0.224	-0.101
-340.348	35.968	0.203	0.178
-339.333	7.696	-0.197	-0.147
-338.318	548.269	0.155	-0.370
-337.304	-143.107	0.379	-0.036
-336.289	-113.242	0.174	0.034
-335.275	-30.311	0.225	-0.127
-334.260	-200.000	0.007	-0.189
-333.245	-28.784	0.154	-0.089
-332.231	-103.177	-0.076	-0.018
-331.216	316.735	0.088	0.167
-330.202	-84.716	-0.214	0.067
-329.187	29.306	0.194	-0.164
-328.172	-81.115	-0.416	-0.137
-327.158	800.000	-0.082	0.274
-326.143	468.355	0.043	-0.097
-325.129	-82.017	-0.138	0.045
-324.114	750.358	0.096	0.257
-323.099	-65.877	-0.316	0.126
-322.085	-7.651	0.132	0.089
-321.070	-174.574	-0.191	-0.005
-320.056	-200.000	0.035	0.310
-319.041	-129.574	-0.158	0.022
-318.026	541.334	0.122	-0.289
-317.012	-49.846	-0.321	0.152
-315.997	800.000	-0.110	-0.304
-314.983	142.170	0.085	-0.112
-313.968	-72.054	-0.207	-0.077
-312.953	-93.026	-0.155	0.043
-311.939	314.213	-0.040	0.076
-310.924	800.000	0.072	-0.225
-309.910	91.370	-0.140	-0.157
-308.895	228.694	0.091	0.148
-307.880	379.183	-0.131	0.267
-306.866	405.639	-0.112	0.235
-305.851	11.558	0.201	0.153
-304.837	128.472	-0.324	0.411
-303.822	389.919	-0.055	0.114
-302.807	-200.000	-0.019	-0.222
-301.793	51.468	-0.192	-0.182
-300.778	-17.622	0.218	-0.136
-299.764	-138.338	0.087	0.010
-298.749	295.533	-0.060	0.110
-297.735	-200.000	-0.073	0.359
-296.720	3.647	-0.073	-0.053
-295.705	-120.982	-0.062	-0.010
-294.691	44.836	0.207	-0.190
-293.676	727.992	-0.087	-0.230
-292.662	140.639	-0.074	-0.098
-291.647	33.117	-0.108	-0.093
-290.632	-56.571	0.279	-0.123
-289.618	-14.684	0.254	-0.162
-288.603	142.565	-0.089	0.117
-287.589	525.579	-0.090	-0.212
-286.574	-200.000	0.083	-0.521
-285.559	-200.000	0.011	0.266
-284.545	-47.232	0.293	0.142
-283.530	800.000	0.076	-0.251
-282.516	-200.000	0.027	0.160
-281.501	355.602	-0.159	-0.314
-280.486	800.000	0.077	0.271
-279.472	150.004	-0.033	0.044
-278.457	-85.111	0.145	0.045
-277.443	-120.668	-0.119	0.020
-276.428	-72.715	-0.152	0.056
-275.413	102.691	0.077	-0.089
-274.399	293.042	-0.082	-0.149
-273.384	518.784	0.152	0.353
-272.370	-164.277	0.320	-0.015
-271.355	800.000	-0.096	0.276
-270.340	38.869	-0.214	0.191
-269.326	-200.000	-0.050	-0.241
-268.311	56.161	-0.218	0.210
-267.297	77.986	0.029	-0.030
-266.282	513.502	-0.064	-0.149
-265.267	-22.673	0.069	0.041
-264.253	-117.211	-0.132	0.024
-263.238	-124.347	0.238	-0.037
-262.224	-200.000	0.011	0.182
-261.209	800.000	-0.146	-0.632
-260.195	429.212	-0.106	-0.227
-259.180	336.555	0.152	0.293
-258.165	-200.000	0.010	0.061
-257.151	-57.553	0.355	-0.155
-256.136	99.511	-0.247	-0.284
-255.122	284.875	-0.157	-0.281
-254.107	-120.663	0.017	0.003
-253.092	-147.309	0.257	-0.022
-252.078	-194.110	0.192	-0.002
-251.063	194.247	0.113	0.171
-250.049	230.772	0.074	-0.121
-249.034	81.059	0.113	0.122
-248.019	-63.946	-0.325	-0.132
-247.005	-200.000	-0.020	-0.191
-245.990	-200.000	0.034	-0.231
-244.976	45.032	0.020	-0.018
-243.961	800.000	0.115	-0.365
-242.946	98.482	0.131	-0.150
-241.932	63.019	-0.175	-0.175
-240.917	768.538	-0.104	-0.282
-239.903	-9.501	0.227	0.150
-238.888	-172.190	0.490	0.016
-237.873	236.246	-0.020	-0.033
-236.859	-158.182	0.231	0.013
-235.844	158.238	-0.079	-0.109
-234.830	31.356	0.112	-0.096
-233.815	147.948	0.059	-0.079
-232.800	-200.000	0.000	0.044
-231.786	88.691	0.238	-0.263
-230.771	54.668	0.233	0.223
-229.757	-170.527	0.303	-0.010
-228.742	-59.810	-0.172	-0.073
-227.727	-193.230	0.346	0.003
-226.713	-2.661	-0.011	-0.007
-225.698	-200.000	-0.012	0.053
-224.684	171.038	-0.020	-0.029
-223.669	451.605	-0.099	-0.217
-222.655	-80.361	0.276	-0.092
-221.640	385.137	0.037	-0.077
-220.625	138.607	-0.123	0.160
-219.611	-44.025	-0.171	0.085
-218.596	-200.000	0.002	-0.094
-217.582	-6.723	0.184	0.124
-216.567	583.377	-0.052	-0.126
-215.552	147.388	-0.165	-0.220
-214.538	-81.191	0.203	-0.067
-213.523	374.641	0.218	0.441
-212.509	-200.000	0.022	-0.186
-211.494	-116.728	-0.510	-0.093
-210.479	-200.000	-0.059	0.424
-209.465	-172.743	0.145	0.005
-208.450	124.138	0.204	-0.255
-207.436	657.178	0.044	0.113
-206.421	-78.664	0.121	0.041
-205.406	9.419	0.231	-0.173
-204.392	33.556	-0.265	-0.229
-203.377	390.878	-0.053	0.110
-202.363	46.224	-0.060	0.055
-201.348	-104.487	-0.103	-0.024
-200.333	230.500	0.181	0.293
-199.319	-185.705	0.094	0.001
-198.304	-200.000	-0.011	-0.191
-197.290	-200.000	0.006	0.297
-196.275	-200.000	0.043	0.258
-195.260	-5.275	0.083	-0.056
-194.246	161.302	-0.078	-0.109
-193.231	-102.075	-0.078	-0.019
-192.217	-75.014	0.115	-0.041
-191.202	-200.000	-0.074	0.445
-190.187	8.273	0.317	0.236
-189.173	283.914	-0.072	0.128
-188.158	68.071	-0.195	0.197
-187.144	70.584	0.116	0.119
-186.129	18.819	-0.035	0.028
-185.114	435.099	-0.106	0.228
-184.100	-18.279	0.131	-0.081
-183.085	747.082	0.117	0.312
-182.071	-200.000	-0.030	0.274
-181.056	-23.703	0.227	0.135
-180.042	-75.688	-0.177	0.062
-179.027	-90.482	0.038	-0.011
-178.012	-200.000	-0.279	0.001
-176.998	-200.000	0.029	-0.238
-175.983	-31.650	0.200	0.112
-174.969	392.286	-0.097	-0.201
-173.954	-76.951	-0.205	-0.071
-172.939	800.000	-0.024	0.086
-171.925	800.000	0.084	0.268
-170.910	-66.049	-0.299	0.118
-169.896	296.405	0.144	-0.262
-168.881	93.888	0.246	0.276
-167.866	54.562	0.379	0.362
-166.852	-167.648	-0.296	-0.012
-165.837	394.680	-0.080	-0.166
-164.823	46.093	-0.085	0.078
-163.808	238.969	0.084	0.139
-162.793	-200.000	0.038	-0.413
-161.779	-4.925	0.365	-0.249
-160.764	444.032	0.083	-0.181
-159.750	-76.564	0.113	0.039
-158.735	-68.155	-0.104	0.040
-157.720	800.000	-0.037	-0.111
-156.706	54.917	-0.341	-0.326
-155.691	330.025	-0.096	-0.183
-154.677	800.000	0.056	0.165
-153.662	-90.803	0.095	-0.027
-152.647	-92.671	-0.243	-0.067
-151.633	42.057	-0.074	0.067
-150.618	-82.530	0.137	-0.044
-149.604	-106.842	-0.138	0.030
-148.589	-78.233	0.273	-0.093
-147.574	-41.583	-0.123	-0.063
-146.560	-200.000	0.009	-0.274
-145.545	800.000	0.044	0.164
-144.531	-200.000	-0.011	-0.104
-143.516	-80.302	-0.154	0.051
-142.502	129.646	-0.001	-0.001
-141.487	-93.533	-0.030	0.008
-140.472	-57.243	0.083	-0.036
-139.458	-75.826	0.266	-0.093
-138.443	108.312	-0.176	0.208
-137.429	-22.895	0.181	0.108
-136.414	-200.000	-0.010	-0.089
-135.399	-200.000	0.019	-0.215
-134.385	-13.292	0.062	0.040
-133.370	-149.269	-0.174	-0.014
-132.356	311.093	0.047	0.087
-131.341	36.939	-0.224	-0.196
-130.326	-200.000	-0.027	-0.259
-129.312	319.489	-0.071	-0.133
-128.297	-200.000	-0.003	0.031
-127.283	49.613	0.139	0.130
-126.268	-109.226	0.290	0.061
-125.253	-132.801	0.158	-0.020
-124.239	-15.947	-0.140	-0.088
-123.224	213.794	-0.079	0.124
-122.210	-162.116	0.262	-0.013
-121.195	191.795	0.286	0.426
-120.180	-31.598	-0.080	-0.044
-119.166	1.122	-0.121	-0.086
-118.151	-200.000	-0.028	-0.183
-117.137	-147.726	-0.164	0.014
-116.122	-123.342	0.175	-0.028
-115.107	-166.842	0.476	0.019
-114.093	800.000	-0.073	0.267
-113.078	-49.051	0.118	0.056
-112.064	-80.433	0.190	0.063
-111.049	-200.000	-0.008	-0.062
-110.034	109.901	0.130	-0.154
-109.020	65.514	-0.087	0.087
-108.005	-128.055	-0.259	-0.037
-106.991	384.226	-0.108	0.221
-105.976	408.180	0.074	-0.154
-104.962	-200.000	0.014	0.121
-103.947	279.623	-0.115	0.203
-102.932	-185.112	-0.217	0.003
-101.918	68.254	-0.181	0.183
-100.903	-17.450	-0.074	0.046
-99.889	70.663	-0.177	0.181
-98.874	14.720	0.141	0.109
-97.859	46.433	-0.235	0.215
-96.845	800.000	-0.163	-0.480
-95.830	800.000	0.099	-0.287
-94.816	62.178	0.270	-0.266
-93.801	49.998	0.168	-0.156
-92.786	69.234	0.313	0.318
-91.772	800.000	-0.061	-0.210
-90.757	-114.864	0.123	-0.023
-89.743	-200.000	0.020	-0.304
-88.728	36.073	-0.042	0.036
-87.713	374.889	0.059	-0.119
-86.699	-51.363	-0.292	0.135
-85.684	193.909	-0.175	-0.262
-84.670	-200.000	-0.041	0.221
-83.655	-0.231	0.152	0.107
-82.640	-200.000	-0.002	-0.139
-81.626	800.000	-0.054	-0.148
-80.611	553.324	-0.039	0.092
-79.597	-51.460	0.185	0.085
-78.582	334.534	0.125	-0.238
-77.567	490.986	0.133	-0.299
-76.553	90.680	-0.163	-0.180
-75.538	101.192	-0.034	0.039
-74.524	177.435	0.187	0.268
-73.509	-19.365	-0.121	0.074
-72.494	132.113	-0.073	-0.093
-71.480	112.398	0.084	0.101
-70.465	-105.619	0.244	0.055
-69.451	475.503	0.120	-0.267
-68.436	-200.000	-0.009	0.225
-67.422	193.403	0.110	-0.165
-66.407	-123.968	0.127	-0.020
-65.392	40.661	0.274	0.243
-64.378	-131.405	0.197	-0.026
-63.363	78.085	0.144	0.152
-62.349	170.297	0.050	0.071
-61.334	132.148	-0.828	-1.052
-60.319	702.792	0.217	0.565
-59.305	287.466	-0.370	-0.659
-58.290	800.000	0.256	1.009
-57.276	800.000	0.623	1.850
-56.261	-200.000	97.194	570.910
-55.246	626.461	1403.122	3493.072
-54.232	185.271	2621.189	3837.453
-53.217	114.473	2313.083	2778.796
-52.203	43.734	1923.152	1736.003
-51.188	37.449	1709.722	1495.146
-50.173	34.701	1664.929	1435.308
-49.159	51.741	1713.549	1607.475
-48.144	54.876	1730.852	1647.511
-47.130	37.236	1687.087	1473.503
-46.115	34.238	1672.559	1438.156
-45.100	34.043	1667.496	1432.280
-44.086	34.077	1665.070	1430.390
-43.071	34.112	1661.589	1427.606
-42.057	34.052	1659.907	1425.661
-41.042	34.100	1657.578	1423.958
-40.027	34.065	1655.262	1421.651
-39.013	34.128	1653.253	1420.343
-37.998	34.101	1651.804	1418.840
-36.984	34.036	1650.763	1417.404
-35.969	34.295	1648.618	1417.435
-34.954	34.300	1647.075	1416.091
-33.940	34.224	1645.441	1414.064
-32.925	34.260	1643.417	1412.537
-31.911	34.258	1641.669	1410.959
-30.896	34.153	1640.553	1409.170
-29.881	34.228	1638.334	1407.760
-28.867	34.140	1636.793	1405.734
-27.852	34.259	1635.394	1405.353
-26.838	34.190	1633.781	1403.404
-25.823	34.233	1632.396	1402.476
-24.809	34.303	1631.031	1401.761
-23.794	34.312	1629.875	1400.776
-22.779	34.245	1628.773	1399.282
-21.765	34.310	1626.699	1397.923
-20.750	34.177	1625.704	1396.037
-19.736	34.285	1623.334	1394.734
-18.721	34.360	1621.972	1394.059
-17.706	34.229	1620.856	1392.084
-16.692	34.145	1619.148	1389.950
-15.677	34.260	1617.283	1389.136
-14.663	34.279	1615.957	1388.076
-13.648	34.357	1614.568	1387.400
-12.633	34.192	1613.271	1385.027
-11.619	34.308	1611.440	1384.240
-10.604	34.214	1610.091	1382.345
-9.590	34.265	1608.628	1381.406
-8.575	34.277	1607.631	1380.580
-7.560	34.237	1606.247	1379.049
-6.546	34.363	1605.039	1378.866
-5.531	34.295	1604.058	1377.478
-4.517	34.250	1602.800	1376.016
-3.502	34.213	1601.914	1374.938
-2.487	34.327	1600.258	1374.286
-1.473	34.100	1588.971	1362.907
-0.458	31.265	1569.283	1325.877
0.556	26.568	1568.678	1291.656
1.571	24.168	1592.782	1293.980
2.586	23.432	1606.513	1299.621
3.600	20.803	1553.396	1237.881
4.615	13.010	1444.416	1099.221
5.629	6.158	1380.997	1007.098
6.644	5.192	1372.609	994.743
7.659	5.052	1370.932	992.545
8.673	4.909	1370.073	990.926
9.688	4.937	1368.330	989.759
10.702	4.869	1365.457	987.158
11.717	8.081	1372.017	1012.241
12.731	15.678	1385.604	1070.730
13.746	19.466	1391.089	1099.048
14.761	18.720	1388.260	1091.972
15.775	17.440	1385.792	1081.803
16.790	16.438	1382.988	1073.158
17.804	15.685	1380.305	1066.206
18.819	15.236	1378.817	1062.123
19.834	14.925	1377.623	1059.139
20.848	14.793	1376.405	1057.273
21.863	14.421	1375.470	1054.109
22.877	14.276	1374.390	1052.272
23.892	14.276	1373.251	1051.307
24.907	14.224	1372.225	1050.097
25.921	14.303	1371.414	1049.884
26.936	14.390	1370.451	1049.599
27.950	14.451	1369.613	1049.252
28.965	14.481	1368.450	1048.457
29.980	14.582	1367.031	1047.912
30.994	14.541	1366.616	1047.239
32.009	14.624	1365.634	1046.915
33.023	14.608	1364.192	1045.616
34.038	14.577	1361.754	1043.465
35.053	14.371	1361.421	1041.831
36.067	14.377	1360.360	1040.960
37.082	14.574	1359.466	1041.416
38.096	14.548	1358.183	1040.176
39.111	14.544	1357.226	1039.327
40.126	14.566	1356.428	1038.760
41.140	14.432	1355.328	1036.992
42.155	14.257	1354.566	1035.230
43.169	14.320	1354.527	1035.504
44.184	14.132	1354.754	1034.413
45.199	14.305	1353.895	1034.740
46.213	14.427	1353.313	1034.966
47.228	14.412	1352.668	1034.288
48.242	14.452	1351.608	1033.629
49.257	14.453	1349.803	1032.167
50.271	14.424	1348.782	1031.117
51.286	14.389	1347.270	1029.651
52.301	14.406	1345.777	1028.524
53.315	14.435	1344.794	1027.861
54.330	14.303	1343.938	1026.303
55.344	14.359	1342.254	1025.268
56.359	14.329	1341.021	1024.050
57.374	14.334	1340.232	1023.391
58.388	14.152	1339.901	1021.927
59.403	14.132	1339.254	1021.223
60.417	14.233	1338.385	1021.090
61.432	14.153	1337.799	1020.061
62.447	14.125	1336.754	1019.003
63.461	14.117	1335.797	1018.133
64.476	14.148	1334.481	1017.229
65.490	14.114	1333.470	1016.159
66.505	14.139	1331.802	1014.955
67.520	14.144	1330.919	1014.220
68.534	14.225	1329.435	1013.495
69.549	14.106	1328.567	1012.016
70.563	14.123	1327.736	1011.402
71.578	14.140	1326.011	1010.098
72.593	14.019	1325.464	1008.860
73.607	13.959	1325.058	1008.095
74.622	14.035	1323.897	1007.583
75.636	14.016	1323.568	1007.127
76.651	14.100	1322.844	1006.996
77.666	14.030	1322.038	1005.875
78.680	13.987	1321.956	1005.459
79.695	14.055	1321.107	1005.136
80.709	14.240	1319.811	1005.177
81.724	14.134	1319.332	1004.085
82.739	14.178	1318.447	1003.589
83.753	14.297	1317.743	1003.681
84.768	14.336	1316.981	1003.247
85.782	14.487	1315.543	1002.973
86.797	14.475	1313.988	1001.624
87.812	14.360	1313.010	1000.100
88.826	14.325	1312.305	999.264
89.841	14.428	1310.805	998.651
90.855	14.480	1309.718	998.046
91.870	14.535	1308.383	997.269
92.884	14.426	1308.118	996.328
93.899	14.511	1307.047	995.930
94.914	14.531	1306.587	995.614
95.928	14.504	1305.879	994.823
96.943	14.567	1304.497	994.061
97.957	14.462	1303.913	992.903
98.972	14.419	1302.986	991.849
99.987	14.467	1301.757	991.110
101.001	14.480	1301.046	990.560
102.016	14.488	1299.934	989.672
103.030	14.531	1298.776	988.958
104.045	14.532	1298.007	988.292
105.060	14.398	1297.111	986.728
106.074	14.266	1295.453	984.599
107.089	14.245	1293.825	983.150
108.103	14.215	1292.390	981.799
109.118	14.186	1291.529	980.886
110.133	14.187	1290.454	979.986
111.147	14.148	1288.654	978.306
112.162	14.172	1287.567	977.535
113.176	14.315	1286.337	977.356
114.191	14.312	1285.301	976.464
115.206	14.211	1284.631	975.278
116.220	14.332	1282.825	974.525
117.235	14.279	1281.887	973.418
118.249	14.249	1281.250	972.671
119.264	14.325	1279.839	971.960
120.279	14.209	1278.873	970.460
121.293	14.184	1277.741	969.372
122.308	14.149	1276.854	968.407
123.322	14.207	1275.048	967.290
124.337	14.144	1274.324	966.288
125.352	14.208	1272.774	965.400
126.366	14.104	1272.484	964.494
127.381	14.181	1271.160	963.847
128.395	14.174	1270.183	962.985
129.410	14.309	1269.067	962.833
130.424	14.250	1268.625	962.069
131.439	14.310	1267.189	961.243
132.454	14.316	1266.457	960.634
133.468	14.355	1265.353	959.938
134.483	14.433	1264.514	959.669
135.497	14.229	1264.068	958.070
136.512	14.333	1262.808	957.625
137.527	14.265	1261.671	956.289
138.541	14.412	1260.169	955.913
139.556	14.469	1258.651	955.003
140.570	14.455	1257.754	954.153
141.585	14.593	1256.311	953.768
142.600	14.499	1255.486	952.520
143.614	14.595	1254.372	952.134
144.629	14.568	1253.704	951.388
145.643	14.556	1252.288	950.162
146.658	14.471	1251.003	948.621
147.673	14.479	1249.460	947.411
148.687	14.380	1248.088	945.725
149.702	14.431	1246.839	944.983
150.716	14.344	1245.718	943.561
151.731	14.307	1244.706	942.502
152.746	14.386	1243.536	941.977
153.760	14.493	1241.925	941.277
154.775	14.369	1241.489	940.164
155.789	14.470	1240.258	939.721
156.804	14.590	1238.860	939.252
157.819	14.580	1238.226	938.632
158.833	14.624	1237.514	938.258
159.848	14.672	1236.136	937.401
160.862	14.658	1235.329	936.628
161.877	14.567	1234.237	935.203
162.892	14.492	1233.209	933.921
163.906	14.397	1232.703	932.927
164.921	14.511	1231.579	932.627
165.935	14.553	1230.434	931.912
166.950	14.609	1229.747	931.626
167.964	14.620	1229.042	931.066
168.979	14.574	1228.723	930.487
169.994	14.634	1227.991	930.186
171.008	14.626	1226.892	929.229
172.023	14.618	1226.573	928.856
173.037	14.718	1225.558	928.565
174.052	14.762	1224.671	928.056
175.067	14.578	1223.049	925.723
176.081	14.597	1222.464	925.302
177.096	14.626	1221.511	924.662
178.110	14.576	1220.369	923.437
179.125	14.553	1219.443	922.530
180.140	14.579	1218.453	921.839
181.154	14.635	1217.278	921.179
182.169	14.655	1215.956	920.209
183.183	14.728	1214.622	919.519
184.198	14.874	1213.454	919.354
185.213	14.847	1212.176	918.157
186.227	14.842	1211.543	917.570
187.242	14.861	1210.692	916.946
188.256	14.889	1209.422	916.057
189.271	14.841	1208.367	914.913
190.286	14.840	1207.135	913.897
191.300	14.544	1206.503	911.717
192.315	14.538	1205.810	911.083
193.329	14.561	1204.992	910.507
194.344	14.595	1204.466	910.216
195.359	14.637	1203.888	909.926
196.373	14.777	1203.504	910.323
197.388	14.858	1202.847	910.186
198.402	15.107	1202.210	910.976
199.417	14.957	1201.988	909.909
200.432	15.159	1200.626	909.896
201.446	15.096	1200.139	909.105
202.461	15.081	1199.498	908.455
203.475	15.124	1198.078	907.534
204.490	15.137	1196.616	906.419
205.504	15.088	1195.251	905.037
206.519	15.055	1194.102	903.912
207.534	15.285	1192.265	903.681
208.548	15.088	1192.023	902.355
209.563	15.125	1191.185	901.841
210.577	14.989	1190.562	900.556
211.592	15.161	1189.672	900.726
212.607	15.100	1188.914	899.749
213.621	15.277	1187.877	899.835
214.636	15.187	1186.857	898.500
215.650	15.150	1185.855	897.462
216.665	15.238	1185.182	897.345
217.680	15.158	1184.611	896.405
218.694	15.294	1183.609	896.296
219.709	15.301	1182.667	895.539
220.723	15.364	1181.614	895.000
221.738	15.295	1181.318	894.326
222.753	15.353	1180.187	893.699
223.767	15.322	1179.735	893.112
224.782	15.360	1179.258	892.875
225.796	15.432	1178.263	892.426
226.811	15.427	1177.960	892.089
227.826	15.339	1177.101	890.893
228.840	15.352	1176.413	890.366
229.855	15.278	1175.516	889.213
230.869	15.486	1174.446	889.430
231.884	15.293	1174.037	888.015
232.899	15.298	1172.906	887.108
233.913	15.258	1172.641	886.617
234.928	15.372	1171.547	886.318
235.942	15.245	1170.756	884.969
236.957	15.318	1170.012	884.713
237.972	15.312	1169.351	884.102
238.986	15.295	1168.832	883.542
240.001	15.380	1167.873	883.188
241.015	15.363	1167.028	882.381
242.030	15.360	1166.284	881.728
243.045	15.470	1165.231	881.426
244.059	15.527	1164.278	880.929
245.074	15.453	1164.087	880.318
246.088	15.606	1162.920	880.160
247.103	15.647	1162.106	879.678
248.117	15.527	1162.037	878.923
249.132	15.699	1161.129	879.058
250.147	15.840	1160.325	879.104
251.161	15.908	1159.479	878.741
252.176	15.861	1158.986	878.045
253.190	16.020	1157.957	878.016
254.205	15.989	1157.802	877.660
255.220	15.970	1157.189	877.020
256.234	15.983	1156.390	876.405
257.249	15.995	1155.867	875.991
258.263	15.959	1155.376	875.358
259.278	16.046	1154.620	875.158
260.293	16.022	1154.262	874.682
261.307	16.096	1153.441	874.368
262.322	16.119	1152.423	873.637
263.336	16.110	1152.302	873.421
264.351	16.158	1151.330	872.858
265.366	16.140	1150.677	872.194
266.380	16.111	1149.912	871.385
267.395	16.127	1149.062	870.747
268.409	16.078	1148.330	869.859
269.424	16.048	1147.978	869.364
270.439	16.026	1147.437	868.762
271.453	16.111	1146.344	868.294
272.468	16.105	1145.137	867.273
273.482	16.121	1144.433	866.745
274.497	16.062	1144.172	866.170
275.512	16.000	1143.437	865.219
276.526	16.049	1142.540	864.714
277.541	16.236	1141.554	864.848
278.555	16.181	1141.294	864.294
279.570	16.175	1140.608	863.665
280.585	16.347	1139.607	863.714
281.599	16.281	1139.081	862.898
282.614	16.243	1137.842	861.692
283.628	16.178	1136.923	860.589
284.643	16.229	1135.994	860.068
285.657	16.295	1135.165	859.699
286.672	16.297	1133.731	858.546
287.687	16.356	1133.088	858.287
288.701	16.287	1132.321	857.277
289.716	16.384	1131.533	857.098
290.730	16.346	1131.143	856.535
291.745	16.352	1130.705	856.156
292.760	16.470	1129.830	856.017
293.774	16.537	1129.059	855.698
294.789	16.503	1128.448	854.982
295.803	16.573	1127.798	854.769
296.818	16.429	1127.479	853.727
297.833	16.395	1126.267	852.561
298.847	16.410	1126.000	852.356
299.862	16.476	1125.002	851.862
300.876	16.526	1124.134	851.379
301.891	16.593	1123.518	851.177
302.906	16.575	1122.979	850.601
303.920	16.636	1122.083	850.153
304.935	16.734	1121.593	850.200
305.949	16.773	1120.678	849.623
306.964	16.804	1120.121	849.284
307.979	16.774	1119.310	848.445
308.993	16.590	1118.900	847.138
310.008	16.737	1117.896	847.037
311.022	16.799	1116.987	846.581
312.037	16.771	1116.341	845.878
313.052	16.636	1115.421	844.431
314.066	16.707	1114.511	844.021
315.081	16.569	1113.646	842.607
316.095	16.610	1113.348	842.511
317.110	16.752	1112.449	842.462
318.125	16.652	1111.281	841.005
319.139	16.652	1111.058	840.762
320.154	16.624	1110.317	839.989
321.168	16.756	1109.345	839.834
322.183	16.679	1109.019	839.130
323.197	16.611	1108.814	838.563
324.212	16.623	1108.140	838.038
325.227	16.825	1107.108	838.184
326.241	16.811	1106.787	837.795
327.256	16.669	1105.976	836.408
328.270	16.791	1104.832	836.072
329.285	16.819	1104.073	835.561
330.300	16.774	1103.260	834.647
331.314	16.726	1102.144	833.495
332.329	16.719	1101.015	832.535
333.343	16.798	1100.423	832.399
334.358	16.877	1099.523	832.033
335.373	16.933	1099.009	831.847
336.387	16.944	1097.830	830.935
337.402	16.891	1097.390	830.268
338.416	16.996	1096.696	830.182
339.431	17.042	1095.899	829.732
340.446	17.070	1095.369	829.391
341.460	17.095	1094.942	829.119
342.475	17.035	1094.269	828.243
343.489	17.188	1092.859	827.850
344.504	17.228	1092.032	827.342
345.519	17.209	1091.157	826.515
346.533	17.193	1090.631	825.965
347.548	17.441	1089.633	826.342
348.562	17.367	1088.677	825.184
349.577	17.174	1088.365	823.937
350.592	17.056	1087.753	822.827
351.606	17.117	1086.734	822.281
352.621	17.154	1085.792	821.676
353.635	17.048	1085.316	820.731
354.650	17.180	1084.718	820.841
355.665	17.228	1083.667	820.207
356.679	17.221	1083.053	819.634
357.694	17.185	1082.782	819.183
358.708	17.365	1081.905	819.314
359.723	17.287	1081.173	818.313
360.738	17.445	1080.400	818.415
361.752	17.389	1080.184	817.910
362.767	17.315	1079.633	817.066
363.781	17.442	1078.914	817.057
364.796	17.368	1078.873	816.598
365.810	17.467	1077.969	816.317
366.825	17.516	1077.373	816.032
367.840	17.634	1076.579	815.919
368.854	17.575	1076.266	815.329
369.869	17.729	1075.474	815.391
370.883	17.537	1074.498	813.662
371.898	17.405	1073.909	812.516
372.913	17.515	1073.284	812.496
373.927	17.731	1072.794	813.084
374.942	17.798	1072.184	812.867
375.956	17.634	1071.837	811.751
376.971	17.622	1071.026	811.008
377.986	17.705	1070.548	810.969
379.000	17.762	1070.378	811.041
380.015	17.823	1069.479	810.578
381.029	17.808	1069.242	810.253
382.044	17.752	1068.465	809.327
383.059	17.736	1067.830	808.697
384.073	17.769	1066.801	808.004
385.088	17.770	1065.517	806.964
386.102	17.892	1065.069	807.130
387.117	17.828	1063.644	805.677
388.132	17.681	1063.219	804.589
389.146	17.737	1062.077	803.918
390.161	17.668	1061.377	802.996
391.175	17.718	1060.714	802.659
392.190	17.798	1060.182	802.558
393.205	17.891	1059.393	802.328
394.219	17.830	1058.642	801.401
395.234	17.909	1057.730	801.011
396.248	17.854	1056.791	799.973
397.263	17.732	1055.689	798.497
398.278	17.804	1054.913	798.177
399.292	17.812	1053.980	797.434
400.307	17.853	1053.821	797.438
401.321	17.775	1052.781	796.216
402.336	17.786	1052.628	796.079
403.350	17.853	1051.541	795.501
404.365	17.812	1051.102	794.905
405.380	17.882	1050.356	794.595
406.394	17.963	1049.358	794.148
407.409	18.053	1048.869	794.129
408.423	18.091	1047.976	793.555
409.438	18.114	1047.571	793.288
410.453	18.165	1046.876	792.925
411.467	18.130	1045.933	791.978
412.482	18.197	1045.613	791.976
413.496	18.267	1044.925	791.710
414.511	18.422	1044.077	791.713
415.526	18.411	1043.917	791.474
416.540	18.348	1043.462	790.767
417.555	18.446	1043.041	790.828
418.569	18.363	1042.395	789.888
419.584	18.337	1041.939	789.353
420.599	18.393	1041.367	789.105
421.613	147.574	1400.780	1789.892
422.628	134.929	1453.142	1790.009
