DTS Sentinel unit serial number:	SN413079Multiplexer serial number:	ORYXHardware model number:	OX4-SRSoftware version number:	ORYX F/W v4.00 Oryx Data Collector v3.7.2.0data status	okinstallation	princeton_trtdifferential loss correction	single-endedforward channel	channel 2reverse channel	N/Adate	2019/09/15time	12:47:35forward acquisition time	60.00reverse acquisition time	0.00gamma	496.2192k internal	0.2311k external	0.2311temperature offset calibration	1.0011default loss term (dB/km)	0.3790temperature slope calibration	1.0000multiplexer offset coefficient	1.0000multiplexer slope coefficient	1.0000fibre end	0.00T internal ref (°C)	35.89T ext. ref 1 (°C)	5.04T ext. ref 2 (°C)	33.76length (m)	temperature (°C)	Stokes	anti-Stokes-747.200	224.399	-0.167	-0.275
-746.185	15.965	-0.185	0.148
-745.171	1.349	-0.227	-0.165
-744.156	107.541	-0.076	0.091
-743.142	-5.867	-0.046	-0.032
-742.127	-193.707	-0.130	-0.001
-741.112	-74.616	0.272	-0.099
-740.098	-200.000	0.206	-0.001
-739.083	-57.165	0.162	-0.073
-738.069	-200.000	0.016	0.159
-737.054	-22.270	-0.171	-0.105
-736.039	-52.789	-0.448	0.210
-735.025	-200.000	0.348	0.002
-734.010	298.735	-0.172	-0.322
-732.996	-180.126	-0.280	-0.006
-731.981	-88.794	-0.398	-0.120
-730.966	-200.000	-0.043	-0.417
-729.952	-200.000	0.059	-0.291
-728.937	55.252	-0.254	0.249
-727.923	185.157	0.147	0.222
-726.908	88.074	-0.341	-0.383
-725.894	302.967	0.032	0.061
-724.879	277.270	0.079	-0.142
-723.864	-15.282	-0.156	-0.101
-722.850	51.452	0.339	0.326
-721.835	616.612	-0.117	-0.298
-720.821	-124.647	-0.125	0.020
-719.806	-200.000	-0.040	0.277
-718.791	-155.032	0.104	0.007
-717.777	-153.251	0.362	0.026
-716.762	16.348	-0.352	-0.282
-715.748	-200.000	0.043	-0.196
-714.733	-105.248	-0.091	0.021
-713.718	-19.960	-0.131	-0.082
-712.704	4.123	-0.101	-0.075
-711.689	513.314	-0.055	0.131
-710.675	654.077	0.118	-0.306
-709.660	122.086	0.054	0.068
-708.645	174.185	-0.209	0.307
-707.631	-62.190	-0.212	0.089
-706.616	-12.446	-0.071	0.047
-705.602	-135.150	0.148	-0.018
-704.587	54.666	0.139	0.136
-703.572	-109.426	-0.267	-0.057
-702.558	-200.000	-0.019	-0.193
-701.543	159.984	-0.116	-0.164
-700.529	-95.777	-0.116	-0.031
-699.514	94.405	0.256	-0.295
-698.499	783.494	0.065	0.182
-697.485	752.983	0.024	0.066
-696.470	109.165	-0.084	-0.102
-695.456	195.444	0.197	-0.303
-694.441	1.838	-0.272	0.199
-693.426	210.621	0.216	0.344
-692.412	-69.097	-0.300	0.117
-691.397	-23.696	-0.419	-0.254
-690.383	-65.892	0.327	-0.132
-689.368	-97.263	-0.262	0.069
-688.354	-200.000	0.030	-0.241
-687.339	800.000	-0.047	-0.154
-686.324	24.314	0.242	-0.202
-685.310	60.128	-0.121	0.121
-684.295	-156.803	-0.151	-0.009
-683.281	800.000	0.022	-0.081
-682.266	-101.665	-0.085	0.021
-681.251	-92.651	-0.106	-0.030
-680.237	800.000	-0.094	-0.384
-679.222	-92.313	0.141	0.040
-678.208	191.058	-0.119	-0.182
-677.193	202.698	0.061	0.096
-676.178	670.003	0.072	-0.188
-675.164	183.914	-0.050	-0.075
-674.149	-134.447	0.283	0.035
-673.135	85.500	0.291	0.323
-672.120	58.205	0.137	-0.136
-671.105	107.889	-0.149	-0.180
-670.091	-78.121	0.126	0.044
-669.076	-63.999	0.132	-0.054
-668.062	-200.000	-0.013	0.165
-667.047	-99.102	-0.362	-0.093
-666.032	161.310	-0.085	-0.120
-665.018	800.000	-0.063	0.203
-664.003	-4.873	-0.359	0.250
-662.989	201.590	0.194	-0.302
-661.974	176.444	0.171	-0.251
-660.959	-88.587	-0.054	-0.016
-659.945	-116.354	-0.459	-0.086
-658.930	143.001	0.176	0.237
-657.916	370.961	0.058	0.118
-656.901	-127.094	-0.299	0.044
-655.886	-15.656	0.186	0.120
-654.872	-178.738	0.125	0.003
-653.857	19.121	0.140	-0.114
-652.843	-200.000	-0.042	0.323
-651.828	186.510	-0.189	-0.284
-650.814	547.462	-0.121	0.294
-649.799	25.704	-0.074	0.062
-648.784	-200.000	-0.009	-0.180
-647.770	275.171	-0.082	-0.146
-646.755	162.819	-0.093	-0.132
-645.741	-9.602	0.184	-0.124
-644.726	-159.908	-0.302	0.017
-643.711	129.221	0.247	0.318
-642.697	-27.919	-0.249	-0.146
-641.682	282.252	-0.095	0.172
-640.668	143.145	-0.114	-0.153
-639.653	536.253	0.066	-0.158
-638.638	-48.589	-0.199	-0.097
-637.624	164.452	-0.128	-0.182
-636.609	800.000	-0.054	-0.228
-635.595	92.630	0.177	-0.202
-634.580	-51.470	0.145	-0.069
-633.565	-88.547	-0.139	0.042
-632.551	-99.128	0.256	-0.065
-631.536	-200.000	0.003	0.302
-630.522	-139.869	-0.441	-0.047
-629.507	-12.821	0.107	-0.070
-628.492	800.000	-0.046	0.147
-627.478	-152.168	-0.161	-0.012
-626.463	267.236	0.107	-0.189
-625.449	-95.574	-0.276	0.075
-624.434	-19.216	0.151	-0.095
-623.419	-113.646	-0.108	-0.021
-622.405	19.346	0.115	0.093
-621.390	140.630	0.150	0.200
-620.376	705.222	-0.021	-0.057
-619.361	48.272	0.077	-0.073
-618.346	-54.901	0.115	0.052
-617.332	-12.593	-0.175	-0.115
-616.317	-200.000	0.034	-0.238
-615.303	-200.000	-0.040	-0.245
-614.288	-200.000	0.040	-0.230
-613.273	-24.446	0.310	-0.186
-612.259	-194.862	0.142	0.001
-611.244	237.616	-0.168	-0.282
-610.230	-200.000	0.050	-0.407
-609.215	17.886	0.185	-0.148
-608.201	34.178	0.087	0.076
-607.186	197.546	0.174	-0.269
-606.171	-23.795	-0.303	0.183
-605.157	800.000	-0.021	-0.090
-604.142	399.338	0.054	0.114
-603.128	192.421	0.075	0.114
-602.113	-74.505	0.410	-0.149
-601.098	-162.081	-0.163	0.008
-600.084	800.000	-0.039	0.111
-599.069	-117.300	0.116	0.021
-598.055	-65.175	-0.411	-0.167
-597.040	64.433	-0.198	0.201
-596.025	180.721	-0.177	-0.263
-595.011	800.000	0.026	-0.078
-593.996	54.478	0.134	0.130
-592.982	83.840	0.187	-0.206
-591.967	-200.000	0.024	0.277
-590.952	-2.547	-0.038	-0.027
-589.938	800.000	-0.091	-0.291
-588.923	-200.000	-0.033	-0.164
-587.909	-200.000	-0.010	-0.183
-586.894	-42.181	-0.203	0.105
-585.879	-42.618	-0.123	-0.063
-584.865	-191.505	-0.214	0.002
-583.850	42.110	0.157	-0.144
-582.836	26.158	-0.377	-0.317
-581.821	130.935	-0.048	0.062
-580.806	19.191	-0.348	-0.282
-579.792	20.151	-0.279	-0.227
-578.777	-13.863	0.100	0.065
-577.763	57.054	0.141	-0.138
-576.748	13.321	-0.045	-0.035
-575.733	113.970	-0.237	0.291
-574.719	-123.532	-0.142	0.023
-573.704	224.818	-0.089	0.145
-572.690	-200.000	0.108	-0.484
-571.675	495.194	-0.023	-0.053
-570.661	-200.000	0.007	0.161
-569.646	96.853	-0.138	0.159
-568.631	-200.000	0.041	-0.237
-567.617	-66.863	0.191	0.076
-566.602	-148.251	0.217	0.018
-565.588	-147.323	-0.110	-0.009
-564.573	-112.172	-0.226	0.046
-563.558	-149.996	0.116	-0.009
-562.544	-99.212	-0.158	0.040
-561.529	-48.197	0.204	-0.099
-560.515	800.000	0.023	-0.086
-559.500	9.003	0.386	-0.294
-558.485	800.000	-0.028	-0.101
-557.471	-46.052	0.334	-0.166
-556.456	207.721	0.089	0.140
-555.442	-73.236	-0.138	-0.051
-554.427	173.450	0.139	-0.202
-553.412	-36.141	0.269	0.146
-552.398	-200.000	-0.021	0.296
-551.383	-77.392	-0.140	0.049
-550.369	-91.099	0.265	0.077
-549.354	-131.428	-0.254	-0.034
-548.339	300.727	0.101	-0.188
-547.325	45.726	0.099	-0.092
-546.310	114.061	-0.050	0.062
-545.296	49.685	-0.194	-0.185
-544.281	-56.489	0.091	-0.040
-543.266	-152.311	-0.240	0.017
-542.252	-2.393	0.066	0.046
-541.237	303.990	0.088	0.164
-540.223	-200.000	0.002	0.514
-539.208	389.575	-0.220	-0.459
-538.193	-68.151	0.350	-0.137
-537.179	-11.063	-0.275	-0.183
-536.164	230.106	-0.141	-0.232
-535.150	-102.308	0.263	-0.063
-534.135	296.434	0.201	0.372
-533.121	11.154	0.061	-0.047
-532.106	-200.000	0.008	0.454
-531.091	-200.000	0.073	0.343
-530.077	42.525	0.083	0.076
-529.062	435.137	-0.119	-0.261
-528.048	113.812	0.161	0.197
-527.033	188.486	0.109	-0.165
-526.018	-200.000	0.009	0.083
-525.004	800.000	0.049	-0.165
-523.989	-160.841	0.228	0.012
-522.975	183.178	0.170	0.253
-521.960	322.730	0.034	-0.066
-520.945	774.787	-0.077	-0.212
-519.931	-50.097	-0.210	-0.100
-518.916	150.128	0.065	-0.089
-517.902	-161.889	0.051	-0.003
-516.887	-45.416	-0.039	0.020
-515.872	-200.000	-0.019	0.156
-514.858	-104.446	-0.145	-0.034
-513.843	44.802	-0.179	-0.166
-512.829	-29.637	0.150	-0.086
-511.814	173.177	0.197	0.286
-510.799	-200.000	0.046	0.289
-509.785	-200.000	0.040	-0.516
-508.770	458.313	-0.098	-0.219
-507.756	213.225	-0.116	-0.184
-506.741	-71.404	-0.206	-0.078
-505.726	134.137	-0.068	-0.088
-504.712	-17.272	-0.097	0.061
-503.697	-200.000	0.306	0.001
-502.683	-200.000	0.016	-0.300
-501.668	177.316	-0.090	0.132
-500.653	696.998	0.219	0.578
-499.639	-189.587	-0.376	-0.004
-498.624	13.840	-0.188	0.147
-497.610	800.000	-0.073	0.296
-496.595	403.245	0.116	-0.245
-495.581	-26.625	-0.161	-0.095
-494.566	800.000	0.042	0.173
-493.551	-200.000	0.034	0.253
-492.537	-25.783	-0.274	-0.163
-491.522	401.405	0.062	0.131
-490.508	1.403	0.114	-0.082
-489.493	-67.123	0.483	0.191
-488.478	127.519	-0.038	-0.048
-487.464	-152.162	0.266	-0.019
-486.449	-200.000	0.021	-0.420
-485.435	-200.000	-0.045	-0.421
-484.420	273.585	0.125	-0.222
-483.405	800.000	0.147	0.447
-482.391	203.847	-0.105	0.163
-481.376	800.000	0.069	-0.229
-480.362	-41.084	-0.026	-0.013
-479.347	-188.795	0.356	-0.004
-478.332	-177.680	0.357	-0.009
-477.318	603.625	-0.098	-0.245
-476.303	-29.514	0.174	0.100
-475.289	-200.000	-0.006	-0.127
-474.274	61.524	0.151	-0.151
-473.259	-153.243	-0.079	-0.006
-472.245	-118.720	0.247	0.044
-471.230	-47.447	0.137	0.067
-470.216	23.886	0.205	0.170
-469.201	-119.075	-0.020	0.004
-468.186	2.290	-0.182	0.132
-467.172	800.000	0.010	0.036
-466.157	800.000	-0.084	0.272
-465.143	-134.874	-0.101	0.012
-464.128	-74.223	-0.376	-0.137
-463.113	-200.000	0.010	-0.245
-462.099	-66.285	-0.114	0.045
-461.084	261.173	-0.075	-0.130
-460.070	-139.992	0.166	-0.018
-459.055	105.834	-0.048	-0.057
-458.040	-200.000	-0.000	0.110
-457.026	791.265	-0.063	-0.174
-456.011	272.687	0.259	0.458
-454.997	137.809	0.156	-0.205
-453.982	-200.000	-0.009	-0.123
-452.968	572.133	0.173	-0.424
-451.953	-124.939	0.369	-0.057
-450.938	-30.282	-0.038	0.022
-449.924	-126.461	-0.025	0.004
-448.909	-33.885	0.068	-0.037
-447.895	-22.422	-0.143	-0.087
-446.880	-200.000	0.029	-0.201
-445.865	355.424	-0.175	-0.350
-444.851	26.096	0.173	-0.145
-443.836	12.628	0.197	-0.152
-442.822	-29.271	-0.225	0.129
-441.807	-55.452	-0.082	-0.037
-440.792	-153.495	0.463	0.032
-439.778	1.204	0.226	0.163
-438.763	-111.197	0.342	-0.070
-437.749	-88.722	-0.239	-0.071
-436.734	800.000	-0.018	-0.056
-435.719	6.390	0.299	-0.223
-434.705	-145.707	0.159	0.014
-433.690	-22.648	-0.363	0.220
-432.676	582.023	-0.140	0.345
-431.661	29.133	0.065	-0.055
-430.646	594.346	0.148	0.367
-429.632	217.219	0.083	0.133
-428.617	-155.823	0.170	-0.011
-427.603	15.036	-0.097	0.077
-426.588	-200.000	-0.015	0.236
-425.573	-69.678	0.205	-0.079
-424.559	384.692	0.040	-0.083
-423.544	-12.532	-0.094	-0.061
-422.530	-48.133	-0.266	0.129
-421.515	-124.684	0.089	-0.014
-420.500	800.000	-0.036	0.155
-419.486	76.762	0.204	-0.217
-418.471	125.932	-0.046	0.058
-417.457	-31.354	0.143	-0.081
-416.442	126.676	-0.103	0.130
-415.428	599.637	0.046	-0.114
-414.413	-62.360	0.034	0.014
-413.398	-23.038	-0.235	0.142
-412.384	800.000	-0.058	0.221
-411.369	169.987	0.161	-0.231
-410.355	-12.724	0.172	-0.112
-409.340	-200.000	-0.003	-0.231
-408.325	32.914	-0.159	0.138
-407.311	-13.357	-0.202	-0.132
-406.296	-60.630	0.359	-0.153
-405.282	-21.831	-0.101	0.061
-404.267	25.958	-0.269	0.225
-403.252	12.395	0.271	0.209
-402.238	105.695	-0.312	-0.370
-401.223	217.004	-0.118	0.188
-400.209	141.333	0.090	0.119
-399.194	666.401	0.097	0.251
-398.179	800.000	0.091	-0.253
-397.165	-147.956	0.140	-0.012
-396.150	-96.156	-0.149	-0.040
-395.136	-166.977	-0.013	-0.001
-394.121	-200.000	-0.075	-0.353
-393.106	-3.914	-0.203	-0.141
-392.092	-48.897	-0.204	-0.098
-391.077	-200.000	0.055	0.366
-390.063	-118.008	0.073	-0.013
-389.048	725.188	-0.046	-0.122
-388.033	32.956	0.285	-0.247
-387.019	800.000	0.116	0.350
-386.004	173.773	0.091	-0.131
-384.990	-200.000	0.020	0.463
-383.975	125.096	-0.053	0.067
-382.960	19.159	-0.169	0.136
-381.946	-200.000	0.010	0.432
-380.931	23.215	0.369	0.303
-379.917	-82.480	-0.180	-0.059
-378.902	-124.574	-0.228	0.035
-377.888	0.712	0.209	-0.150
-376.873	-200.000	-0.022	-0.120
-375.858	-200.000	0.004	0.222
-374.844	170.655	0.026	0.037
-373.829	-43.346	0.131	0.066
-372.815	61.402	-0.002	0.002
-371.800	-77.582	-0.090	-0.031
-370.785	23.385	0.048	0.040
-369.771	260.186	-0.080	0.138
-368.756	-200.000	-0.058	-0.275
-367.742	183.570	0.176	-0.260
-366.727	-99.626	-0.234	-0.059
-365.712	800.000	-0.081	0.259
-364.698	-200.000	-0.368	0.002
-363.683	6.599	0.165	-0.122
-362.669	90.287	0.129	0.144
-361.654	227.687	-0.158	0.257
-360.639	-156.792	-0.192	-0.012
-359.625	-200.000	0.003	-0.089
-358.610	-166.213	0.191	0.008
-357.596	800.000	-0.068	-0.216
-356.581	800.000	0.024	-0.072
-355.566	-177.494	-0.022	0.001
-354.552	210.276	0.074	-0.115
-353.537	-58.299	0.028	-0.012
-352.523	-200.000	0.019	-0.110
-351.508	394.538	-0.067	0.139
-350.493	220.809	0.098	0.158
-349.479	-141.798	0.299	-0.030
-348.464	-84.989	0.137	0.043
-347.450	-18.000	0.168	-0.105
-346.435	-92.188	-0.186	-0.052
-345.420	-11.795	-0.151	-0.099
-344.406	757.032	-0.016	-0.044
-343.391	800.000	-0.096	-0.306
-342.377	-180.079	-0.312	0.007
-341.362	-161.588	0.172	-0.009
-340.348	-160.879	0.379	-0.020
-339.333	43.222	0.103	0.094
-338.318	-95.013	0.194	-0.052
-337.304	22.747	0.080	-0.065
-336.289	-26.609	-0.270	0.158
-335.275	-200.000	0.083	0.396
-334.260	-42.625	0.161	0.082
-333.245	-77.268	-0.184	0.064
-332.231	-43.912	0.139	0.070
-331.216	11.263	-0.163	0.125
-330.202	8.862	-0.274	-0.206
-329.187	-200.000	0.018	0.196
-328.172	396.848	0.035	-0.074
-327.158	800.000	0.101	0.338
-326.143	232.134	-0.128	0.210
-325.129	-102.740	-0.367	0.087
-324.114	-46.674	-0.126	-0.062
-323.099	-200.000	-0.037	-0.351
-322.085	233.785	0.166	0.273
-321.070	302.523	0.056	0.103
-320.056	-78.240	-0.189	0.065
-319.041	-64.193	-0.143	0.058
-318.026	800.000	0.008	-0.032
-317.012	800.000	0.123	0.438
-315.997	-106.222	0.243	-0.054
-314.983	524.824	0.053	0.125
-313.968	-141.897	-0.063	-0.006
-312.953	424.381	-0.092	-0.197
-311.939	427.194	-0.100	0.216
-310.924	110.821	0.104	0.125
-309.910	287.226	-0.088	-0.159
-308.895	377.836	-0.041	-0.083
-307.880	-200.000	0.086	0.519
-306.866	32.585	-0.066	0.057
-305.851	-200.000	-0.002	-0.054
-304.837	86.200	0.202	-0.222
-303.822	-88.538	-0.175	0.052
-302.807	224.284	0.204	-0.328
-301.793	298.443	0.027	0.050
-300.778	800.000	0.013	0.047
-299.764	672.390	0.076	-0.196
-298.749	62.832	-0.131	-0.131
-297.735	-73.644	-0.199	0.072
-296.720	171.563	0.076	-0.109
-295.705	-6.377	0.359	0.244
-294.691	335.259	-0.078	-0.150
-293.676	516.589	-0.094	-0.219
-292.662	-200.000	-0.012	0.205
-291.647	-140.299	0.156	0.016
-290.632	-17.839	0.128	-0.080
-289.618	-200.000	0.002	0.131
-288.603	12.440	-0.058	-0.044
-287.589	-35.278	-0.182	0.099
-286.574	177.433	0.146	-0.212
-285.559	62.210	-0.197	-0.196
-284.545	-27.374	0.051	-0.030
-283.530	-101.852	0.287	0.069
-282.516	58.665	-0.225	-0.220
-281.501	755.200	-0.116	-0.313
-280.486	-188.768	-0.261	-0.003
-279.472	48.509	-0.215	0.201
-278.457	-200.000	-0.046	0.235
-277.443	-178.296	-0.156	0.004
-276.428	734.269	-0.077	-0.206
-275.413	-190.210	0.156	-0.002
-274.399	97.996	-0.261	0.300
-273.384	55.875	0.062	0.060
-272.370	-200.000	-0.051	-0.372
-271.355	-13.550	-0.207	-0.134
-270.340	43.802	0.082	0.074
-269.326	476.187	-0.082	0.184
-268.311	-13.866	0.101	-0.065
-267.297	187.694	-0.113	-0.169
-266.282	429.010	-0.068	-0.146
-265.267	82.795	0.208	0.225
-264.253	-63.457	0.155	-0.063
-263.238	-64.564	-0.281	0.114
-262.224	427.022	0.173	0.372
-261.209	-58.496	0.095	-0.041
-260.195	-200.000	-0.032	0.513
-259.180	414.055	-0.054	0.114
-258.165	-64.703	0.249	-0.100
-257.151	-117.034	-0.309	0.056
-256.136	209.165	-0.215	0.335
-255.122	-200.000	-0.026	-0.133
-254.107	203.567	0.058	0.089
-253.092	61.680	0.101	0.100
-252.078	-101.562	0.205	-0.050
-251.063	292.355	-0.149	0.270
-250.049	800.000	-0.038	-0.141
-249.034	206.805	0.195	0.302
-248.019	-176.853	-0.197	-0.005
-247.005	602.953	-0.050	-0.125
-245.990	686.421	-0.029	-0.075
-244.976	4.481	0.317	0.231
-243.961	-158.991	-0.388	0.022
-242.946	79.729	-0.091	0.097
-241.932	-200.000	0.010	0.057
-240.917	419.167	-0.059	-0.126
-239.903	72.178	-0.067	0.069
-238.888	105.641	0.153	-0.180
-237.873	-200.000	0.011	0.047
-236.859	-184.885	0.382	-0.006
-235.844	-72.423	0.218	-0.080
-234.830	-17.178	-0.214	-0.134
-233.815	-14.584	0.047	0.030
-232.800	280.625	0.066	-0.117
-231.786	260.390	0.036	-0.061
-230.771	0.672	0.424	-0.302
-229.757	38.515	-0.127	-0.113
-228.742	205.969	-0.188	-0.291
-227.727	217.175	-0.056	0.089
-226.713	-72.815	-0.071	0.026
-225.698	-60.612	-0.099	-0.042
-224.684	-200.000	0.016	0.073
-223.669	169.285	0.076	0.108
-222.655	-109.212	-0.214	0.045
-221.640	800.000	0.106	-0.306
-220.625	-148.195	0.218	0.018
-219.611	60.723	0.210	0.207
-218.596	-83.866	0.358	0.113
-217.582	72.610	-0.097	-0.100
-216.567	-200.000	0.049	0.262
-215.552	-91.709	-0.316	0.089
-214.538	-200.000	0.086	0.429
-213.523	55.077	-0.081	0.078
-212.509	10.240	-0.188	0.142
-211.494	84.324	-0.125	-0.136
-210.479	108.010	-0.063	-0.075
-209.465	77.144	0.123	0.130
-208.450	244.946	-0.115	0.191
-207.436	-200.000	-0.007	0.069
-206.421	591.751	-0.181	0.443
-205.406	-65.808	-0.321	0.128
-204.392	-102.900	0.253	0.060
-203.377	-71.019	0.203	-0.076
-202.363	451.279	-0.089	-0.195
-201.348	487.556	0.078	0.176
-200.333	-74.252	-0.071	-0.025
-199.319	159.263	0.126	0.174
-198.304	80.061	0.128	-0.137
-197.290	-178.040	0.129	0.003
-196.275	-151.514	-0.029	-0.002
-195.260	69.610	0.086	-0.088
-194.246	-140.221	0.410	-0.043
-193.231	-57.250	-0.352	0.154
-192.217	-167.651	0.130	0.005
-191.202	-132.028	-0.263	-0.034
-190.187	-19.531	0.326	-0.201
-189.173	-140.203	-0.243	-0.025
-188.158	-71.813	-0.446	-0.165
-187.144	-200.000	0.029	-0.154
-186.129	289.232	-0.069	0.124
-185.114	9.986	-0.240	-0.181
-184.100	142.127	0.163	-0.215
-183.085	-169.426	0.230	-0.008
-182.071	-67.009	0.107	-0.042
-181.056	56.813	-0.179	-0.173
-180.042	-0.734	0.291	0.205
-179.027	371.389	0.091	-0.183
-178.012	675.707	-0.080	0.205
-176.998	-13.221	-0.249	-0.160
-175.983	-71.560	0.126	0.047
-174.969	191.698	0.090	0.135
-173.954	-200.000	0.036	0.277
-172.939	103.147	0.143	0.166
-171.925	-129.871	-0.246	-0.033
-170.910	-63.144	0.344	0.141
-169.896	-44.048	0.232	0.116
-168.881	-20.922	-0.123	0.075
-167.866	-72.165	-0.103	0.038
-166.852	-200.000	-0.043	0.195
-165.837	-20.785	0.093	0.056
-164.823	66.082	0.081	0.082
-163.808	-51.518	-0.252	0.117
-162.793	-108.686	0.066	-0.014
-161.779	393.873	-0.048	-0.100
-160.764	-110.233	-0.603	0.125
-159.750	191.636	-0.037	0.055
-158.735	-78.783	-0.172	0.058
-157.720	-108.811	-0.263	-0.056
-156.706	800.000	-0.073	0.211
-155.691	104.564	-0.135	0.158
-154.677	635.303	-0.066	0.167
-153.662	800.000	-0.063	0.188
-152.647	359.528	-0.152	0.301
-151.633	-28.943	-0.116	0.066
-150.618	-112.677	0.458	0.090
-149.604	-46.007	0.098	0.048
-148.589	-31.281	-0.356	-0.199
-147.574	712.455	0.075	0.197
-146.560	-200.000	0.054	0.302
-145.545	6.670	-0.339	0.250
-144.531	627.588	-0.109	0.272
-143.516	-108.664	0.245	0.052
-142.502	-155.966	0.247	0.016
-141.487	8.711	0.117	0.087
-140.472	100.388	0.234	-0.270
-139.458	-142.534	0.401	-0.039
-138.443	451.758	-0.094	-0.205
-137.429	221.002	0.138	0.220
-136.414	-200.000	-0.019	0.095
-135.399	-115.729	-0.184	-0.034
-134.385	-153.762	0.086	0.006
-133.370	-62.220	-0.198	0.082
-132.356	-19.282	-0.079	-0.048
-131.341	1.950	0.407	-0.291
-130.326	-14.435	0.121	-0.077
-129.312	-50.919	-0.261	-0.122
-128.297	-34.753	-0.143	0.077
-127.283	45.655	-0.371	-0.339
-126.268	168.501	-0.199	-0.281
-125.253	-118.021	0.241	0.043
-124.239	295.875	0.023	0.042
-123.224	-16.885	0.338	0.212
-122.210	196.405	0.038	-0.058
-121.195	-200.000	-0.005	-0.066
-120.180	652.437	0.055	0.141
-119.166	695.239	0.099	-0.257
-118.151	-146.257	0.394	-0.034
-117.137	800.000	-0.021	-0.089
-116.122	783.448	0.023	0.062
-115.107	-200.000	-0.010	0.335
-114.093	-74.042	-0.140	0.050
-113.078	689.146	0.084	0.217
-112.064	-74.984	0.284	-0.101
-111.049	21.224	-0.089	0.072
-110.034	-200.000	0.067	-0.440
-109.020	-101.463	-0.268	0.065
-108.005	-150.746	-0.109	-0.008
-106.991	800.000	-0.065	-0.219
-105.976	-129.949	0.246	0.033
-104.962	800.000	0.055	0.172
-103.947	139.047	-0.049	-0.064
-102.932	-24.578	-0.349	0.206
-101.918	-80.652	-0.143	0.047
-100.903	80.829	-0.121	0.129
-99.889	267.865	-0.087	-0.151
-98.874	-10.123	0.215	-0.141
-97.859	10.263	0.183	-0.138
-96.845	-115.887	-0.220	0.041
-95.830	-124.058	0.288	0.045
-94.816	63.190	0.140	-0.139
-93.801	-110.954	-0.225	-0.046
-92.786	-86.409	0.305	0.093
-91.772	125.542	0.135	-0.168
-90.757	7.568	0.168	0.124
-89.743	128.789	-0.162	0.204
-88.728	159.338	0.207	0.285
-87.713	-109.721	0.322	0.067
-86.699	-65.834	-0.087	-0.034
-85.684	23.667	-0.138	-0.113
-84.670	-200.000	0.014	0.229
-83.655	-49.542	-0.060	-0.028
-82.640	95.620	0.077	0.087
-81.626	800.000	0.103	0.346
-80.611	45.785	-0.351	0.321
-79.597	50.811	0.125	0.117
-78.582	-130.925	-0.194	0.026
-77.567	122.124	-0.130	-0.160
-76.553	-200.000	-0.003	0.029
-75.538	183.153	0.037	-0.054
-74.524	410.073	0.035	0.073
-73.509	-200.000	0.067	0.305
-72.494	143.445	-0.152	0.200
-71.480	8.590	0.092	0.069
-70.465	29.192	0.342	0.287
-69.451	195.635	0.247	0.372
-68.436	-124.177	-0.164	-0.025
-67.422	171.573	0.027	-0.039
-66.407	-158.234	0.135	-0.008
-65.392	-200.000	-0.037	0.168
-64.378	-8.188	0.306	0.204
-63.363	-40.801	0.197	-0.101
-62.349	-0.317	-0.153	-0.107
-61.334	154.816	-0.687	-0.933
-60.319	91.078	0.313	0.347
-59.305	430.810	-0.423	-0.906
-58.290	430.600	0.549	1.175
-57.276	800.000	0.513	1.938
-56.261	-200.000	90.300	511.207
-55.246	528.566	1403.423	3271.824
-54.232	184.887	2615.954	3832.852
-53.217	112.557	2334.510	2791.509
-52.203	44.899	1941.332	1765.509
-51.188	38.997	1727.243	1525.085
-50.173	36.236	1682.998	1465.030
-49.159	51.933	1727.735	1625.011
-48.144	55.447	1746.023	1669.169
-47.130	38.980	1704.240	1504.405
-46.115	35.951	1688.947	1467.801
-45.100	35.736	1684.634	1462.361
-44.086	35.801	1681.654	1460.210
-43.071	35.714	1679.140	1457.311
-42.057	35.757	1676.641	1455.408
-41.042	35.751	1674.978	1453.859
-40.027	35.643	1673.240	1451.479
-39.013	35.831	1670.690	1450.624
-37.998	35.729	1669.645	1448.894
-36.984	35.785	1668.733	1448.463
-35.969	35.851	1667.202	1447.573
-34.954	35.888	1665.416	1446.243
-33.940	35.915	1662.929	1444.234
-32.925	35.844	1661.818	1442.675
-31.911	35.845	1660.032	1441.072
-30.896	35.916	1657.632	1439.464
-29.881	35.898	1655.838	1437.715
-28.867	35.903	1654.432	1436.478
-27.852	35.787	1654.020	1435.198
-26.838	35.867	1652.026	1434.007
-25.823	35.874	1650.773	1432.908
-24.809	35.869	1649.277	1431.520
-23.794	35.972	1647.468	1430.660
-22.779	35.952	1646.223	1429.371
-21.765	35.885	1644.667	1427.469
-20.750	35.886	1643.205	1426.148
-19.736	36.003	1641.166	1425.187
-18.721	35.993	1639.730	1423.809
-17.706	35.897	1638.684	1422.141
-16.692	35.883	1636.575	1420.148
-15.677	35.943	1635.331	1419.457
-14.663	36.045	1633.599	1418.641
-13.648	35.951	1632.358	1416.821
-12.633	35.982	1630.777	1415.622
-11.619	35.917	1629.500	1413.975
-10.604	35.930	1627.647	1412.410
-9.590	35.979	1626.675	1411.871
-8.575	35.869	1625.879	1410.318
-7.560	35.881	1624.283	1408.965
-6.546	35.883	1622.910	1407.728
-5.531	35.882	1621.796	1406.702
-4.517	35.828	1620.899	1405.472
-3.502	35.860	1619.732	1404.635
-2.487	35.986	1618.378	1404.325
-1.473	36.119	1606.923	1395.294
-0.458	33.987	1588.559	1364.014
0.556	29.521	1589.029	1332.869
1.571	26.865	1613.801	1334.022
2.586	26.047	1627.600	1339.239
3.600	22.948	1573.823	1272.594
4.615	14.122	1461.387	1122.272
5.629	6.461	1394.051	1020.987
6.644	5.170	1385.190	1006.092
7.659	5.043	1383.738	1004.130
8.673	4.958	1382.735	1002.764
9.688	4.979	1381.070	1001.606
10.702	4.816	1378.388	998.527
11.717	8.322	1385.367	1026.059
12.731	16.309	1399.761	1088.299
13.746	20.003	1404.387	1115.641
14.761	18.698	1400.966	1104.430
15.775	17.445	1397.891	1093.861
16.790	16.279	1395.382	1084.318
17.804	15.542	1393.039	1077.673
18.819	15.092	1392.031	1073.914
19.834	14.779	1390.016	1070.258
20.848	14.479	1389.315	1067.704
21.863	14.376	1387.825	1065.802
22.877	14.191	1386.528	1063.533
23.892	14.173	1385.587	1062.602
24.907	14.237	1384.455	1062.049
25.921	14.259	1383.497	1061.357
26.936	14.162	1382.907	1060.192
27.950	14.311	1381.624	1060.062
28.965	14.292	1381.214	1059.537
29.980	14.387	1379.589	1058.799
30.994	14.403	1378.760	1058.168
32.009	14.552	1377.080	1057.735
33.023	14.415	1376.527	1056.348
34.038	14.327	1374.853	1054.414
35.053	14.328	1373.657	1053.403
36.067	14.365	1372.210	1052.440
37.082	14.240	1371.549	1051.045
38.096	14.414	1370.611	1051.334
39.111	14.355	1369.934	1050.351
40.126	14.217	1368.456	1048.256
41.140	14.284	1367.391	1047.768
42.155	14.125	1367.399	1046.681
43.169	14.058	1367.425	1046.188
44.184	14.079	1367.133	1046.003
45.199	14.201	1366.053	1045.849
46.213	14.196	1365.759	1045.503
47.228	14.336	1364.860	1045.598
48.242	14.235	1363.979	1044.198
49.257	14.221	1362.326	1042.752
50.271	14.262	1360.437	1041.474
51.286	14.233	1359.552	1040.521
52.301	14.206	1358.451	1039.416
53.315	14.194	1356.793	1037.984
54.330	14.085	1356.063	1036.650
55.344	14.167	1354.548	1035.912
56.359	14.134	1353.781	1035.031
57.374	14.113	1352.936	1034.162
58.388	14.030	1351.956	1032.802
59.403	14.032	1351.663	1032.500
60.417	14.053	1350.740	1031.833
61.432	13.955	1350.196	1030.717
62.447	14.025	1348.815	1030.009
63.461	13.946	1347.882	1028.716
64.476	13.998	1346.711	1028.053
65.490	13.897	1345.349	1026.296
66.505	14.131	1343.276	1026.072
67.520	14.012	1342.668	1024.782
68.534	14.086	1341.363	1024.148
69.549	14.030	1340.667	1023.183
70.563	13.910	1340.128	1021.945
71.578	13.836	1338.941	1020.491
72.593	13.838	1337.971	1019.676
73.607	13.834	1336.949	1018.783
74.622	13.905	1335.949	1018.364
75.636	13.890	1335.368	1017.740
76.651	13.873	1334.839	1017.144
77.666	13.843	1334.472	1016.589
78.680	13.827	1333.771	1015.865
79.695	14.013	1332.745	1016.134
80.709	13.955	1331.937	1015.070
81.724	14.102	1330.990	1015.161
82.739	14.076	1330.203	1014.310
83.753	14.173	1329.446	1014.235
84.768	14.221	1328.620	1013.809
85.782	14.352	1327.101	1013.355
86.797	14.257	1326.027	1011.865
87.812	14.199	1324.940	1010.598
88.826	14.233	1323.864	1009.894
89.841	14.213	1322.699	1008.791
90.855	14.262	1321.439	1008.043
91.870	14.333	1320.320	1007.529
92.884	14.279	1319.820	1006.728
93.899	14.358	1318.936	1006.442
94.914	14.353	1318.632	1006.091
95.928	14.443	1317.425	1005.625
96.943	14.404	1316.355	1004.486
97.957	14.251	1315.488	1002.813
98.972	14.309	1314.396	1002.239
99.987	14.325	1313.153	1001.299
101.001	14.361	1312.399	1000.851
102.016	14.308	1311.128	999.479
103.030	14.352	1310.296	999.017
104.045	14.356	1309.436	998.297
105.060	14.271	1307.997	996.604
106.074	14.232	1306.496	995.141
107.089	14.039	1305.342	993.019
108.103	13.981	1304.356	991.834
109.118	14.045	1302.755	990.912
110.133	13.989	1301.603	989.613
111.147	14.017	1300.246	988.663
112.162	14.050	1298.835	987.700
113.176	14.112	1297.489	986.954
114.191	14.130	1296.894	986.522
115.206	14.096	1295.980	985.538
116.220	14.125	1294.264	984.315
117.235	14.092	1293.503	983.456
118.249	14.038	1292.467	982.260
119.264	14.104	1291.190	981.595
120.279	14.096	1289.821	980.420
121.293	14.005	1289.066	979.223
122.308	14.031	1288.074	978.533
123.322	13.963	1287.341	977.489
124.337	13.995	1286.127	976.669
125.352	14.019	1284.947	975.830
126.366	13.905	1283.577	974.034
127.381	13.978	1282.683	973.695
128.395	13.948	1281.710	972.699
129.410	14.009	1280.664	972.173
130.424	14.101	1279.853	972.008
131.439	14.094	1278.766	971.056
132.454	14.139	1277.314	970.130
133.468	14.102	1276.858	969.482
134.483	14.141	1276.374	969.260
135.497	14.163	1275.077	968.313
136.512	14.207	1273.842	967.550
137.527	14.200	1272.557	966.447
138.541	14.180	1271.024	965.082
139.556	14.313	1269.477	964.590
140.570	14.193	1269.143	963.555
141.585	14.315	1267.195	962.695
142.600	14.421	1266.221	962.483
143.614	14.502	1265.149	962.050
144.629	14.407	1264.432	960.874
145.643	14.434	1263.344	960.115
146.658	14.361	1261.820	958.453
147.673	14.297	1260.353	956.890
148.687	14.143	1259.587	955.338
149.702	14.088	1258.463	954.086
150.716	14.187	1256.434	953.030
151.731	14.168	1255.966	952.481
152.746	14.309	1253.950	951.672
153.760	14.281	1253.013	950.721
154.775	14.338	1252.075	950.248
155.789	14.410	1250.918	949.698
156.804	14.342	1250.175	948.660
157.819	14.377	1249.308	948.115
158.833	14.493	1248.235	947.878
159.848	14.523	1247.476	947.389
160.862	14.545	1246.168	946.438
161.877	14.422	1245.355	945.039
162.892	14.271	1244.376	943.359
163.906	14.246	1243.555	942.510
164.921	14.297	1242.402	941.839
165.935	14.374	1241.388	941.421
166.950	14.318	1241.046	940.765
167.964	14.370	1239.751	939.995
168.979	14.350	1239.316	939.465
169.994	14.389	1238.770	939.187
171.008	14.359	1237.742	938.160
172.023	14.460	1237.413	938.392
173.037	14.584	1235.781	937.771
174.052	14.615	1235.164	937.396
175.067	14.376	1234.213	935.246
176.081	14.392	1233.045	934.370
177.096	14.397	1231.884	933.437
178.110	14.450	1231.037	933.005
179.125	14.340	1230.339	931.779
180.140	14.437	1228.823	931.089
181.154	14.451	1227.763	930.284
182.169	14.533	1226.441	929.658
183.183	14.601	1225.243	929.044
184.198	14.624	1223.931	928.093
185.213	14.673	1222.860	927.477
186.227	14.682	1221.727	926.583
187.242	14.725	1221.151	926.305
188.256	14.648	1220.273	925.127
189.271	14.705	1218.798	924.245
190.286	14.547	1217.958	922.650
191.300	14.445	1217.348	921.544
192.315	14.383	1216.522	920.495
193.329	14.419	1215.710	919.994
194.344	14.496	1214.629	919.521
195.359	14.489	1214.758	919.500
196.373	14.640	1214.203	919.830
197.388	14.697	1213.581	919.594
198.402	14.856	1213.105	920.025
199.417	14.900	1212.222	919.517
200.432	14.964	1211.610	919.320
201.446	14.981	1210.296	918.337
202.461	14.991	1209.415	917.642
203.475	15.080	1208.559	917.399
204.490	14.912	1207.500	915.593
205.504	14.875	1206.118	914.263
206.519	14.821	1204.900	912.962
207.534	14.909	1203.626	912.398
208.548	14.729	1202.637	910.584
209.563	14.808	1202.126	910.550
210.577	14.887	1201.216	910.211
211.592	14.875	1199.973	909.121
212.607	14.987	1199.356	909.185
213.621	14.979	1198.746	908.594
214.636	15.059	1197.447	907.963
215.650	15.042	1196.471	907.052
216.665	15.130	1195.543	906.746
217.680	15.166	1195.108	906.530
218.694	15.175	1193.881	905.569
219.709	15.146	1193.381	904.951
220.723	15.027	1192.882	903.853
221.738	15.099	1191.918	903.427
222.753	15.163	1191.089	903.068
223.767	15.085	1191.009	902.507
224.782	15.175	1189.680	901.900
225.796	15.318	1188.971	902.053
226.811	15.260	1188.460	901.276
227.826	15.220	1187.648	900.364
228.840	15.172	1186.932	899.483
229.855	15.127	1186.004	898.459
230.869	15.112	1185.508	897.925
231.884	15.191	1184.185	897.263
232.899	15.259	1182.976	896.632
233.913	15.223	1182.393	895.921
234.928	15.137	1182.212	895.246
235.942	15.120	1181.239	894.335
236.957	15.096	1180.358	893.463
237.972	15.083	1179.979	893.029
238.986	15.181	1179.516	893.120
240.001	15.223	1178.434	892.445
241.015	15.190	1177.566	891.535
242.030	15.259	1176.431	890.964
243.045	15.230	1175.921	890.341
244.059	15.298	1175.039	889.959
245.074	15.203	1174.497	888.964
246.088	15.329	1173.802	889.030
247.103	15.481	1172.775	888.975
248.117	15.448	1172.364	888.409
249.132	15.612	1171.485	888.535
250.147	15.616	1171.324	888.353
251.161	15.736	1170.190	888.048
252.176	15.766	1169.633	887.707
253.190	15.715	1169.088	886.948
254.205	15.750	1168.267	886.429
255.220	15.865	1167.717	886.538
256.234	15.747	1167.283	885.509
257.249	15.834	1166.217	885.082
258.263	15.744	1165.821	884.228
259.278	15.855	1165.047	884.144
260.293	15.878	1163.976	883.373
261.307	15.810	1164.234	883.137
262.322	15.898	1163.122	882.679
263.336	15.942	1162.572	882.410
264.351	15.913	1162.137	881.853
265.366	16.003	1161.448	881.719
266.380	15.926	1160.551	880.558
267.395	15.957	1159.530	879.870
268.409	15.984	1158.599	879.226
269.424	15.968	1157.733	878.407
270.439	15.912	1157.859	878.133
271.453	15.896	1156.844	877.199
272.468	15.823	1155.570	875.778
273.482	15.897	1155.211	875.813
274.497	15.944	1154.772	875.648
275.512	15.862	1154.051	874.596
276.526	15.855	1153.292	873.909
277.541	15.973	1152.465	873.816
278.555	15.918	1151.863	872.999
279.570	15.879	1151.017	872.077
280.585	16.095	1150.243	872.533
281.599	16.025	1149.552	871.570
282.614	16.112	1148.070	870.818
283.628	16.069	1147.022	869.724
284.643	16.075	1146.201	869.054
285.657	16.063	1145.506	868.391
286.672	15.934	1144.801	867.112
287.687	16.037	1144.159	867.079
288.701	16.021	1143.131	866.140
289.716	16.071	1142.076	865.522
290.730	15.991	1141.752	864.788
291.745	16.167	1141.169	865.177
292.760	16.211	1140.023	864.454
293.774	16.277	1139.504	864.325
294.789	16.230	1139.191	863.769
295.803	16.291	1138.574	863.536
296.818	16.173	1137.459	862.012
297.833	16.185	1136.518	861.281
298.847	16.173	1135.767	860.576
299.862	16.397	1135.068	861.114
300.876	16.303	1134.111	859.831
301.891	16.375	1133.580	859.722
302.906	16.345	1132.948	859.013
303.920	16.476	1132.339	859.141
304.935	16.449	1131.742	858.475
305.949	16.561	1130.924	858.345
306.964	16.526	1130.429	857.716
307.979	16.607	1129.375	857.249
308.993	16.476	1128.858	856.117
310.008	16.545	1128.170	855.871
311.022	16.603	1127.256	855.397
312.037	16.568	1126.337	854.445
313.052	16.417	1125.695	853.120
314.066	16.459	1124.469	852.325
315.081	16.383	1123.857	851.404
316.095	16.400	1123.062	850.812
317.110	16.474	1121.985	850.292
318.125	16.430	1121.919	849.950
319.139	16.444	1120.609	848.951
320.154	16.471	1120.061	848.594
321.168	16.504	1119.452	848.224
322.183	16.548	1118.358	847.539
323.197	16.511	1118.466	847.364
324.212	16.598	1117.452	846.956
325.227	16.551	1117.096	846.374
326.241	16.628	1116.104	845.932
327.256	16.547	1115.633	845.096
328.270	16.575	1114.507	844.310
329.285	16.503	1113.688	843.254
330.300	16.489	1112.555	842.253
331.314	16.658	1111.688	842.360
332.329	16.614	1110.626	841.263
333.343	16.625	1110.042	840.803
334.358	16.592	1109.276	839.985
335.373	16.766	1108.338	840.064
336.387	16.765	1107.548	839.382
337.402	16.794	1107.066	839.088
338.416	16.854	1106.278	838.712
339.431	16.785	1105.524	837.729
340.446	16.833	1105.050	837.529
341.460	16.924	1104.710	837.646
342.475	16.940	1103.694	836.882
343.489	17.067	1102.143	836.259
344.504	17.078	1101.154	835.488
345.519	16.971	1100.736	834.573
346.533	17.043	1100.139	834.398
347.548	17.153	1099.310	834.234
348.562	17.116	1098.711	833.525
349.577	16.942	1098.014	832.069
350.592	16.989	1096.917	831.398
351.606	16.912	1096.197	830.399
352.621	16.871	1095.555	829.640
353.635	16.937	1094.813	829.324
354.650	16.967	1093.971	828.764
355.665	16.942	1093.280	828.042
356.679	17.030	1092.654	827.926
357.694	17.088	1092.069	827.690
358.708	17.030	1091.709	827.063
359.723	17.223	1090.597	827.085
360.738	17.152	1089.947	826.174
361.752	16.998	1089.815	825.253
362.767	17.129	1089.075	825.253
363.781	17.149	1088.526	824.866
364.796	17.160	1088.311	824.680
365.810	17.238	1087.294	824.217
366.825	17.447	1086.174	824.306
367.840	17.396	1086.445	824.193
368.854	17.439	1085.517	823.623
369.869	17.486	1084.750	823.195
370.883	17.430	1083.869	822.186
371.898	17.340	1083.421	821.337
372.913	17.322	1082.878	820.767
373.927	17.328	1082.292	820.278
374.942	17.473	1081.401	820.229
375.956	17.470	1081.056	819.879
376.971	17.409	1080.556	819.135
377.986	17.468	1080.084	818.988
379.000	17.624	1079.350	819.111
380.015	17.640	1078.533	818.495
381.029	17.593	1078.397	818.091
382.044	17.572	1077.358	817.129
383.059	17.691	1076.306	816.833
384.073	17.663	1075.919	816.329
385.088	17.734	1074.673	815.654
386.102	17.680	1074.034	814.838
387.117	17.530	1072.955	813.233
388.132	17.629	1072.007	812.913
389.146	17.624	1071.491	812.424
390.161	17.411	1071.108	811.046
391.175	17.590	1070.279	811.200
392.190	17.663	1069.268	810.710
393.205	17.643	1068.880	810.248
394.219	17.670	1067.820	809.503
395.234	17.759	1067.050	809.270
396.248	17.679	1065.970	807.998
397.263	17.553	1064.926	806.541
398.278	17.694	1064.311	806.671
399.292	17.585	1063.500	805.470
400.307	17.556	1063.035	804.908
401.321	17.548	1062.286	804.232
402.336	17.657	1061.237	803.880
403.350	17.542	1060.959	803.057
404.365	17.536	1060.408	802.540
405.380	17.690	1059.286	802.345
406.394	17.773	1058.826	802.316
407.409	17.928	1057.487	801.957
408.423	17.798	1057.559	801.331
409.438	17.950	1056.744	801.357
410.453	17.955	1055.900	800.669
411.467	18.067	1054.979	800.424
412.482	18.002	1054.819	799.928
413.496	18.102	1053.843	799.585
414.511	17.991	1053.535	798.762
415.526	18.148	1052.747	798.825
416.540	18.194	1052.601	798.858
417.555	18.083	1051.877	797.721
418.569	18.077	1051.476	797.320
419.584	18.230	1050.694	797.368
420.599	18.257	1050.297	797.120
421.613	146.158	1399.697	1785.613
422.628	133.921	1450.608	1785.724
