DTS Sentinel unit serial number:	SN413079Multiplexer serial number:	ORYXHardware model number:	OX4-SRSoftware version number:	ORYX F/W v4.00 Oryx Data Collector v3.7.2.0data status	okinstallation	princeton_trtdifferential loss correction	single-endedforward channel	channel 2reverse channel	N/Adate	2019/09/14time	08:35:35forward acquisition time	60.00reverse acquisition time	0.00gamma	496.2192k internal	0.2330k external	0.2330temperature offset calibration	1.0131default loss term (dB/km)	0.3790temperature slope calibration	1.0000multiplexer offset coefficient	1.0000multiplexer slope coefficient	1.0000fibre end	0.00T internal ref (°C)	28.69T ext. ref 1 (°C)	3.66T ext. ref 2 (°C)	26.12length (m)	temperature (°C)	Stokes	anti-Stokes-747.200	-90.747	0.208	-0.060
-746.185	325.758	-0.192	0.370
-745.171	800.000	0.062	-0.221
-744.156	-106.182	0.141	0.032
-743.142	-200.000	0.019	-0.123
-742.127	86.878	-0.078	-0.087
-741.112	-29.465	0.163	0.094
-740.098	63.283	0.100	0.101
-739.083	800.000	-0.101	-0.317
-738.069	99.510	0.227	-0.265
-737.054	800.000	0.096	0.340
-736.039	-69.479	-0.105	0.041
-735.025	-13.178	0.150	-0.098
-734.010	247.813	-0.032	0.055
-732.996	-83.294	-0.447	-0.145
-731.981	-200.000	-0.016	0.131
-730.966	-67.794	-0.348	0.137
-729.952	283.306	-0.049	0.089
-728.937	463.197	0.086	0.194
-727.923	-170.441	-0.297	0.010
-726.908	-82.989	0.051	-0.016
-725.894	61.616	0.278	-0.278
-724.879	-142.374	-0.147	-0.015
-723.864	-20.853	-0.005	0.003
-722.850	-142.413	-0.380	0.038
-721.835	-25.199	-0.212	-0.127
-720.821	-65.190	0.367	-0.149
-719.806	-134.199	-0.407	-0.051
-718.791	-46.343	0.087	0.043
-717.777	-81.334	-0.087	-0.029
-716.762	-10.550	0.137	-0.091
-715.748	-46.234	-0.150	-0.074
-714.733	230.787	0.122	-0.201
-713.718	-200.000	-0.008	0.048
-712.704	18.142	0.025	-0.020
-711.689	256.231	-0.257	-0.444
-710.675	-21.750	-0.414	-0.253
-709.660	-200.000	0.018	-0.168
-708.645	131.387	0.048	-0.062
-707.631	-200.000	-0.009	-0.196
-706.616	442.139	-0.119	-0.261
-705.602	-89.962	0.078	0.023
-704.587	-200.000	0.053	-0.283
-703.572	-200.000	0.019	0.309
-702.558	800.000	-0.041	-0.121
-701.543	33.862	-0.185	-0.162
-700.529	-42.841	0.183	-0.094
-699.514	-81.774	0.083	-0.027
-698.499	203.066	0.161	-0.250
-697.485	655.016	-0.115	-0.298
-696.470	-161.822	-0.182	-0.009
-695.456	238.509	-0.106	-0.177
-694.441	193.809	-0.177	-0.269
-693.426	462.231	-0.074	-0.165
-692.412	-129.505	-0.449	-0.063
-691.397	-200.000	0.018	0.161
-690.383	37.447	-0.178	0.158
-689.368	22.518	0.232	-0.191
-688.354	800.000	-0.083	-0.296
-687.339	-26.085	0.321	0.190
-686.324	-200.000	-0.050	0.244
-685.310	120.889	-0.307	-0.383
-684.295	21.447	-0.146	-0.119
-683.281	-154.067	0.053	-0.004
-682.266	-150.914	-0.079	-0.006
-681.251	-15.562	-0.329	0.211
-680.237	26.765	-0.221	0.186
-679.222	-0.175	-0.450	0.322
-678.208	703.240	0.093	-0.246
-677.193	53.972	-0.005	-0.005
-676.178	800.000	0.047	0.139
-675.164	713.685	0.116	-0.309
-674.149	26.085	-0.275	0.231
-673.135	3.216	-0.079	0.058
-672.120	-200.000	0.036	-0.179
-671.105	42.927	0.043	-0.040
-670.091	753.482	-0.021	0.058
-669.076	223.801	0.142	0.229
-668.062	-54.841	-0.100	0.045
-667.047	-41.458	0.146	0.075
-666.032	-106.469	0.470	-0.105
-665.018	438.726	0.145	-0.317
-664.003	322.304	-0.112	0.214
-662.989	-176.176	-0.323	0.009
-661.974	-200.000	0.028	-0.315
-660.959	134.407	-0.118	-0.154
-659.945	89.307	-0.075	0.084
-658.930	53.344	-0.199	-0.191
-657.916	-200.000	-0.017	-0.511
-656.901	-77.914	-0.125	0.043
-655.886	800.000	-0.063	0.194
-654.872	-150.903	0.407	0.031
-653.857	-90.204	0.140	0.041
-652.843	-19.495	0.126	-0.078
-651.828	-200.000	0.010	-0.171
-650.814	-57.326	-0.190	0.084
-649.799	-116.817	-0.171	0.031
-648.784	-47.377	-0.413	-0.201
-647.770	-134.003	-0.030	-0.004
-646.755	-99.116	-0.152	0.039
-645.741	-111.886	0.044	-0.009
-644.726	29.953	-0.154	-0.132
-643.711	-24.911	0.041	-0.025
-642.697	-82.771	-0.044	-0.014
-641.682	12.525	-0.147	0.113
-640.668	-200.000	0.030	-0.203
-639.653	57.420	0.323	-0.316
-638.638	149.631	-0.212	0.289
-637.624	-136.211	-0.173	0.020
-636.609	800.000	0.034	-0.123
-635.595	-200.000	0.067	-0.375
-634.580	-3.987	-0.283	-0.197
-633.565	-200.000	0.003	0.072
-632.551	-200.000	-0.040	-0.288
-631.536	-200.000	-0.270	-0.000
-630.522	-200.000	0.003	-0.192
-629.507	-43.761	0.081	0.041
-628.492	-200.000	0.012	0.185
-627.478	13.863	-0.034	-0.027
-626.463	150.642	0.108	-0.146
-625.449	-120.919	0.029	-0.005
-624.434	800.000	0.014	0.047
-623.419	-78.501	0.268	0.092
-622.405	-108.707	-0.207	-0.044
-621.390	38.971	-0.180	0.161
-620.376	114.242	-0.051	0.062
-619.361	-36.548	0.202	0.109
-618.346	90.607	-0.184	0.207
-617.332	-200.000	-0.046	-0.237
-616.317	800.000	-0.153	-0.587
-615.303	197.742	0.115	0.176
-614.288	-200.000	-0.016	-0.083
-613.273	-157.886	0.079	-0.005
-612.259	-77.424	-0.219	-0.076
-611.244	-58.704	-0.276	-0.120
-610.230	-200.000	-0.020	0.267
-609.215	81.486	-0.211	-0.229
-608.201	800.000	-0.065	0.189
-607.186	-159.132	-0.245	0.014
-606.171	182.087	0.197	0.291
-605.157	-200.000	-0.033	-0.206
-604.142	272.431	-0.130	0.231
-603.128	-11.288	-0.111	-0.073
-602.113	-200.000	0.042	0.223
-601.098	473.435	0.047	0.107
-600.084	217.258	-0.006	-0.010
-599.069	76.704	-0.046	-0.049
-598.055	18.272	-0.208	-0.166
-597.040	59.469	-0.333	0.328
-596.025	-200.000	-0.059	0.589
-595.011	-22.070	0.333	0.202
-593.996	-200.000	-0.001	-0.015
-592.982	800.000	0.060	-0.225
-591.967	-151.402	0.114	0.009
-590.952	10.750	-0.155	-0.118
-589.938	67.673	-0.065	-0.066
-588.923	-127.817	-0.139	0.020
-587.909	-7.235	0.072	-0.049
-586.894	800.000	-0.012	0.042
-585.879	76.064	0.142	0.150
-584.865	-200.000	0.035	-0.407
-583.850	-123.101	-0.131	-0.021
-582.836	39.373	-0.186	0.167
-581.821	-78.099	0.063	0.022
-580.806	-55.245	-0.224	0.101
-579.792	-71.958	0.423	-0.157
-578.777	-82.080	-0.245	0.080
-577.763	55.826	0.185	-0.180
-576.748	-98.850	-0.273	0.069
-575.733	-117.225	-0.466	-0.085
-574.719	81.896	-0.004	-0.004
-573.704	135.631	0.043	0.056
-572.690	186.196	-0.133	0.197
-571.675	210.613	0.045	0.071
-570.661	-200.000	0.024	-0.156
-569.646	91.698	0.180	0.202
-568.631	-171.745	0.309	0.010
-567.617	32.958	-0.381	-0.330
-566.602	61.679	-0.120	0.120
-565.588	186.328	-0.124	0.184
-564.573	-200.000	-0.015	-0.099
-563.558	772.367	-0.178	-0.485
-562.544	800.000	-0.087	0.269
-561.529	-200.000	0.020	-0.206
-560.515	-200.000	0.029	-0.214
-559.500	96.385	0.027	-0.031
-558.485	251.217	0.154	-0.262
-557.471	52.710	0.218	0.208
-556.456	-139.281	-0.294	-0.032
-555.442	15.718	0.143	-0.112
-554.427	194.420	-0.127	-0.193
-553.412	-162.240	0.266	-0.013
-552.398	800.000	-0.066	-0.212
-551.383	-53.009	0.070	0.032
-550.369	-49.012	-0.431	-0.206
-549.354	126.875	0.046	0.059
-548.339	-200.000	-0.068	0.317
-547.325	-200.000	-0.015	0.163
-546.310	-35.689	-0.146	0.079
-545.296	94.672	0.130	0.148
-544.281	-200.000	-0.063	-0.307
-543.266	12.386	-0.235	-0.181
-542.252	241.289	0.130	0.217
-541.237	122.748	0.067	0.084
-540.223	312.507	-0.092	-0.173
-539.208	324.288	0.162	0.308
-538.193	-200.000	0.015	-0.182
-537.179	46.100	0.130	-0.120
-536.164	-95.213	0.088	0.024
-535.150	14.150	0.118	0.092
-534.135	78.062	0.036	-0.038
-533.121	-78.386	-0.331	0.113
-532.106	-174.714	-0.102	-0.003
-531.091	-200.000	0.029	-0.154
-530.077	104.023	-0.041	-0.048
-529.062	-67.547	0.124	0.049
-528.048	683.818	0.161	0.420
-527.033	46.526	0.162	-0.150
-526.018	-193.562	0.164	0.001
-525.004	-38.645	-0.294	-0.155
-523.989	-29.440	0.225	0.128
-522.975	203.068	-0.102	-0.158
-521.960	-200.000	0.067	-0.461
-520.945	800.000	-0.043	-0.186
-519.931	333.785	0.028	-0.053
-518.916	-119.504	0.559	0.097
-517.902	800.000	-0.022	0.069
-516.887	731.581	-0.023	-0.060
-515.872	-200.000	-0.010	-0.139
-514.858	83.539	0.193	-0.210
-513.843	54.830	-0.292	0.281
-512.829	-93.983	-0.166	0.046
-511.814	-200.000	-0.072	0.440
-510.799	-44.872	-0.186	0.093
-509.785	-62.451	-0.303	0.126
-508.770	22.945	0.090	-0.074
-507.756	-200.000	-0.032	-0.198
-506.741	-109.972	0.080	0.017
-505.726	129.945	-0.105	0.134
-504.712	-133.313	0.390	0.049
-503.697	164.210	-0.058	-0.081
-502.683	88.723	-0.287	-0.318
-501.668	229.444	0.185	-0.301
-500.653	21.480	0.197	-0.160
-499.639	143.314	0.249	0.330
-498.624	115.055	-0.076	-0.092
-497.610	-157.310	0.156	0.009
-496.595	800.000	0.053	-0.148
-495.581	-96.766	-0.386	0.101
-494.566	-76.514	0.190	0.067
-493.551	46.410	0.099	0.091
-492.537	108.202	0.194	0.231
-491.522	280.031	-0.211	-0.376
-490.508	800.000	-0.080	-0.280
-489.493	707.426	0.024	0.062
-488.478	53.032	-0.104	-0.099
-487.464	-88.737	-0.322	-0.095
-486.449	-98.955	-0.207	-0.052
-485.435	147.355	0.219	-0.294
-484.420	546.188	0.099	-0.236
-483.405	-123.021	0.163	-0.026
-482.391	42.444	-0.278	0.252
-481.376	106.976	-0.125	0.148
-480.362	-22.437	0.278	-0.168
-479.347	-200.000	0.140	0.001
-478.332	-120.870	-0.250	0.042
-477.318	6.803	0.212	0.157
-476.303	556.857	0.023	-0.054
-475.289	-35.630	-0.262	-0.142
-474.274	-129.927	-0.211	0.029
-473.259	-28.745	0.161	0.092
-472.245	105.587	-0.117	-0.138
-471.230	-145.420	0.168	-0.015
-470.216	-200.000	0.020	0.204
-469.201	629.495	-0.045	-0.114
-468.186	4.403	-0.168	0.123
-467.172	-94.681	0.279	0.076
-466.157	162.716	-0.058	-0.081
-465.143	800.000	-0.015	-0.062
-464.128	-38.934	0.130	-0.068
-463.113	-145.743	0.078	0.007
-462.099	536.439	0.055	-0.130
-461.084	-10.487	-0.057	0.038
-460.070	-115.577	0.450	-0.084
-459.055	403.510	-0.037	-0.078
-458.040	-141.604	-0.477	-0.048
-457.026	192.801	0.191	-0.287
-456.011	-86.778	0.296	-0.090
-454.997	-104.293	0.131	-0.030
-453.982	-154.569	-0.334	0.022
-452.968	141.799	-0.048	0.063
-451.953	-116.650	0.214	-0.039
-450.938	-74.401	0.269	-0.097
-449.924	-7.126	-0.110	-0.074
-448.909	800.000	0.043	0.145
-447.895	-56.179	-0.034	0.015
-446.880	538.024	0.125	-0.296
-445.865	-86.894	0.163	-0.049
-444.851	119.584	0.124	0.152
-443.836	174.834	-0.163	-0.234
-442.822	392.916	-0.161	0.334
-441.807	800.000	-0.107	0.355
-440.792	-69.392	0.227	0.087
-439.778	800.000	-0.057	-0.178
-438.763	414.881	0.096	0.203
-437.749	-47.266	0.106	-0.051
-436.734	-95.318	-0.117	-0.031
-435.719	-200.000	-0.066	-0.307
-434.705	9.075	-0.097	-0.073
-433.690	-128.271	0.322	-0.046
-432.676	-156.977	0.245	-0.015
-431.661	800.000	-0.061	0.231
-430.646	-84.775	0.053	-0.017
-429.632	-200.000	-0.000	-0.308
-428.617	-29.133	-0.104	-0.059
-427.603	114.940	-0.109	-0.132
-426.588	166.464	0.086	-0.121
-425.573	106.012	0.116	0.136
-424.559	-1.794	-0.098	0.069
-423.544	-117.099	0.126	0.023
-422.530	332.710	0.026	0.050
-421.515	800.000	0.070	0.222
-420.500	-112.100	0.216	0.043
-419.486	315.245	-0.060	-0.112
-418.471	-200.000	0.003	0.255
-417.457	-200.000	0.014	0.316
-416.442	4.604	-0.217	0.158
-415.428	800.000	-0.023	0.090
-414.413	81.834	-0.164	0.176
-413.398	322.217	0.059	0.112
-412.384	-71.898	0.297	-0.110
-411.369	-12.883	0.149	0.096
-410.355	8.760	0.223	0.167
-409.340	-78.936	0.210	0.071
-408.325	-43.803	0.077	-0.038
-407.311	612.025	0.058	0.145
-406.296	523.056	0.075	-0.174
-405.282	541.969	-0.094	-0.222
-404.267	335.062	0.095	0.183
-403.252	-200.000	0.062	0.338
-402.238	-122.816	-0.449	0.072
-401.223	-85.087	0.158	0.049
-400.209	27.416	0.242	0.202
-399.194	800.000	0.117	0.478
-398.179	-200.000	-0.007	-0.327
-397.165	373.618	0.078	0.158
-396.150	-96.333	0.070	-0.018
-395.136	-186.230	0.129	-0.002
-394.121	800.000	-0.031	0.123
-393.106	121.267	0.114	-0.141
-392.092	-7.981	0.131	0.088
-391.077	198.257	-0.075	-0.115
-390.063	83.880	0.334	-0.362
-389.048	109.787	0.173	0.206
-388.033	265.411	-0.261	0.452
-387.019	-49.553	-0.125	0.059
-386.004	83.205	-0.143	-0.155
-384.990	800.000	-0.082	0.225
-383.975	274.174	-0.113	0.198
-382.960	-15.881	-0.239	0.151
-381.946	4.168	-0.133	0.097
-380.931	24.881	0.108	0.089
-379.917	50.409	-0.158	0.149
-378.902	-53.809	-0.348	0.158
-377.888	465.539	0.065	-0.145
-376.873	338.281	-0.192	-0.372
-375.858	437.380	0.182	-0.394
-374.844	-52.166	-0.176	0.081
-373.829	-117.122	-0.154	-0.028
-372.815	-9.577	0.330	0.218
-371.800	-18.991	0.240	0.148
-370.785	-200.000	-0.052	-0.301
-369.771	-134.382	0.216	-0.026
-368.756	-12.489	0.277	-0.180
-367.742	-57.265	0.178	-0.078
-366.727	566.313	0.069	0.166
-365.712	-21.479	-0.118	0.072
-364.698	-8.184	0.221	-0.148
-363.683	800.000	-0.058	0.249
-362.669	-5.363	0.286	0.195
-361.654	443.468	-0.081	-0.177
-360.639	-18.287	-0.116	0.072
-359.625	-122.798	-0.385	-0.062
-358.610	-75.956	0.146	0.051
-357.596	116.005	-0.121	0.147
-356.581	-77.226	-0.319	0.110
-355.566	33.408	-0.141	-0.121
-354.552	-28.124	0.161	0.092
-353.537	-122.969	-0.155	0.025
-352.523	-200.000	0.010	0.218
-351.508	-16.435	0.133	0.083
-350.493	800.000	-0.022	0.093
-349.479	50.275	0.192	-0.180
-348.464	-127.576	0.217	-0.031
-347.450	-79.662	-0.283	-0.095
-346.435	-113.302	0.190	0.037
-345.420	110.221	-0.091	-0.108
-344.406	-20.971	-0.036	-0.022
-343.391	-200.000	0.038	-0.174
-342.377	85.325	0.215	-0.234
-341.362	-113.954	0.140	0.027
-340.348	165.512	0.208	0.292
-339.333	605.610	0.086	-0.213
-338.318	411.013	0.132	0.277
-337.304	-200.000	0.045	0.354
-336.289	-114.942	0.089	-0.017
-335.275	-81.611	0.108	0.035
-334.260	-51.042	0.415	0.193
-333.245	9.406	0.154	0.115
-332.231	800.000	0.136	0.492
-331.216	-54.244	-0.134	0.060
-330.202	-21.695	0.434	-0.262
-329.187	-139.557	-0.194	0.021
-328.172	-200.000	-0.019	-0.123
-327.158	2.800	0.168	-0.121
-326.143	-200.000	-0.005	0.120
-325.129	-56.066	-0.267	0.118
-324.114	497.323	-0.047	0.108
-323.099	375.644	-0.165	0.333
-322.085	-61.357	0.344	0.143
-321.070	-118.033	0.246	0.044
-320.056	-200.000	0.029	-0.349
-319.041	-200.000	0.054	-0.305
-318.026	-140.596	0.321	-0.033
-317.012	-200.000	0.015	-0.085
-315.997	-48.553	0.166	-0.079
-314.983	275.197	0.185	0.324
-313.968	-16.459	0.322	-0.202
-312.953	-113.187	-0.361	-0.070
-311.939	-200.000	0.007	-0.133
-310.924	172.847	0.144	0.205
-309.910	-200.000	-0.042	0.187
-308.895	800.000	-0.169	0.477
-307.880	31.086	-0.065	0.055
-306.866	-200.000	0.008	0.067
-305.851	-171.282	-0.453	0.015
-304.837	800.000	0.042	0.163
-303.822	28.958	-0.238	-0.200
-302.807	-200.000	0.057	-0.258
-301.793	24.921	-0.035	0.029
-300.778	-153.618	0.210	0.014
-299.764	-90.630	-0.206	0.059
-298.749	800.000	-0.101	-0.330
-297.735	50.527	-0.190	-0.178
-296.720	-25.321	0.204	-0.119
-295.705	-200.000	-0.017	0.075
-294.691	-132.051	-0.203	-0.026
-293.676	274.346	0.115	-0.201
-292.662	119.894	-0.139	0.170
-291.647	-108.254	-0.559	-0.120
-290.632	708.297	-0.035	0.091
-289.618	-114.856	-0.210	-0.040
-288.603	-31.678	-0.152	-0.084
-287.589	-150.572	0.229	-0.017
-286.574	416.766	-0.085	0.180
-285.559	-71.228	-0.166	-0.062
-284.545	308.730	0.175	-0.323
-283.530	-200.000	-0.057	0.374
-282.516	470.747	0.047	-0.103
-281.501	164.250	-0.154	0.215
-280.486	-200.000	-0.049	-0.369
-279.472	55.345	-0.277	0.265
-278.457	800.000	-0.063	0.187
-277.443	-75.347	-0.105	0.037
-276.428	-114.149	0.434	0.083
-275.413	48.383	-0.242	0.224
-274.399	775.065	0.073	0.197
-273.384	120.209	0.130	-0.160
-272.370	-200.000	-0.013	-0.189
-271.355	182.212	-0.154	0.224
-270.340	136.484	0.078	0.101
-269.326	800.000	-0.093	0.271
-268.311	145.886	-0.159	0.211
-267.297	231.545	-0.048	-0.077
-266.282	-19.250	0.199	-0.122
-265.267	643.119	-0.093	0.235
-264.253	800.000	0.076	0.216
-263.238	800.000	-0.045	0.141
-262.224	-149.899	0.135	-0.010
-261.209	-171.983	0.316	0.010
-260.195	-5.074	0.220	-0.150
-259.180	-18.368	-0.121	-0.075
-258.165	-67.214	-0.190	-0.074
-257.151	43.386	-0.349	-0.315
-256.136	100.025	-0.069	0.079
-255.122	258.155	0.103	0.175
-254.107	-200.000	-0.086	-0.389
-253.092	800.000	-0.034	-0.100
-252.078	589.322	-0.046	-0.111
-251.063	247.697	-0.161	0.268
-250.049	800.000	-0.054	0.217
-249.034	-200.000	-0.014	-0.192
-248.019	2.865	-0.135	0.097
-247.005	500.929	-0.053	-0.121
-245.990	-200.000	0.070	0.402
-244.976	-116.442	0.172	-0.031
-243.961	17.230	-0.224	-0.175
-242.946	137.138	0.033	-0.042
-241.932	75.454	0.243	0.253
-240.917	25.731	-0.221	-0.182
-239.903	-200.000	0.044	0.356
-238.888	-144.079	-0.261	-0.024
-237.873	-84.552	0.535	0.166
-236.859	-93.526	-0.064	0.018
-235.844	-87.276	-0.073	0.022
-234.830	-89.344	0.197	-0.057
-233.815	20.699	0.266	-0.213
-232.800	212.055	-0.087	0.135
-231.786	-126.290	0.102	-0.015
-230.771	247.370	-0.068	-0.114
-229.757	27.135	-0.101	0.084
-228.742	-98.938	-0.146	0.037
-227.727	-91.749	-0.076	-0.021
-226.713	237.562	0.092	-0.150
-225.698	633.638	-0.030	0.075
-224.684	-148.958	-0.314	-0.025
-223.669	-67.893	-0.130	-0.050
-222.655	800.000	-0.120	0.337
-221.640	-200.000	-0.019	0.112
-220.625	-200.000	0.015	-0.128
-219.611	61.831	0.248	-0.243
-218.596	800.000	0.033	-0.141
-217.582	-79.680	-0.104	0.035
-216.567	-77.452	-0.138	-0.047
-215.552	-134.642	0.064	-0.008
-214.538	-110.651	-0.293	0.060
-213.523	314.443	0.077	0.142
-212.509	10.476	0.093	0.070
-211.494	-43.260	-0.250	0.125
-210.479	-173.932	-0.222	0.006
-209.465	-200.000	-0.003	0.131
-208.450	-50.595	-0.344	0.160
-207.436	-3.181	-0.050	0.034
-206.421	-71.930	0.214	0.079
-205.406	800.000	-0.077	-0.306
-204.392	800.000	-0.021	0.076
-203.377	-200.000	0.097	-0.422
-202.363	58.773	0.060	-0.058
-201.348	376.466	0.088	-0.177
-200.333	-200.000	-0.019	-0.201
-199.319	-166.945	-0.296	0.012
-198.304	-200.000	-0.012	-0.257
-197.290	-87.138	0.565	-0.169
-196.275	228.049	-0.067	-0.108
-195.260	-36.531	0.187	-0.099
-194.246	337.732	-0.228	-0.438
-193.231	10.091	0.096	0.072
-192.217	-75.852	0.091	0.032
-191.202	112.448	0.216	-0.258
-190.187	100.221	0.239	-0.273
-189.173	-200.000	0.006	0.106
-188.158	-123.316	0.339	-0.053
-187.144	-3.754	0.130	0.089
-186.129	-84.458	0.456	-0.142
-185.114	-143.393	-0.114	-0.011
-184.100	-200.000	0.016	0.185
-183.085	24.066	0.037	-0.030
-182.071	-115.662	0.145	-0.027
-181.056	-84.651	-0.416	0.129
-180.042	-73.561	-0.076	0.027
-179.027	-159.602	0.183	-0.010
-178.012	-175.025	-0.197	-0.005
-176.998	96.509	0.094	0.106
-175.983	-156.675	0.242	0.015
-174.969	55.009	0.334	0.318
-173.954	-41.674	-0.252	-0.127
-172.939	-2.375	0.191	-0.132
-171.925	44.027	0.036	0.033
-170.910	-148.154	-0.371	-0.030
-169.896	800.000	-0.075	0.225
-168.881	290.553	-0.118	0.211
-167.866	-105.346	0.114	0.026
-166.852	800.000	-0.010	0.033
-165.837	800.000	0.158	-0.446
-164.823	200.853	0.074	-0.113
-163.808	-25.149	0.112	-0.065
-162.793	-200.000	-0.027	-0.233
-161.779	800.000	-0.031	0.124
-160.764	800.000	-0.029	-0.080
-159.750	465.822	-0.038	0.084
-158.735	-127.961	-0.125	0.018
-157.720	-105.315	-0.284	-0.064
-156.706	800.000	-0.072	0.205
-155.691	-200.000	-0.006	0.320
-154.677	-200.000	-0.031	-0.184
-153.662	-100.112	0.448	0.110
-152.647	-200.000	0.022	-0.277
-151.633	-108.302	0.319	-0.068
-150.618	209.701	-0.208	-0.321
-149.604	0.032	-0.400	-0.280
-148.589	239.883	-0.128	-0.209
-147.574	-104.881	-0.135	0.030
-146.560	7.247	-0.125	0.092
-145.545	-112.744	-0.231	-0.045
-144.531	-200.000	-0.086	-0.454
-143.516	628.481	0.047	0.118
-142.502	4.611	-0.235	-0.170
-141.487	139.612	0.066	-0.086
-140.472	-60.776	-0.164	-0.068
-139.458	-75.489	0.398	0.139
-138.443	121.634	0.281	0.344
-137.429	-114.880	0.120	0.022
-136.414	95.103	0.206	-0.230
-135.399	29.111	-0.192	-0.160
-134.385	297.019	0.118	-0.213
-133.370	-200.000	0.070	0.436
-132.356	-26.966	-0.106	0.061
-131.341	769.218	0.070	-0.186
-130.326	346.787	0.063	0.122
-129.312	-14.621	0.041	0.026
-128.297	90.643	0.109	-0.119
-127.283	800.000	-0.049	0.183
-126.268	-16.186	0.186	0.116
-125.253	-200.000	-0.024	-0.143
-124.239	11.103	0.251	0.188
-123.224	105.441	0.178	0.207
-122.210	64.039	-0.150	0.148
-121.195	-188.647	0.166	-0.002
-120.180	201.801	0.231	-0.350
-119.166	-200.000	0.006	-0.076
-118.151	19.281	0.179	-0.141
-117.137	-47.751	0.063	-0.030
-116.122	-66.598	-0.046	0.018
-115.107	206.353	-0.241	-0.368
-114.093	-18.264	-0.202	0.124
-113.078	-129.791	0.208	0.028
-112.064	785.181	0.028	-0.076
-111.049	-75.477	0.089	-0.031
-110.034	-56.510	-0.259	-0.113
-109.020	407.285	0.130	-0.270
-108.005	-97.060	0.372	0.096
-106.991	706.955	0.028	0.073
-105.976	800.000	-0.076	0.214
-104.962	0.946	0.295	-0.208
-103.947	-161.955	-0.085	0.004
-102.932	-200.000	-0.006	-0.055
-101.918	92.072	-0.165	0.182
-100.903	-176.799	0.295	-0.007
-99.889	-200.000	-0.042	-0.214
-98.874	800.000	0.048	-0.164
-97.859	-133.892	0.137	0.017
-96.845	-200.000	-0.003	-0.034
-95.830	-161.515	-0.166	-0.008
-94.816	140.225	0.140	-0.182
-93.801	44.754	0.147	-0.133
-92.786	2.028	0.234	-0.166
-91.772	-56.974	-0.254	-0.110
-90.757	66.687	0.180	0.180
-89.743	173.072	0.099	0.141
-88.728	-200.000	0.030	0.153
-87.713	-143.177	0.075	0.007
-86.699	101.463	0.157	-0.179
-85.684	287.705	0.266	0.472
-84.670	224.201	-0.152	-0.241
-83.655	385.660	-0.220	-0.445
-82.640	-28.351	-0.156	0.088
-81.626	381.524	-0.122	0.246
-80.611	550.243	-0.236	0.556
-79.597	-200.000	-0.023	-0.144
-78.582	1.047	-0.154	-0.108
-77.567	-121.180	0.172	-0.028
-76.553	-200.000	-0.009	0.206
-75.538	-50.979	-0.489	-0.225
-74.524	-190.312	-0.228	-0.002
-73.509	63.375	-0.342	0.336
-72.494	-99.038	0.128	-0.032
-71.480	193.596	-0.060	0.089
-70.465	78.968	0.209	-0.220
-69.451	-86.494	-0.371	0.112
-68.436	43.929	0.073	0.065
-67.422	91.254	0.257	-0.283
-66.407	274.590	-0.096	0.167
-65.392	-91.048	-0.314	-0.088
-64.378	-79.500	0.263	0.087
-63.363	-200.000	-0.005	-0.334
-62.349	6.778	-0.043	0.031
-61.334	201.074	-0.810	-1.222
-60.319	-37.335	0.749	0.392
-59.305	666.438	-0.495	-1.253
-58.290	800.000	0.333	1.182
-57.276	317.631	0.859	1.592
-56.261	-200.000	106.701	594.279
-55.246	499.736	1502.585	3395.405
-54.232	174.209	2711.567	3840.252
-53.217	103.309	2311.537	2656.425
-52.203	37.823	1915.325	1667.522
-51.188	31.841	1701.005	1435.242
-50.173	29.315	1657.015	1379.201
-49.159	47.913	1711.681	1566.681
-48.144	47.961	1726.908	1580.914
-47.130	31.334	1684.099	1416.909
-46.115	28.728	1669.577	1385.012
-45.100	28.722	1663.768	1380.091
-44.086	28.543	1661.753	1377.021
-43.071	28.539	1658.916	1374.587
-42.057	28.448	1656.730	1372.042
-41.042	28.542	1654.424	1370.783
-40.027	28.577	1652.870	1369.698
-39.013	28.534	1650.741	1367.557
-37.998	28.518	1649.222	1366.131
-36.984	28.575	1647.792	1365.310
-35.969	28.663	1646.265	1364.649
-34.954	28.645	1644.967	1363.384
-33.940	28.638	1643.290	1361.888
-32.925	28.704	1641.381	1360.738
-31.911	28.732	1639.201	1359.086
-30.896	28.702	1637.683	1357.550
-29.881	28.661	1636.399	1356.133
-28.867	28.598	1634.991	1354.442
-27.852	28.785	1632.739	1353.906
-26.838	28.739	1631.472	1352.458
-25.823	28.758	1630.161	1351.461
-24.809	28.816	1628.950	1350.831
-23.794	28.764	1627.657	1349.322
-22.779	28.828	1625.593	1348.025
-21.765	28.647	1624.214	1345.507
-20.750	28.678	1622.395	1344.173
-19.736	28.708	1621.660	1343.726
-18.721	28.810	1619.666	1342.766
-17.706	28.597	1619.078	1340.669
-16.692	28.730	1616.846	1339.737
-15.677	28.725	1615.484	1338.523
-14.663	28.706	1614.106	1337.187
-13.648	28.719	1612.798	1336.148
-12.633	28.634	1611.609	1334.488
-11.619	28.676	1610.020	1333.424
-10.604	28.752	1608.326	1332.522
-9.590	28.718	1606.991	1331.119
-8.575	28.720	1606.107	1330.344
-7.560	28.732	1604.567	1329.102
-6.546	28.672	1603.444	1327.688
-5.531	28.723	1602.349	1327.099
-4.517	28.707	1601.159	1325.941
-3.502	28.716	1600.175	1325.141
-2.487	28.767	1598.696	1324.227
-1.473	28.685	1587.441	1314.270
-0.458	26.663	1569.045	1284.663
0.556	24.747	1571.452	1258.494
1.571	22.825	1596.207	1264.455
2.586	22.339	1609.758	1271.564
3.600	19.543	1553.057	1207.147
4.615	11.221	1442.200	1066.625
5.629	4.704	1380.520	979.977
6.644	3.748	1373.160	968.673
7.659	3.704	1371.772	967.337
8.673	3.598	1370.806	965.904
9.688	3.610	1369.061	964.664
10.702	3.614	1365.990	962.437
11.717	6.730	1372.059	986.119
12.731	14.632	1387.052	1046.534
13.746	19.923	1395.287	1085.936
14.761	20.410	1394.046	1087.930
15.775	19.649	1392.543	1081.898
16.790	18.540	1390.045	1072.926
17.804	17.760	1387.609	1066.074
18.819	17.465	1386.076	1062.961
19.834	17.348	1384.773	1061.135
20.848	17.080	1383.570	1058.454
21.863	16.919	1382.598	1056.609
22.877	16.796	1381.239	1054.712
23.892	16.670	1380.819	1053.517
24.907	16.729	1379.185	1052.539
25.921	16.630	1378.946	1051.650
26.936	16.820	1377.660	1051.760
27.950	16.660	1376.853	1050.054
28.965	16.916	1375.597	1050.593
29.980	16.928	1375.071	1050.170
30.994	17.087	1373.301	1049.707
32.009	17.148	1372.508	1049.386
33.023	17.019	1371.321	1047.587
34.038	17.032	1369.462	1046.159
35.053	16.936	1368.594	1044.811
36.067	16.941	1367.385	1043.827
37.082	16.970	1366.335	1043.111
38.096	17.030	1365.708	1042.909
39.111	17.022	1365.052	1042.264
40.126	16.967	1363.879	1040.939
41.140	16.611	1363.615	1038.460
42.155	16.644	1362.670	1037.852
43.169	16.528	1362.588	1036.985
44.184	16.575	1362.241	1036.919
45.199	16.603	1361.544	1036.466
46.213	16.658	1361.548	1036.716
47.228	16.918	1359.922	1036.975
48.242	16.958	1359.235	1036.609
49.257	16.875	1357.610	1034.768
50.271	16.781	1356.228	1033.049
51.286	16.902	1354.657	1032.501
52.301	16.890	1353.465	1031.428
53.315	16.835	1352.284	1030.101
54.330	16.724	1351.147	1028.470
55.344	16.691	1350.191	1027.453
56.359	16.697	1349.171	1026.622
57.374	16.734	1347.955	1025.828
58.388	16.556	1347.796	1024.537
59.403	16.496	1347.225	1023.652
60.417	16.527	1346.302	1023.045
61.432	16.583	1344.606	1022.006
62.447	16.516	1344.243	1021.236
63.461	16.413	1343.042	1019.607
64.476	16.485	1341.726	1018.953
65.490	16.495	1340.534	1018.021
66.505	16.483	1339.267	1016.894
67.520	16.443	1338.080	1015.663
68.534	16.497	1337.134	1015.182
69.549	16.577	1335.670	1014.458
70.563	16.497	1334.805	1013.234
71.578	16.342	1333.948	1011.565
72.593	16.375	1332.688	1010.717
73.607	16.366	1332.118	1010.137
74.622	16.363	1331.363	1009.458
75.636	16.387	1330.669	1008.990
76.651	16.388	1330.059	1008.444
77.666	16.473	1329.461	1008.406
78.680	16.411	1329.182	1007.739
79.695	16.448	1328.460	1007.323
80.709	16.538	1327.458	1007.004
81.724	16.542	1327.082	1006.658
82.739	16.679	1325.899	1006.483
83.753	16.808	1325.172	1006.611
84.768	16.916	1323.902	1006.200
85.782	16.987	1323.212	1006.005
86.797	16.895	1321.822	1004.316
87.812	16.722	1320.914	1002.512
88.826	16.786	1319.810	1001.966
89.841	16.992	1318.515	1002.111
90.855	16.963	1317.680	1001.214
91.870	16.959	1316.886	1000.497
92.884	17.009	1316.043	1000.063
93.899	17.014	1314.879	999.123
94.914	17.139	1314.575	999.536
95.928	17.024	1313.917	998.269
96.943	16.971	1312.772	996.999
97.957	16.932	1312.145	996.206
98.972	16.946	1310.778	995.164
99.987	16.988	1310.009	994.737
101.001	16.989	1308.656	993.632
102.016	16.970	1307.687	992.695
103.030	17.008	1306.632	992.026
104.045	17.021	1305.556	991.200
105.060	16.830	1304.708	989.354
106.074	16.713	1303.362	987.563
107.089	16.633	1301.690	985.741
108.103	16.486	1300.038	983.550
109.118	16.511	1299.227	982.994
110.133	16.488	1297.676	981.599
111.147	16.564	1296.416	981.003
112.162	16.643	1294.960	980.271
113.176	16.595	1293.801	979.028
114.191	16.672	1293.029	978.804
115.206	16.578	1292.137	977.496
116.220	16.594	1290.363	976.164
117.235	16.632	1289.315	975.503
118.249	16.702	1287.882	974.734
119.264	16.646	1287.144	973.767
120.279	16.552	1285.878	972.181
121.293	16.447	1285.566	971.260
122.308	16.460	1284.238	970.245
123.322	16.448	1282.660	968.897
124.337	16.437	1281.729	968.044
125.352	16.462	1280.664	967.297
126.366	16.476	1279.681	966.548
127.381	16.400	1278.625	965.229
128.395	16.477	1277.408	964.668
129.410	16.545	1276.744	964.468
130.424	16.625	1275.961	964.248
131.439	16.640	1274.865	963.416
132.454	16.681	1274.104	962.990
133.468	16.642	1273.338	962.104
134.483	16.670	1272.636	961.649
135.497	16.592	1271.657	960.383
136.512	16.686	1270.032	959.604
137.527	16.623	1269.310	958.616
138.541	16.693	1267.474	957.542
139.556	16.806	1266.175	957.109
140.570	16.830	1265.392	956.572
141.585	16.967	1263.776	956.040
142.600	16.957	1262.932	955.258
143.614	17.045	1261.848	954.851
144.629	16.983	1261.358	954.046
145.643	17.058	1259.453	952.943
146.658	16.929	1258.399	951.335
147.673	16.807	1256.800	949.358
148.687	16.786	1255.606	948.256
149.702	16.764	1254.293	947.057
150.716	16.740	1253.429	946.186
151.731	16.705	1251.790	944.672
152.746	16.744	1250.815	944.071
153.760	16.817	1249.564	943.449
154.775	16.973	1248.576	943.485
155.789	17.012	1247.646	942.913
156.804	16.915	1247.298	942.030
157.819	16.942	1245.864	941.013
158.833	16.972	1244.949	940.405
159.848	17.058	1244.047	940.118
160.862	17.028	1242.961	939.048
161.877	17.030	1241.518	937.883
162.892	16.859	1240.377	935.999
163.906	16.848	1239.387	935.104
164.921	16.829	1238.247	934.056
165.935	16.846	1237.750	933.697
166.950	16.918	1237.012	933.449
167.964	16.995	1236.213	933.190
168.979	16.953	1235.701	932.487
169.994	16.952	1234.921	931.812
171.008	16.888	1234.054	930.724
172.023	17.005	1233.648	930.977
173.037	17.217	1232.557	931.233
174.052	17.127	1231.411	929.794
175.067	16.936	1230.467	927.956
176.081	16.958	1229.376	927.170
177.096	16.898	1228.485	926.090
178.110	16.934	1227.454	925.422
179.125	17.064	1225.953	924.921
180.140	16.980	1224.865	923.562
181.154	16.996	1224.092	922.982
182.169	17.097	1222.586	922.315
183.183	17.232	1221.427	922.089
184.198	17.272	1220.203	921.303
185.213	17.176	1219.523	920.187
186.227	17.282	1218.255	919.723
187.242	17.235	1217.417	918.753
188.256	17.215	1216.453	917.835
189.271	17.349	1215.318	917.625
190.286	17.127	1214.476	915.711
191.300	16.830	1213.494	913.287
192.315	16.871	1212.577	912.736
193.329	16.834	1211.831	911.895
194.344	17.010	1211.356	912.403
195.359	17.055	1210.597	911.991
196.373	17.100	1210.494	912.078
197.388	17.308	1209.666	912.491
198.402	17.443	1209.426	912.949
199.417	17.474	1208.881	912.627
200.432	17.601	1208.106	912.641
201.446	17.635	1207.054	911.947
202.461	17.689	1206.051	911.399
203.475	17.606	1205.581	910.517
204.490	17.489	1204.180	908.756
205.504	17.353	1203.121	907.147
206.519	17.477	1201.415	906.444
207.534	17.265	1200.772	904.749
208.548	17.442	1199.567	904.701
209.563	17.488	1198.528	904.082
210.577	17.422	1197.670	903.005
211.592	17.439	1197.157	902.628
212.607	17.446	1196.239	901.896
213.621	17.667	1195.037	902.076
214.636	17.598	1193.728	900.646
215.650	17.572	1193.128	899.973
216.665	17.625	1192.434	899.650
217.680	17.779	1191.624	899.773
218.694	17.734	1190.824	898.850
219.709	17.800	1190.162	898.622
220.723	17.749	1189.190	897.540
221.738	17.621	1188.844	896.527
222.753	17.726	1187.981	896.348
223.767	17.622	1187.187	895.120
224.782	17.826	1186.449	895.559
225.796	17.887	1185.754	895.274
226.811	17.833	1185.741	894.901
227.826	17.832	1184.501	893.882
228.840	17.810	1183.415	892.868
229.855	17.759	1182.860	892.104
230.869	17.731	1181.731	891.027
231.884	17.782	1181.050	890.698
232.899	17.662	1180.361	889.475
233.913	17.643	1179.653	888.762
234.928	17.548	1178.829	887.571
235.942	17.617	1177.933	887.173
236.957	17.581	1176.804	886.062
237.972	17.719	1176.283	886.309
238.986	17.668	1175.644	885.480
240.001	17.627	1175.250	884.891
241.015	17.767	1174.263	884.796
242.030	17.822	1173.213	884.211
243.045	17.818	1172.522	883.597
244.059	17.836	1172.061	883.259
245.074	17.731	1171.461	882.187
246.088	17.868	1170.102	881.793
247.103	17.967	1169.237	881.578
248.117	18.071	1168.887	881.772
249.132	18.149	1168.156	881.541
250.147	18.366	1167.348	881.975
251.161	18.301	1167.152	881.413
252.176	18.380	1166.610	881.332
253.190	18.594	1165.381	881.426
254.205	18.538	1164.968	880.746
255.220	18.356	1164.734	879.556
256.234	18.486	1164.012	879.599
257.249	18.441	1163.186	878.667
258.263	18.433	1162.647	878.142
259.278	18.557	1161.544	877.864
260.293	18.477	1161.355	877.236
261.307	18.557	1160.860	877.193
262.322	18.518	1160.700	876.794
263.336	18.492	1159.558	875.724
264.351	18.707	1158.659	876.064
265.366	18.722	1158.037	875.595
266.380	18.578	1157.499	874.373
267.395	18.490	1156.560	873.139
268.409	18.437	1155.906	872.296
269.424	18.606	1154.979	872.380
270.439	18.511	1154.465	871.431
271.453	18.427	1153.778	870.411
272.468	18.370	1152.772	869.288
273.482	18.396	1151.686	868.519
274.497	18.414	1151.349	868.284
275.512	18.474	1150.728	868.039
276.526	18.493	1149.926	867.457
277.541	18.529	1149.048	866.900
278.555	18.502	1148.719	866.435
279.570	18.557	1148.001	866.099
280.585	18.881	1146.692	866.667
281.599	18.695	1146.136	865.231
282.614	18.607	1145.231	864.028
283.628	18.602	1144.320	863.238
284.643	18.515	1143.382	862.018
285.657	18.633	1142.275	861.702
286.672	18.643	1141.456	861.055
287.687	18.768	1140.299	860.734
288.701	18.650	1139.639	859.566
289.716	18.646	1138.889	858.908
290.730	18.693	1138.501	858.773
291.745	18.743	1137.414	858.127
292.760	18.710	1137.004	857.575
293.774	18.826	1136.497	857.698
294.789	18.967	1136.173	858.081
295.803	18.869	1135.233	856.806
296.818	18.817	1134.449	855.880
297.833	18.842	1133.209	854.995
298.847	18.800	1132.576	854.233
299.862	18.807	1132.073	853.809
300.876	18.839	1131.555	853.504
301.891	18.934	1130.528	853.123
302.906	19.025	1129.831	852.977
303.920	19.078	1129.269	852.740
304.935	19.025	1129.257	852.390
305.949	19.247	1127.925	852.410
306.964	19.267	1127.566	852.162
307.979	19.044	1127.269	850.759
308.993	19.072	1126.145	849.975
310.008	19.282	1125.036	850.096
311.022	19.280	1124.392	849.526
312.037	19.170	1123.288	848.073
313.052	19.143	1122.319	847.134
314.066	18.990	1121.324	845.558
315.081	18.997	1120.256	844.709
316.095	18.931	1119.620	843.834
317.110	18.880	1119.245	843.223
318.125	18.727	1119.051	842.252
319.139	18.883	1118.095	842.224
320.154	18.897	1117.150	841.506
321.168	18.981	1116.755	841.544
322.183	19.069	1115.722	841.121
323.197	18.901	1116.000	840.438
324.212	19.070	1114.569	840.109
325.227	19.023	1114.318	839.619
326.241	19.070	1113.499	839.153
327.256	19.105	1112.613	838.585
328.270	18.970	1111.828	837.261
329.285	18.944	1110.968	836.410
330.300	19.164	1109.855	836.567
331.314	19.055	1108.902	835.248
332.329	19.075	1108.069	834.643
333.343	19.132	1107.193	834.186
334.358	19.213	1106.356	833.873
335.373	19.284	1105.778	833.708
336.387	19.320	1104.875	833.128
337.402	19.308	1104.233	832.509
338.416	19.178	1103.859	831.526
339.431	19.341	1103.127	831.689
340.446	19.492	1102.398	831.794
341.460	19.474	1101.895	831.252
342.475	19.605	1100.978	831.119
343.489	19.744	1099.701	830.749
344.504	19.587	1099.278	829.601
345.519	19.637	1098.529	829.204
346.533	19.717	1097.734	828.913
347.548	19.820	1096.853	828.670
348.562	19.764	1096.153	827.800
349.577	19.644	1095.218	826.444
350.592	19.538	1094.161	825.067
351.606	19.484	1093.253	824.053
352.621	19.429	1092.764	823.349
353.635	19.484	1092.013	822.969
354.650	19.432	1091.452	822.229
355.665	19.550	1090.523	822.016
356.679	19.601	1089.909	821.723
357.694	19.518	1089.869	821.229
358.708	19.613	1089.048	820.988
359.723	19.703	1088.554	820.969
360.738	19.685	1087.809	820.250
361.752	19.665	1087.006	819.476
362.767	19.731	1086.557	819.381
363.781	19.757	1086.101	819.085
364.796	19.843	1085.703	819.118
365.810	19.930	1084.814	818.787
366.825	19.890	1084.515	818.302
367.840	19.984	1084.282	818.496
368.854	20.025	1083.340	817.908
369.869	19.994	1082.485	817.043
370.883	20.004	1081.529	816.299
371.898	19.958	1080.790	815.452
372.913	19.984	1080.162	815.028
373.927	19.971	1079.836	814.648
374.942	20.046	1079.487	814.666
375.956	20.096	1078.840	814.337
376.971	20.077	1078.208	813.702
377.986	20.130	1077.524	813.360
379.000	20.160	1076.997	813.034
380.015	20.310	1076.491	813.280
381.029	20.291	1075.851	812.636
382.044	20.154	1075.230	811.456
383.059	20.216	1074.574	811.175
384.073	20.244	1073.488	810.419
385.088	20.222	1072.451	809.457
386.102	20.284	1071.612	809.045
387.117	20.333	1070.212	808.142
388.132	20.098	1069.360	806.335
389.146	20.063	1068.839	805.709
390.161	20.042	1067.956	804.872
391.175	20.048	1067.588	804.552
392.190	20.249	1066.521	804.608
393.205	20.283	1065.912	804.237
394.219	20.245	1065.434	803.630
395.234	20.167	1064.404	802.418
396.248	20.159	1063.461	801.601
397.263	20.198	1062.162	800.732
398.278	20.130	1061.474	799.826
399.292	19.987	1061.311	798.974
400.307	20.000	1059.844	797.859
401.321	20.040	1059.614	797.802
402.336	20.027	1058.785	797.043
403.350	20.073	1058.432	796.922
404.365	20.147	1057.691	796.631
405.380	20.225	1056.996	796.395
406.394	20.296	1056.372	796.181
407.409	20.369	1055.407	795.719
408.423	20.530	1054.921	796.022
409.438	20.472	1054.245	795.175
410.453	20.597	1053.736	795.293
411.467	20.621	1052.325	794.263
412.482	20.664	1051.759	793.962
413.496	20.603	1051.774	793.626
414.511	20.733	1051.122	793.658
415.526	20.854	1050.260	793.490
416.540	20.909	1050.069	793.523
417.555	20.727	1049.632	792.294
418.569	20.860	1048.923	792.294
419.584	20.702	1048.526	791.207
420.599	20.690	1047.653	790.424
421.613	154.252	1402.771	1793.818
422.628	141.377	1454.497	1793.929
