DTS Sentinel unit serial number:	SN413079Multiplexer serial number:	ORYXHardware model number:	OX4-SRSoftware version number:	ORYX F/W v4.00 Oryx Data Collector v3.7.2.0data status	okinstallation	princeton_trtdifferential loss correction	single-endedforward channel	channel 2reverse channel	N/Adate	2019/09/16time	02:51:34forward acquisition time	60.00reverse acquisition time	0.00gamma	496.2192k internal	0.2334k external	0.2334temperature offset calibration	0.9970default loss term (dB/km)	0.3790temperature slope calibration	1.0000multiplexer offset coefficient	1.0000multiplexer slope coefficient	1.0000fibre end	0.00T internal ref (°C)	27.75T ext. ref 1 (°C)	10.36T ext. ref 2 (°C)	22.20length (m)	temperature (°C)	Stokes	anti-Stokes-747.200	-2.127	0.100	-0.070
-746.185	-160.424	-0.267	-0.014
-745.171	644.846	0.049	0.126
-744.156	135.250	-0.096	0.125
-743.142	-51.179	0.130	-0.061
-742.127	-5.013	-0.157	-0.109
-741.112	213.576	0.192	0.304
-740.098	-200.000	-0.026	0.163
-739.083	486.118	-0.098	0.224
-738.069	368.508	0.183	0.371
-737.054	-98.283	-0.216	0.056
-736.039	-30.659	-0.070	0.040
-735.025	-200.000	0.018	0.201
-734.010	-162.560	0.384	-0.019
-732.996	-77.885	-0.178	0.062
-731.981	-126.482	-0.033	0.005
-730.966	109.229	0.058	0.069
-729.952	800.000	0.052	-0.149
-728.937	-200.000	0.161	-0.000
-727.923	9.555	-0.273	-0.208
-726.908	-61.627	-0.262	0.111
-725.894	-69.382	0.076	-0.029
-724.879	-200.000	0.017	-0.097
-723.864	800.000	0.084	-0.279
-722.850	-99.358	0.298	0.075
-721.835	-78.774	-0.158	-0.054
-720.821	-79.464	-0.342	0.116
-719.806	-200.000	-0.058	-0.513
-718.791	-48.258	-0.308	-0.149
-717.777	-11.199	-0.299	-0.198
-716.762	156.680	-0.148	-0.205
-715.748	-110.495	0.114	-0.024
-714.733	1.421	0.088	-0.063
-713.718	800.000	0.103	-0.295
-712.704	-103.723	0.181	-0.043
-711.689	800.000	0.106	0.335
-710.675	34.503	0.120	-0.105
-709.660	415.124	0.136	0.291
-708.645	515.921	0.028	0.065
-707.631	510.815	-0.062	-0.144
-706.616	-173.110	0.133	-0.004
-705.602	68.195	-0.102	-0.105
-704.587	-200.000	0.041	0.299
-703.572	-61.164	-0.096	0.041
-702.558	793.542	0.100	-0.277
-701.543	-8.779	-0.248	-0.167
-700.529	243.271	-0.057	-0.096
-699.514	-4.407	-0.193	0.134
-698.499	432.198	-0.112	-0.244
-697.485	720.287	0.044	0.117
-696.470	-11.029	0.139	0.092
-695.456	128.850	-0.128	0.164
-694.441	-200.000	-0.000	-0.091
-693.426	-84.245	0.271	-0.086
-692.412	-200.000	0.016	-0.220
-691.397	168.209	-0.088	-0.126
-690.383	-200.000	0.011	0.065
-689.368	-200.000	-0.001	-0.228
-688.354	-15.632	0.233	-0.149
-687.339	109.692	0.020	-0.024
-686.324	-127.948	-0.569	0.082
-685.310	101.000	-0.293	0.341
-684.295	603.054	-0.108	0.270
-683.281	409.363	-0.116	-0.247
-682.266	379.294	0.107	-0.221
-681.251	-13.135	0.083	0.054
-680.237	-200.000	-0.027	0.368
-679.222	-115.766	-0.123	-0.023
-678.208	90.387	-0.145	-0.163
-677.193	-200.000	-0.015	0.507
-676.178	-200.000	0.015	0.069
-675.164	564.553	-0.113	0.275
-674.149	-133.397	-0.119	0.015
-673.135	-200.000	0.017	0.085
-672.120	-200.000	-0.026	-0.128
-671.105	789.850	0.035	0.095
-670.091	103.431	0.179	-0.211
-669.076	52.443	-0.056	0.054
-668.062	-152.892	0.437	-0.031
-667.047	-106.536	-0.319	-0.071
-666.032	85.095	0.180	0.197
-665.018	-20.031	-0.073	-0.045
-664.003	-15.399	-0.189	-0.121
-662.989	-71.746	0.088	0.033
-661.974	-76.709	-0.266	-0.094
-660.959	-55.220	0.035	0.016
-659.945	800.000	0.037	0.104
-658.930	558.750	0.084	0.203
-657.916	-93.825	-0.189	-0.052
-656.901	8.011	-0.273	0.205
-655.886	46.804	-0.139	0.130
-654.872	10.536	0.094	0.072
-653.857	10.834	0.314	0.240
-652.843	-200.000	0.038	0.220
-651.828	485.154	-0.065	0.147
-650.814	-169.306	0.230	-0.008
-649.799	-117.817	-0.354	-0.064
-648.784	-76.005	-0.367	0.130
-647.770	-200.000	-0.022	-0.154
-646.755	-97.004	0.176	-0.046
-645.741	-91.983	-0.324	-0.092
-644.726	-117.558	-0.269	0.049
-643.711	-200.000	0.011	-0.097
-642.697	227.573	-0.166	-0.271
-641.682	-45.157	0.397	0.198
-640.668	110.693	-0.334	0.402
-639.653	-137.542	-0.091	0.010
-638.638	-167.581	0.103	0.004
-637.624	800.000	-0.053	0.184
-636.609	-55.086	0.146	-0.066
-635.595	-87.456	0.160	-0.049
-634.580	78.187	-0.121	0.129
-633.565	14.539	-0.242	0.189
-632.551	-131.774	0.201	0.026
-631.536	-64.315	0.332	0.135
-630.522	-23.154	-0.120	-0.073
-629.507	61.499	0.068	0.068
-628.492	89.731	0.021	-0.023
-627.478	800.000	-0.103	0.310
-626.463	118.506	-0.142	-0.175
-625.449	-101.377	0.154	0.038
-624.434	108.331	0.155	0.185
-623.419	-29.045	-0.242	0.139
-622.405	800.000	-0.082	-0.289
-621.390	-98.800	-0.109	-0.028
-620.376	71.725	0.060	0.062
-619.361	-88.224	-0.072	0.022
-618.346	800.000	-0.104	0.425
-617.332	-94.015	-0.185	-0.051
-616.317	172.580	-0.173	0.249
-615.303	-200.000	-0.011	-0.347
-614.288	-109.723	-0.140	-0.030
-613.273	-41.705	-0.088	-0.045
-612.259	-155.936	-0.169	-0.011
-611.244	508.391	0.114	0.266
-610.230	83.151	-0.225	-0.245
-609.215	-179.914	-0.127	0.003
-608.201	332.447	-0.196	0.378
-607.186	800.000	0.078	0.247
-606.171	37.893	-0.457	-0.406
-605.157	263.770	0.081	-0.140
-604.142	-52.782	-0.024	0.011
-603.128	48.327	-0.378	0.354
-602.113	44.259	0.113	0.104
-601.098	-111.393	0.370	-0.075
-600.084	-162.347	-0.265	0.013
-599.069	469.755	-0.063	-0.141
-598.055	-140.180	-0.104	0.011
-597.040	-200.000	-0.009	-0.240
-596.025	786.425	-0.118	-0.324
-595.011	-69.824	-0.167	0.064
-593.996	-182.812	-0.035	-0.001
-592.982	-77.132	-0.131	-0.046
-591.967	-63.023	0.292	0.120
-590.952	-200.000	0.004	0.115
-589.938	-135.139	0.210	0.025
-588.923	-113.108	0.081	-0.016
-587.909	-200.000	-0.013	-0.340
-586.894	-64.360	-0.135	0.055
-585.879	45.001	-0.093	-0.085
-584.865	800.000	-0.094	0.333
-583.850	19.832	-0.058	0.047
-582.836	800.000	0.065	0.196
-581.821	-200.000	0.035	-0.268
-580.806	-200.000	-0.013	0.218
-579.792	-200.000	0.037	-0.340
-578.777	-200.000	-0.038	-0.239
-577.763	-186.134	0.175	-0.003
-576.748	207.790	0.162	0.252
-575.733	80.044	0.228	0.245
-574.719	-20.978	0.238	0.146
-573.704	-36.904	-0.325	-0.174
-572.690	426.742	-0.060	-0.129
-571.675	281.743	-0.218	0.390
-570.661	335.805	-0.159	-0.309
-569.646	800.000	-0.130	-0.390
-568.631	-200.000	-0.020	-0.268
-567.617	36.238	0.150	0.132
-566.602	776.537	-0.048	-0.130
-565.588	136.635	-0.036	-0.047
-564.573	-29.123	0.298	0.171
-563.558	518.469	-0.046	0.109
-562.544	-172.751	-0.326	-0.010
-561.529	36.292	-0.230	-0.203
-560.515	-162.341	-0.431	0.021
-559.500	-2.397	-0.103	-0.072
-558.485	800.000	-0.100	-0.292
-557.471	400.990	-0.062	0.130
-556.456	-152.900	-0.186	0.013
-555.442	-200.000	0.002	-0.302
-554.427	-58.485	0.418	-0.181
-553.412	76.054	-0.090	0.095
-552.398	-53.305	-0.195	0.089
-551.383	-169.657	0.237	0.009
-550.369	-49.350	-0.034	0.016
-549.354	-200.000	0.068	-0.374
-548.339	-200.000	0.036	0.375
-547.325	-40.547	0.268	-0.139
-546.310	-116.201	-0.269	0.050
-545.296	-200.000	0.020	-0.201
-544.281	-87.862	0.134	0.040
-543.266	134.727	-0.215	-0.278
-542.252	-96.517	0.205	-0.054
-541.237	-125.695	-0.103	-0.016
-540.223	-5.738	0.159	0.109
-539.208	-62.872	0.311	-0.128
-538.193	800.000	0.107	-0.342
-537.179	-200.000	0.019	-0.178
-536.164	794.020	-0.075	0.207
-535.150	-94.822	0.234	-0.063
-534.135	-73.920	0.095	-0.034
-533.121	-200.000	-0.024	0.192
-532.106	-45.042	0.184	0.091
-531.091	45.206	-0.118	0.108
-530.077	-89.556	-0.204	-0.060
-529.062	-17.417	-0.167	0.105
-528.048	-200.000	0.027	-0.158
-527.033	800.000	0.045	-0.134
-526.018	-33.814	-0.191	-0.105
-525.004	-48.886	-0.155	0.074
-523.989	-169.251	0.059	-0.002
-522.975	800.000	0.049	-0.142
-521.960	14.209	-0.197	0.153
-520.945	800.000	-0.039	0.159
-519.931	777.427	0.124	-0.338
-518.916	563.239	0.144	-0.348
-517.902	115.704	0.112	-0.137
-516.887	-200.000	0.056	-0.275
-515.872	-185.519	0.232	-0.004
-514.858	374.786	-0.161	-0.327
-513.843	-60.090	0.118	-0.050
-512.829	-200.000	0.043	0.218
-511.814	107.078	-0.208	0.246
-510.799	-91.718	-0.304	0.086
-509.785	123.519	-0.104	-0.130
-508.770	-130.480	0.121	0.016
-507.756	57.137	0.264	0.257
-506.741	6.345	0.180	0.133
-505.726	-200.000	-0.021	0.383
-504.712	800.000	-0.026	-0.084
-503.697	-53.691	0.154	-0.070
-502.683	-101.140	0.140	0.034
-501.668	-64.196	-0.165	-0.067
-500.653	-101.653	-0.001	-0.000
-499.639	-38.823	0.122	-0.064
-498.624	2.754	0.275	0.199
-497.610	100.846	0.025	0.029
-496.595	800.000	-0.107	-0.313
-495.581	-125.875	-0.227	-0.034
-494.566	-200.000	-0.002	-0.117
-493.551	-136.427	0.050	-0.006
-492.537	-32.326	-0.141	0.078
-491.522	800.000	0.053	-0.169
-490.508	0.727	-0.211	0.150
-489.493	41.559	-0.237	0.214
-488.478	-115.606	0.203	-0.038
-487.464	-51.766	0.323	0.150
-486.449	-200.000	0.001	0.227
-485.435	69.231	-0.164	0.168
-484.420	458.208	0.130	0.287
-483.405	544.816	-0.035	-0.083
-482.391	-100.927	0.190	0.047
-481.376	13.205	-0.044	-0.034
-480.362	-86.159	0.174	0.053
-479.347	-145.511	0.248	0.022
-478.332	-35.202	-0.243	-0.132
-477.318	432.296	-0.025	0.054
-476.303	-55.761	-0.179	-0.080
-475.289	268.317	0.100	0.175
-474.274	-157.213	-0.184	0.011
-473.259	-65.648	-0.243	-0.097
-472.245	-200.000	-0.010	-0.056
-471.230	310.202	0.141	-0.263
-470.216	800.000	0.136	0.534
-469.201	-155.231	-0.186	0.012
-468.186	-200.000	0.054	-0.246
-467.172	-98.247	-0.237	0.061
-466.157	-200.000	-0.002	0.260
-465.143	642.006	-0.128	-0.325
-464.128	-28.740	0.150	-0.086
-463.113	294.484	-0.155	0.281
-462.099	-61.144	-0.065	0.027
-461.084	-200.000	0.000	0.083
-460.070	-1.190	-0.265	-0.186
-459.055	-53.758	0.189	-0.086
-458.040	-55.659	0.192	0.086
-457.026	-9.658	0.058	0.038
-456.011	55.634	0.131	0.126
-454.997	-200.000	0.030	0.207
-453.982	104.639	-0.097	-0.114
-452.968	11.671	0.286	0.218
-451.953	-200.000	0.010	0.464
-450.938	-27.736	0.073	0.042
-449.924	800.000	-0.067	0.194
-448.909	-200.000	-0.002	-0.178
-447.895	800.000	-0.042	-0.143
-446.880	-200.000	0.001	0.293
-445.865	-190.494	-0.162	0.002
-444.851	-200.000	-0.015	0.154
-443.836	-73.453	-0.156	0.057
-442.822	120.266	-0.125	0.154
-441.807	-90.069	-0.222	-0.064
-440.792	700.049	0.070	0.183
-439.778	7.832	0.176	0.131
-438.763	-113.707	-0.117	-0.023
-437.749	162.170	0.068	0.095
-436.734	800.000	-0.065	-0.179
-435.719	-43.917	-0.091	-0.045
-434.705	800.000	-0.011	0.036
-433.690	-117.534	0.272	-0.049
-432.676	800.000	-0.092	0.365
-431.661	181.439	0.106	-0.155
-430.646	-114.719	0.500	0.095
-429.632	-75.108	0.556	0.197
-428.617	317.624	-0.037	-0.069
-427.603	37.909	-0.444	0.392
-426.588	800.000	0.103	-0.291
-425.573	112.023	0.170	0.204
-424.559	-123.165	-0.269	0.043
-423.544	82.221	0.082	-0.089
-422.530	276.562	-0.151	0.267
-421.515	3.985	0.069	0.050
-420.500	20.923	-0.328	0.264
-419.486	800.000	0.072	0.236
-418.471	-115.574	0.174	0.032
-417.457	800.000	-0.100	0.280
-416.442	800.000	0.033	-0.132
-415.428	-127.626	-0.433	-0.062
-414.413	800.000	0.089	-0.288
-413.398	-200.000	-0.060	-0.283
-412.384	-115.191	-0.186	-0.035
-411.369	-65.216	-0.125	-0.050
-410.355	765.329	-0.099	-0.268
-409.340	-103.875	-0.238	-0.055
-408.325	-200.000	0.024	0.274
-407.311	79.396	-0.199	0.212
-406.296	800.000	-0.037	-0.127
-405.282	70.373	0.077	0.079
-404.267	-84.721	0.274	-0.086
-403.252	762.509	-0.094	0.252
-402.238	92.918	0.122	0.136
-401.223	27.301	0.249	0.207
-400.209	-200.000	0.019	-0.119
-399.194	-200.000	-0.020	0.231
-398.179	69.817	0.045	0.046
-397.165	-63.291	0.308	-0.126
-396.150	-127.475	0.500	0.072
-395.136	138.646	-0.148	-0.193
-394.121	3.320	-0.282	0.203
-393.106	-21.528	0.406	-0.246
-392.092	800.000	-0.084	-0.293
-391.077	-108.928	-0.052	0.011
-390.063	89.259	0.133	0.147
-389.048	-26.461	-0.359	-0.209
-388.033	-200.000	0.001	-0.488
-387.019	-134.584	0.213	0.026
-386.004	30.911	0.101	-0.086
-384.990	-200.000	-0.001	-0.066
-383.975	-148.298	-0.319	-0.026
-382.960	-200.000	0.012	-0.334
-381.946	143.247	0.240	0.316
-380.931	-81.408	-0.160	-0.052
-379.917	-90.539	0.384	-0.110
-378.902	-116.861	-0.201	-0.037
-377.888	800.000	-0.075	0.231
-376.873	800.000	0.045	-0.192
-375.858	-14.051	-0.169	-0.108
-374.844	-162.611	0.247	-0.012
-373.829	48.853	-0.217	0.202
-372.815	800.000	0.058	-0.211
-371.800	-186.815	0.286	-0.004
-370.785	-141.668	-0.198	0.020
-369.771	142.469	0.201	0.264
-368.756	-102.852	-0.241	0.057
-367.742	-44.556	-0.062	-0.031
-366.727	147.280	0.164	0.218
-365.712	-87.018	-0.281	-0.085
-364.698	27.487	-0.178	0.148
-363.683	698.715	0.069	-0.180
-362.669	128.501	0.237	-0.299
-361.654	36.681	0.491	0.429
-360.639	-191.420	0.189	0.002
-359.625	-57.667	0.360	-0.156
-358.610	-167.093	-0.146	0.006
-357.596	-200.000	0.036	-0.368
-356.581	-85.112	-0.176	-0.054
-355.566	86.753	-0.159	-0.174
-354.552	-97.949	0.443	-0.113
-353.537	-200.000	-0.025	-0.333
-352.523	-88.992	0.301	0.088
-351.508	61.691	-0.149	-0.147
-350.493	638.597	-0.038	-0.097
-349.479	800.000	-0.094	-0.264
-348.464	123.194	0.117	0.146
-347.450	-200.000	0.014	-0.164
-346.435	70.578	0.198	-0.203
-345.420	36.776	0.129	0.113
-344.406	-200.000	-0.016	0.177
-343.391	2.937	-0.102	0.073
-342.377	-184.189	0.215	0.004
-341.362	403.688	-0.147	-0.306
-340.348	-119.877	-0.387	0.066
-339.333	47.093	-0.071	-0.065
-338.318	726.391	-0.047	-0.124
-337.304	-200.000	0.014	-0.110
-336.289	-22.441	-0.242	-0.145
-335.275	97.497	-0.106	-0.120
-334.260	800.000	-0.043	-0.155
-333.245	-30.706	0.072	0.040
-332.231	-0.855	0.275	-0.193
-331.216	-125.514	-0.326	-0.049
-330.202	59.187	0.163	0.158
-329.187	615.773	0.155	-0.385
-328.172	-68.474	0.379	0.145
-327.158	3.120	0.052	-0.037
-326.143	800.000	0.054	-0.154
-325.129	-42.272	-0.265	-0.134
-324.114	54.712	-0.227	-0.217
-323.099	-200.000	0.029	0.179
-322.085	45.983	0.183	0.168
-321.070	-200.000	-0.033	0.199
-320.056	194.149	0.201	0.302
-319.041	60.794	0.166	0.162
-318.026	-200.000	0.011	0.259
-317.012	-195.733	0.202	-0.001
-315.997	464.016	-0.057	0.126
-314.983	-200.000	-0.080	0.368
-313.968	-46.696	-0.291	-0.141
-312.953	61.307	0.035	0.034
-311.939	-200.000	-0.014	0.118
-310.924	-3.685	-0.218	-0.150
-309.910	266.455	-0.036	-0.063
-308.895	-200.000	-0.009	0.042
-307.880	14.663	-0.288	0.222
-306.866	800.000	-0.082	0.267
-305.851	82.996	-0.221	0.238
-304.837	-200.000	-0.014	0.215
-303.822	60.015	0.159	-0.155
-302.807	800.000	-0.089	0.384
-301.793	-79.436	-0.205	0.068
-300.778	-36.680	0.358	-0.190
-299.764	74.801	-0.136	0.142
-298.749	53.046	-0.114	-0.107
-297.735	95.844	0.079	-0.090
-296.720	263.303	0.103	0.176
-295.705	354.724	-0.069	-0.136
-294.691	33.914	0.429	-0.369
-293.676	-46.796	0.063	-0.030
-292.662	-200.000	-0.005	-0.338
-291.647	0.007	-0.105	0.074
-290.632	800.000	0.042	0.149
-289.618	-200.000	-0.046	0.489
-288.603	113.920	0.109	-0.131
-287.589	138.723	0.140	-0.181
-286.574	-114.145	0.169	0.032
-285.559	7.837	-0.129	-0.095
-284.545	-52.244	-0.096	0.044
-283.530	93.905	-0.028	0.031
-282.516	-0.461	-0.314	-0.220
-281.501	-99.963	-0.177	-0.043
-280.486	-200.000	0.034	0.230
-279.472	315.722	-0.086	0.159
-278.457	-195.556	-0.191	0.001
-277.443	-86.104	0.369	0.113
-276.428	109.013	0.375	0.443
-275.413	-22.657	0.337	0.201
-274.399	-39.509	0.075	0.039
-273.384	-200.000	-0.012	0.086
-272.370	167.727	0.126	-0.177
-271.355	800.000	-0.044	0.123
-270.340	-64.417	-0.262	0.105
-269.326	-200.000	-0.005	0.091
-268.311	24.841	0.016	-0.013
-267.297	243.394	-0.077	0.127
-266.282	602.408	0.101	-0.248
-265.267	-200.000	-0.006	-0.183
-264.253	-41.035	0.147	0.075
-263.238	-6.667	0.233	-0.156
-262.224	-200.000	0.056	0.275
-261.209	-27.900	-0.202	0.115
-260.195	276.850	-0.155	0.271
-259.180	263.790	0.178	-0.305
-258.165	270.190	-0.192	-0.332
-257.151	-177.008	0.100	0.002
-256.136	69.217	0.296	-0.301
-255.122	356.655	0.135	0.265
-254.107	-123.800	0.112	-0.017
-253.092	1.498	0.046	0.033
-252.078	155.469	-0.284	-0.386
-251.063	20.277	-0.097	-0.078
-250.049	218.308	-0.031	0.049
-249.034	3.344	0.218	0.157
-248.019	64.530	-0.051	0.051
-247.005	37.558	0.024	-0.021
-245.990	-200.000	0.048	0.307
-244.976	-85.447	0.292	-0.090
-243.961	-200.000	-0.048	-0.225
-242.946	179.572	0.075	-0.109
-241.932	-21.282	-0.394	-0.237
-240.917	-113.497	0.569	0.110
-239.903	-200.000	-0.015	-0.210
-238.888	223.631	-0.125	-0.199
-237.873	-200.000	0.017	0.191
-236.859	45.765	0.150	0.137
-235.844	-200.000	-0.001	0.010
-234.830	800.000	0.080	0.254
-233.815	-8.119	-0.071	0.047
-232.800	-64.398	0.073	-0.029
-231.786	-153.354	0.124	0.008
-230.771	-111.428	-0.088	-0.018
-229.757	115.078	-0.282	-0.339
-228.742	74.431	-0.122	-0.126
-227.727	-30.834	0.161	0.089
-226.713	799.096	0.030	-0.081
-225.698	239.060	-0.096	0.157
-224.684	-200.000	-0.044	0.197
-223.669	-62.990	0.117	0.048
-222.655	10.311	0.272	0.204
-221.640	-150.661	-0.108	-0.008
-220.625	-94.561	0.083	-0.022
-219.611	268.499	-0.111	-0.192
-218.596	800.000	0.094	-0.267
-217.582	392.318	-0.096	0.197
-216.567	-21.755	0.195	0.117
-215.552	-170.012	0.303	-0.011
-214.538	132.082	0.107	-0.135
-213.523	800.000	-0.133	0.389
-212.509	-200.000	0.006	0.228
-211.494	268.751	-0.243	0.419
-210.479	-142.499	0.202	0.020
-209.465	141.898	-0.107	0.140
-208.450	282.390	-0.040	0.071
-207.436	330.880	0.155	-0.294
-206.421	157.527	-0.266	0.362
-205.406	-1.161	0.169	-0.118
-204.392	-200.000	0.045	-0.213
-203.377	380.322	0.165	-0.333
-202.363	-92.924	0.111	-0.031
-201.348	-150.199	-0.133	0.010
-200.333	-200.000	-0.002	-0.111
-199.319	-86.527	-0.067	0.020
-198.304	-200.000	-0.039	-0.196
-197.290	-68.204	-0.099	-0.038
-196.275	-40.306	0.100	0.051
-195.260	211.552	-0.095	-0.147
-194.246	-27.651	0.132	-0.076
-193.231	-85.519	0.212	-0.065
-192.217	337.279	-0.086	-0.164
-191.202	-115.710	0.212	-0.039
-190.187	-80.469	-0.329	0.108
-189.173	-132.688	-0.161	-0.020
-188.158	-103.772	0.250	-0.058
-187.144	86.990	0.167	-0.181
-186.129	-200.000	0.019	0.318
-185.114	393.155	0.082	0.167
-184.100	-2.417	0.097	-0.067
-183.085	233.386	0.030	0.048
-182.071	-200.000	0.021	0.122
-181.056	120.959	0.077	-0.094
-180.042	-93.229	0.138	0.038
-179.027	25.468	0.337	-0.276
-178.012	-4.537	-0.194	0.132
-176.998	-195.414	-0.230	0.002
-175.983	-152.453	0.117	0.008
-174.969	-5.026	0.201	0.136
-173.954	800.000	0.145	-0.400
-172.939	137.389	-0.172	-0.221
-171.925	-109.150	-0.167	0.035
-170.910	-104.628	-0.062	0.014
-169.896	-200.000	-0.019	-0.295
-168.881	-52.135	0.271	0.124
-167.866	-200.000	-0.013	-0.328
-166.852	-200.000	-0.003	-0.170
-165.837	201.768	-0.103	0.155
-164.823	-84.923	0.189	-0.058
-163.808	457.296	0.107	0.233
-162.793	-112.352	-0.196	-0.039
-161.779	-130.211	-0.591	-0.079
-160.764	-76.171	-0.250	0.087
-159.750	273.082	0.160	-0.278
-158.735	-175.613	0.119	0.003
-157.720	17.799	-0.055	-0.043
-156.706	-98.448	-0.236	0.059
-155.691	-104.734	0.170	-0.038
-154.677	800.000	0.122	-0.345
-153.662	9.761	-0.184	0.137
-152.647	4.571	0.132	0.095
-151.633	-200.000	0.023	-0.195
-150.618	-43.197	0.137	-0.068
-149.604	-200.000	0.052	-0.347
-148.589	497.094	0.137	-0.309
-147.574	104.784	0.147	0.170
-146.560	77.438	0.296	-0.309
-145.545	132.935	-0.152	-0.193
-144.531	221.438	0.038	0.061
-143.516	-192.976	0.349	0.003
-142.502	272.120	-0.089	-0.154
-141.487	-200.000	0.042	0.372
-140.472	-22.355	0.184	-0.109
-139.458	-131.717	-0.107	0.014
-138.443	523.498	0.036	-0.083
-137.429	-57.059	0.298	0.129
-136.414	84.293	-0.030	0.032
-135.399	33.787	0.148	-0.126
-134.385	-178.522	0.198	0.004
-133.370	539.586	0.104	0.242
-132.356	-90.339	0.316	-0.090
-131.341	800.000	-0.034	-0.127
-130.326	206.180	-0.077	0.118
-129.312	346.079	-0.127	0.245
-128.297	-76.142	0.249	0.086
-127.283	800.000	0.027	0.092
-126.268	34.856	0.091	0.078
-125.253	97.414	0.115	0.129
-124.239	-200.000	-0.016	-0.192
-123.224	-200.000	0.075	-0.334
-122.210	-71.607	-0.095	-0.035
-121.195	355.762	-0.147	-0.287
-120.180	-200.000	0.038	0.226
-119.166	-11.564	0.166	-0.107
-118.151	800.000	0.125	0.456
-117.137	470.627	0.020	-0.044
-116.122	190.745	0.165	-0.243
-115.107	-114.308	-0.171	0.032
-114.093	800.000	-0.120	0.467
-113.078	-64.614	-0.159	0.063
-112.064	32.379	-0.149	-0.126
-111.049	249.800	0.063	-0.105
-110.034	-200.000	-0.002	0.062
-109.020	-15.331	-0.090	0.056
-108.005	-17.232	-0.098	0.060
-106.991	-161.170	-0.120	-0.006
-105.976	42.966	0.208	0.186
-104.962	65.523	-0.241	0.239
-103.947	220.695	-0.068	-0.108
-102.932	-101.393	-0.238	-0.057
-101.918	84.613	0.107	0.115
-100.903	-158.094	-0.118	0.007
-99.889	-44.446	0.063	-0.031
-98.874	255.561	-0.065	0.109
-97.859	481.964	0.065	-0.144
-96.845	-200.000	0.005	0.240
-95.830	-200.000	0.007	0.246
-94.816	-62.322	-0.335	-0.137
-93.801	-200.000	0.061	-0.445
-92.786	800.000	-0.014	0.050
-91.772	-28.750	-0.168	0.095
-90.757	-110.759	0.304	0.061
-89.743	-136.399	0.143	-0.016
-88.728	62.522	0.060	-0.058
-87.713	168.917	0.107	0.150
-86.699	800.000	-0.075	-0.273
-85.684	-200.000	-0.028	-0.184
-84.670	-39.165	0.340	0.175
-83.655	-200.000	0.005	0.032
-82.640	-200.000	-0.041	0.234
-81.626	-198.439	0.098	-0.001
-80.611	24.824	-0.345	-0.280
-79.597	800.000	-0.060	-0.230
-78.582	-95.468	-0.274	0.072
-77.567	-200.000	0.127	-0.605
-76.553	-33.514	0.361	0.195
-75.538	-114.391	0.245	0.046
-74.524	-200.000	0.027	-0.318
-73.509	-200.000	0.005	-0.035
-72.494	-200.000	-0.052	-0.330
-71.480	-180.468	0.100	-0.002
-70.465	-200.000	-0.012	-0.055
-69.451	-71.180	0.175	0.064
-68.436	-111.989	-0.082	0.016
-67.422	800.000	0.095	0.325
-66.407	179.414	0.064	0.091
-65.392	0.345	0.186	0.130
-64.378	-64.070	-0.170	0.068
-63.363	166.624	0.194	0.270
-62.349	800.000	-0.074	0.209
-61.334	193.055	-0.917	-1.356
-60.319	92.326	0.644	0.710
-59.305	760.070	-0.396	-1.050
-58.290	228.008	0.660	1.051
-57.276	-200.000	0.266	1.473
-56.261	-200.000	112.286	632.923
-55.246	472.378	1498.557	3301.715
-54.232	147.481	2674.025	3523.233
-53.217	97.639	2288.156	2572.613
-52.203	36.716	1901.897	1643.562
-51.188	30.854	1693.440	1418.871
-50.173	28.363	1651.526	1365.164
-49.159	49.850	1705.642	1572.957
-48.144	49.058	1719.942	1580.103
-47.130	30.596	1678.787	1404.421
-46.115	27.854	1664.663	1371.979
-45.100	27.683	1659.693	1366.545
-44.086	27.653	1656.735	1363.834
-43.071	27.714	1654.129	1362.086
-42.057	27.587	1651.810	1359.181
-41.042	27.573	1649.760	1357.331
-40.027	27.667	1647.991	1356.518
-39.013	27.672	1646.014	1354.880
-37.998	27.638	1644.213	1353.091
-36.984	27.666	1643.147	1352.369
-35.969	27.645	1641.919	1351.143
-34.954	27.814	1640.114	1350.855
-33.940	27.771	1637.880	1348.650
-32.925	27.720	1636.329	1346.941
-31.911	27.723	1634.428	1345.341
-30.896	27.771	1632.502	1344.055
-29.881	27.672	1631.413	1342.379
-28.867	27.792	1629.443	1341.590
-27.852	27.842	1627.718	1340.478
-26.838	27.742	1626.879	1339.004
-25.823	27.744	1625.305	1337.667
-24.809	27.851	1623.848	1337.197
-23.794	27.768	1622.420	1335.367
-22.779	27.788	1621.682	1334.849
-21.765	27.707	1619.615	1332.502
-20.750	27.691	1618.122	1331.103
-19.736	27.786	1616.811	1330.667
-18.721	27.838	1615.232	1329.693
-17.706	27.773	1613.869	1328.044
-16.692	27.799	1612.374	1326.954
-15.677	27.756	1611.220	1325.641
-14.663	27.819	1610.032	1325.064
-13.648	27.738	1608.419	1323.094
-12.633	27.813	1606.733	1322.200
-11.619	27.746	1604.816	1320.084
-10.604	27.806	1603.692	1319.545
-9.590	27.737	1602.717	1318.187
-8.575	27.705	1601.750	1317.114
-7.560	27.750	1600.180	1316.094
-6.546	27.844	1599.003	1315.748
-5.531	27.820	1597.980	1314.685
-4.517	27.812	1596.849	1313.646
-3.502	27.732	1596.225	1312.503
-2.487	27.819	1594.617	1311.749
-1.473	27.530	1582.092	1299.339
-0.458	24.803	1562.937	1264.310
0.556	19.567	1564.504	1233.967
1.571	17.489	1587.482	1236.896
2.586	17.001	1600.857	1243.632
3.600	16.356	1550.667	1199.953
4.615	13.664	1452.329	1105.820
5.629	10.922	1396.922	1045.925
6.644	10.392	1390.242	1037.441
7.659	10.386	1388.902	1036.308
8.673	10.393	1387.973	1035.574
9.688	10.289	1385.875	1033.252
10.702	10.293	1382.575	1030.722
11.717	11.484	1384.534	1039.681
12.731	14.692	1389.755	1063.986
13.746	17.192	1393.249	1082.513
14.761	17.446	1393.053	1083.882
15.775	16.566	1390.212	1075.985
16.790	15.604	1387.388	1067.595
17.804	14.665	1384.975	1059.684
18.819	14.279	1383.428	1055.956
19.834	13.882	1382.725	1052.812
20.848	13.731	1381.265	1050.648
21.863	13.497	1379.823	1047.982
22.877	13.355	1378.550	1046.024
23.892	13.359	1377.510	1045.168
24.907	13.331	1376.754	1044.321
25.921	13.267	1376.005	1043.258
26.936	13.338	1375.026	1042.868
27.950	13.336	1374.089	1042.055
28.965	13.470	1372.987	1041.974
29.980	13.521	1371.842	1041.328
30.994	13.507	1370.671	1040.259
32.009	13.592	1369.645	1039.924
33.023	13.579	1367.834	1038.378
34.038	13.515	1366.752	1037.061
35.053	13.427	1365.867	1035.749
36.067	13.447	1364.622	1034.839
37.082	13.403	1363.874	1033.904
38.096	13.483	1362.728	1033.446
39.111	13.457	1361.580	1032.320
40.126	13.419	1360.942	1031.509
41.140	13.375	1359.716	1030.215
42.155	13.201	1359.678	1029.010
43.169	13.309	1359.274	1029.287
44.184	13.260	1358.815	1028.544
45.199	13.232	1358.944	1028.374
46.213	13.284	1357.672	1027.643
47.228	13.257	1357.366	1027.153
48.242	13.344	1356.097	1026.643
49.257	13.274	1354.603	1024.986
50.271	13.326	1352.954	1023.966
51.286	13.496	1351.263	1023.648
52.301	13.303	1350.443	1021.747
53.315	13.289	1349.229	1020.651
54.330	13.350	1348.288	1020.226
55.344	13.230	1347.349	1018.683
56.359	13.279	1345.854	1017.765
57.374	13.176	1345.268	1016.601
58.388	13.236	1344.189	1016.062
59.403	13.133	1343.869	1015.094
60.417	13.121	1343.395	1014.575
61.432	13.211	1342.126	1014.081
62.447	13.096	1341.500	1012.810
63.461	13.132	1340.043	1011.844
64.476	13.080	1338.964	1010.620
65.490	13.032	1338.199	1009.662
66.505	13.120	1336.237	1008.631
67.520	13.165	1334.896	1007.800
68.534	13.243	1333.650	1007.248
69.549	13.136	1333.013	1006.025
70.563	13.117	1331.855	1004.948
71.578	13.086	1330.537	1003.672
72.593	12.947	1330.153	1002.449
73.607	12.960	1329.304	1001.802
74.622	13.038	1328.252	1001.390
75.636	12.995	1327.839	1000.732
76.651	13.007	1326.964	1000.060
77.666	13.019	1326.429	999.640
78.680	13.049	1326.061	999.454
79.695	13.158	1325.137	999.330
80.709	13.139	1324.295	998.492
81.724	13.104	1324.070	998.019
82.739	13.216	1322.561	997.473
83.753	13.210	1322.161	997.042
84.768	13.363	1320.820	996.866
85.782	13.385	1319.662	996.035
86.797	13.442	1317.937	994.992
87.812	13.267	1316.983	993.128
88.826	13.318	1316.001	992.605
89.841	13.296	1314.528	991.276
90.855	13.422	1313.025	990.810
91.870	13.364	1312.745	990.162
92.884	13.481	1311.766	990.041
93.899	13.426	1311.280	989.256
94.914	13.461	1310.673	988.920
95.928	13.494	1309.431	988.092
96.943	13.468	1308.750	987.333
97.957	13.406	1307.192	985.703
98.972	13.510	1306.505	985.718
99.987	13.427	1305.275	984.207
101.001	13.348	1304.426	983.009
102.016	13.443	1303.467	982.766
103.030	13.429	1302.678	982.000
104.045	13.476	1301.848	981.568
105.060	13.372	1300.597	979.920
106.074	13.303	1299.099	978.297
107.089	13.289	1297.649	977.034
108.103	13.219	1295.799	975.143
109.118	13.182	1294.829	974.112
110.133	13.204	1293.538	973.180
111.147	13.286	1291.904	972.348
112.162	13.188	1291.303	971.236
113.176	13.347	1289.914	971.037
114.191	13.320	1289.214	970.266
115.206	13.361	1287.829	969.380
116.220	13.227	1286.712	967.664
117.235	13.300	1285.814	967.331
118.249	13.210	1284.673	965.862
119.264	13.229	1283.137	964.736
120.279	13.238	1282.274	964.049
121.293	13.194	1281.625	963.220
122.308	13.223	1280.300	962.312
123.322	13.109	1279.357	960.853
124.337	13.144	1278.408	960.259
125.352	13.160	1277.130	959.309
126.366	13.239	1275.611	958.537
127.381	13.196	1274.755	957.561
128.395	13.203	1274.091	957.016
129.410	13.223	1273.269	956.435
130.424	13.217	1272.201	955.511
131.439	13.219	1271.433	954.859
132.454	13.381	1269.992	954.630
133.468	13.388	1269.042	953.870
134.483	13.329	1268.563	953.085
135.497	13.342	1267.765	952.478
136.512	13.344	1266.348	951.340
137.527	13.317	1265.075	950.144
138.541	13.299	1263.087	948.465
139.556	13.257	1262.385	947.613
140.570	13.410	1260.683	947.128
141.585	13.552	1259.726	947.134
142.600	13.438	1258.922	945.797
143.614	13.467	1257.818	945.047
144.629	13.506	1257.078	944.629
145.643	13.516	1255.702	943.573
146.658	13.427	1254.421	942.017
147.673	13.371	1253.398	940.847
148.687	13.397	1251.664	939.609
149.702	13.345	1250.782	938.571
150.716	13.408	1249.416	937.818
151.731	13.338	1248.101	936.352
152.746	13.433	1246.697	935.757
153.760	13.444	1245.499	934.837
154.775	13.435	1244.885	934.241
155.789	13.522	1243.517	933.621
156.804	13.556	1242.197	932.739
157.819	13.539	1241.381	931.946
158.833	13.606	1240.327	931.449
159.848	13.619	1239.659	930.942
160.862	13.576	1238.610	929.827
161.877	13.543	1237.688	928.868
162.892	13.550	1236.215	927.719
163.906	13.497	1235.060	926.477
164.921	13.437	1234.306	925.492
165.935	13.490	1233.814	925.337
166.950	13.599	1232.638	924.981
167.964	13.606	1231.866	924.362
168.979	13.598	1231.473	923.941
169.994	13.580	1230.852	923.289
171.008	13.503	1230.036	922.165
172.023	13.670	1228.877	922.146
173.037	13.732	1228.134	921.850
174.052	13.685	1227.253	920.848
175.067	13.555	1226.746	919.663
176.081	13.606	1225.124	918.649
177.096	13.601	1224.367	917.973
178.110	13.647	1223.198	917.273
179.125	13.724	1221.767	916.541
180.140	13.586	1220.953	915.087
181.154	13.739	1219.460	914.731
182.169	13.674	1218.429	913.518
183.183	13.889	1216.872	913.455
184.198	13.881	1215.509	912.304
185.213	13.690	1215.420	911.111
186.227	13.865	1213.508	910.553
187.242	13.839	1212.720	909.743
188.256	14.052	1211.326	909.780
189.271	13.964	1210.454	908.562
190.286	13.762	1209.799	906.890
191.300	13.702	1208.784	905.718
192.315	13.544	1208.429	904.509
193.329	13.726	1207.257	904.544
194.344	13.673	1206.952	903.949
195.359	13.887	1205.945	904.278
196.373	13.883	1205.552	903.883
197.388	13.937	1205.234	903.860
198.402	13.978	1204.837	903.701
199.417	14.112	1204.176	903.858
200.432	14.181	1203.249	903.458
201.446	14.063	1202.624	902.266
202.461	14.183	1201.765	902.194
203.475	14.091	1200.968	901.015
204.490	14.055	1199.325	899.509
205.504	14.005	1198.238	898.344
206.519	14.024	1196.612	897.146
207.534	14.106	1195.522	896.693
208.548	14.029	1194.648	895.541
209.563	14.117	1193.957	895.418
210.577	14.127	1192.876	894.581
211.592	14.137	1192.008	893.909
212.607	14.137	1191.464	893.420
213.621	14.305	1190.202	893.295
214.636	14.189	1189.468	892.042
215.650	14.148	1188.437	890.970
216.665	14.235	1187.348	890.542
217.680	14.343	1186.753	890.593
218.694	14.287	1185.917	889.590
219.709	14.261	1185.739	889.237
220.723	14.321	1184.430	888.498
221.738	14.258	1184.117	887.847
222.753	14.409	1183.304	887.966
223.767	14.429	1182.288	887.231
224.782	14.519	1181.078	886.724
225.796	14.437	1180.919	886.088
226.811	14.491	1180.432	885.930
227.826	14.502	1179.794	885.436
228.840	14.303	1179.054	883.742
229.855	14.399	1178.007	883.390
230.869	14.339	1177.104	882.316
231.884	14.380	1176.332	881.878
232.899	14.347	1175.810	881.233
233.913	14.267	1175.105	880.205
234.928	14.231	1174.472	879.463
235.942	14.402	1173.258	879.377
236.957	14.360	1172.458	878.482
237.972	14.371	1171.731	877.912
238.986	14.456	1171.061	877.783
240.001	14.475	1170.251	877.199
241.015	14.346	1169.740	876.059
242.030	14.430	1168.959	875.837
243.045	14.568	1167.916	875.705
244.059	14.526	1166.976	874.698
245.074	14.565	1166.100	874.168
246.088	14.613	1165.185	873.659
247.103	14.583	1165.031	873.311
248.117	14.639	1163.957	872.718
249.132	14.742	1163.157	872.578
250.147	14.832	1162.772	872.685
251.161	14.893	1161.545	872.003
252.176	14.927	1161.287	871.909
253.190	15.074	1160.297	871.856
254.205	14.955	1160.137	871.038
255.220	14.900	1159.784	870.410
256.234	14.968	1158.813	869.960
257.249	15.001	1158.056	869.486
258.263	14.926	1157.727	868.773
259.278	14.889	1156.810	867.813
260.293	15.025	1156.331	868.085
261.307	15.078	1155.703	867.812
262.322	15.073	1155.144	867.286
263.336	15.166	1154.369	867.112
264.351	15.112	1154.182	866.613
265.366	15.189	1153.430	866.368
266.380	15.128	1152.953	865.618
267.395	15.101	1151.665	864.437
268.409	15.160	1150.506	863.797
269.424	15.153	1150.110	863.387
270.439	15.054	1149.928	862.663
271.453	15.064	1149.104	862.017
272.468	15.099	1147.938	861.245
273.482	15.154	1147.042	860.781
274.497	15.152	1146.762	860.484
275.512	15.141	1146.059	859.828
276.526	15.152	1145.434	859.334
277.541	15.135	1144.791	858.689
278.555	15.141	1143.997	858.052
279.570	15.183	1142.970	857.419
280.585	15.284	1142.737	857.683
281.599	15.261	1141.885	856.852
282.614	15.267	1140.212	855.551
283.628	15.155	1139.522	854.388
284.643	15.276	1138.666	854.284
285.657	15.442	1137.638	854.284
286.672	15.383	1136.478	853.039
287.687	15.339	1136.018	852.394
288.701	15.296	1135.293	851.558
289.716	15.266	1134.373	850.639
290.730	15.425	1133.806	850.946
291.745	15.360	1133.037	849.965
292.760	15.359	1132.553	849.519
293.774	15.496	1131.883	849.636
294.789	15.468	1131.517	849.141
295.803	15.520	1130.991	848.935
296.818	15.452	1129.812	847.633
297.833	15.455	1129.116	847.049
298.847	15.403	1128.457	846.220
299.862	15.527	1127.229	845.845
300.876	15.558	1126.920	845.697
301.891	15.510	1126.349	844.950
302.906	15.611	1125.589	844.814
303.920	15.600	1124.982	844.231
304.935	15.674	1124.565	844.214
305.949	15.795	1123.524	843.966
306.964	15.775	1123.089	843.462
307.979	15.786	1122.198	842.773
308.993	15.643	1121.419	841.399
310.008	15.792	1120.640	841.484
311.022	15.717	1119.769	840.381
312.037	15.829	1118.849	840.178
313.052	15.849	1117.920	839.506
314.066	15.668	1117.403	838.137
315.081	15.593	1116.419	836.954
316.095	15.658	1115.299	836.361
317.110	15.649	1114.875	835.924
318.125	15.614	1114.012	835.029
319.139	15.701	1113.289	834.849
320.154	15.715	1112.585	834.314
321.168	15.689	1112.074	833.728
322.183	15.751	1111.256	833.350
323.197	15.748	1110.778	832.902
324.212	15.829	1110.199	832.796
325.227	15.727	1109.773	831.895
326.241	15.764	1109.203	831.581
327.256	15.791	1108.304	830.967
328.270	15.760	1107.238	829.938
329.285	15.760	1106.244	829.122
330.300	15.746	1105.301	828.271
331.314	15.897	1104.153	828.082
332.329	15.889	1103.282	827.314
333.343	15.808	1102.761	826.453
334.358	15.945	1101.388	826.022
335.373	15.997	1101.244	826.097
336.387	15.911	1100.432	824.996
337.402	15.996	1099.599	824.711
338.416	16.022	1099.107	824.396
339.431	16.012	1098.188	823.587
340.446	16.096	1097.353	823.296
341.460	16.068	1097.005	822.828
342.475	16.158	1096.267	822.639
343.489	16.143	1095.747	822.104
344.504	16.225	1094.192	821.264
345.519	16.281	1093.549	820.980
346.533	16.322	1092.686	820.457
347.548	16.329	1091.813	819.767
348.562	16.287	1091.349	819.141
349.577	16.174	1090.434	817.831
350.592	16.235	1089.578	817.413
351.606	16.163	1089.014	816.568
352.621	16.169	1088.422	816.081
353.635	16.143	1087.535	815.220
354.650	16.142	1086.906	814.674
355.665	16.204	1086.292	814.440
356.679	16.141	1086.036	813.870
357.694	16.252	1085.237	813.736
358.708	16.432	1084.339	813.859
359.723	16.338	1083.756	812.894
360.738	16.280	1083.318	812.213
361.752	16.307	1082.901	811.961
362.767	16.361	1082.134	811.572
363.781	16.308	1081.506	810.776
364.796	16.502	1081.228	811.425
365.810	16.561	1079.928	810.664
366.825	16.503	1079.904	810.293
367.840	16.556	1079.268	810.001
368.854	16.687	1078.552	810.017
369.869	16.625	1077.888	809.150
370.883	16.534	1076.885	807.891
371.898	16.618	1076.147	807.669
372.913	16.591	1075.937	807.308
373.927	16.714	1074.899	807.045
374.942	16.766	1074.078	806.605
375.956	16.645	1074.142	806.005
376.971	16.722	1073.471	805.798
377.986	16.776	1073.192	805.773
379.000	16.805	1072.235	805.119
380.015	16.816	1071.766	804.750
381.029	16.812	1070.854	803.972
382.044	16.818	1070.487	803.655
383.059	16.844	1069.546	803.002
384.073	16.823	1069.020	802.437
385.088	16.870	1068.130	801.921
386.102	16.834	1066.880	800.741
387.117	16.819	1066.206	800.091
388.132	16.777	1065.389	799.208
389.146	16.782	1064.657	798.613
390.161	16.758	1063.712	797.724
391.175	16.788	1063.186	797.398
392.190	16.805	1062.351	796.780
393.205	17.032	1061.808	797.370
394.219	16.884	1061.118	796.085
395.234	16.934	1060.244	795.594
396.248	16.927	1059.310	794.789
397.263	16.804	1057.998	793.162
398.278	16.927	1057.094	792.987
399.292	16.829	1056.729	792.188
400.307	16.810	1055.827	791.351
401.321	16.820	1055.402	791.009
402.336	16.788	1055.087	790.553
403.350	17.011	1053.986	790.696
404.365	17.012	1053.158	790.013
405.380	16.921	1052.663	789.149
406.394	17.038	1052.074	789.181
407.409	17.145	1051.153	788.918
408.423	17.167	1050.664	788.579
409.438	17.198	1049.770	787.986
410.453	17.135	1049.240	787.224
411.467	17.229	1048.701	787.187
412.482	17.254	1048.225	786.874
413.496	17.220	1047.241	785.908
414.511	17.366	1046.618	786.048
415.526	17.454	1045.863	785.819
416.540	17.321	1045.722	785.028
417.555	17.547	1044.919	785.399
418.569	17.327	1044.615	784.087
419.584	17.355	1044.235	783.858
420.599	17.385	1044.086	783.816
421.613	104.513	1325.421	1475.431
422.628	96.009	1366.363	1475.527
