DTS Sentinel unit serial number:	SN413079Multiplexer serial number:	ORYXHardware model number:	OX4-SRSoftware version number:	ORYX F/W v4.00 Oryx Data Collector v3.7.2.0data status	okinstallation	princeton_trtdifferential loss correction	single-endedforward channel	channel 2reverse channel	N/Adate	2019/09/14time	23:59:34forward acquisition time	60.00reverse acquisition time	0.00gamma	496.2192k internal	0.2324k external	0.2324temperature offset calibration	1.0048default loss term (dB/km)	0.3790temperature slope calibration	1.0000multiplexer offset coefficient	1.0000multiplexer slope coefficient	1.0000fibre end	0.00T internal ref (°C)	32.25T ext. ref 1 (°C)	4.60T ext. ref 2 (°C)	27.17length (m)	temperature (°C)	Stokes	anti-Stokes-747.200	188.530	-0.030	0.046
-746.185	190.734	0.123	-0.187
-745.171	-200.000	-0.001	-0.015
-744.156	800.000	-0.079	0.230
-743.142	-107.896	0.431	-0.095
-742.127	800.000	-0.061	0.255
-741.112	509.839	-0.095	0.224
-740.098	-200.000	0.044	-0.198
-739.083	-200.000	0.005	-0.066
-738.069	72.086	0.123	0.130
-737.054	305.404	-0.039	-0.073
-736.039	-36.564	-0.139	-0.076
-735.025	147.122	0.277	0.377
-734.010	76.528	-0.339	-0.362
-732.996	110.272	-0.105	0.127
-731.981	-63.708	-0.117	0.048
-730.966	-61.959	0.197	0.083
-729.952	-56.735	-0.233	-0.104
-728.937	-110.489	-0.243	0.051
-727.923	285.586	0.172	-0.313
-726.908	168.689	-0.073	0.104
-725.894	-68.764	-0.196	0.076
-724.879	-42.986	-0.150	0.077
-723.864	171.431	0.213	-0.308
-722.850	-200.000	0.091	-0.458
-721.835	171.518	-0.171	-0.247
-720.821	-200.000	-0.034	-0.264
-719.806	-136.229	-0.323	-0.038
-718.791	-101.481	0.077	-0.019
-717.777	135.595	-0.207	0.272
-716.762	94.880	-0.291	-0.334
-715.748	0.052	0.202	-0.145
-714.733	-105.400	0.082	0.019
-713.718	-8.685	-0.103	0.069
-712.704	800.000	-0.042	-0.123
-711.689	-200.000	0.032	0.180
-710.675	-56.341	0.093	0.042
-709.660	-65.313	-0.092	-0.037
-708.645	-79.426	0.236	-0.081
-707.631	-72.500	0.178	0.066
-706.616	41.540	0.107	0.098
-705.602	800.000	0.019	0.077
-704.587	-129.466	-0.300	0.042
-703.572	34.700	-0.351	0.310
-702.558	800.000	-0.097	0.324
-701.543	339.078	-0.123	0.241
-700.529	-135.430	-0.153	0.018
-699.514	76.780	-0.176	-0.188
-698.499	-161.117	-0.318	0.017
-697.485	72.484	-0.068	-0.071
-696.470	-9.127	-0.288	-0.194
-695.456	297.121	-0.166	0.306
-694.441	75.282	-0.159	-0.169
-693.426	-3.654	0.144	-0.101
-692.412	-65.239	0.310	-0.126
-691.397	-127.831	-0.148	0.021
-690.383	529.280	0.060	-0.144
-689.368	-11.430	-0.182	-0.120
-688.354	510.632	0.054	-0.125
-687.339	-20.640	0.095	-0.059
-686.324	-78.621	-0.062	0.021
-685.310	120.932	0.127	0.159
-684.295	90.817	-0.071	-0.080
-683.281	-200.000	-0.019	0.312
-682.266	51.957	-0.112	0.107
-681.251	18.871	0.222	0.179
-680.237	800.000	0.056	0.208
-679.222	48.659	0.069	0.065
-678.208	-88.091	-0.399	-0.120
-677.193	800.000	-0.034	-0.137
-676.178	-200.000	-0.010	-0.180
-675.164	605.781	-0.127	-0.317
-674.149	-128.263	0.376	0.054
-673.135	157.589	0.087	0.121
-672.120	800.000	0.060	0.194
-671.105	-200.000	0.009	0.112
-670.091	77.085	-0.058	-0.062
-669.076	-168.104	0.184	-0.007
-668.062	471.305	0.139	-0.315
-667.047	800.000	0.041	0.147
-666.032	287.423	0.143	-0.260
-665.018	-40.500	0.348	0.182
-664.003	123.535	0.107	0.136
-662.989	-39.237	-0.142	-0.075
-661.974	-86.933	-0.197	0.060
-660.959	-200.000	-0.033	0.288
-659.945	-200.000	-0.073	0.371
-658.930	77.136	-0.159	-0.170
-657.916	523.973	0.021	-0.050
-656.901	-53.218	0.102	-0.047
-655.886	124.975	0.098	-0.124
-654.872	-16.854	-0.044	0.028
-653.857	122.401	0.205	0.258
-652.843	-129.723	0.079	-0.011
-651.828	-46.503	-0.230	0.114
-650.814	80.131	0.301	-0.326
-649.799	20.966	0.085	-0.069
-648.784	19.940	0.107	0.087
-647.770	-200.000	-0.029	-0.146
-646.755	2.305	-0.115	0.083
-645.741	800.000	-0.032	0.090
-644.726	103.746	0.084	-0.099
-643.711	-91.314	-0.125	0.036
-642.697	-33.061	0.130	0.073
-641.682	64.936	-0.323	0.328
-640.668	800.000	0.094	-0.272
-639.653	-33.573	-0.166	-0.092
-638.638	-30.502	-0.139	-0.079
-637.624	530.875	0.069	-0.164
-636.609	-200.000	-0.028	-0.262
-635.595	-200.000	-0.004	-0.400
-634.580	174.979	0.225	-0.327
-633.565	458.208	-0.098	-0.220
-632.551	19.713	-0.286	0.231
-631.536	346.990	0.071	0.140
-630.522	-200.000	-0.009	0.246
-629.507	89.916	0.230	0.258
-628.492	-125.900	0.101	-0.015
-627.478	-79.203	-0.077	0.026
-626.463	-67.891	-0.080	0.032
-625.449	-34.422	0.396	-0.218
-624.434	421.578	0.158	-0.341
-623.419	729.832	-0.101	-0.270
-622.405	46.343	0.065	-0.060
-621.390	145.556	-0.100	-0.135
-620.376	-46.573	0.155	0.076
-619.361	291.471	-0.061	-0.111
-618.346	-78.539	0.105	-0.036
-617.332	-34.046	-0.029	0.016
-616.317	374.326	0.107	-0.219
-615.303	-200.000	0.029	0.157
-614.288	-200.000	-0.021	-0.297
-613.273	-200.000	0.019	-0.193
-612.259	476.047	-0.135	-0.307
-611.244	-182.782	0.238	-0.004
-610.230	110.080	-0.077	0.093
-609.215	-55.318	-0.296	0.134
-608.201	-200.000	0.041	0.238
-607.186	800.000	-0.025	0.083
-606.171	227.738	0.127	-0.207
-605.157	165.862	-0.173	0.246
-604.142	47.284	0.066	0.062
-603.128	232.008	0.126	-0.208
-602.113	-129.384	0.203	-0.028
-601.098	800.000	0.059	-0.216
-600.084	127.238	-0.171	-0.218
-599.069	800.000	-0.028	-0.082
-598.055	800.000	0.050	0.203
-597.040	269.991	0.145	0.256
-596.025	110.358	0.141	0.169
-595.011	617.029	-0.126	-0.318
-593.996	-34.635	-0.093	-0.051
-592.982	-152.484	0.386	-0.028
-591.967	-110.069	-0.333	-0.070
-590.952	-200.000	0.038	0.334
-589.938	73.084	0.112	0.118
-588.923	-200.000	-0.008	0.100
-587.909	94.277	0.032	-0.036
-586.894	-116.965	-0.123	-0.023
-585.879	116.897	0.135	-0.166
-584.865	-195.416	-0.242	-0.002
-583.850	242.046	0.176	-0.295
-582.836	800.000	0.027	-0.098
-581.821	-86.331	0.204	0.063
-580.806	800.000	0.120	0.373
-579.792	-86.547	0.135	0.041
-578.777	800.000	0.042	-0.146
-577.763	-200.000	-0.004	-0.420
-576.748	194.752	0.231	-0.351
-575.733	16.908	0.068	-0.054
-574.719	800.000	0.057	-0.163
-573.704	-79.436	-0.241	0.082
-572.690	450.117	-0.094	0.207
-571.675	55.167	-0.067	-0.065
-570.661	393.500	0.080	0.166
-569.646	150.467	0.136	0.185
-568.631	782.582	-0.104	-0.285
-567.617	64.445	0.147	0.148
-566.602	800.000	0.090	-0.319
-565.588	654.247	-0.010	0.026
-564.573	-141.881	0.293	-0.029
-563.558	129.446	0.042	0.053
-562.544	-200.000	0.013	-0.195
-561.529	-138.292	0.445	0.049
-560.515	142.084	-0.095	0.126
-559.500	589.819	0.025	-0.061
-558.485	-79.065	-0.190	0.065
-557.471	-57.306	-0.258	0.114
-556.456	334.704	0.046	0.089
-555.442	142.650	-0.292	0.388
-554.427	615.924	0.055	0.138
-553.412	548.032	-0.083	-0.199
-552.398	86.667	0.221	-0.244
-551.383	100.542	0.097	-0.113
-550.369	800.000	0.071	0.239
-549.354	631.026	-0.054	0.137
-548.339	800.000	0.006	-0.023
-547.325	204.101	-0.156	-0.242
-546.310	-52.192	-0.394	-0.183
-545.296	73.169	0.138	-0.145
-544.281	-154.388	0.081	0.005
-543.266	800.000	-0.085	-0.259
-542.252	-2.549	0.163	0.115
-541.237	259.773	0.168	-0.290
-540.223	-64.557	0.132	0.054
-539.208	-82.615	-0.156	-0.050
-538.193	-8.643	-0.069	-0.046
-537.179	-61.933	-0.276	-0.115
-536.164	-168.224	-0.092	-0.004
-535.150	21.599	0.138	0.112
-534.135	-76.765	0.104	-0.037
-533.121	49.589	-0.373	0.351
-532.106	800.000	0.122	0.341
-531.091	609.679	0.110	-0.276
-530.077	-200.000	0.008	-0.358
-529.062	261.984	-0.158	0.273
-528.048	105.774	-0.073	-0.086
-527.033	249.724	0.137	0.232
-526.018	-78.313	0.153	0.053
-525.004	-72.969	0.341	-0.126
-523.989	-136.530	-0.266	-0.031
-522.975	-171.745	0.273	0.009
-521.960	108.514	-0.105	-0.126
-520.945	-54.844	-0.080	-0.036
-519.931	-19.859	0.087	-0.054
-518.916	-30.597	0.352	0.199
-517.902	-200.000	0.031	0.271
-516.887	-38.061	-0.262	0.139
-515.872	800.000	0.028	-0.108
-514.858	302.075	-0.110	0.204
-513.843	106.127	0.134	0.159
-512.829	7.895	0.160	0.120
-511.814	-200.000	0.050	0.267
-510.799	-65.657	0.072	0.029
-509.785	-62.104	-0.176	0.074
-508.770	800.000	0.118	0.355
-507.756	-95.799	0.321	-0.086
-506.741	44.242	-0.389	0.357
-505.726	-66.216	0.457	0.182
-504.712	-80.455	-0.354	-0.118
-503.697	264.500	0.144	-0.251
-502.683	-108.311	-0.230	-0.050
-501.668	45.146	0.225	0.208
-500.653	-200.000	-0.010	0.140
-499.639	4.885	-0.202	-0.148
-498.624	3.105	-0.122	-0.089
-497.610	800.000	0.091	0.260
-496.595	63.432	-0.214	0.214
-495.581	800.000	-0.049	-0.192
-494.566	25.101	0.058	-0.048
-493.551	259.351	-0.083	0.144
-492.537	57.517	-0.208	0.204
-491.522	800.000	0.075	0.212
-490.508	-18.886	-0.359	-0.224
-489.493	-94.603	0.045	-0.012
-488.478	122.080	-0.099	0.123
-487.464	-96.333	0.200	-0.053
-486.449	-40.726	-0.149	0.077
-485.435	-42.829	-0.123	0.063
-484.420	-46.966	0.203	-0.099
-483.405	-24.645	0.158	0.094
-482.391	-94.439	-0.045	-0.012
-481.376	-156.130	0.087	-0.006
-480.362	-149.686	0.244	-0.019
-479.347	-103.899	0.423	0.099
-478.332	92.856	0.053	-0.060
-477.318	137.541	0.084	0.110
-476.303	-53.865	0.157	-0.072
-475.289	452.527	0.119	-0.263
-474.274	304.427	0.091	-0.168
-473.259	-3.229	-0.479	-0.334
-472.245	216.692	-0.027	-0.043
-471.230	311.414	0.149	0.279
-470.216	-135.523	0.248	-0.029
-469.201	-79.351	-0.286	-0.097
-468.186	30.063	0.100	0.085
-467.172	-66.207	-0.173	-0.069
-466.157	34.557	-0.173	-0.151
-465.143	125.626	-0.060	-0.076
-464.128	-87.975	0.240	0.072
-463.113	800.000	-0.032	0.101
-462.099	118.568	0.130	0.160
-461.084	-200.000	0.002	0.117
-460.070	800.000	-0.053	-0.209
-459.055	-200.000	0.012	-0.155
-458.040	167.090	-0.103	-0.146
-457.026	-200.000	-0.289	0.000
-456.011	44.691	-0.197	0.181
-454.997	-155.213	-0.150	0.010
-453.982	-110.995	0.201	-0.041
-452.968	5.958	-0.340	0.251
-451.953	65.016	0.296	-0.298
-450.938	190.403	-0.073	0.110
-449.924	61.454	0.251	0.249
-448.909	-200.000	0.019	-0.129
-447.895	-29.613	-0.125	-0.071
-446.880	-200.000	0.021	0.114
-445.865	-120.868	-0.224	-0.038
-444.851	-1.942	-0.055	0.039
-443.836	-108.426	0.296	0.064
-442.822	-200.000	0.064	-0.282
-441.807	88.215	0.256	-0.283
-440.792	-101.294	0.096	0.023
-439.778	-29.028	-0.054	0.031
-438.763	112.821	-0.037	-0.045
-437.749	-49.873	0.161	-0.076
-436.734	-145.524	0.151	-0.014
-435.719	-172.247	0.095	-0.003
-434.705	-14.120	0.101	0.065
-433.690	-95.527	0.180	0.048
-432.676	-74.318	0.157	-0.057
-431.661	404.576	0.105	0.220
-430.646	57.239	0.062	0.060
-429.632	-200.000	-0.022	-0.145
-428.617	-86.758	0.119	0.036
-427.603	-200.000	0.056	-0.283
-426.588	-65.964	-0.211	0.084
-425.573	667.290	0.095	0.246
-424.559	82.784	-0.211	0.229
-423.544	31.144	0.115	0.098
-422.530	-177.728	0.141	0.003
-421.515	-66.106	0.234	0.093
-420.500	-200.000	0.028	0.165
-419.486	-166.695	-0.059	0.002
-418.471	-200.000	-0.011	-0.511
-417.457	81.025	-0.178	-0.192
-416.442	-32.241	-0.125	0.070
-415.428	39.341	0.025	0.022
-414.413	-125.012	-0.166	-0.025
-413.398	94.550	-0.219	0.247
-412.384	605.168	0.077	-0.191
-411.369	750.281	-0.057	-0.153
-410.355	-200.000	-0.024	0.282
-409.340	-81.386	0.146	-0.048
-408.325	800.000	-0.094	-0.349
-407.311	-161.689	0.299	0.015
-406.296	-103.461	-0.158	-0.037
-405.282	579.555	0.065	0.159
-404.267	800.000	0.057	-0.186
-403.252	-200.000	0.019	0.106
-402.238	800.000	-0.018	-0.050
-401.223	-0.764	0.141	-0.099
-400.209	36.143	-0.031	0.028
-399.194	-19.965	0.228	-0.140
-398.179	-128.535	-0.538	0.076
-397.165	-28.761	0.256	-0.147
-396.150	-200.000	-0.043	0.205
-395.136	722.057	-0.062	0.165
-394.121	-200.000	-0.017	0.108
-393.106	800.000	-0.114	-0.375
-392.092	116.253	0.232	-0.283
-391.077	-166.207	-0.354	0.015
-390.063	36.698	0.138	-0.121
-389.048	-200.000	-0.033	-0.261
-388.033	131.438	0.057	0.072
-387.019	-200.000	0.032	-0.211
-386.004	144.282	0.080	0.106
-384.990	37.842	0.208	0.184
-383.975	-69.185	0.419	-0.160
-382.960	800.000	0.111	-0.325
-381.946	278.176	0.164	-0.291
-380.931	-200.000	0.009	0.112
-379.917	48.465	-0.041	-0.038
-378.902	479.306	0.150	-0.339
-377.888	341.495	-0.163	-0.316
-376.873	74.179	-0.136	-0.142
-375.858	-72.573	0.321	0.118
-374.844	288.376	-0.186	-0.334
-373.829	-200.000	-0.010	0.282
-372.815	-66.529	-0.134	-0.053
-371.800	-200.000	-0.017	-0.123
-370.785	-200.000	0.079	-0.443
-369.771	80.566	0.128	0.137
-368.756	461.062	-0.070	-0.155
-367.742	40.384	-0.177	0.159
-366.727	-71.143	0.147	0.055
-365.712	800.000	-0.056	0.160
-364.698	113.368	0.184	-0.222
-363.683	152.634	0.078	0.107
-362.669	144.559	-0.111	0.148
-361.654	307.880	-0.077	-0.143
-360.639	-36.316	0.141	-0.075
-359.625	66.073	-0.153	-0.155
-358.610	271.969	0.014	-0.025
-357.596	-200.000	-0.043	-0.312
-356.581	92.792	-0.122	0.137
-355.566	-70.163	-0.122	-0.046
-354.552	549.848	0.092	0.220
-353.537	-200.000	-0.009	0.136
-352.523	-142.009	0.146	0.014
-351.508	283.077	0.079	-0.140
-350.493	26.284	-0.215	0.179
-349.479	-90.473	-0.145	-0.042
-348.464	111.568	-0.063	-0.075
-347.450	-147.525	-0.083	0.007
-346.435	-51.827	0.201	0.093
-345.420	68.314	0.082	-0.084
-344.406	-200.000	0.078	0.376
-343.391	-15.039	-0.048	-0.031
-342.377	-200.000	0.081	0.376
-341.362	79.860	-0.196	-0.209
-340.348	800.000	-0.015	-0.053
-339.333	-200.000	-0.002	0.157
-338.318	574.730	-0.102	0.246
-337.304	-122.112	-0.163	0.027
-336.289	-4.513	0.096	-0.066
-335.275	-34.088	0.179	-0.098
-334.260	22.674	-0.381	-0.310
-333.245	-187.209	-0.254	-0.003
-332.231	10.583	-0.103	-0.078
-331.216	553.872	0.086	-0.205
-330.202	-123.356	-0.176	-0.028
-329.187	81.156	-0.095	-0.101
-328.172	-85.584	0.312	0.096
-327.158	-162.830	0.104	0.005
-326.143	800.000	0.047	0.156
-325.129	-0.231	-0.251	0.177
-324.114	54.731	-0.070	0.067
-323.099	-200.000	0.060	0.313
-322.085	-96.221	-0.252	-0.066
-321.070	232.742	0.096	0.157
-320.056	-78.630	0.156	0.053
-319.041	800.000	0.090	0.251
-318.026	29.815	-0.123	0.104
-317.012	59.726	-0.238	-0.233
-315.997	50.787	0.097	0.091
-314.983	186.592	0.148	-0.219
-313.968	-200.000	-0.027	0.244
-312.953	-97.477	-0.280	0.072
-311.939	-63.013	-0.218	-0.089
-310.924	164.466	-0.071	0.100
-309.910	-40.983	-0.192	0.098
-308.895	133.858	0.219	-0.281
-307.880	-105.513	-0.110	0.025
-306.866	143.366	-0.108	-0.142
-305.851	-5.218	0.128	0.088
-304.837	-8.265	-0.165	0.110
-303.822	-50.596	-0.161	-0.075
-302.807	-33.652	-0.101	-0.055
-301.793	-18.171	-0.185	0.115
-300.778	-102.544	0.151	-0.036
-299.764	99.532	0.123	-0.142
-298.749	800.000	0.067	-0.193
-297.735	800.000	0.056	0.189
-296.720	-133.968	-0.235	0.029
-295.705	44.900	0.154	-0.140
-294.691	-63.412	0.297	0.121
-293.676	19.909	-0.324	-0.259
-292.662	-12.812	-0.111	-0.072
-291.647	-143.509	0.170	-0.016
-290.632	107.774	0.048	-0.057
-289.618	567.295	0.091	0.219
-288.603	85.948	-0.114	0.124
-287.589	-200.000	-0.004	0.047
-286.574	-87.880	-0.245	-0.073
-285.559	546.146	-0.075	-0.177
-284.545	-200.000	0.018	0.289
-283.530	-172.179	0.328	-0.010
-282.516	615.318	-0.038	0.094
-281.501	-200.000	0.129	0.000
-280.486	622.837	-0.023	-0.058
-279.472	-107.761	-0.336	0.073
-278.457	83.483	-0.103	0.112
-277.443	71.640	0.134	0.138
-276.428	143.660	0.245	0.323
-275.413	-15.965	-0.323	0.204
-274.399	-1.759	0.203	0.142
-273.384	-27.184	0.071	-0.041
-272.370	320.543	0.181	0.340
-271.355	655.963	0.037	-0.093
-270.340	800.000	-0.096	-0.382
-269.326	-200.000	-0.035	-0.435
-268.311	-120.193	-0.065	-0.011
-267.297	-183.976	0.281	0.005
-266.282	103.222	-0.028	0.033
-265.267	-181.501	0.180	0.003
-264.253	238.790	-0.206	0.340
-263.238	-54.144	-0.283	0.127
-262.224	-14.592	-0.244	-0.155
-261.209	-6.210	-0.289	0.195
-260.195	-52.626	0.275	0.126
-259.180	536.661	0.051	0.119
-258.165	-20.913	0.265	0.161
-257.151	800.000	0.036	-0.125
-256.136	38.396	-0.132	-0.117
-255.122	457.519	-0.149	-0.329
-254.107	65.215	-0.134	0.134
-253.092	-111.878	-0.144	-0.029
-252.078	357.089	-0.068	0.135
-251.063	-49.042	-0.209	0.099
-250.049	88.292	-0.024	-0.027
-249.034	34.618	0.219	0.189
-248.019	-117.526	-0.047	-0.008
-247.005	-200.000	0.009	-0.321
-245.990	457.070	-0.038	-0.084
-244.976	-200.000	0.033	0.262
-243.961	-25.403	0.042	0.025
-242.946	-19.262	-0.146	0.089
-241.932	255.975	0.181	0.308
-240.917	-49.366	0.375	0.177
-239.903	-39.258	-0.133	-0.069
-238.888	335.181	0.120	0.231
-237.873	-166.653	0.263	0.011
-236.859	-69.910	-0.251	0.095
-235.844	-48.031	-0.259	-0.124
-234.830	-145.826	-0.129	-0.011
-233.815	295.647	0.026	0.046
-232.800	173.332	0.124	-0.177
-231.786	-69.815	0.231	0.087
-230.771	-92.197	-0.386	-0.108
-229.757	800.000	-0.067	0.266
-228.742	-62.827	0.222	0.091
-227.727	-200.000	-0.018	0.112
-226.713	152.137	-0.216	0.291
-225.698	-107.188	-0.284	-0.062
-224.684	527.505	0.149	-0.346
-223.669	-200.000	0.047	-0.287
-222.655	-26.038	-0.235	-0.137
-221.640	20.819	-0.230	-0.185
-220.625	-200.000	-0.023	-0.179
-219.611	438.422	0.121	-0.262
-218.596	147.262	0.076	-0.101
-217.582	-44.977	-0.103	-0.051
-216.567	100.733	-0.079	-0.090
-215.552	-98.247	0.101	-0.026
-214.538	278.390	0.185	0.326
-213.523	-82.484	0.261	0.084
-212.509	800.000	-0.027	-0.084
-211.494	405.742	0.067	-0.141
-210.479	-13.299	-0.190	-0.122
-209.465	-53.901	0.183	0.083
-208.450	24.763	-0.284	0.233
-207.436	677.984	0.164	0.423
-206.421	107.860	-0.112	-0.132
-205.406	-139.130	-0.342	-0.037
-204.392	-73.880	0.204	0.073
-203.377	-200.000	0.014	-0.156
-202.363	507.677	-0.058	0.133
-201.348	-74.729	0.264	0.094
-200.333	-106.212	0.119	0.026
-199.319	-16.870	-0.202	-0.126
-198.304	-176.642	-0.225	0.006
-197.290	800.000	0.103	0.390
-196.275	135.195	0.091	0.117
-195.260	-200.000	-0.023	0.116
-194.246	-9.352	0.055	0.036
-193.231	-200.000	-0.009	-0.341
-192.217	36.182	-0.328	0.285
-191.202	372.313	0.038	0.076
-190.187	-200.000	0.048	-0.248
-189.173	-102.176	-0.183	0.044
-188.158	-15.612	-0.128	0.081
-187.144	-126.655	0.105	-0.015
-186.129	121.993	0.059	0.073
-185.114	-106.968	0.318	0.070
-184.100	-24.060	0.110	0.065
-183.085	-61.200	-0.261	0.109
-182.071	800.000	0.054	0.206
-181.056	35.497	-0.246	-0.213
-180.042	-200.000	-0.020	0.382
-179.027	750.721	0.166	0.442
-178.012	-200.000	-0.024	-0.304
-176.998	350.786	-0.251	0.491
-175.983	162.728	-0.088	0.122
-174.969	241.558	0.089	-0.147
-173.954	-89.117	-0.139	0.041
-172.939	390.599	-0.071	0.146
-171.925	3.798	0.071	-0.051
-170.910	-122.237	-0.335	-0.054
-169.896	-200.000	0.035	0.213
-168.881	649.325	-0.058	-0.147
-167.866	30.436	0.089	-0.075
-166.852	144.017	0.138	-0.182
-165.837	-131.421	-0.211	-0.028
-164.823	-166.245	0.170	0.007
-163.808	74.278	-0.228	0.236
-162.793	-200.000	-0.016	-0.176
-161.779	-128.030	-0.140	-0.020
-160.764	-30.443	0.072	-0.041
-159.750	-200.000	-0.031	-0.218
-158.735	170.642	0.171	-0.241
-157.720	128.673	0.032	-0.041
-156.706	-62.820	-0.171	0.070
-155.691	-15.753	-0.324	0.203
-154.677	133.396	0.241	0.307
-153.662	-25.794	0.390	0.227
-152.647	263.057	0.084	-0.144
-151.633	-13.137	-0.258	0.165
-150.618	7.953	-0.345	0.255
-149.604	-200.000	0.010	-0.326
-148.589	388.067	0.143	0.291
-147.574	-200.000	0.011	-0.154
-146.560	-200.000	0.108	-0.471
-145.545	321.426	0.170	-0.318
-144.531	-108.068	-0.014	0.003
-143.516	-200.000	-0.011	0.195
-142.502	-160.961	-0.180	0.009
-141.487	-158.771	-0.159	0.009
-140.472	-53.538	0.075	-0.034
-139.458	339.302	0.024	-0.045
-138.443	-29.217	-0.024	-0.014
-137.429	-116.079	-0.073	0.013
-136.414	-200.000	-0.016	0.172
-135.399	800.000	-0.035	0.124
-134.385	742.474	0.118	0.313
-133.370	176.651	0.183	-0.262
-132.356	-30.037	0.129	-0.073
-131.341	-200.000	-0.058	0.259
-130.326	-200.000	-0.005	0.197
-129.312	-200.000	-0.014	0.105
-128.297	29.055	0.272	0.227
-127.283	-180.357	0.206	0.004
-126.268	6.805	-0.221	0.162
-125.253	15.728	-0.140	-0.109
-124.239	194.548	-0.125	0.187
-123.224	758.583	-0.078	-0.209
-122.210	-200.000	0.036	0.440
-121.195	-199.607	0.307	0.002
-120.180	2.407	-0.083	-0.059
-119.166	-41.804	-0.049	0.025
-118.151	199.891	0.141	0.213
-117.137	-200.000	0.057	0.294
-116.122	800.000	-0.067	0.207
-115.107	90.078	0.093	0.102
-114.093	89.538	0.254	0.279
-113.078	101.136	0.194	0.222
-112.064	-200.000	-0.032	0.184
-111.049	102.858	-0.076	-0.087
-110.034	94.180	0.188	0.210
-109.020	-200.000	-0.009	0.215
-108.005	800.000	0.133	-0.381
-106.991	800.000	-0.078	-0.281
-105.976	-74.334	-0.224	-0.080
-104.962	-116.131	-0.480	-0.088
-103.947	-65.363	-0.136	0.054
-102.932	800.000	0.106	0.321
-101.918	-200.000	0.041	0.325
-100.903	612.900	0.207	0.509
-99.889	-44.622	-0.073	0.036
-98.874	496.641	0.072	-0.162
-97.859	-139.156	-0.238	0.025
-96.845	29.263	0.247	0.207
-95.830	88.965	-0.100	-0.109
-94.816	235.846	0.071	-0.115
-93.801	517.550	0.067	-0.154
-92.786	455.889	-0.113	-0.247
-91.772	40.311	-0.208	-0.184
-90.757	177.853	0.125	0.179
-89.743	-200.000	0.043	0.418
-88.728	152.946	0.130	0.175
-87.713	-200.000	0.062	0.290
-86.699	-200.000	-0.007	0.030
-85.684	800.000	-0.058	0.239
-84.670	800.000	0.046	-0.187
-83.655	-200.000	0.035	-0.158
-82.640	266.440	0.255	0.438
-81.626	183.127	-0.119	0.172
-80.611	-55.651	0.247	-0.109
-79.597	151.375	0.149	-0.200
-78.582	56.856	-0.162	0.155
-77.567	-114.990	0.134	0.025
-76.553	800.000	-0.017	-0.063
-75.538	81.035	0.082	-0.087
-74.524	-66.079	-0.255	0.100
-73.509	-200.000	0.021	-0.193
-72.494	62.144	0.170	-0.166
-71.480	800.000	0.075	0.235
-70.465	800.000	0.081	0.226
-69.451	-26.382	-0.063	0.036
-68.436	237.150	-0.099	0.162
-67.422	-200.000	0.039	0.203
-66.407	-200.000	0.049	0.276
-65.392	-78.855	-0.021	0.007
-64.378	229.035	-0.053	0.085
-63.363	-108.621	-0.144	0.030
-62.349	84.368	0.119	-0.128
-61.334	32.813	-0.802	-0.682
-60.319	56.141	0.654	0.624
-59.305	98.934	-0.674	-0.765
-58.290	318.099	0.662	1.232
-57.276	800.000	0.525	1.644
-56.261	-200.000	94.848	595.247
-55.246	678.800	1367.155	3494.820
-54.232	199.290	2550.753	3841.381
-53.217	115.089	2268.464	2720.215
-52.203	41.818	1896.996	1689.628
-51.188	35.499	1686.894	1454.748
-50.173	32.798	1642.712	1396.624
-49.159	50.232	1688.070	1566.269
-48.144	51.936	1704.331	1594.060
-47.130	35.130	1665.927	1433.676
-46.115	32.372	1651.779	1400.936
-45.100	32.219	1646.631	1395.383
-44.086	32.111	1643.777	1392.110
-43.071	32.134	1641.337	1390.157
-42.057	32.178	1638.679	1388.171
-41.042	32.140	1637.069	1386.474
-40.027	32.086	1635.733	1384.891
-39.013	32.180	1633.098	1383.293
-37.998	32.078	1632.205	1381.732
-36.984	31.995	1630.896	1379.960
-35.969	32.220	1628.661	1379.664
-34.954	32.297	1627.474	1379.171
-33.940	32.234	1625.514	1376.995
-32.925	32.324	1623.528	1375.919
-31.911	32.224	1622.001	1373.838
-30.896	32.207	1620.501	1372.388
-29.881	32.272	1618.516	1371.122
-28.867	32.175	1617.253	1369.291
-27.852	32.268	1615.610	1368.524
-26.838	32.209	1614.158	1366.810
-25.823	32.232	1612.940	1365.891
-24.809	32.246	1611.480	1364.706
-23.794	32.214	1609.729	1362.937
-22.779	32.292	1608.323	1362.257
-21.765	32.173	1607.160	1360.354
-20.750	32.247	1605.342	1359.300
-19.736	32.277	1604.408	1358.674
-18.721	32.342	1601.889	1356.956
-17.706	32.357	1600.807	1356.089
-16.692	32.278	1599.298	1354.186
-15.677	32.299	1597.872	1353.082
-14.663	32.403	1596.519	1352.631
-13.648	32.336	1595.348	1351.098
-12.633	32.275	1593.729	1349.237
-11.619	32.291	1592.020	1347.855
-10.604	32.304	1590.570	1346.663
-9.590	32.294	1589.424	1345.570
-8.575	32.274	1588.560	1344.638
-7.560	32.287	1587.115	1343.457
-6.546	32.270	1586.075	1342.405
-5.531	32.386	1584.632	1341.953
-4.517	32.363	1583.291	1340.599
-3.502	32.298	1582.376	1339.312
-2.487	32.334	1580.796	1338.179
-1.473	32.002	1569.544	1326.251
-0.458	29.255	1550.056	1290.531
0.556	25.424	1549.831	1259.275
1.571	23.038	1573.301	1261.231
2.586	22.487	1586.106	1267.419
3.600	19.933	1532.975	1207.070
4.615	12.080	1425.266	1071.053
5.629	5.757	1362.650	984.306
6.644	4.688	1354.926	971.968
7.659	4.561	1353.750	970.244
8.673	4.523	1353.066	969.431
9.688	4.628	1350.759	968.345
10.702	4.435	1348.123	965.169
11.717	7.469	1353.456	987.813
12.731	14.874	1366.889	1043.926
13.746	19.372	1373.896	1077.348
14.761	19.232	1372.218	1075.067
15.775	18.212	1368.875	1065.995
16.790	17.124	1366.316	1057.138
17.804	16.186	1364.598	1049.880
18.819	15.833	1363.106	1046.449
19.834	15.531	1362.037	1043.657
20.848	15.322	1361.000	1041.472
21.863	15.192	1359.095	1039.118
22.877	14.976	1358.234	1037.031
23.892	14.937	1357.334	1036.010
24.907	14.951	1356.529	1035.387
25.921	14.923	1355.890	1034.634
26.936	14.991	1354.703	1034.059
27.950	15.011	1353.788	1033.395
28.965	15.210	1352.548	1033.584
29.980	15.198	1351.772	1032.823
30.994	15.302	1350.102	1032.099
32.009	15.276	1349.614	1031.473
33.023	15.406	1347.866	1030.843
34.038	15.235	1346.976	1029.024
35.053	15.060	1345.978	1027.098
36.067	15.194	1344.221	1026.486
37.082	15.122	1343.995	1025.781
38.096	15.167	1343.155	1025.320
39.111	15.200	1342.038	1024.583
40.126	15.222	1340.987	1023.821
41.140	14.898	1340.628	1021.479
42.155	14.857	1339.768	1020.486
43.169	14.938	1339.242	1020.485
44.184	14.931	1338.942	1020.124
45.199	14.904	1338.954	1019.882
46.213	14.953	1338.277	1019.572
47.228	14.994	1337.835	1019.396
48.242	15.109	1336.274	1018.816
49.257	15.065	1334.663	1017.231
50.271	15.151	1332.800	1016.245
51.286	15.048	1332.133	1015.016
52.301	15.118	1330.707	1014.268
53.315	15.018	1329.598	1012.724
54.330	14.917	1328.729	1011.366
55.344	14.933	1327.250	1010.246
56.359	14.916	1326.555	1009.526
57.374	14.931	1325.587	1008.790
58.388	14.879	1324.430	1007.505
59.403	14.741	1324.320	1006.501
60.417	14.890	1323.574	1006.742
61.432	14.762	1322.807	1005.300
62.447	14.712	1321.810	1004.150
63.461	14.770	1320.104	1003.117
64.476	14.611	1319.438	1001.569
65.490	14.719	1318.343	1001.293
66.505	14.729	1316.218	999.654
67.520	14.849	1315.275	999.568
68.534	14.780	1314.337	998.349
69.549	14.785	1313.838	997.914
70.563	14.742	1312.459	996.522
71.578	14.769	1311.482	995.854
72.593	14.644	1310.576	994.334
73.607	14.650	1309.854	993.731
74.622	14.630	1308.904	992.807
75.636	14.676	1308.090	992.372
76.651	14.739	1307.627	992.310
77.666	14.717	1306.906	991.540
78.680	14.745	1306.698	991.464
79.695	14.778	1305.709	990.823
80.709	14.756	1305.093	990.132
81.724	14.915	1304.115	990.246
82.739	14.951	1303.131	989.624
83.753	14.934	1302.593	989.028
84.768	15.050	1301.739	988.979
85.782	15.178	1300.193	988.473
86.797	15.070	1299.406	987.149
87.812	15.103	1297.914	986.120
88.826	14.975	1297.215	984.751
89.841	15.051	1295.994	984.186
90.855	15.147	1294.778	983.737
91.870	15.076	1294.145	982.754
92.884	15.115	1293.134	982.123
93.899	15.153	1292.616	981.870
94.914	15.254	1291.729	981.698
95.928	15.282	1291.014	981.232
96.943	15.251	1289.406	979.741
97.957	15.042	1288.977	978.108
98.972	15.129	1288.463	978.143
99.987	15.145	1286.838	976.914
101.001	15.135	1286.197	976.284
102.016	15.153	1285.367	975.668
103.030	15.150	1284.248	974.715
104.045	15.191	1283.029	973.945
105.060	15.070	1282.013	972.382
106.074	14.922	1280.899	970.595
107.089	14.790	1279.253	968.497
108.103	14.811	1277.818	967.448
109.118	14.812	1276.510	966.375
110.133	14.840	1275.365	965.587
111.147	14.828	1273.971	964.374
112.162	14.902	1272.790	963.820
113.176	14.857	1271.832	962.755
114.191	14.959	1270.943	962.580
115.206	15.013	1269.533	961.738
116.220	14.799	1268.732	959.817
117.235	14.983	1267.018	959.491
118.249	14.823	1266.618	958.188
119.264	14.946	1265.198	957.731
120.279	14.722	1264.341	955.715
121.293	14.729	1263.473	955.016
122.308	14.809	1261.720	954.065
123.322	14.775	1261.188	953.383
124.337	14.746	1260.093	952.306
125.352	14.704	1259.005	951.162
126.366	14.751	1257.664	950.328
127.381	14.815	1256.885	950.023
128.395	14.797	1255.843	949.048
129.410	14.879	1254.913	948.723
130.424	14.796	1254.524	947.878
131.439	14.942	1252.598	947.163
132.454	14.868	1252.430	946.536
133.468	14.956	1251.472	946.222
134.483	14.978	1250.529	945.554
135.497	14.924	1249.802	944.615
136.512	14.941	1248.656	943.760
137.527	14.961	1247.312	942.771
138.541	15.005	1245.631	941.668
139.556	15.020	1244.692	940.959
140.570	15.134	1243.596	940.685
141.585	15.150	1242.435	939.812
142.600	15.189	1241.277	939.074
143.614	15.156	1240.673	938.352
144.629	15.233	1239.432	937.760
145.643	15.243	1238.340	936.907
146.658	15.117	1237.132	935.206
147.673	15.113	1235.675	933.997
148.687	15.017	1234.255	932.311
149.702	14.958	1233.337	931.201
150.716	14.981	1232.142	930.345
151.731	14.986	1231.222	929.595
152.746	14.952	1229.975	928.385
153.760	15.035	1228.575	927.709
154.775	15.024	1227.730	926.924
155.789	15.119	1226.639	926.546
156.804	15.117	1225.715	925.756
157.819	15.249	1224.275	925.316
158.833	15.247	1223.718	924.797
159.848	15.343	1222.991	924.697
160.862	15.340	1222.091	923.918
161.877	15.202	1220.654	921.990
162.892	15.077	1219.644	920.461
163.906	15.142	1218.160	919.618
164.921	15.157	1217.921	919.434
165.935	15.229	1216.993	919.048
166.950	15.189	1216.745	918.559
167.964	15.241	1215.710	917.982
168.979	15.259	1215.086	917.528
169.994	15.209	1214.307	916.586
171.008	15.176	1213.660	915.838
172.023	15.335	1212.471	915.728
173.037	15.321	1211.892	915.133
174.052	15.306	1210.824	914.160
175.067	15.323	1209.524	913.192
176.081	15.073	1209.465	911.706
177.096	15.207	1207.902	911.177
178.110	15.220	1207.115	910.574
179.125	15.330	1205.528	909.893
180.140	15.327	1204.379	908.926
181.154	15.250	1203.418	907.703
182.169	15.341	1202.091	907.114
183.183	15.441	1201.312	906.990
184.198	15.394	1200.090	905.730
185.213	15.450	1198.481	904.739
186.227	15.440	1198.119	904.331
187.242	15.578	1197.236	904.330
188.256	15.563	1195.790	903.073
189.271	15.573	1194.783	902.290
190.286	15.563	1193.462	901.158
191.300	15.155	1192.884	898.454
192.315	15.196	1192.055	897.971
193.329	15.094	1192.096	897.372
194.344	15.268	1190.865	897.301
195.359	15.277	1190.645	897.104
196.373	15.465	1189.884	897.454
197.388	15.506	1189.546	897.339
198.402	15.638	1189.214	897.716
199.417	15.713	1188.469	897.472
200.432	15.755	1187.618	896.976
201.446	15.898	1186.868	897.090
202.461	15.872	1185.953	896.179
203.475	15.868	1184.724	895.151
204.490	15.788	1183.402	893.648
205.504	15.692	1182.004	892.005
206.519	15.761	1180.924	891.478
207.534	15.601	1180.266	890.054
208.548	15.618	1179.342	889.368
209.563	15.691	1178.111	888.748
210.577	15.615	1177.650	887.921
211.592	15.664	1176.679	887.367
212.607	15.969	1175.630	888.109
213.621	15.785	1175.316	886.822
214.636	15.782	1174.266	885.933
215.650	15.895	1172.948	885.454
216.665	15.756	1172.628	884.403
217.680	15.974	1171.841	884.879
218.694	16.014	1170.830	884.246
219.709	16.001	1170.182	883.608
220.723	15.967	1169.571	882.895
221.738	15.997	1168.813	882.402
222.753	15.986	1167.952	881.616
223.767	15.991	1167.202	880.996
224.782	16.115	1166.530	881.058
225.796	16.062	1165.912	880.236
226.811	16.149	1165.065	879.974
227.826	16.030	1164.592	878.919
228.840	16.101	1163.538	878.417
229.855	15.982	1163.380	877.600
230.869	15.994	1162.531	876.945
231.884	16.070	1161.183	876.246
232.899	16.012	1160.484	875.336
233.913	15.931	1160.435	874.799
234.928	15.895	1159.617	873.920
235.942	15.876	1158.637	873.008
236.957	15.854	1157.766	872.160
237.972	15.855	1157.176	871.645
238.986	15.946	1156.479	871.512
240.001	16.020	1155.456	871.045
241.015	16.033	1154.727	870.486
242.030	16.058	1154.027	870.013
243.045	16.028	1153.343	869.263
244.059	16.158	1152.212	869.002
245.074	16.149	1151.604	868.420
246.088	16.182	1150.896	867.982
247.103	16.318	1149.825	867.795
248.117	16.320	1149.481	867.468
249.132	16.352	1149.105	867.273
250.147	16.407	1148.393	866.943
251.161	16.504	1147.386	866.600
252.176	16.478	1146.968	866.074
253.190	16.640	1146.388	866.390
254.205	16.677	1145.549	865.871
255.220	16.799	1144.622	865.715
256.234	16.636	1144.361	864.606
257.249	16.738	1143.315	864.260
258.263	16.621	1142.863	863.247
259.278	16.629	1142.313	862.796
260.293	16.680	1141.545	862.401
261.307	16.783	1141.336	862.688
262.322	16.674	1140.936	861.757
263.336	16.854	1139.993	861.883
264.351	16.787	1139.339	860.972
265.366	16.813	1138.454	860.362
266.380	16.885	1137.716	860.090
267.395	16.727	1137.237	858.852
268.409	16.787	1136.129	858.245
269.424	16.787	1135.484	857.677
270.439	16.783	1134.775	857.048
271.453	16.776	1134.174	856.481
272.468	16.731	1133.336	855.546
273.482	16.759	1132.465	854.957
274.497	16.738	1131.993	854.418
275.512	16.864	1131.252	854.419
276.526	16.722	1130.738	853.239
277.541	16.750	1129.669	852.497
278.555	16.871	1129.185	852.665
279.570	17.008	1128.378	852.668
280.585	16.947	1128.138	852.107
281.599	17.002	1126.697	851.216
282.614	16.831	1125.941	849.714
283.628	16.825	1124.778	848.729
284.643	16.854	1123.666	847.964
285.657	16.872	1123.230	847.645
286.672	16.908	1121.826	846.692
287.687	16.914	1121.331	846.276
288.701	16.960	1120.458	845.768
289.716	16.959	1120.183	845.481
290.730	16.998	1118.702	844.485
291.745	17.047	1118.210	844.281
292.760	17.024	1117.424	843.498
293.774	17.024	1117.158	843.221
294.789	17.124	1116.407	843.081
295.803	17.153	1115.875	842.748
296.818	17.107	1115.141	841.888
297.833	17.020	1114.323	840.765
298.847	16.975	1113.772	840.053
299.862	17.009	1112.793	839.409
300.876	17.171	1112.291	839.757
301.891	17.217	1111.530	839.336
302.906	17.251	1110.953	838.992
303.920	17.280	1110.302	838.568
304.935	17.259	1109.821	838.027
305.949	17.482	1108.673	838.185
306.964	17.276	1108.573	837.023
307.979	17.339	1107.442	836.404
308.993	17.333	1107.066	836.015
310.008	17.500	1105.979	835.941
311.022	17.414	1105.132	834.804
312.037	17.376	1104.611	834.150
313.052	17.288	1103.761	833.004
314.066	17.285	1102.659	832.084
315.081	17.261	1101.597	831.093
316.095	17.220	1101.188	830.511
317.110	17.314	1100.404	830.303
318.125	17.188	1099.951	829.276
319.139	17.221	1099.324	828.888
320.154	17.364	1098.201	828.665
321.168	17.238	1097.926	827.773
322.183	17.294	1097.465	827.624
323.197	17.304	1096.797	827.095
324.212	17.301	1096.448	826.744
325.227	17.396	1095.859	826.689
326.241	17.356	1095.269	825.974
327.256	17.246	1094.466	824.764
328.270	17.465	1093.023	824.665
329.285	17.366	1092.374	823.623
330.300	17.392	1091.276	822.845
331.314	17.317	1090.405	821.755
332.329	17.364	1089.233	821.027
333.343	17.417	1088.639	820.761
334.358	17.456	1087.981	820.379
335.373	17.578	1087.375	820.438
336.387	17.618	1086.434	819.846
337.402	17.665	1085.701	819.448
338.416	17.514	1085.459	818.469
339.431	17.694	1084.579	818.597
340.446	17.691	1084.205	818.229
341.460	17.820	1083.407	818.172
342.475	17.785	1082.607	817.326
343.489	17.899	1081.365	816.865
344.504	17.936	1080.815	816.552
345.519	17.884	1079.848	815.501
346.533	17.889	1079.498	815.190
347.548	17.838	1078.828	814.368
348.562	17.935	1077.435	813.707
349.577	17.901	1077.091	813.213
350.592	17.909	1075.781	812.191
351.606	17.746	1075.229	810.924
352.621	17.644	1074.921	810.137
353.635	17.799	1074.146	810.214
354.650	17.893	1073.361	809.997
355.665	17.776	1072.723	808.891
356.679	17.795	1072.115	808.450
357.694	17.817	1071.560	808.065
358.708	17.868	1071.001	807.815
359.723	17.909	1070.202	807.332
360.738	17.894	1069.549	806.700
361.752	17.902	1069.173	806.381
362.767	17.968	1068.442	806.070
363.781	18.064	1067.714	805.903
364.796	18.007	1067.725	805.569
365.810	18.187	1067.026	805.818
366.825	18.235	1066.168	805.328
367.840	18.261	1065.953	805.213
368.854	18.329	1064.983	804.728
369.869	18.236	1064.414	803.790
370.883	18.318	1063.596	803.489
371.898	18.224	1062.490	802.142
372.913	18.170	1062.301	801.674
373.927	18.304	1061.640	801.732
374.942	18.271	1061.398	801.322
375.956	18.297	1060.545	800.733
376.971	18.303	1060.237	800.456
377.986	18.290	1059.651	799.882
379.000	18.431	1058.936	799.931
380.015	18.352	1058.548	799.194
381.029	18.372	1058.067	798.857
382.044	18.491	1057.110	798.617
383.059	18.541	1056.295	798.162
384.073	18.471	1055.420	797.107
385.088	18.507	1054.633	796.608
386.102	18.502	1053.744	795.842
387.117	18.494	1052.739	794.976
388.132	18.414	1051.742	793.784
389.146	18.409	1050.939	793.082
390.161	18.500	1050.338	792.983
391.175	18.297	1049.655	791.457
392.190	18.441	1049.121	791.648
393.205	18.514	1048.667	791.573
394.219	18.532	1047.417	790.644
395.234	18.520	1046.416	789.764
396.248	18.397	1045.794	788.657
397.263	18.512	1044.554	788.181
398.278	18.414	1043.751	787.057
399.292	18.280	1043.258	785.998
400.307	18.353	1042.455	785.659
401.321	18.426	1041.737	785.383
402.336	18.495	1040.835	784.948
403.350	18.360	1040.165	783.758
404.365	18.441	1039.869	783.834
405.380	18.398	1039.241	783.095
406.394	18.491	1038.855	783.162
407.409	18.690	1037.805	783.209
408.423	18.713	1036.889	782.553
409.438	18.749	1036.622	782.445
410.453	18.810	1036.025	782.204
411.467	18.897	1035.225	781.926
412.482	18.865	1034.655	781.280
413.496	18.842	1034.365	780.887
414.511	18.937	1033.588	780.665
415.526	19.004	1033.118	780.542
416.540	19.023	1032.417	780.029
417.555	19.057	1031.900	779.724
418.569	19.046	1031.125	779.020
419.584	18.881	1030.967	778.083
420.599	19.086	1030.105	778.291
421.613	150.936	1400.594	1793.939
422.628	137.710	1454.558	1794.027
