DTS Sentinel unit serial number:	SN413079Multiplexer serial number:	ORYXHardware model number:	OX4-SRSoftware version number:	ORYX F/W v4.00 Oryx Data Collector v3.7.2.0data status	okinstallation	princeton_trtdifferential loss correction	single-endedforward channel	channel 2reverse channel	N/Adate	2019/09/18time	07:31:35forward acquisition time	60.00reverse acquisition time	0.00gamma	496.2192k internal	0.2349k external	0.2349temperature offset calibration	0.9981default loss term (dB/km)	0.3790temperature slope calibration	1.0000multiplexer offset coefficient	1.0000multiplexer slope coefficient	1.0000fibre end	0.00T internal ref (°C)	23.19T ext. ref 1 (°C)	0.19T ext. ref 2 (°C)	17.56length (m)	temperature (°C)	Stokes	anti-Stokes-747.200	-108.260	0.285	0.062
-746.185	-65.649	0.162	-0.065
-745.171	60.543	0.059	0.058
-744.156	-44.483	0.137	0.068
-743.142	71.850	-0.186	-0.193
-742.127	9.985	-0.189	0.143
-741.112	-137.266	0.232	-0.026
-740.098	74.581	-0.093	0.098
-739.083	-48.516	0.359	-0.172
-738.069	498.623	-0.191	0.439
-737.054	-18.681	-0.207	0.129
-736.039	-87.469	-0.129	0.039
-735.025	369.109	0.021	-0.043
-734.010	-200.000	-0.015	-0.077
-732.996	10.082	-0.429	0.325
-731.981	-70.375	-0.225	0.085
-730.966	285.026	-0.258	0.464
-729.952	-200.000	0.027	-0.270
-728.937	182.502	0.024	0.035
-727.923	75.608	-0.336	0.354
-726.908	-200.000	0.043	-0.379
-725.894	121.853	-0.110	0.138
-724.879	-200.000	0.057	-0.296
-723.864	-93.772	-0.258	0.071
-722.850	255.897	-0.082	0.140
-721.835	-200.000	0.022	-0.392
-720.821	7.112	-0.180	0.134
-719.806	-124.430	-0.133	0.021
-718.791	800.000	0.016	-0.052
-717.777	-200.000	0.028	-0.399
-716.762	-200.000	-0.065	-0.513
-715.748	366.012	-0.070	-0.142
-714.733	-200.000	0.011	-0.241
-713.718	42.728	-0.261	-0.237
-712.704	-70.203	0.153	0.058
-711.689	704.621	-0.125	0.329
-710.675	-200.000	0.029	0.196
-709.660	-200.000	-0.060	-0.442
-708.645	800.000	-0.110	0.344
-707.631	423.253	-0.145	-0.310
-706.616	522.524	-0.056	0.132
-705.602	57.912	-0.093	-0.091
-704.587	-200.000	0.053	0.257
-703.572	800.000	-0.050	-0.145
-702.558	-48.632	0.405	-0.194
-701.543	0.350	0.039	0.027
-700.529	-190.627	-0.363	0.004
-699.514	237.802	0.224	0.370
-698.499	51.033	0.112	0.106
-697.485	283.101	-0.036	-0.064
-696.470	-200.000	0.004	-0.198
-695.456	-16.534	-0.203	0.128
-694.441	-89.274	-0.427	0.126
-693.426	-200.000	0.007	-0.210
-692.412	-160.039	-0.311	-0.017
-691.397	123.715	-0.225	0.282
-690.383	747.666	0.078	-0.208
-689.368	-114.239	-0.370	-0.071
-688.354	-200.000	0.006	0.392
-687.339	800.000	0.075	-0.260
-686.324	313.138	0.013	-0.024
-685.310	-200.000	-0.009	0.102
-684.295	545.661	-0.081	0.193
-683.281	-156.890	0.187	0.011
-682.266	33.474	-0.112	0.097
-681.251	85.380	-0.026	0.029
-680.237	187.410	0.282	-0.419
-679.222	800.000	-0.035	-0.102
-678.208	25.417	-0.230	-0.191
-677.193	-22.663	0.113	0.068
-676.178	800.000	-0.112	-0.313
-675.164	-200.000	0.042	-0.276
-674.149	548.149	-0.070	0.166
-673.135	320.484	0.164	-0.310
-672.120	152.432	0.157	0.213
-671.105	-108.972	0.251	0.053
-670.091	-200.000	0.004	-0.295
-669.076	31.864	-0.151	-0.129
-668.062	69.801	0.216	0.222
-667.047	-6.577	0.255	0.173
-666.032	92.027	0.142	0.159
-665.018	542.741	-0.105	-0.250
-664.003	146.759	-0.109	0.145
-662.989	-7.338	-0.049	-0.033
-661.974	800.000	0.078	-0.230
-660.959	-39.751	-0.159	-0.083
-659.945	-71.535	-0.308	0.115
-658.930	-139.533	-0.142	-0.015
-657.916	-156.945	-0.149	0.009
-656.901	60.106	0.270	-0.266
-655.886	408.626	-0.213	0.448
-654.872	-200.000	-0.035	-0.213
-653.857	-200.000	-0.046	-0.208
-652.843	150.269	0.165	0.223
-651.828	-136.962	0.392	-0.045
-650.814	-16.291	-0.252	-0.159
-649.799	-50.784	-0.049	0.023
-648.784	-14.992	-0.240	-0.153
-647.770	-155.592	-0.176	-0.011
-646.755	205.231	0.153	-0.236
-645.741	-119.483	0.178	-0.031
-644.726	-79.197	-0.340	-0.115
-643.711	-41.552	0.277	0.142
-642.697	41.436	0.206	-0.185
-641.682	-129.455	-0.369	0.051
-640.668	-43.621	-0.167	0.084
-639.653	285.949	-0.083	-0.149
-638.638	-36.726	0.048	-0.026
-637.624	10.863	0.218	0.166
-636.609	-200.000	0.002	0.218
-635.595	93.339	-0.131	0.148
-634.580	800.000	0.008	0.026
-633.565	-173.344	-0.269	-0.008
-632.551	-133.519	-0.386	0.048
-631.536	800.000	0.120	-0.337
-630.522	231.297	0.033	-0.053
-629.507	-120.306	0.198	0.034
-628.492	-128.820	-0.134	-0.019
-627.478	-3.771	0.149	-0.103
-626.463	118.560	-0.112	-0.137
-625.449	143.908	-0.170	0.225
-624.434	194.128	-0.064	0.096
-623.419	-14.140	-0.278	0.178
-622.405	-140.641	0.257	-0.027
-621.390	800.000	0.131	-0.372
-620.376	-25.335	0.245	0.144
-619.361	27.135	-0.094	-0.078
-618.346	11.375	-0.247	-0.188
-617.332	-200.000	0.022	-0.248
-616.317	-79.784	0.233	0.078
-615.303	800.000	0.126	-0.475
-614.288	-200.000	-0.037	0.306
-613.273	-200.000	0.044	0.211
-612.259	-200.000	0.030	-0.161
-611.244	9.633	0.237	0.179
-610.230	55.426	-0.115	-0.111
-609.215	-200.000	-0.025	0.127
-608.201	-70.289	0.236	-0.089
-607.186	-138.613	0.183	0.020
-606.171	-108.937	0.067	0.014
-605.157	-200.000	-0.005	-0.159
-604.142	-153.132	0.156	0.011
-603.128	-38.539	0.193	0.101
-602.113	-200.000	-0.014	-0.066
-601.098	-42.794	0.309	0.156
-600.084	-200.000	0.010	-0.083
-599.069	-43.330	0.241	-0.121
-598.055	-20.225	0.113	0.069
-597.040	273.246	-0.137	-0.241
-596.025	64.107	0.068	-0.068
-595.011	644.815	-0.111	0.282
-593.996	-127.219	-0.588	0.085
-592.982	-36.332	-0.125	-0.067
-591.967	-93.089	-0.307	-0.085
-590.952	41.403	0.242	0.217
-589.938	157.391	0.123	0.170
-588.923	238.181	-0.183	0.302
-587.909	-200.000	-0.028	0.123
-586.894	-104.263	0.343	0.079
-585.879	7.265	-0.395	0.293
-584.865	800.000	-0.074	-0.259
-583.850	75.989	-0.159	0.167
-582.836	183.972	0.172	0.253
-581.821	-128.273	0.166	0.023
-580.806	-200.000	0.069	0.334
-579.792	-9.387	-0.352	-0.234
-578.777	-31.012	-0.098	-0.055
-577.763	513.598	-0.200	-0.462
-576.748	186.771	-0.195	0.289
-575.733	10.694	0.265	-0.200
-574.719	84.686	-0.059	-0.064
-573.704	-200.000	0.016	-0.093
-572.690	-200.000	-0.024	0.308
-571.675	72.372	-0.228	-0.236
-570.661	-79.614	0.037	-0.012
-569.646	-125.954	0.152	-0.023
-568.631	10.614	0.131	-0.099
-567.617	-114.192	-0.104	0.020
-566.602	-6.820	-0.215	-0.145
-565.588	-59.303	-0.209	-0.089
-564.573	-56.117	-0.347	0.153
-563.558	-188.216	0.379	0.005
-562.544	245.310	0.061	0.101
-561.529	-35.299	-0.274	-0.148
-560.515	65.456	-0.157	0.158
-559.500	-200.000	0.005	0.300
-558.485	-52.614	0.207	-0.095
-557.471	-68.187	-0.207	-0.080
-556.456	-200.000	0.010	-0.166
-555.442	-175.758	0.224	0.006
-554.427	-200.000	-0.037	0.238
-553.412	-200.000	-0.036	-0.319
-552.398	-71.299	-0.218	0.081
-551.383	-200.000	0.033	0.166
-550.369	-200.000	-0.049	-0.250
-549.354	-50.343	0.156	-0.073
-548.339	-45.965	0.019	-0.009
-547.325	23.150	0.113	-0.092
-546.310	-111.756	-0.247	0.050
-545.296	20.397	-0.113	0.090
-544.281	84.509	-0.142	0.154
-543.266	131.827	-0.230	-0.294
-542.252	578.159	-0.029	0.071
-541.237	-23.178	-0.382	0.228
-540.223	430.047	-0.089	-0.190
-539.208	-115.923	-0.175	-0.032
-538.193	800.000	0.101	0.407
-537.179	11.972	0.264	0.201
-536.164	133.168	0.018	0.023
-535.150	-200.000	0.022	0.471
-534.135	800.000	0.051	-0.211
-533.121	-5.864	-0.270	-0.183
-532.106	61.178	-0.279	-0.275
-531.091	-6.402	-0.120	0.081
-530.077	284.264	-0.099	-0.177
-529.062	-55.898	0.216	0.095
-528.048	460.249	0.099	-0.218
-527.033	-200.000	-0.010	0.111
-526.018	-200.000	0.015	-0.116
-525.004	-92.583	-0.068	-0.019
-523.989	318.478	0.170	0.318
-522.975	-200.000	-0.034	-0.618
-521.960	-14.986	0.447	0.283
-520.945	347.881	-0.149	0.291
-519.931	-68.983	0.152	0.058
-518.916	77.806	-0.124	-0.131
-517.902	-132.236	0.557	-0.071
-516.887	-71.163	-0.254	-0.094
-515.872	-49.736	-0.171	-0.080
-514.858	14.150	0.048	-0.037
-513.843	-74.715	-0.196	0.070
-512.829	64.123	0.158	-0.157
-511.814	-52.084	-0.075	-0.034
-510.799	-200.000	-0.022	-0.324
-509.785	-34.409	-0.124	-0.067
-508.770	-71.622	0.207	-0.077
-507.756	240.629	0.143	-0.235
-506.741	-83.745	-0.138	-0.044
-505.726	-79.090	-0.089	0.030
-504.712	-121.654	-0.117	-0.019
-503.697	-63.981	0.208	0.084
-502.683	-73.496	-0.181	-0.065
-501.668	800.000	0.048	-0.158
-500.653	-75.898	0.248	-0.087
-499.639	-120.730	-0.465	-0.078
-498.624	-30.027	-0.139	0.078
-497.610	-200.000	-0.010	0.176
-496.595	62.330	0.129	0.127
-495.581	-200.000	-0.032	-0.186
-494.566	-155.556	-0.072	-0.005
-493.551	216.744	-0.173	-0.273
-492.537	-200.000	0.055	-0.257
-491.522	28.243	-0.130	-0.109
-490.508	-200.000	0.005	0.198
-489.493	263.816	-0.047	-0.080
-488.478	-200.000	-0.004	-0.195
-487.464	-200.000	-0.010	0.068
-486.449	-26.200	-0.161	-0.094
-485.435	800.000	0.093	0.321
-484.420	-20.487	-0.163	-0.099
-483.405	-12.508	0.098	0.063
-482.391	371.928	-0.143	0.287
-481.376	-72.886	0.171	0.062
-480.362	225.295	0.108	0.172
-479.347	-67.135	-0.158	0.062
-478.332	-1.491	0.206	0.143
-477.318	-47.113	0.202	-0.097
-476.303	585.774	0.026	0.064
-475.289	-200.000	-0.004	-0.189
-474.274	800.000	-0.094	-0.357
-473.259	-200.000	0.025	-0.321
-472.245	-99.618	-0.321	-0.080
-471.230	-154.307	-0.217	0.014
-470.216	-200.000	0.003	-0.120
-469.201	40.953	-0.075	0.066
-468.186	25.511	-0.234	0.192
-467.172	-200.000	0.039	0.189
-466.157	92.234	0.066	0.073
-465.143	-182.407	-0.023	-0.000
-464.128	-30.846	0.119	0.066
-463.113	-122.870	-0.126	-0.020
-462.099	-129.894	0.330	0.045
-461.084	-200.000	-0.024	-0.117
-460.070	-141.611	-0.129	-0.013
-459.055	-179.641	0.209	0.004
-458.040	-200.000	-0.026	0.358
-457.026	-123.422	-0.160	0.025
-456.011	65.509	-0.182	0.182
-454.997	-22.531	0.151	-0.090
-453.982	-127.690	0.396	-0.056
-452.968	-47.669	0.116	-0.056
-451.953	113.282	-0.230	0.275
-450.938	-90.672	-0.069	0.020
-449.924	144.535	0.027	0.036
-448.909	-105.017	0.386	0.087
-447.895	95.304	0.057	0.064
-446.880	305.630	0.054	0.099
-445.865	-200.000	-0.037	0.249
-444.851	183.977	-0.205	-0.300
-443.836	-99.589	0.394	0.098
-442.822	576.049	0.059	-0.142
-441.807	-34.346	-0.037	-0.020
-440.792	-81.925	-0.333	0.108
-439.778	316.589	-0.106	0.198
-438.763	-52.636	-0.171	0.078
-437.749	-200.000	0.054	0.339
-436.734	-200.000	-0.031	-0.224
-435.719	-102.178	-0.108	0.026
-434.705	-159.074	0.224	0.012
-433.690	-142.654	-0.181	-0.017
-432.676	-29.613	0.152	-0.086
-431.661	50.375	0.121	0.113
-430.646	121.807	0.179	-0.220
-429.632	-102.341	0.391	0.093
-428.617	-5.664	-0.117	-0.079
-427.603	-4.272	0.066	0.045
-426.588	-5.255	-0.338	0.229
-425.573	-63.882	-0.150	0.061
-424.559	81.413	0.096	0.102
-423.544	-69.155	-0.107	-0.040
-422.530	800.000	-0.029	-0.115
-421.515	-52.871	-0.099	-0.045
-420.500	150.135	-0.283	-0.379
-419.486	87.926	0.050	-0.055
-418.471	800.000	-0.091	0.258
-417.457	362.560	0.084	-0.166
-416.442	-52.190	-0.041	-0.019
-415.428	-200.000	0.069	-0.383
-414.413	301.496	0.116	-0.211
-413.398	307.883	-0.167	0.307
-412.384	20.895	0.164	-0.131
-411.369	-71.610	0.276	0.101
-410.355	-197.448	0.189	-0.001
-409.340	105.637	-0.141	-0.164
-408.325	36.149	0.176	0.153
-407.311	-119.464	0.075	-0.013
-406.296	181.013	-0.106	0.154
-405.282	-11.731	-0.211	0.137
-404.267	613.696	0.029	-0.072
-403.252	459.858	0.166	-0.364
-402.238	90.577	-0.107	0.118
-401.223	-48.508	-0.477	0.226
-400.209	160.001	0.112	0.153
-399.194	800.000	-0.133	0.386
-398.179	-155.654	-0.228	0.014
-397.165	419.349	0.115	-0.243
-396.150	188.647	-0.116	-0.172
-395.136	-200.000	-0.003	-0.244
-394.121	-200.000	0.007	0.267
-393.106	76.099	0.133	0.139
-392.092	23.408	0.233	0.188
-391.077	-200.000	-0.005	-0.030
-390.063	-9.524	-0.146	-0.096
-389.048	-113.870	0.281	0.054
-388.033	71.405	0.122	-0.125
-387.019	-38.335	-0.434	0.226
-386.004	213.535	0.048	0.075
-384.990	-99.236	0.220	0.055
-383.975	-42.578	0.386	0.193
-382.960	800.000	0.072	0.254
-381.946	-9.818	-0.135	-0.088
-380.931	8.119	-0.110	-0.081
-379.917	-161.387	0.300	-0.015
-378.902	408.637	0.148	-0.309
-377.888	33.746	0.128	-0.109
-376.873	138.987	0.178	-0.230
-375.858	414.173	-0.030	0.062
-374.844	-200.000	-0.030	-0.257
-373.829	800.000	0.007	-0.025
-372.815	9.379	-0.184	0.137
-371.800	47.253	-0.114	0.105
-370.785	383.565	-0.042	-0.085
-369.771	-121.823	0.125	-0.020
-368.756	-87.871	-0.333	0.099
-367.742	611.483	0.058	-0.142
-366.727	358.774	0.089	0.174
-365.712	-8.283	0.127	-0.084
-364.698	800.000	-0.101	0.368
-363.683	-200.000	-0.005	-0.023
-362.669	-38.720	-0.142	-0.074
-361.654	-188.828	-0.134	-0.002
-360.639	417.815	0.125	-0.263
-359.625	615.565	-0.097	-0.238
-358.610	800.000	-0.067	0.221
-357.596	133.801	-0.108	0.138
-356.581	-119.056	-0.161	-0.028
-355.566	-200.000	0.019	-0.442
-354.552	800.000	0.129	-0.352
-353.537	59.335	0.127	-0.123
-352.523	-127.049	0.130	-0.019
-351.508	5.819	-0.168	-0.122
-350.493	-200.000	-0.036	-0.439
-349.479	-135.028	-0.081	-0.010
-348.464	115.576	-0.121	0.145
-347.450	733.749	0.089	-0.234
-346.435	-83.733	0.132	0.042
-345.420	320.229	0.033	0.062
-344.406	-135.299	-0.053	0.006
-343.391	-55.474	-0.218	0.096
-342.377	-70.716	0.221	0.082
-341.362	32.609	-0.084	-0.071
-340.348	18.262	0.191	0.150
-339.333	-200.000	-0.004	-0.095
-338.318	-38.261	0.407	0.212
-337.304	800.000	-0.100	-0.332
-336.289	537.204	0.028	-0.066
-335.275	491.109	-0.066	-0.149
-334.260	145.345	0.024	-0.032
-333.245	46.637	-0.155	0.141
-332.231	-200.000	-0.013	0.083
-331.216	-144.674	0.082	0.007
-330.202	84.186	-0.225	-0.242
-329.187	800.000	-0.084	0.298
-328.172	-200.000	0.002	-0.051
-327.158	-65.498	-0.186	-0.074
-326.143	162.071	0.066	-0.090
-325.129	396.824	0.142	0.291
-324.114	-118.034	-0.493	-0.087
-323.099	-200.000	0.001	-0.144
-322.085	152.469	-0.243	0.327
-321.070	-200.000	0.029	0.128
-320.056	275.712	-0.113	0.197
-319.041	800.000	-0.100	0.295
-318.026	800.000	0.060	0.178
-317.012	-11.556	0.154	0.099
-315.997	619.960	0.047	0.115
-314.983	-200.000	-0.021	0.142
-313.968	-200.000	-0.000	0.220
-312.953	-53.022	0.283	0.128
-311.939	559.940	0.045	0.108
-310.924	-138.417	0.180	0.019
-309.910	-138.381	0.152	0.016
-308.895	172.545	-0.160	0.227
-307.880	-200.000	0.026	0.209
-306.866	146.988	0.100	0.132
-305.851	-183.803	-0.390	-0.006
-304.837	-74.020	0.173	-0.062
-303.822	70.148	0.094	-0.095
-302.807	-35.368	-0.443	0.236
-301.793	25.721	-0.203	-0.166
-300.778	-31.460	-0.190	0.105
-299.764	-108.142	-0.231	-0.049
-298.749	4.037	-0.117	0.084
-297.735	56.729	0.130	0.124
-296.720	23.119	0.308	0.248
-295.705	-16.854	-0.176	-0.109
-294.691	-14.206	-0.079	0.050
-293.676	-15.484	-0.136	0.085
-292.662	-200.000	0.027	0.239
-291.647	66.664	-0.278	0.278
-290.632	-158.604	-0.245	0.014
-289.618	49.662	0.225	0.208
-288.603	586.805	-0.100	-0.241
-287.589	57.675	0.218	0.209
-286.574	512.679	0.131	0.299
-285.559	-149.904	0.255	-0.020
-284.545	13.821	0.086	0.066
-283.530	-136.155	-0.264	-0.030
-282.516	17.237	0.133	0.104
-281.501	-142.116	-0.309	0.030
-280.486	345.654	-0.096	-0.185
-279.472	-15.645	0.093	0.058
-278.457	138.900	0.205	-0.264
-277.443	65.248	-0.183	0.182
-276.428	352.645	0.143	0.278
-275.413	159.631	-0.095	-0.130
-274.399	-44.079	0.280	-0.138
-273.384	-151.916	0.258	-0.019
-272.370	76.791	0.116	0.121
-271.355	85.628	0.068	-0.073
-270.340	-200.000	0.005	0.048
-269.326	-43.892	0.279	0.137
-268.311	447.344	-0.069	0.149
-267.297	-200.000	0.063	0.399
-266.282	-25.109	-0.324	0.188
-265.267	-164.335	0.440	0.020
-264.253	17.118	-0.216	0.168
-263.238	0.170	0.162	-0.113
-262.224	199.161	-0.131	-0.197
-261.209	-35.548	0.263	-0.140
-260.195	89.195	0.080	-0.087
-259.180	-65.553	0.231	0.091
-258.165	-89.619	-0.226	-0.065
-257.151	-75.548	0.165	0.057
-256.136	-200.000	0.026	-0.236
-255.122	-200.000	-0.023	-0.309
-254.107	66.032	0.154	0.153
-253.092	-95.443	-0.220	-0.058
-252.078	14.402	-0.059	-0.045
-251.063	48.676	0.221	-0.203
-250.049	347.361	-0.101	-0.195
-249.034	-200.000	-0.015	0.083
-248.019	-200.000	-0.007	0.087
-247.005	-49.027	-0.010	0.005
-245.990	60.557	-0.170	0.165
-244.976	6.116	0.281	0.204
-243.961	-78.942	-0.030	0.010
-242.946	-200.000	-0.048	0.257
-241.932	736.214	-0.101	0.266
-240.917	-64.673	0.309	0.123
-239.903	-42.002	-0.260	0.131
-238.888	-200.000	0.088	0.448
-237.873	16.422	0.126	0.097
-236.859	-38.255	-0.307	-0.159
-235.844	152.512	0.089	0.119
-234.830	-117.525	0.367	0.065
-233.815	157.291	0.201	-0.273
-232.800	250.313	0.175	-0.291
-231.786	-10.124	0.205	0.133
-230.771	139.015	0.201	-0.259
-229.757	-117.916	0.275	-0.048
-228.742	522.880	0.032	-0.074
-227.727	-86.782	-0.233	0.070
-226.713	-200.000	-0.036	-0.453
-225.698	800.000	-0.047	0.128
-224.684	485.460	-0.162	0.362
-223.669	-75.417	-0.123	0.043
-222.655	800.000	0.052	-0.173
-221.640	91.118	-0.149	0.164
-220.625	240.395	0.083	0.135
-219.611	-107.469	0.156	0.034
-218.596	309.148	-0.111	-0.203
-217.582	800.000	0.112	-0.398
-216.567	-94.598	0.146	-0.039
-215.552	-200.000	0.022	0.201
-214.538	-11.531	-0.057	-0.037
-213.523	-200.000	-0.094	0.418
-212.509	-200.000	0.028	-0.138
-211.494	-200.000	0.007	-0.204
-210.479	-94.154	0.066	-0.018
-209.465	-200.000	-0.003	-0.021
-208.450	130.857	-0.159	0.200
-207.436	74.569	0.252	-0.259
-206.421	89.602	-0.236	-0.258
-205.406	-92.571	-0.166	-0.046
-204.392	-100.199	-0.177	-0.043
-203.377	-200.000	0.057	-0.251
-202.363	31.793	-0.254	-0.214
-201.348	298.259	-0.032	-0.058
-200.333	-40.260	0.139	-0.071
-199.319	186.360	-0.174	-0.253
-198.304	33.710	0.311	0.264
-197.290	383.109	-0.133	-0.268
-196.275	663.759	-0.067	-0.168
-195.260	30.651	0.221	-0.185
-194.246	574.232	0.001	0.003
-193.231	-134.852	0.248	-0.029
-192.217	-85.098	0.201	-0.061
-191.202	67.491	-0.177	-0.177
-190.187	-89.644	0.270	0.077
-189.173	-5.221	0.309	0.208
-188.158	165.163	0.212	-0.293
-187.144	-4.709	-0.173	-0.117
-186.129	-115.415	-0.235	-0.043
-185.114	17.558	0.041	0.032
-184.100	800.000	0.042	0.136
-183.085	39.512	-0.139	-0.122
-182.071	-104.080	0.135	0.031
-181.056	43.152	-0.221	-0.197
-180.042	-65.812	0.174	0.068
-179.027	-200.000	0.037	0.289
-178.012	-166.556	0.241	0.010
-176.998	800.000	-0.112	0.313
-175.983	-111.472	0.112	-0.022
-174.969	-84.850	0.261	0.080
-173.954	-96.910	-0.486	-0.125
-172.939	-175.923	0.092	0.002
-171.925	183.703	0.249	-0.359
-170.910	-90.149	-0.381	-0.108
-169.896	306.798	0.080	-0.145
-168.881	-200.000	0.008	-0.411
-167.866	-127.961	-0.131	0.018
-166.852	800.000	-0.067	-0.241
-165.837	-22.650	0.171	-0.101
-164.823	159.894	0.038	0.052
-163.808	-200.000	0.210	-0.001
-162.793	-44.677	0.095	0.046
-161.779	35.751	0.185	-0.159
-160.764	-200.000	-0.002	0.016
-159.750	-124.036	0.115	0.018
-158.735	-200.000	-0.041	-0.290
-157.720	-53.767	0.089	0.040
-156.706	-82.126	0.106	-0.034
-155.691	736.050	-0.099	0.260
-154.677	-70.141	0.266	0.099
-153.662	-69.099	0.333	-0.125
-152.647	-36.763	-0.067	0.035
-151.633	800.000	-0.022	0.088
-150.618	-98.068	-0.352	-0.088
-149.604	-200.000	-0.051	0.239
-148.589	800.000	0.022	-0.072
-147.574	-200.000	-0.035	-0.273
-146.560	97.086	0.110	-0.123
-145.545	800.000	0.110	-0.417
-144.531	-200.000	-0.002	-0.022
-143.516	-108.295	0.238	-0.050
-142.502	60.047	0.120	0.116
-141.487	-200.000	-0.018	0.125
-140.472	-87.882	0.117	-0.034
-139.458	-80.973	0.104	0.034
-138.443	19.002	-0.138	0.108
-137.429	-53.826	0.482	0.214
-136.414	590.604	-0.072	-0.174
-135.399	-200.000	0.030	-0.213
-134.385	105.702	-0.152	-0.176
-133.370	-126.447	-0.122	0.018
-132.356	195.934	-0.219	0.325
-131.341	-200.000	0.025	-0.381
-130.326	-200.000	0.006	0.352
-129.312	-154.814	0.344	-0.022
-128.297	-200.000	-0.019	0.203
-127.283	259.351	0.058	-0.097
-126.268	-103.396	0.081	0.019
-125.253	43.041	0.213	0.189
-124.239	800.000	0.059	-0.217
-123.224	403.703	-0.147	-0.301
-122.210	1.376	0.084	0.059
-121.195	151.564	0.148	0.196
-120.180	-29.469	0.164	0.092
-119.166	117.225	-0.215	-0.258
-118.151	44.376	-0.104	-0.093
-117.137	560.444	-0.007	-0.016
-116.122	800.000	0.025	0.084
-115.107	529.869	0.115	0.264
-114.093	-133.493	0.243	0.030
-113.078	15.614	-0.084	0.065
-112.064	-26.211	-0.227	0.130
-111.049	-22.181	-0.136	0.080
-110.034	-2.595	-0.209	0.142
-109.020	68.174	-0.174	-0.174
-108.005	85.438	-0.206	0.220
-106.991	-118.017	0.250	-0.044
-105.976	94.976	0.088	0.098
-104.962	330.794	-0.170	0.319
-103.947	11.531	0.343	-0.256
-102.932	-200.000	-0.030	0.153
-101.918	-200.000	-0.028	0.213
-100.903	527.699	0.019	-0.044
-99.889	-73.945	-0.125	-0.044
-98.874	293.679	0.096	0.171
-97.859	484.720	0.081	0.179
-96.845	40.587	-0.173	-0.152
-95.830	800.000	-0.115	-0.316
-94.816	-119.345	-0.071	-0.012
-93.801	191.641	-0.142	-0.209
-92.786	-200.000	-0.001	-0.362
-91.772	-101.893	-0.115	0.027
-90.757	800.000	-0.031	-0.085
-89.743	-200.000	-0.045	-0.284
-88.728	13.908	0.240	-0.182
-87.713	-63.580	0.205	0.082
-86.699	-58.871	-0.174	-0.073
-85.684	-52.475	0.273	-0.123
-84.670	800.000	-0.057	-0.206
-83.655	144.524	0.061	-0.079
-82.640	-21.045	0.347	-0.207
-81.626	-200.000	0.007	0.292
-80.611	-81.810	0.170	-0.054
-79.597	2.435	-0.220	0.155
-78.582	160.095	-0.193	-0.261
-77.567	36.571	0.097	-0.084
-76.553	-200.000	0.042	0.259
-75.538	800.000	0.038	0.131
-74.524	800.000	-0.074	0.216
-73.509	-145.566	0.285	-0.025
-72.494	-120.282	-0.208	0.035
-71.480	-200.000	0.068	-0.332
-70.465	-200.000	0.007	0.029
-69.451	36.717	0.161	-0.138
-68.436	-200.000	0.002	0.150
-67.422	800.000	-0.049	0.169
-66.407	34.573	-0.150	-0.127
-65.392	-200.000	0.024	-0.187
-64.378	-200.000	-0.012	0.106
-63.363	800.000	-0.127	-0.351
-62.349	-200.000	0.001	0.099
-61.334	94.364	-1.111	-1.227
-60.319	25.801	0.892	0.723
-59.305	341.569	-0.754	-1.432
-58.290	626.132	0.551	1.352
-57.276	383.533	0.748	1.496
-56.261	-200.000	124.773	645.576
-55.246	405.215	1578.595	3235.473
-54.232	141.129	2749.946	3535.610
-53.217	89.038	2312.105	2502.156
-52.203	32.386	1917.967	1609.920
-51.188	26.189	1713.018	1390.291
-50.173	24.128	1674.094	1343.122
-49.159	45.428	1743.641	1564.030
-48.144	43.130	1755.274	1556.679
-47.130	25.889	1705.850	1381.955
-46.115	23.283	1691.441	1350.384
-45.100	23.091	1686.201	1344.684
-44.086	23.098	1683.877	1342.831
-43.071	23.069	1681.693	1340.822
-42.057	23.097	1679.462	1339.199
-41.042	23.022	1677.454	1336.980
-40.027	23.142	1674.927	1335.819
-39.013	23.067	1673.301	1333.902
-37.998	23.092	1671.865	1332.894
-36.984	23.097	1671.051	1332.226
-35.969	23.194	1669.123	1331.367
-34.954	23.214	1667.308	1330.019
-33.940	23.189	1665.693	1328.486
-32.925	23.152	1663.787	1326.636
-31.911	23.130	1662.227	1325.176
-30.896	23.184	1660.508	1324.157
-29.881	23.110	1659.670	1322.883
-28.867	23.168	1657.579	1321.599
-27.852	23.167	1656.121	1320.376
-26.838	23.212	1654.591	1319.438
-25.823	23.200	1653.693	1318.583
-24.809	23.149	1652.396	1317.116
-23.794	23.236	1650.377	1316.102
-22.779	23.206	1649.710	1315.296
-21.765	23.128	1647.868	1313.193
-20.750	23.131	1646.124	1311.772
-19.736	23.118	1644.910	1310.659
-18.721	23.291	1642.895	1310.276
-17.706	23.277	1641.431	1308.957
-16.692	23.252	1639.498	1307.180
-15.677	23.288	1638.199	1306.359
-14.663	23.202	1637.638	1305.224
-13.648	23.146	1636.594	1303.925
-12.633	23.230	1634.637	1302.935
-11.619	23.263	1632.886	1301.729
-10.604	23.314	1631.141	1300.663
-9.590	23.297	1629.896	1299.489
-8.575	23.271	1628.820	1298.391
-7.560	23.246	1627.801	1297.343
-6.546	23.189	1626.842	1296.111
-5.531	23.189	1625.717	1295.164
-4.517	23.167	1624.638	1294.091
-3.502	23.154	1623.135	1292.752
-2.487	23.290	1621.483	1292.375
-1.473	22.966	1609.014	1280.037
-0.458	20.096	1589.321	1243.757
0.556	15.050	1591.279	1213.106
1.571	12.940	1615.117	1215.635
2.586	12.745	1627.032	1223.042
3.600	11.795	1572.679	1175.264
4.615	6.458	1464.529	1058.564
5.629	1.253	1405.796	982.388
6.644	0.271	1398.715	971.028
7.659	0.118	1397.864	969.363
8.673	0.140	1396.459	968.450
9.688	0.241	1393.900	967.238
10.702	-0.102	1390.925	962.890
11.717	2.687	1394.409	983.112
12.731	9.345	1404.749	1033.210
13.746	14.960	1413.277	1075.587
14.761	16.540	1414.866	1086.862
15.775	16.113	1413.222	1082.760
16.790	15.049	1410.715	1073.922
17.804	14.351	1408.461	1067.637
18.819	13.990	1407.181	1064.261
19.834	13.696	1405.611	1061.100
20.848	13.543	1404.492	1059.183
21.863	13.320	1403.026	1056.561
22.877	13.239	1401.285	1054.640
23.892	13.027	1400.669	1052.730
24.907	13.072	1400.493	1052.790
25.921	13.202	1398.849	1052.291
26.936	13.109	1398.459	1051.308
27.950	13.099	1397.382	1050.347
28.965	13.268	1395.950	1050.249
29.980	13.388	1394.863	1050.099
30.994	13.367	1394.594	1049.670
32.009	13.374	1393.449	1048.761
33.023	13.301	1392.275	1047.323
34.038	13.301	1390.961	1046.242
35.053	13.186	1389.953	1044.666
36.067	13.242	1388.960	1044.182
37.082	13.282	1387.792	1043.462
38.096	13.371	1386.904	1043.263
39.111	13.254	1386.233	1041.926
40.126	13.230	1384.920	1040.695
41.140	13.172	1384.201	1039.697
42.155	13.220	1383.407	1039.311
43.169	13.018	1384.029	1038.416
44.184	13.114	1383.475	1038.511
45.199	13.161	1382.405	1037.912
46.213	13.193	1381.997	1037.714
47.228	13.195	1381.100	1036.964
48.242	13.164	1379.879	1035.760
49.257	13.169	1378.467	1034.642
50.271	13.181	1377.004	1033.527
51.286	13.221	1375.378	1032.464
52.301	13.257	1374.077	1031.620
53.315	13.235	1373.119	1030.673
54.330	13.154	1372.034	1029.265
55.344	13.152	1371.100	1028.457
56.359	13.124	1369.858	1027.263
57.374	13.072	1369.186	1026.347
58.388	13.095	1367.853	1025.398
59.403	13.077	1367.434	1024.882
60.417	13.114	1366.509	1024.329
61.432	12.972	1365.789	1022.815
62.447	13.067	1364.865	1022.622
63.461	13.045	1363.399	1021.299
64.476	12.952	1363.047	1020.368
65.490	13.051	1361.248	1019.541
66.505	13.103	1359.462	1018.436
67.520	13.055	1358.345	1017.211
68.534	13.217	1356.565	1016.787
69.549	13.030	1356.306	1015.353
70.563	13.069	1355.227	1014.694
71.578	13.039	1354.027	1013.523
72.593	13.118	1352.919	1013.087
73.607	12.906	1352.211	1011.167
74.622	12.824	1351.823	1010.286
75.636	12.978	1350.890	1010.440
76.651	12.929	1349.959	1009.354
77.666	12.885	1349.894	1008.946
78.680	12.974	1348.865	1008.634
79.695	13.021	1348.120	1008.274
80.709	13.040	1346.854	1007.354
81.724	13.079	1346.289	1007.079
82.739	13.118	1345.123	1006.360
83.753	13.125	1344.235	1005.649
84.768	13.209	1343.048	1005.179
85.782	13.132	1341.859	1003.732
86.797	13.216	1340.702	1003.287
87.812	13.165	1339.248	1001.806
88.826	13.119	1338.393	1000.799
89.841	13.226	1337.093	1000.384
90.855	13.189	1336.280	999.462
91.870	13.175	1335.401	998.635
92.884	13.263	1334.564	998.450
93.899	13.316	1333.630	997.983
94.914	13.362	1332.663	997.449
95.928	13.285	1332.017	996.411
96.943	13.167	1331.062	994.899
97.957	13.244	1330.150	994.595
98.972	13.120	1329.311	993.132
99.987	13.327	1327.693	993.078
101.001	13.257	1326.808	991.911
102.016	13.251	1325.781	991.018
103.030	13.247	1324.880	990.231
104.045	13.353	1323.470	989.723
105.060	13.259	1322.492	988.346
106.074	13.161	1321.318	986.794
107.089	13.158	1319.988	985.694
108.103	13.020	1319.141	984.151
109.118	13.073	1317.744	983.337
110.133	13.073	1316.477	982.309
111.147	13.081	1314.913	981.101
112.162	13.086	1313.466	979.961
113.176	13.233	1312.184	979.793
114.191	13.122	1311.138	978.267
115.206	13.169	1310.214	977.770
116.220	13.161	1308.735	976.533
117.235	13.180	1307.623	975.728
118.249	13.191	1307.016	975.253
119.264	13.114	1305.807	973.809
120.279	13.136	1304.318	972.746
121.293	13.198	1303.475	972.394
122.308	13.128	1302.222	970.961
123.322	12.992	1301.592	969.604
124.337	13.095	1300.337	969.190
125.352	13.091	1299.433	968.407
126.366	13.127	1297.766	967.288
127.381	13.175	1296.625	966.636
128.395	13.174	1295.963	966.049
129.410	13.060	1295.233	964.757
130.424	13.149	1293.954	964.238
131.439	13.165	1293.225	963.703
132.454	13.161	1292.220	962.844
133.468	13.253	1290.919	962.323
134.483	13.117	1290.280	960.970
135.497	13.102	1289.205	959.997
136.512	13.176	1287.840	959.327
137.527	13.202	1286.638	958.499
138.541	13.209	1284.922	957.173
139.556	13.296	1283.594	956.607
140.570	13.267	1282.894	955.831
141.585	13.286	1281.353	954.706
142.600	13.399	1279.814	954.128
143.614	13.350	1279.367	953.426
144.629	13.373	1278.208	952.612
145.643	13.403	1277.426	952.117
146.658	13.404	1276.006	950.981
147.673	13.268	1274.506	948.998
148.687	13.312	1273.384	948.333
149.702	13.217	1272.243	946.855
150.716	13.344	1270.678	946.331
151.731	13.278	1270.030	945.388
152.746	13.275	1268.776	944.351
153.760	13.334	1266.868	943.186
154.775	13.432	1265.723	942.808
155.789	13.477	1264.834	942.320
156.804	13.482	1263.630	941.367
157.819	13.478	1262.842	940.673
158.833	13.561	1261.506	940.067
159.848	13.605	1260.822	939.723
160.862	13.453	1259.930	938.115
161.877	13.538	1259.121	937.912
162.892	13.410	1257.974	936.248
163.906	13.437	1257.018	935.607
164.921	13.442	1255.934	934.746
165.935	13.458	1255.085	934.122
166.950	13.458	1254.692	933.744
167.964	13.493	1253.720	933.137
168.979	13.418	1253.095	932.167
169.994	13.525	1252.287	932.086
171.008	13.450	1251.404	930.922
172.023	13.586	1250.334	930.812
173.037	13.645	1249.301	930.288
174.052	13.527	1248.887	929.238
175.067	13.630	1247.158	928.446
176.081	13.549	1246.629	927.517
177.096	13.530	1245.524	926.508
178.110	13.544	1244.576	925.798
179.125	13.718	1243.080	925.575
180.140	13.720	1241.853	924.588
181.154	13.606	1241.300	923.461
182.169	13.612	1239.936	922.400
183.183	13.677	1238.683	921.748
184.198	13.784	1237.296	921.224
185.213	13.664	1236.415	919.822
186.227	13.843	1234.743	919.486
187.242	13.758	1234.276	918.591
188.256	13.933	1233.021	918.541
189.271	13.805	1232.181	917.125
190.286	13.805	1231.015	916.178
191.300	13.682	1230.105	914.744
192.315	13.687	1229.799	914.459
193.329	13.647	1229.606	914.016
194.344	13.736	1228.136	913.329
195.359	13.801	1227.837	913.386
196.373	13.741	1227.685	912.865
197.388	13.905	1227.107	913.254
198.402	13.866	1226.519	912.522
199.417	13.927	1225.678	912.151
200.432	13.997	1224.508	911.583
201.446	14.021	1223.911	911.188
202.461	14.165	1222.767	911.044
203.475	14.116	1221.806	909.981
204.490	13.933	1220.674	908.056
205.504	14.015	1218.972	907.157
206.519	14.050	1218.039	906.573
207.534	13.970	1217.100	905.360
208.548	14.011	1216.311	904.914
209.563	13.999	1215.372	904.070
210.577	13.963	1214.664	903.271
211.592	14.119	1213.495	903.168
212.607	14.173	1212.441	902.596
213.621	14.113	1211.859	901.758
214.636	14.100	1210.373	900.503
215.650	14.296	1209.463	900.805
216.665	14.246	1208.735	899.910
217.680	14.164	1208.153	898.956
218.694	14.229	1207.476	898.723
219.709	14.183	1206.382	897.580
220.723	14.337	1205.665	897.799
221.738	14.236	1205.239	896.860
222.753	14.210	1204.401	896.014
223.767	14.310	1203.441	895.760
224.782	14.414	1202.609	895.619
225.796	14.395	1202.028	895.009
226.811	14.294	1201.589	894.059
227.826	14.330	1200.252	893.177
228.840	14.198	1200.035	892.226
229.855	14.292	1199.648	892.365
230.869	14.355	1198.627	891.866
231.884	14.445	1197.257	891.247
232.899	14.393	1196.896	890.623
233.913	14.393	1195.994	889.872
234.928	14.345	1195.286	889.012
235.942	14.288	1194.453	888.009
236.957	14.227	1193.902	887.193
237.972	14.318	1193.026	886.950
238.986	14.335	1192.321	886.438
240.001	14.333	1191.689	885.879
241.015	14.314	1190.706	884.971
242.030	14.388	1189.993	884.756
243.045	14.464	1188.893	884.259
244.059	14.435	1187.959	883.337
245.074	14.503	1187.745	883.457
246.088	14.605	1186.749	883.180
247.103	14.477	1185.744	881.675
248.117	14.558	1185.114	881.557
249.132	14.607	1184.378	881.193
250.147	14.678	1183.093	880.531
251.161	14.662	1182.964	880.270
252.176	14.639	1182.420	879.671
253.190	14.713	1182.040	879.695
254.205	14.755	1181.142	879.174
255.220	14.759	1180.964	878.986
256.234	14.820	1179.714	878.295
257.249	14.960	1178.871	878.325
258.263	14.876	1178.238	877.338
259.278	14.915	1177.977	877.268
260.293	14.878	1177.679	876.777
261.307	14.829	1176.983	875.923
262.322	14.934	1176.006	875.669
263.336	14.974	1174.876	874.955
264.351	15.002	1174.845	875.001
265.366	14.965	1174.245	874.287
266.380	15.009	1173.114	873.594
267.395	15.039	1172.704	873.370
268.409	14.953	1171.909	872.254
269.424	15.074	1171.153	872.244
270.439	15.104	1170.242	871.645
271.453	15.019	1169.540	870.599
272.468	15.001	1169.025	870.045
273.482	15.080	1167.704	869.396
274.497	14.929	1167.627	868.477
275.512	15.061	1166.667	868.373
276.526	15.110	1165.604	867.757
277.541	15.045	1165.241	867.074
278.555	15.029	1164.403	866.294
279.570	15.132	1163.604	866.155
280.585	15.281	1162.287	865.865
281.599	15.272	1161.505	865.158
282.614	15.121	1161.103	864.005
283.628	15.252	1159.404	863.342
284.643	15.187	1158.667	862.378
285.657	15.198	1157.931	861.815
286.672	15.334	1156.854	861.634
287.687	15.207	1156.260	860.461
288.701	15.143	1155.829	859.738
289.716	15.258	1154.672	859.388
290.730	15.214	1154.103	858.663
291.745	15.178	1153.595	858.025
292.760	15.322	1152.553	857.915
293.774	15.378	1152.211	857.870
294.789	15.382	1151.381	857.197
295.803	15.393	1150.605	856.598
296.818	15.493	1150.245	856.762
297.833	15.512	1149.033	855.881
298.847	15.429	1148.702	855.139
299.862	15.476	1147.595	854.476
300.876	15.429	1147.176	853.852
301.891	15.550	1145.926	853.459
302.906	15.520	1145.335	852.791
303.920	15.596	1144.750	852.668
304.935	15.650	1144.277	852.512
305.949	15.667	1143.762	852.140
306.964	15.704	1143.071	851.734
307.979	15.685	1142.441	851.096
308.993	15.667	1141.660	850.348
310.008	15.587	1140.908	849.309
311.022	15.624	1140.111	848.827
312.037	15.885	1138.963	849.212
313.052	15.537	1138.540	847.065
314.066	15.616	1137.177	846.377
315.081	15.715	1136.027	845.942
316.095	15.616	1135.534	845.002
317.110	15.512	1135.076	844.067
318.125	15.633	1134.242	843.978
319.139	15.647	1133.384	843.334
320.154	15.634	1132.541	842.569
321.168	15.661	1131.869	842.129
322.183	15.681	1131.416	841.820
323.197	15.782	1131.028	841.958
324.212	15.721	1130.175	840.947
325.227	15.675	1129.827	840.383
326.241	15.817	1128.748	840.213
327.256	15.762	1128.188	839.448
328.270	15.777	1127.189	838.705
329.285	15.644	1126.505	837.462
330.300	15.828	1125.192	837.326
331.314	15.811	1124.455	836.620
332.329	15.784	1123.593	835.768
333.343	15.760	1122.987	835.127
334.358	15.787	1121.760	834.273
335.373	15.859	1120.949	833.954
336.387	15.921	1120.290	833.692
337.402	15.949	1118.950	832.762
338.416	15.846	1119.039	832.245
339.431	15.954	1118.270	832.133
340.446	16.022	1117.621	831.915
341.460	16.120	1116.567	831.539
342.475	16.098	1115.784	830.772
343.489	16.121	1114.728	830.026
344.504	16.193	1113.731	829.563
345.519	16.162	1113.372	829.072
346.533	16.173	1112.432	828.354
347.548	16.234	1111.916	828.196
348.562	16.350	1110.951	827.971
349.577	16.325	1109.690	826.835
350.592	16.218	1109.204	825.876
351.606	16.164	1108.698	825.160
352.621	16.192	1108.093	824.778
353.635	16.208	1107.559	824.384
354.650	16.162	1107.212	823.828
355.665	16.146	1106.133	822.873
356.679	16.348	1105.074	822.998
357.694	16.344	1104.559	822.522
358.708	16.194	1104.431	821.621
359.723	16.286	1103.376	821.211
360.738	16.263	1102.771	820.578
361.752	16.225	1102.360	820.014
362.767	16.332	1101.903	820.123
363.781	16.413	1101.211	819.930
364.796	16.451	1100.222	819.305
365.810	16.384	1100.021	818.757
366.825	16.556	1099.387	819.044
367.840	16.535	1098.675	818.338
368.854	16.500	1098.335	817.845
369.869	16.595	1097.450	817.573
370.883	16.523	1096.304	816.301
371.898	16.475	1096.015	815.779
372.913	16.506	1095.437	815.428
373.927	16.564	1095.280	815.521
374.942	16.653	1093.970	814.901
375.956	16.586	1093.914	814.463
376.971	16.605	1093.209	813.956
377.986	16.609	1092.673	813.506
379.000	16.727	1091.651	813.238
380.015	16.689	1091.577	812.928
381.029	16.824	1090.714	812.860
382.044	16.715	1089.934	811.688
383.059	16.688	1089.475	811.145
384.073	16.800	1088.656	810.999
385.088	16.828	1087.594	810.270
386.102	16.790	1086.555	809.245
387.117	16.799	1085.570	808.480
388.132	16.720	1084.799	807.457
389.146	16.681	1084.059	806.650
390.161	16.780	1083.438	806.586
391.175	16.688	1082.412	805.316
392.190	16.760	1082.184	805.418
393.205	16.878	1081.142	805.129
394.219	16.793	1080.359	804.072
395.234	16.880	1079.520	803.788
396.248	16.991	1078.161	803.233
397.263	16.889	1076.967	801.791
398.278	16.852	1076.488	801.188
399.292	16.952	1075.818	801.087
400.307	16.934	1075.112	800.409
401.321	16.829	1074.994	799.755
402.336	16.939	1073.842	799.342
403.350	16.939	1073.187	798.786
404.365	16.969	1072.591	798.412
405.380	16.931	1071.883	797.637
406.394	16.998	1071.000	797.226
407.409	17.058	1070.208	796.847
408.423	17.023	1069.684	796.218
409.438	17.178	1068.467	795.972
410.453	17.173	1067.925	795.473
411.467	17.135	1067.254	794.725
412.482	17.210	1066.487	794.436
413.496	17.313	1065.862	794.378
414.511	17.320	1065.409	794.003
415.526	17.181	1065.324	793.223
416.540	17.347	1064.577	793.369
417.555	17.362	1063.964	792.913
418.569	17.289	1063.205	791.934
419.584	17.293	1063.206	791.888
420.599	17.298	1062.732	791.489
421.613	107.853	1331.669	1488.422
422.628	99.603	1370.797	1488.492
