DTS Sentinel unit serial number:	SN413079Multiplexer serial number:	ORYXHardware model number:	OX4-SRSoftware version number:	ORYX F/W v4.00 Oryx Data Collector v3.7.2.0data status	okinstallation	princeton_trtdifferential loss correction	single-endedforward channel	channel 2reverse channel	N/Adate	2019/09/16time	18:47:34forward acquisition time	60.00reverse acquisition time	0.00gamma	496.2192k internal	0.2322k external	0.2322temperature offset calibration	0.9966default loss term (dB/km)	0.3790temperature slope calibration	1.0000multiplexer offset coefficient	1.0000multiplexer slope coefficient	1.0000fibre end	0.00T internal ref (°C)	36.03T ext. ref 1 (°C)	0.08T ext. ref 2 (°C)	29.36length (m)	temperature (°C)	Stokes	anti-Stokes-747.200	-1.377	-0.062	-0.044
-746.185	-146.897	0.112	0.010
-745.171	-116.266	-0.047	0.009
-744.156	347.391	-0.011	-0.022
-743.142	559.099	0.104	-0.254
-742.127	-141.051	-0.232	-0.024
-741.112	-21.497	-0.155	-0.096
-740.098	-47.230	-0.426	0.209
-739.083	52.544	0.227	-0.219
-738.069	768.978	0.133	0.366
-737.054	-200.000	-0.007	-0.111
-736.039	168.203	-0.130	0.187
-735.025	490.861	-0.173	0.401
-734.010	800.000	-0.068	-0.202
-732.996	65.578	-0.222	-0.227
-731.981	-124.850	-0.210	0.033
-730.966	109.269	0.138	-0.166
-729.952	800.000	0.043	-0.148
-728.937	800.000	-0.038	-0.107
-727.923	67.938	0.139	-0.143
-726.908	59.401	0.133	0.133
-725.894	109.318	0.101	0.122
-724.879	-200.000	0.025	-0.145
-723.864	-200.000	-0.001	-0.143
-722.850	322.703	-0.156	-0.300
-721.835	-200.000	-0.034	0.476
-720.821	-25.238	-0.071	-0.042
-719.806	-200.000	-0.006	0.236
-718.791	-138.819	-0.317	0.035
-717.777	-69.525	-0.179	-0.069
-716.762	-200.000	0.015	-0.127
-715.748	-84.336	0.371	0.119
-714.733	-134.257	0.187	0.023
-713.718	350.529	-0.120	-0.239
-712.704	-158.990	-0.347	0.020
-711.689	13.392	0.225	-0.176
-710.675	800.000	0.105	-0.295
-709.660	-161.111	0.164	-0.009
-708.645	-94.091	-0.366	0.101
-707.631	800.000	0.119	-0.457
-706.616	-143.040	-0.373	-0.036
-705.602	-3.967	-0.140	-0.098
-704.587	-70.314	-0.085	-0.032
-703.572	224.765	0.161	0.263
-702.558	1.246	-0.192	0.139
-701.543	800.000	0.045	0.177
-700.529	-200.000	0.051	-0.289
-699.514	-88.493	-0.095	0.029
-698.499	-65.251	0.142	-0.058
-697.485	202.661	0.043	0.067
-696.470	61.237	0.110	0.110
-695.456	24.511	-0.140	0.117
-694.441	-95.972	-0.076	-0.020
-693.426	87.026	-0.167	-0.186
-692.412	-185.466	0.020	-0.000
-691.397	106.732	0.165	-0.197
-690.383	241.067	-0.116	-0.195
-689.368	227.020	-0.100	-0.163
-688.354	-200.000	0.004	0.126
-687.339	-165.342	0.223	0.010
-686.324	94.541	-0.175	0.200
-685.310	616.378	-0.067	0.170
-684.295	-156.639	0.458	0.029
-683.281	-200.000	-0.030	-0.165
-682.266	35.015	0.278	-0.245
-681.251	800.000	0.088	-0.274
-680.237	14.542	0.254	-0.200
-679.222	-144.554	-0.072	-0.007
-678.208	-16.031	0.270	0.173
-677.193	-125.842	-0.306	0.046
-676.178	138.904	0.234	-0.310
-675.164	800.000	-0.055	0.174
-674.149	-112.679	-0.141	0.028
-673.135	78.405	-0.022	-0.024
-672.120	-200.000	0.021	-0.152
-671.105	32.771	0.124	0.108
-670.091	119.306	-0.124	0.155
-669.076	75.398	0.056	0.059
-668.062	314.789	0.167	0.317
-667.047	-200.000	-0.037	-0.221
-666.032	-200.000	0.005	-0.144
-665.018	-24.565	0.241	0.144
-664.003	-77.287	0.201	0.071
-662.989	-200.000	0.027	-0.121
-661.974	17.384	0.166	0.133
-660.959	-200.000	0.012	0.137
-659.945	-157.917	-0.241	0.014
-658.930	109.945	-0.250	0.303
-657.916	-31.712	-0.113	0.064
-656.901	-80.324	0.196	-0.066
-655.886	-169.261	-0.303	0.011
-654.872	449.466	-0.156	0.346
-653.857	144.880	0.266	0.357
-652.843	-152.883	-0.240	-0.017
-651.828	123.148	-0.075	0.095
-650.814	-115.426	0.079	0.015
-649.799	57.144	-0.157	-0.154
-648.784	-80.104	-0.484	0.163
-647.770	7.708	-0.251	-0.189
-646.755	235.407	0.204	0.339
-645.741	61.862	0.205	-0.205
-644.726	800.000	0.020	0.077
-643.711	-200.000	-0.006	-0.178
-642.697	57.429	0.253	-0.249
-641.682	-97.133	-0.311	0.082
-640.668	339.943	0.191	0.374
-639.653	-177.213	0.238	-0.006
-638.638	800.000	0.106	-0.323
-637.624	563.823	0.092	0.225
-636.609	75.124	0.095	-0.100
-635.595	-66.458	0.320	0.128
-634.580	9.346	0.341	0.259
-633.565	800.000	-0.055	-0.205
-632.551	549.315	-0.073	0.175
-631.536	-76.897	-0.515	0.181
-630.522	-37.698	-0.095	-0.051
-629.507	98.676	0.090	0.105
-628.492	-200.000	0.003	-0.252
-627.478	-154.340	-0.241	0.016
-626.463	-45.182	0.226	0.113
-625.449	155.583	0.139	-0.193
-624.434	-102.755	-0.142	-0.034
-623.419	800.000	0.025	0.095
-622.405	667.332	-0.007	-0.018
-621.390	68.457	-0.124	-0.128
-620.376	800.000	-0.077	0.232
-619.361	-200.000	0.030	0.280
-618.346	-171.185	0.120	0.004
-617.332	224.044	0.171	-0.278
-616.317	-10.923	-0.067	-0.045
-615.303	597.090	-0.042	0.104
-614.288	-91.559	0.233	-0.067
-613.273	-43.510	-0.187	-0.095
-612.259	-105.850	-0.186	-0.042
-611.244	-200.000	-0.025	-0.265
-610.230	-110.658	-0.293	0.061
-609.215	-109.021	0.088	-0.019
-608.201	290.493	0.027	0.050
-607.186	-32.878	0.168	-0.094
-606.171	-137.770	-0.227	0.026
-605.157	800.000	-0.137	-0.409
-604.142	43.555	-0.041	0.038
-603.128	405.275	0.046	0.098
-602.113	307.761	0.034	-0.064
-601.098	-21.609	0.104	0.064
-600.084	251.953	0.055	0.094
-599.069	474.720	0.036	-0.082
-598.055	17.923	0.108	-0.086
-597.040	-97.201	-0.251	0.066
-596.025	174.797	0.049	0.071
-595.011	-29.945	-0.082	0.047
-593.996	-110.265	0.209	-0.044
-592.982	-27.687	-0.167	-0.097
-591.967	73.956	-0.070	-0.074
-590.952	-67.653	0.217	0.085
-589.938	800.000	0.061	-0.228
-588.923	-59.633	-0.080	0.034
-587.909	591.630	-0.176	-0.436
-586.894	-200.000	0.043	-0.200
-585.879	-200.000	-0.022	0.173
-584.865	166.258	0.092	0.131
-583.850	-78.415	-0.350	-0.120
-582.836	-112.759	0.104	0.021
-581.821	-161.417	-0.333	-0.017
-580.806	-150.926	-0.260	-0.020
-579.792	117.343	-0.119	-0.147
-578.777	68.469	0.069	-0.071
-577.763	338.185	-0.141	0.276
-576.748	538.846	-0.069	-0.166
-575.733	-25.513	0.320	0.190
-574.719	-200.000	0.004	-0.241
-573.704	-23.616	-0.230	-0.139
-572.690	800.000	-0.126	0.359
-571.675	-12.512	-0.106	-0.069
-570.661	-46.944	-0.165	0.081
-569.646	11.503	-0.022	-0.017
-568.631	374.162	0.156	0.319
-567.617	-72.247	-0.255	0.095
-566.602	-200.000	-0.041	-0.211
-565.588	5.613	0.152	-0.112
-564.573	88.429	0.394	0.438
-563.558	182.980	-0.172	0.255
-562.544	160.032	0.078	0.110
-561.529	60.708	0.291	-0.290
-560.515	-20.707	0.070	0.043
-559.500	370.388	-0.165	0.336
-558.485	-93.742	0.175	0.048
-557.471	-164.239	-0.230	0.011
-556.456	-38.332	0.188	-0.100
-555.442	-73.882	-0.350	0.127
-554.427	-200.000	-0.021	0.148
-553.412	-200.000	-0.065	-0.368
-552.398	75.596	0.175	-0.185
-551.383	-120.774	0.124	-0.021
-550.369	800.000	-0.071	-0.299
-549.354	-64.036	0.226	0.092
-548.339	317.697	-0.110	-0.209
-547.325	-74.180	0.130	-0.047
-546.310	-200.000	-0.002	0.054
-545.296	-172.546	-0.232	-0.007
-544.281	-136.955	0.175	0.020
-543.266	-38.115	0.175	-0.093
-542.252	-36.040	-0.209	-0.113
-541.237	48.421	0.054	-0.051
-540.223	-8.122	-0.137	0.092
-539.208	-152.360	0.135	0.010
-538.193	583.852	0.042	0.103
-537.179	91.701	0.062	0.069
-536.164	204.148	-0.103	-0.160
-535.150	-170.318	-0.023	-0.001
-534.135	35.025	-0.060	-0.052
-533.121	82.509	-0.193	0.210
-532.106	363.106	-0.035	0.071
-531.091	470.011	-0.079	0.178
-530.077	69.293	-0.134	-0.138
-529.062	-200.000	-0.057	0.256
-528.048	-14.145	0.196	0.127
-527.033	189.622	0.121	0.182
-526.018	800.000	-0.104	0.293
-525.004	-107.787	-0.267	-0.058
-523.989	466.738	-0.163	-0.367
-522.975	217.253	-0.139	-0.221
-521.960	500.313	-0.113	-0.262
-520.945	-35.817	-0.093	-0.050
-519.931	-200.000	0.018	0.193
-518.916	-111.540	-0.126	-0.026
-517.902	4.786	-0.219	-0.161
-516.887	92.254	0.030	0.033
-515.872	-200.000	-0.083	0.378
-514.858	-200.000	0.022	-0.434
-513.843	181.244	0.067	-0.099
-512.829	-49.770	0.458	0.218
-511.814	2.351	-0.220	-0.159
-510.799	-68.054	0.199	-0.078
-509.785	-125.559	-0.242	0.037
-508.770	800.000	-0.021	-0.092
-507.756	170.041	0.171	0.245
-506.741	-143.790	-0.154	0.015
-505.726	192.686	0.182	0.275
-504.712	-87.761	0.024	0.007
-503.697	-8.483	-0.247	-0.166
-502.683	6.903	-0.152	-0.114
-501.668	-200.000	-0.034	-0.229
-500.653	-48.755	0.385	-0.185
-499.639	740.829	-0.023	-0.062
-498.624	529.440	-0.089	0.211
-497.610	-10.889	-0.201	0.133
-496.595	-200.000	-0.071	-0.354
-495.581	296.738	-0.069	0.127
-494.566	-21.436	-0.184	-0.112
-493.551	57.916	0.103	-0.101
-492.537	-200.000	-0.073	0.563
-491.522	800.000	-0.013	-0.048
-490.508	-46.563	-0.126	0.062
-489.493	92.008	0.377	0.424
-488.478	-3.811	0.094	-0.065
-487.464	-79.971	-0.142	0.048
-486.449	800.000	-0.033	-0.134
-485.435	112.520	-0.290	0.351
-484.420	-94.969	-0.184	-0.050
-483.405	-200.000	-0.033	-0.342
-482.391	660.202	0.034	-0.088
-481.376	800.000	-0.083	0.328
-480.362	-63.640	-0.042	0.017
-479.347	-200.000	-0.006	-0.161
-478.332	10.525	0.145	-0.110
-477.318	-200.000	0.007	-0.385
-476.303	-148.876	-0.403	0.033
-475.289	-200.000	0.007	-0.422
-474.274	-172.324	0.193	-0.006
-473.259	-38.357	-0.281	-0.149
-472.245	-20.570	-0.307	-0.189
-471.230	-200.000	-0.046	0.348
-470.216	-14.862	-0.422	-0.271
-469.201	67.473	-0.142	0.145
-468.186	367.341	-0.060	0.122
-467.172	-36.571	-0.305	0.164
-466.157	800.000	-0.156	-0.531
-465.143	-109.586	-0.033	0.007
-464.128	800.000	-0.037	-0.104
-463.113	800.000	-0.019	-0.082
-462.099	-63.162	0.103	0.042
-461.084	-200.000	0.010	-0.097
-460.070	6.206	0.203	0.151
-459.055	257.636	-0.254	-0.436
-458.040	800.000	-0.073	0.208
-457.026	136.226	-0.194	-0.253
-456.011	-3.562	-0.120	-0.084
-454.997	800.000	-0.042	-0.124
-453.982	95.492	0.033	-0.037
-452.968	-72.468	0.034	-0.013
-451.953	-200.000	0.031	-0.184
-450.938	95.738	-0.141	0.161
-449.924	135.720	0.083	0.108
-448.909	-200.000	-0.007	0.075
-447.895	-21.016	0.330	-0.202
-446.880	800.000	0.061	-0.242
-445.865	677.498	-0.051	0.131
-444.851	138.756	-0.176	-0.231
-443.836	319.457	0.038	-0.072
-442.822	635.985	-0.025	0.063
-441.807	-200.000	0.034	-0.176
-440.792	-200.000	0.073	0.385
-439.778	-200.000	0.010	0.081
-438.763	-92.076	0.093	0.026
-437.749	-200.000	-0.024	-0.120
-436.734	-86.936	-0.341	-0.104
-435.719	415.807	-0.025	0.052
-434.705	675.376	-0.092	-0.238
-433.690	-197.822	0.134	-0.001
-432.676	286.543	-0.070	-0.127
-431.661	-124.949	0.260	0.040
-430.646	-114.675	0.425	-0.081
-429.632	800.000	0.010	-0.028
-428.617	800.000	-0.045	-0.180
-427.603	800.000	-0.097	0.302
-426.588	177.248	0.208	-0.302
-425.573	-25.543	-0.239	0.141
-424.559	-114.141	0.214	0.041
-423.544	-200.000	-0.012	0.356
-422.530	28.373	0.055	0.046
-421.515	80.169	-0.106	0.114
-420.500	-7.366	-0.189	-0.128
-419.486	361.165	-0.110	-0.220
-418.471	-200.000	0.003	0.236
-417.457	5.545	0.046	0.034
-416.442	216.248	-0.110	-0.175
-415.428	-83.799	0.300	0.095
-414.413	-117.053	0.289	-0.053
-413.398	748.130	0.146	-0.394
-412.384	305.540	-0.132	0.244
-411.369	-10.355	-0.234	0.154
-410.355	352.420	0.153	0.302
-409.340	800.000	0.033	0.106
-408.325	-200.000	-0.001	-0.131
-407.311	55.403	0.056	0.054
-406.296	-62.627	0.178	0.074
-405.282	-145.503	-0.276	-0.025
-404.267	800.000	0.029	0.089
-403.252	18.526	-0.095	0.075
-402.238	800.000	-0.095	0.268
-401.223	27.891	0.281	0.236
-400.209	-200.000	-0.022	-0.102
-399.194	0.109	0.247	-0.175
-398.179	114.707	-0.138	0.168
-397.165	27.112	0.203	0.170
-396.150	85.528	0.153	-0.167
-395.136	-200.000	-0.039	-0.257
-394.121	48.898	0.270	0.252
-393.106	111.081	-0.223	0.267
-392.092	126.028	-0.164	0.207
-391.077	-200.000	-0.013	-0.064
-390.063	95.126	-0.120	0.137
-389.048	800.000	0.023	-0.085
-388.033	187.034	-0.200	0.297
-387.019	-121.630	-0.280	0.046
-386.004	6.646	0.286	-0.212
-384.990	171.022	0.165	0.235
-383.975	114.822	0.212	0.257
-382.960	-200.000	0.018	-0.131
-381.946	-134.070	0.286	-0.035
-380.931	57.164	0.127	-0.124
-379.917	800.000	-0.034	0.125
-378.902	-88.123	-0.065	0.019
-377.888	-119.833	-0.169	0.029
-376.873	-39.259	0.250	0.131
-375.858	-131.101	-0.246	-0.033
-374.844	12.340	-0.236	-0.181
-373.829	475.705	0.054	0.122
-372.815	188.627	-0.237	0.353
-371.800	513.575	-0.033	-0.077
-370.785	-2.445	-0.041	0.028
-369.771	-26.509	0.194	-0.113
-368.756	-53.829	0.166	-0.075
-367.742	-200.000	-0.012	-0.105
-366.727	-200.000	-0.030	0.191
-365.712	-48.160	-0.276	-0.133
-364.698	267.909	0.032	0.057
-363.683	-23.867	0.114	-0.068
-362.669	-112.278	0.258	0.051
-361.654	-200.000	0.021	0.133
-360.639	-57.379	0.550	-0.240
-359.625	-37.679	0.366	0.194
-358.610	-30.856	0.093	-0.052
-357.596	-200.000	-0.002	0.344
-356.581	40.988	0.012	-0.011
-355.566	-46.284	0.258	-0.126
-354.552	-94.765	-0.189	-0.051
-353.537	-115.465	-0.191	0.036
-352.523	-32.323	0.095	-0.053
-351.508	800.000	-0.014	-0.050
-350.493	6.179	0.212	0.157
-349.479	-183.800	-0.019	-0.000
-348.464	207.823	-0.182	0.282
-347.450	-200.000	0.043	-0.389
-346.435	55.857	0.194	-0.187
-345.420	-116.156	-0.031	0.006
-344.406	206.022	-0.081	-0.126
-343.391	-33.474	-0.189	0.104
-342.377	245.979	0.091	-0.152
-341.362	-40.767	0.104	0.054
-340.348	800.000	-0.019	-0.052
-339.333	-122.562	0.306	0.049
-338.318	1.291	0.212	-0.151
-337.304	-200.000	-0.011	-0.419
-336.289	-71.907	-0.186	-0.069
-335.275	421.777	0.013	0.028
-334.260	-54.770	0.267	0.120
-333.245	800.000	0.026	-0.082
-332.231	-200.000	0.051	-0.349
-331.216	800.000	0.055	-0.197
-330.202	-109.139	0.106	0.022
-329.187	52.449	-0.227	0.216
-328.172	653.628	-0.071	0.181
-327.158	-23.171	0.188	-0.113
-326.143	267.054	-0.123	-0.213
-325.129	-66.910	0.229	0.090
-324.114	800.000	-0.096	-0.376
-323.099	-84.458	0.079	-0.025
-322.085	112.431	0.231	0.278
-321.070	-200.000	0.025	0.195
-320.056	599.683	0.111	0.275
-319.041	-6.755	-0.481	0.325
-318.026	-143.947	0.264	0.025
-317.012	-56.675	0.076	-0.033
-315.997	67.093	-0.371	-0.376
-314.983	83.384	0.064	0.069
-313.968	-32.151	0.298	-0.165
-312.953	34.193	-0.183	-0.159
-311.939	-51.271	-0.176	0.082
-310.924	281.287	-0.080	0.143
-309.910	-136.024	-0.059	-0.007
-308.895	100.305	0.030	-0.034
-307.880	-60.382	0.109	-0.046
-306.866	291.959	0.087	-0.158
-305.851	-104.149	0.266	0.061
-304.837	-100.709	-0.100	0.024
-303.822	189.196	-0.318	-0.473
-302.807	-200.000	0.046	-0.240
-301.793	568.794	0.047	-0.112
-300.778	-200.000	-0.036	-0.163
-299.764	-200.000	0.024	0.218
-298.749	-18.294	-0.401	-0.249
-297.735	177.947	0.055	-0.080
-296.720	-145.850	0.457	-0.040
-295.705	-200.000	-0.085	0.396
-294.691	800.000	0.110	-0.439
-293.676	209.944	0.068	0.106
-292.662	-48.633	0.206	0.098
-291.647	-75.310	-0.365	-0.129
-290.632	281.397	-0.070	0.124
-289.618	109.526	-0.190	-0.226
-288.603	-63.965	-0.336	-0.136
-287.589	-200.000	0.038	0.224
-286.574	63.984	0.168	-0.167
-285.559	-142.638	0.178	-0.017
-284.545	-82.531	0.159	0.051
-283.530	446.008	0.104	0.227
-282.516	-200.000	0.082	-0.428
-281.501	348.744	0.036	-0.070
-280.486	-166.760	0.057	0.002
-279.472	800.000	-0.068	-0.202
-278.457	-71.149	-0.271	0.101
-277.443	-38.136	-0.285	-0.150
-276.428	-200.000	0.005	-0.190
-275.413	800.000	-0.061	-0.232
-274.399	-200.000	0.006	0.422
-273.384	-117.404	0.264	0.047
-272.370	4.402	-0.278	-0.202
-271.355	-200.000	0.001	0.424
-270.340	800.000	-0.052	0.183
-269.326	160.608	-0.155	0.215
-268.311	-71.860	0.135	0.050
-267.297	-68.871	0.239	-0.092
-266.282	-200.000	-0.031	0.296
-265.267	43.953	-0.137	-0.125
-264.253	-125.969	0.314	0.047
-263.238	37.847	0.075	0.066
-262.224	-172.324	-0.088	0.003
-261.209	-132.611	0.461	0.059
-260.195	-45.366	0.165	-0.081
-259.180	-115.695	-0.183	0.034
-258.165	-200.000	0.003	-0.248
-257.151	800.000	0.030	0.100
-256.136	114.561	-0.061	0.074
-255.122	57.232	0.097	-0.093
-254.107	270.145	-0.186	0.325
-253.092	14.616	-0.058	-0.045
-252.078	-200.000	0.012	-0.207
-251.063	239.212	0.350	-0.577
-250.049	-200.000	0.018	0.105
-249.034	-200.000	0.070	0.440
-248.019	332.525	-0.070	-0.134
-247.005	-36.065	-0.172	-0.092
-245.990	-175.807	-0.256	0.007
-244.976	-200.000	-0.025	-0.245
-243.961	164.502	0.116	-0.162
-242.946	-200.000	0.014	-0.078
-241.932	-18.575	-0.168	-0.104
-240.917	800.000	0.084	0.293
-239.903	41.098	-0.177	0.158
-238.888	241.772	-0.090	-0.150
-237.873	-200.000	0.032	-0.144
-236.859	-1.039	-0.235	0.165
-235.844	698.923	0.054	0.140
-234.830	321.911	0.021	0.039
-233.815	-129.973	0.270	-0.037
-232.800	-22.362	-0.254	-0.153
-231.786	-110.923	-0.066	-0.013
-230.771	165.983	0.260	-0.365
-229.757	-120.727	0.205	-0.034
-228.742	800.000	-0.019	-0.053
-227.727	89.160	-0.060	-0.066
-226.713	553.955	0.088	0.209
-225.698	-67.316	0.268	0.104
-224.684	-145.742	0.092	0.008
-223.669	-200.000	-0.002	-0.019
-222.655	-74.704	0.048	0.017
-221.640	-58.607	-0.331	-0.142
-220.625	-200.000	-0.082	0.421
-219.611	2.520	-0.080	-0.058
-218.596	-37.480	-0.275	0.145
-217.582	-200.000	0.020	0.288
-216.567	316.545	-0.070	-0.131
-215.552	-118.026	0.190	-0.034
-214.538	800.000	-0.098	0.277
-213.523	538.055	0.109	-0.256
-212.509	-200.000	0.032	0.197
-211.494	-10.488	0.055	0.036
-210.479	284.320	-0.025	-0.044
-209.465	-200.000	0.025	0.207
-208.450	-146.605	-0.127	0.011
-207.436	-39.940	0.133	0.069
-206.421	128.002	-0.195	0.245
-205.406	-12.164	0.125	-0.081
-204.392	111.733	0.183	0.219
-203.377	800.000	0.090	0.365
-202.363	-91.282	-0.040	-0.011
-201.348	377.640	0.012	0.025
-200.333	19.728	-0.153	0.122
-199.319	-120.126	0.155	-0.026
-198.304	800.000	-0.066	-0.198
-197.290	57.863	0.181	-0.175
-196.275	-158.116	0.167	-0.010
-195.260	4.090	0.257	0.186
-194.246	-182.980	0.038	-0.001
-193.231	63.813	0.219	0.218
-192.217	-132.412	0.253	-0.032
-191.202	445.305	-0.005	-0.010
-190.187	-58.422	-0.019	-0.008
-189.173	-12.398	-0.381	0.246
-188.158	129.146	-0.148	-0.186
-187.144	-200.000	0.041	-0.235
-186.129	800.000	0.073	-0.247
-185.114	74.506	0.073	0.076
-184.100	90.445	-0.141	-0.157
-183.085	-30.985	0.246	-0.137
-182.071	800.000	-0.008	0.033
-181.056	800.000	0.051	0.160
-180.042	76.537	0.242	0.253
-179.027	68.210	0.020	-0.020
-178.012	-141.039	-0.228	-0.023
-176.998	624.618	0.133	0.330
-175.983	79.503	0.118	0.125
-174.969	36.047	-0.096	0.084
-173.954	-118.666	0.293	-0.051
-172.939	184.252	0.060	0.087
-171.925	800.000	-0.047	-0.203
-170.910	-9.383	0.033	-0.022
-169.896	176.727	-0.034	0.049
-168.881	-200.000	-0.022	0.120
-167.866	800.000	-0.030	0.102
-166.852	629.081	0.071	0.177
-165.837	-97.610	0.247	0.063
-164.823	-180.284	0.437	0.009
-163.808	-200.000	0.006	0.057
-162.793	474.814	-0.163	0.364
-161.779	-200.000	-0.008	-0.123
-160.764	-72.134	-0.164	0.060
-159.750	-200.000	0.036	0.295
-158.735	443.823	-0.051	0.111
-157.720	12.728	0.167	0.127
-156.706	-200.000	0.008	-0.163
-155.691	244.082	0.016	-0.027
-154.677	-84.090	0.169	0.053
-153.662	-37.663	-0.232	0.122
-152.647	-200.000	0.020	0.120
-151.633	800.000	0.022	-0.076
-150.618	-49.243	0.089	-0.042
-149.604	800.000	0.063	0.205
-148.589	-38.848	0.054	-0.028
-147.574	-111.417	-0.270	-0.054
-146.560	800.000	0.022	0.081
-145.545	171.846	0.105	-0.149
-144.531	-175.885	-0.260	-0.007
-143.516	58.888	0.096	-0.093
-142.502	555.589	0.061	-0.145
-141.487	45.813	0.082	0.075
-140.472	-126.519	0.174	0.025
-139.458	309.947	-0.072	-0.133
-138.443	-42.556	-0.124	0.062
-137.429	-185.116	-0.255	0.004
-136.414	-111.949	0.363	0.072
-135.399	-32.800	0.224	-0.123
-134.385	-62.469	0.054	0.022
-133.370	-67.081	-0.372	0.145
-132.356	-21.929	0.280	-0.168
-131.341	800.000	0.033	0.103
-130.326	800.000	0.056	0.171
-129.312	-200.000	-0.038	0.614
-128.297	4.941	-0.157	-0.114
-127.283	1.585	0.049	-0.035
-126.268	59.721	0.130	0.127
-125.253	-67.516	0.161	-0.062
-124.239	-200.000	-0.020	-0.317
-123.224	-63.976	0.328	-0.132
-122.210	26.502	0.191	0.157
-121.195	103.493	0.280	-0.324
-120.180	-200.000	0.021	0.158
-119.166	-129.123	-0.127	0.017
-118.151	249.958	0.127	0.212
-117.137	101.880	0.258	0.297
-116.122	-50.641	-0.341	0.158
-115.107	-25.366	0.129	0.075
-114.093	135.605	0.079	-0.101
-113.078	-58.836	0.215	-0.092
-112.064	-200.000	0.021	0.162
-111.049	44.759	0.326	-0.296
-110.034	-74.419	0.379	0.135
-109.020	-200.000	-0.024	-0.243
-108.005	-200.000	0.013	0.131
-106.991	-172.207	-0.387	0.012
-105.976	5.030	0.152	-0.110
-104.962	-28.724	-0.253	0.143
-103.947	-171.079	-0.200	-0.007
-102.932	137.613	0.084	-0.109
-101.918	-46.138	-0.081	-0.039
-100.903	-200.000	-0.004	0.141
-99.889	3.383	0.056	0.040
-98.874	60.151	0.264	-0.257
-97.859	-37.516	-0.151	-0.079
-96.845	152.038	-0.162	0.218
-95.830	-136.184	0.106	-0.012
-94.816	384.830	0.083	0.168
-93.801	63.414	0.213	-0.211
-92.786	60.582	0.184	0.180
-91.772	112.866	-0.066	0.079
-90.757	-200.000	-0.007	0.444
-89.743	800.000	-0.071	-0.228
-88.728	-151.785	0.245	-0.018
-87.713	-54.322	-0.122	-0.054
-86.699	-200.000	-0.013	0.137
-85.684	294.424	-0.051	0.092
-84.670	-54.377	0.295	0.132
-83.655	60.134	-0.301	-0.293
-82.640	14.507	-0.129	-0.099
-81.626	-46.255	0.172	0.083
-80.611	-60.293	0.146	0.061
-79.597	136.316	-0.094	0.120
-78.582	800.000	0.030	0.093
-77.567	154.401	0.070	-0.094
-76.553	165.225	0.165	-0.230
-75.538	658.375	0.046	-0.117
-74.524	28.700	0.034	0.028
-73.509	139.742	-0.147	0.191
-72.494	104.786	-0.184	-0.213
-71.480	193.403	-0.138	0.206
-70.465	800.000	-0.052	-0.150
-69.451	-137.842	0.094	0.010
-68.436	-149.871	-0.444	0.034
-67.422	13.561	0.113	0.087
-66.407	-200.000	-0.058	-0.275
-65.392	645.302	0.049	-0.124
-64.378	34.557	-0.302	0.260
-63.363	-200.000	-0.011	0.048
-62.349	-91.459	0.350	-0.098
-61.334	160.861	-0.566	-0.778
-60.319	-200.000	0.109	0.507
-59.305	800.000	-0.272	-0.885
-58.290	166.037	0.791	1.101
-57.276	429.486	0.788	1.676
-56.261	-200.000	94.151	559.589
-55.246	552.644	1378.819	3257.615
-54.232	154.181	2581.175	3482.211
-53.217	111.197	2298.968	2723.661
-52.203	45.844	1915.140	1741.526
-51.188	39.391	1702.655	1499.311
-50.173	36.565	1657.463	1438.465
-49.159	53.234	1705.028	1605.853
-48.144	56.811	1722.782	1649.478
-47.130	39.222	1679.661	1477.552
-46.115	36.172	1664.746	1441.622
-45.100	35.944	1660.002	1435.755
-44.086	35.798	1657.825	1432.729
-43.071	35.890	1655.118	1431.015
-42.057	35.788	1653.021	1428.385
-41.042	35.815	1650.268	1426.152
-40.027	35.943	1648.602	1425.606
-39.013	35.913	1646.412	1423.428
-37.998	35.867	1645.123	1421.920
-36.984	35.876	1643.317	1420.370
-35.969	35.998	1642.209	1420.251
-34.954	36.013	1640.540	1418.864
-33.940	36.077	1638.919	1417.878
-32.925	36.081	1636.752	1415.973
-31.911	36.053	1635.193	1414.363
-30.896	35.993	1633.678	1412.557
-29.881	35.955	1632.280	1411.013
-28.867	36.118	1630.006	1410.188
-27.852	36.081	1629.088	1409.069
-26.838	36.063	1627.515	1407.516
-25.823	36.029	1626.416	1406.262
-24.809	36.137	1624.481	1405.323
-23.794	36.085	1623.469	1404.012
-22.779	36.120	1621.617	1402.611
-21.765	36.016	1619.886	1400.304
-20.750	36.044	1618.134	1398.931
-19.736	36.182	1616.587	1398.542
-18.721	36.089	1615.635	1396.992
-17.706	36.055	1613.941	1395.222
-16.692	35.970	1612.613	1393.406
-15.677	36.118	1610.946	1392.981
-14.663	35.995	1609.801	1391.041
-13.648	35.942	1608.551	1389.525
-12.633	35.994	1607.009	1388.517
-11.619	36.020	1604.953	1386.868
-10.604	36.098	1603.372	1386.010
-9.590	36.104	1602.138	1384.931
-8.575	36.152	1600.429	1383.746
-7.560	36.009	1599.774	1382.098
-6.546	36.035	1599.077	1381.626
-5.531	36.032	1597.870	1380.505
-4.517	35.975	1596.632	1378.976
-3.502	36.004	1595.659	1378.287
-2.487	36.065	1594.407	1377.583
-1.473	35.641	1582.569	1364.297
-0.458	32.516	1561.380	1324.040
0.556	26.372	1559.749	1285.596
1.571	23.626	1583.059	1284.842
2.586	23.007	1595.844	1290.590
3.600	20.835	1544.914	1233.918
4.615	11.805	1433.117	1084.917
5.629	2.391	1362.181	971.564
6.644	0.241	1352.996	951.363
7.659	0.013	1351.590	948.850
8.673	0.035	1350.211	947.934
9.688	0.031	1348.634	946.719
10.702	-0.070	1345.677	943.928
11.717	4.035	1353.150	974.968
12.731	13.460	1368.507	1045.736
13.746	18.360	1373.989	1080.834
14.761	17.473	1370.946	1072.758
15.775	16.332	1367.535	1062.813
16.790	15.150	1365.603	1053.788
17.804	14.450	1362.460	1046.872
18.819	14.063	1361.303	1043.461
19.834	13.746	1360.156	1040.502
20.848	13.459	1358.822	1037.591
21.863	13.210	1358.003	1035.313
22.877	13.124	1356.294	1033.383
23.892	13.046	1355.299	1032.042
24.907	13.119	1354.195	1031.571
25.921	12.999	1354.091	1030.651
26.936	13.096	1353.287	1030.552
27.950	13.136	1352.368	1030.010
28.965	13.154	1351.326	1029.236
29.980	13.237	1350.213	1028.817
30.994	13.289	1349.124	1028.218
32.009	13.344	1348.543	1028.028
33.023	13.292	1347.458	1026.783
34.038	13.243	1346.117	1025.370
35.053	13.285	1344.914	1024.620
36.067	13.272	1344.120	1023.844
37.082	13.196	1343.420	1022.748
38.096	13.252	1342.402	1022.231
39.111	13.324	1341.537	1021.929
40.126	13.219	1340.710	1020.562
41.140	13.161	1340.092	1019.643
42.155	13.078	1339.489	1018.577
43.169	13.185	1338.971	1018.752
44.184	13.114	1339.236	1018.427
45.199	13.156	1338.507	1018.040
46.213	13.198	1337.736	1017.627
47.228	13.244	1337.065	1017.309
48.242	13.180	1335.945	1015.969
49.257	13.153	1334.815	1014.854
50.271	13.120	1333.125	1013.280
51.286	13.298	1331.670	1013.178
52.301	13.244	1330.677	1011.998
53.315	13.229	1329.260	1010.740
54.330	13.149	1328.582	1009.646
55.344	13.135	1327.171	1008.398
56.359	13.161	1326.198	1007.729
57.374	13.018	1326.038	1006.648
58.388	12.968	1324.797	1005.310
59.403	13.021	1324.169	1005.068
60.417	13.032	1323.665	1004.660
61.432	13.011	1322.736	1003.741
62.447	12.967	1321.689	1002.594
63.461	12.953	1320.473	1001.495
64.476	12.963	1319.670	1000.859
65.490	12.974	1318.372	999.851
66.505	13.011	1316.826	998.817
67.520	13.060	1315.456	997.984
68.534	13.124	1314.517	997.566
69.549	13.055	1313.208	996.071
70.563	12.961	1312.803	995.109
71.578	12.911	1311.670	993.861
72.593	12.939	1310.304	992.905
73.607	12.914	1309.546	992.096
74.622	12.844	1308.974	991.154
75.636	12.924	1307.782	990.643
76.651	12.998	1307.210	990.567
77.666	12.943	1306.773	989.817
78.680	12.948	1306.423	989.493
79.695	12.941	1305.679	988.803
80.709	12.999	1304.402	988.094
81.724	13.077	1303.263	987.612
82.739	13.136	1302.716	987.462
83.753	13.116	1301.999	986.707
84.768	13.274	1300.689	986.575
85.782	13.214	1299.388	985.139
86.797	13.229	1298.573	984.525
87.812	13.222	1297.204	983.359
88.826	13.112	1296.569	982.139
89.841	13.279	1294.940	981.808
90.855	13.224	1294.090	980.752
91.870	13.320	1293.139	980.513
92.884	13.186	1292.915	979.461
93.899	13.218	1292.149	978.982
94.914	13.379	1290.694	978.747
95.928	13.314	1290.025	977.768
96.943	13.268	1288.996	976.629
97.957	13.436	1287.432	976.348
98.972	13.302	1286.981	975.131
99.987	13.266	1286.131	974.186
101.001	13.307	1285.283	973.702
102.016	13.268	1284.117	972.504
103.030	13.279	1283.178	971.772
104.045	13.189	1282.481	970.627
105.060	13.218	1281.168	969.716
106.074	13.221	1280.082	968.827
107.089	13.024	1278.894	966.687
108.103	13.119	1276.806	965.583
109.118	13.057	1276.076	964.584
110.133	13.021	1274.771	963.300
111.147	13.098	1273.543	962.735
112.162	13.124	1272.107	961.716
113.176	13.123	1271.389	961.080
114.191	13.276	1269.771	960.662
115.206	13.140	1269.128	959.302
116.220	13.191	1267.555	958.323
117.235	13.229	1266.318	957.522
118.249	13.042	1265.772	955.947
119.264	13.130	1264.875	955.693
120.279	12.997	1263.988	954.165
121.293	13.193	1262.500	954.090
122.308	13.083	1261.687	952.760
123.322	12.958	1260.708	951.215
124.337	13.158	1259.582	951.433
125.352	13.121	1258.112	950.026
126.366	13.074	1257.539	949.237
127.381	13.017	1256.446	947.999
128.395	13.112	1255.326	947.617
129.410	13.122	1254.572	947.022
130.424	13.193	1253.493	946.528
131.439	13.263	1252.630	946.197
132.454	13.236	1251.751	945.292
133.468	13.267	1251.024	944.838
134.483	13.185	1250.253	943.705
135.497	13.188	1249.071	942.743
136.512	13.292	1247.657	942.188
137.527	13.278	1246.816	941.390
138.541	13.206	1245.059	939.570
139.556	13.305	1243.985	939.237
140.570	13.190	1243.511	938.141
141.585	13.348	1241.858	937.711
142.600	13.374	1240.436	936.702
143.614	13.327	1239.816	935.885
144.629	13.354	1238.347	934.845
145.643	13.390	1237.339	934.202
146.658	13.227	1236.377	932.477
147.673	13.209	1234.651	930.992
148.687	13.136	1234.040	930.037
149.702	13.250	1232.222	929.226
150.716	13.124	1231.009	927.520
151.731	13.235	1229.737	927.100
152.746	13.304	1228.486	926.461
153.760	13.276	1227.222	925.273
154.775	13.286	1226.495	924.695
155.789	13.349	1225.084	923.904
156.804	13.464	1223.989	923.636
157.819	13.416	1223.125	922.639
158.833	13.432	1222.610	922.254
159.848	13.502	1221.534	921.750
160.862	13.484	1220.110	920.498
161.877	13.430	1219.129	919.377
162.892	13.332	1217.912	917.832
163.906	13.397	1217.502	917.800
164.921	13.346	1216.415	916.618
165.935	13.326	1215.750	915.923
166.950	13.372	1214.996	915.534
167.964	13.411	1214.319	915.158
168.979	13.425	1213.538	914.566
169.994	13.519	1212.208	913.999
171.008	13.474	1211.583	913.199
172.023	13.463	1211.189	912.761
173.037	13.578	1210.065	912.464
174.052	13.613	1209.080	911.837
175.067	13.463	1208.442	910.451
176.081	13.385	1207.427	909.173
177.096	13.382	1206.522	908.399
178.110	13.580	1204.915	908.192
179.125	13.506	1203.961	906.987
180.140	13.588	1202.792	906.474
181.154	13.585	1201.762	905.601
182.169	13.695	1200.487	905.161
183.183	13.703	1199.191	904.150
184.198	13.677	1198.206	903.182
185.213	13.712	1197.361	902.656
186.227	13.696	1196.330	901.710
187.242	13.630	1195.654	900.765
188.256	13.770	1194.591	900.647
189.271	13.783	1193.411	899.747
190.286	13.661	1192.111	898.023
191.300	13.485	1191.339	896.412
192.315	13.409	1190.836	895.542
193.329	13.486	1190.315	895.485
194.344	13.618	1189.697	895.656
195.359	13.604	1189.051	895.013
196.373	13.652	1188.302	894.634
197.388	13.756	1187.970	894.863
198.402	13.866	1187.237	894.827
199.417	13.929	1186.372	894.434
200.432	14.021	1185.722	894.361
201.446	13.873	1185.172	893.070
202.461	13.932	1184.169	892.552
203.475	13.988	1183.444	892.224
204.490	13.974	1181.736	890.786
205.504	14.002	1180.557	889.966
206.519	13.935	1179.787	888.948
207.534	13.927	1178.068	887.535
208.548	13.916	1177.148	886.703
209.563	13.851	1176.860	886.060
210.577	13.825	1175.886	885.113
211.592	13.970	1174.654	884.876
212.607	14.073	1174.049	884.890
213.621	14.152	1173.152	884.558
214.636	13.968	1172.434	882.962
215.650	14.066	1171.430	882.647
216.665	14.026	1170.547	881.689
217.680	14.068	1169.711	881.208
218.694	14.086	1169.001	880.687
219.709	14.093	1168.273	880.096
220.723	14.182	1167.409	879.841
221.738	14.099	1166.486	878.626
222.753	14.142	1165.771	878.240
223.767	14.143	1165.363	877.861
224.782	14.172	1164.824	877.529
225.796	14.235	1164.160	877.282
226.811	14.309	1163.155	876.839
227.826	14.241	1162.364	875.806
228.840	14.230	1161.693	875.163
229.855	14.182	1160.857	874.204
230.869	14.130	1160.605	873.663
231.884	14.258	1159.467	873.405
232.899	14.190	1158.379	872.147
233.913	14.266	1157.378	871.716
234.928	14.293	1156.623	871.214
235.942	14.172	1156.422	870.350
236.957	14.137	1155.473	869.375
237.972	14.147	1155.116	869.081
238.986	14.199	1154.464	868.789
240.001	14.210	1153.851	868.308
241.015	14.348	1152.750	868.118
242.030	14.375	1151.879	867.525
243.045	14.255	1151.591	866.611
244.059	14.204	1151.129	865.921
245.074	14.313	1149.684	865.320
246.088	14.383	1148.841	864.978
247.103	14.396	1148.290	864.550
248.117	14.494	1147.140	864.117
249.132	14.668	1146.444	864.416
250.147	14.652	1145.912	863.857
251.161	14.685	1145.104	863.344
252.176	14.583	1144.679	862.416
253.190	14.704	1143.981	862.442
254.205	14.747	1143.758	862.415
255.220	14.834	1142.741	862.021
256.234	14.787	1142.112	861.230
257.249	14.788	1141.571	860.750
258.263	14.837	1140.756	860.315
259.278	14.798	1140.508	859.850
260.293	14.770	1139.680	859.007
261.307	14.786	1139.232	858.676
262.322	14.826	1138.657	858.367
263.336	14.851	1137.923	857.871
264.351	14.886	1137.258	857.469
265.366	14.882	1136.647	856.913
266.380	14.902	1135.949	856.414
267.395	15.008	1134.885	856.079
268.409	14.909	1134.216	854.994
269.424	14.884	1133.840	854.503
270.439	14.900	1133.062	853.922
271.453	15.019	1131.976	853.636
272.468	14.927	1131.078	852.416
273.482	14.889	1130.031	851.358
274.497	14.925	1129.978	851.428
275.512	14.953	1129.196	850.905
276.526	15.068	1128.362	850.785
277.541	15.085	1127.676	850.279
278.555	14.976	1127.385	849.431
279.570	15.105	1126.446	849.302
280.585	15.038	1125.814	848.410
281.599	15.191	1124.862	848.396
282.614	15.230	1123.738	847.670
283.628	15.054	1122.742	845.950
284.643	14.989	1121.971	844.969
285.657	15.081	1121.238	844.805
286.672	15.166	1120.440	844.557
287.687	15.151	1119.347	843.585
288.701	15.125	1118.717	842.904
289.716	15.095	1118.220	842.303
290.730	15.145	1116.883	841.472
291.745	15.173	1116.677	841.385
292.760	15.146	1115.624	840.381
293.774	15.239	1115.349	840.564
294.789	15.421	1114.451	840.725
295.803	15.322	1113.969	839.793
296.818	15.382	1113.133	839.387
297.833	15.290	1112.638	838.482
298.847	15.291	1111.737	837.731
299.862	15.265	1111.132	837.074
300.876	15.278	1110.274	836.420
301.891	15.372	1109.555	836.273
302.906	15.514	1108.778	836.317
303.920	15.436	1108.169	835.395
304.935	15.592	1107.510	835.600
305.949	15.576	1106.845	834.945
306.964	15.479	1106.405	834.059
307.979	15.687	1105.362	834.230
308.993	15.571	1104.455	832.895
310.008	15.612	1103.822	832.551
311.022	15.614	1103.541	832.271
312.037	15.630	1102.376	831.400
313.052	15.612	1101.650	830.693
314.066	15.399	1100.893	828.994
315.081	15.424	1100.200	828.523
316.095	15.568	1099.381	828.544
317.110	15.470	1098.336	827.199
318.125	15.522	1098.058	827.175
319.139	15.579	1097.253	826.775
320.154	15.610	1096.599	826.360
321.168	15.492	1096.261	825.451
322.183	15.579	1095.346	825.119
323.197	15.538	1094.823	824.450
324.212	15.579	1094.160	824.079
325.227	15.602	1093.695	823.769
326.241	15.560	1093.204	823.120
327.256	15.665	1091.594	822.350
328.270	15.567	1091.236	821.528
329.285	15.605	1090.367	820.982
330.300	15.537	1089.599	820.002
331.314	15.554	1088.519	819.199
332.329	15.657	1087.506	818.867
333.343	15.709	1086.480	818.277
334.358	15.741	1086.089	818.063
335.373	15.671	1085.761	817.401
336.387	15.755	1084.838	817.045
337.402	15.793	1083.636	816.252
338.416	15.853	1082.920	815.929
339.431	15.868	1082.563	815.664
340.446	16.010	1081.538	815.503
341.460	15.970	1081.315	815.071
342.475	16.064	1080.273	814.666
343.489	15.954	1079.368	813.381
344.504	16.026	1078.787	813.220
345.519	16.068	1077.966	812.729
346.533	16.065	1077.054	811.959
347.548	16.120	1076.656	811.849
348.562	16.093	1075.551	810.816
349.577	16.249	1074.555	810.742
350.592	15.993	1073.872	808.926
351.606	16.071	1073.382	808.861
352.621	16.142	1072.470	808.443
353.635	16.064	1072.173	807.773
354.650	16.093	1071.315	807.191
355.665	16.058	1070.512	806.350
356.679	16.061	1070.006	805.912
357.694	16.092	1069.479	805.590
358.708	16.122	1068.941	805.258
359.723	16.184	1068.530	805.172
360.738	16.158	1067.495	804.196
361.752	16.174	1067.031	803.854
362.767	16.192	1066.734	803.646
363.781	16.196	1065.956	803.005
364.796	16.225	1065.216	802.516
365.810	16.367	1064.505	802.583
366.825	16.380	1063.993	802.189
367.840	16.375	1063.606	801.803
368.854	16.460	1063.206	801.833
369.869	16.468	1062.059	800.935
370.883	16.441	1061.495	800.312
371.898	16.386	1060.595	799.300
372.913	16.508	1060.330	799.606
373.927	16.364	1059.879	798.517
374.942	16.464	1058.958	798.224
375.956	16.533	1058.485	798.124
376.971	16.486	1057.876	797.368
377.986	16.621	1057.427	797.599
379.000	16.633	1056.874	797.165
380.015	16.628	1056.442	796.748
381.029	16.720	1055.573	796.454
382.044	16.555	1055.121	795.268
383.059	16.689	1054.368	795.256
384.073	16.658	1053.543	794.420
385.088	16.594	1052.829	793.510
386.102	16.714	1051.727	793.172
387.117	16.695	1050.804	792.318
388.132	16.629	1049.888	791.247
389.146	16.622	1048.965	790.450
390.161	16.678	1048.404	790.216
391.175	16.703	1047.638	789.686
392.190	16.712	1047.423	789.499
393.205	16.744	1046.465	788.853
394.219	16.767	1045.364	788.062
395.234	16.784	1044.280	787.254
396.248	16.706	1043.833	786.487
397.263	16.744	1042.445	785.545
398.278	16.807	1041.778	785.264
399.292	16.692	1041.286	784.294
400.307	16.636	1040.741	783.553
401.321	16.765	1039.922	783.463
402.336	16.784	1039.209	782.944
403.350	16.763	1038.668	782.370
404.365	16.817	1037.965	782.023
405.380	16.724	1037.636	781.277
406.394	16.799	1036.888	780.988
407.409	16.789	1035.866	780.104
408.423	16.993	1035.318	780.563
409.438	16.964	1034.696	779.892
410.453	16.959	1033.982	779.261
411.467	17.065	1032.935	778.887
412.482	17.016	1032.908	778.574
413.496	17.037	1032.081	777.977
414.511	17.089	1031.205	777.489
415.526	17.174	1030.851	777.542
416.540	17.185	1030.342	777.138
417.555	17.201	1029.772	776.714
418.569	17.181	1029.320	776.211
419.584	17.158	1028.919	775.737
420.599	17.139	1028.841	775.522
421.613	97.861	1311.831	1434.194
422.628	89.517	1353.040	1434.291
