DTS Sentinel unit serial number:	SN413079Multiplexer serial number:	ORYXHardware model number:	OX4-SRSoftware version number:	ORYX F/W v4.00 Oryx Data Collector v3.7.2.0data status	okinstallation	princeton_trtdifferential loss correction	single-endedforward channel	channel 2reverse channel	N/Adate	2019/09/12time	15:13:10forward acquisition time	60.00reverse acquisition time	0.00gamma	496.2192k internal	0.2299k external	0.2299temperature offset calibration	1.0088default loss term (dB/km)	0.3790temperature slope calibration	1.0000multiplexer offset coefficient	1.0000multiplexer slope coefficient	1.0000fibre end	0.00T internal ref (°C)	40.69T ext. ref 1 (°C)	2.38T ext. ref 2 (°C)	37.94length (m)	temperature (°C)	Stokes	anti-Stokes-747.200	-139.143	0.222	-0.024
-746.185	-154.985	-0.277	-0.019
-745.171	800.000	0.061	0.187
-744.156	128.161	-0.149	0.193
-743.142	-83.211	-0.109	-0.036
-742.127	-200.000	0.023	0.109
-741.112	-20.805	0.242	0.151
-740.098	20.293	-0.041	-0.034
-739.083	132.629	-0.056	0.074
-738.069	141.280	0.382	0.515
-737.054	239.353	-0.089	-0.151
-736.039	-1.580	-0.145	0.104
-735.025	4.274	0.248	-0.185
-734.010	-120.884	0.132	-0.023
-732.996	-14.195	-0.219	-0.144
-731.981	800.000	0.037	-0.122
-730.966	-200.000	0.007	0.140
-729.952	-200.000	0.015	-0.111
-728.937	-71.848	0.058	0.022
-727.923	-85.209	-0.319	-0.102
-726.908	125.353	-0.192	-0.247
-725.894	-145.261	-0.344	0.032
-724.879	15.178	-0.353	-0.282
-723.864	55.360	-0.055	0.054
-722.850	-200.000	-0.008	-0.166
-721.835	81.339	0.146	-0.160
-720.821	-117.953	-0.436	0.080
-719.806	36.882	-0.168	-0.151
-718.791	-81.847	-0.122	-0.041
-717.777	-200.000	-0.020	0.426
-716.762	-19.133	0.178	0.113
-715.748	800.000	0.083	-0.261
-714.733	142.356	-0.218	-0.295
-713.718	176.997	0.093	0.138
-712.704	77.014	-0.204	-0.221
-711.689	204.010	0.171	0.270
-710.675	-72.699	-0.108	0.040
-709.660	12.250	-0.224	-0.175
-708.645	-96.538	-0.330	0.089
-707.631	-93.513	-0.220	0.062
-706.616	106.470	-0.047	0.057
-705.602	-200.000	0.038	-0.227
-704.587	-2.107	0.205	-0.147
-703.572	167.869	-0.074	0.107
-702.558	283.604	0.064	-0.118
-701.543	-5.552	-0.227	0.159
-700.529	800.000	-0.041	-0.135
-699.514	-149.813	-0.039	0.003
-698.499	215.464	0.102	-0.165
-697.485	-25.072	0.216	0.130
-696.470	-27.420	-0.192	0.114
-695.456	129.608	0.081	0.105
-694.441	800.000	0.052	0.174
-693.426	-200.000	-0.000	-0.147
-692.412	-99.629	0.133	0.034
-691.397	-200.000	-0.264	0.000
-690.383	79.166	-0.182	-0.199
-689.368	-200.000	0.009	0.144
-688.354	306.109	-0.082	0.156
-687.339	-24.896	0.216	-0.131
-686.324	-163.533	-0.287	0.014
-685.310	299.098	0.112	-0.210
-684.295	800.000	0.071	-0.257
-683.281	171.934	-0.070	0.102
-682.266	-200.000	-0.022	0.135
-681.251	-25.577	-0.086	-0.051
-680.237	-91.151	0.136	-0.040
-679.222	-200.000	-0.093	-0.578
-678.208	-26.198	-0.261	0.156
-677.193	-200.000	0.033	-0.203
-676.178	-151.671	-0.223	-0.017
-675.164	-23.085	-0.109	-0.067
-674.149	800.000	-0.047	0.139
-673.135	800.000	0.049	0.190
-672.120	167.910	0.226	0.328
-671.105	-157.914	0.064	0.004
-670.091	77.570	-0.067	-0.073
-669.076	-102.616	0.116	-0.028
-668.062	134.113	-0.123	-0.162
-667.047	138.919	0.126	0.168
-666.032	-90.216	0.069	-0.020
-665.018	800.000	0.064	0.216
-664.003	-21.280	0.042	0.026
-662.989	89.420	-0.075	0.085
-661.974	634.025	0.084	-0.218
-660.959	-51.673	0.304	-0.144
-659.945	31.611	-0.064	-0.056
-658.930	-200.000	-0.003	-0.139
-657.916	-81.775	-0.167	0.056
-656.901	-200.000	0.006	-0.059
-655.886	-200.000	-0.032	0.293
-654.872	-97.669	-0.261	0.069
-653.857	-200.000	0.001	-0.055
-652.843	110.956	-0.107	0.131
-651.828	-91.757	0.235	-0.068
-650.814	-200.000	-0.040	0.215
-649.799	800.000	0.075	-0.257
-648.784	-200.000	-0.009	0.068
-647.770	-18.296	0.156	-0.099
-646.755	800.000	-0.090	0.398
-645.741	-200.000	0.004	0.363
-644.726	-128.314	0.092	-0.013
-643.711	-200.000	0.022	-0.154
-642.697	-16.166	0.209	0.135
-641.682	-57.707	0.125	0.056
-640.668	-149.909	0.191	-0.015
-639.653	210.260	0.076	-0.122
-638.638	-32.349	-0.218	-0.124
-637.624	-200.000	-0.030	-0.200
-636.609	-200.000	0.021	0.201
-635.595	2.829	0.393	-0.290
-634.580	399.583	-0.105	0.223
-633.565	-200.000	-0.017	-0.474
-632.551	252.064	-0.066	0.114
-631.536	230.101	-0.087	-0.145
-630.522	800.000	0.046	-0.152
-629.507	412.345	0.058	-0.125
-628.492	62.254	0.146	0.148
-627.478	121.359	0.082	0.104
-626.463	-137.959	0.364	-0.041
-625.449	-200.000	-0.007	-0.189
-624.434	-71.030	0.192	0.073
-623.419	103.516	-0.081	-0.096
-622.405	-200.000	0.049	-0.337
-621.390	127.291	-0.198	-0.255
-620.376	397.940	-0.026	-0.055
-619.361	40.734	0.110	0.101
-618.346	-16.619	-0.112	-0.072
-617.332	-4.726	-0.184	-0.129
-616.317	-157.320	0.026	0.002
-615.303	-101.778	0.106	0.026
-614.288	51.351	-0.215	0.207
-613.273	-165.498	-0.143	-0.006
-612.259	-200.000	0.010	0.126
-611.244	-128.035	0.156	0.023
-610.230	-185.823	-0.081	-0.001
-609.215	800.000	0.045	0.160
-608.201	91.101	0.096	-0.109
-607.186	41.549	0.086	0.079
-606.171	81.087	-0.276	-0.303
-605.157	-134.131	0.165	-0.021
-604.142	177.993	-0.180	0.267
-603.128	73.412	-0.251	0.267
-602.113	800.000	-0.063	0.198
-601.098	-200.000	0.008	-0.258
-600.084	0.069	0.178	0.128
-599.069	59.627	0.111	-0.111
-598.055	103.201	0.052	0.062
-597.040	307.508	-0.048	-0.091
-596.025	74.986	0.139	0.149
-595.011	24.622	0.102	0.085
-593.996	-200.000	-0.009	-0.080
-592.982	24.683	-0.104	0.088
-591.967	-14.914	-0.187	-0.122
-590.952	-200.000	0.015	0.141
-589.938	-16.211	-0.147	-0.095
-588.923	-15.049	-0.385	0.250
-587.909	800.000	-0.073	0.262
-586.894	-200.000	0.072	-0.363
-585.879	376.410	0.147	0.304
-584.865	-22.860	0.150	-0.092
-583.850	800.000	0.066	0.192
-582.836	-83.954	0.148	0.048
-581.821	-43.721	-0.229	0.117
-580.806	126.322	0.070	0.090
-579.792	800.000	0.120	-0.353
-578.777	-200.000	0.027	-0.325
-577.763	-4.333	0.111	0.078
-576.748	-11.435	-0.141	0.094
-575.733	-94.853	0.096	-0.026
-574.719	152.361	0.061	-0.084
-573.704	-200.000	-0.009	0.049
-572.690	-97.464	-0.270	-0.071
-571.675	-84.393	-0.165	-0.053
-570.661	390.844	0.091	0.191
-569.646	-200.000	0.046	-0.389
-568.631	273.330	-0.023	-0.041
-567.617	-200.000	0.035	0.414
-566.602	800.000	0.049	-0.165
-565.588	61.278	-0.053	-0.054
-564.573	-64.808	0.202	0.083
-563.558	-200.000	0.006	0.103
-562.544	693.037	-0.104	0.276
-561.529	75.285	0.144	0.154
-560.515	-200.000	0.007	-0.103
-559.500	-139.014	-0.427	-0.047
-558.485	-138.734	0.140	-0.016
-557.471	17.193	0.112	-0.090
-556.456	800.000	0.019	0.069
-555.442	-200.000	-0.013	-0.124
-554.427	5.878	-0.109	-0.081
-553.412	-88.216	0.439	0.133
-552.398	174.226	-0.158	-0.232
-551.383	-200.000	-0.055	0.379
-550.369	-200.000	-0.003	-0.085
-549.354	232.352	0.035	0.059
-548.339	103.304	-0.086	0.102
-547.325	40.817	-0.094	0.086
-546.310	-12.952	-0.089	0.059
-545.296	-91.565	0.288	0.083
-544.281	-69.905	0.296	0.114
-543.266	-138.456	0.401	-0.045
-542.252	-5.016	-0.069	-0.048
-541.237	787.690	-0.085	0.236
-540.223	-21.143	-0.198	0.122
-539.208	-23.651	0.415	0.252
-538.193	-200.000	0.016	0.104
-537.179	27.033	0.169	-0.144
-536.164	68.184	-0.095	0.099
-535.150	-200.000	-0.016	-0.097
-534.135	191.119	0.147	0.224
-533.121	-200.000	-0.012	-0.171
-532.106	-200.000	-0.012	-0.278
-531.091	-67.056	0.060	0.024
-530.077	202.400	0.061	0.095
-529.062	47.355	0.049	-0.046
-528.048	791.774	-0.059	-0.165
-527.033	-76.835	-0.243	0.086
-526.018	-17.384	-0.131	-0.084
-525.004	-44.718	-0.129	0.065
-523.989	-200.000	0.017	-0.217
-522.975	800.000	-0.051	0.175
-521.960	-200.000	0.005	-0.137
-520.945	-200.000	0.005	0.187
-519.931	578.168	0.008	0.019
-518.916	-117.994	0.101	0.018
-517.902	-200.000	-0.003	-0.161
-516.887	-39.637	0.150	0.079
-515.872	60.671	0.042	-0.042
-514.858	-111.850	-0.047	0.010
-513.843	-11.609	-0.065	-0.043
-512.829	-0.045	0.237	0.170
-511.814	-63.323	-0.081	-0.034
-510.799	-200.000	-0.011	0.062
-509.785	-0.596	0.115	0.082
-508.770	-112.031	-0.085	-0.017
-507.756	-14.316	-0.148	-0.096
-506.741	254.687	-0.160	0.278
-505.726	-68.213	-0.310	0.122
-504.712	-50.580	-0.323	0.154
-503.697	296.531	0.116	0.216
-502.683	-200.000	-0.027	0.259
-501.668	-125.965	0.353	0.054
-500.653	-148.955	-0.199	-0.016
-499.639	-200.000	0.032	-0.185
-498.624	-70.940	-0.328	-0.125
-497.610	800.000	0.119	0.447
-496.595	-200.000	-0.013	-0.116
-495.581	-9.349	-0.234	-0.158
-494.566	600.382	-0.030	0.076
-493.551	-126.076	0.110	-0.017
-492.537	80.920	-0.083	-0.090
-491.522	-200.000	-0.061	0.321
-490.508	-101.869	-0.291	-0.071
-489.493	-200.000	0.076	-0.480
-488.478	-43.510	0.193	-0.099
-487.464	-200.000	0.019	0.145
-486.449	173.409	-0.115	0.168
-485.435	-2.785	-0.170	-0.120
-484.420	476.311	-0.156	-0.356
-483.405	-118.937	-0.218	-0.039
-482.391	-200.000	0.016	-0.249
-481.376	800.000	-0.020	0.067
-480.362	-136.383	0.108	-0.013
-479.347	-124.187	-0.110	-0.017
-478.332	39.493	-0.095	0.086
-477.318	713.532	-0.056	0.149
-476.303	71.982	-0.259	-0.272
-475.289	230.117	-0.052	0.085
-474.274	-111.686	0.101	-0.021
-473.259	145.610	-0.110	0.149
-472.245	-200.000	0.009	-0.049
-471.230	106.852	0.104	-0.124
-470.216	32.007	-0.205	-0.178
-469.201	-200.000	0.026	0.420
-468.186	-131.178	-0.188	0.025
-467.172	800.000	-0.040	-0.174
-466.157	-200.000	0.019	-0.255
-465.143	-135.955	-0.121	0.014
-464.128	-200.000	0.037	0.251
-463.113	46.393	0.006	0.006
-462.099	-200.000	0.058	0.361
-461.084	148.132	0.141	0.192
-460.070	-200.000	-0.021	-0.226
-459.055	-200.000	0.002	0.314
-458.040	-200.000	-0.055	-0.319
-457.026	-200.000	-0.003	0.213
-456.011	103.653	0.112	-0.133
-454.997	-130.618	-0.296	0.040
-453.982	800.000	0.085	-0.354
-452.968	119.453	-0.166	0.207
-451.953	-157.093	0.100	-0.006
-450.938	-86.198	0.208	0.065
-449.924	-200.000	-0.016	0.359
-448.909	-130.947	-0.408	0.055
-447.895	-200.000	0.049	-0.233
-446.880	-109.075	-0.160	-0.034
-445.865	800.000	0.068	-0.213
-444.851	-200.000	0.061	-0.281
-443.836	800.000	-0.022	0.069
-442.822	-200.000	0.017	-0.173
-441.807	111.443	-0.216	-0.263
-440.792	-42.164	-0.194	0.100
-439.778	310.808	-0.121	-0.228
-438.763	91.943	0.166	0.189
-437.749	-51.227	-0.094	0.044
-436.734	-200.000	-0.060	-0.386
-435.719	17.183	0.243	-0.194
-434.705	-200.000	-0.029	0.160
-433.690	-200.000	0.046	-0.328
-432.676	-149.387	-0.316	-0.025
-431.661	366.339	0.098	-0.200
-430.646	-200.000	0.017	-0.138
-429.632	27.405	0.253	0.214
-428.617	123.900	-0.133	-0.169
-427.603	65.888	-0.247	-0.252
-426.588	115.125	0.113	0.139
-425.573	-75.242	0.289	0.104
-424.559	315.933	0.081	0.155
-423.544	-200.000	-0.030	-0.332
-422.530	296.715	0.038	0.070
-421.515	-200.000	-0.010	-0.172
-420.500	257.487	0.128	-0.222
-419.486	380.439	0.090	0.186
-418.471	-139.599	-0.249	0.027
-417.457	-118.272	-0.169	0.030
-416.442	545.360	-0.144	0.346
-415.428	-74.662	0.182	0.066
-414.413	-200.000	0.029	0.283
-413.398	-116.682	0.105	0.019
-412.384	-50.565	-0.332	0.158
-411.369	282.238	0.105	0.190
-410.355	-145.426	0.139	-0.013
-409.340	-41.634	-0.296	-0.153
-408.325	477.591	0.072	-0.163
-407.311	-7.308	-0.460	0.314
-406.296	-196.157	0.430	0.003
-405.282	-114.164	0.236	-0.046
-404.267	39.571	0.052	-0.047
-403.252	-92.058	-0.140	-0.040
-402.238	144.200	0.023	0.030
-401.223	-142.016	-0.147	-0.015
-400.209	-167.725	0.185	-0.007
-399.194	-200.000	0.034	0.154
-398.179	615.924	0.040	-0.100
-397.165	273.084	-0.178	0.316
-396.150	381.933	0.073	-0.152
-395.136	-99.458	-0.211	-0.054
-394.121	-114.889	-0.048	-0.009
-393.106	-169.924	0.176	0.006
-392.092	-200.000	-0.000	0.426
-391.077	-116.812	-0.142	-0.026
-390.063	-117.251	-0.314	-0.057
-389.048	-187.492	0.102	-0.001
-388.033	54.502	0.190	0.184
-387.019	231.179	0.194	0.320
-386.004	-200.000	0.024	-0.176
-384.990	413.377	0.116	-0.249
-383.975	-200.000	-0.017	0.232
-382.960	-60.738	0.051	0.022
-381.946	-51.310	0.187	-0.088
-380.931	312.738	-0.054	-0.103
-379.917	-104.912	-0.034	0.008
-378.902	-95.316	-0.139	-0.038
-377.888	-200.000	-0.008	0.066
-376.873	-107.523	-0.326	0.072
-375.858	-28.388	-0.309	-0.179
-374.844	266.924	0.094	0.166
-373.829	800.000	-0.014	-0.047
-372.815	15.588	-0.245	-0.194
-371.800	-76.362	-0.144	-0.051
-370.785	-28.438	-0.105	-0.061
-369.771	563.196	-0.165	0.402
-368.756	-200.000	-0.059	0.328
-367.742	-73.462	-0.234	0.086
-366.727	800.000	-0.074	0.251
-365.712	32.764	-0.231	-0.201
-364.698	-122.028	0.128	0.021
-363.683	-200.000	0.035	0.293
-362.669	151.446	0.130	-0.178
-361.654	89.893	0.214	-0.241
-360.639	-114.556	0.246	-0.047
-359.625	-151.981	0.328	0.024
-358.610	124.660	0.095	-0.120
-357.596	-41.740	-0.314	-0.162
-356.581	605.142	-0.064	-0.161
-355.566	471.316	-0.113	-0.257
-354.552	-26.271	-0.106	0.063
-353.537	47.816	-0.230	0.216
-352.523	-200.000	0.031	0.218
-351.508	-56.372	0.053	-0.024
-350.493	800.000	0.015	0.041
-349.479	-23.250	0.256	-0.155
-348.464	800.000	0.094	-0.326
-347.450	50.371	-0.183	-0.174
-346.435	-50.998	-0.022	0.010
-345.420	445.292	-0.103	-0.226
-344.406	-200.000	0.087	-0.402
-343.391	-119.218	0.038	-0.007
-342.377	-200.000	0.003	0.102
-341.362	-59.935	-0.054	-0.023
-340.348	331.819	0.128	0.249
-339.333	246.840	-0.110	0.186
-338.318	194.087	0.072	0.109
-337.304	-162.748	0.191	0.009
-336.289	-124.254	0.381	0.060
-335.275	-131.886	0.202	0.026
-334.260	-90.531	-0.228	-0.066
-333.245	391.551	0.114	-0.237
-332.231	482.216	-0.043	-0.098
-331.216	788.807	-0.082	0.225
-330.202	-200.000	-0.024	-0.219
-329.187	10.112	0.187	0.143
-328.172	800.000	0.119	-0.347
-327.158	-81.025	-0.306	-0.102
-326.143	111.076	0.065	-0.079
-325.129	121.556	0.269	-0.337
-324.114	-87.768	-0.199	-0.060
-323.099	200.501	0.185	0.285
-322.085	-72.838	0.152	0.056
-321.070	90.186	0.090	0.101
-320.056	-85.758	-0.240	-0.075
-319.041	-89.808	-0.215	0.063
-318.026	113.323	-0.090	-0.109
-317.012	-34.537	0.207	0.114
-315.997	800.000	-0.099	-0.335
-314.983	-129.266	0.199	-0.028
-313.968	-73.036	-0.336	0.124
-312.953	-25.900	0.311	0.183
-311.939	-200.000	-0.055	-0.252
-310.924	-200.000	0.035	0.164
-309.910	385.715	-0.179	0.370
-308.895	-100.694	-0.139	0.034
-307.880	-138.295	-0.084	0.009
-306.866	-93.143	0.229	-0.064
-305.851	23.450	0.014	-0.011
-304.837	178.355	-0.065	0.095
-303.822	-26.667	-0.277	0.162
-302.807	-32.309	0.293	0.164
-301.793	-200.000	-0.006	-0.124
-300.778	-2.565	0.072	0.051
-299.764	179.731	0.046	-0.067
-298.749	-200.000	0.025	-0.240
-297.735	231.908	0.047	0.078
-296.720	142.299	-0.340	0.452
-295.705	-130.775	-0.233	0.031
-294.691	-200.000	-0.019	-0.229
-293.676	-200.000	0.007	-0.261
-292.662	-200.000	-0.443	-0.002
-291.647	726.646	-0.047	0.125
-290.632	-200.000	-0.023	-0.115
-289.618	800.000	0.027	0.097
-288.603	-168.821	0.179	-0.007
-287.589	-109.651	0.213	-0.045
-286.574	-107.498	0.146	-0.032
-285.559	527.211	-0.057	0.136
-284.545	43.936	0.244	-0.224
-283.530	-200.000	-0.056	-0.266
-282.516	543.789	-0.052	-0.124
-281.501	-90.915	0.306	0.088
-280.486	145.043	-0.150	-0.201
-279.472	135.934	0.137	0.179
-278.457	125.934	0.082	0.104
-277.443	-5.673	0.116	-0.080
-276.428	800.000	-0.012	-0.047
-275.413	800.000	0.112	0.418
-274.399	-88.210	0.350	-0.105
-273.384	-200.000	0.010	0.208
-272.370	-200.000	0.030	0.170
-271.355	42.774	0.276	-0.252
-270.340	16.463	-0.192	-0.152
-269.326	295.624	-0.160	-0.294
-268.311	112.626	-0.162	-0.197
-267.297	-16.532	-0.229	0.145
-266.282	-11.254	-0.129	-0.085
-265.267	298.521	-0.189	-0.348
-264.253	-200.000	-0.012	0.094
-263.238	124.972	0.149	0.188
-262.224	771.044	0.095	0.260
-261.209	88.845	-0.083	-0.092
-260.195	-200.000	-0.006	-0.104
-259.180	-112.747	0.313	0.062
-258.165	84.328	-0.060	0.066
-257.151	-118.561	-0.271	-0.048
-256.136	-68.173	0.167	-0.065
-255.122	-200.000	-0.009	-0.417
-254.107	-81.818	0.074	0.024
-253.092	800.000	-0.050	0.137
-252.078	24.319	-0.403	-0.334
-251.063	-16.867	-0.151	-0.095
-250.049	114.567	-0.098	-0.120
-249.034	-200.000	-0.030	0.219
-248.019	261.577	0.105	0.182
-247.005	114.208	-0.053	0.065
-245.990	800.000	0.060	-0.246
-244.976	155.707	-0.060	-0.082
-243.961	800.000	0.077	0.252
-242.946	-57.744	0.244	-0.107
-241.932	-200.000	0.021	-0.378
-240.917	-47.567	0.030	0.015
-239.903	9.939	-0.291	0.221
-238.888	-162.704	0.166	0.008
-237.873	-152.505	0.394	0.028
-236.859	800.000	0.048	0.140
-235.844	800.000	-0.082	0.313
-234.830	-76.389	0.212	0.075
-233.815	800.000	-0.077	-0.235
-232.800	-200.000	-0.022	-0.105
-231.786	-136.784	-0.384	0.044
-230.771	-200.000	0.020	0.094
-229.757	26.348	0.077	-0.064
-228.742	-200.000	-0.006	-0.365
-227.727	8.367	-0.380	-0.285
-226.713	15.783	0.233	0.183
-225.698	145.906	-0.148	0.198
-224.684	-73.434	0.179	-0.065
-223.669	-25.667	-0.189	-0.112
-222.655	-75.515	-0.291	-0.104
-221.640	-127.197	0.087	-0.013
-220.625	800.000	0.069	-0.238
-219.611	800.000	-0.065	0.280
-218.596	5.393	0.193	0.142
-217.582	72.400	0.264	-0.275
-216.567	-59.040	0.162	-0.070
-215.552	-200.000	-0.002	0.211
-214.538	-200.000	-0.029	-0.172
-213.523	-139.368	-0.210	-0.022
-212.509	-129.477	0.259	-0.036
-211.494	-126.720	0.400	0.059
-210.479	-146.976	0.151	-0.013
-209.465	3.799	0.489	-0.357
-208.450	-42.121	-0.379	0.193
-207.436	800.000	0.028	0.094
-206.421	-200.000	0.023	-0.201
-205.406	-56.360	-0.103	0.046
-204.392	-73.298	0.223	0.081
-203.377	-33.137	0.159	-0.088
-202.363	239.034	-0.140	-0.233
-201.348	33.344	0.082	-0.071
-200.333	800.000	0.050	-0.166
-199.319	37.302	0.348	0.308
-198.304	-19.738	0.177	0.109
-197.290	-2.118	-0.095	-0.067
-196.275	800.000	0.044	0.171
-195.260	457.378	-0.126	0.279
-194.246	-12.469	0.219	0.143
-193.231	697.896	0.166	0.435
-192.217	-123.470	0.111	-0.018
-191.202	800.000	-0.060	-0.216
-190.187	-123.279	0.318	-0.051
-189.173	237.078	0.121	-0.200
-188.158	44.316	-0.137	0.125
-187.144	-52.433	-0.248	-0.115
-186.129	114.525	-0.059	-0.072
-185.114	-93.863	-0.147	-0.040
-184.100	800.000	-0.150	0.481
-183.085	99.714	-0.095	-0.110
-182.071	684.248	-0.097	0.252
-181.056	211.274	0.054	-0.085
-180.042	117.839	0.181	-0.223
-179.027	41.037	0.102	0.092
-178.012	800.000	0.043	-0.168
-176.998	800.000	0.091	0.382
-175.983	318.567	0.062	0.117
-174.969	76.428	0.341	0.361
-173.954	3.528	0.177	-0.129
-172.939	121.178	0.065	-0.080
-171.925	-139.495	-0.262	-0.028
-170.910	112.133	0.184	-0.222
-169.896	227.508	0.078	-0.126
-168.881	6.844	0.116	0.086
-167.866	-200.000	0.027	0.186
-166.852	-200.000	-0.029	-0.150
-165.837	-157.604	-0.161	0.010
-164.823	-15.752	0.201	0.128
-163.808	-109.519	0.227	0.048
-162.793	-156.580	-0.141	-0.009
-161.779	-21.726	0.237	0.144
-160.764	-189.773	0.174	0.002
-159.750	29.817	-0.158	-0.134
-158.735	-24.820	-0.214	-0.127
-157.720	-94.940	-0.261	0.071
-156.706	-200.000	0.050	0.336
-155.691	5.326	-0.212	-0.156
-154.677	-157.891	-0.189	0.011
-153.662	-82.743	-0.259	0.083
-152.647	-200.000	0.012	0.151
-151.633	-60.791	-0.114	0.048
-150.618	126.875	0.083	-0.105
-149.604	-200.000	0.039	0.221
-148.589	-86.478	0.073	-0.022
-147.574	36.534	-0.044	0.039
-146.560	98.343	-0.154	0.177
-145.545	-29.267	0.123	0.070
-144.531	-77.559	0.073	0.025
-143.516	-65.940	-0.272	0.108
-142.502	-145.484	-0.106	0.010
-141.487	52.499	-0.154	-0.147
-140.472	800.000	0.119	-0.385
-139.458	-44.892	0.169	-0.084
-138.443	800.000	0.037	0.156
-137.429	-60.899	-0.247	-0.104
-136.414	-20.156	-0.421	0.258
-135.399	-200.000	0.037	-0.277
-134.385	-173.189	-0.123	0.004
-133.370	-63.691	0.085	0.035
-132.356	332.206	-0.132	-0.253
-131.341	-73.925	-0.060	0.022
-130.326	331.271	0.059	-0.113
-129.312	-124.653	0.094	-0.015
-128.297	-97.979	0.247	-0.063
-127.283	-129.581	0.321	-0.044
-126.268	232.523	-0.141	-0.230
-125.253	-165.560	0.343	-0.015
-124.239	-200.000	0.023	-0.348
-123.224	-200.000	0.011	-0.225
-122.210	410.386	-0.187	-0.396
-121.195	214.437	-0.068	-0.108
-120.180	146.948	-0.088	-0.118
-119.166	-135.245	-0.202	0.024
-118.151	238.300	0.058	-0.095
-117.137	-200.000	-0.017	-0.481
-116.122	139.403	-0.135	-0.176
-115.107	202.638	0.085	0.130
-114.093	-70.748	0.099	-0.037
-113.078	800.000	-0.102	0.344
-112.064	66.544	0.149	0.150
-111.049	800.000	0.100	0.299
-110.034	800.000	-0.079	-0.286
-109.020	34.017	0.048	-0.042
-108.005	-107.957	-0.340	0.073
-106.991	-58.322	0.177	0.076
-105.976	110.164	-0.190	-0.227
-104.962	-0.356	-0.193	-0.136
-103.947	-200.000	-0.018	-0.115
-102.932	800.000	0.029	0.108
-101.918	16.153	0.193	-0.151
-100.903	-96.129	-0.294	-0.078
-99.889	131.960	-0.120	0.153
-98.874	-200.000	0.040	0.208
-97.859	192.777	0.089	0.134
-96.845	-200.000	0.030	-0.254
-95.830	24.303	-0.142	0.117
-94.816	-36.634	0.160	0.086
-93.801	126.468	-0.170	-0.214
-92.786	-56.944	-0.248	-0.109
-91.772	511.117	-0.053	0.123
-90.757	-116.077	-0.309	-0.057
-89.743	345.849	0.021	-0.041
-88.728	-200.000	0.040	-0.242
-87.713	29.870	-0.147	-0.125
-86.699	-154.291	0.304	-0.020
-85.684	205.448	0.062	0.095
-84.670	383.923	0.151	0.308
-83.655	-168.700	0.245	0.009
-82.640	800.000	0.030	-0.123
-81.626	-137.791	-0.139	0.015
-80.611	-54.606	0.180	0.081
-79.597	-200.000	-0.007	-0.066
-78.582	-200.000	0.039	0.286
-77.567	426.019	0.037	-0.079
-76.553	-90.278	0.329	-0.095
-75.538	-20.090	-0.218	0.134
-74.524	-147.247	-0.051	-0.004
-73.509	-85.610	-0.253	-0.078
-72.494	714.327	-0.106	0.279
-71.480	-200.000	0.106	-0.462
-70.465	-184.548	0.339	0.005
-69.451	5.707	-0.274	0.201
-68.436	3.296	0.136	-0.099
-67.422	16.779	0.108	0.085
-66.407	800.000	0.030	0.115
-65.392	800.000	-0.091	0.290
-64.378	108.217	0.121	0.144
-63.363	-123.175	-0.310	-0.049
-62.349	-102.870	0.175	0.041
-61.334	149.333	-0.569	-0.765
-60.319	13.914	0.252	0.195
-59.305	800.000	-0.245	-0.708
-58.290	320.647	0.343	0.647
-57.276	800.000	0.502	1.436
-56.261	-200.000	76.234	512.078
-55.246	530.138	1322.330	3102.963
-54.232	147.604	2558.442	3423.622
-53.217	111.784	2340.803	2806.699
-52.203	50.033	1955.073	1832.342
-51.188	43.938	1744.851	1587.689
-50.173	41.127	1698.987	1524.413
-49.159	55.649	1733.536	1667.685
-48.144	61.133	1751.913	1727.540
-47.130	44.023	1716.499	1562.305
-46.115	40.721	1702.292	1524.019
-45.100	40.636	1697.719	1519.215
-44.086	40.556	1695.423	1516.490
-43.071	40.500	1692.859	1513.709
-42.057	40.585	1689.787	1511.550
-41.042	40.554	1688.062	1509.705
-40.027	40.583	1686.372	1508.354
-39.013	40.597	1684.809	1507.006
-37.998	40.451	1683.213	1504.408
-36.984	40.485	1682.478	1503.949
-35.969	40.696	1679.756	1503.056
-34.954	40.809	1677.925	1502.214
-33.940	40.695	1676.451	1499.970
-32.925	40.712	1674.436	1498.241
-31.911	40.600	1673.254	1496.276
-30.896	40.665	1670.978	1494.673
-29.881	40.733	1669.351	1493.667
-28.867	40.640	1667.706	1491.436
-27.852	40.644	1666.557	1490.383
-26.838	40.712	1664.661	1489.136
-25.823	40.744	1663.284	1488.081
-24.809	40.754	1661.988	1486.941
-23.794	40.791	1660.962	1486.243
-22.779	40.740	1659.363	1484.371
-21.765	40.765	1657.578	1482.900
-20.750	40.709	1655.788	1480.826
-19.736	40.720	1654.316	1479.530
-18.721	40.793	1652.713	1478.579
-17.706	40.743	1651.612	1477.168
-16.692	40.743	1649.664	1475.362
-15.677	40.698	1648.425	1473.864
-14.663	40.719	1647.455	1473.096
-13.648	40.704	1646.455	1472.031
-12.633	40.699	1644.351	1470.057
-11.619	40.655	1642.585	1468.089
-10.604	40.743	1640.681	1466.982
-9.590	40.596	1640.056	1465.280
-8.575	40.719	1638.394	1464.641
-7.560	40.773	1637.145	1463.868
-6.546	40.674	1636.001	1462.057
-5.531	40.704	1635.098	1461.415
-4.517	40.714	1633.614	1460.099
-3.502	40.716	1632.588	1459.145
-2.487	40.683	1631.276	1457.667
-1.473	40.710	1620.007	1447.735
-0.458	38.280	1600.719	1412.909
0.556	34.948	1598.960	1377.137
1.571	32.354	1622.873	1378.625
2.586	31.118	1637.536	1381.810
3.600	26.927	1580.882	1303.853
4.615	15.032	1460.984	1125.359
5.629	4.556	1386.421	1000.677
6.644	2.589	1376.789	981.051
7.659	2.449	1375.283	978.994
8.673	2.257	1374.436	977.077
9.688	2.246	1372.463	975.518
10.702	2.052	1369.597	972.159
11.717	6.040	1377.932	1003.507
12.731	17.322	1399.173	1091.709
13.746	25.594	1413.727	1156.391
14.761	26.945	1415.545	1166.465
15.775	27.280	1414.390	1167.558
16.790	27.246	1414.320	1167.179
17.804	27.354	1413.961	1167.475
18.819	27.517	1413.766	1168.257
19.834	27.637	1412.646	1167.993
20.848	27.619	1411.936	1167.189
21.863	27.773	1410.793	1167.128
22.877	27.626	1409.791	1165.258
23.892	27.711	1409.253	1165.253
24.907	27.666	1408.655	1164.365
25.921	27.673	1407.774	1163.581
26.936	27.629	1406.610	1162.232
27.950	27.701	1405.721	1161.852
28.965	27.589	1404.850	1160.322
29.980	27.614	1403.743	1159.458
30.994	27.654	1402.119	1158.272
32.009	27.685	1400.770	1157.254
33.023	27.612	1399.769	1155.861
34.038	27.561	1398.820	1154.650
35.053	27.618	1397.651	1153.943
36.067	27.634	1396.600	1153.072
37.082	27.594	1395.649	1151.934
38.096	27.610	1394.540	1151.016
39.111	27.676	1393.789	1150.715
40.126	27.573	1393.657	1149.854
41.140	27.579	1392.947	1149.206
42.155	27.631	1392.602	1149.148
43.169	27.623	1392.715	1149.086
44.184	27.573	1392.258	1148.293
45.199	27.622	1391.863	1148.173
46.213	27.632	1391.161	1147.556
47.228	27.603	1390.222	1146.494
48.242	27.660	1389.214	1145.921
49.257	27.597	1387.489	1144.001
50.271	27.666	1385.933	1143.054
51.286	27.642	1384.773	1141.843
52.301	27.665	1383.449	1140.793
53.315	27.503	1383.048	1139.352
54.330	27.656	1381.793	1139.170
55.344	27.634	1380.566	1137.919
56.359	27.653	1379.746	1137.264
57.374	27.604	1379.082	1136.310
58.388	27.510	1378.583	1135.214
59.403	27.601	1377.751	1134.992
60.417	27.565	1377.099	1134.133
61.432	27.649	1376.292	1133.887
62.447	27.674	1375.367	1133.182
63.461	27.581	1374.044	1131.416
64.476	27.658	1373.436	1131.292
65.490	27.600	1372.195	1129.813
66.505	27.616	1370.178	1128.150
67.520	27.668	1369.493	1127.807
68.534	27.666	1368.230	1126.654
69.549	27.763	1367.543	1126.590
70.563	27.676	1366.637	1125.202
71.578	27.690	1365.454	1124.214
72.593	27.661	1364.390	1123.063
73.607	27.616	1364.459	1122.743
74.622	27.638	1363.595	1122.066
75.636	27.692	1362.465	1121.370
76.651	27.688	1361.607	1120.542
77.666	27.691	1361.496	1120.371
78.680	27.618	1361.145	1119.533
79.695	27.701	1360.030	1119.024
80.709	27.646	1359.411	1118.078
81.724	27.652	1358.520	1117.286
82.739	27.726	1356.843	1116.259
83.753	27.666	1356.461	1115.479
84.768	27.578	1355.815	1114.312
85.782	27.670	1354.264	1113.502
86.797	27.634	1353.155	1112.268
87.812	27.677	1352.016	1111.501
88.826	27.758	1350.714	1110.823
89.841	27.778	1349.863	1110.145
90.855	27.640	1348.896	1108.411
91.870	27.620	1348.509	1107.879
92.884	27.743	1347.208	1107.456
93.899	27.719	1346.270	1106.443
94.914	27.719	1345.533	1105.737
95.928	27.727	1345.218	1105.429
96.943	27.670	1344.407	1104.317
97.957	27.743	1343.260	1103.720
98.972	27.777	1342.606	1103.295
99.987	27.696	1341.832	1102.070
101.001	27.651	1340.769	1100.827
102.016	27.702	1340.007	1100.410
103.030	27.692	1339.256	1099.636
104.045	27.663	1338.497	1098.742
105.060	27.744	1337.172	1098.045
106.074	27.722	1336.191	1097.010
107.089	27.755	1335.063	1096.183
108.103	27.812	1333.804	1095.396
109.118	27.668	1333.336	1094.050
110.133	27.849	1332.218	1094.120
111.147	27.721	1331.019	1092.274
112.162	27.722	1330.075	1091.408
113.176	27.736	1329.109	1090.604
114.191	27.791	1328.011	1089.935
115.206	27.804	1326.699	1088.837
116.220	27.826	1325.481	1087.871
117.235	27.743	1325.227	1087.075
118.249	27.758	1324.413	1086.401
119.264	27.777	1323.554	1085.712
120.279	27.804	1322.303	1084.750
121.293	27.866	1321.272	1084.178
122.308	27.774	1320.982	1083.295
123.322	27.875	1320.075	1083.058
124.337	27.805	1319.339	1081.940
125.352	27.782	1318.758	1081.232
126.366	27.871	1317.638	1080.746
127.381	27.875	1316.723	1079.926
128.395	27.901	1315.905	1079.310
129.410	27.876	1315.106	1078.409
130.424	27.842	1314.301	1077.456
131.439	27.777	1313.654	1076.446
132.454	27.815	1312.986	1076.030
133.468	27.768	1312.282	1075.081
134.483	27.921	1311.292	1075.074
135.497	27.794	1310.748	1073.785
136.512	27.786	1310.087	1073.101
137.527	27.936	1308.273	1072.401
138.541	27.840	1307.593	1071.186
139.556	27.866	1306.164	1070.074
140.570	27.836	1304.996	1068.845
141.585	27.756	1304.339	1067.748
142.600	27.776	1303.332	1066.941
143.614	27.836	1302.650	1066.639
144.629	27.803	1301.497	1065.408
145.643	27.781	1300.379	1064.271
146.658	27.782	1299.343	1063.336
147.673	27.797	1297.902	1062.149
148.687	27.687	1297.612	1061.175
149.702	27.770	1296.061	1060.298
150.716	27.805	1295.090	1059.612
151.731	27.769	1293.744	1058.210
152.746	27.820	1292.973	1057.781
153.760	27.649	1292.285	1056.135
154.775	27.777	1291.067	1055.784
155.789	27.860	1290.019	1055.313
156.804	27.775	1289.640	1054.422
157.819	27.747	1288.461	1053.204
158.833	27.792	1287.850	1052.867
159.848	27.908	1286.966	1052.723
160.862	27.983	1285.902	1052.188
161.877	27.873	1285.308	1050.975
162.892	27.800	1284.813	1050.062
163.906	27.887	1284.045	1049.841
164.921	27.822	1283.357	1048.810
165.935	27.846	1282.934	1048.512
166.950	27.826	1282.317	1047.797
167.964	27.869	1281.638	1047.399
168.979	27.918	1280.776	1046.882
169.994	27.848	1280.301	1045.998
171.008	27.904	1279.377	1045.474
172.023	27.925	1278.764	1044.998
173.037	27.785	1278.054	1043.525
174.052	27.928	1277.336	1043.664
175.067	27.942	1276.491	1042.960
176.081	27.899	1275.539	1041.847
177.096	27.872	1274.805	1040.998
178.110	28.004	1273.568	1040.648
179.125	27.988	1272.842	1039.875
180.140	27.963	1271.435	1038.490
181.154	27.880	1270.696	1037.320
182.169	28.028	1269.690	1037.250
183.183	27.825	1268.897	1035.361
184.198	27.971	1267.701	1035.119
185.213	27.932	1266.905	1034.158
186.227	27.983	1265.732	1033.394
187.242	27.939	1264.928	1032.402
188.256	27.996	1264.097	1031.950
189.271	28.109	1263.103	1031.687
190.286	27.931	1262.589	1030.173
191.300	27.901	1262.218	1029.611
192.315	27.990	1261.492	1029.429
193.329	27.951	1261.381	1029.023
194.344	28.068	1260.526	1028.893
195.359	28.046	1260.271	1028.471
196.373	28.000	1259.572	1027.553
197.388	27.983	1259.097	1026.976
198.402	27.867	1259.268	1026.375
199.417	27.830	1258.651	1025.572
200.432	27.992	1257.661	1025.584
201.446	28.048	1257.073	1025.329
202.461	27.983	1256.361	1024.290
203.475	28.014	1255.709	1023.843
204.490	27.980	1254.537	1022.607
205.504	27.965	1253.725	1021.773
206.519	28.001	1253.038	1021.325
207.534	28.166	1251.415	1020.832
208.548	28.025	1250.676	1019.353
209.563	28.113	1249.982	1019.185
210.577	28.144	1249.077	1018.530
211.592	28.137	1248.228	1017.709
212.607	28.194	1247.268	1017.150
213.621	28.105	1246.801	1016.189
214.636	28.165	1245.866	1015.665
215.650	28.176	1244.993	1014.927
216.665	28.140	1244.126	1013.932
217.680	28.103	1243.086	1012.790
218.694	28.059	1242.855	1012.269
219.709	28.131	1241.846	1011.754
220.723	28.231	1240.936	1011.474
221.738	28.095	1240.313	1010.126
222.753	28.110	1239.807	1009.711
223.767	28.092	1239.335	1009.136
224.782	28.172	1238.742	1009.007
225.796	28.143	1238.169	1008.290
226.811	28.239	1237.186	1007.929
227.826	28.196	1237.161	1007.584
228.840	28.333	1236.260	1007.511
229.855	28.180	1235.536	1005.990
230.869	28.240	1234.686	1005.539
231.884	28.157	1234.011	1004.447
232.899	28.304	1233.005	1004.347
233.913	28.163	1232.926	1003.418
234.928	28.250	1232.591	1003.536
235.942	28.360	1231.939	1003.517
236.957	28.418	1230.453	1002.538
237.972	28.239	1230.489	1001.498
238.986	28.256	1229.577	1000.761
240.001	28.317	1229.042	1000.569
241.015	28.418	1227.958	1000.149
242.030	28.478	1227.278	999.830
243.045	28.387	1226.731	998.802
244.059	28.347	1225.895	997.815
245.074	28.331	1225.065	996.967
246.088	28.399	1224.777	997.014
247.103	28.425	1223.320	995.880
248.117	28.286	1223.000	994.778
249.132	28.345	1222.531	994.624
250.147	28.588	1221.122	994.709
251.161	28.528	1220.110	993.472
252.176	28.474	1219.421	992.531
253.190	28.462	1218.967	992.009
254.205	28.505	1218.421	991.709
255.220	28.415	1218.056	990.839
256.234	28.468	1217.740	990.780
257.249	28.549	1216.927	990.468
258.263	28.514	1216.248	989.638
259.278	28.555	1215.432	989.106
260.293	28.549	1215.254	988.841
261.307	28.571	1214.605	988.345
262.322	28.552	1214.258	987.872
263.336	28.561	1213.233	987.000
264.351	28.582	1212.456	986.393
265.366	28.534	1212.611	986.174
266.380	28.537	1211.442	985.156
267.395	28.559	1210.585	984.486
268.409	28.525	1210.089	983.816
269.424	28.612	1209.324	983.573
270.439	28.476	1209.550	982.941
271.453	28.609	1208.268	982.523
272.468	28.593	1207.364	981.617
273.482	28.630	1206.603	981.108
274.497	28.564	1206.622	980.685
275.512	28.618	1205.760	980.182
276.526	28.671	1205.015	979.777
277.541	28.686	1204.605	979.434
278.555	28.701	1203.453	978.490
279.570	28.637	1202.888	977.607
280.585	28.697	1202.027	977.138
281.599	28.677	1201.187	976.263
282.614	28.737	1200.436	975.886
283.628	28.681	1199.581	974.807
284.643	28.866	1198.758	975.034
285.657	28.652	1198.015	973.206
286.672	28.606	1197.143	972.170
287.687	28.644	1196.179	971.503
288.701	28.787	1195.645	971.736
289.716	28.740	1195.130	970.982
290.730	28.744	1194.410	970.336
291.745	28.795	1194.020	970.201
292.760	28.844	1193.308	969.794
293.774	28.795	1192.740	968.987
294.789	28.925	1191.860	968.873
295.803	28.766	1191.315	967.507
296.818	28.739	1190.831	966.887
297.833	28.854	1190.117	966.827
298.847	28.905	1189.462	966.480
299.862	28.877	1188.653	965.589
300.876	28.875	1187.820	964.816
301.891	29.027	1187.211	965.032
302.906	28.886	1187.144	964.150
303.920	28.978	1186.027	963.639
304.935	28.880	1185.607	962.700
305.949	28.914	1184.991	962.297
306.964	29.007	1184.187	962.044
307.979	28.938	1183.751	961.244
308.993	28.964	1183.081	960.749
310.008	28.989	1182.151	960.043
311.022	29.023	1180.971	959.175
312.037	29.027	1180.415	958.658
313.052	28.983	1179.655	957.725
314.066	28.961	1179.029	957.021
315.081	28.908	1178.441	956.182
316.095	29.037	1177.485	955.991
317.110	29.039	1176.845	955.400
318.125	29.020	1176.605	955.021
319.139	29.082	1175.297	954.198
320.154	29.100	1175.183	954.113
321.168	29.165	1174.324	953.665
322.183	29.120	1174.094	953.161
323.197	28.981	1173.389	951.785
324.212	29.022	1172.533	951.222
325.227	29.046	1172.331	951.096
326.241	29.191	1171.960	951.462
327.256	29.197	1171.045	950.666
328.270	29.093	1170.236	949.387
329.285	29.090	1169.618	948.784
330.300	29.042	1168.612	947.639
331.314	29.111	1167.514	947.019
332.329	29.132	1166.681	946.368
333.343	29.177	1166.021	945.979
334.358	29.304	1165.360	946.012
335.373	29.277	1164.665	945.226
336.387	29.268	1164.291	944.791
337.402	29.208	1163.343	943.633
338.416	29.262	1162.907	943.470
339.431	29.358	1162.049	943.184
340.446	29.445	1161.153	942.816
341.460	29.404	1160.866	942.291
342.475	29.299	1160.471	941.353
343.489	29.444	1158.664	940.540
344.504	29.376	1158.108	939.658
345.519	29.358	1157.304	938.830
346.533	29.487	1156.476	938.731
347.548	29.381	1156.114	937.817
348.562	29.529	1154.898	937.500
349.577	29.399	1154.502	936.434
350.592	29.319	1153.970	935.514
351.606	29.338	1153.181	934.887
352.621	29.306	1152.845	934.371
353.635	29.416	1151.722	933.935
354.650	29.536	1150.804	933.717
355.665	29.522	1150.340	933.187
356.679	29.411	1150.479	932.655
357.694	29.376	1149.734	931.791
358.708	29.430	1148.877	931.288
359.723	29.469	1147.977	930.673
360.738	29.378	1147.702	929.908
361.752	29.414	1147.213	929.612
362.767	29.480	1146.562	929.335
363.781	29.565	1145.990	929.216
364.796	29.503	1145.397	928.339
365.810	29.661	1144.781	928.553
366.825	29.575	1144.235	927.598
367.840	29.589	1143.724	927.172
368.854	29.762	1143.002	927.369
369.869	29.631	1142.527	926.245
370.883	29.702	1141.316	925.537
371.898	29.785	1140.370	925.105
372.913	29.668	1139.789	923.965
373.927	29.674	1139.684	923.828
374.942	29.638	1139.691	923.572
375.956	29.695	1139.320	923.473
376.971	29.667	1138.077	922.248
377.986	29.720	1137.397	921.878
379.000	29.678	1137.053	921.308
380.015	29.784	1136.231	921.090
381.029	29.746	1135.769	920.444
382.044	29.676	1135.293	919.630
383.059	29.811	1134.196	919.328
384.073	29.809	1133.794	918.914
385.088	29.877	1132.734	918.308
386.102	29.846	1131.879	917.383
387.117	29.827	1131.294	916.731
388.132	29.743	1130.432	915.538
389.146	29.827	1129.967	915.492
390.161	29.797	1129.224	914.664
391.175	29.860	1128.290	914.135
392.190	29.923	1127.908	914.058
393.205	29.942	1127.176	913.478
394.219	29.920	1126.137	912.448
395.234	29.902	1125.865	912.056
396.248	29.992	1124.718	911.488
397.263	30.101	1123.737	911.149
398.278	29.845	1123.686	909.769
399.292	29.972	1122.890	909.669
400.307	30.025	1122.242	909.321
401.321	30.059	1121.623	908.906
402.336	30.019	1120.910	908.053
403.350	30.010	1120.366	907.489
404.365	30.061	1119.658	907.082
405.380	30.086	1118.915	906.524
406.394	30.025	1118.158	905.533
407.409	30.160	1117.535	905.608
408.423	30.180	1116.609	904.876
409.438	30.227	1116.155	904.657
410.453	30.133	1115.457	903.549
411.467	30.246	1114.495	903.241
412.482	30.205	1113.861	902.451
413.496	30.171	1113.252	901.710
414.511	30.259	1112.667	901.585
415.526	30.236	1112.284	901.083
416.540	30.168	1111.870	900.338
417.555	30.135	1111.397	899.714
418.569	30.184	1111.094	899.628
419.584	30.232	1110.373	899.198
420.599	30.202	1110.277	898.895
421.613	88.991	1302.905	1375.554
422.628	83.488	1330.990	1375.686
