DTS Sentinel unit serial number:	SN413079Multiplexer serial number:	ORYXHardware model number:	OX4-SRSoftware version number:	ORYX F/W v4.00 Oryx Data Collector v3.7.2.0data status	okinstallation	princeton_trtdifferential loss correction	single-endedforward channel	channel 2reverse channel	N/Adate	2019/09/19time	04:11:35forward acquisition time	60.00reverse acquisition time	0.00gamma	496.2192k internal	0.2352k external	0.2352temperature offset calibration	1.0020default loss term (dB/km)	0.3790temperature slope calibration	1.0000multiplexer offset coefficient	1.0000multiplexer slope coefficient	1.0000fibre end	0.00T internal ref (°C)	20.33T ext. ref 1 (°C)	0.63T ext. ref 2 (°C)	13.79length (m)	temperature (°C)	Stokes	anti-Stokes-747.200	71.663	0.191	0.198
-746.185	-104.380	-0.152	0.035
-745.171	487.712	0.022	0.050
-744.156	-152.327	-0.252	-0.018
-743.142	-7.269	-0.302	-0.204
-742.127	498.442	-0.031	0.072
-741.112	190.479	0.087	0.130
-740.098	-137.259	-0.204	-0.023
-739.083	800.000	0.123	0.515
-738.069	119.804	0.116	0.143
-737.054	-107.176	0.070	0.015
-736.039	-101.706	-0.592	-0.143
-735.025	202.223	0.099	0.153
-734.010	-200.000	0.027	0.301
-732.996	281.265	0.090	0.160
-731.981	565.205	-0.093	-0.224
-730.966	800.000	-0.026	-0.102
-729.952	54.037	-0.240	-0.230
-728.937	-23.136	-0.166	-0.099
-727.923	-79.261	-0.150	-0.051
-726.908	-186.478	0.270	-0.004
-725.894	44.038	-0.201	-0.184
-724.879	245.682	-0.099	-0.167
-723.864	535.762	0.140	0.331
-722.850	-189.217	0.175	-0.002
-721.835	-178.320	-0.338	0.008
-720.821	800.000	-0.083	0.308
-719.806	-23.996	-0.103	0.061
-718.791	6.560	-0.179	-0.132
-717.777	-181.957	0.283	0.005
-716.762	-66.345	-0.167	0.066
-715.748	-49.029	0.200	0.095
-714.733	328.779	-0.054	-0.104
-713.718	800.000	0.063	-0.173
-712.704	161.160	0.105	0.146
-711.689	-16.474	0.121	0.077
-710.675	227.884	0.063	-0.102
-709.660	-169.059	-0.188	-0.007
-708.645	107.849	-0.153	-0.182
-707.631	-145.074	0.504	-0.046
-706.616	212.279	-0.046	0.073
-705.602	416.021	-0.076	-0.160
-704.587	-146.925	0.524	0.045
-703.572	-61.333	-0.427	0.179
-702.558	653.026	0.087	-0.223
-701.543	-72.145	0.064	0.024
-700.529	-200.000	-0.020	-0.115
-699.514	48.203	0.174	0.162
-698.499	319.192	0.096	0.182
-697.485	-21.687	-0.115	0.070
-696.470	800.000	0.119	-0.336
-695.456	230.265	0.132	-0.215
-694.441	-97.367	-0.117	0.030
-693.426	-200.000	0.004	-0.196
-692.412	106.560	0.062	0.073
-691.397	301.911	0.181	0.333
-690.383	-200.000	-0.031	0.470
-689.368	-28.083	-0.170	-0.098
-688.354	-102.581	-0.195	-0.046
-687.339	-129.952	-0.194	-0.026
-686.324	364.434	0.072	0.145
-685.310	86.739	-0.130	-0.143
-684.295	800.000	-0.086	-0.251
-683.281	-97.829	0.165	0.042
-682.266	269.456	-0.178	0.311
-681.251	-200.000	0.052	0.258
-680.237	-200.000	-0.033	0.379
-679.222	360.869	-0.145	0.289
-678.208	24.410	0.123	0.101
-677.193	-200.000	0.052	-0.434
-676.178	529.832	0.082	-0.194
-675.164	-128.365	-0.171	-0.024
-674.149	-200.000	-0.032	-0.288
-673.135	152.664	0.103	0.140
-672.120	-31.228	-0.297	0.167
-671.105	0.970	0.255	0.182
-670.091	-130.763	-0.107	0.014
-669.076	800.000	-0.032	-0.122
-668.062	-200.000	0.026	0.271
-667.047	98.375	0.036	0.041
-666.032	-106.071	-0.362	0.081
-665.018	-200.000	-0.030	-0.239
-664.003	15.350	0.203	-0.158
-662.989	-3.897	0.118	-0.081
-661.974	-68.024	0.129	-0.050
-660.959	-200.000	0.019	-0.229
-659.945	-137.000	-0.129	-0.015
-658.930	3.548	-0.169	0.122
-657.916	633.478	0.013	0.033
-656.901	-43.172	-0.218	0.110
-655.886	726.359	0.139	0.368
-654.872	199.488	-0.211	-0.322
-653.857	171.053	-0.148	0.211
-652.843	-11.505	-0.230	0.150
-651.828	800.000	-0.105	0.413
-650.814	275.861	0.184	0.324
-649.799	-186.707	-0.339	-0.005
-648.784	-200.000	0.037	-0.216
-647.770	-200.000	-0.014	0.274
-646.755	-200.000	-0.017	-0.150
-645.741	-200.000	-0.015	-0.093
-644.726	800.000	-0.094	-0.306
-643.711	577.634	-0.130	-0.317
-642.697	800.000	-0.078	-0.311
-641.682	23.986	-0.174	0.142
-640.668	554.804	0.058	-0.140
-639.653	134.699	-0.285	-0.367
-638.638	359.538	0.070	0.139
-637.624	-14.582	0.394	0.252
-636.609	570.017	-0.176	-0.425
-635.595	800.000	0.033	-0.108
-634.580	-51.452	-0.084	0.039
-633.565	154.693	-0.045	-0.062
-632.551	38.693	-0.217	-0.192
-631.536	800.000	0.066	0.209
-630.522	25.937	0.314	0.260
-629.507	-131.368	0.216	-0.028
-628.492	191.605	0.139	-0.207
-627.478	-9.154	-0.058	0.039
-626.463	-1.609	-0.056	0.039
-625.449	55.199	-0.237	-0.228
-624.434	13.569	-0.102	-0.079
-623.419	800.000	0.072	0.207
-622.405	-200.000	-0.026	0.173
-621.390	-0.082	-0.197	0.140
-620.376	-200.000	-0.002	0.285
-619.361	194.753	-0.128	-0.193
-618.346	118.255	-0.056	0.068
-617.332	49.070	0.176	-0.164
-616.317	-11.750	-0.051	0.033
-615.303	92.538	-0.114	0.128
-614.288	406.804	0.094	0.197
-613.273	-60.970	0.293	-0.123
-612.259	209.118	0.071	0.110
-611.244	-172.236	-0.322	0.010
-610.230	-21.752	0.229	-0.138
-609.215	-200.000	0.011	-0.273
-608.201	21.493	0.286	-0.231
-607.186	14.613	-0.098	-0.076
-606.171	420.459	0.071	0.150
-605.157	-55.608	-0.124	-0.055
-604.142	-200.000	0.007	0.039
-603.128	105.137	0.156	0.182
-602.113	-32.051	0.292	-0.162
-601.098	-138.755	-0.303	-0.033
-600.084	80.495	-0.205	0.219
-599.069	800.000	0.087	-0.368
-598.055	87.557	-0.196	0.215
-597.040	354.826	-0.164	0.324
-596.025	135.315	-0.087	-0.112
-595.011	173.197	0.131	0.188
-593.996	11.140	-0.101	-0.076
-592.982	24.153	-0.102	0.083
-591.967	217.113	-0.111	-0.175
-590.952	122.607	0.037	-0.045
-589.938	455.937	0.128	0.282
-588.923	182.981	0.149	-0.218
-587.909	-41.872	-0.030	0.015
-586.894	-9.080	-0.113	-0.075
-585.879	29.359	-0.168	-0.142
-584.865	-81.421	0.412	-0.134
-583.850	-200.000	-0.084	0.452
-582.836	800.000	-0.056	0.180
-581.821	-193.146	-0.120	0.001
-580.806	-81.121	0.263	0.086
-579.792	-200.000	0.044	-0.198
-578.777	141.182	-0.214	0.280
-577.763	134.102	-0.162	0.208
-576.748	-200.000	-0.025	-0.109
-575.733	-30.549	0.262	-0.147
-574.719	433.269	-0.067	-0.143
-573.704	243.931	-0.108	0.179
-572.690	-200.000	-0.023	-0.290
-571.675	-46.821	0.224	-0.109
-570.661	-34.219	-0.032	-0.017
-569.646	-0.453	0.090	0.063
-568.631	639.539	0.063	-0.159
-567.617	-200.000	-0.061	0.000
-566.602	-44.685	0.080	0.039
-565.588	791.811	-0.028	0.077
-564.573	329.413	0.050	0.094
-563.558	-98.178	-0.360	0.092
-562.544	237.155	-0.124	-0.203
-561.529	-200.000	0.028	-0.336
-560.515	-96.399	0.329	-0.086
-559.500	453.055	0.068	0.149
-558.485	-71.710	-0.127	-0.047
-557.471	73.627	0.162	-0.168
-556.456	-70.502	-0.156	0.058
-555.442	-75.795	0.226	0.079
-554.427	539.450	0.182	0.430
-553.412	595.080	-0.086	0.210
-552.398	40.929	-0.114	0.102
-551.383	-127.827	0.301	0.043
-550.369	142.319	-0.054	0.071
-549.354	-136.563	-0.127	-0.015
-548.339	77.307	0.234	-0.246
-547.325	-4.000	0.333	-0.229
-546.310	-200.000	-0.018	-0.219
-545.296	8.493	-0.235	0.175
-544.281	-200.000	-0.005	0.031
-543.266	580.978	-0.117	0.284
-542.252	745.808	-0.061	0.162
-541.237	-103.768	0.359	-0.083
-540.223	-200.000	0.037	-0.279
-539.208	162.022	0.236	0.327
-538.193	-65.215	0.196	0.078
-537.179	486.231	-0.072	0.162
-536.164	30.973	-0.084	0.071
-535.150	-101.535	-0.221	-0.053
-534.135	-200.000	0.027	0.193
-533.121	253.395	-0.114	0.193
-532.106	391.093	-0.108	0.221
-531.091	-200.000	0.023	-0.206
-530.077	35.721	0.231	-0.201
-529.062	-200.000	-0.060	0.299
-528.048	-63.375	-0.295	-0.120
-527.033	-49.473	0.307	-0.145
-526.018	800.000	-0.099	-0.309
-525.004	-29.112	-0.308	-0.175
-523.989	-96.028	0.237	-0.062
-522.975	203.006	-0.075	0.115
-521.960	285.918	-0.078	-0.140
-520.945	703.768	-0.084	0.220
-519.931	138.494	-0.191	0.248
-518.916	480.594	0.110	-0.246
-517.902	-11.431	0.049	-0.032
-516.887	22.426	-0.196	0.158
-515.872	577.775	0.077	0.187
-514.858	87.666	-0.140	0.153
-513.843	800.000	0.048	0.161
-512.829	-45.218	0.100	0.049
-511.814	800.000	-0.060	0.169
-510.799	-75.245	-0.146	-0.052
-509.785	204.545	0.207	-0.317
-508.770	-27.862	-0.016	-0.009
-507.756	154.573	-0.190	-0.258
-506.741	52.570	-0.039	-0.037
-505.726	22.422	0.129	0.104
-504.712	156.719	-0.233	-0.317
-503.697	-50.962	0.231	-0.107
-502.683	380.251	0.050	0.101
-501.668	-92.919	-0.288	0.080
-500.653	-53.100	-0.263	-0.119
-499.639	-200.000	-0.015	0.287
-498.624	623.331	-0.016	-0.039
-497.610	48.070	0.204	-0.188
-496.595	-21.596	-0.084	0.050
-495.581	-92.322	0.171	0.048
-494.566	-69.966	-0.067	0.025
-493.551	-53.039	0.181	0.082
-492.537	-5.412	0.120	0.081
-491.522	-200.000	-0.406	0.001
-490.508	-30.914	-0.203	0.113
-489.493	-23.839	0.168	-0.099
-488.478	204.431	0.123	-0.188
-487.464	-200.000	-0.032	-0.143
-486.449	-43.552	-0.231	-0.115
-485.435	10.382	0.198	0.149
-484.420	-200.000	0.027	0.137
-483.405	-54.885	0.097	-0.043
-482.391	-68.218	0.170	0.065
-481.376	-89.733	0.225	-0.065
-480.362	158.258	-0.203	-0.278
-479.347	-200.000	0.046	-0.248
-478.332	-83.059	0.093	0.030
-477.318	-200.000	-0.011	-0.081
-476.303	57.419	-0.148	-0.143
-475.289	142.166	0.053	0.069
-474.274	-62.306	0.149	-0.061
-473.259	-71.290	-0.121	0.045
-472.245	-197.673	-0.244	-0.001
-471.230	75.677	0.011	0.011
-470.216	-46.456	-0.134	-0.065
-469.201	24.402	0.123	-0.101
-468.186	-24.929	-0.241	-0.141
-467.172	119.957	-0.031	0.038
-466.157	-200.000	0.041	-0.401
-465.143	-58.793	-0.177	0.076
-464.128	168.331	0.128	0.179
-463.113	-200.000	-0.019	0.296
-462.099	-200.000	0.045	0.261
-461.084	386.756	0.060	0.122
-460.070	-30.213	0.175	-0.098
-459.055	-90.954	0.292	0.083
-458.040	-29.676	0.273	-0.153
-457.026	-95.048	-0.185	0.049
-456.011	0.125	0.102	0.071
-454.997	-180.790	-0.133	-0.003
-453.982	164.066	0.064	0.090
-452.968	-200.000	-0.086	-0.375
-451.953	4.521	-0.156	0.113
-450.938	-67.808	-0.345	0.133
-449.924	25.205	-0.113	0.092
-448.909	-8.408	-0.312	0.207
-447.895	800.000	-0.095	0.325
-446.880	606.012	-0.097	-0.239
-445.865	-23.595	0.132	-0.078
-444.851	-65.774	-0.109	-0.043
-443.836	-82.133	0.569	-0.183
-442.822	800.000	0.073	0.285
-441.807	341.056	-0.123	-0.237
-440.792	-200.000	0.018	0.178
-439.778	-81.367	0.315	0.102
-438.763	-94.041	-0.342	0.093
-437.749	-53.948	-0.209	0.094
-436.734	800.000	0.053	-0.177
-435.719	3.848	-0.343	-0.247
-434.705	99.296	-0.162	0.184
-433.690	-200.000	-0.026	0.116
-432.676	-103.664	-0.247	0.057
-431.661	642.628	0.110	-0.277
-430.646	-200.000	-0.027	-0.136
-429.632	-44.335	0.314	0.155
-428.617	-168.321	0.200	0.008
-427.603	-200.000	0.024	0.160
-426.588	196.541	0.118	0.177
-425.573	279.776	0.115	-0.202
-424.559	-93.603	0.011	-0.003
-423.544	-24.043	0.128	-0.075
-422.530	-111.575	-0.272	0.054
-421.515	669.788	-0.052	0.132
-420.500	-46.773	0.193	0.093
-419.486	-45.849	0.217	0.106
-418.471	-200.000	-0.018	0.192
-417.457	-76.066	0.075	0.026
-416.442	549.832	0.023	0.054
-415.428	-12.765	-0.253	0.162
-414.413	800.000	0.022	0.060
-413.398	-139.767	0.179	0.019
-412.384	-200.000	-0.018	0.307
-411.369	800.000	-0.014	-0.054
-410.355	63.496	-0.224	-0.221
-409.340	246.408	0.195	0.323
-408.325	800.000	0.042	-0.140
-407.311	-44.943	0.284	0.139
-406.296	-200.000	0.078	-0.415
-405.282	-108.556	0.168	-0.035
-404.267	-166.251	0.032	-0.001
-403.252	467.772	-0.107	0.236
-402.238	238.413	0.061	0.100
-401.223	57.918	-0.170	-0.164
-400.209	634.891	0.110	-0.275
-399.194	-200.000	-0.036	-0.531
-398.179	404.266	-0.112	0.232
-397.165	102.736	-0.067	0.077
-396.150	125.662	0.203	0.253
-395.136	-200.000	-0.023	-0.321
-394.121	-2.218	0.234	-0.162
-393.106	624.007	0.079	0.196
-392.092	-106.297	-0.218	0.048
-391.077	675.653	0.045	0.115
-390.063	17.651	-0.151	0.118
-389.048	619.969	-0.099	0.246
-388.033	471.565	0.113	0.249
-387.019	-200.000	0.008	0.079
-386.004	315.176	0.040	-0.073
-384.990	-43.107	0.115	-0.057
-383.975	135.639	-0.024	-0.030
-382.960	-78.387	0.363	-0.122
-381.946	800.000	-0.066	-0.186
-380.931	800.000	-0.053	-0.194
-379.917	-13.892	-0.361	-0.230
-378.902	82.536	-0.239	-0.255
-377.888	6.539	0.357	0.261
-376.873	-80.317	0.333	-0.109
-375.858	-51.613	-0.426	0.195
-374.844	-200.000	0.003	-0.058
-373.829	-84.834	-0.150	0.046
-372.815	-22.730	-0.034	0.020
-371.800	-200.000	-0.015	0.404
-370.785	-131.585	-0.344	-0.045
-369.771	269.314	-0.149	0.258
-368.756	-133.118	0.070	-0.009
-367.742	-108.123	-0.320	-0.068
-366.727	-97.975	-0.155	0.039
-365.712	800.000	-0.051	-0.204
-364.698	-48.435	-0.055	0.026
-363.683	-132.298	0.210	0.027
-362.669	467.069	-0.183	-0.404
-361.654	-145.965	0.159	-0.014
-360.639	31.659	0.137	-0.116
-359.625	-46.998	0.136	0.065
-358.610	-129.579	0.192	-0.026
-357.596	-200.000	-0.009	0.335
-356.581	-200.000	0.013	0.109
-355.566	134.798	-0.194	0.248
-354.552	-91.284	-0.295	0.083
-353.537	304.188	-0.076	0.139
-352.523	184.194	-0.072	0.105
-351.508	800.000	0.138	-0.395
-350.493	-8.973	0.280	0.184
-349.479	512.911	0.082	0.188
-348.464	33.348	-0.192	-0.164
-347.450	-58.940	-0.360	-0.153
-346.435	-20.223	-0.154	0.093
-345.420	800.000	-0.035	-0.142
-344.406	800.000	0.109	0.297
-343.391	258.687	0.136	-0.230
-342.377	121.374	0.331	-0.405
-341.362	-81.129	0.348	-0.113
-340.348	107.947	0.017	-0.020
-339.333	95.922	-0.116	-0.130
-338.318	800.000	0.026	-0.081
-337.304	-200.000	0.007	0.041
-336.289	-57.323	-0.063	0.027
-335.275	33.995	-0.140	0.120
-334.260	3.419	-0.254	-0.182
-333.245	19.433	-0.203	0.160
-332.231	166.515	-0.117	0.163
-331.216	185.415	0.052	0.075
-330.202	-90.206	0.159	-0.045
-329.187	-159.418	0.279	-0.015
-328.172	373.671	0.101	0.202
-327.158	800.000	0.087	0.240
-326.143	-131.175	-0.203	0.026
-325.129	68.465	0.174	-0.175
-324.114	-200.000	-0.010	-0.102
-323.099	-200.000	-0.022	0.324
-322.085	-200.000	-0.009	0.161
-321.070	-99.182	0.129	0.032
-320.056	-71.181	-0.355	0.131
-319.041	-200.000	-0.011	-0.050
-318.026	-107.750	-0.366	0.078
-317.012	-11.928	-0.152	-0.098
-315.997	-200.000	-0.017	-0.141
-314.983	206.275	-0.099	-0.151
-313.968	103.800	0.118	-0.136
-312.953	-92.027	0.254	-0.070
-311.939	34.499	0.348	-0.298
-310.924	-70.356	-0.373	-0.139
-309.910	-200.000	-0.030	0.198
-308.895	-182.640	-0.300	0.005
-307.880	-147.703	0.514	0.042
-306.866	-34.811	0.111	0.059
-305.851	-200.000	-0.063	0.285
-304.837	271.446	-0.171	0.295
-303.822	-65.078	0.261	0.103
-302.807	278.565	-0.077	-0.134
-301.793	-130.628	0.159	-0.021
-300.778	-108.276	0.046	0.010
-299.764	558.130	-0.027	0.065
-298.749	800.000	-0.056	-0.159
-297.735	15.570	-0.201	0.155
-296.720	-45.515	-0.104	-0.050
-295.705	354.059	0.149	-0.291
-294.691	47.820	0.227	0.208
-293.676	800.000	-0.088	0.285
-292.662	30.047	0.227	0.190
-291.647	-200.000	0.030	-0.159
-290.632	800.000	0.096	-0.325
-289.618	20.483	-0.220	-0.174
-288.603	-129.343	-0.082	-0.011
-287.589	10.010	-0.096	-0.072
-286.574	130.122	0.171	0.214
-285.559	247.622	0.384	-0.636
-284.545	-200.000	-0.023	-0.333
-283.530	-117.809	-0.191	-0.034
-282.516	-88.372	0.299	0.088
-281.501	-45.843	-0.158	0.077
-280.486	312.252	0.083	-0.152
-279.472	-87.409	-0.307	0.091
-278.457	161.597	0.102	-0.140
-277.443	-48.428	0.065	0.031
-276.428	-100.325	-0.367	0.089
-275.413	-135.818	0.171	0.020
-274.399	701.210	-0.015	-0.038
-273.384	247.362	0.049	0.081
-272.370	66.685	0.241	-0.240
-271.355	800.000	0.029	-0.100
-270.340	-200.000	0.053	0.255
-269.326	14.507	0.275	0.210
-268.311	-167.355	-0.162	0.006
-267.297	52.767	-0.048	0.045
-266.282	-200.000	0.045	0.277
-265.267	800.000	0.068	0.208
-264.253	330.981	0.183	0.345
-263.238	-200.000	-0.026	0.164
-262.224	12.049	0.115	-0.086
-261.209	125.930	-0.062	0.077
-260.195	229.211	-0.056	0.090
-259.180	-12.640	0.127	-0.081
-258.165	800.000	0.027	0.080
-257.151	-200.000	-0.043	0.257
-256.136	59.525	-0.301	-0.290
-255.122	238.191	0.228	0.370
-254.107	-62.639	0.227	-0.092
-253.092	214.148	-0.089	0.138
-252.078	138.555	0.198	0.255
-251.063	187.242	0.090	0.131
-250.049	-200.000	-0.024	-0.136
-249.034	5.320	0.307	0.221
-248.019	167.077	0.078	-0.108
-247.005	34.186	-0.128	0.109
-245.990	61.266	-0.218	0.212
-244.976	-175.548	-0.073	0.002
-243.961	-147.926	0.095	0.008
-242.946	-200.000	0.006	-0.109
-241.932	800.000	-0.026	-0.106
-240.917	87.945	0.135	0.147
-239.903	-2.219	0.134	0.092
-238.888	-1.081	-0.110	0.076
-237.873	-91.164	0.252	-0.071
-236.859	2.756	-0.114	0.081
-235.844	-16.496	-0.021	0.013
-234.830	800.000	0.088	-0.323
-233.815	-128.404	0.339	0.047
-232.800	-69.724	0.221	0.083
-231.786	-120.465	-0.292	-0.049
-230.771	-200.000	-0.012	0.289
-229.757	-200.000	-0.006	0.083
-228.742	210.738	-0.229	0.352
-227.727	-153.713	-0.342	0.023
-226.713	-68.052	-0.208	0.079
-225.698	69.157	0.177	-0.178
-224.684	-146.682	-0.317	0.027
-223.669	800.000	-0.133	0.454
-222.655	-158.307	-0.284	-0.016
-221.640	-58.696	0.182	-0.077
-220.625	-36.772	0.335	-0.176
-219.611	542.662	-0.109	-0.255
-218.596	-200.000	-0.000	0.103
-217.582	77.824	0.141	0.146
-216.567	-67.550	-0.145	0.056
-215.552	-109.267	0.095	0.020
-214.538	-200.000	0.007	-0.178
-213.523	800.000	0.054	0.148
-212.509	-200.000	0.005	0.213
-211.494	-4.930	-0.144	-0.097
-210.479	115.811	0.126	-0.151
-209.465	631.028	-0.112	-0.277
-208.450	-200.000	0.034	-0.179
-207.436	800.000	0.030	0.101
-206.421	188.038	0.183	-0.268
-205.406	800.000	-0.033	0.111
-204.392	-200.000	-0.024	0.248
-203.377	347.842	0.090	0.173
-202.363	407.886	0.072	-0.149
-201.348	800.000	-0.041	-0.159
-200.333	739.116	0.099	0.260
-199.319	-65.744	-0.035	-0.014
-198.304	299.491	-0.156	-0.281
-197.290	12.625	0.138	0.104
-196.275	-36.797	-0.238	0.125
-195.260	233.865	0.118	-0.190
-194.246	-200.000	-0.021	-0.148
-193.231	-7.361	0.134	0.089
-192.217	-109.872	-0.165	0.034
-191.202	335.030	0.079	-0.150
-190.187	407.153	-0.096	-0.197
-189.173	-8.584	0.087	0.057
-188.158	89.184	-0.194	-0.211
-187.144	-200.000	0.032	-0.162
-186.129	-105.733	0.204	0.045
-185.114	-152.842	0.176	-0.012
-184.100	307.093	-0.117	0.213
-183.085	800.000	0.069	-0.219
-182.071	12.446	-0.169	0.128
-181.056	800.000	-0.092	-0.308
-180.042	-162.304	0.196	0.010
-179.027	-48.541	-0.264	0.124
-178.012	-200.000	-0.002	-0.159
-176.998	89.063	0.225	-0.245
-175.983	19.684	-0.214	-0.168
-174.969	135.371	0.210	-0.267
-173.954	-200.000	-0.009	-0.139
-172.939	339.298	-0.060	0.114
-171.925	-8.719	-0.107	0.070
-170.910	-200.000	0.025	0.110
-169.896	-145.715	0.133	0.012
-168.881	200.217	0.061	0.092
-167.866	-115.427	-0.129	0.024
-166.852	756.608	0.081	0.215
-165.837	-43.106	-0.086	0.042
-164.823	-125.705	-0.114	-0.017
-163.808	-109.694	-0.197	-0.040
-162.793	598.743	0.170	-0.410
-161.779	-27.743	0.234	-0.132
-160.764	-22.683	-0.207	-0.122
-159.750	-163.095	-0.154	-0.007
-158.735	226.697	0.054	0.086
-157.720	560.972	0.031	-0.074
-156.706	609.352	-0.077	-0.189
-155.691	111.786	0.200	-0.236
-154.677	-31.175	-0.168	-0.092
-153.662	213.125	0.057	-0.088
-152.647	54.216	0.203	0.191
-151.633	387.622	0.112	-0.226
-150.618	-110.641	0.259	0.052
-149.604	183.043	-0.019	0.027
-148.589	42.509	0.079	-0.070
-147.574	356.370	-0.050	0.096
-146.560	-200.000	-0.013	0.240
-145.545	-43.835	-0.218	-0.107
-144.531	214.412	-0.061	-0.095
-143.516	-50.270	0.254	-0.117
-142.502	135.263	0.179	0.227
-141.487	-200.000	-0.007	0.194
-140.472	-200.000	-0.027	0.178
-139.458	-94.875	0.123	0.033
-138.443	800.000	-0.052	0.188
-137.429	-200.000	0.003	0.442
-136.414	1.374	0.146	-0.102
-135.399	7.436	-0.040	-0.029
-134.385	-0.151	0.094	0.065
-133.370	-141.637	0.315	-0.031
-132.356	8.614	0.253	0.186
-131.341	-11.237	-0.182	-0.117
-130.326	196.060	-0.055	-0.082
-129.312	-24.886	-0.180	0.104
-128.297	-155.175	-0.332	0.021
-127.283	298.920	0.030	0.054
-126.268	-200.000	0.054	0.635
-125.253	-7.916	-0.030	-0.020
-124.239	78.132	-0.176	0.183
-123.224	-200.000	0.387	-0.001
-122.210	800.000	0.189	0.544
-121.195	81.571	0.243	0.256
-120.180	515.424	0.098	0.224
-119.166	-200.000	-0.022	-0.224
-118.151	-200.000	0.008	-0.198
-117.137	127.226	0.176	0.218
-116.122	-200.000	0.017	-0.103
-115.107	143.667	0.131	-0.170
-114.093	102.642	0.200	0.228
-113.078	-200.000	-0.055	0.331
-112.064	155.967	-0.065	0.087
-111.049	-64.535	-0.161	0.064
-110.034	44.462	-0.278	0.249
-109.020	-200.000	0.011	0.207
-108.005	-200.000	-0.002	0.047
-106.991	-168.100	0.279	0.011
-105.976	-96.973	-0.098	0.025
-104.962	800.000	-0.095	0.353
-103.947	-119.019	-0.200	0.034
-102.932	-200.000	-0.017	0.419
-101.918	-165.479	0.195	-0.008
-100.903	43.680	0.170	0.152
-99.889	-159.499	-0.244	-0.013
-98.874	-200.000	0.039	-0.380
-97.859	14.642	0.176	-0.134
-96.845	-200.000	-0.137	0.694
-95.830	-71.434	-0.309	-0.112
-94.816	6.565	0.198	-0.143
-93.801	-200.000	-0.035	-0.000
-92.786	-127.734	0.356	0.050
-91.772	-200.000	-0.053	-0.248
-90.757	-200.000	0.048	0.311
-89.743	-43.695	0.207	0.102
-88.728	-68.389	-0.258	0.097
-87.713	98.010	-0.137	-0.153
-86.699	-9.023	0.055	-0.036
-85.684	-93.112	0.386	0.104
-84.670	421.984	0.125	-0.261
-83.655	269.337	0.158	0.269
-82.640	-62.257	-0.273	-0.110
-81.626	-200.000	-0.024	-0.350
-80.611	-14.603	0.162	-0.101
-79.597	-20.305	0.043	0.026
-78.582	-114.348	0.214	0.040
-77.567	212.346	-0.126	0.193
-76.553	238.846	0.081	0.130
-75.538	-64.673	0.521	0.205
-74.524	800.000	-0.035	-0.129
-73.509	153.662	0.127	0.170
-72.494	141.494	0.159	-0.205
-71.480	-200.000	0.002	0.264
-70.465	742.470	-0.055	-0.143
-69.451	-200.000	-0.000	0.125
-68.436	-24.665	-0.245	-0.142
-67.422	-200.000	-0.003	0.133
-66.407	-16.154	0.239	0.147
-65.392	188.245	0.026	0.037
-64.378	800.000	0.033	-0.109
-63.363	-200.000	0.031	0.265
-62.349	40.721	0.141	0.124
-61.334	39.705	-1.387	-1.208
-60.319	15.504	0.935	0.713
-59.305	800.000	-0.399	-1.182
-58.290	785.193	0.575	1.532
-57.276	800.000	0.431	1.621
-56.261	-200.000	136.757	655.628
-55.246	338.498	1666.975	3151.003
-54.232	134.750	2807.901	3539.085
-53.217	79.954	2312.433	2413.086
-52.203	28.812	1911.361	1572.033
-51.188	23.121	1706.421	1359.815
-50.173	21.357	1668.631	1316.379
-49.159	42.905	1743.946	1543.210
-48.144	39.612	1751.888	1524.757
-47.130	22.771	1703.050	1354.229
-46.115	20.423	1687.734	1324.119
-45.100	20.281	1682.201	1318.647
-44.086	20.206	1679.633	1316.009
-43.071	20.157	1677.669	1314.045
-42.057	20.207	1675.097	1312.360
-41.042	20.221	1673.403	1311.088
-40.027	20.139	1671.665	1309.056
-39.013	20.179	1669.136	1307.320
-37.998	20.181	1668.224	1306.572
-36.984	20.208	1666.742	1305.564
-35.969	20.289	1665.870	1305.440
-34.954	20.321	1663.474	1303.746
-33.940	20.266	1662.142	1302.236
-32.925	20.289	1659.880	1300.589
-31.911	20.299	1658.357	1299.420
-30.896	20.265	1656.795	1297.892
-29.881	20.340	1655.199	1297.145
-28.867	20.281	1653.997	1295.714
-27.852	20.297	1653.048	1295.040
-26.838	20.236	1651.591	1293.388
-25.823	20.326	1649.835	1292.631
-24.809	20.368	1648.355	1291.734
-23.794	20.438	1646.494	1290.748
-22.779	20.381	1645.951	1289.844
-21.765	20.332	1643.888	1287.812
-20.750	20.294	1642.075	1286.058
-19.736	20.386	1640.917	1285.782
-18.721	20.436	1639.394	1284.909
-17.706	20.322	1638.438	1283.264
-16.692	20.318	1637.101	1282.138
-15.677	20.360	1635.052	1280.795
-14.663	20.445	1633.780	1280.373
-13.648	20.430	1632.263	1279.021
-12.633	20.456	1630.664	1277.912
-11.619	20.350	1629.439	1276.122
-10.604	20.437	1627.863	1275.477
-9.590	20.315	1626.902	1273.772
-8.575	20.420	1625.336	1273.272
-7.560	20.408	1624.359	1272.364
-6.546	20.344	1623.105	1270.860
-5.531	20.368	1622.284	1270.347
-4.517	20.417	1620.827	1269.516
-3.502	20.308	1620.014	1268.030
-2.487	20.375	1617.613	1266.588
-1.473	19.992	1605.256	1254.091
-0.458	16.864	1585.522	1216.216
0.556	12.296	1587.098	1184.004
1.571	9.982	1611.394	1185.064
2.586	9.868	1622.757	1192.478
3.600	9.279	1567.841	1147.810
4.615	5.352	1462.821	1044.629
5.629	1.457	1407.393	979.883
6.644	0.590	1401.572	970.173
7.659	0.688	1400.797	970.178
8.673	0.621	1399.580	968.819
9.688	0.622	1397.173	967.073
10.702	0.519	1393.340	963.678
11.717	2.504	1395.699	977.908
12.731	8.384	1403.950	1021.291
13.746	14.483	1413.830	1067.545
14.761	17.020	1417.407	1086.421
15.775	16.686	1415.551	1082.764
16.790	15.752	1412.817	1074.612
17.804	14.855	1410.653	1067.150
18.819	14.555	1409.353	1064.157
19.834	14.379	1408.212	1062.081
20.848	14.103	1406.541	1058.968
21.863	13.830	1405.622	1056.445
22.877	13.771	1404.073	1054.808
23.892	13.560	1403.040	1052.598
24.907	13.617	1402.465	1052.436
25.921	13.623	1401.520	1051.673
26.936	13.691	1400.695	1051.393
27.950	13.702	1399.659	1050.593
28.965	13.739	1398.617	1049.954
29.980	13.870	1397.246	1049.660
30.994	13.957	1396.533	1049.577
32.009	13.872	1395.555	1048.213
33.023	13.778	1394.651	1046.849
34.038	13.798	1393.194	1045.790
35.053	13.796	1392.292	1045.010
36.067	13.782	1391.216	1044.019
37.082	13.829	1389.804	1043.161
38.096	13.806	1388.703	1042.100
39.111	13.832	1388.480	1042.001
40.126	13.807	1387.611	1041.100
41.140	13.642	1387.148	1039.630
42.155	13.607	1386.940	1039.157
43.169	13.609	1386.655	1038.869
44.184	13.668	1386.020	1038.669
45.199	13.609	1385.926	1038.135
46.213	13.668	1384.887	1037.638
47.228	13.651	1383.879	1036.684
48.242	13.702	1382.627	1035.970
49.257	13.729	1381.409	1035.133
50.271	13.783	1379.505	1033.956
51.286	13.731	1378.337	1032.664
52.301	13.727	1377.227	1031.714
53.315	13.705	1376.361	1030.837
54.330	13.741	1375.165	1030.073
55.344	13.695	1373.861	1028.722
56.359	13.626	1372.943	1027.513
57.374	13.433	1372.538	1025.923
58.388	13.606	1371.314	1025.993
59.403	13.594	1371.151	1025.706
60.417	13.485	1370.116	1024.166
61.432	13.523	1369.427	1023.793
62.447	13.532	1368.175	1022.821
63.461	13.509	1366.883	1021.625
64.476	13.515	1366.380	1021.197
65.490	13.549	1364.848	1020.173
66.505	13.488	1362.984	1018.313
67.520	13.542	1361.780	1017.651
68.534	13.616	1360.800	1017.285
69.549	13.653	1359.568	1016.501
70.563	13.646	1358.510	1015.580
71.578	13.704	1357.215	1014.874
72.593	13.528	1356.505	1013.175
73.607	13.510	1355.940	1012.556
74.622	13.537	1354.841	1011.813
75.636	13.490	1354.731	1011.354
76.651	13.503	1353.405	1010.348
77.666	13.463	1352.685	1009.482
78.680	13.547	1352.060	1009.434
79.695	13.560	1351.271	1008.836
80.709	13.506	1350.467	1007.820
81.724	13.775	1349.037	1008.297
82.739	13.646	1348.513	1007.036
83.753	13.702	1347.679	1006.663
84.768	13.723	1346.348	1005.708
85.782	13.837	1345.203	1005.455
86.797	13.693	1344.603	1004.045
87.812	13.653	1342.889	1002.433
88.826	13.628	1342.297	1001.753
89.841	13.708	1340.276	1000.636
90.855	13.692	1339.311	999.729
91.870	13.804	1338.476	999.697
92.884	13.754	1338.001	998.950
93.899	13.752	1336.773	997.935
94.914	13.876	1336.063	998.058
95.928	13.847	1335.060	997.049
96.943	13.886	1333.867	996.300
97.957	13.803	1333.182	995.206
98.972	13.843	1332.375	994.753
99.987	13.779	1331.398	993.552
101.001	13.766	1330.774	992.924
102.016	13.865	1329.239	992.280
103.030	13.816	1328.439	991.304
104.045	13.806	1327.514	990.465
105.060	13.749	1325.867	988.809
106.074	13.780	1324.869	988.159
107.089	13.644	1323.802	986.467
108.103	13.677	1322.365	985.510
109.118	13.717	1320.979	984.626
110.133	13.722	1319.936	983.789
111.147	13.600	1318.631	982.010
112.162	13.808	1316.815	981.797
113.176	13.747	1315.864	980.645
114.191	13.738	1315.043	979.892
115.206	13.696	1313.949	978.741
116.220	13.771	1312.550	978.056
117.235	13.743	1311.717	977.181
118.249	13.837	1310.475	976.726
119.264	13.850	1309.071	975.669
120.279	13.743	1308.096	974.225
121.293	13.762	1307.223	973.598
122.308	13.654	1306.585	972.408
123.322	13.702	1305.017	971.431
124.337	13.789	1303.866	970.998
125.352	13.730	1302.302	969.408
126.366	13.622	1301.691	968.236
127.381	13.699	1300.337	967.588
128.395	13.748	1299.194	966.942
129.410	13.657	1298.095	965.507
130.424	13.755	1297.312	965.411
131.439	13.701	1296.154	964.149
132.454	13.601	1295.357	962.890
133.468	13.695	1294.427	962.656
134.483	13.666	1294.037	962.113
135.497	13.664	1292.404	960.803
136.512	13.683	1291.134	959.884
137.527	13.779	1289.741	959.317
138.541	13.742	1288.145	957.832
139.556	13.796	1287.212	957.368
140.570	13.709	1286.293	956.097
141.585	13.935	1284.571	956.033
142.600	13.813	1283.623	954.542
143.614	13.894	1282.961	954.433
144.629	13.981	1281.807	953.985
145.643	13.878	1280.585	952.401
146.658	13.802	1279.057	950.744
147.673	13.963	1277.586	950.491
148.687	13.840	1276.950	949.228
149.702	13.857	1275.394	948.088
150.716	13.904	1273.798	947.086
151.731	13.884	1272.702	946.069
152.746	13.774	1272.063	944.887
153.760	13.928	1270.526	944.538
154.775	14.025	1268.984	943.855
155.789	13.935	1268.544	942.936
156.804	14.025	1267.014	942.226
157.819	14.017	1265.999	941.341
158.833	14.038	1265.487	940.998
159.848	13.992	1264.435	939.870
160.862	14.175	1262.612	939.466
161.877	13.910	1262.338	937.683
162.892	13.921	1260.844	936.551
163.906	14.081	1259.861	936.640
164.921	13.995	1259.075	935.490
165.935	13.991	1258.126	934.677
166.950	14.042	1257.665	934.543
167.964	14.081	1257.110	934.268
168.979	14.097	1256.079	933.504
169.994	14.144	1255.389	933.174
171.008	14.211	1254.170	932.563
172.023	14.142	1253.911	931.901
173.037	14.247	1252.780	931.562
174.052	14.186	1252.043	930.590
175.067	14.190	1250.855	929.648
176.081	14.199	1249.563	928.659
177.096	14.288	1248.774	928.487
178.110	14.072	1248.092	926.691
179.125	14.214	1246.903	926.515
180.140	14.131	1245.227	924.728
181.154	14.294	1243.810	924.498
182.169	14.272	1242.859	923.588
183.183	14.297	1241.377	922.543
184.198	14.335	1240.724	922.188
185.213	14.253	1239.481	920.727
186.227	14.310	1238.698	920.380
187.242	14.311	1237.226	919.209
188.256	14.333	1236.378	918.623
189.271	14.397	1235.224	918.036
190.286	14.315	1234.298	916.813
191.300	14.329	1233.187	915.983
192.315	14.198	1232.971	915.022
193.329	14.219	1232.405	914.639
194.344	14.266	1231.873	914.421
195.359	14.305	1231.033	913.930
196.373	14.311	1230.426	913.433
197.388	14.389	1230.127	913.554
198.402	14.411	1229.402	913.056
199.417	14.579	1228.439	913.183
200.432	14.638	1227.603	912.803
201.446	14.492	1226.881	911.387
202.461	14.635	1225.719	911.223
203.475	14.703	1224.925	910.923
204.490	14.703	1223.561	909.829
205.504	14.563	1222.775	908.402
206.519	14.514	1221.405	907.036
207.534	14.687	1219.940	906.808
208.548	14.648	1219.152	905.931
209.563	14.556	1218.112	904.577
210.577	14.600	1217.589	904.346
211.592	14.650	1216.715	903.890
212.607	14.813	1215.104	903.497
213.621	14.678	1214.752	902.420
214.636	14.722	1213.964	901.996
215.650	14.690	1212.878	900.935
216.665	14.727	1212.066	900.450
217.680	14.738	1211.076	899.699
218.694	14.765	1210.417	899.272
219.709	14.791	1209.225	898.449
220.723	14.863	1208.677	898.348
221.738	14.872	1207.867	897.713
222.753	14.851	1207.352	897.142
223.767	14.862	1206.494	896.481
224.782	14.858	1205.465	895.619
225.796	14.946	1205.098	895.734
226.811	14.902	1204.363	894.875
227.826	14.910	1203.674	894.326
228.840	14.895	1203.018	893.682
229.855	14.947	1202.218	893.286
230.869	14.859	1201.572	892.254
231.884	14.895	1200.535	891.600
232.899	14.890	1199.981	891.083
233.913	15.019	1198.606	890.668
234.928	14.991	1198.238	890.165
235.942	14.847	1197.795	888.993
236.957	14.905	1197.077	888.688
237.972	14.968	1195.949	888.107
238.986	14.967	1195.681	887.825
240.001	15.003	1194.822	887.302
241.015	14.910	1193.745	885.928
242.030	15.131	1192.749	886.278
243.045	15.058	1191.942	885.215
244.059	15.072	1191.430	884.833
245.074	15.035	1190.663	883.989
246.088	15.134	1189.570	883.623
247.103	15.196	1188.792	883.292
248.117	15.271	1188.115	883.106
249.132	15.233	1187.457	882.337
250.147	15.302	1186.214	881.698
251.161	15.273	1186.092	881.380
252.176	15.228	1185.413	880.560
253.190	15.368	1184.366	880.441
254.205	15.379	1184.310	880.377
255.220	15.417	1183.299	879.745
256.234	15.343	1182.708	878.841
257.249	15.420	1181.936	878.594
258.263	15.521	1181.089	878.413
259.278	15.378	1180.746	877.336
260.293	15.627	1179.643	877.736
261.307	15.498	1179.291	876.726
262.322	15.545	1178.543	876.336
263.336	15.476	1178.025	875.514
264.351	15.502	1177.560	875.226
265.366	15.437	1177.180	874.527
266.380	15.525	1176.285	874.243
267.395	15.601	1174.814	873.466
268.409	15.531	1174.347	872.679
269.424	15.582	1173.711	872.395
270.439	15.655	1173.073	872.221
271.453	15.614	1172.524	871.523
272.468	15.638	1171.365	870.708
273.482	15.526	1170.968	869.756
274.497	15.538	1170.505	869.399
275.512	15.605	1169.726	869.092
276.526	15.523	1169.151	868.160
277.541	15.662	1167.891	867.869
278.555	15.564	1167.734	867.165
279.570	15.800	1166.329	867.264
280.585	15.894	1165.800	867.280
281.599	15.829	1164.468	865.874
282.614	15.725	1163.336	864.424
283.628	15.735	1162.601	863.852
284.643	15.881	1161.660	863.827
285.657	15.813	1160.926	862.853
286.672	15.912	1159.905	862.529
287.687	15.858	1158.684	861.265
288.701	15.911	1158.360	861.218
289.716	15.901	1157.513	860.462
290.730	15.899	1156.589	859.688
291.745	15.897	1156.022	859.183
292.760	15.974	1155.483	859.097
293.774	16.003	1154.625	858.534
294.789	16.039	1154.311	858.406
295.803	16.076	1153.633	858.011
296.818	16.038	1152.674	857.032
297.833	16.042	1152.128	856.569
298.847	16.034	1151.275	855.821
299.862	16.079	1150.439	855.351
300.876	16.085	1149.507	854.613
301.891	16.084	1149.239	854.331
302.906	16.091	1148.512	853.754
303.920	16.197	1147.705	853.611
304.935	16.089	1147.211	852.623
305.949	16.142	1146.456	852.256
306.964	16.169	1145.854	851.867
307.979	16.278	1144.864	851.605
308.993	16.143	1144.232	850.382
310.008	16.253	1143.323	850.183
311.022	16.244	1142.644	849.561
312.037	16.330	1141.458	849.032
313.052	16.224	1140.948	848.046
314.066	16.319	1139.569	847.422
315.081	16.314	1138.931	846.848
316.095	16.304	1138.082	846.091
317.110	16.283	1137.471	845.460
318.125	16.258	1137.135	845.010
319.139	16.216	1136.247	844.065
320.154	16.245	1135.502	843.582
321.168	16.238	1135.639	843.575
322.183	16.351	1134.096	842.918
323.197	16.371	1133.351	842.387
324.212	16.291	1132.578	841.339
325.227	16.379	1132.507	841.653
326.241	16.439	1131.666	841.249
327.256	16.410	1131.127	840.632
328.270	16.439	1129.835	839.743
329.285	16.424	1129.172	839.100
330.300	16.360	1128.047	837.871
331.314	16.272	1127.863	837.226
332.329	16.471	1126.040	836.780
333.343	16.498	1125.040	836.096
334.358	16.494	1124.719	835.767
335.373	16.494	1124.312	835.390
336.387	16.510	1123.155	834.536
337.402	16.622	1122.479	834.511
338.416	16.539	1121.733	833.476
339.431	16.633	1120.776	833.154
340.446	16.747	1119.967	833.038
341.460	16.779	1119.398	832.700
342.475	16.687	1118.913	831.812
343.489	16.762	1117.934	831.377
344.504	16.836	1116.590	830.666
345.519	16.827	1115.949	830.074
346.533	16.791	1114.822	828.985
347.548	16.860	1114.187	828.777
348.562	16.984	1113.324	828.667
349.577	16.817	1113.044	827.570
350.592	16.752	1112.021	826.421
351.606	16.982	1111.271	826.910
352.621	16.802	1110.816	825.624
353.635	16.831	1109.947	825.045
354.650	16.857	1109.104	824.474
355.665	16.844	1108.834	824.134
356.679	16.870	1108.415	823.878
357.694	16.731	1108.177	822.953
358.708	16.874	1106.861	822.596
359.723	16.929	1106.076	822.204
360.738	16.965	1105.207	821.659
361.752	16.896	1105.059	821.144
362.767	16.963	1104.562	821.028
363.781	16.989	1103.640	820.393
364.796	17.087	1102.926	820.264
365.810	17.085	1102.271	819.696
366.825	17.132	1101.818	819.512
367.840	17.200	1100.915	819.095
368.854	17.138	1100.739	818.594
369.869	17.226	1099.831	818.270
370.883	17.148	1098.747	817.015
371.898	17.184	1098.017	816.573
372.913	17.064	1098.073	815.966
373.927	17.236	1097.190	816.062
374.942	17.180	1096.478	815.195
375.956	17.291	1096.157	815.416
376.971	17.277	1095.248	814.598
377.986	17.283	1095.033	814.397
379.000	17.468	1094.466	814.790
380.015	17.497	1093.551	814.176
381.029	17.369	1093.304	813.306
382.044	17.337	1092.690	812.626
383.059	17.461	1091.442	812.214
384.073	17.404	1091.148	811.652
385.088	17.388	1089.926	810.598
386.102	17.342	1089.185	809.756
387.117	17.369	1088.298	809.154
388.132	17.417	1087.344	808.599
389.146	17.391	1086.719	807.941
390.161	17.424	1085.911	807.426
391.175	17.367	1084.998	806.405
392.190	17.494	1084.380	806.474
393.205	17.623	1083.282	806.196
394.219	17.616	1082.658	805.628
395.234	17.535	1081.883	804.596
396.248	17.392	1080.594	802.894
397.263	17.571	1079.507	802.857
398.278	17.490	1079.082	802.090
399.292	17.595	1078.314	801.940
400.307	17.506	1077.316	800.712
401.321	17.546	1077.024	800.608
402.336	17.565	1076.375	800.145
403.350	17.608	1075.455	799.594
404.365	17.515	1074.594	798.448
405.380	17.438	1074.833	798.190
406.394	17.607	1073.847	798.179
407.409	17.616	1072.930	797.472
408.423	17.857	1071.914	797.771
409.438	17.820	1071.056	796.890
410.453	17.902	1070.512	796.795
411.467	17.871	1069.944	796.160
412.482	17.813	1069.357	795.383
413.496	17.862	1068.510	794.908
414.511	17.922	1067.641	794.474
415.526	17.899	1067.465	794.163
416.540	17.919	1067.237	794.019
417.555	17.991	1066.342	793.615
418.569	17.952	1066.361	793.378
419.584	17.979	1065.414	792.730
420.599	18.087	1064.838	792.731
421.613	109.975	1333.493	1493.709
422.628	101.653	1372.589	1493.783
