DTS Sentinel unit serial number:	SN413079Multiplexer serial number:	ORYXHardware model number:	OX4-SRSoftware version number:	ORYX F/W v4.00 Oryx Data Collector v3.7.2.0data status	okinstallation	princeton_trtdifferential loss correction	single-endedforward channel	channel 2reverse channel	N/Adate	2019/09/19time	15:35:35forward acquisition time	60.00reverse acquisition time	0.00gamma	496.2192k internal	0.2318k external	0.2318temperature offset calibration	1.0024default loss term (dB/km)	0.3790temperature slope calibration	1.0000multiplexer offset coefficient	1.0000multiplexer slope coefficient	1.0000fibre end	0.00T internal ref (°C)	34.30T ext. ref 1 (°C)	1.15T ext. ref 2 (°C)	31.89length (m)	temperature (°C)	Stokes	anti-Stokes-747.200	-151.884	0.218	0.016
-746.185	125.320	-0.331	0.422
-745.171	-200.000	0.055	0.250
-744.156	86.725	-0.041	-0.046
-743.142	-190.126	0.123	-0.001
-742.127	-34.514	-0.238	-0.132
-741.112	201.700	-0.157	0.244
-740.098	235.508	-0.086	0.143
-739.083	16.680	-0.055	0.044
-738.069	-200.000	0.014	-0.157
-737.054	-109.589	0.155	-0.033
-736.039	-33.798	-0.223	-0.124
-735.025	-152.529	0.212	-0.015
-734.010	-200.000	0.002	-0.232
-732.996	166.676	0.185	-0.265
-731.981	-200.000	0.015	-0.126
-730.966	800.000	-0.047	-0.180
-729.952	-50.176	-0.350	-0.168
-728.937	390.689	0.120	0.253
-727.923	-120.843	-0.273	0.047
-726.908	556.983	-0.136	0.331
-725.894	-140.640	-0.131	0.014
-724.879	800.000	0.074	-0.237
-723.864	-200.000	0.010	-0.164
-722.850	373.855	0.066	-0.136
-721.835	-85.151	0.305	-0.096
-720.821	-173.055	-0.394	0.012
-719.806	-121.708	0.238	-0.040
-718.791	543.148	-0.021	0.051
-717.777	-58.830	-0.402	-0.176
-716.762	249.571	-0.013	0.023
-715.748	199.863	-0.157	0.244
-714.733	-200.000	-0.003	0.361
-713.718	-17.610	0.263	-0.167
-712.704	-200.000	-0.008	0.224
-711.689	-104.532	-0.397	-0.093
-710.675	107.764	-0.078	0.094
-709.660	512.443	0.014	-0.033
-708.645	-200.000	0.006	0.138
-707.631	349.015	0.112	0.223
-706.616	-61.043	-0.283	-0.121
-705.602	800.000	-0.091	-0.267
-704.587	-200.000	0.022	0.263
-703.572	72.347	0.108	0.114
-702.558	800.000	0.087	0.384
-701.543	72.452	0.064	-0.068
-700.529	-70.278	-0.181	-0.069
-699.514	-200.000	0.017	0.141
-698.499	800.000	0.101	-0.421
-697.485	-93.555	-0.301	0.084
-696.470	151.298	0.219	-0.301
-695.456	-0.852	-0.173	-0.124
-694.441	104.284	0.024	0.029
-693.426	709.515	-0.111	0.297
-692.412	49.269	-0.121	-0.115
-691.397	-64.892	-0.015	0.006
-690.383	-89.567	0.221	-0.065
-689.368	-92.913	-0.265	0.075
-688.354	-115.704	-0.160	-0.030
-687.339	73.580	0.112	0.119
-686.324	-34.332	-0.333	0.184
-685.310	103.021	-0.092	0.108
-684.295	301.169	-0.089	-0.166
-683.281	-95.708	-0.375	-0.101
-682.266	146.976	-0.209	-0.284
-681.251	-71.267	0.249	0.094
-680.237	-145.581	0.037	0.003
-679.222	-135.820	-0.231	-0.028
-678.208	26.579	0.319	0.269
-677.193	-48.799	0.319	0.155
-676.178	-96.171	0.110	0.029
-675.164	184.837	-0.181	-0.271
-674.149	800.000	0.026	-0.097
-673.135	-53.432	-0.159	0.074
-672.120	775.628	0.022	0.060
-671.105	365.825	-0.067	0.136
-670.091	-155.579	0.088	-0.006
-669.076	380.547	0.086	-0.179
-668.062	800.000	-0.061	-0.265
-667.047	-200.000	0.000	0.004
-666.032	-200.000	-0.073	0.387
-665.018	800.000	0.020	-0.081
-664.003	475.812	0.054	-0.122
-662.989	95.029	-0.106	-0.122
-661.974	-24.182	-0.255	0.153
-660.959	45.433	0.150	0.139
-659.945	-200.000	-0.019	0.264
-658.930	135.237	0.326	-0.427
-657.916	-200.000	0.013	-0.166
-656.901	-111.909	-0.194	0.040
-655.886	124.942	0.070	0.088
-654.872	3.457	0.145	0.107
-653.857	-200.000	-0.063	0.373
-652.843	239.817	-0.022	0.036
-651.828	372.118	0.044	0.089
-650.814	473.190	0.208	0.473
-649.799	-200.000	-0.001	-0.051
-648.784	172.622	-0.067	0.097
-647.770	-200.000	-0.045	0.276
-646.755	545.120	-0.101	0.244
-645.741	-142.835	-0.133	0.013
-644.726	-200.000	0.028	-0.131
-643.711	197.116	-0.086	-0.133
-642.697	372.460	-0.143	0.293
-641.682	-6.884	-0.117	0.080
-640.668	-200.000	-0.010	-0.257
-639.653	116.348	0.330	0.408
-638.638	-192.795	-0.327	0.003
-637.624	-70.491	0.012	0.004
-636.609	-104.824	-0.187	0.043
-635.595	-200.000	-0.033	-0.213
-634.580	-63.470	-0.046	-0.019
-633.565	175.192	0.057	0.084
-632.551	800.000	-0.039	0.143
-631.536	-200.000	0.014	-0.330
-630.522	-11.049	-0.169	0.112
-629.507	800.000	-0.084	-0.339
-628.492	-200.000	-0.040	-0.274
-627.478	-200.000	0.038	-0.234
-626.463	23.331	0.104	0.086
-625.449	-25.039	0.241	-0.144
-624.434	-64.709	0.075	0.031
-623.419	421.332	-0.066	0.143
-622.405	-25.961	-0.147	0.087
-621.390	-3.411	-0.234	-0.164
-620.376	-143.620	-0.191	0.018
-619.361	-200.000	0.010	0.239
-618.346	6.402	-0.183	-0.137
-617.332	165.527	0.091	0.129
-616.317	-200.000	-0.019	-0.155
-615.303	-138.672	0.162	-0.018
-614.288	-200.000	-0.033	0.237
-613.273	-200.000	-0.021	0.219
-612.259	800.000	-0.104	0.319
-611.244	-200.000	-0.031	-0.178
-610.230	107.015	-0.047	0.056
-609.215	-200.000	0.095	0.477
-608.201	17.877	-0.148	-0.119
-607.186	675.920	0.120	-0.315
-606.171	800.000	-0.041	0.152
-605.157	445.848	0.086	-0.190
-604.142	-145.200	0.204	0.019
-603.128	-31.019	-0.069	-0.039
-602.113	54.776	0.115	0.112
-601.098	15.989	-0.296	0.235
-600.084	-170.572	-0.341	0.012
-599.069	183.003	0.200	0.297
-598.055	63.644	0.349	0.352
-597.040	410.101	0.087	-0.185
-596.025	159.971	-0.241	-0.337
-595.011	95.922	-0.229	0.264
-593.996	-200.000	0.024	-0.258
-592.982	26.369	-0.137	-0.115
-591.967	112.304	0.222	0.271
-590.952	66.987	0.047	0.048
-589.938	-200.000	0.001	0.013
-588.923	-200.000	0.067	-0.316
-587.909	800.000	0.052	0.222
-586.894	-51.236	-0.220	-0.104
-585.879	-75.680	0.189	0.068
-584.865	-26.784	0.294	-0.173
-583.850	-81.003	-0.161	0.054
-582.836	48.836	0.078	-0.073
-581.821	608.575	-0.097	0.244
-580.806	-101.442	-0.139	-0.034
-579.792	19.052	-0.380	0.307
-578.777	-165.393	-0.191	0.008
-577.763	18.569	0.205	-0.165
-576.748	-200.000	0.004	0.029
-575.733	-200.000	-0.046	0.228
-574.719	-200.000	-0.028	-0.304
-573.704	-31.176	0.177	-0.100
-572.690	-136.591	-0.157	0.018
-571.675	-121.901	-0.235	-0.039
-570.661	-65.402	-0.127	0.051
-569.646	-57.780	-0.100	-0.044
-568.631	560.873	0.057	0.140
-567.617	-35.896	0.164	-0.089
-566.602	-76.734	-0.339	-0.119
-565.588	71.782	0.176	-0.184
-564.573	-200.000	-0.002	0.090
-563.558	409.407	-0.083	0.176
-562.544	-200.000	0.002	0.165
-561.529	320.654	0.071	-0.136
-560.515	800.000	0.057	0.239
-559.500	-75.851	0.231	-0.082
-558.485	66.760	0.167	-0.171
-557.471	-2.279	0.113	0.080
-556.456	17.511	-0.127	0.102
-555.442	-91.229	0.107	0.031
-554.427	-54.869	-0.246	-0.111
-553.412	-143.903	-0.379	-0.036
-552.398	250.285	-0.004	-0.006
-551.383	123.716	0.112	0.141
-550.369	-93.189	0.089	0.025
-549.354	15.724	-0.066	0.052
-548.339	800.000	0.065	0.183
-547.325	-97.606	-0.122	0.032
-546.310	800.000	0.025	-0.094
-545.296	-24.864	-0.033	0.020
-544.281	-63.373	-0.160	-0.066
-543.266	-166.408	0.116	-0.005
-542.252	-143.134	-0.126	-0.012
-541.237	554.190	-0.087	-0.211
-540.223	149.246	-0.070	0.095
-539.208	57.175	0.115	-0.112
-538.193	-23.867	0.326	-0.196
-537.179	-34.664	-0.307	0.168
-536.164	-63.934	0.170	0.070
-535.150	-30.559	-0.249	-0.142
-534.135	237.758	0.115	-0.192
-533.121	-140.570	0.159	-0.017
-532.106	-15.173	0.137	-0.088
-531.091	800.000	-0.070	0.255
-530.077	-200.000	0.003	0.072
-529.062	204.082	-0.095	0.148
-528.048	-56.452	-0.159	-0.071
-527.033	-200.000	0.032	-0.356
-526.018	-160.960	0.078	0.004
-525.004	-98.483	-0.126	-0.032
-523.989	-6.591	-0.105	0.072
-522.975	-91.804	0.458	0.131
-521.960	133.756	-0.164	-0.213
-520.945	-51.418	-0.323	-0.152
-519.931	800.000	-0.054	-0.184
-518.916	-136.509	0.368	0.043
-517.902	-81.861	-0.255	0.084
-516.887	-87.902	-0.102	0.031
-515.872	407.862	0.066	-0.140
-514.858	432.154	-0.031	-0.066
-513.843	12.495	0.271	0.210
-512.829	-88.415	-0.083	0.025
-511.814	800.000	0.124	-0.407
-510.799	-116.558	0.136	-0.025
-509.785	116.110	-0.246	0.303
-508.770	296.085	0.038	0.071
-507.756	-76.302	0.209	-0.074
-506.741	326.342	-0.076	0.145
-505.726	-17.456	-0.101	-0.063
-504.712	146.516	0.023	0.032
-503.697	-123.901	-0.183	-0.029
-502.683	-125.216	0.242	0.037
-501.668	55.977	0.161	-0.156
-500.653	-200.000	0.036	0.183
-499.639	-180.828	-0.090	-0.002
-498.624	-120.532	0.274	0.047
-497.610	-112.608	0.220	0.044
-496.595	-200.000	0.014	-0.384
-495.581	-200.000	0.001	-0.067
-494.566	73.813	0.022	0.024
-493.551	-4.038	-0.355	-0.247
-492.537	190.590	-0.299	0.450
-491.522	-28.336	-0.152	0.088
-490.508	254.249	0.125	-0.215
-489.493	-192.151	0.351	0.003
-488.478	-98.209	0.032	0.008
-487.464	-200.000	0.009	0.528
-486.449	117.804	-0.282	0.348
-485.435	-200.000	-0.022	-0.099
-484.420	-200.000	0.009	-0.383
-483.405	185.805	-0.075	-0.111
-482.391	-162.816	0.253	0.012
-481.376	62.159	-0.210	-0.210
-480.362	-81.555	-0.322	-0.106
-479.347	-152.625	0.084	-0.006
-478.332	-123.259	0.272	-0.043
-477.318	-116.489	-0.293	-0.054
-476.303	495.915	0.028	-0.065
-475.289	-200.000	-0.321	0.000
-474.274	-40.104	0.288	0.150
-473.259	800.000	0.092	-0.271
-472.245	-200.000	0.065	-0.397
-471.230	-54.542	-0.258	0.117
-470.216	-174.172	0.304	-0.009
-469.201	-200.000	0.003	-0.175
-468.186	-92.220	0.113	-0.032
-467.172	82.686	0.065	-0.071
-466.157	-88.220	0.100	0.030
-465.143	-30.546	-0.222	-0.126
-464.128	200.912	-0.047	-0.072
-463.113	-146.207	-0.110	-0.010
-462.099	-20.365	0.159	0.098
-461.084	-20.530	0.243	0.149
-460.070	-17.514	-0.247	0.156
-459.055	591.720	0.019	0.048
-458.040	-107.178	-0.122	-0.027
-457.026	45.826	-0.260	0.241
-456.011	223.024	-0.139	-0.225
-454.997	-200.000	0.009	0.058
-453.982	-200.000	-0.005	0.196
-452.968	-102.441	-0.288	0.069
-451.953	-132.894	0.221	0.028
-450.938	-3.386	0.268	0.187
-449.924	-132.119	-0.077	0.010
-448.909	320.298	-0.055	0.104
-447.895	-87.946	-0.196	-0.059
-446.880	104.312	0.263	-0.309
-445.865	243.446	0.191	0.321
-444.851	800.000	-0.025	-0.081
-443.836	-66.592	0.247	-0.098
-442.822	800.000	0.062	-0.221
-441.807	169.198	0.128	-0.183
-440.792	-80.333	0.170	-0.057
-439.778	-200.000	0.023	-0.305
-438.763	800.000	-0.017	-0.068
-437.749	800.000	-0.128	-0.441
-436.734	-30.087	-0.242	-0.138
-435.719	63.010	-0.094	0.094
-434.705	800.000	0.045	0.132
-433.690	46.066	-0.140	0.130
-432.676	-200.000	-0.028	0.130
-431.661	-200.000	0.010	-0.228
-430.646	-188.635	-0.064	-0.001
-429.632	18.939	0.269	0.215
-428.617	-200.000	0.030	-0.149
-427.603	171.273	0.119	-0.170
-426.588	-67.015	-0.150	-0.059
-425.573	800.000	-0.032	-0.122
-424.559	-4.414	0.264	-0.183
-423.544	263.084	0.165	-0.287
-422.530	-200.000	0.016	0.195
-421.515	-68.605	0.243	-0.094
-420.500	-200.000	-0.037	0.250
-419.486	297.342	-0.076	0.140
-418.471	19.717	-0.063	0.051
-417.457	-200.000	-0.002	-0.190
-416.442	-200.000	-0.001	0.290
-415.428	-111.974	0.154	0.031
-414.413	-75.472	-0.048	0.017
-413.398	-200.000	0.036	-0.200
-412.384	24.790	-0.450	-0.373
-411.369	65.084	-0.115	-0.116
-410.355	-39.388	0.040	-0.021
-409.340	-70.880	0.300	-0.113
-408.325	-200.000	-0.001	-0.030
-407.311	107.096	-0.187	0.222
-406.296	142.503	0.159	-0.210
-405.282	-141.378	0.257	0.026
-404.267	622.244	-0.132	-0.331
-403.252	-139.554	0.192	-0.020
-402.238	-88.735	0.213	0.063
-401.223	800.000	-0.044	-0.153
-400.209	-119.821	-0.241	0.041
-399.194	135.005	-0.321	-0.416
-398.179	-200.000	-0.023	-0.257
-397.165	129.477	-0.134	-0.171
-396.150	244.071	0.105	0.176
-395.136	-200.000	-0.001	0.172
-394.121	192.370	-0.109	0.164
-393.106	-98.825	-0.110	0.028
-392.092	749.525	0.087	-0.234
-391.077	-20.141	0.294	-0.181
-390.063	800.000	0.031	0.089
-389.048	-123.518	-0.096	-0.015
-388.033	-6.675	0.068	0.046
-387.019	-2.247	-0.066	0.046
-386.004	-0.078	-0.378	-0.269
-384.990	800.000	0.101	0.318
-383.975	505.766	0.116	-0.268
-382.960	227.796	0.128	-0.208
-381.946	-200.000	-0.041	0.248
-380.931	800.000	0.081	0.311
-379.917	-77.887	0.113	0.039
-378.902	164.831	-0.228	0.321
-377.888	15.297	0.233	-0.183
-376.873	-16.466	0.193	-0.122
-375.858	403.524	-0.024	-0.050
-374.844	80.818	0.110	-0.118
-373.829	800.000	-0.035	0.104
-372.815	-151.883	-0.080	0.006
-371.800	-95.965	0.255	-0.068
-370.785	-109.498	0.125	-0.026
-369.771	-200.000	-0.053	-0.274
-368.756	155.377	-0.176	0.241
-367.742	-121.332	0.145	-0.024
-366.727	11.055	-0.286	0.218
-365.712	329.336	-0.098	-0.187
-364.698	589.944	0.090	-0.220
-363.683	800.000	-0.012	-0.041
-362.669	104.816	0.034	0.040
-361.654	800.000	0.071	0.246
-360.639	18.214	0.159	0.126
-359.625	-200.000	-0.009	-0.086
-358.610	-122.689	-0.285	0.046
-357.596	256.559	-0.085	-0.146
-356.581	-168.284	0.213	0.008
-355.566	-200.000	0.038	-0.235
-354.552	704.582	-0.039	0.103
-353.537	-56.890	0.184	-0.081
-352.523	13.182	-0.241	-0.186
-351.508	-40.681	-0.252	-0.130
-350.493	512.338	-0.135	0.313
-349.479	322.521	0.019	0.036
-348.464	-3.990	0.250	-0.173
-347.450	396.570	-0.166	0.346
-346.435	395.755	-0.052	-0.109
-345.420	87.492	0.218	0.240
-344.406	-49.273	-0.095	-0.045
-343.391	-20.244	-0.121	-0.074
-342.377	800.000	0.052	0.171
-341.362	65.278	0.195	0.197
-340.348	-195.742	0.098	-0.001
-339.333	800.000	-0.076	0.247
-338.318	-200.000	0.009	0.236
-337.304	70.660	0.183	0.189
-336.289	-200.000	0.014	0.162
-335.275	63.701	-0.168	0.168
-334.260	139.694	-0.080	-0.105
-333.245	-24.707	0.225	-0.133
-332.231	50.193	0.213	0.201
-331.216	-102.178	-0.283	0.068
-330.202	-200.000	-0.005	0.271
-329.187	210.269	0.028	0.044
-328.172	61.309	0.098	-0.097
-327.158	-200.000	-0.008	-0.137
-326.143	237.479	-0.129	-0.213
-325.129	-48.684	0.265	0.127
-324.114	156.239	-0.209	0.287
-323.099	-37.477	-0.065	0.034
-322.085	470.938	0.091	0.203
-321.070	80.433	0.187	0.201
-320.056	204.325	0.124	0.192
-319.041	-153.113	0.131	0.009
-318.026	227.807	-0.048	0.078
-317.012	-200.000	-0.004	0.027
-315.997	782.453	-0.089	-0.243
-314.983	367.776	-0.109	-0.219
-313.968	-84.072	0.158	0.050
-312.953	24.690	-0.291	0.240
-311.939	800.000	-0.081	0.233
-310.924	-159.033	0.494	-0.028
-309.910	-58.063	-0.208	-0.090
-308.895	-99.541	0.412	-0.103
-307.880	800.000	0.040	-0.154
-306.866	800.000	0.053	0.148
-305.851	-200.000	0.009	-0.316
-304.837	798.850	-0.014	-0.037
-303.822	-95.687	-0.301	-0.080
-302.807	-23.782	-0.321	-0.191
-301.793	177.498	0.154	0.224
-300.778	-34.651	-0.225	0.123
-299.764	-79.402	0.218	0.073
-298.749	-185.230	-0.186	-0.003
-297.735	80.840	0.231	-0.248
-296.720	-147.412	-0.050	-0.004
-295.705	-200.000	-0.013	0.137
-294.691	-200.000	-0.013	0.071
-293.676	-94.916	-0.389	-0.105
-292.662	-76.037	-0.108	-0.038
-291.647	-54.634	-0.267	-0.120
-290.632	-94.518	-0.249	-0.067
-289.618	17.460	0.125	0.099
-288.603	-53.585	0.108	-0.049
-287.589	-200.000	0.020	-0.119
-286.574	-200.000	0.033	-0.180
-285.559	800.000	-0.016	-0.055
-284.545	-200.000	-0.065	-0.307
-283.530	800.000	0.042	-0.145
-282.516	-121.934	-0.337	0.055
-281.501	538.932	-0.066	0.156
-280.486	137.956	-0.167	0.218
-279.472	-200.000	-0.065	-0.298
-278.457	-141.245	0.372	0.038
-277.443	800.000	0.058	0.242
-276.428	705.595	-0.092	0.242
-275.413	800.000	0.079	-0.284
-274.399	757.039	-0.071	-0.191
-273.384	1.031	-0.315	-0.224
-272.370	313.735	-0.080	0.150
-271.355	692.424	0.168	0.437
-270.340	-83.946	-0.214	-0.067
-269.326	-13.155	-0.250	-0.161
-268.311	-82.286	-0.170	0.055
-267.297	-57.201	0.217	0.095
-266.282	13.898	-0.131	0.101
-265.267	800.000	0.094	-0.357
-264.253	-200.000	-0.010	0.169
-263.238	41.765	-0.084	0.075
-262.224	56.643	0.238	-0.230
-261.209	-19.620	0.177	0.109
-260.195	591.735	-0.078	-0.191
-259.180	35.427	-0.031	0.027
-258.165	626.947	0.106	0.267
-257.151	800.000	-0.064	-0.186
-256.136	-7.555	0.199	-0.134
-255.122	800.000	0.085	-0.254
-254.107	-37.755	0.153	-0.081
-253.092	-58.447	0.169	0.073
-252.078	61.276	0.222	0.219
-251.063	-200.000	0.018	-0.115
-250.049	-200.000	0.065	0.324
-249.034	135.455	-0.090	0.116
-248.019	-200.000	0.080	0.391
-247.005	180.687	-0.064	-0.093
-245.990	-200.000	0.013	0.315
-244.976	3.282	-0.255	-0.184
-243.961	-77.884	0.253	-0.087
-242.946	-99.055	-0.389	0.098
-241.932	-63.264	0.127	-0.052
-240.917	-200.000	0.047	-0.266
-239.903	462.251	0.055	-0.122
-238.888	-50.703	0.283	0.132
-237.873	484.921	0.050	0.113
-236.859	-131.449	0.186	-0.024
-235.844	800.000	0.156	0.472
-234.830	-114.416	0.124	0.024
-233.815	204.534	0.162	0.250
-232.800	618.662	-0.080	0.199
-231.786	284.225	0.039	-0.070
-230.771	-200.000	0.020	-0.164
-229.757	133.344	0.257	0.330
-228.742	38.321	0.327	0.289
-227.727	-132.559	0.128	0.016
-226.713	369.796	-0.110	0.220
-225.698	167.635	-0.320	0.451
-224.684	-130.537	-0.425	-0.057
-223.669	-74.804	0.094	-0.033
-222.655	-60.625	0.344	0.145
-221.640	-200.000	0.013	0.318
-220.625	-119.162	0.201	0.035
-219.611	637.906	-0.167	0.420
-218.596	-47.527	0.017	-0.008
-217.582	3.817	-0.128	0.093
-216.567	-66.048	-0.128	0.051
-215.552	-97.063	0.175	-0.045
-214.538	32.691	-0.323	0.277
-213.523	180.003	-0.143	0.208
-212.509	55.882	-0.156	-0.150
-211.494	800.000	0.062	-0.206
-210.479	-200.000	0.001	0.081
-209.465	-200.000	-0.007	-0.187
-208.450	-139.012	0.355	-0.038
-207.436	-82.731	0.355	-0.114
-206.421	-200.000	0.012	-0.136
-205.406	-108.442	0.452	-0.096
-204.392	58.257	-0.082	-0.079
-203.377	-40.582	-0.237	0.122
-202.363	-141.499	0.333	0.033
-201.348	459.338	-0.137	-0.301
-200.333	-49.828	0.121	-0.057
-199.319	148.461	0.165	-0.220
-198.304	12.199	-0.256	0.195
-197.290	367.081	-0.110	-0.220
-196.275	-34.770	-0.031	-0.017
-195.260	24.820	0.114	-0.094
-194.246	423.360	-0.126	0.269
-193.231	16.119	-0.163	0.127
-192.217	117.425	-0.052	0.063
-191.202	33.182	0.234	-0.201
-190.187	-31.475	0.185	-0.103
-189.173	51.981	-0.276	0.261
-188.158	-43.828	-0.199	0.099
-187.144	-158.523	0.110	-0.006
-186.129	-69.918	-0.278	-0.105
-185.114	800.000	0.064	0.179
-184.100	240.177	0.040	0.066
-183.085	124.531	0.063	0.079
-182.071	-98.539	0.276	0.070
-181.056	-143.445	0.238	-0.022
-180.042	26.521	-0.290	-0.240
-179.027	-135.007	0.240	0.029
-178.012	-84.102	-0.141	-0.044
-176.998	-0.675	-0.196	0.137
-175.983	-60.868	0.319	0.133
-174.969	-200.000	-0.096	-0.465
-173.954	-14.035	-0.337	0.215
-172.939	577.472	0.090	-0.219
-171.925	-134.916	0.083	-0.010
-170.910	94.844	-0.086	-0.097
-169.896	-96.875	0.287	-0.075
-168.881	223.308	-0.016	-0.026
-167.866	-200.000	0.006	-0.123
-166.852	-67.168	0.225	0.088
-165.837	-2.939	-0.290	0.200
-164.823	69.106	-0.191	-0.195
-163.808	171.066	0.152	-0.216
-162.793	436.622	0.122	0.263
-161.779	328.305	0.033	-0.063
-160.764	164.655	-0.167	0.232
-159.750	-200.000	0.010	-0.304
-158.735	72.727	-0.217	0.224
-157.720	-71.919	0.280	-0.103
-156.706	-200.000	0.025	-0.286
-155.691	800.000	0.029	0.085
-154.677	-55.049	0.365	-0.163
-153.662	-7.469	0.162	-0.109
-152.647	-107.069	-0.020	-0.004
-151.633	272.980	-0.246	-0.429
-150.618	83.789	-0.144	0.155
-149.604	-200.000	-0.026	0.127
-148.589	56.843	0.103	-0.099
-147.574	-200.000	-0.003	0.128
-146.560	-119.211	-0.228	-0.039
-145.545	800.000	0.040	0.137
-144.531	-12.394	0.241	0.156
-143.516	660.153	0.032	0.081
-142.502	148.739	-0.056	0.075
-141.487	6.202	0.225	0.165
-140.472	800.000	-0.008	-0.032
-139.458	450.166	0.183	-0.400
-138.443	602.823	-0.116	0.286
-137.429	-122.499	0.284	0.046
-136.414	-200.000	-0.035	-0.244
-135.399	800.000	-0.063	0.263
-134.385	13.113	-0.207	0.158
-133.370	-73.320	0.197	0.071
-132.356	-46.887	-0.131	0.063
-131.341	800.000	0.095	0.298
-130.326	-31.775	-0.241	-0.133
-129.312	-138.557	0.086	-0.009
-128.297	-44.765	0.139	-0.069
-127.283	-200.000	-0.020	-0.155
-126.268	-76.328	-0.264	-0.092
-125.253	-113.539	-0.301	0.058
-124.239	-166.750	-0.072	0.003
-123.224	-166.343	-0.239	-0.010
-122.210	-118.048	0.103	-0.018
-121.195	619.543	0.053	0.132
-120.180	-153.682	0.192	0.013
-119.166	251.539	-0.150	-0.253
-118.151	205.548	0.075	0.115
-117.137	-200.000	0.037	0.521
-116.122	-200.000	0.016	0.320
-115.107	-200.000	0.014	0.108
-114.093	-68.227	0.370	-0.142
-113.078	-46.366	0.171	-0.083
-112.064	517.982	-0.016	0.038
-111.049	-13.969	-0.291	0.186
-110.034	23.532	0.169	0.138
-109.020	-147.402	0.144	0.012
-108.005	-95.198	0.120	0.032
-106.991	-180.122	0.272	0.006
-105.976	-200.000	0.023	0.237
-104.962	70.605	0.173	0.176
-103.947	-93.012	-0.324	-0.089
-102.932	-113.964	-0.235	0.045
-101.918	-163.355	-0.417	-0.020
-100.903	-86.244	0.076	0.023
-99.889	-200.000	-0.013	0.253
-98.874	-58.598	0.241	0.103
-97.859	-49.048	-0.230	-0.109
-96.845	-90.404	-0.087	0.025
-95.830	-200.000	0.001	-0.471
-94.816	72.116	-0.187	-0.192
-93.801	-200.000	-0.024	0.164
-92.786	43.477	0.084	0.076
-91.772	-24.826	-0.203	-0.119
-90.757	-9.936	-0.154	-0.101
-89.743	-127.572	0.293	-0.042
-88.728	-110.739	-0.162	0.033
-87.713	158.025	-0.039	0.054
-86.699	-200.000	0.212	-0.000
-85.684	-161.385	-0.206	0.011
-84.670	67.297	-0.056	-0.057
-83.655	45.279	0.109	0.099
-82.640	12.821	-0.143	0.109
-81.626	262.789	-0.178	-0.304
-80.611	92.024	-0.290	0.323
-79.597	-40.722	-0.152	-0.077
-78.582	-200.000	-0.076	-0.334
-77.567	-200.000	-0.151	0.000
-76.553	-200.000	-0.006	0.174
-75.538	732.886	-0.066	0.173
-74.524	-74.089	-0.330	-0.118
-73.509	800.000	0.130	-0.401
-72.494	-97.817	-0.285	0.073
-71.480	81.366	0.090	0.096
-70.465	183.116	-0.203	-0.296
-69.451	-108.061	0.242	0.052
-68.436	120.892	0.023	-0.028
-67.422	-200.000	0.009	-0.078
-66.407	-200.000	0.016	-0.070
-65.392	227.600	-0.256	0.410
-64.378	49.925	0.082	-0.076
-63.363	-161.197	-0.277	0.014
-62.349	27.105	-0.062	0.051
-61.334	168.059	-0.746	-1.046
-60.319	172.300	0.305	0.432
-59.305	800.000	-0.306	-0.945
-58.290	800.000	0.327	1.157
-57.276	800.000	0.501	1.567
-56.261	-200.000	96.045	554.325
-55.246	514.582	1415.491	3254.723
-54.232	143.290	2663.847	3492.867
-53.217	104.782	2359.130	2739.547
-52.203	43.792	1962.482	1770.053
-51.188	37.425	1746.334	1525.283
-50.173	34.747	1700.289	1464.514
-49.159	50.876	1748.657	1631.920
-48.144	53.850	1766.402	1671.530
-47.130	37.145	1722.335	1501.918
-46.115	34.363	1707.591	1467.612
-45.100	34.226	1702.185	1461.856
-44.086	34.189	1699.271	1459.014
-43.071	34.164	1696.825	1456.662
-42.057	34.173	1694.115	1454.347
-41.042	34.181	1692.150	1452.663
-40.027	34.130	1690.590	1450.879
-39.013	34.168	1688.188	1449.048
-37.998	34.155	1686.234	1447.219
-36.984	34.205	1685.208	1446.659
-35.969	34.308	1683.802	1446.174
-34.954	34.290	1681.779	1444.246
-33.940	34.307	1679.861	1442.669
-32.925	34.197	1677.676	1439.904
-31.911	34.291	1676.638	1439.662
-30.896	34.268	1674.691	1437.763
-29.881	34.314	1672.875	1436.496
-28.867	34.236	1671.499	1434.664
-27.852	34.300	1669.659	1433.516
-26.838	34.319	1668.140	1432.295
-25.823	34.203	1667.394	1430.723
-24.809	34.298	1665.400	1429.673
-23.794	34.356	1664.093	1428.929
-22.779	34.388	1662.266	1427.539
-21.765	34.345	1660.770	1425.881
-20.750	34.320	1658.880	1424.009
-19.736	34.296	1657.684	1422.748
-18.721	34.417	1656.021	1422.172
-17.706	34.375	1653.925	1419.998
-16.692	34.308	1652.813	1418.491
-15.677	34.332	1651.245	1417.263
-14.663	34.349	1649.804	1416.096
-13.648	34.363	1648.608	1415.123
-12.633	34.240	1647.091	1412.851
-11.619	34.386	1645.391	1412.419
-10.604	34.334	1643.982	1410.764
-9.590	34.430	1642.396	1410.060
-8.575	34.405	1641.118	1408.719
-7.560	34.224	1640.192	1406.531
-6.546	34.324	1638.791	1406.012
-5.531	34.290	1637.580	1404.672
-4.517	34.428	1635.742	1404.056
-3.502	34.321	1635.509	1403.013
-2.487	34.439	1634.002	1402.532
-1.473	34.503	1622.956	1393.459
-0.458	32.535	1603.901	1362.820
0.556	27.760	1602.957	1326.254
1.571	24.592	1625.848	1321.675
2.586	23.340	1638.756	1322.712
3.600	20.495	1583.958	1257.807
4.615	11.351	1468.428	1104.323
5.629	2.932	1399.606	997.959
6.644	1.285	1390.302	980.600
7.659	1.119	1388.902	978.454
8.673	1.100	1388.546	977.994
9.688	1.107	1386.163	976.273
10.702	0.819	1383.402	972.390
11.717	4.046	1388.964	997.019
12.731	11.875	1400.820	1056.112
13.746	16.829	1407.173	1092.834
14.761	17.415	1407.345	1096.648
15.775	16.959	1405.010	1091.802
16.790	15.862	1402.842	1082.967
17.804	15.183	1399.955	1076.281
18.819	14.667	1398.912	1072.071
19.834	14.403	1397.286	1069.035
20.848	14.151	1395.869	1066.240
21.863	13.825	1394.728	1063.185
22.877	13.629	1393.337	1060.780
23.892	13.536	1392.746	1059.639
24.907	13.639	1391.595	1059.326
25.921	13.686	1390.678	1058.835
26.936	13.637	1389.706	1057.690
27.950	13.752	1388.548	1057.446
28.965	13.765	1388.415	1057.335
29.980	13.740	1387.074	1056.061
30.994	13.800	1386.251	1055.727
32.009	13.794	1385.352	1054.911
33.023	13.945	1383.946	1054.701
34.038	13.908	1382.572	1053.331
35.053	13.811	1381.738	1051.984
36.067	13.908	1380.300	1051.414
37.082	13.813	1379.583	1050.171
38.096	13.872	1378.500	1049.625
39.111	13.881	1377.937	1049.164
40.126	13.764	1377.332	1047.868
41.140	13.712	1376.831	1047.066
42.155	13.750	1376.001	1046.584
43.169	13.698	1376.287	1046.381
44.184	13.817	1375.125	1046.152
45.199	13.679	1375.219	1045.263
46.213	13.721	1374.703	1045.045
47.228	13.840	1373.077	1044.463
48.242	13.810	1372.042	1043.392
49.257	13.915	1370.601	1042.867
50.271	13.784	1369.090	1040.802
51.286	13.801	1367.984	1039.979
52.301	13.785	1366.721	1038.827
53.315	13.680	1365.831	1037.399
54.330	13.731	1364.940	1036.947
55.344	13.758	1363.093	1035.621
56.359	13.694	1362.290	1034.520
57.374	13.623	1361.677	1033.521
58.388	13.629	1360.303	1032.426
59.403	13.571	1360.488	1032.113
60.417	13.648	1359.395	1031.671
61.432	13.649	1358.537	1030.933
62.447	13.682	1357.238	1030.062
63.461	13.568	1356.602	1028.778
64.476	13.669	1355.339	1028.359
65.490	13.682	1353.625	1027.048
66.505	13.612	1352.404	1025.601
67.520	13.604	1351.268	1024.595
68.534	13.615	1350.192	1023.757
69.549	13.637	1349.121	1022.992
70.563	13.615	1348.252	1022.102
71.578	13.697	1346.342	1021.069
72.593	13.634	1345.807	1020.189
73.607	13.580	1345.130	1019.254
74.622	13.536	1344.471	1018.394
75.636	13.567	1343.632	1017.856
76.651	13.563	1342.851	1017.149
77.666	13.490	1342.311	1016.202
78.680	13.533	1341.799	1015.993
79.695	13.479	1340.568	1014.640
80.709	13.668	1339.832	1015.148
81.724	13.554	1339.492	1014.101
82.739	13.705	1337.889	1013.722
83.753	13.725	1337.180	1013.218
84.768	13.784	1335.590	1012.285
85.782	13.864	1334.272	1011.684
86.797	13.674	1333.357	1009.744
87.812	13.640	1332.344	1008.680
88.826	13.669	1331.091	1007.820
89.841	13.674	1329.697	1006.702
90.855	13.763	1328.947	1006.585
91.870	13.709	1328.074	1005.506
92.884	13.803	1326.852	1005.066
93.899	13.783	1326.762	1004.783
94.914	13.842	1325.359	1003.988
95.928	13.879	1324.457	1003.444
96.943	13.796	1323.730	1002.299
97.957	13.746	1322.979	1001.342
98.972	13.734	1321.650	1000.177
99.987	13.808	1320.370	999.561
101.001	13.784	1319.608	998.752
102.016	13.756	1318.571	997.711
103.030	13.810	1317.452	997.100
104.045	13.739	1316.944	996.202
105.060	13.746	1315.337	994.939
106.074	13.744	1314.518	994.224
107.089	13.774	1313.050	993.202
108.103	13.751	1311.532	991.827
109.118	13.739	1310.216	990.677
110.133	13.692	1309.183	989.526
111.147	13.618	1307.885	988.017
112.162	13.747	1306.237	987.449
113.176	13.860	1304.876	987.005
114.191	13.796	1304.440	986.213
115.206	13.706	1303.194	984.645
116.220	13.747	1302.023	983.918
117.235	13.730	1300.880	982.868
118.249	13.802	1299.913	982.477
119.264	13.699	1299.225	981.259
120.279	13.661	1298.179	980.154
121.293	13.688	1296.981	979.327
122.308	13.782	1295.799	978.899
123.322	13.739	1294.297	977.428
124.337	13.626	1294.120	976.538
125.352	13.676	1292.505	975.529
126.366	13.651	1291.377	974.443
127.381	13.730	1290.226	973.954
128.395	13.706	1289.159	972.922
129.410	13.670	1288.505	972.128
130.424	13.816	1287.411	972.074
131.439	13.738	1286.748	971.028
132.454	13.767	1285.539	970.201
133.468	13.780	1284.864	969.681
134.483	13.786	1283.862	968.879
135.497	13.775	1282.890	967.994
136.512	13.742	1281.602	966.741
137.527	13.799	1279.888	965.698
138.541	13.791	1278.387	964.429
139.556	13.756	1277.303	963.326
140.570	13.947	1275.747	963.176
141.585	13.947	1274.846	962.410
142.600	13.908	1273.789	961.303
143.614	13.902	1273.246	960.768
144.629	13.965	1271.799	959.958
145.643	13.934	1270.607	958.792
146.658	13.905	1269.074	957.385
147.673	13.797	1268.287	956.083
148.687	13.862	1267.066	955.454
149.702	13.831	1265.842	954.267
150.716	13.919	1264.049	953.335
151.731	13.775	1263.563	952.062
152.746	13.863	1261.718	951.088
153.760	13.921	1260.573	950.474
154.775	13.946	1259.737	949.900
155.789	13.921	1258.260	948.563
156.804	13.959	1257.505	948.128
157.819	13.960	1256.295	947.137
158.833	14.036	1255.087	946.574
159.848	14.029	1254.130	945.731
160.862	14.051	1253.254	945.112
161.877	13.975	1251.745	943.457
162.892	13.984	1250.827	942.730
163.906	14.001	1249.933	942.071
164.921	13.900	1249.459	941.058
165.935	13.911	1248.284	940.152
166.950	13.966	1247.466	939.767
167.964	14.117	1246.769	940.008
168.979	14.147	1246.124	939.610
169.994	14.018	1245.321	938.195
171.008	14.044	1244.590	937.707
172.023	14.151	1243.692	937.549
173.037	14.127	1242.617	936.519
174.052	14.161	1241.757	935.980
175.067	14.137	1240.976	935.175
176.081	14.092	1240.367	934.381
177.096	14.044	1239.036	933.023
178.110	14.179	1237.904	932.850
179.125	14.198	1236.262	931.635
180.140	14.194	1235.189	930.723
181.154	14.186	1234.124	929.789
182.169	14.253	1232.518	928.873
183.183	14.252	1231.701	928.170
184.198	14.343	1230.413	927.621
185.213	14.257	1229.501	926.374
186.227	14.287	1228.380	925.614
187.242	14.347	1227.466	925.176
188.256	14.357	1226.522	924.442
189.271	14.311	1225.555	923.373
190.286	14.295	1224.261	922.227
191.300	14.195	1223.700	921.172
192.315	14.222	1223.097	920.788
193.329	14.178	1222.458	919.979
194.344	14.240	1222.035	919.923
195.359	14.314	1220.961	919.441
196.373	14.285	1220.906	919.159
197.388	14.306	1220.306	918.740
198.402	14.362	1219.550	918.401
199.417	14.510	1218.738	918.524
200.432	14.535	1217.884	917.933
201.446	14.621	1216.308	917.139
202.461	14.553	1216.157	916.568
203.475	14.532	1215.306	915.733
204.490	14.635	1213.813	915.091
205.504	14.544	1212.656	913.640
206.519	14.554	1211.744	912.923
207.534	14.465	1210.627	911.517
208.548	14.568	1209.310	911.007
209.563	14.525	1209.097	910.529
210.577	14.577	1208.109	909.991
211.592	14.601	1207.244	909.390
212.607	14.596	1206.391	908.638
213.621	14.593	1205.480	907.858
214.636	14.607	1204.427	907.058
215.650	14.705	1203.996	907.185
216.665	14.662	1202.731	905.918
217.680	14.771	1201.394	905.422
218.694	14.693	1201.020	904.641
219.709	14.663	1200.341	903.886
220.723	14.782	1199.318	903.677
221.738	14.849	1198.546	903.380
222.753	14.727	1197.941	902.184
223.767	14.956	1197.269	902.836
224.782	14.833	1196.447	901.471
225.796	14.956	1195.594	901.411
226.811	14.926	1194.938	900.678
227.826	14.929	1194.153	900.021
228.840	14.885	1193.664	899.334
229.855	14.847	1192.870	898.454
230.869	14.911	1191.784	897.897
231.884	14.913	1190.803	897.093
232.899	14.825	1189.997	895.934
233.913	14.806	1189.743	895.559
234.928	14.863	1188.760	895.046
235.942	14.977	1187.569	894.682
236.957	14.894	1187.157	893.849
237.972	14.804	1186.769	892.996
238.986	14.821	1185.905	892.355
240.001	14.997	1185.528	892.932
241.015	14.815	1184.636	891.213
242.030	15.020	1183.701	891.524
243.045	14.997	1182.634	890.517
244.059	15.075	1181.592	890.070
245.074	15.096	1180.741	889.461
246.088	15.102	1179.835	888.733
247.103	15.117	1179.289	888.323
248.117	15.237	1178.649	888.394
249.132	15.225	1177.505	887.392
250.147	15.156	1177.558	886.985
251.161	15.204	1176.494	886.359
252.176	15.314	1175.494	886.112
253.190	15.360	1174.989	885.893
254.205	15.281	1174.287	884.871
255.220	15.287	1173.754	884.420
256.234	15.370	1173.254	884.405
257.249	15.298	1172.545	883.411
258.263	15.421	1171.644	883.304
259.278	15.582	1170.378	883.118
260.293	15.418	1170.370	882.171
261.307	15.505	1169.914	882.204
262.322	15.424	1169.036	881.042
263.336	15.466	1168.288	880.621
264.351	15.475	1168.105	880.450
265.366	15.535	1167.228	880.027
266.380	15.565	1166.257	879.375
267.395	15.507	1165.389	878.335
268.409	15.470	1164.964	877.744
269.424	15.446	1164.185	876.957
270.439	15.529	1163.476	876.779
271.453	15.601	1163.008	876.722
272.468	15.473	1162.171	875.345
273.482	15.499	1161.353	874.787
274.497	15.573	1160.891	874.748
275.512	15.590	1160.289	874.307
276.526	15.572	1159.316	873.403
277.541	15.531	1158.680	872.635
278.555	15.608	1157.633	872.168
279.570	15.701	1157.233	872.272
280.585	15.680	1156.378	871.441
281.599	15.651	1155.514	870.560
282.614	15.693	1154.858	870.210
283.628	15.670	1153.433	868.938
284.643	15.745	1152.368	868.449
285.657	15.751	1151.475	867.725
286.672	15.768	1150.690	867.149
287.687	15.805	1149.817	866.603
288.701	15.734	1149.005	865.548
289.716	15.741	1148.575	865.184
290.730	15.933	1147.459	865.254
291.745	15.897	1147.083	864.711
292.760	15.820	1146.524	863.818
293.774	15.944	1145.539	863.632
294.789	15.995	1144.980	863.397
295.803	16.021	1144.370	862.991
296.818	16.000	1143.714	862.313
297.833	15.874	1142.630	860.777
298.847	15.939	1141.879	860.464
299.862	15.966	1140.909	859.798
300.876	15.995	1140.390	859.476
301.891	15.966	1140.082	859.022
302.906	16.120	1139.079	858.973
303.920	15.988	1138.779	858.000
304.935	16.153	1137.450	857.763
305.949	16.274	1136.457	857.555
306.964	16.280	1136.033	857.187
307.979	16.200	1135.306	856.159
308.993	16.169	1134.825	855.560
310.008	16.212	1133.991	855.074
311.022	16.212	1133.068	854.301
312.037	16.159	1132.492	853.527
313.052	16.147	1131.442	852.597
314.066	16.167	1130.580	851.975
315.081	16.287	1129.691	851.835
316.095	16.119	1129.203	850.545
317.110	16.225	1128.390	850.388
318.125	16.244	1127.316	849.603
319.139	16.162	1126.864	848.774
320.154	16.213	1126.045	848.336
321.168	16.272	1125.904	848.451
322.183	16.198	1125.209	847.480
323.197	16.283	1124.330	847.169
324.212	16.241	1123.905	846.567
325.227	16.278	1123.223	846.163
326.241	16.356	1122.387	845.848
327.256	16.358	1121.331	844.989
328.270	16.348	1120.730	844.408
329.285	16.462	1119.347	843.864
330.300	16.292	1118.781	842.513
331.314	16.412	1117.781	842.285
332.329	16.420	1116.620	841.372
333.343	16.261	1116.024	840.058
334.358	16.421	1115.319	840.250
335.373	16.410	1114.838	839.758
336.387	16.417	1114.064	839.134
337.402	16.454	1112.749	838.255
338.416	16.509	1112.361	838.162
339.431	16.547	1111.671	837.755
340.446	16.569	1111.410	837.592
341.460	16.711	1110.156	837.277
342.475	16.620	1109.590	836.323
343.489	16.690	1108.436	835.727
344.504	16.686	1107.596	835.001
345.519	16.779	1106.462	834.527
346.533	16.752	1105.434	833.547
347.548	16.635	1105.061	832.614
348.562	16.740	1104.315	832.494
349.577	16.714	1103.314	831.541
350.592	16.724	1102.941	831.233
351.606	16.618	1102.517	830.323
352.621	16.721	1101.687	830.130
353.635	16.643	1101.150	829.266
354.650	16.666	1100.230	828.614
355.665	16.827	1099.368	828.679
356.679	16.717	1098.886	827.706
357.694	16.713	1098.213	827.105
358.708	16.759	1097.218	826.510
359.723	16.982	1096.648	827.093
360.738	16.921	1095.677	825.989
361.752	16.926	1095.528	825.827
362.767	16.803	1095.334	825.011
363.781	16.793	1094.807	824.490
364.796	16.909	1093.876	824.283
365.810	17.097	1092.962	824.433
366.825	16.940	1092.572	823.302
367.840	17.025	1091.920	823.154
368.854	16.936	1091.591	822.398
369.869	17.052	1090.489	822.056
370.883	16.981	1089.531	820.918
371.898	16.893	1089.247	820.208
372.913	17.022	1088.632	820.295
373.927	17.182	1088.002	820.520
374.942	17.157	1087.279	819.782
375.956	17.234	1086.361	819.387
376.971	17.070	1085.979	818.237
377.986	17.156	1085.521	818.236
379.000	17.205	1085.202	818.159
380.015	17.305	1084.220	817.824
381.029	17.239	1083.559	816.937
382.044	17.313	1082.801	816.649
383.059	17.342	1082.073	816.166
384.073	17.234	1081.659	815.264
385.088	17.206	1080.704	814.339
386.102	17.332	1079.901	814.266
387.117	17.374	1078.680	813.474
388.132	17.392	1077.676	812.732
389.146	17.292	1076.964	811.643
390.161	17.285	1076.420	811.131
391.175	17.346	1075.925	810.976
392.190	17.399	1075.225	810.630
393.205	17.508	1074.175	810.286
394.219	17.408	1073.638	809.329
395.234	17.295	1072.979	808.226
396.248	17.375	1071.794	807.643
397.263	17.375	1070.329	806.464
398.278	17.422	1069.765	806.191
399.292	17.416	1069.055	805.557
400.307	17.417	1068.184	804.834
401.321	17.402	1067.941	804.510
402.336	17.562	1066.986	804.477
403.350	17.476	1066.443	803.589
404.365	17.403	1065.855	802.727
405.380	17.585	1064.558	802.538
406.394	17.662	1063.860	802.302
407.409	17.584	1063.053	801.256
408.423	17.648	1062.547	801.108
409.438	17.716	1061.411	800.500
410.453	17.619	1061.320	799.905
411.467	17.745	1060.473	799.784
412.482	17.719	1060.089	799.304
413.496	17.826	1059.069	798.964
414.511	17.804	1058.768	798.564
415.526	17.777	1058.094	797.858
416.540	17.791	1057.771	797.609
417.555	17.673	1057.460	796.751
418.569	17.836	1056.704	796.873
419.584	17.911	1056.112	796.707
420.599	17.832	1055.690	795.951
421.613	99.951	1316.720	1444.816
422.628	92.177	1354.735	1444.920
