DTS Sentinel unit serial number:	SN413079Multiplexer serial number:	ORYXHardware model number:	OX4-SRSoftware version number:	ORYX F/W v4.00 Oryx Data Collector v3.7.2.0data status	okinstallation	princeton_trtdifferential loss correction	single-endedforward channel	channel 2reverse channel	N/Adate	2019/09/12time	05:01:11forward acquisition time	60.00reverse acquisition time	0.00gamma	496.2192k internal	0.2326k external	0.2326temperature offset calibration	1.0072default loss term (dB/km)	0.3790temperature slope calibration	1.0000multiplexer offset coefficient	1.0000multiplexer slope coefficient	1.0000fibre end	0.00T internal ref (°C)	31.75T ext. ref 1 (°C)	1.74T ext. ref 2 (°C)	26.98length (m)	temperature (°C)	Stokes	anti-Stokes-747.200	580.925	0.064	0.159
-746.185	227.268	-0.172	0.282
-745.171	213.199	-0.103	-0.164
-744.156	190.220	0.231	0.350
-743.142	550.845	0.038	0.092
-742.127	800.000	0.127	0.444
-741.112	-200.000	-0.010	0.164
-740.098	43.263	-0.317	0.292
-739.083	-47.436	0.398	0.195
-738.069	-200.000	-0.045	0.213
-737.054	-151.432	0.115	-0.009
-736.039	201.070	-0.280	-0.435
-735.025	3.589	0.280	0.206
-734.010	800.000	0.017	0.050
-732.996	800.000	-0.085	0.342
-731.981	348.174	0.164	0.327
-730.966	-69.003	-0.369	-0.144
-729.952	58.270	-0.102	0.101
-728.937	-104.664	0.233	-0.054
-727.923	295.097	-0.142	-0.262
-726.908	-200.000	-0.038	-0.194
-725.894	-17.696	-0.294	-0.186
-724.879	252.138	-0.066	0.114
-723.864	-200.000	-0.002	0.179
-722.850	-82.965	-0.243	-0.079
-721.835	-104.280	0.427	-0.100
-720.821	-29.893	-0.185	-0.106
-719.806	-77.699	0.071	0.025
-718.791	-125.105	-0.138	-0.021
-717.777	42.291	0.395	-0.362
-716.762	109.143	0.157	0.189
-715.748	-83.131	-0.151	0.049
-714.733	-145.588	0.322	-0.029
-713.718	671.149	0.090	-0.235
-712.704	144.097	-0.129	-0.173
-711.689	44.874	-0.053	0.049
-710.675	262.084	-0.141	-0.246
-709.660	144.168	-0.056	-0.075
-708.645	181.047	0.134	0.198
-707.631	-200.000	-0.000	-0.177
-706.616	-21.756	-0.241	-0.148
-705.602	58.778	-0.142	-0.140
-704.587	788.069	-0.024	-0.068
-703.572	43.681	-0.194	-0.179
-702.558	-151.381	0.291	-0.022
-701.543	-30.918	-0.156	0.089
-700.529	-200.000	-0.017	-0.295
-699.514	-86.272	-0.388	-0.120
-698.499	-200.000	-0.021	0.101
-697.485	284.309	-0.049	0.088
-696.470	-153.144	-0.328	-0.023
-695.456	800.000	0.015	-0.052
-694.441	-90.043	0.168	-0.049
-693.426	78.771	-0.201	-0.216
-692.412	148.158	-0.202	0.275
-691.397	111.070	-0.314	0.380
-690.383	-200.000	-0.022	-0.255
-689.368	800.000	-0.069	-0.205
-688.354	99.397	-0.110	0.128
-687.339	-167.043	-0.455	-0.019
-686.324	-150.570	0.233	0.018
-685.310	-116.337	-0.203	0.038
-684.295	281.458	-0.064	-0.115
-683.281	-200.000	-0.016	-0.264
-682.266	71.185	-0.154	-0.161
-681.251	-200.000	-0.013	0.064
-680.237	5.279	-0.106	0.078
-679.222	-200.000	0.004	0.156
-678.208	20.091	0.117	-0.095
-677.193	54.193	-0.259	-0.251
-676.178	264.856	0.239	-0.419
-675.164	169.130	-0.163	-0.233
-674.149	-81.902	-0.363	-0.119
-673.135	-200.000	0.024	-0.155
-672.120	215.694	0.113	-0.180
-671.105	-55.764	-0.104	-0.047
-670.091	800.000	-0.042	0.124
-669.076	27.858	0.148	-0.125
-668.062	56.481	-0.308	-0.301
-667.047	-113.401	0.131	0.026
-666.032	284.182	-0.152	0.274
-665.018	185.324	-0.002	0.003
-664.003	-100.342	-0.137	-0.034
-662.989	-3.959	-0.217	-0.151
-661.974	65.647	-0.114	-0.116
-660.959	-83.923	0.232	-0.074
-659.945	-129.872	-0.032	0.004
-658.930	244.416	-0.083	-0.141
-657.916	800.000	-0.103	0.286
-656.901	267.781	-0.207	-0.365
-655.886	-110.713	0.144	-0.030
-654.872	46.258	0.065	-0.060
-653.857	-88.505	0.092	-0.027
-652.843	252.522	0.079	0.135
-651.828	-93.494	-0.280	0.078
-650.814	56.973	-0.151	-0.148
-649.799	-195.734	-0.268	0.002
-648.784	-122.673	-0.160	0.026
-647.770	-82.529	0.147	0.048
-646.755	-173.002	0.067	0.002
-645.741	21.684	-0.280	0.229
-644.726	-69.576	-0.183	-0.070
-643.711	-47.444	-0.174	-0.085
-642.697	-114.883	-0.122	0.023
-641.682	800.000	-0.023	0.071
-640.668	-20.975	0.225	0.138
-639.653	800.000	0.081	-0.258
-638.638	-200.000	0.006	0.151
-637.624	-140.745	-0.130	0.014
-636.609	18.322	-0.213	-0.171
-635.595	648.275	-0.066	-0.168
-634.580	-13.724	0.152	0.099
-633.565	-136.774	0.138	-0.016
-632.551	-200.000	-0.036	-0.468
-631.536	-200.000	0.017	0.225
-630.522	-140.646	0.170	0.018
-629.507	143.144	0.031	-0.042
-628.492	-64.882	0.332	-0.135
-627.478	35.437	-0.175	-0.154
-626.463	18.081	-0.275	0.220
-625.449	-67.324	-0.271	-0.107
-624.434	-164.643	-0.147	0.007
-623.419	-96.823	0.237	-0.063
-622.405	-200.000	-0.020	-0.166
-621.390	-200.000	-0.015	0.197
-620.376	346.560	-0.235	0.463
-619.361	-200.000	0.033	-0.148
-618.346	-200.000	0.015	-0.420
-617.332	-200.000	-0.006	0.070
-616.317	101.140	-0.111	0.130
-615.303	-117.852	0.185	-0.033
-614.288	-91.861	-0.406	0.116
-613.273	-116.304	-0.350	-0.065
-612.259	-124.706	-0.078	-0.012
-611.244	-30.862	0.178	0.101
-610.230	-200.000	-0.018	0.177
-609.215	57.562	0.167	0.163
-608.201	-200.000	0.045	-0.308
-607.186	46.612	-0.198	-0.185
-606.171	-152.986	0.172	-0.012
-605.157	8.186	-0.022	-0.016
-604.142	800.000	0.044	-0.153
-603.128	85.340	-0.122	0.134
-602.113	-200.000	-0.001	-0.033
-601.098	-22.668	0.133	-0.081
-600.084	-16.656	-0.400	0.254
-599.069	455.470	0.043	0.096
-598.055	-147.983	-0.114	0.009
-597.040	-95.586	0.170	0.046
-596.025	-84.902	0.181	-0.057
-595.011	-6.557	-0.098	0.067
-593.996	-52.405	-0.107	0.050
-592.982	465.352	0.055	0.123
-591.967	-85.999	0.080	0.025
-590.952	800.000	-0.081	0.226
-589.938	-105.540	0.074	0.017
-588.923	14.730	0.141	0.111
-587.909	42.456	0.030	-0.027
-586.894	800.000	0.040	-0.115
-585.879	-150.323	0.175	0.013
-584.865	800.000	0.022	-0.090
-583.850	-200.000	0.005	-0.171
-582.836	-200.000	-0.003	0.092
-581.821	69.842	0.156	-0.161
-580.806	4.705	-0.340	-0.250
-579.792	94.533	0.281	-0.320
-578.777	-200.000	-0.000	-0.061
-577.763	10.985	-0.051	0.039
-576.748	612.603	-0.066	0.167
-575.733	-122.531	0.129	0.021
-574.719	-88.877	-0.211	-0.063
-573.704	-200.000	0.001	-0.186
-572.690	-200.000	-0.028	-0.189
-571.675	98.376	-0.242	-0.279
-570.661	-75.099	0.395	-0.142
-569.646	-45.215	-0.187	-0.093
-568.631	8.773	-0.296	-0.223
-567.617	170.488	0.058	0.084
-566.602	-155.093	-0.156	0.010
-565.588	800.000	-0.036	0.126
-564.573	-159.475	0.152	0.008
-563.558	-200.000	0.006	0.120
-562.544	-84.779	-0.193	0.061
-561.529	-96.112	0.211	-0.056
-560.515	56.503	-0.181	0.176
-559.500	128.655	0.201	0.256
-558.485	-86.828	0.047	0.014
-557.471	-131.689	-0.370	0.049
-556.456	47.416	-0.124	0.115
-555.442	4.152	0.165	-0.121
-554.427	76.723	-0.229	-0.243
-553.412	800.000	0.091	0.288
-552.398	382.453	0.174	-0.359
-551.383	800.000	-0.045	0.129
-550.369	-100.860	-0.151	0.037
-549.354	-105.235	0.375	0.086
-548.339	800.000	0.061	-0.262
-547.325	-200.000	0.086	0.418
-546.310	-22.166	0.136	0.083
-545.296	800.000	-0.082	-0.250
-544.281	592.850	0.041	-0.102
-543.266	16.764	0.290	-0.229
-542.252	-146.704	0.199	0.017
-541.237	-4.505	-0.154	-0.107
-540.223	28.025	-0.064	0.054
-539.208	-47.127	-0.364	0.178
-538.193	-51.486	0.037	-0.017
-537.179	111.107	-0.169	0.204
-536.164	-61.234	0.102	0.043
-535.150	-56.045	0.174	-0.077
-534.135	115.814	0.313	-0.383
-533.121	-110.511	-0.122	-0.025
-532.106	-200.000	-0.059	0.359
-531.091	800.000	-0.087	0.378
-530.077	-155.217	0.089	0.006
-529.062	800.000	0.027	0.092
-528.048	222.083	0.050	0.080
-527.033	800.000	-0.032	0.100
-526.018	681.876	0.048	-0.125
-525.004	-107.951	-0.354	0.077
-523.989	-200.000	0.010	-0.237
-522.975	61.499	0.241	-0.240
-521.960	800.000	-0.025	-0.075
-520.945	-200.000	-0.032	-0.146
-519.931	-127.108	-0.229	0.034
-518.916	-53.405	0.210	0.096
-517.902	-200.000	0.036	-0.229
-516.887	-200.000	-0.035	0.203
-515.872	-91.894	-0.305	-0.087
-514.858	584.630	-0.014	0.034
-513.843	35.073	-0.116	-0.101
-512.829	13.832	-0.112	0.087
-511.814	85.505	0.077	-0.085
-510.799	-200.000	0.023	-0.513
-509.785	-103.768	0.148	-0.035
-508.770	-123.818	0.076	0.012
-507.756	45.432	0.143	-0.132
-506.741	-153.380	-0.267	0.019
-505.726	43.071	-0.136	-0.124
-504.712	-24.577	0.155	-0.092
-503.697	144.394	-0.041	0.055
-502.683	28.459	-0.088	0.074
-501.668	-33.291	-0.242	0.134
-500.653	-138.395	0.090	0.010
-499.639	-144.985	-0.163	0.015
-498.624	72.071	-0.108	0.112
-497.610	166.625	0.209	0.296
-496.595	-126.116	0.206	-0.031
-495.581	340.255	0.123	-0.239
-494.566	-200.000	-0.023	0.136
-493.551	-72.679	-0.356	-0.131
-492.537	-200.000	0.047	0.206
-491.522	800.000	0.073	0.269
-490.508	-170.831	0.117	0.004
-489.493	-200.000	0.056	0.336
-488.478	-104.415	0.459	0.106
-487.464	-200.000	0.003	0.078
-486.449	-95.952	0.289	-0.077
-485.435	-200.000	0.016	0.297
-484.420	133.535	0.103	0.133
-483.405	-116.938	0.200	0.036
-482.391	-200.000	-0.022	-0.119
-481.376	800.000	-0.050	0.165
-480.362	260.229	0.162	-0.279
-479.347	305.631	-0.109	0.202
-478.332	-47.011	-0.141	-0.069
-477.318	800.000	-0.066	-0.208
-476.303	-200.000	-0.033	-0.195
-475.289	-82.242	0.315	0.102
-474.274	-90.419	-0.305	-0.088
-473.259	-85.370	0.082	0.026
-472.245	-151.689	0.210	-0.015
-471.230	-0.219	-0.150	-0.107
-470.216	800.000	-0.105	-0.302
-469.201	289.560	-0.068	0.123
-468.186	470.998	0.068	0.153
-467.172	0.592	0.127	0.090
-466.157	324.201	0.112	-0.213
-465.143	228.700	0.071	0.116
-464.128	114.244	0.088	0.107
-463.113	-200.000	0.028	0.161
-462.099	-200.000	0.006	-0.139
-461.084	-90.839	0.221	-0.063
-460.070	-200.000	0.068	-0.317
-459.055	-200.000	0.028	-0.203
-458.040	-89.165	0.238	-0.070
-457.026	196.063	-0.114	-0.173
-456.011	-163.793	0.140	-0.007
-454.997	-200.000	-0.008	0.067
-453.982	-11.105	0.153	-0.101
-452.968	-114.139	0.195	-0.038
-451.953	-141.376	0.238	-0.024
-450.938	57.740	-0.203	-0.198
-449.924	427.607	-0.141	-0.303
-448.909	-63.523	-0.204	0.084
-447.895	-36.909	-0.291	-0.156
-446.880	-6.462	-0.146	-0.099
-445.865	32.663	0.087	-0.075
-444.851	-107.303	-0.242	-0.053
-443.836	39.220	0.011	0.010
-442.822	-184.501	0.285	0.005
-441.807	-70.212	-0.248	-0.094
-440.792	800.000	-0.012	-0.037
-439.778	16.378	-0.051	-0.040
-438.763	-104.049	0.224	0.052
-437.749	-44.724	0.167	-0.083
-436.734	146.223	-0.117	0.156
-435.719	-200.000	0.011	-0.072
-434.705	-75.812	0.283	-0.100
-433.690	-112.647	0.020	0.004
-432.676	193.109	0.243	0.366
-431.661	-17.445	0.359	0.225
-430.646	-165.141	-0.369	-0.016
-429.632	-72.393	0.078	0.029
-428.617	-200.000	-0.404	0.002
-427.603	150.583	0.078	-0.105
-426.588	-30.160	0.057	0.032
-425.573	-200.000	0.030	0.134
-424.559	-200.000	-0.059	0.285
-423.544	-131.560	0.130	-0.017
-422.530	16.661	-0.307	-0.242
-421.515	210.523	0.170	0.266
-420.500	100.323	-0.110	0.127
-419.486	-200.000	0.001	-0.155
-418.471	393.400	-0.100	-0.208
-417.457	189.132	0.189	-0.282
-416.442	-200.000	-0.001	-0.182
-415.428	800.000	0.050	-0.145
-414.413	-32.724	0.161	0.089
-413.398	115.776	0.100	-0.122
-412.384	-200.000	0.034	0.199
-411.369	114.953	0.231	0.280
-410.355	-200.000	0.026	-0.281
-409.340	800.000	-0.087	0.370
-408.325	424.616	-0.091	-0.195
-407.311	-200.000	0.165	0.000
-406.296	135.286	-0.188	-0.243
-405.282	122.368	0.039	-0.048
-404.267	-127.752	0.166	-0.024
-403.252	-73.017	-0.182	0.066
-402.238	77.858	0.166	-0.176
-401.223	608.665	-0.121	0.300
-400.209	-200.000	-0.007	-0.051
-399.194	-156.809	-0.436	0.027
-398.179	-30.920	0.226	0.127
-397.165	-63.431	-0.293	-0.120
-396.150	-37.021	-0.153	0.082
-395.136	-150.713	0.100	0.008
-394.121	38.747	0.237	0.211
-393.106	12.326	-0.171	-0.131
-392.092	800.000	0.096	-0.343
-391.077	800.000	-0.026	0.109
-390.063	800.000	-0.048	0.185
-389.048	-60.986	-0.276	-0.116
-388.033	10.953	-0.161	-0.122
-387.019	96.516	0.145	-0.165
-386.004	185.103	0.147	-0.217
-384.990	-104.069	0.152	-0.035
-383.975	64.018	-0.156	0.156
-382.960	-61.752	0.185	0.077
-381.946	-33.968	0.392	-0.215
-380.931	800.000	0.131	0.389
-379.917	-97.422	-0.033	-0.009
-378.902	30.123	-0.345	0.293
-377.888	-53.540	0.134	0.061
-376.873	221.514	-0.049	-0.079
-375.858	-134.588	0.466	0.057
-374.844	1.705	-0.052	0.037
-373.829	-110.263	0.352	0.073
-372.815	-123.075	0.116	0.019
-371.800	328.890	-0.036	-0.069
-370.785	-190.884	0.256	-0.003
-369.771	143.489	-0.171	-0.226
-368.756	217.209	-0.086	-0.136
-367.742	133.429	-0.112	-0.144
-366.727	18.054	0.192	0.152
-365.712	-200.000	0.003	-0.252
-364.698	551.326	-0.048	-0.116
-363.683	-200.000	-0.011	-0.061
-362.669	526.297	0.092	0.216
-361.654	800.000	-0.035	0.139
-360.639	-99.364	-0.322	-0.081
-359.625	-37.018	0.264	0.141
-358.610	6.803	-0.207	-0.153
-357.596	-70.346	-0.069	0.026
-356.581	-61.119	0.059	0.025
-355.566	-200.000	-0.015	0.173
-354.552	64.248	-0.074	-0.074
-353.537	174.425	0.047	-0.067
-352.523	800.000	0.045	-0.150
-351.508	49.484	-0.095	0.089
-350.493	-88.345	-0.196	-0.058
-349.479	199.616	-0.210	-0.320
-348.464	-120.312	0.154	-0.026
-347.450	9.537	-0.063	0.047
-346.435	348.235	-0.092	0.180
-345.420	-111.403	-0.145	-0.029
-344.406	-160.697	0.124	-0.007
-343.391	27.315	-0.349	0.291
-342.377	-6.304	-0.123	-0.083
-341.362	-155.666	-0.347	-0.022
-340.348	-155.559	-0.260	-0.017
-339.333	-200.000	0.004	0.101
-338.318	19.536	-0.170	-0.136
-337.304	-139.319	-0.293	-0.031
-336.289	800.000	-0.051	-0.192
-335.275	-172.234	0.093	-0.003
-334.260	127.457	0.209	-0.264
-333.245	-113.564	0.362	-0.070
-332.231	31.663	0.237	0.203
-331.216	-78.106	-0.183	0.062
-330.202	-135.135	0.293	0.035
-329.187	-52.982	-0.154	-0.070
-328.172	-28.737	-0.036	-0.020
-327.158	-140.293	0.116	0.012
-326.143	-125.154	-0.095	-0.014
-325.129	94.115	-0.103	-0.116
-324.114	125.372	-0.015	0.019
-323.099	-177.639	0.252	-0.006
-322.085	731.809	0.056	-0.148
-321.070	64.638	0.402	0.402
-320.056	98.358	0.151	0.173
-319.041	305.612	-0.091	-0.168
-318.026	-88.423	0.155	-0.046
-317.012	-144.562	0.094	-0.009
-315.997	-118.875	-0.247	0.043
-314.983	800.000	-0.066	-0.224
-313.968	246.366	-0.131	-0.219
-312.953	-200.000	0.058	0.402
-311.939	-200.000	0.016	-0.133
-310.924	-104.480	-0.170	-0.039
-309.910	-12.682	-0.047	-0.030
-308.895	-200.000	0.052	0.271
-307.880	61.343	0.061	0.060
-306.866	180.911	0.133	0.194
-305.851	-22.578	-0.203	-0.121
-304.837	-200.000	-0.001	0.043
-303.822	-62.366	-0.205	0.085
-302.807	-52.842	0.115	0.052
-301.793	-200.000	-0.036	-0.217
-300.778	-181.675	-0.449	-0.009
-299.764	-63.930	0.182	-0.074
-298.749	-95.692	0.095	-0.025
-297.735	-200.000	0.012	-0.363
-296.720	105.739	-0.160	-0.188
-295.705	800.000	0.023	-0.066
-294.691	-174.038	0.184	0.005
-293.676	-200.000	-0.024	-0.273
-292.662	-200.000	0.008	0.105
-291.647	179.066	-0.107	0.155
-290.632	-200.000	-0.021	0.458
-289.618	-200.000	-0.019	-0.098
-288.603	800.000	0.038	-0.151
-287.589	-6.362	0.213	-0.144
-286.574	-56.981	-0.421	-0.184
-285.559	-53.312	-0.146	0.066
-284.545	354.554	0.153	-0.302
-283.530	61.673	0.020	-0.020
-282.516	336.137	-0.091	-0.176
-281.501	478.198	-0.101	0.226
-280.486	7.804	0.153	0.113
-279.472	-93.295	0.284	-0.078
-278.457	800.000	-0.046	0.133
-277.443	-44.837	0.261	0.129
-276.428	-200.000	-0.056	0.356
-275.413	-200.000	0.023	-0.139
-274.399	134.309	-0.259	-0.332
-273.384	146.372	0.049	0.065
-272.370	-6.151	0.166	-0.113
-271.355	268.114	-0.149	0.258
-270.340	-66.284	0.123	0.049
-269.326	800.000	0.052	0.219
-268.311	274.832	-0.109	-0.191
-267.297	-79.628	0.098	-0.033
-266.282	800.000	-0.029	-0.104
-265.267	-200.000	0.003	0.046
-264.253	158.977	-0.078	0.107
-263.238	-200.000	-0.025	-0.271
-262.224	790.459	-0.042	0.113
-261.209	-200.000	-0.017	0.283
-260.195	-65.376	-0.123	-0.049
-259.180	-97.715	-0.371	0.095
-258.165	-200.000	0.016	0.185
-257.151	800.000	0.015	-0.055
-256.136	145.178	0.098	-0.130
-255.122	-122.956	-0.259	0.041
-254.107	51.392	0.148	-0.139
-253.092	800.000	-0.075	0.213
-252.078	-135.077	0.107	-0.013
-251.063	800.000	-0.152	-0.436
-250.049	-200.000	0.025	-0.129
-249.034	62.163	0.168	-0.165
-248.019	180.804	0.135	0.196
-247.005	-200.000	0.020	-0.162
-245.990	38.425	0.132	-0.116
-244.976	-200.000	0.080	0.375
-243.961	86.626	0.042	-0.046
-242.946	-0.188	0.189	-0.133
-241.932	-102.105	0.239	-0.057
-240.917	-200.000	-0.086	-0.414
-239.903	-104.569	-0.253	-0.058
-238.888	-114.424	0.112	0.021
-237.873	66.824	-0.273	0.275
-236.859	800.000	0.174	0.494
-235.844	-60.100	0.088	-0.037
-234.830	-151.814	-0.119	-0.009
-233.815	280.606	0.026	0.046
-232.800	281.975	-0.040	-0.071
-231.786	285.661	0.074	-0.131
-230.771	-22.962	0.185	0.110
-229.757	-122.369	0.251	0.040
-228.742	-59.561	0.203	-0.086
-227.727	-83.541	-0.367	-0.116
-226.713	162.264	0.096	0.133
-225.698	-93.595	-0.147	0.040
-224.684	268.978	0.080	0.138
-223.669	-35.090	0.158	0.085
-222.655	91.210	-0.140	-0.155
-221.640	-200.000	0.024	-0.421
-220.625	-32.939	-0.517	0.283
-219.611	800.000	-0.052	0.201
-218.596	-81.175	0.144	0.047
-217.582	-200.000	0.085	0.581
-216.567	800.000	0.043	-0.153
-215.552	143.399	0.101	0.133
-214.538	800.000	-0.124	0.364
-213.523	-200.000	0.062	0.514
-212.509	-33.694	-0.393	-0.214
-211.494	260.043	-0.127	0.217
-210.479	-80.121	0.213	0.071
-209.465	615.438	-0.109	0.270
-208.450	800.000	0.057	0.182
-207.436	112.842	-0.086	0.103
-206.421	37.699	0.081	0.071
-205.406	-51.116	-0.150	0.069
-204.392	98.962	-0.080	0.091
-203.377	-200.000	0.061	0.547
-202.363	-44.396	-0.265	0.131
-201.348	-141.793	0.063	0.006
-200.333	-200.000	-0.068	0.538
-199.319	-25.250	0.062	-0.036
-198.304	-99.563	0.252	0.063
-197.290	-200.000	-0.025	0.150
-196.275	-11.001	0.111	-0.072
-195.260	149.025	0.093	-0.124
-194.246	231.785	-0.069	0.111
-193.231	238.068	-0.134	-0.220
-192.217	-200.000	-0.005	-0.081
-191.202	-89.003	0.322	-0.094
-190.187	167.652	-0.117	0.164
-189.173	159.212	-0.076	-0.104
-188.158	475.315	-0.053	-0.119
-187.144	-118.904	-0.104	-0.018
-186.129	-4.761	-0.128	-0.087
-185.114	800.000	0.048	0.149
-184.100	26.464	-0.127	-0.105
-183.085	-200.000	-0.012	-0.313
-182.071	80.685	-0.147	0.156
-181.056	209.665	-0.031	0.047
-180.042	29.690	-0.041	0.034
-179.027	-91.913	0.353	-0.099
-178.012	-119.542	0.261	0.045
-176.998	-200.000	0.012	-0.108
-175.983	16.913	-0.196	-0.153
-174.969	-200.000	-0.011	0.416
-173.954	-200.000	0.023	0.172
-172.939	-200.000	-0.028	-0.415
-171.925	-4.033	0.221	0.151
-170.910	800.000	-0.122	0.336
-169.896	-117.834	-0.163	-0.029
-168.881	-46.681	0.132	-0.064
-167.866	-89.359	-0.431	-0.125
-166.852	-200.000	0.572	0.000
-165.837	-12.618	0.156	0.100
-164.823	138.271	0.126	0.163
-163.808	-66.339	-0.122	0.048
-162.793	458.710	0.144	-0.317
-161.779	800.000	0.069	0.253
-160.764	-200.000	-0.006	-0.206
-159.750	25.080	-0.104	0.085
-158.735	141.260	0.113	-0.147
-157.720	94.937	-0.086	-0.097
-156.706	-121.471	-0.245	0.040
-155.691	-200.000	-0.049	0.259
-154.677	176.508	0.016	-0.023
-153.662	361.481	0.061	0.120
-152.647	-36.718	0.267	-0.141
-151.633	14.261	0.129	-0.099
-150.618	153.215	0.115	0.155
-149.604	800.000	0.057	0.170
-148.589	120.686	0.071	-0.087
-147.574	-142.082	0.120	-0.012
-146.560	-200.000	0.046	-0.276
-145.545	-164.342	0.016	0.001
-144.531	-39.908	0.227	-0.117
-143.516	55.015	0.046	-0.043
-142.502	2.861	-0.081	-0.058
-141.487	800.000	-0.113	-0.366
-140.472	-200.000	-0.026	-0.138
-139.458	-89.622	-0.201	0.058
-138.443	190.324	-0.064	-0.095
-137.429	-88.191	0.195	0.058
-136.414	-45.929	0.163	0.079
-135.399	107.422	-0.121	0.142
-134.385	-200.000	-0.001	0.289
-133.370	-30.779	0.297	0.165
-132.356	-50.609	0.130	0.060
-131.341	-198.244	-0.156	-0.001
-130.326	698.350	0.117	0.303
-129.312	-170.905	0.119	0.004
-128.297	-200.000	-0.010	0.048
-127.283	-200.000	0.027	0.287
-126.268	233.554	0.189	0.306
-125.253	-125.131	0.137	-0.021
-124.239	-64.518	0.079	-0.031
-123.224	14.012	-0.041	0.031
-122.210	61.238	-0.475	0.465
-121.195	78.018	0.254	0.266
-120.180	-175.944	0.272	0.007
-119.166	-176.845	-0.309	-0.008
-118.151	259.377	0.130	-0.221
-117.137	-32.523	0.100	-0.055
-116.122	220.882	0.148	-0.234
-115.107	105.704	0.044	-0.052
-114.093	72.227	0.166	-0.170
-113.078	-7.796	0.113	0.075
-112.064	-48.290	0.128	0.061
-111.049	-75.335	0.107	0.038
-110.034	41.292	-0.066	-0.059
-109.020	-200.000	-0.025	-0.159
-108.005	212.154	-0.074	-0.114
-106.991	800.000	-0.140	-0.410
-105.976	27.167	-0.249	0.205
-104.962	18.083	-0.184	0.145
-103.947	326.148	0.086	0.163
-102.932	46.854	0.140	0.128
-101.918	-79.764	-0.323	-0.107
-100.903	164.305	-0.022	-0.030
-99.889	800.000	-0.051	0.171
-98.874	35.568	0.205	-0.177
-97.859	87.554	0.287	-0.313
-96.845	96.930	0.121	-0.137
-95.830	146.661	0.043	-0.057
-94.816	120.746	-0.252	-0.308
-93.801	166.176	0.081	-0.113
-92.786	-59.699	0.405	0.171
-91.772	30.658	0.173	0.145
-90.757	266.469	0.278	-0.478
-89.743	-80.496	0.369	-0.121
-88.728	87.860	-0.151	-0.164
-87.713	-137.788	-0.183	0.020
-86.699	192.157	-0.056	-0.082
-85.684	-151.179	-0.109	0.008
-84.670	381.463	-0.271	0.546
-83.655	-200.000	-0.004	-0.054
-82.640	-39.544	0.162	-0.083
-81.626	117.704	0.151	0.183
-80.611	-155.512	-0.147	0.009
-79.597	-50.170	0.240	0.112
-78.582	-22.414	0.257	0.153
-77.567	-200.000	0.042	0.397
-76.553	-9.459	-0.254	0.167
-75.538	-135.133	-0.278	-0.033
-74.524	29.043	0.032	0.027
-73.509	317.909	-0.116	-0.215
-72.494	-200.000	0.003	-0.301
-71.480	-35.943	0.104	-0.055
-70.465	800.000	0.049	0.149
-69.451	31.760	0.109	-0.092
-68.436	-72.488	-0.322	0.117
-67.422	-30.685	-0.330	-0.183
-66.407	-183.135	0.162	0.003
-65.392	800.000	0.072	-0.278
-64.378	800.000	0.084	0.230
-63.363	230.798	0.103	0.165
-62.349	169.766	0.338	0.474
-61.334	112.785	-0.752	-0.894
-60.319	124.462	0.394	0.487
-59.305	-200.000	-0.001	-1.200
-58.290	323.873	0.613	1.149
-57.276	800.000	0.535	1.632
-56.261	-200.000	96.168	592.246
-55.246	559.179	1366.667	3238.738
-54.232	161.473	2554.745	3508.472
-53.217	106.463	2265.496	2636.716
-52.203	41.126	1892.970	1678.820
-51.188	34.940	1683.390	1446.301
-50.173	32.313	1639.555	1389.212
-49.159	49.948	1686.187	1561.127
-48.144	51.507	1702.357	1587.695
-47.130	34.667	1663.267	1426.748
-46.115	31.854	1649.147	1393.706
-45.100	31.610	1644.349	1387.788
-44.086	31.631	1641.489	1385.473
-43.071	31.625	1638.912	1383.200
-42.057	31.730	1636.127	1381.568
-41.042	31.705	1634.297	1379.781
-40.027	31.760	1632.721	1378.800
-39.013	31.607	1630.537	1375.778
-37.998	31.606	1628.727	1374.189
-36.984	31.666	1627.824	1373.812
-35.969	31.762	1626.305	1373.180
-34.954	31.798	1624.460	1371.827
-33.940	31.769	1622.794	1370.156
-32.925	31.705	1621.232	1368.317
-31.911	31.737	1619.622	1367.135
-30.896	31.656	1617.962	1365.092
-29.881	31.686	1616.048	1363.643
-28.867	31.779	1614.198	1362.705
-27.852	31.759	1612.579	1361.137
-26.838	31.740	1611.504	1360.039
-25.823	31.691	1609.724	1358.125
-24.809	31.822	1608.453	1357.945
-23.794	31.789	1607.089	1356.503
-22.779	31.842	1605.800	1355.744
-21.765	31.755	1604.170	1353.683
-20.750	31.658	1602.784	1351.762
-19.736	31.811	1601.174	1351.455
-18.721	31.732	1599.724	1349.606
-17.706	31.741	1598.259	1348.382
-16.692	31.802	1596.804	1347.541
-15.677	31.789	1595.171	1346.014
-14.663	31.816	1594.289	1345.414
-13.648	31.853	1592.737	1344.314
-12.633	31.816	1591.132	1342.642
-11.619	31.804	1589.388	1341.027
-10.604	31.745	1588.465	1339.775
-9.590	31.787	1586.804	1338.624
-8.575	31.879	1585.509	1338.132
-7.560	31.805	1584.895	1337.032
-6.546	31.781	1582.978	1335.191
-5.531	31.768	1582.542	1334.680
-4.517	31.770	1580.900	1333.257
-3.502	31.822	1579.654	1332.523
-2.487	31.879	1577.941	1331.428
-1.473	31.611	1566.375	1319.729
-0.458	28.988	1548.540	1286.337
0.556	25.994	1549.658	1259.133
1.571	23.936	1572.929	1263.323
2.586	23.466	1586.771	1270.959
3.600	20.590	1531.908	1206.978
4.615	11.200	1420.063	1058.055
5.629	3.094	1355.544	959.482
6.644	1.831	1347.415	945.806
7.659	1.780	1345.850	944.308
8.673	1.713	1345.016	943.222
9.688	1.637	1343.011	941.263
10.702	1.423	1339.930	937.700
11.717	4.861	1346.827	963.745
12.731	14.988	1365.681	1040.411
13.746	23.649	1380.045	1105.443
14.761	25.937	1383.618	1122.470
15.775	26.318	1383.733	1124.838
16.790	26.342	1383.665	1124.833
17.804	26.482	1382.538	1124.685
18.819	26.717	1382.273	1125.831
19.834	26.865	1381.872	1126.328
20.848	26.821	1381.299	1125.482
21.863	26.803	1380.312	1124.471
22.877	26.798	1379.560	1123.725
23.892	26.897	1378.439	1123.329
24.907	26.859	1377.878	1122.533
25.921	26.831	1376.527	1121.161
26.936	26.900	1375.375	1120.549
27.950	26.848	1374.666	1119.551
28.965	26.845	1373.290	1118.315
29.980	26.845	1372.269	1117.386
30.994	26.767	1371.291	1116.012
32.009	26.821	1370.487	1115.589
33.023	26.844	1368.923	1114.360
34.038	26.766	1367.979	1113.013
35.053	26.857	1366.752	1112.474
36.067	26.873	1365.486	1111.445
37.082	26.845	1364.921	1110.712
38.096	26.826	1364.084	1109.815
39.111	26.918	1362.842	1109.271
40.126	26.874	1362.569	1108.682
41.140	26.913	1361.719	1108.129
42.155	26.829	1361.628	1107.445
43.169	26.900	1361.723	1107.858
44.184	26.800	1361.192	1106.718
45.199	26.833	1360.967	1106.638
46.213	26.867	1360.206	1106.129
47.228	26.809	1359.702	1105.270
48.242	26.855	1358.040	1104.100
49.257	26.854	1357.288	1103.381
50.271	26.874	1354.981	1101.531
51.286	26.789	1354.647	1100.649
52.301	26.745	1353.177	1099.090
53.315	26.856	1352.055	1098.754
54.330	26.878	1351.417	1098.271
55.344	26.801	1350.138	1096.668
56.359	26.899	1349.026	1096.258
57.374	26.885	1348.357	1095.536
58.388	26.848	1347.878	1094.824
59.403	26.863	1347.404	1094.435
60.417	26.838	1346.807	1093.699
61.432	26.869	1346.060	1093.183
62.447	26.804	1345.272	1092.057
63.461	26.964	1343.830	1091.752
64.476	26.938	1342.877	1090.725
65.490	26.885	1341.568	1089.247
66.505	26.831	1340.609	1088.046
67.520	26.886	1339.072	1087.033
68.534	26.912	1338.240	1086.420
69.549	26.900	1337.433	1085.594
70.563	26.900	1336.272	1084.556
71.578	26.871	1335.339	1083.531
72.593	26.955	1334.648	1083.373
73.607	26.879	1334.144	1082.415
74.622	26.935	1333.490	1082.124
75.636	26.848	1332.723	1080.886
76.651	26.850	1332.397	1080.540
77.666	26.769	1331.862	1079.529
78.680	26.874	1331.352	1079.643
79.695	26.894	1330.418	1078.906
80.709	26.885	1329.391	1077.926
81.724	26.936	1328.214	1077.182
82.739	26.951	1327.698	1076.755
83.753	26.858	1326.868	1075.433
84.768	26.938	1325.413	1074.635
85.782	26.911	1324.649	1073.758
86.797	26.932	1323.105	1072.537
87.812	26.836	1322.521	1071.405
88.826	26.984	1321.322	1071.210
89.841	26.822	1320.600	1069.574
90.855	26.973	1319.129	1069.176
91.870	26.856	1318.793	1068.123
92.884	27.001	1317.843	1068.112
93.899	26.821	1317.715	1066.855
94.914	26.910	1316.679	1066.446
95.928	26.968	1315.292	1065.567
96.943	27.004	1314.817	1065.300
97.957	27.000	1314.185	1064.667
98.972	27.002	1313.323	1063.886
99.987	26.980	1312.244	1062.789
101.001	26.887	1311.467	1061.525
102.016	26.940	1310.744	1061.154
103.030	26.939	1310.325	1060.716
104.045	26.917	1309.242	1059.616
105.060	26.958	1308.074	1058.815
106.074	26.962	1307.126	1057.980
107.089	26.987	1305.966	1057.093
108.103	27.017	1304.950	1056.349
109.118	26.992	1303.861	1055.230
110.133	27.062	1302.936	1054.793
111.147	27.047	1301.941	1053.811
112.162	27.006	1300.536	1052.341
113.176	27.039	1299.716	1051.773
114.191	26.950	1299.331	1050.853
115.206	27.043	1297.986	1050.212
116.220	26.984	1296.736	1048.768
117.235	26.986	1296.396	1048.410
118.249	27.095	1295.061	1047.869
119.264	27.132	1293.700	1046.885
120.279	27.061	1293.614	1046.312
121.293	27.101	1292.819	1045.808
122.308	27.134	1291.562	1044.893
123.322	27.125	1291.150	1044.415
124.337	27.147	1289.879	1043.416
125.352	27.063	1289.703	1042.700
126.366	27.116	1289.037	1042.374
127.381	27.141	1287.578	1041.248
128.395	27.158	1286.712	1040.549
129.410	27.099	1286.203	1039.713
130.424	27.080	1284.991	1038.530
131.439	27.113	1284.373	1038.125
132.454	27.037	1284.095	1037.378
133.468	27.058	1283.167	1036.657
134.483	27.023	1282.668	1035.957
135.497	27.006	1281.809	1035.076
136.512	27.093	1280.734	1034.612
137.527	27.159	1279.269	1033.717
138.541	27.046	1278.227	1032.137
139.556	27.077	1277.082	1031.297
140.570	26.997	1276.819	1030.543
141.585	27.051	1275.011	1029.298
142.600	27.049	1274.360	1028.666
143.614	27.067	1273.341	1027.856
144.629	27.009	1272.665	1026.893
145.643	26.997	1271.205	1025.554
146.658	26.946	1270.698	1024.768
147.673	26.993	1269.403	1023.900
148.687	26.949	1268.610	1022.918
149.702	26.967	1267.475	1022.017
150.716	27.031	1266.390	1021.412
151.731	27.069	1265.146	1020.532
152.746	27.056	1264.256	1019.649
153.760	27.194	1263.094	1019.396
154.775	27.073	1262.530	1018.171
155.789	27.086	1261.619	1017.418
156.804	27.065	1260.879	1016.614
157.819	26.973	1260.489	1015.695
158.833	27.091	1259.391	1015.382
159.848	27.069	1258.706	1014.615
160.862	27.034	1258.032	1013.788
161.877	27.110	1256.673	1013.029
162.892	27.159	1256.142	1012.784
163.906	27.141	1255.402	1011.996
164.921	27.221	1254.536	1011.654
165.935	27.142	1254.581	1011.163
166.950	27.200	1253.440	1010.473
167.964	27.076	1253.234	1009.530
168.979	27.130	1252.468	1009.123
169.994	27.185	1251.733	1008.744
171.008	27.163	1250.624	1007.643
172.023	27.297	1249.429	1007.331
173.037	27.225	1249.280	1006.722
174.052	27.326	1248.362	1006.452
175.067	27.231	1247.788	1005.375
176.081	27.157	1247.196	1004.400
177.096	27.168	1246.540	1003.846
178.110	27.262	1245.575	1003.497
179.125	27.166	1244.569	1002.070
180.140	27.283	1243.450	1001.724
181.154	27.195	1241.899	999.901
182.169	27.211	1241.317	999.434
183.183	27.319	1240.059	998.926
184.198	27.260	1239.313	997.912
185.213	27.281	1238.195	997.039
186.227	27.261	1237.447	996.238
187.242	27.210	1236.871	995.406
188.256	27.273	1236.241	995.159
189.271	27.373	1235.113	994.706
190.286	27.238	1234.620	993.485
191.300	27.339	1233.820	993.303
192.315	27.281	1233.328	992.501
193.329	27.269	1233.239	992.280
194.344	27.262	1232.606	991.645
195.359	27.279	1232.150	991.283
196.373	27.275	1231.827	990.914
197.388	27.115	1231.296	989.525
198.402	27.196	1231.613	990.136
199.417	27.263	1230.589	989.586
200.432	27.223	1229.929	988.754
201.446	27.293	1229.568	988.756
202.461	27.232	1228.984	987.866
203.475	27.183	1228.281	986.946
204.490	27.263	1226.595	985.940
205.504	27.284	1225.453	985.045
206.519	27.356	1224.826	984.845
207.534	27.391	1223.523	983.898
208.548	27.296	1223.095	982.957
209.563	27.327	1222.461	982.526
210.577	27.358	1221.425	981.776
211.592	27.351	1220.575	980.967
212.607	27.379	1219.792	980.404
213.621	27.328	1219.446	979.761
214.636	27.503	1218.529	979.880
215.650	27.501	1217.625	979.057
216.665	27.338	1216.537	977.221
217.680	27.428	1215.824	977.042
218.694	27.427	1215.391	976.606
219.709	27.428	1214.623	975.905
220.723	27.427	1213.772	975.129
221.738	27.470	1212.905	974.577
222.753	27.340	1212.138	973.179
223.767	27.462	1211.205	972.997
224.782	27.523	1210.902	972.992
225.796	27.444	1211.072	972.619
226.811	27.447	1210.553	972.133
227.826	27.582	1209.343	971.795
228.840	27.585	1209.057	971.498
229.855	27.414	1208.390	969.963
230.869	27.477	1207.349	969.375
231.884	27.509	1206.987	969.173
232.899	27.466	1206.089	968.135
233.913	27.661	1205.002	968.215
234.928	27.702	1204.729	968.123
235.942	27.547	1204.558	967.077
236.957	27.521	1203.828	966.268
237.972	27.524	1203.020	965.551
238.986	27.630	1202.465	965.581
240.001	27.706	1201.609	965.211
241.015	27.658	1200.844	964.259
242.030	27.634	1200.502	963.773
243.045	27.626	1199.741	963.034
244.059	27.808	1198.373	962.812
245.074	27.755	1197.804	961.988
246.088	27.774	1196.946	961.314
247.103	27.745	1196.202	960.476
248.117	27.633	1195.904	959.565
249.132	27.733	1194.934	959.225
250.147	27.736	1194.495	958.805
251.161	27.715	1193.654	957.936
252.176	27.805	1192.538	957.427
253.190	27.755	1192.169	956.783
254.205	27.762	1191.599	956.277
255.220	27.794	1191.183	956.027
256.234	27.788	1190.502	955.365
257.249	27.676	1190.051	954.330
258.263	27.704	1189.395	953.868
259.278	27.791	1189.138	954.031
260.293	27.824	1188.562	953.659
261.307	27.787	1187.667	952.663
262.322	27.820	1186.689	951.964
263.336	27.882	1186.151	951.771
264.351	27.795	1186.023	951.136
265.366	27.787	1185.134	950.297
266.380	27.777	1184.795	949.887
267.395	27.944	1183.284	949.458
268.409	27.723	1183.439	948.353
269.424	27.891	1182.677	948.531
270.439	27.860	1182.128	947.841
271.453	27.754	1181.690	946.860
272.468	27.813	1180.395	946.042
273.482	27.931	1180.261	946.466
274.497	27.971	1179.488	945.968
275.512	27.926	1179.310	945.507
276.526	27.875	1178.339	944.380
277.541	28.016	1177.713	944.526
278.555	27.866	1177.224	943.274
279.570	27.837	1176.497	942.458
280.585	27.977	1175.431	942.244
281.599	28.006	1174.471	941.538
282.614	27.987	1173.780	940.805
283.628	27.981	1173.017	940.079
284.643	27.952	1172.192	939.185
285.657	27.965	1171.274	938.433
286.672	27.938	1170.731	937.776
287.687	28.005	1169.508	937.059
288.701	28.062	1169.256	937.064
289.716	28.071	1168.620	936.517
290.730	28.060	1167.613	935.575
291.745	28.074	1167.114	935.163
292.760	28.044	1166.740	934.626
293.774	28.108	1166.164	934.408
294.789	28.110	1165.602	933.886
295.803	28.059	1165.279	933.285
296.818	28.070	1164.471	932.609
297.833	28.123	1163.680	932.166
298.847	28.072	1163.017	931.290
299.862	28.191	1162.543	931.433
300.876	28.050	1162.077	930.265
301.891	28.233	1160.925	930.189
302.906	28.251	1160.333	929.724
303.920	28.186	1159.897	928.962
304.935	28.007	1159.841	927.927
305.949	28.272	1158.483	928.099
306.964	28.117	1158.000	926.843
307.979	28.236	1157.606	927.053
308.993	28.171	1156.747	925.952
310.008	28.247	1155.580	925.319
311.022	28.230	1155.226	924.868
312.037	28.305	1154.247	924.382
313.052	28.448	1152.989	924.014
314.066	28.247	1152.950	922.888
315.081	28.305	1151.993	922.329
316.095	28.232	1151.612	921.579
317.110	28.316	1151.415	921.760
318.125	28.355	1150.538	921.175
319.139	28.240	1149.886	919.992
320.154	28.363	1148.971	919.794
321.168	28.388	1148.476	919.445
322.183	28.330	1148.285	918.920
323.197	28.401	1147.467	918.540
324.212	28.307	1147.083	917.678
325.227	28.343	1146.489	917.302
326.241	28.546	1145.504	917.449
327.256	28.343	1145.476	916.331
328.270	28.359	1144.382	915.454
329.285	28.406	1143.683	915.049
330.300	28.519	1142.805	914.831
331.314	28.515	1141.719	913.857
332.329	28.496	1141.438	913.460
333.343	28.455	1140.631	912.527
334.358	28.493	1139.665	911.861
335.373	28.502	1139.197	911.454
336.387	28.466	1138.664	910.767
337.402	28.480	1137.887	910.132
338.416	28.511	1137.137	909.606
339.431	28.564	1136.386	909.189
340.446	28.523	1136.109	908.684
341.460	28.581	1135.297	908.242
342.475	28.504	1134.475	907.122
343.489	28.614	1133.391	906.720
344.504	28.760	1132.193	906.398
345.519	28.612	1132.017	905.449
346.533	28.672	1131.233	905.036
347.548	28.677	1130.211	904.165
348.562	28.677	1129.910	903.841
349.577	28.648	1129.483	903.277
350.592	28.622	1128.395	902.202
351.606	28.581	1127.952	901.565
352.621	28.620	1127.511	901.325
353.635	28.616	1126.728	900.600
354.650	28.799	1126.072	900.894
355.665	28.777	1125.285	900.076
356.679	28.834	1124.929	899.988
357.694	28.790	1124.268	899.167
358.708	28.718	1123.454	898.084
359.723	28.693	1122.663	897.251
360.738	28.657	1122.173	896.606
361.752	28.726	1121.799	896.564
362.767	28.760	1121.706	896.572
363.781	28.854	1120.860	896.278
364.796	28.840	1119.906	895.367
365.810	28.959	1119.197	895.299
366.825	29.020	1118.506	894.963
367.840	29.073	1117.988	894.731
368.854	28.961	1117.565	893.769
369.869	28.981	1116.902	893.257
370.883	28.880	1116.266	892.179
371.898	28.943	1115.633	891.896
372.913	28.874	1114.946	890.933
373.927	29.010	1114.305	891.002
374.942	29.110	1113.905	891.087
375.956	29.065	1113.771	890.683
376.971	29.033	1112.884	889.740
377.986	29.058	1112.273	889.293
379.000	29.003	1112.049	888.771
380.015	29.068	1111.768	888.783
381.029	29.095	1110.949	888.177
382.044	28.954	1110.255	886.865
383.059	28.946	1109.782	886.372
384.073	29.219	1108.675	886.721
385.088	29.107	1107.804	885.408
386.102	29.046	1107.032	884.418
387.117	29.016	1106.540	883.806
388.132	29.034	1105.438	882.932
389.146	29.075	1104.718	882.478
390.161	29.066	1104.347	882.057
391.175	29.165	1103.314	881.630
392.190	29.172	1102.822	881.194
393.205	29.143	1102.339	880.588
394.219	29.171	1101.572	880.030
395.234	29.147	1100.812	879.231
396.248	29.160	1099.809	878.414
397.263	29.224	1099.334	878.263
398.278	29.309	1098.509	877.931
399.292	29.346	1098.027	877.646
400.307	29.325	1097.280	876.869
401.321	29.319	1096.635	876.250
402.336	29.284	1096.085	875.563
403.350	29.200	1095.583	874.690
404.365	29.319	1094.638	874.419
405.380	29.394	1094.045	874.225
406.394	29.408	1093.434	873.725
407.409	29.312	1092.812	872.696
408.423	29.335	1092.178	872.223
409.438	29.459	1091.169	871.925
410.453	29.581	1090.412	871.820
411.467	29.448	1089.746	870.583
412.482	29.420	1089.421	870.112
413.496	29.474	1088.485	869.545
414.511	29.463	1087.732	868.812
415.526	29.530	1087.610	868.953
416.540	29.562	1087.093	868.615
417.555	29.416	1086.551	867.416
418.569	29.473	1086.389	867.479
419.584	29.556	1085.940	867.436
420.599	29.649	1085.581	867.508
421.613	103.911	1323.559	1460.450
422.628	96.695	1358.204	1460.561
