DTS Sentinel unit serial number:	SN413079Multiplexer serial number:	ORYXHardware model number:	OX4-SRSoftware version number:	ORYX F/W v4.00 Oryx Data Collector v3.7.2.0data status	okinstallation	princeton_trtdifferential loss correction	single-endedforward channel	channel 2reverse channel	N/Adate	2019/09/10time	22:01:10forward acquisition time	60.00reverse acquisition time	0.00gamma	496.2192k internal	0.2330k external	0.2330temperature offset calibration	0.9947default loss term (dB/km)	0.3790temperature slope calibration	1.0000multiplexer offset coefficient	1.0000multiplexer slope coefficient	1.0000fibre end	0.00T internal ref (°C)	30.69T ext. ref 1 (°C)	-0.31T ext. ref 2 (°C)	23.92length (m)	temperature (°C)	Stokes	anti-Stokes-747.200	146.703	0.052	-0.070
-746.185	-200.000	-0.014	0.294
-745.171	-61.868	-0.233	0.098
-744.156	214.547	0.225	0.358
-743.142	-200.000	0.049	-0.278
-742.127	51.968	-0.432	0.414
-741.112	799.598	0.054	0.149
-740.098	-90.496	-0.212	0.062
-739.083	487.317	0.053	0.122
-738.069	-153.015	-0.127	0.009
-737.054	-33.012	0.110	-0.061
-736.039	167.492	0.243	-0.347
-735.025	388.942	-0.016	0.034
-734.010	-190.583	-0.147	0.002
-732.996	-50.450	0.119	0.057
-731.981	800.000	0.040	0.161
-730.966	800.000	0.056	-0.214
-729.952	-77.498	-0.150	-0.052
-728.937	-43.774	-0.268	-0.136
-727.923	-198.405	-0.147	0.001
-726.908	-45.474	-0.183	-0.091
-725.894	85.088	-0.214	0.236
-724.879	678.509	-0.067	-0.174
-723.864	562.002	0.108	0.263
-722.850	-151.350	0.215	-0.016
-721.835	-200.000	0.061	0.391
-720.821	-64.372	0.398	-0.163
-719.806	347.340	-0.054	-0.108
-718.791	-200.000	0.009	0.158
-717.777	-26.410	0.206	0.121
-716.762	148.444	-0.117	0.159
-715.748	65.713	-0.152	0.155
-714.733	291.493	0.136	-0.248
-713.718	191.917	-0.079	-0.120
-712.704	230.650	-0.009	0.014
-711.689	8.210	0.386	0.292
-710.675	170.174	-0.137	-0.197
-709.660	69.909	-0.176	-0.182
-708.645	-200.000	0.029	0.130
-707.631	800.000	0.073	-0.287
-706.616	-103.351	0.234	-0.056
-705.602	-200.000	-0.069	-0.515
-704.587	800.000	-0.013	-0.053
-703.572	-89.937	-0.191	-0.056
-702.558	-143.653	0.400	-0.038
-701.543	-91.982	0.217	0.062
-700.529	-160.782	0.410	0.022
-699.514	442.902	-0.124	-0.274
-698.499	-44.080	0.124	0.063
-697.485	-164.992	-0.206	-0.009
-696.470	280.821	-0.255	-0.459
-695.456	-46.478	0.260	-0.128
-694.441	112.351	0.084	-0.102
-693.426	146.978	0.073	-0.098
-692.412	-200.000	0.039	-0.291
-691.397	98.589	0.129	-0.150
-690.383	16.473	-0.236	-0.188
-689.368	550.144	-0.024	0.057
-688.354	-79.756	0.152	-0.052
-687.339	-157.917	0.256	-0.015
-686.324	63.055	-0.146	-0.146
-685.310	32.963	0.109	-0.095
-684.295	167.654	0.127	-0.182
-683.281	95.486	-0.012	0.014
-682.266	-113.777	0.109	0.021
-681.251	-106.261	-0.396	-0.089
-680.237	49.511	0.167	0.158
-679.222	-200.000	-0.013	0.117
-678.208	165.599	0.047	-0.066
-677.193	-76.364	-0.083	0.029
-676.178	589.261	-0.085	0.209
-675.164	214.870	0.149	0.237
-674.149	-27.988	-0.045	0.026
-673.135	114.635	-0.160	0.196
-672.120	560.879	-0.026	-0.062
-671.105	-154.742	-0.364	-0.024
-670.091	10.421	-0.225	-0.172
-669.076	251.303	-0.221	-0.378
-668.062	30.634	0.203	0.175
-667.047	800.000	-0.037	-0.138
-666.032	-200.000	0.004	-0.219
-665.018	48.928	-0.140	0.132
-664.003	-113.964	0.296	0.058
-662.989	800.000	0.082	-0.286
-661.974	-200.000	0.038	-0.214
-660.959	-200.000	0.044	-0.236
-659.945	-2.837	-0.162	0.113
-658.930	31.291	-0.159	0.137
-657.916	-105.536	0.303	-0.069
-656.901	119.837	-0.057	-0.070
-655.886	369.354	0.157	0.320
-654.872	158.118	0.294	0.409
-653.857	-79.253	-0.493	0.168
-652.843	800.000	-0.021	0.071
-651.828	-55.213	0.162	0.073
-650.814	-22.632	-0.295	0.179
-649.799	-112.892	0.097	-0.019
-648.784	-14.417	-0.131	0.084
-647.770	-200.000	0.046	-0.217
-646.755	54.120	0.232	-0.224
-645.741	-164.377	-0.062	0.003
-644.726	510.570	-0.117	0.273
-643.711	-166.881	-0.293	0.012
-642.697	-180.509	0.188	-0.004
-641.682	371.436	-0.131	0.267
-640.668	373.188	-0.066	0.135
-639.653	800.000	-0.054	-0.168
-638.638	191.670	0.052	-0.078
-637.624	-200.000	0.018	0.110
-636.609	767.850	-0.023	0.063
-635.595	694.669	-0.057	-0.151
-634.580	-77.255	-0.142	-0.050
-633.565	-200.000	-0.033	-0.278
-632.551	-3.540	0.055	0.038
-631.536	22.794	-0.303	-0.249
-630.522	129.194	0.182	-0.233
-629.507	68.494	0.163	0.168
-628.492	65.056	-0.315	-0.319
-627.478	-104.499	0.230	-0.053
-626.463	-200.000	0.000	0.199
-625.449	94.892	0.141	0.161
-624.434	-161.127	-0.400	-0.021
-623.419	-88.450	-0.164	-0.049
-622.405	475.569	0.022	0.051
-621.390	400.594	0.078	-0.163
-620.376	-180.643	0.135	0.003
-619.361	-50.157	0.162	0.077
-618.346	800.000	-0.019	-0.057
-617.332	-116.866	0.255	-0.047
-616.317	-200.000	-0.071	-0.376
-615.303	19.718	0.092	-0.074
-614.288	-200.000	0.016	0.092
-613.273	-134.990	-0.092	0.011
-612.259	-70.354	-0.219	-0.083
-611.244	-178.389	-0.313	0.007
-610.230	-36.027	-0.351	-0.190
-609.215	-47.487	-0.249	-0.121
-608.201	-8.162	-0.189	-0.127
-607.186	-113.945	-0.128	0.025
-606.171	-25.193	0.182	0.108
-605.157	-200.000	0.004	-0.268
-604.142	800.000	-0.074	-0.298
-603.128	-200.000	-0.057	-0.315
-602.113	7.497	0.154	-0.115
-601.098	26.580	0.279	0.233
-600.084	2.866	-0.120	-0.088
-599.069	-200.000	0.379	0.002
-598.055	-11.468	-0.132	-0.087
-597.040	309.132	0.190	-0.356
-596.025	82.231	0.160	0.174
-595.011	38.169	-0.120	-0.107
-593.996	-136.457	-0.053	-0.006
-592.982	-18.219	0.126	0.079
-591.967	-124.223	-0.115	-0.018
-590.952	98.126	-0.138	0.159
-589.938	53.328	-0.140	0.134
-588.923	159.854	-0.105	0.147
-587.909	800.000	-0.012	0.036
-586.894	-200.000	-0.059	0.397
-585.879	-78.146	-0.331	0.114
-584.865	-12.768	0.092	-0.060
-583.850	800.000	0.054	-0.220
-582.836	-200.000	0.013	0.323
-581.821	800.000	-0.056	0.194
-580.806	-200.000	0.014	0.178
-579.792	202.081	-0.188	-0.290
-578.777	235.970	0.081	-0.134
-577.763	-23.170	0.322	-0.194
-576.748	142.597	-0.114	0.151
-575.733	130.074	0.293	0.375
-574.719	-106.240	0.121	0.027
-573.704	-15.516	-0.463	-0.295
-572.690	-158.337	-0.141	0.008
-571.675	32.992	0.268	0.232
-570.661	-1.745	-0.257	-0.181
-569.646	333.514	-0.069	0.133
-568.631	53.099	-0.258	-0.247
-567.617	-46.826	0.086	0.042
-566.602	97.396	0.175	-0.201
-565.588	-114.529	0.115	0.022
-564.573	-28.298	0.162	-0.093
-563.558	-200.000	-0.011	0.505
-562.544	-200.000	0.032	-0.240
-561.529	250.983	0.110	-0.187
-560.515	181.838	-0.088	-0.130
-559.500	137.883	0.097	-0.127
-558.485	-122.538	0.013	-0.002
-557.471	-200.000	-0.014	0.306
-556.456	261.578	0.105	-0.182
-555.442	-73.069	0.053	-0.019
-554.427	-0.612	-0.101	0.072
-553.412	153.653	-0.159	0.218
-552.398	592.896	0.071	-0.174
-551.383	247.315	0.132	-0.224
-550.369	-122.255	-0.345	0.056
-549.354	-100.182	0.134	0.033
-548.339	199.338	-0.086	0.131
-547.325	-39.177	-0.343	-0.180
-546.310	-67.896	-0.093	-0.036
-545.296	800.000	-0.043	-0.169
-544.281	162.904	0.096	-0.134
-543.266	5.993	0.211	-0.156
-542.252	531.429	0.056	0.133
-541.237	29.612	-0.124	0.105
-540.223	-16.357	-0.237	0.150
-539.208	800.000	0.027	0.100
-538.193	-99.372	-0.311	-0.078
-537.179	-104.010	-0.328	-0.076
-536.164	491.572	0.168	0.384
-535.150	-151.488	0.215	-0.016
-534.135	718.029	-0.065	0.173
-533.121	-200.000	-0.053	0.288
-532.106	800.000	0.071	0.261
-531.091	589.150	0.089	-0.218
-530.077	800.000	-0.017	0.075
-529.062	-200.000	0.049	-0.237
-528.048	-37.157	-0.108	0.058
-527.033	198.441	-0.129	0.197
-526.018	-110.443	-0.319	-0.066
-525.004	111.881	0.158	0.190
-523.989	-74.060	0.220	-0.079
-522.975	59.222	0.093	-0.092
-521.960	75.577	0.140	-0.148
-520.945	-90.187	-0.072	-0.021
-519.931	450.447	-0.044	-0.098
-518.916	-200.000	-0.014	-0.070
-517.902	-0.054	0.239	0.170
-516.887	-123.401	0.353	0.056
-515.872	-200.000	0.006	-0.237
-514.858	6.839	-0.193	0.144
-513.843	-160.136	0.392	0.021
-512.829	-200.000	0.003	0.104
-511.814	-62.992	0.092	0.038
-510.799	21.242	-0.106	-0.086
-509.785	-200.000	-0.003	0.049
-508.770	689.736	0.036	0.095
-507.756	124.329	-0.058	-0.073
-506.741	-200.000	-0.003	-0.211
-505.726	225.754	0.209	-0.338
-504.712	-200.000	0.047	-0.248
-503.697	11.236	0.188	0.144
-502.683	-105.609	0.256	0.058
-501.668	426.274	-0.112	0.241
-500.653	-108.869	-0.089	0.019
-499.639	-20.429	0.156	-0.096
-498.624	38.314	0.081	0.072
-497.610	-200.000	-0.017	-0.531
-496.595	-88.416	0.168	-0.050
-495.581	-200.000	-0.025	0.163
-494.566	-76.675	0.131	0.046
-493.551	20.761	-0.083	0.067
-492.537	-51.173	0.253	0.118
-491.522	-1.584	0.134	-0.094
-490.508	21.330	-0.077	0.062
-489.493	-200.000	0.039	0.482
-488.478	-200.000	0.017	0.228
-487.464	-18.758	-0.450	0.279
-486.449	52.207	-0.071	-0.068
-485.435	46.347	-0.104	0.096
-484.420	-173.530	-0.165	-0.005
-483.405	800.000	-0.074	0.229
-482.391	-95.369	-0.101	-0.027
-481.376	-171.320	-0.095	0.003
-480.362	68.690	-0.518	0.530
-479.347	800.000	-0.035	0.113
-478.332	-200.000	-0.058	0.374
-477.318	800.000	0.082	0.282
-476.303	78.140	0.132	-0.140
-475.289	-200.000	0.003	0.221
-474.274	675.344	-0.190	0.493
-473.259	800.000	0.032	0.109
-472.245	102.312	-0.188	0.219
-471.230	800.000	0.037	0.107
-470.216	-200.000	0.024	-0.401
-469.201	99.945	0.120	0.138
-468.186	800.000	-0.126	-0.445
-467.172	35.233	-0.243	-0.212
-466.157	800.000	0.053	0.204
-465.143	-200.000	-0.003	-0.263
-464.128	800.000	-0.144	0.457
-463.113	-200.000	-0.083	-0.412
-462.099	-8.830	0.234	-0.156
-461.084	677.956	-0.069	-0.179
-460.070	218.903	0.289	-0.460
-459.055	-130.839	0.244	-0.033
-458.040	121.581	-0.246	0.305
-457.026	-39.446	-0.175	-0.091
-456.011	31.416	0.178	-0.152
-454.997	633.606	0.022	0.055
-453.982	-57.137	0.061	0.027
-452.968	594.711	0.072	-0.177
-451.953	107.872	0.058	-0.069
-450.938	297.545	0.122	0.222
-449.924	-72.986	-0.152	0.055
-448.909	800.000	-0.051	-0.160
-447.895	115.067	0.301	0.366
-446.880	-118.647	-0.156	0.027
-445.865	-132.862	-0.259	0.033
-444.851	6.180	-0.172	0.127
-443.836	102.899	0.129	-0.151
-442.822	26.601	0.089	-0.075
-441.807	150.857	0.093	-0.126
-440.792	103.162	-0.046	-0.053
-439.778	1.262	-0.191	-0.136
-438.763	800.000	-0.097	0.274
-437.749	-28.664	0.182	0.104
-436.734	6.953	0.273	-0.202
-435.719	-29.281	-0.260	0.148
-434.705	-200.000	-0.011	-0.255
-433.690	-18.915	-0.176	-0.109
-432.676	-35.829	0.383	-0.206
-431.661	74.333	-0.355	-0.371
-430.646	321.973	-0.133	0.252
-429.632	-69.164	0.100	0.038
-428.617	-100.279	-0.314	0.078
-427.603	-12.096	0.386	0.252
-426.588	4.344	0.095	-0.069
-425.573	180.563	0.023	-0.033
-424.559	-200.000	0.001	0.148
-423.544	800.000	0.047	0.164
-422.530	-157.450	-0.105	0.006
-421.515	-200.000	-0.005	-0.333
-420.500	346.601	-0.144	-0.282
-419.486	-23.224	-0.305	0.183
-418.471	217.935	0.054	0.086
-417.457	800.000	-0.081	-0.269
-416.442	-200.000	-0.043	0.208
-415.428	-69.833	-0.196	-0.074
-414.413	198.602	0.165	-0.251
-413.398	-1.310	-0.095	-0.067
-412.384	-99.502	0.242	-0.061
-411.369	102.343	0.065	-0.076
-410.355	-106.704	0.171	0.038
-409.340	-200.000	-0.017	-0.356
-408.325	429.163	0.207	0.445
-407.311	800.000	0.081	-0.296
-406.296	423.317	-0.165	-0.352
-405.282	-34.445	-0.122	-0.066
-404.267	-119.742	-0.071	-0.012
-403.252	110.160	0.178	-0.213
-402.238	-200.000	0.013	-0.108
-401.223	351.085	0.060	-0.118
-400.209	67.007	-0.226	0.229
-399.194	-148.702	-0.491	-0.040
-398.179	-100.330	0.209	-0.052
-397.165	-200.000	-0.021	0.236
-396.150	-66.072	-0.208	-0.083
-395.136	156.142	-0.095	0.130
-394.121	113.432	0.053	-0.064
-393.106	-126.555	-0.359	-0.053
-392.092	447.974	-0.076	0.167
-391.077	-93.981	-0.260	-0.071
-390.063	800.000	-0.057	0.235
-389.048	27.901	-0.279	-0.233
-388.033	92.595	-0.046	0.052
-387.019	46.573	0.120	0.110
-386.004	-200.000	0.006	-0.234
-384.990	513.304	0.179	-0.414
-383.975	-67.823	-0.172	0.067
-382.960	-200.000	0.020	0.328
-381.946	-96.342	-0.128	-0.034
-380.931	-58.731	-0.175	0.075
-379.917	-200.000	-0.129	-0.000
-378.902	94.797	0.051	-0.057
-377.888	800.000	0.080	-0.267
-376.873	316.057	-0.118	0.221
-375.858	800.000	0.051	-0.212
-374.844	-27.479	-0.244	0.141
-373.829	269.231	0.044	0.076
-372.815	97.651	0.252	-0.288
-371.800	-43.357	-0.158	-0.079
-370.785	57.473	0.042	-0.041
-369.771	-16.841	0.156	-0.098
-368.756	41.792	0.065	-0.058
-367.742	800.000	-0.055	0.216
-366.727	-97.208	0.347	0.090
-365.712	-200.000	0.060	0.346
-364.698	800.000	-0.028	-0.087
-363.683	-132.081	-0.181	-0.023
-362.669	138.424	-0.062	-0.081
-361.654	-200.000	0.026	-0.157
-360.639	800.000	-0.014	0.041
-359.625	-82.109	-0.299	-0.097
-358.610	454.612	-0.090	0.197
-357.596	-200.000	0.031	-0.293
-356.581	-177.020	0.105	0.003
-355.566	-70.762	-0.263	0.099
-354.552	-200.000	0.018	-0.283
-353.537	-200.000	-0.030	0.161
-352.523	437.555	-0.140	0.302
-351.508	-200.000	0.002	-0.015
-350.493	800.000	-0.085	0.254
-349.479	509.871	-0.049	-0.113
-348.464	-158.144	0.131	-0.008
-347.450	-200.000	-0.018	-0.117
-346.435	153.970	-0.196	-0.266
-345.420	-49.805	0.107	0.050
-344.406	-166.080	0.512	0.022
-343.391	78.613	-0.424	-0.449
-342.377	141.302	0.237	-0.311
-341.362	11.786	-0.212	-0.161
-340.348	749.220	0.122	0.327
-339.333	124.485	-0.009	-0.011
-338.318	-200.000	0.006	-0.129
-337.304	-66.595	0.160	-0.063
-336.289	-42.589	0.038	0.019
-335.275	-93.029	-0.309	0.085
-334.260	-1.499	0.133	-0.093
-333.245	-26.725	0.431	-0.250
-332.231	-130.706	-0.157	-0.021
-331.216	800.000	0.063	-0.202
-330.202	469.819	0.083	0.185
-329.187	-200.000	-0.020	0.091
-328.172	53.580	-0.085	0.081
-327.158	167.079	-0.243	-0.342
-326.143	-200.000	-0.003	0.059
-325.129	14.293	-0.132	0.102
-324.114	-68.465	-0.120	0.046
-323.099	-6.732	0.114	0.077
-322.085	165.463	-0.029	0.040
-321.070	-200.000	-0.008	-0.488
-320.056	-22.040	0.219	-0.132
-319.041	-5.482	0.222	0.151
-318.026	32.462	0.196	-0.168
-317.012	-55.850	0.231	0.102
-315.997	19.256	0.117	0.093
-314.983	-91.722	-0.113	-0.032
-313.968	-182.647	0.302	0.005
-312.953	-52.038	-0.226	-0.104
-311.939	-200.000	-0.032	0.253
-310.924	86.412	0.065	0.070
-309.910	-200.000	-0.013	0.178
-308.895	2.791	-0.326	-0.234
-307.880	-200.000	0.019	0.132
-306.866	-99.976	0.118	0.029
-305.851	431.473	0.089	-0.192
-304.837	329.553	-0.126	0.240
-303.822	-200.000	0.005	-0.202
-302.807	20.223	0.155	0.124
-301.793	35.328	-0.223	-0.194
-300.778	79.217	0.139	0.147
-299.764	311.269	0.117	0.217
-298.749	-117.226	-0.187	0.034
-297.735	25.583	0.073	0.060
-296.720	-151.425	0.118	0.009
-295.705	375.580	0.098	0.198
-294.691	-200.000	-0.011	0.095
-293.676	-171.868	-0.090	0.003
-292.662	-49.919	-0.209	0.098
-291.647	-126.833	-0.179	-0.026
-290.632	79.697	0.048	-0.051
-289.618	-200.000	-0.001	-0.054
-288.603	800.000	-0.098	0.298
-287.589	-145.058	0.130	0.012
-286.574	2.038	-0.087	0.062
-285.559	265.213	0.174	0.301
-284.545	143.843	0.247	0.326
-283.530	800.000	0.021	0.078
-282.516	800.000	-0.051	0.175
-281.501	198.857	0.147	-0.222
-280.486	-56.966	0.248	-0.108
-279.472	54.866	-0.321	0.306
-278.457	-47.882	-0.332	0.159
-277.443	-46.623	0.195	-0.095
-276.428	-46.815	0.333	-0.161
-275.413	102.050	0.089	-0.102
-274.399	-4.600	0.127	-0.086
-273.384	384.111	0.149	-0.303
-272.370	-200.000	-0.038	0.486
-271.355	-200.000	0.012	0.192
-270.340	-70.681	0.281	0.105
-269.326	-48.374	0.230	-0.109
-268.311	-40.855	-0.321	0.164
-267.297	6.665	0.238	-0.175
-266.282	111.771	0.137	0.164
-265.267	-86.478	-0.230	-0.070
-264.253	51.533	-0.252	0.237
-263.238	800.000	0.121	-0.344
-262.224	-108.717	-0.312	0.066
-261.209	-3.415	-0.298	0.205
-260.195	-126.076	0.231	0.034
-259.180	319.425	-0.121	0.226
-258.165	433.717	-0.130	0.278
-257.151	-34.812	0.278	0.150
-256.136	-200.000	0.023	0.117
-255.122	-23.775	-0.086	0.051
-254.107	419.794	-0.110	0.232
-253.092	-200.000	-0.006	0.060
-252.078	-95.734	-0.145	0.038
-251.063	-12.506	-0.075	-0.049
-250.049	-12.605	0.174	0.112
-249.034	-94.519	-0.239	-0.064
-248.019	-200.000	-0.070	0.307
-247.005	-200.000	0.042	0.184
-245.990	-22.369	0.069	-0.041
-244.976	-41.546	-0.052	-0.027
-243.961	46.778	0.151	-0.138
-242.946	800.000	0.036	0.106
-241.932	-27.139	0.369	-0.213
-240.917	53.814	0.070	0.066
-239.903	-75.071	-0.214	0.076
-238.888	477.396	0.006	0.014
-237.873	-78.152	0.162	0.055
-236.859	71.074	0.278	0.284
-235.844	-89.136	-0.240	-0.070
-234.830	141.213	-0.283	0.369
-233.815	-18.987	-0.087	-0.053
-232.800	241.271	0.105	0.173
-231.786	240.609	-0.053	0.087
-230.771	-51.389	-0.257	-0.119
-229.757	800.000	-0.026	-0.077
-228.742	-129.999	0.326	0.044
-227.727	127.192	0.132	-0.165
-226.713	-86.177	-0.085	-0.026
-225.698	800.000	-0.031	0.111
-224.684	-99.936	-0.190	0.047
-223.669	800.000	0.053	-0.220
-222.655	-81.540	0.299	0.097
-221.640	-140.146	0.181	-0.019
-220.625	-200.000	-0.011	-0.302
-219.611	-200.000	0.026	-0.262
-218.596	641.540	-0.111	0.278
-217.582	5.880	0.305	0.223
-216.567	-102.298	0.250	0.059
-215.552	-78.873	0.406	-0.136
-214.538	-92.104	-0.062	-0.017
-213.523	-92.630	-0.163	-0.045
-212.509	-117.280	0.357	0.064
-211.494	-7.507	-0.125	0.084
-210.479	616.949	0.144	-0.357
-209.465	800.000	0.049	0.194
-208.450	-200.000	0.006	-0.096
-207.436	-91.653	0.211	-0.059
-206.421	322.869	0.013	-0.025
-205.406	-135.150	0.271	0.032
-204.392	-23.391	0.167	0.099
-203.377	-200.000	-0.053	-0.656
-202.363	-55.928	-0.127	-0.056
-201.348	-145.824	0.026	0.002
-200.333	-200.000	-0.100	-0.447
-199.319	-116.352	-0.406	-0.074
-198.304	-200.000	-0.009	0.155
-197.290	-200.000	-0.004	0.083
-196.275	-190.376	-0.327	0.004
-195.260	-127.523	0.366	0.052
-194.246	66.909	0.069	0.069
-193.231	425.928	0.210	0.447
-192.217	-43.039	0.138	-0.069
-191.202	99.599	0.220	0.251
-190.187	-200.000	-0.001	0.247
-189.173	6.339	-0.220	-0.161
-188.158	664.916	0.109	-0.278
-187.144	488.288	0.083	-0.186
-186.129	289.378	0.176	0.314
-185.114	-9.410	0.151	0.099
-184.100	-200.000	0.019	-0.179
-183.085	14.321	0.175	-0.135
-182.071	45.736	0.211	0.192
-181.056	83.949	-0.070	0.076
-180.042	49.831	-0.191	-0.177
-179.027	268.144	0.093	-0.160
-178.012	-200.000	-0.031	-0.341
-176.998	17.385	0.089	-0.070
-175.983	592.988	0.050	-0.123
-174.969	299.718	0.180	-0.326
-173.954	-84.370	-0.210	0.066
-172.939	45.270	-0.202	0.184
-171.925	-124.630	0.339	0.052
-170.910	364.695	-0.036	-0.070
-169.896	-200.000	-0.040	0.372
-168.881	-79.920	-0.108	-0.036
-167.866	-155.578	0.050	-0.003
-166.852	741.450	0.063	0.166
-165.837	21.250	-0.050	-0.040
-164.823	93.514	0.146	0.163
-163.808	107.206	0.197	-0.231
-162.793	-200.000	0.026	-0.138
-161.779	35.425	0.055	0.047
-160.764	-132.015	0.041	-0.005
-159.750	-18.828	-0.396	-0.243
-158.735	62.145	0.015	-0.014
-157.720	429.869	0.133	0.283
-156.706	157.272	0.143	0.195
-155.691	-200.000	0.034	-0.162
-154.677	-0.063	0.199	0.139
-153.662	-200.000	-0.039	-0.179
-152.647	194.304	-0.159	-0.237
-151.633	-200.000	0.047	0.296
-150.618	-18.458	0.263	-0.162
-149.604	249.040	-0.204	0.340
-148.589	6.226	-0.140	0.102
-147.574	180.805	0.071	0.102
-146.560	470.861	0.175	-0.387
-145.545	-200.000	0.014	0.183
-144.531	-19.258	0.270	0.165
-143.516	-200.000	0.016	0.185
-142.502	-59.374	-0.335	0.142
-141.487	-185.717	-0.143	-0.002
-140.472	-200.000	0.022	-0.118
-139.458	-11.696	0.057	-0.037
-138.443	148.125	0.155	0.206
-137.429	-27.909	-0.100	-0.057
-136.414	72.389	0.130	0.133
-135.399	-60.854	0.172	-0.072
-134.385	344.003	-0.108	-0.208
-133.370	-200.000	-0.062	-0.316
-132.356	-200.000	0.023	0.132
-131.341	367.187	0.045	-0.090
-130.326	-157.997	0.244	0.014
-129.312	-21.084	-0.101	0.061
-128.297	-69.446	-0.123	-0.046
-127.283	-200.000	0.001	0.312
-126.268	-118.427	0.140	0.024
-125.253	126.149	-0.112	-0.139
-124.239	324.790	0.064	-0.120
-123.224	800.000	-0.139	-0.377
-122.210	800.000	-0.047	-0.145
-121.195	-20.375	-0.322	0.195
-120.180	-200.000	-0.048	0.258
-119.166	800.000	0.069	-0.239
-118.151	51.240	0.183	0.171
-117.137	-26.686	0.079	-0.045
-116.122	437.889	0.044	-0.095
-115.107	-43.130	-0.057	0.028
-114.093	-41.709	-0.163	-0.082
-113.078	251.619	0.161	0.270
-112.064	-55.712	0.067	-0.030
-111.049	-176.386	-0.356	-0.009
-110.034	420.639	0.075	0.158
-109.020	232.143	0.058	-0.093
-108.005	49.661	0.353	-0.327
-106.991	-33.920	-0.048	0.026
-105.976	-54.494	-0.274	0.122
-104.962	-200.000	-0.048	-0.321
-103.947	83.120	0.127	-0.136
-102.932	-70.885	-0.074	0.027
-101.918	-1.608	-0.272	-0.189
-100.903	-200.000	-0.028	-0.325
-99.889	58.775	-0.113	-0.109
-98.874	-3.287	-0.414	-0.284
-97.859	-22.977	-0.222	-0.131
-96.845	99.456	0.172	-0.195
-95.830	-200.000	-0.003	0.367
-94.816	94.560	-0.066	0.074
-93.801	-200.000	-0.007	-0.175
-92.786	-138.373	0.209	0.023
-91.772	-69.435	-0.337	0.127
-90.757	261.871	-0.282	0.479
-89.743	-135.713	0.354	0.041
-88.728	86.330	0.216	0.233
-87.713	-96.837	0.199	0.051
-86.699	-140.553	0.393	-0.040
-85.684	82.351	0.013	0.014
-84.670	-200.000	0.004	0.069
-83.655	-76.329	-0.333	-0.115
-82.640	-200.000	-0.025	0.169
-81.626	-200.000	-0.005	0.306
-80.611	-94.394	-0.218	0.058
-79.597	10.135	0.102	0.076
-78.582	335.796	-0.115	-0.218
-77.567	207.739	-0.141	-0.217
-76.553	216.521	0.080	0.125
-75.538	-59.593	0.182	-0.077
-74.524	-200.000	0.026	0.134
-73.509	-80.682	0.291	-0.095
-72.494	-86.012	-0.410	0.124
-71.480	-41.775	0.358	0.180
-70.465	-200.000	-0.038	0.219
-69.451	-89.105	0.397	0.115
-68.436	-62.365	0.260	0.106
-67.422	-106.372	0.086	0.019
-66.407	226.180	-0.076	0.121
-65.392	-63.133	0.087	0.035
-64.378	800.000	0.134	0.437
-63.363	-137.658	-0.343	0.038
-62.349	-91.103	0.152	0.043
-61.334	169.448	-0.731	-1.024
-60.319	11.149	0.494	0.370
-59.305	788.919	-0.387	-1.041
-58.290	376.553	0.382	0.764
-57.276	749.697	0.675	1.785
-56.261	-200.000	101.661	609.798
-55.246	529.008	1448.955	3352.697
-54.232	183.905	2651.582	3845.708
-53.217	107.528	2280.370	2659.852
-52.203	39.760	1892.986	1664.863
-51.188	33.951	1680.730	1434.450
-50.173	31.243	1637.555	1377.600
-49.159	49.680	1687.767	1558.311
-48.144	50.458	1704.561	1579.583
-47.130	33.526	1662.399	1415.404
-46.115	30.690	1648.536	1382.509
-45.100	30.592	1643.675	1377.651
-44.086	30.586	1641.237	1375.506
-43.071	30.566	1638.445	1372.964
-42.057	30.593	1635.887	1370.966
-41.042	30.612	1633.776	1369.285
-40.027	30.581	1632.284	1367.748
-39.013	30.624	1629.834	1365.959
-37.998	30.608	1628.879	1364.988
-36.984	30.568	1627.828	1363.758
-35.969	30.757	1625.792	1363.380
-34.954	30.668	1624.352	1361.470
-33.940	30.707	1622.268	1359.953
-32.925	30.706	1620.595	1358.487
-31.911	30.635	1619.073	1356.640
-30.896	30.669	1617.207	1355.274
-29.881	30.650	1615.663	1353.786
-28.867	30.635	1613.815	1352.078
-27.852	30.724	1612.793	1351.812
-26.838	30.707	1611.386	1350.458
-25.823	30.718	1609.422	1348.837
-24.809	30.705	1608.389	1347.820
-23.794	30.757	1606.993	1346.979
-22.779	30.691	1605.779	1345.425
-21.765	30.691	1603.700	1343.632
-20.750	30.681	1602.365	1342.387
-19.736	30.649	1601.182	1341.113
-18.721	30.687	1599.278	1339.739
-17.706	30.697	1597.781	1338.500
-16.692	30.698	1596.155	1337.098
-15.677	30.665	1595.234	1336.033
-14.663	30.704	1593.792	1335.055
-13.648	30.720	1592.708	1334.203
-12.633	30.729	1590.784	1332.607
-11.619	30.669	1589.248	1330.835
-10.604	30.737	1587.532	1329.837
-9.590	30.770	1586.427	1329.095
-8.575	30.723	1585.241	1327.708
-7.560	30.747	1584.109	1326.882
-6.546	30.752	1583.300	1326.188
-5.531	30.761	1582.010	1325.115
-4.517	30.763	1580.910	1324.155
-3.502	30.721	1579.508	1322.632
-2.487	30.750	1578.385	1321.843
-1.473	30.419	1565.934	1309.035
-0.458	27.455	1546.509	1272.071
0.556	21.620	1547.441	1240.384
1.571	19.354	1571.832	1243.504
2.586	18.969	1585.735	1251.588
3.600	17.242	1533.339	1197.964
4.615	9.211	1424.925	1060.355
5.629	1.288	1360.359	962.143
6.644	-0.186	1351.999	946.856
7.659	-0.337	1351.134	945.214
8.673	-0.345	1349.538	943.968
9.688	-0.352	1347.595	942.480
10.702	-0.570	1344.661	938.977
11.717	2.567	1350.883	962.981
12.731	11.685	1368.170	1033.052
13.746	18.743	1380.890	1087.421
14.761	20.343	1381.685	1098.078
15.775	20.470	1381.172	1098.373
16.790	20.501	1381.014	1098.350
17.804	20.591	1380.421	1098.348
18.819	20.825	1380.241	1099.586
19.834	20.930	1379.796	1099.796
20.848	20.869	1378.825	1098.538
21.863	20.909	1377.661	1097.769
22.877	20.939	1376.305	1096.781
23.892	20.980	1375.945	1096.651
24.907	20.923	1375.643	1095.953
25.921	20.974	1374.192	1095.024
26.936	20.973	1373.396	1094.285
27.950	21.014	1372.342	1093.605
28.965	20.968	1370.716	1091.928
29.980	21.030	1369.133	1090.959
30.994	20.949	1368.951	1090.210
32.009	20.962	1367.405	1088.965
33.023	20.927	1366.407	1087.853
34.038	21.035	1364.767	1087.124
35.053	20.894	1364.289	1085.769
36.067	20.914	1363.088	1084.843
37.082	20.930	1361.925	1083.918
38.096	21.016	1361.013	1083.633
39.111	20.934	1360.562	1082.664
40.126	20.881	1359.931	1081.741
41.140	20.825	1359.485	1080.943
42.155	20.897	1359.449	1081.266
43.169	20.874	1359.111	1080.756
44.184	20.926	1358.729	1080.680
45.199	20.895	1357.959	1079.778
46.213	20.888	1357.465	1079.249
47.228	20.912	1356.663	1078.661
48.242	21.010	1354.906	1077.775
49.257	21.012	1354.020	1076.991
50.271	20.861	1352.730	1074.940
51.286	20.879	1351.123	1073.673
52.301	20.912	1349.829	1072.756
53.315	20.954	1349.059	1072.307
54.330	20.946	1348.047	1071.361
55.344	20.973	1346.917	1070.532
56.359	20.975	1346.190	1069.869
57.374	21.030	1345.416	1069.502
58.388	20.881	1344.677	1067.905
59.403	20.963	1344.027	1067.797
60.417	20.931	1343.714	1067.258
61.432	20.708	1343.426	1065.571
62.447	20.922	1341.877	1065.556
63.461	21.037	1340.525	1065.091
64.476	20.982	1339.689	1063.995
65.490	20.983	1338.435	1062.906
66.505	20.909	1337.107	1061.310
67.520	20.983	1335.773	1060.606
68.534	20.982	1334.699	1059.653
69.549	20.964	1333.673	1058.636
70.563	21.014	1332.622	1058.015
71.578	20.997	1331.554	1056.971
72.593	20.935	1330.825	1055.920
73.607	20.975	1330.103	1055.496
74.622	20.910	1329.385	1054.441
75.636	20.870	1329.289	1054.030
76.651	20.966	1328.132	1053.600
77.666	20.992	1327.583	1053.225
78.680	20.991	1326.947	1052.622
79.695	20.982	1326.397	1052.038
80.709	20.986	1325.569	1051.315
81.724	20.933	1324.247	1049.851
82.739	20.958	1323.280	1049.140
83.753	20.965	1322.554	1048.517
84.768	20.963	1321.370	1047.475
85.782	21.012	1319.954	1046.553
86.797	20.982	1318.982	1045.507
87.812	20.947	1317.990	1044.418
88.826	20.950	1317.124	1043.660
89.841	20.957	1316.430	1043.061
90.855	21.072	1314.998	1042.518
91.870	21.109	1313.834	1041.723
92.884	20.943	1313.165	1040.113
93.899	21.040	1312.438	1040.023
94.914	21.056	1311.805	1039.524
95.928	20.990	1311.023	1038.420
96.943	21.204	1309.524	1038.416
97.957	21.100	1309.365	1037.578
98.972	21.040	1307.949	1036.009
99.987	20.975	1307.271	1034.991
101.001	20.997	1306.423	1034.359
102.016	20.980	1305.521	1033.452
103.030	21.097	1303.922	1032.790
104.045	21.023	1303.657	1032.048
105.060	21.058	1302.445	1031.207
106.074	21.122	1301.229	1030.528
107.089	21.072	1300.151	1029.291
108.103	21.132	1299.143	1028.755
109.118	21.091	1298.209	1027.682
110.133	21.096	1297.149	1026.782
111.147	21.095	1295.823	1025.635
112.162	21.070	1294.448	1024.307
113.176	21.113	1293.462	1023.689
114.191	21.101	1292.950	1023.125
115.206	21.127	1291.714	1022.209
116.220	21.120	1290.549	1021.154
117.235	21.089	1289.493	1020.050
118.249	20.989	1288.979	1018.965
119.264	21.115	1287.461	1018.413
120.279	21.179	1286.692	1018.088
121.293	21.150	1285.875	1017.180
122.308	21.153	1284.937	1016.364
123.322	21.154	1283.984	1015.527
124.337	21.130	1283.212	1014.690
125.352	21.238	1282.044	1014.306
126.366	21.226	1280.902	1013.238
127.381	21.230	1280.716	1013.025
128.395	21.199	1279.469	1011.769
129.410	21.209	1278.488	1010.963
130.424	21.193	1277.944	1010.353
131.439	21.131	1277.021	1009.173
132.454	21.113	1276.283	1008.399
133.468	21.125	1275.411	1007.688
134.483	21.189	1274.633	1007.354
135.497	21.097	1274.070	1006.291
136.512	21.029	1273.147	1005.082
137.527	21.158	1271.547	1004.467
138.541	21.162	1270.337	1003.449
139.556	21.142	1268.579	1001.855
140.570	21.241	1267.722	1001.661
141.585	21.191	1266.672	1000.456
142.600	21.045	1265.868	998.896
143.614	21.061	1264.999	998.211
144.629	21.155	1263.692	997.632
145.643	21.023	1262.633	995.951
146.658	21.049	1261.637	995.225
147.673	21.141	1260.517	994.775
148.687	21.112	1259.738	993.910
149.702	20.995	1258.291	992.017
150.716	21.119	1256.968	991.586
151.731	21.167	1256.603	991.485
152.746	21.123	1255.351	990.162
153.760	21.155	1254.129	989.289
154.775	21.272	1252.871	988.872
155.789	21.170	1251.962	987.491
156.804	21.199	1251.057	986.855
157.819	21.167	1250.130	985.853
158.833	21.190	1249.647	985.516
159.848	21.201	1248.864	984.876
160.862	21.217	1247.977	984.178
161.877	21.233	1246.667	983.147
162.892	21.112	1246.686	982.396
163.906	21.286	1245.361	982.243
164.921	21.258	1245.379	982.013
165.935	21.331	1243.677	980.989
166.950	21.215	1243.358	980.004
167.964	21.314	1242.304	979.640
168.979	21.383	1242.118	979.797
169.994	21.285	1241.593	978.745
171.008	21.330	1240.705	978.206
172.023	21.333	1239.774	977.404
173.037	21.324	1239.257	976.861
174.052	21.289	1238.589	976.051
175.067	21.281	1237.836	975.328
176.081	21.262	1236.940	974.431
177.096	21.192	1236.560	973.651
178.110	21.181	1235.448	972.630
179.125	21.346	1234.207	972.483
180.140	21.222	1233.471	971.130
181.154	21.292	1232.074	970.332
182.169	21.356	1230.821	969.618
183.183	21.392	1229.814	968.935
184.198	21.400	1229.123	968.348
185.213	21.350	1227.863	966.997
186.227	21.402	1227.441	966.864
187.242	21.381	1226.205	965.691
188.256	21.335	1225.568	964.849
189.271	21.371	1224.540	964.151
190.286	21.408	1223.734	963.636
191.300	21.219	1223.769	962.535
192.315	21.297	1223.344	962.546
193.329	21.341	1222.711	962.205
194.344	21.368	1221.996	961.705
195.359	21.434	1221.613	961.681
196.373	21.308	1220.995	960.422
197.388	21.316	1220.483	959.973
198.402	21.272	1220.151	959.387
199.417	21.404	1219.644	959.627
200.432	21.279	1219.526	958.765
201.446	21.399	1218.616	958.621
202.461	21.405	1217.991	958.082
203.475	21.316	1216.994	956.724
204.490	21.439	1216.060	956.580
205.504	21.324	1215.331	955.288
206.519	21.418	1214.033	954.697
207.534	21.509	1213.229	954.481
208.548	21.423	1211.955	952.925
209.563	21.343	1211.690	952.197
210.577	21.420	1210.195	951.352
211.592	21.361	1210.283	951.016
212.607	21.612	1208.986	951.278
213.621	21.532	1208.336	950.249
214.636	21.452	1207.791	949.304
215.650	21.554	1206.825	949.010
216.665	21.448	1205.787	947.537
217.680	21.410	1205.041	946.663
218.694	21.531	1204.183	946.558
219.709	21.513	1203.523	945.860
220.723	21.588	1202.597	945.452
221.738	21.457	1202.122	944.290
222.753	21.435	1201.357	943.487
223.767	21.394	1201.041	942.934
224.782	21.542	1200.046	942.865
225.796	21.741	1199.145	943.143
226.811	21.526	1199.094	941.863
227.826	21.604	1198.533	941.760
228.840	21.564	1197.554	940.691
229.855	21.573	1197.215	940.389
230.869	21.616	1196.706	940.140
231.884	21.633	1196.042	939.624
232.899	21.683	1194.639	938.709
233.913	21.624	1194.568	938.251
234.928	21.710	1193.882	938.092
235.942	21.646	1193.444	937.319
236.957	21.580	1193.004	936.538
237.972	21.604	1192.177	935.937
238.986	21.560	1191.155	934.818
240.001	21.724	1190.775	935.312
241.015	21.768	1190.194	935.006
242.030	21.897	1188.944	934.630
243.045	21.719	1188.627	933.348
244.059	21.705	1187.870	932.599
245.074	21.720	1187.179	932.053
246.088	21.763	1186.147	931.386
247.103	21.780	1185.397	930.809
248.117	21.708	1184.529	929.662
249.132	21.879	1183.523	929.697
250.147	21.823	1182.935	928.852
251.161	21.815	1182.273	928.211
252.176	21.836	1181.897	927.943
253.190	21.867	1181.407	927.642
254.205	21.866	1180.580	926.904
255.220	21.787	1180.138	926.058
256.234	21.862	1179.677	926.011
257.249	21.836	1178.969	925.238
258.263	21.867	1178.158	924.678
259.278	21.813	1177.960	924.161
260.293	21.912	1177.278	924.065
261.307	22.076	1176.307	924.083
262.322	21.851	1176.114	922.663
263.336	21.876	1175.140	921.949
264.351	21.903	1174.463	921.478
265.366	21.926	1173.862	921.046
266.380	21.929	1173.480	920.683
267.395	21.915	1172.612	919.846
268.409	21.969	1172.135	919.674
269.424	21.962	1171.420	918.994
270.439	21.947	1170.947	918.463
271.453	21.884	1170.543	917.735
272.468	21.864	1169.514	916.742
273.482	21.911	1168.875	916.404
274.497	21.968	1168.382	916.236
275.512	21.902	1168.079	915.575
276.526	22.065	1167.140	915.607
277.541	21.982	1166.566	914.642
278.555	22.037	1165.921	914.343
279.570	22.032	1165.155	913.633
280.585	22.016	1164.258	912.767
281.599	22.037	1163.170	911.945
282.614	21.996	1162.788	911.352
283.628	21.994	1161.916	910.576
284.643	21.973	1161.080	909.730
285.657	22.136	1159.802	909.493
286.672	21.967	1159.288	908.134
287.687	22.142	1158.488	908.334
288.701	22.115	1157.978	907.715
289.716	22.054	1156.928	906.496
290.730	22.051	1156.481	906.049
291.745	22.041	1155.974	905.522
292.760	22.227	1155.157	905.759
293.774	22.254	1154.572	905.359
294.789	22.215	1154.509	905.027
295.803	22.207	1153.586	904.183
296.818	22.178	1152.958	903.463
297.833	22.193	1152.322	902.961
298.847	22.178	1151.783	902.379
299.862	22.246	1150.846	901.914
300.876	22.220	1150.004	901.043
301.891	22.227	1149.645	900.717
302.906	22.341	1148.680	900.466
303.920	22.352	1148.310	900.151
304.935	22.321	1147.679	899.420
305.949	22.261	1146.925	898.444
306.964	22.261	1146.504	898.032
307.979	22.276	1145.877	897.537
308.993	22.231	1145.308	896.784
310.008	22.416	1144.136	896.732
311.022	22.288	1143.928	895.833
312.037	22.332	1142.901	895.178
313.052	22.307	1142.279	894.482
314.066	22.343	1141.019	893.599
315.081	22.447	1140.251	893.448
316.095	22.444	1139.827	893.023
317.110	22.370	1139.232	892.101
318.125	22.414	1138.412	891.601
319.139	22.427	1138.090	891.335
320.154	22.384	1137.441	890.531
321.168	22.367	1136.934	889.969
322.183	22.377	1136.061	889.261
323.197	22.402	1135.497	888.865
324.212	22.328	1134.976	888.005
325.227	22.441	1134.806	888.364
326.241	22.452	1133.880	887.614
327.256	22.493	1132.907	886.980
328.270	22.409	1132.508	886.169
329.285	22.393	1131.777	885.437
330.300	22.469	1130.837	885.004
331.314	22.483	1130.022	884.359
332.329	22.503	1129.074	883.642
333.343	22.566	1128.320	883.289
334.358	22.522	1127.694	882.499
335.373	22.604	1127.346	882.558
336.387	22.639	1125.979	881.583
337.402	22.636	1125.804	881.355
338.416	22.653	1124.758	880.542
339.431	22.689	1124.550	880.482
340.446	22.584	1124.390	879.755
341.460	22.592	1123.203	878.787
342.475	22.737	1122.438	878.836
343.489	22.738	1121.170	877.766
344.504	22.704	1120.407	876.923
345.519	22.664	1119.665	876.067
346.533	22.746	1119.032	875.903
347.548	22.734	1118.234	875.139
348.562	22.750	1117.622	874.661
349.577	22.643	1116.746	873.371
350.592	22.610	1116.401	872.862
351.606	22.641	1115.619	872.326
352.621	22.810	1114.912	872.530
353.635	22.779	1114.285	871.811
354.650	22.824	1113.705	871.498
355.665	22.787	1113.070	870.741
356.679	22.714	1112.752	870.060
357.694	22.855	1112.020	870.104
358.708	22.745	1111.562	869.126
359.723	22.783	1110.555	868.448
360.738	22.815	1109.983	868.082
361.752	22.823	1109.682	867.808
362.767	22.741	1108.932	866.740
363.781	22.901	1108.148	866.837
364.796	23.015	1107.778	867.031
365.810	22.857	1107.538	865.993
366.825	22.923	1106.919	865.754
367.840	22.980	1106.517	865.642
368.854	22.982	1105.656	864.903
369.869	22.983	1104.916	864.251
370.883	22.967	1103.999	863.380
371.898	22.940	1103.403	862.707
372.913	22.929	1102.865	862.154
373.927	23.108	1102.240	862.466
374.942	23.073	1102.034	862.054
375.956	22.974	1101.689	861.228
376.971	23.095	1100.540	860.840
377.986	22.963	1100.364	859.987
379.000	23.033	1099.511	859.583
380.015	23.182	1099.313	860.074
381.029	23.036	1098.558	858.701
382.044	22.973	1097.812	857.734
383.059	23.149	1097.157	858.001
384.073	23.098	1096.148	856.890
385.088	23.161	1095.692	856.763
386.102	23.173	1094.493	855.805
387.117	23.180	1093.403	854.914
388.132	23.070	1093.117	854.083
389.146	23.209	1092.508	854.199
390.161	23.092	1091.983	853.151
391.175	23.214	1090.940	852.851
392.190	23.200	1090.549	852.401
393.205	23.112	1089.732	851.264
394.219	23.143	1089.049	850.804
395.234	23.266	1087.968	850.473
396.248	23.162	1087.420	849.470
397.263	23.268	1086.507	849.190
398.278	23.261	1086.101	848.763
399.292	23.302	1085.337	848.290
400.307	23.330	1084.668	847.826
401.321	23.231	1084.298	846.987
402.336	23.367	1083.264	846.755
403.350	23.354	1082.543	846.054
404.365	23.271	1081.991	845.153
405.380	23.348	1081.190	844.820
406.394	23.405	1080.541	844.506
407.409	23.335	1080.183	843.818
408.423	23.425	1079.506	843.643
409.438	23.365	1078.723	842.673
410.453	23.305	1078.064	841.798
411.467	23.384	1077.210	841.434
412.482	23.414	1076.702	841.102
413.496	23.345	1075.835	840.026
414.511	23.437	1075.018	839.749
415.526	23.465	1074.744	839.592
416.540	23.438	1074.434	839.146
417.555	23.478	1073.768	838.742
418.569	23.460	1073.296	838.216
419.584	23.632	1072.898	838.644
420.599	23.497	1072.504	837.622
421.613	149.215	1400.160	1798.972
422.628	137.556	1447.871	1799.095
