DTS Sentinel unit serial number:	SN413079Multiplexer serial number:	ORYXHardware model number:	OX4-SRSoftware version number:	ORYX F/W v4.00 Oryx Data Collector v3.7.2.0data status	okinstallation	princeton_trtdifferential loss correction	single-endedforward channel	channel 2reverse channel	N/Adate	2019/09/17time	20:15:34forward acquisition time	60.00reverse acquisition time	0.00gamma	496.2192k internal	0.2334k external	0.2334temperature offset calibration	0.9986default loss term (dB/km)	0.3790temperature slope calibration	1.0000multiplexer offset coefficient	1.0000multiplexer slope coefficient	1.0000fibre end	0.00T internal ref (°C)	31.86T ext. ref 1 (°C)	0.22T ext. ref 2 (°C)	22.12length (m)	temperature (°C)	Stokes	anti-Stokes-747.200	-200.000	-0.000	0.120
-746.185	-34.325	-0.339	0.187
-745.171	-85.459	-0.056	-0.017
-744.156	-130.254	-0.255	-0.035
-743.142	25.838	-0.209	-0.175
-742.127	-101.746	-0.424	-0.103
-741.112	55.640	-0.036	0.035
-740.098	-200.000	-0.046	0.255
-739.083	276.838	-0.090	0.162
-738.069	-200.000	-0.035	0.237
-737.054	-200.000	0.006	-0.144
-736.039	-91.333	-0.235	-0.068
-735.025	-200.000	0.054	0.274
-734.010	6.563	-0.190	-0.142
-732.996	20.217	0.098	0.080
-731.981	-129.037	-0.334	-0.047
-730.966	-200.000	-0.021	-0.116
-729.952	-18.162	0.138	-0.087
-728.937	-85.432	-0.187	-0.058
-727.923	11.672	-0.413	-0.318
-726.908	17.718	-0.263	-0.210
-725.894	-200.000	-0.010	-0.061
-724.879	127.541	-0.146	0.186
-723.864	800.000	-0.091	0.295
-722.850	-119.897	0.264	-0.046
-721.835	-200.000	-0.025	-0.204
-720.821	265.704	-0.101	0.176
-719.806	-55.819	0.288	0.129
-718.791	65.857	-0.129	0.131
-717.777	-107.092	-0.152	-0.034
-716.762	-115.233	-0.326	0.062
-715.748	-86.567	-0.129	-0.040
-714.733	121.982	0.056	-0.070
-713.718	442.567	0.026	-0.057
-712.704	-146.256	-0.238	0.021
-711.689	481.381	-0.144	0.328
-710.675	-19.785	-0.232	-0.144
-709.660	-24.003	-0.163	0.098
-708.645	-141.930	0.075	-0.007
-707.631	-114.604	-0.292	0.056
-706.616	-72.726	0.540	0.200
-705.602	-136.564	-0.065	-0.008
-704.587	338.706	-0.076	0.148
-703.572	-200.000	-0.002	0.076
-702.558	-67.694	0.175	-0.069
-701.543	20.728	-0.033	-0.027
-700.529	-57.754	-0.334	-0.147
-699.514	800.000	-0.044	-0.181
-698.499	-200.000	-0.007	0.250
-697.485	74.491	-0.105	0.111
-696.470	-200.000	0.027	-0.220
-695.456	-200.000	0.056	0.274
-694.441	-65.785	-0.077	-0.031
-693.426	-122.994	-0.318	0.051
-692.412	-72.165	0.336	0.125
-691.397	-13.432	-0.232	-0.151
-690.383	-71.928	-0.169	0.063
-689.368	58.763	-0.125	0.123
-688.354	34.673	-0.151	-0.132
-687.339	-6.098	0.164	-0.112
-686.324	800.000	0.074	0.303
-685.310	-42.662	-0.066	0.034
-684.295	-46.472	0.198	0.097
-683.281	800.000	0.031	-0.115
-682.266	-181.749	-0.105	0.002
-681.251	235.185	-0.159	-0.263
-680.237	-200.000	0.016	-0.199
-679.222	-200.000	-0.025	-0.278
-678.208	-106.738	-0.351	0.078
-677.193	-56.496	0.295	-0.131
-676.178	213.846	-0.325	-0.515
-675.164	-65.835	-0.116	-0.047
-674.149	-108.224	-0.119	-0.026
-673.135	-200.000	0.004	-0.244
-672.120	-29.513	-0.083	-0.048
-671.105	800.000	0.036	0.105
-670.091	-136.790	0.337	-0.039
-669.076	149.774	-0.155	-0.211
-668.062	-108.878	-0.191	0.041
-667.047	-95.567	0.178	0.048
-666.032	3.127	0.234	0.170
-665.018	138.321	-0.074	0.097
-664.003	-66.148	-0.204	0.082
-662.989	202.694	-0.132	0.204
-661.974	-200.000	0.054	-0.265
-660.959	315.992	0.073	0.138
-659.945	-145.265	0.173	0.016
-658.930	800.000	0.082	-0.305
-657.916	-200.000	-0.017	0.083
-656.901	147.363	0.269	0.362
-655.886	420.397	0.071	-0.153
-654.872	-14.437	-0.189	-0.122
-653.857	800.000	0.078	-0.259
-652.843	248.960	0.099	-0.168
-651.828	-141.416	0.161	-0.016
-650.814	-31.301	0.296	0.167
-649.799	-200.000	-0.008	-0.136
-648.784	800.000	-0.121	-0.452
-647.770	-120.815	-0.085	0.014
-646.755	-102.989	0.303	-0.072
-645.741	683.228	0.210	-0.548
-644.726	156.984	0.121	-0.167
-643.711	203.743	0.048	0.074
-642.697	-71.456	-0.326	-0.122
-641.682	-200.000	-0.015	0.088
-640.668	800.000	-0.061	-0.251
-639.653	-83.172	-0.085	-0.027
-638.638	-41.838	0.118	0.061
-637.624	-137.154	-0.422	0.048
-636.609	258.277	-0.158	-0.273
-635.595	-181.669	-0.273	0.005
-634.580	-105.619	0.160	0.036
-633.565	800.000	-0.177	0.499
-632.551	-45.632	-0.028	0.014
-631.536	-159.751	0.109	0.006
-630.522	685.676	-0.094	0.245
-629.507	-31.124	0.060	-0.034
-628.492	132.033	0.157	-0.202
-627.478	63.926	-0.066	0.066
-626.463	-200.000	0.010	-0.154
-625.449	800.000	-0.188	-0.523
-624.434	-96.152	-0.140	0.037
-623.419	-88.885	0.294	-0.087
-622.405	-160.463	0.453	-0.024
-621.390	80.722	-0.241	-0.260
-620.376	-118.278	0.232	0.041
-619.361	-90.500	-0.177	-0.051
-618.346	-136.442	-0.341	-0.040
-617.332	-200.000	-0.035	-0.242
-616.317	-200.000	0.110	-0.487
-615.303	-3.552	0.087	0.060
-614.288	152.495	0.165	0.226
-613.273	313.681	-0.194	-0.365
-612.259	-185.137	0.073	-0.001
-611.244	-92.107	-0.317	0.090
-610.230	-91.399	0.253	-0.072
-609.215	51.665	0.122	0.116
-608.201	-62.151	-0.059	-0.025
-607.186	-122.203	0.150	0.025
-606.171	-114.872	0.211	-0.040
-605.157	30.088	-0.173	0.147
-604.142	-13.450	-0.267	-0.173
-603.128	800.000	0.109	-0.319
-602.113	-200.000	0.008	-0.135
-601.098	-200.000	-0.002	0.116
-600.084	-200.000	-0.058	-0.385
-599.069	-13.897	0.213	-0.138
-598.055	27.097	0.259	-0.217
-597.040	-200.000	-0.001	0.085
-596.025	152.062	0.045	-0.061
-595.011	121.200	0.046	-0.058
-593.996	-68.935	-0.052	0.020
-592.982	58.364	0.249	-0.244
-591.967	-54.002	0.429	-0.195
-590.952	-200.000	0.042	-0.186
-589.938	800.000	0.031	0.116
-588.923	-200.000	-0.069	-0.380
-587.909	-200.000	-0.041	0.415
-586.894	302.511	-0.090	0.167
-585.879	73.081	0.151	0.158
-584.865	249.797	0.167	-0.283
-583.850	108.608	-0.158	0.189
-582.836	-200.000	-0.018	-0.177
-581.821	133.891	-0.092	0.120
-580.806	218.859	0.147	-0.235
-579.792	-24.955	0.162	-0.096
-578.777	-63.542	0.267	-0.109
-577.763	219.713	-0.125	-0.200
-576.748	-200.000	0.019	-0.296
-575.733	-123.090	0.264	0.042
-574.719	712.981	-0.052	-0.138
-573.704	-173.094	0.166	0.005
-572.690	800.000	0.085	-0.337
-571.675	407.172	-0.134	-0.282
-570.661	106.706	-0.152	-0.180
-569.646	-200.000	-0.028	0.155
-568.631	-115.189	0.098	0.018
-567.617	-142.169	-0.173	0.017
-566.602	800.000	0.032	0.100
-565.588	-114.939	-0.167	-0.032
-564.573	619.447	0.064	0.160
-563.558	6.291	-0.127	-0.094
-562.544	-49.496	-0.097	0.046
-561.529	231.698	-0.060	0.098
-560.515	-200.000	0.050	0.277
-559.500	-200.000	0.046	0.363
-558.485	612.494	-0.178	0.443
-557.471	104.069	-0.140	0.165
-556.456	-82.777	0.056	0.018
-555.442	-24.187	0.126	-0.075
-554.427	-60.380	0.092	-0.039
-553.412	-200.000	-0.059	0.288
-552.398	166.024	-0.085	0.120
-551.383	-69.553	0.287	-0.110
-550.369	99.978	0.166	-0.192
-549.354	-43.337	0.122	0.061
-548.339	-107.485	0.470	0.103
-547.325	-140.966	-0.205	-0.021
-546.310	-126.238	0.209	0.031
-545.296	-17.824	-0.186	0.117
-544.281	-200.000	0.032	0.319
-543.266	-74.196	-0.437	0.158
-542.252	800.000	0.048	0.161
-541.237	-155.784	-0.295	-0.019
-540.223	-102.445	0.121	0.029
-539.208	800.000	-0.059	-0.168
-538.193	447.375	0.113	0.247
-537.179	-101.369	-0.076	0.018
-536.164	-117.922	-0.100	-0.018
-535.150	-44.588	0.114	0.057
-534.135	-12.820	-0.012	0.008
-533.121	-200.000	0.010	-0.266
-532.106	-141.079	0.098	-0.010
-531.091	660.798	0.035	0.089
-530.077	-21.343	-0.147	0.089
-529.062	-200.000	-0.002	0.026
-528.048	122.802	-0.216	0.269
-527.033	800.000	0.032	0.121
-526.018	108.970	-0.104	0.124
-525.004	24.548	-0.261	0.216
-523.989	-200.000	-0.028	-0.233
-522.975	-200.000	0.028	-0.291
-521.960	241.263	0.182	-0.303
-520.945	-200.000	-0.023	-0.198
-519.931	-99.140	-0.077	0.019
-518.916	-200.000	-0.002	0.206
-517.902	-13.484	-0.177	-0.114
-516.887	181.934	-0.109	-0.160
-515.872	-112.593	-0.294	-0.058
-514.858	262.892	-0.086	0.149
-513.843	-200.000	0.012	-0.295
-512.829	210.423	0.235	-0.367
-511.814	304.018	0.075	0.139
-510.799	177.600	-0.059	0.086
-509.785	800.000	0.020	-0.081
-508.770	423.013	0.126	-0.270
-507.756	-35.635	-0.098	-0.053
-506.741	9.311	-0.105	-0.079
-505.726	-200.000	0.001	0.108
-504.712	-117.048	-0.348	-0.063
-503.697	-23.300	0.237	0.142
-502.683	216.427	0.152	-0.241
-501.668	779.168	-0.094	-0.257
-500.653	35.480	0.105	0.092
-499.639	-200.000	0.056	0.307
-498.624	774.052	-0.056	-0.152
-497.610	314.760	0.159	-0.298
-496.595	800.000	0.030	-0.115
-495.581	22.459	0.439	-0.357
-494.566	-60.139	-0.425	0.181
-493.551	18.013	0.129	-0.102
-492.537	358.137	0.041	0.081
-491.522	585.391	0.066	-0.160
-490.508	161.584	-0.072	0.101
-489.493	38.473	-0.043	0.038
-488.478	-200.000	0.001	-0.205
-487.464	139.047	0.155	-0.203
-486.449	361.140	0.031	-0.063
-485.435	74.910	-0.054	-0.057
-484.420	225.853	-0.170	0.275
-483.405	159.343	0.232	-0.321
-482.391	-0.698	0.092	0.065
-481.376	182.247	0.112	-0.164
-480.362	-18.354	0.102	-0.064
-479.347	-200.000	-0.048	0.242
-478.332	-51.489	0.320	0.149
-477.318	-72.083	-0.304	-0.112
-476.303	187.116	0.139	-0.205
-475.289	-200.000	0.009	-0.096
-474.274	-176.086	-0.200	0.005
-473.259	-200.000	0.061	-0.297
-472.245	-55.083	-0.291	-0.130
-471.230	-62.878	-0.202	0.083
-470.216	-32.973	0.100	-0.055
-469.201	-140.389	-0.159	-0.017
-468.186	-148.171	-0.392	0.032
-467.172	381.684	-0.087	0.177
-466.157	301.786	0.062	0.114
-465.143	-45.970	0.209	-0.103
-464.128	356.893	-0.069	-0.137
-463.113	541.401	-0.190	0.449
-462.099	211.061	0.050	0.078
-461.084	449.046	0.076	-0.167
-460.070	101.774	0.191	0.221
-459.055	-84.321	0.090	0.028
-458.040	-58.634	-0.135	0.058
-457.026	800.000	0.045	-0.127
-456.011	45.006	0.093	0.085
-454.997	-86.404	0.335	-0.102
-453.982	-60.522	-0.118	-0.050
-452.968	-109.546	0.176	0.037
-451.953	800.000	-0.047	-0.151
-450.938	-33.933	-0.091	-0.050
-449.924	-130.577	-0.114	-0.015
-448.909	-19.628	0.079	0.049
-447.895	-200.000	-0.014	0.100
-446.880	52.666	-0.104	-0.099
-445.865	-200.000	0.008	-0.036
-444.851	-200.000	-0.034	0.369
-443.836	-44.328	0.023	0.011
-442.822	-200.000	-0.020	0.259
-441.807	60.312	0.110	-0.108
-440.792	48.008	-0.225	-0.208
-439.778	227.448	-0.123	-0.199
-438.763	218.837	0.091	-0.144
-437.749	-83.726	0.330	0.104
-436.734	-200.000	-0.001	0.053
-435.719	-118.984	-0.126	0.022
-434.705	-38.132	0.262	-0.138
-433.690	72.674	-0.139	0.144
-432.676	-59.769	0.071	-0.030
-431.661	-28.729	0.037	0.021
-430.646	-75.624	0.120	-0.042
-429.632	-200.000	0.025	0.147
-428.617	123.077	-0.177	0.220
-427.603	-35.148	-0.190	-0.103
-426.588	-200.000	0.007	0.075
-425.573	800.000	0.121	-0.344
-424.559	-200.000	-0.085	0.370
-423.544	230.453	0.079	-0.127
-422.530	41.520	-0.160	-0.144
-421.515	-6.145	-0.138	-0.094
-420.500	-64.572	0.238	0.096
-419.486	800.000	-0.074	-0.205
-418.471	800.000	-0.044	-0.182
-417.457	-200.000	-0.029	-0.164
-416.442	-45.916	0.281	-0.138
-415.428	800.000	-0.143	0.431
-414.413	-159.447	-0.337	0.019
-413.398	800.000	0.046	-0.166
-412.384	-100.128	0.168	0.042
-411.369	691.926	-0.139	-0.361
-410.355	-131.557	0.092	-0.012
-409.340	-7.571	0.174	0.116
-408.325	-200.000	0.014	-0.130
-407.311	-13.307	0.186	0.120
-406.296	-75.556	-0.235	-0.083
-405.282	30.197	-0.285	-0.241
-404.267	-113.994	0.189	-0.036
-403.252	301.338	0.212	0.388
-402.238	-6.084	0.125	-0.085
-401.223	800.000	-0.010	0.041
-400.209	800.000	0.052	0.203
-399.194	98.409	-0.081	-0.093
-398.179	800.000	-0.036	-0.116
-397.165	45.071	-0.203	0.185
-396.150	-18.335	-0.048	-0.030
-395.136	245.193	0.113	0.188
-394.121	-126.120	-0.526	0.078
-393.106	26.910	0.165	-0.137
-392.092	-200.000	-0.010	0.189
-391.077	611.137	-0.145	-0.360
-390.063	-127.579	-0.054	0.008
-389.048	-25.002	-0.333	0.196
-388.033	-50.492	0.149	-0.070
-387.019	-99.897	0.256	-0.063
-386.004	149.267	-0.270	0.362
-384.990	-19.900	0.263	-0.161
-383.975	800.000	0.040	-0.149
-382.960	-200.000	0.003	-0.037
-381.946	386.092	0.190	-0.389
-380.931	33.267	-0.364	-0.313
-379.917	360.083	0.076	-0.150
-378.902	-145.602	0.250	0.022
-377.888	14.944	-0.048	0.038
-376.873	11.892	0.295	-0.225
-375.858	-128.241	0.176	-0.025
-374.844	89.095	-0.226	-0.249
-373.829	14.353	-0.197	-0.153
-372.815	8.776	-0.295	0.220
-371.800	800.000	-0.038	0.166
-370.785	-200.000	-0.018	0.469
-369.771	-87.527	0.217	0.065
-368.756	800.000	0.025	0.107
-367.742	79.336	-0.049	-0.052
-366.727	800.000	0.036	-0.134
-365.712	-47.071	-0.314	0.152
-364.698	520.110	-0.119	0.276
-363.683	-84.021	-0.564	0.177
-362.669	-200.000	-0.014	0.136
-361.654	-19.145	-0.085	0.052
-360.639	-157.825	-0.128	-0.008
-359.625	800.000	-0.124	-0.470
-358.610	-200.000	0.009	0.293
-357.596	43.261	-0.055	0.049
-356.581	49.461	-0.037	0.035
-355.566	800.000	0.021	-0.090
-354.552	273.268	-0.300	-0.525
-353.537	-200.000	-0.080	0.441
-352.523	-1.712	0.244	0.170
-351.508	-80.997	-0.286	-0.094
-350.493	106.997	-0.268	0.315
-349.479	800.000	0.022	0.087
-348.464	97.434	-0.091	-0.104
-347.450	-27.799	-0.314	0.180
-346.435	-102.027	-0.408	-0.097
-345.420	-14.410	0.066	0.042
-344.406	-101.213	-0.225	0.054
-343.391	800.000	0.053	0.184
-342.377	-56.702	-0.290	0.127
-341.362	694.697	-0.071	0.184
-340.348	-200.000	0.000	0.162
-339.333	-200.000	-0.004	0.125
-338.318	338.913	-0.117	-0.225
-337.304	-22.012	-0.125	0.075
-336.289	-200.000	0.006	0.033
-335.275	-113.606	-0.181	0.035
-334.260	800.000	0.043	0.117
-333.245	-89.917	0.080	0.023
-332.231	90.782	-0.246	0.273
-331.216	-150.574	0.021	0.002
-330.202	-25.476	-0.125	-0.073
-329.187	800.000	-0.007	-0.022
-328.172	7.093	0.375	0.277
-327.158	273.859	-0.141	0.246
-326.143	-200.000	0.013	-0.190
-325.129	-63.538	-0.463	-0.188
-324.114	800.000	0.082	-0.256
-323.099	800.000	0.058	-0.215
-322.085	110.870	-0.259	-0.308
-321.070	-55.262	-0.357	0.159
-320.056	20.676	-0.085	0.068
-319.041	438.844	0.029	0.062
-318.026	172.281	0.166	0.236
-317.012	-28.241	0.104	0.059
-315.997	-8.556	0.072	-0.048
-314.983	800.000	0.043	0.155
-313.968	-25.858	0.331	0.193
-312.953	-149.107	-0.351	0.028
-311.939	-107.444	0.079	-0.017
-310.924	-72.230	-0.057	-0.021
-309.910	329.066	-0.211	0.400
-308.895	-164.370	-0.290	-0.013
-307.880	-142.335	0.399	-0.039
-306.866	733.042	-0.124	0.329
-305.851	55.738	0.060	0.057
-304.837	-200.000	-0.010	0.150
-303.822	-46.974	0.258	0.125
-302.807	800.000	-0.078	0.224
-301.793	-48.683	-0.295	-0.140
-300.778	-101.731	-0.072	0.017
-299.764	168.264	0.089	-0.125
-298.749	-119.291	0.453	-0.078
-297.735	-27.926	0.148	-0.085
-296.720	173.810	0.193	0.275
-295.705	-149.420	-0.255	-0.020
-294.691	-200.000	-0.014	-0.129
-293.676	-81.907	0.200	0.065
-292.662	800.000	-0.101	-0.347
-291.647	-9.925	-0.006	-0.004
-290.632	800.000	-0.027	0.085
-289.618	-200.000	0.016	-0.376
-288.603	-159.236	-0.207	0.012
-287.589	367.903	-0.080	0.160
-286.574	6.077	-0.070	0.051
-285.559	180.793	0.099	0.143
-284.545	521.069	-0.111	0.256
-283.530	21.528	-0.218	-0.175
-282.516	7.913	0.148	0.110
-281.501	-200.000	0.008	0.320
-280.486	-35.287	0.191	0.102
-279.472	148.917	0.190	-0.254
-278.457	636.022	-0.135	0.339
-277.443	-200.000	0.068	0.358
-276.428	-47.131	-0.031	0.015
-275.413	-4.511	-0.208	0.142
-274.399	800.000	0.123	-0.339
-273.384	775.770	0.042	-0.113
-272.370	241.966	0.195	-0.322
-271.355	-68.539	-0.103	-0.039
-270.340	-200.000	-0.022	0.139
-269.326	571.547	-0.074	0.177
-268.311	-200.000	-0.014	0.113
-267.297	86.682	0.197	0.215
-266.282	-200.000	0.036	0.208
-265.267	44.414	0.058	-0.053
-264.253	106.314	0.223	-0.261
-263.238	122.989	0.086	-0.106
-262.224	17.295	-0.116	-0.091
-261.209	-27.896	0.472	0.270
-260.195	54.703	0.017	-0.016
-259.180	-15.375	-0.166	0.105
-258.165	-14.710	-0.086	-0.054
-257.151	-123.552	-0.306	-0.048
-256.136	800.000	-0.045	0.134
-255.122	88.653	0.163	0.179
-254.107	-134.417	-0.179	0.022
-253.092	-200.000	0.040	0.289
-252.078	-177.499	0.193	-0.005
-251.063	-0.327	0.106	0.074
-250.049	800.000	0.023	0.068
-249.034	139.845	-0.072	0.094
-248.019	800.000	0.103	0.309
-247.005	140.345	-0.243	-0.316
-245.990	224.214	-0.212	0.337
-244.976	18.012	-0.129	0.101
-243.961	286.422	0.152	-0.270
-242.946	800.000	0.034	-0.126
-241.932	4.233	0.237	-0.171
-240.917	80.465	-0.119	-0.126
-239.903	76.179	-0.239	0.249
-238.888	-125.948	0.429	0.064
-237.873	90.492	0.057	-0.062
-236.859	355.729	0.185	-0.363
-235.844	-68.804	-0.235	0.090
-234.830	-200.000	0.029	0.148
-233.815	-200.000	0.032	-0.168
-232.800	-117.272	-0.209	0.037
-231.786	-74.182	-0.059	0.021
-230.771	800.000	0.063	-0.210
-229.757	-156.194	-0.066	-0.004
-228.742	-30.550	-0.334	0.186
-227.727	252.350	-0.085	0.143
-226.713	800.000	-0.057	-0.222
-225.698	-200.000	-0.062	-0.295
-224.684	97.909	0.111	-0.125
-223.669	-47.333	-0.130	-0.062
-222.655	8.999	0.178	0.132
-221.640	-139.930	0.149	0.016
-220.625	190.715	0.067	0.099
-219.611	-63.517	0.453	0.183
-218.596	24.523	-0.099	0.080
-217.582	-130.972	0.280	-0.037
-216.567	-64.735	0.020	-0.008
-215.552	-200.000	0.014	-0.106
-214.538	-0.876	0.185	-0.129
-213.523	-45.549	-0.037	-0.018
-212.509	-146.761	0.314	0.027
-211.494	-200.000	-0.016	0.225
-210.479	-113.439	-0.335	0.065
-209.465	800.000	0.083	0.281
-208.450	613.262	0.067	0.165
-207.436	131.500	-0.080	-0.101
-206.421	46.847	0.238	0.218
-205.406	165.777	0.027	-0.038
-204.392	592.250	-0.123	0.300
-203.377	-192.681	0.256	0.002
-202.363	273.238	0.210	-0.364
-201.348	33.370	-0.217	-0.186
-200.333	142.505	-0.202	-0.264
-199.319	-86.593	-0.064	0.019
-198.304	5.098	-0.226	-0.164
-197.290	-200.000	-0.018	-0.230
-196.275	35.797	0.224	0.194
-195.260	327.399	0.128	-0.241
-194.246	-50.822	0.344	0.159
-193.231	-116.055	-0.258	0.047
-192.217	460.728	0.159	0.348
-191.202	-79.337	0.046	0.015
-190.187	196.894	0.015	-0.022
-189.173	-162.425	0.230	0.011
-188.158	194.112	0.057	0.085
-187.144	-84.438	0.247	-0.077
-186.129	-19.320	0.120	-0.074
-185.114	-200.000	0.011	-0.057
-184.100	324.437	-0.058	0.109
-183.085	-200.000	-0.062	0.362
-182.071	7.111	0.143	-0.105
-181.056	793.732	0.173	0.467
-180.042	-81.876	0.272	0.087
-179.027	-96.396	0.257	-0.067
-178.012	53.978	-0.203	0.192
-176.998	-92.839	0.229	0.063
-175.983	800.000	0.101	0.279
-174.969	392.632	-0.116	0.238
-173.954	-64.489	-0.106	0.042
-172.939	149.834	0.135	0.179
-171.925	-148.774	-0.044	-0.004
-170.910	163.096	-0.086	0.119
-169.896	800.000	-0.070	-0.212
-168.881	-200.000	0.021	0.131
-167.866	146.570	0.190	0.251
-166.852	87.607	0.221	0.241
-165.837	-105.943	-0.289	-0.064
-164.823	-200.000	-0.035	-0.282
-163.808	430.509	-0.108	-0.230
-162.793	-90.984	-0.240	0.068
-161.779	800.000	-0.067	-0.252
-160.764	541.448	-0.090	0.210
-159.750	-198.655	0.521	0.003
-158.735	-51.796	0.291	0.133
-157.720	-200.000	0.005	-0.076
-156.706	-29.444	0.278	-0.156
-155.691	-200.000	0.003	0.134
-154.677	183.482	0.096	-0.139
-153.662	58.013	0.272	0.261
-152.647	121.525	0.052	-0.064
-151.633	353.550	0.175	0.341
-150.618	-62.515	-0.141	0.057
-149.604	-46.855	0.233	-0.112
-148.589	-200.000	-0.054	0.243
-147.574	290.291	-0.143	0.255
-146.560	-200.000	-0.030	0.135
-145.545	-91.302	0.144	-0.040
-144.531	164.811	0.148	0.204
-143.516	-89.794	-0.168	0.048
-142.502	57.149	-0.082	-0.079
-141.487	6.375	-0.081	-0.059
-140.472	261.986	0.066	0.112
-139.458	800.000	-0.134	0.454
-138.443	-90.155	-0.150	-0.043
-137.429	708.629	-0.117	-0.305
-136.414	-144.650	0.165	0.015
-135.399	433.913	0.139	0.296
-134.385	-96.467	-0.237	0.061
-133.370	800.000	0.042	-0.128
-132.356	41.152	-0.109	-0.097
-131.341	232.464	-0.177	0.285
-130.326	800.000	-0.035	0.115
-129.312	-36.393	0.298	0.158
-128.297	-200.000	0.002	-0.086
-127.283	654.443	0.068	0.171
-126.268	92.940	0.090	0.099
-125.253	800.000	-0.022	0.062
-124.239	-200.000	-0.020	-0.304
-123.224	-19.419	0.336	0.204
-122.210	-39.478	0.167	-0.086
-121.195	-200.000	-0.023	0.294
-120.180	136.460	0.257	0.329
-119.166	20.612	0.083	-0.065
-118.151	86.142	-0.136	-0.147
-117.137	35.704	-0.171	-0.147
-116.122	26.080	0.276	0.226
-115.107	-200.000	-0.042	-0.293
-114.093	749.987	-0.014	0.038
-113.078	166.590	0.066	-0.092
-112.064	72.414	0.165	0.169
-111.049	411.241	-0.043	-0.090
-110.034	165.581	0.052	-0.073
-109.020	-93.367	0.227	0.062
-108.005	800.000	0.012	0.050
-106.991	-154.435	0.220	0.014
-105.976	-200.000	0.072	-0.475
-104.962	116.366	-0.204	0.246
-103.947	-46.210	-0.239	0.115
-102.932	-167.194	-0.181	0.007
-101.918	-9.688	0.185	-0.121
-100.903	-200.000	-0.026	0.148
-99.889	-114.324	0.172	-0.033
-98.874	14.897	0.079	-0.061
-97.859	129.507	0.174	0.218
-96.845	608.235	0.166	-0.405
-95.830	-163.266	-0.257	-0.012
-94.816	54.931	-0.204	-0.193
-93.801	800.000	-0.017	-0.049
-92.786	-84.900	-0.291	-0.090
-91.772	-31.644	0.132	0.073
-90.757	-156.162	0.165	-0.010
-89.743	428.320	0.077	0.164
-88.728	-200.000	0.061	0.328
-87.713	-63.387	-0.158	-0.064
-86.699	366.003	0.066	-0.131
-85.684	-200.000	-0.063	0.536
-84.670	587.019	0.038	0.091
-83.655	-123.653	0.242	-0.038
-82.640	151.512	-0.056	-0.074
-81.626	-200.000	0.056	0.269
-80.611	-85.628	-0.231	-0.070
-79.597	120.775	0.250	-0.304
-78.582	800.000	0.019	-0.073
-77.567	-200.000	0.051	0.241
-76.553	-89.180	0.090	-0.026
-75.538	468.185	-0.092	-0.203
-74.524	95.709	-0.057	0.063
-73.509	-89.577	0.172	-0.049
-72.494	84.552	-0.224	-0.240
-71.480	130.683	0.155	-0.195
-70.465	20.358	-0.194	-0.154
-69.451	-200.000	0.018	0.086
-68.436	-200.000	-0.053	-0.300
-67.422	-1.719	-0.164	-0.113
-66.407	-16.843	-0.142	0.088
-65.392	163.508	-0.268	-0.369
-64.378	155.384	-0.161	0.216
-63.363	-55.333	0.292	0.129
-62.349	-136.658	-0.127	-0.014
-61.334	39.105	-1.058	-0.926
-60.319	36.481	0.433	0.374
-59.305	-200.000	-0.066	-1.047
-58.290	424.664	0.694	1.462
-57.276	736.848	0.602	1.579
-56.261	-200.000	102.758	571.210
-55.246	472.573	1445.825	3186.254
-54.232	152.833	2627.523	3513.830
-53.217	103.328	2277.143	2612.669
-52.203	40.890	1898.129	1675.680
-51.188	35.116	1691.116	1449.338
-50.173	32.405	1648.263	1392.524
-49.159	50.244	1699.118	1569.954
-48.144	51.535	1714.848	1594.126
-47.130	34.684	1673.712	1430.957
-46.115	31.963	1659.679	1398.647
-45.100	31.797	1654.928	1393.355
-44.086	31.755	1652.554	1390.988
-43.071	31.705	1650.082	1388.487
-42.057	31.743	1647.698	1386.707
-41.042	31.779	1645.509	1385.072
-40.027	31.772	1643.171	1383.002
-39.013	31.780	1641.275	1381.406
-37.998	31.724	1640.189	1380.027
-36.984	31.621	1638.851	1378.087
-35.969	31.844	1637.250	1378.327
-34.954	31.849	1635.525	1376.853
-33.940	31.754	1634.056	1374.870
-32.925	31.751	1632.533	1373.509
-31.911	31.835	1630.434	1372.302
-30.896	31.844	1628.942	1371.057
-29.881	31.818	1627.186	1369.334
-28.867	31.896	1625.543	1368.472
-27.852	31.848	1624.450	1367.147
-26.838	31.725	1623.180	1365.128
-25.823	31.871	1621.187	1364.461
-24.809	31.945	1619.546	1363.558
-23.794	31.871	1618.341	1361.954
-22.779	31.873	1617.193	1360.949
-21.765	31.995	1615.096	1360.015
-20.750	31.890	1613.419	1357.784
-19.736	31.844	1612.428	1356.567
-18.721	31.857	1611.087	1355.476
-17.706	31.916	1609.488	1354.506
-16.692	31.840	1608.232	1352.847
-15.677	31.855	1606.914	1351.795
-14.663	31.940	1605.258	1350.954
-13.648	31.934	1604.331	1350.080
-12.633	31.931	1602.294	1348.295
-11.619	31.908	1600.689	1346.724
-10.604	31.913	1599.471	1345.679
-9.590	31.943	1598.143	1344.723
-8.575	31.962	1596.773	1343.654
-7.560	32.046	1595.281	1342.948
-6.546	32.016	1594.136	1341.712
-5.531	31.836	1593.431	1339.781
-4.517	31.843	1592.107	1338.662
-3.502	31.832	1591.474	1338.001
-2.487	31.931	1589.543	1337.034
-1.473	31.115	1576.439	1320.187
-0.458	26.904	1553.839	1271.765
0.556	20.186	1551.526	1226.174
1.571	16.923	1572.541	1219.249
2.586	16.157	1584.478	1222.845
3.600	14.574	1533.203	1172.053
4.615	8.328	1427.061	1049.864
5.629	1.782	1364.065	962.185
6.644	0.302	1355.953	947.077
7.659	0.182	1354.686	945.358
8.673	0.267	1353.571	945.028
9.688	0.129	1352.270	943.170
10.702	-0.095	1349.225	939.564
11.717	2.994	1353.382	961.725
12.731	10.630	1364.913	1017.886
13.746	16.209	1372.678	1058.683
14.761	17.028	1372.784	1063.803
15.775	16.305	1370.801	1057.647
16.790	15.270	1368.053	1048.960
17.804	14.521	1365.706	1042.389
18.819	14.233	1364.205	1039.352
19.834	13.938	1362.739	1036.303
20.848	13.674	1361.463	1033.595
21.863	13.438	1360.254	1031.117
22.877	13.254	1359.123	1029.022
23.892	13.276	1358.415	1028.532
24.907	13.181	1357.707	1027.316
25.921	13.134	1356.655	1026.136
26.936	13.290	1355.699	1026.290
27.950	13.176	1355.072	1025.018
28.965	13.303	1354.299	1025.128
29.980	13.414	1352.936	1024.693
30.994	13.448	1352.370	1024.385
32.009	13.488	1351.260	1023.701
33.023	13.510	1350.055	1022.830
34.038	13.495	1348.836	1021.727
35.053	13.320	1347.800	1019.769
36.067	13.332	1347.167	1019.274
37.082	13.297	1346.284	1018.305
38.096	13.295	1345.589	1017.674
39.111	13.447	1344.011	1017.327
40.126	13.258	1343.737	1015.866
41.140	13.185	1342.893	1014.690
42.155	13.244	1342.225	1014.457
43.169	13.137	1342.056	1013.585
44.184	13.136	1341.861	1013.344
45.199	13.199	1341.016	1012.996
46.213	13.198	1340.820	1012.753
47.228	13.229	1339.684	1011.999
48.242	13.308	1338.718	1011.660
49.257	13.174	1337.240	1009.639
50.271	13.249	1335.629	1008.787
51.286	13.273	1334.334	1007.866
52.301	13.359	1332.966	1007.269
53.315	13.346	1331.936	1006.321
54.330	13.201	1331.032	1004.666
55.344	13.301	1329.587	1004.095
56.359	13.261	1328.468	1002.921
57.374	13.147	1327.938	1001.741
58.388	13.189	1327.359	1001.468
59.403	13.097	1326.934	1000.501
60.417	13.154	1325.963	1000.026
61.432	13.216	1325.118	999.674
62.447	13.061	1324.839	998.441
63.461	13.163	1322.498	997.200
64.476	13.020	1322.032	995.898
65.490	13.033	1320.426	994.679
66.505	13.046	1319.034	993.620
67.520	13.167	1317.687	993.247
68.534	13.151	1316.734	992.344
69.549	13.177	1315.379	991.391
70.563	13.113	1314.521	990.271
71.578	13.042	1313.671	989.123
72.593	13.120	1312.249	988.428
73.607	13.092	1311.575	987.668
74.622	13.077	1310.854	986.949
75.636	13.052	1310.088	986.133
76.651	13.086	1309.250	985.620
77.666	13.091	1308.672	985.125
78.680	12.987	1308.383	984.201
79.695	12.992	1307.896	983.778
80.709	13.056	1306.753	983.210
81.724	13.150	1305.903	983.046
82.739	13.118	1305.003	982.092
83.753	13.161	1303.940	981.461
84.768	13.297	1302.834	981.348
85.782	13.354	1301.615	980.681
86.797	13.260	1300.352	979.087
87.812	13.300	1299.169	978.344
88.826	13.238	1298.718	977.553
89.841	13.326	1296.901	976.617
90.855	13.275	1295.755	975.365
91.870	13.240	1295.583	974.941
92.884	13.283	1294.808	974.524
93.899	13.354	1293.622	973.969
94.914	13.423	1293.003	973.821
95.928	13.424	1292.121	973.075
96.943	13.449	1291.218	972.457
97.957	13.426	1290.462	971.667
98.972	13.422	1289.130	970.554
99.987	13.432	1287.947	969.634
101.001	13.369	1287.124	968.563
102.016	13.260	1286.975	967.728
103.030	13.300	1285.495	966.763
104.045	13.340	1284.902	966.465
105.060	13.413	1283.353	965.639
106.074	13.306	1282.088	963.978
107.089	13.283	1280.460	962.533
108.103	13.194	1279.813	961.443
109.118	13.253	1278.364	960.611
110.133	13.249	1277.157	959.602
111.147	13.258	1275.716	958.484
112.162	13.263	1274.361	957.411
113.176	13.271	1273.117	956.436
114.191	13.244	1272.590	955.801
115.206	13.321	1271.361	955.236
116.220	13.218	1270.104	953.612
117.235	13.293	1268.615	952.842
118.249	13.282	1267.931	952.184
119.264	13.236	1266.936	951.085
120.279	13.175	1265.715	949.734
121.293	13.252	1265.074	949.613
122.308	13.180	1264.186	948.449
123.322	13.135	1263.137	947.319
124.337	13.292	1262.111	947.365
125.352	13.176	1260.901	945.707
126.366	13.080	1260.052	944.442
127.381	13.155	1258.426	943.569
128.395	13.086	1258.075	942.824
129.410	13.229	1256.943	942.708
130.424	13.240	1255.998	941.982
131.439	13.327	1254.765	941.470
132.454	13.278	1253.938	940.483
133.468	13.286	1253.110	939.828
134.483	13.330	1251.626	938.882
135.497	13.406	1250.792	938.600
136.512	13.242	1250.180	937.128
137.527	13.258	1248.839	936.133
138.541	13.250	1247.440	934.956
139.556	13.270	1246.229	934.076
140.570	13.329	1245.232	933.580
141.585	13.474	1243.708	933.175
142.600	13.360	1243.060	931.963
143.614	13.489	1241.609	931.516
144.629	13.432	1240.630	930.381
145.643	13.523	1239.557	930.007
146.658	13.384	1238.495	928.348
147.673	13.377	1236.979	927.087
148.687	13.331	1235.959	925.985
149.702	13.401	1234.648	925.314
150.716	13.300	1233.481	923.791
151.731	13.297	1232.304	922.812
152.746	13.313	1230.916	921.777
153.760	13.358	1229.854	921.153
154.775	13.556	1228.062	920.832
155.789	13.543	1227.460	920.224
156.804	13.410	1226.741	918.864
157.819	13.481	1225.678	918.384
158.833	13.459	1224.748	917.485
159.848	13.565	1223.423	916.996
160.862	13.619	1222.745	916.707
161.877	13.556	1221.506	915.346
162.892	13.448	1220.467	913.891
163.906	13.460	1219.740	913.330
164.921	13.437	1218.864	912.471
165.935	13.548	1217.806	912.209
166.950	13.513	1217.279	911.537
167.964	13.583	1216.328	911.129
168.979	13.627	1215.629	910.768
169.994	13.521	1214.953	909.600
171.008	13.543	1214.269	909.128
172.023	13.530	1213.617	908.486
173.037	13.672	1212.364	908.247
174.052	13.658	1211.753	907.635
175.067	13.644	1210.248	906.349
176.081	13.516	1209.474	904.990
177.096	13.521	1208.525	904.224
178.110	13.698	1207.060	904.018
179.125	13.672	1206.110	903.081
180.140	13.613	1205.154	901.964
181.154	13.683	1203.907	901.331
182.169	13.723	1202.755	900.609
183.183	13.749	1201.879	900.011
184.198	13.829	1200.270	899.162
185.213	13.784	1199.383	898.175
186.227	13.874	1198.110	897.631
187.242	13.736	1197.664	896.470
188.256	13.807	1196.272	895.731
189.271	13.839	1195.692	895.389
190.286	13.791	1194.198	893.937
191.300	13.696	1193.559	892.864
192.315	13.696	1192.788	892.207
193.329	13.755	1192.557	892.275
194.344	13.675	1191.984	891.336
195.359	13.789	1190.684	890.896
196.373	13.880	1190.448	891.134
197.388	13.881	1190.171	890.852
198.402	13.884	1189.535	890.313
199.417	13.975	1188.655	890.061
200.432	13.971	1187.772	889.301
201.446	13.976	1187.223	888.838
202.461	14.062	1185.810	888.159
203.475	14.086	1185.109	887.686
204.490	14.036	1183.963	886.481
205.504	14.021	1182.601	885.305
206.519	13.978	1181.930	884.493
207.534	14.005	1180.363	883.384
208.548	14.070	1179.354	882.899
209.563	14.048	1178.505	882.069
210.577	14.038	1177.693	881.330
211.592	14.097	1176.976	881.029
212.607	14.176	1175.857	880.528
213.621	14.199	1175.213	880.092
214.636	14.010	1174.978	878.837
215.650	14.242	1173.346	878.764
216.665	14.195	1172.537	877.832
217.680	14.240	1171.487	877.209
218.694	14.318	1170.832	877.050
219.709	14.222	1170.506	876.220
220.723	14.354	1169.242	875.894
221.738	14.267	1168.685	874.938
222.753	14.255	1168.205	874.441
223.767	14.323	1167.249	874.004
224.782	14.418	1166.637	873.966
225.796	14.446	1165.814	873.417
226.811	14.422	1165.413	872.917
227.826	14.366	1164.638	871.964
228.840	14.386	1163.875	871.424
229.855	14.347	1163.315	870.721
230.869	14.256	1162.713	869.720
231.884	14.279	1161.537	868.882
232.899	14.258	1161.253	868.483
233.913	14.280	1160.204	867.738
234.928	14.287	1159.469	867.144
235.942	14.381	1158.428	866.779
236.957	14.398	1157.496	866.097
237.972	14.397	1156.868	865.541
238.986	14.380	1156.466	865.077
240.001	14.405	1155.596	864.480
241.015	14.366	1154.916	863.692
242.030	14.375	1154.303	863.205
243.045	14.395	1153.532	862.656
244.059	14.423	1152.438	861.904
245.074	14.474	1151.781	861.601
246.088	14.546	1150.896	861.234
247.103	14.564	1150.093	860.653
248.117	14.551	1149.675	860.192
249.132	14.724	1148.650	860.241
250.147	14.664	1148.214	859.529
251.161	14.762	1147.066	859.101
252.176	14.783	1146.607	858.789
253.190	14.681	1145.921	857.672
254.205	14.816	1145.685	858.114
255.220	14.852	1144.738	857.512
256.234	14.853	1144.537	857.290
257.249	14.946	1143.180	856.677
258.263	14.794	1143.392	855.979
259.278	14.911	1142.257	855.655
260.293	14.908	1141.840	855.251
261.307	14.970	1141.306	855.091
262.322	15.057	1140.581	854.919
263.336	14.983	1139.684	853.791
264.351	15.061	1139.074	853.657
265.366	14.945	1138.433	852.512
266.380	14.896	1138.216	852.023
267.395	15.114	1137.015	852.157
268.409	15.032	1136.399	851.202
269.424	15.005	1135.664	850.438
270.439	15.113	1135.143	850.524
271.453	15.088	1134.485	849.830
272.468	14.974	1133.596	848.509
273.482	15.057	1132.591	848.102
274.497	15.151	1132.139	848.166
275.512	15.094	1131.081	847.010
276.526	15.109	1130.911	846.882
277.541	15.086	1130.201	846.157
278.555	15.132	1129.608	845.873
279.570	15.180	1128.458	845.177
280.585	15.180	1127.483	844.375
281.599	15.139	1126.769	843.559
282.614	15.191	1126.220	843.334
283.628	15.279	1124.732	842.587
284.643	15.261	1123.771	841.705
285.657	15.281	1122.989	841.141
286.672	15.189	1122.180	840.003
287.687	15.305	1120.948	839.586
288.701	15.323	1120.426	839.212
289.716	15.354	1119.820	838.837
290.730	15.331	1119.286	838.250
291.745	15.289	1118.548	837.413
292.760	15.446	1117.931	837.660
293.774	15.398	1117.307	836.879
294.789	15.388	1117.047	836.559
295.803	15.418	1116.069	835.901
296.818	15.435	1115.028	835.133
297.833	15.381	1114.874	834.676
298.847	15.450	1113.622	834.008
299.862	15.476	1112.939	833.550
300.876	15.378	1112.598	832.733
301.891	15.512	1111.485	832.495
302.906	15.460	1111.430	832.119
303.920	15.675	1110.119	832.131
304.935	15.623	1109.794	831.555
305.949	15.623	1109.132	830.987
306.964	15.616	1108.700	830.552
307.979	15.616	1107.638	829.682
308.993	15.677	1106.788	829.275
310.008	15.653	1106.508	828.874
311.022	15.736	1105.248	828.266
312.037	15.736	1104.700	827.784
313.052	15.766	1103.811	827.189
314.066	15.526	1102.621	825.044
315.081	15.592	1102.043	824.863
316.095	15.529	1101.518	824.087
317.110	15.735	1100.559	824.307
318.125	15.712	1099.789	823.545
319.139	15.865	1098.958	823.599
320.154	15.737	1098.478	822.539
321.168	15.629	1097.943	821.539
322.183	15.714	1097.143	821.286
323.197	15.811	1096.105	820.906
324.212	15.746	1096.291	820.658
325.227	15.753	1095.639	820.131
326.241	15.709	1094.779	819.199
327.256	15.679	1094.190	818.538
328.270	15.783	1093.057	818.124
329.285	15.755	1092.678	817.632
330.300	15.763	1091.199	816.495
331.314	15.877	1090.276	816.282
332.329	15.756	1089.482	815.028
333.343	15.713	1088.877	814.296
334.358	15.846	1087.953	814.178
335.373	15.835	1087.537	813.742
336.387	16.015	1086.705	813.915
337.402	15.971	1085.990	813.098
338.416	15.973	1084.987	812.285
339.431	15.992	1084.422	811.879
340.446	15.937	1083.978	811.209
341.460	16.077	1083.343	811.337
342.475	16.183	1082.282	810.981
343.489	16.138	1081.369	810.009
344.504	16.173	1080.500	809.454
345.519	16.266	1079.180	808.839
346.533	16.344	1078.728	808.803
347.548	16.269	1078.334	808.079
348.562	16.296	1077.495	807.505
349.577	16.198	1076.898	806.519
350.592	16.065	1076.284	805.352
351.606	16.100	1075.776	805.069
352.621	16.171	1074.577	804.436
353.635	16.204	1074.560	804.510
354.650	16.255	1073.145	803.625
355.665	16.220	1072.695	803.051
356.679	16.246	1072.179	802.713
357.694	16.230	1071.669	802.186
358.708	16.152	1071.130	801.343
359.723	16.248	1070.554	801.297
360.738	16.350	1069.483	800.905
361.752	16.294	1068.915	800.145
362.767	16.410	1068.402	800.238
363.781	16.424	1067.859	799.826
364.796	16.431	1067.204	799.298
365.810	16.405	1066.825	798.824
366.825	16.482	1066.039	798.525
367.840	16.517	1065.939	798.545
368.854	16.561	1065.167	798.106
369.869	16.556	1064.291	797.356
370.883	16.508	1063.514	796.475
371.898	16.473	1062.720	795.647
372.913	16.567	1062.242	795.661
373.927	16.535	1062.138	795.362
374.942	16.631	1061.189	795.033
375.956	16.598	1060.844	794.545
376.971	16.711	1060.049	794.413
377.986	16.477	1060.067	793.255
379.000	16.679	1059.325	793.578
380.015	16.731	1058.533	793.160
381.029	16.739	1057.770	792.552
382.044	16.698	1057.688	792.232
383.059	16.768	1056.387	791.513
384.073	16.830	1055.404	790.996
385.088	16.873	1054.361	790.344
386.102	16.816	1053.820	789.602
387.117	16.882	1052.718	789.015
388.132	16.753	1052.047	787.844
389.146	16.888	1051.070	787.667
390.161	16.807	1050.651	786.909
391.175	16.716	1050.060	785.972
392.190	16.878	1048.774	785.694
393.205	16.909	1047.844	785.072
394.219	16.992	1047.398	785.049
395.234	16.923	1046.765	784.189
396.248	16.930	1045.811	783.438
397.263	16.914	1044.843	782.566
398.278	16.869	1043.824	781.529
399.292	16.851	1043.401	781.057
400.307	16.805	1042.827	780.349
401.321	16.960	1041.901	780.301
402.336	16.871	1041.535	779.546
403.350	16.931	1040.794	779.200
404.365	16.790	1040.318	778.127
405.380	16.836	1039.880	777.939
406.394	17.043	1038.454	777.753
407.409	17.008	1038.035	777.210
408.423	17.091	1037.402	777.051
409.438	17.198	1036.365	776.693
410.453	17.166	1035.858	776.096
411.467	17.262	1035.009	775.833
412.482	17.177	1034.545	775.027
413.496	17.238	1033.740	774.635
414.511	17.371	1033.303	774.843
415.526	17.255	1032.961	773.990
416.540	17.295	1032.430	773.704
417.555	17.366	1031.753	773.452
418.569	17.252	1031.449	772.638
419.584	17.318	1030.786	772.371
420.599	17.422	1030.354	772.453
421.613	103.967	1321.437	1465.877
422.628	95.177	1363.804	1465.978
