DTS Sentinel unit serial number:	SN413079Multiplexer serial number:	ORYXHardware model number:	OX4-SRSoftware version number:	ORYX F/W v4.00 Oryx Data Collector v3.7.2.0data status	okinstallation	princeton_trtdifferential loss correction	single-endedforward channel	channel 2reverse channel	N/Adate	2019/09/16time	03:39:34forward acquisition time	60.00reverse acquisition time	0.00gamma	496.2192k internal	0.2334k external	0.2334temperature offset calibration	0.9974default loss term (dB/km)	0.3790temperature slope calibration	1.0000multiplexer offset coefficient	1.0000multiplexer slope coefficient	1.0000fibre end	0.00T internal ref (°C)	27.62T ext. ref 1 (°C)	10.61T ext. ref 2 (°C)	21.73length (m)	temperature (°C)	Stokes	anti-Stokes-747.200	800.000	-0.071	-0.209
-746.185	-118.919	0.179	-0.032
-745.171	79.116	0.067	-0.073
-744.156	456.704	-0.091	-0.204
-743.142	-200.000	-0.028	-0.299
-742.127	-0.017	-0.180	-0.129
-741.112	-146.117	0.145	-0.013
-740.098	-82.955	-0.351	0.114
-739.083	130.592	0.181	0.233
-738.069	-57.011	-0.086	-0.038
-737.054	-191.437	0.432	0.004
-736.039	-60.007	-0.365	-0.157
-735.025	-122.661	0.281	0.046
-734.010	-147.557	-0.253	-0.021
-732.996	-27.316	-0.303	-0.177
-731.981	48.721	-0.091	-0.086
-730.966	-200.000	0.027	0.184
-729.952	-36.275	-0.129	-0.070
-728.937	-163.284	-0.381	-0.018
-727.923	-200.000	0.024	-0.176
-726.908	-116.130	-0.099	0.018
-725.894	-95.164	-0.132	0.036
-724.879	591.451	0.081	-0.200
-723.864	-200.000	0.031	0.149
-722.850	-66.051	-0.323	-0.130
-721.835	44.098	0.083	-0.077
-720.821	-161.548	-0.188	-0.010
-719.806	213.616	-0.172	0.273
-718.791	131.397	0.165	-0.213
-717.777	66.347	-0.173	-0.177
-716.762	-178.347	0.199	-0.005
-715.748	12.315	-0.291	0.225
-714.733	205.423	-0.149	-0.232
-713.718	-200.000	-0.036	-0.230
-712.704	-16.947	-0.221	-0.140
-711.689	-46.887	-0.200	0.098
-710.675	33.170	-0.248	0.216
-709.660	90.132	0.098	-0.110
-708.645	-174.542	0.209	-0.006
-707.631	-200.000	-0.076	0.408
-706.616	-155.261	-0.158	-0.010
-705.602	472.875	-0.109	0.246
-704.587	183.384	-0.175	-0.260
-703.572	571.848	0.063	-0.154
-702.558	-200.000	-0.034	-0.291
-701.543	158.712	0.025	0.036
-700.529	-200.000	-0.063	-0.286
-699.514	353.624	0.023	0.045
-698.499	78.364	-0.124	-0.133
-697.485	139.474	0.147	0.194
-696.470	119.977	0.283	0.352
-695.456	188.613	-0.169	-0.254
-694.441	19.578	0.081	-0.066
-693.426	-200.000	0.089	-0.531
-692.412	52.275	-0.113	-0.108
-691.397	-103.212	0.134	0.032
-690.383	-200.000	-0.019	0.229
-689.368	153.733	0.040	0.055
-688.354	218.999	-0.079	-0.127
-687.339	-31.965	0.152	-0.085
-686.324	-166.152	-0.061	0.003
-685.310	-141.383	-0.284	-0.029
-684.295	-76.584	-0.143	-0.050
-683.281	313.838	0.063	-0.119
-682.266	36.004	-0.203	0.179
-681.251	-45.446	-0.123	0.061
-680.237	-73.353	0.382	-0.140
-679.222	419.629	-0.116	-0.249
-678.208	800.000	-0.039	-0.151
-677.193	-147.355	-0.083	0.007
-676.178	-154.090	-0.237	0.016
-675.164	-200.000	0.009	-0.052
-674.149	-101.748	-0.202	0.049
-673.135	32.587	-0.205	0.178
-672.120	474.429	-0.175	-0.396
-671.105	238.552	-0.065	-0.108
-670.091	-200.000	-0.019	0.279
-669.076	-79.992	-0.085	-0.029
-668.062	-200.000	0.023	0.210
-667.047	244.424	0.156	0.262
-666.032	8.435	0.152	-0.114
-665.018	76.559	-0.263	0.279
-664.003	-126.470	-0.387	-0.058
-662.989	-87.737	0.252	0.076
-661.974	121.421	0.063	-0.078
-660.959	800.000	0.071	-0.265
-659.945	-200.000	-0.039	-0.331
-658.930	-133.953	0.052	-0.006
-657.916	78.377	-0.149	-0.159
-656.901	-123.369	-0.276	0.044
-655.886	297.080	-0.054	0.100
-654.872	800.000	-0.071	-0.280
-653.857	638.015	-0.097	-0.247
-652.843	285.805	-0.218	-0.395
-651.828	508.546	0.083	-0.194
-650.814	-29.443	-0.190	-0.109
-649.799	-130.842	-0.109	0.015
-648.784	-80.390	-0.121	0.041
-647.770	104.061	-0.178	-0.210
-646.755	-21.321	-0.191	0.117
-645.741	114.049	0.148	-0.180
-644.726	211.686	-0.068	0.107
-643.711	36.091	-0.090	0.079
-642.697	-200.000	0.065	0.328
-641.682	-131.736	-0.187	0.025
-640.668	75.003	-0.276	0.291
-639.653	-39.671	-0.143	0.075
-638.638	215.753	0.218	0.346
-637.624	225.553	0.098	-0.159
-636.609	-39.842	0.173	0.091
-635.595	302.335	0.164	0.304
-634.580	-8.468	-0.226	-0.152
-633.565	800.000	0.029	-0.083
-632.551	588.527	-0.141	-0.348
-631.536	390.811	0.051	0.106
-630.522	-200.000	0.008	0.078
-629.507	-45.001	-0.396	0.197
-628.492	64.691	-0.151	-0.153
-627.478	106.129	-0.189	0.224
-626.463	-56.642	-0.113	0.050
-625.449	-101.159	-0.148	-0.036
-624.434	-70.140	-0.161	0.061
-623.419	-96.465	-0.346	-0.091
-622.405	-200.000	0.004	0.269
-621.390	412.932	-0.144	0.306
-620.376	-13.491	-0.106	0.069
-619.361	73.865	-0.210	-0.220
-618.346	800.000	0.058	-0.218
-617.332	467.861	-0.132	0.295
-616.317	800.000	-0.173	0.546
-615.303	-200.000	0.002	0.147
-614.288	-200.000	0.045	-0.489
-613.273	372.301	0.098	0.198
-612.259	-200.000	0.006	0.122
-611.244	-200.000	-0.009	0.128
-610.230	128.844	0.040	0.051
-609.215	-89.721	0.124	0.036
-608.201	126.855	-0.179	0.226
-607.186	287.426	-0.057	-0.102
-606.171	216.471	-0.105	0.166
-605.157	-200.000	-0.018	0.291
-604.142	800.000	-0.093	0.303
-603.128	-150.791	-0.230	0.017
-602.113	-125.262	0.243	-0.037
-601.098	-80.569	0.224	0.075
-600.084	-146.873	0.094	-0.008
-599.069	82.995	-0.392	-0.426
-598.055	800.000	0.013	-0.042
-597.040	-200.000	0.004	0.078
-596.025	-138.451	-0.103	-0.011
-595.011	-115.284	0.119	0.022
-593.996	-57.816	0.292	0.127
-592.982	-170.682	0.299	0.010
-591.967	800.000	0.033	0.101
-590.952	-80.359	-0.099	-0.033
-589.938	-134.558	-0.121	0.015
-588.923	160.822	0.096	-0.134
-587.909	-200.000	-0.006	-0.139
-586.894	1.917	-0.056	-0.041
-585.879	12.668	0.118	0.091
-584.865	-24.913	-0.260	-0.154
-583.850	267.208	-0.116	0.203
-582.836	-68.475	0.031	-0.012
-581.821	-200.000	0.069	0.321
-580.806	-94.511	0.249	-0.068
-579.792	-128.563	-0.132	-0.019
-578.777	41.148	-0.188	0.170
-577.763	800.000	-0.114	0.405
-576.748	-198.175	-0.087	-0.001
-575.733	-148.109	-0.071	0.006
-574.719	800.000	0.070	-0.207
-573.704	-20.895	-0.172	0.105
-572.690	-19.894	-0.322	0.198
-571.675	800.000	0.021	-0.088
-570.661	800.000	-0.071	0.250
-569.646	-142.651	0.121	0.012
-568.631	-200.000	0.026	-0.194
-567.617	187.542	0.104	-0.155
-566.602	-151.073	-0.258	0.019
-565.588	434.159	-0.093	0.201
-564.573	-47.842	-0.141	-0.068
-563.558	800.000	0.068	-0.275
-562.544	17.859	0.142	0.112
-561.529	-200.000	0.064	-0.323
-560.515	-81.045	0.168	-0.055
-559.500	68.265	-0.137	-0.140
-558.485	87.645	-0.211	0.233
-557.471	-96.281	-0.157	-0.041
-556.456	-97.147	0.234	0.061
-555.442	-142.650	-0.186	0.018
-554.427	-200.000	-0.021	0.106
-553.412	127.587	0.155	0.197
-552.398	-35.934	0.104	0.056
-551.383	116.678	0.083	-0.102
-550.369	213.192	0.175	-0.276
-549.354	-200.000	0.017	0.232
-548.339	-155.544	-0.241	-0.015
-547.325	800.000	-0.026	0.100
-546.310	556.878	0.037	-0.089
-545.296	-200.000	-0.002	0.056
-544.281	-200.000	0.040	0.230
-543.266	-24.076	0.254	0.152
-542.252	-83.619	0.234	-0.075
-541.237	-17.149	-0.322	-0.202
-540.223	-178.977	-0.201	-0.005
-539.208	-80.427	-0.214	0.071
-538.193	8.162	0.214	-0.160
-537.179	-29.915	-0.132	0.075
-536.164	214.355	0.129	0.204
-535.150	-45.398	-0.173	-0.086
-534.135	73.659	0.126	-0.132
-533.121	-149.513	-0.290	0.023
-532.106	-49.188	-0.095	0.045
-531.091	-59.565	-0.254	0.108
-530.077	-48.091	0.203	0.098
-529.062	-35.124	-0.183	-0.099
-528.048	-200.000	0.051	-0.245
-527.033	-121.985	0.254	0.042
-526.018	419.759	0.088	-0.188
-525.004	800.000	-0.090	-0.297
-523.989	-123.567	0.135	0.021
-522.975	55.157	0.226	0.218
-521.960	-122.494	-0.122	0.020
-520.945	200.531	-0.186	-0.285
-519.931	-200.000	-0.005	0.069
-518.916	-60.464	0.292	-0.124
-517.902	-102.218	-0.509	-0.122
-516.887	800.000	-0.018	-0.079
-515.872	249.330	0.070	0.119
-514.858	800.000	-0.088	0.367
-513.843	-200.000	0.017	-0.129
-512.829	28.971	0.163	-0.137
-511.814	-192.626	0.203	0.002
-510.799	-200.000	0.005	-0.302
-509.785	200.108	0.094	-0.144
-508.770	97.006	-0.056	-0.064
-507.756	-52.608	-0.041	0.019
-506.741	-151.067	-0.159	-0.012
-505.726	16.372	0.274	-0.215
-504.712	-61.230	-0.194	-0.081
-503.697	-104.681	-0.095	0.022
-502.683	149.317	0.151	0.203
-501.668	278.275	0.026	-0.046
-500.653	-200.000	-0.032	0.210
-499.639	-118.391	-0.166	0.029
-498.624	294.483	-0.153	-0.278
-497.610	15.192	0.250	-0.195
-496.595	-12.359	-0.211	-0.137
-495.581	-36.512	0.190	0.102
-494.566	253.909	-0.130	0.221
-493.551	13.913	-0.095	0.074
-492.537	-28.595	0.095	0.055
-491.522	-142.000	0.219	-0.022
-490.508	-200.000	-0.003	-0.069
-489.493	214.089	-0.035	0.055
-488.478	-55.298	0.412	-0.184
-487.464	-115.638	0.279	0.052
-486.449	-34.342	-0.181	-0.099
-485.435	-200.000	-0.023	0.441
-484.420	79.875	0.257	0.275
-483.405	298.408	-0.120	-0.219
-482.391	-200.000	-0.018	0.231
-481.376	-9.006	0.422	0.281
-480.362	800.000	-0.101	0.407
-479.347	800.000	0.051	-0.205
-478.332	4.577	-0.172	-0.125
-477.318	261.814	0.079	-0.137
-476.303	-66.859	0.281	-0.111
-475.289	59.875	-0.166	-0.163
-474.274	-143.545	-0.088	-0.008
-473.259	490.576	-0.143	0.324
-472.245	728.247	-0.010	-0.026
-471.230	-58.507	-0.025	-0.011
-470.216	-4.865	0.049	-0.034
-469.201	-137.264	-0.310	-0.035
-468.186	121.553	0.250	-0.309
-467.172	-128.206	-0.038	-0.005
-466.157	800.000	-0.057	-0.184
-465.143	-55.309	-0.162	-0.072
-464.128	719.477	0.076	-0.202
-463.113	188.013	0.206	0.306
-462.099	253.070	0.124	0.210
-461.084	800.000	0.102	0.302
-460.070	-105.050	0.038	0.009
-459.055	46.067	0.073	-0.067
-458.040	-95.363	-0.202	-0.054
-457.026	84.729	0.240	-0.261
-456.011	800.000	-0.062	-0.238
-454.997	45.102	-0.204	-0.187
-453.982	800.000	0.062	0.263
-452.968	-106.222	-0.264	-0.059
-451.953	220.819	0.077	0.122
-450.938	800.000	0.060	-0.190
-449.924	-110.421	0.371	0.076
-448.909	-96.413	0.233	0.061
-447.895	-56.171	-0.206	0.091
-446.880	-68.037	-0.185	0.072
-445.865	79.398	0.179	0.190
-444.851	150.584	-0.092	0.124
-443.836	-76.195	-0.236	0.083
-442.822	131.477	-0.099	-0.127
-441.807	-200.000	-0.058	-0.310
-440.792	-90.367	-0.311	-0.090
-439.778	-200.000	-0.067	0.354
-438.763	187.781	0.033	0.048
-437.749	-149.598	-0.252	-0.020
-436.734	188.599	0.054	0.080
-435.719	51.143	-0.239	-0.225
-434.705	424.054	0.032	0.069
-433.690	-6.406	0.064	-0.044
-432.676	-102.385	-0.320	-0.076
-431.661	-190.689	0.273	0.003
-430.646	0.112	0.086	0.061
-429.632	30.361	0.254	0.216
-428.617	-200.000	0.002	-0.017
-427.603	251.539	0.157	0.266
-426.588	-19.944	0.230	0.141
-425.573	-173.427	0.230	-0.007
-424.559	-128.393	0.414	0.058
-423.544	-200.000	0.044	-0.235
-422.530	450.813	0.119	-0.260
-421.515	40.479	-0.299	0.268
-420.500	-200.000	-0.038	0.236
-419.486	-151.181	0.013	-0.001
-418.471	-200.000	0.029	0.286
-417.457	356.102	-0.085	0.167
-416.442	-8.955	-0.038	-0.026
-415.428	66.944	-0.131	-0.132
-414.413	-2.086	0.043	-0.030
-413.398	-135.530	0.116	-0.014
-412.384	464.409	0.052	-0.115
-411.369	292.435	0.054	-0.098
-410.355	32.106	-0.240	-0.205
-409.340	-70.211	0.363	-0.137
-408.325	-200.000	-0.017	0.324
-407.311	800.000	0.033	0.092
-406.296	800.000	0.009	0.039
-405.282	-157.378	-0.118	0.007
-404.267	800.000	-0.058	-0.188
-403.252	-200.000	0.008	0.186
-402.238	-191.540	-0.143	0.001
-401.223	-143.208	-0.069	-0.007
-400.209	-183.154	-0.156	-0.003
-399.194	800.000	-0.141	-0.410
-398.179	-125.137	-0.147	0.022
-397.165	51.079	0.160	0.150
-396.150	-200.000	-0.069	-0.306
-395.136	800.000	-0.057	0.205
-394.121	68.707	0.273	0.278
-393.106	-70.459	-0.248	0.093
-392.092	-200.000	0.002	-0.160
-391.077	79.016	-0.197	0.209
-390.063	338.410	-0.079	-0.152
-389.048	-200.000	-0.036	0.186
-388.033	-200.000	0.010	-0.530
-387.019	-200.000	0.055	-0.460
-386.004	-42.873	0.409	0.206
-384.990	405.607	0.116	-0.242
-383.975	800.000	-0.148	-0.506
-382.960	-200.000	0.043	-0.494
-381.946	800.000	0.119	0.372
-380.931	-95.070	0.268	0.072
-379.917	-87.651	0.148	-0.044
-378.902	-122.547	0.288	0.046
-377.888	-49.953	0.468	0.220
-376.873	-55.396	0.263	-0.117
-375.858	-61.844	0.172	0.071
-374.844	350.745	0.176	0.346
-373.829	388.035	0.040	-0.082
-372.815	141.249	0.042	-0.055
-371.800	7.689	0.211	-0.156
-370.785	239.676	-0.138	0.227
-369.771	-200.000	0.008	-0.080
-368.756	-200.000	0.022	-0.215
-367.742	-155.028	-0.195	0.013
-366.727	-70.840	0.315	-0.118
-365.712	57.351	-0.218	0.211
-364.698	-87.640	0.245	0.073
-363.683	777.415	-0.065	-0.175
-362.669	6.799	-0.162	0.119
-361.654	53.011	-0.115	0.109
-360.639	-64.843	-0.116	0.046
-359.625	800.000	0.009	0.035
-358.610	157.160	0.138	-0.188
-357.596	800.000	-0.021	-0.087
-356.581	-85.690	0.284	-0.087
-355.566	-1.331	-0.234	-0.163
-354.552	800.000	-0.047	-0.157
-353.537	509.185	0.162	0.372
-352.523	17.655	-0.163	-0.128
-351.508	-200.000	-0.015	-0.119
-350.493	-61.728	-0.249	-0.103
-349.479	239.213	-0.172	-0.283
-348.464	-108.832	-0.295	0.062
-347.450	-55.540	0.258	0.115
-346.435	614.318	-0.142	-0.351
-345.420	-200.000	-0.018	0.151
-344.406	800.000	-0.090	-0.291
-343.391	120.320	-0.100	-0.123
-342.377	-61.339	0.059	0.025
-341.362	800.000	0.061	-0.187
-340.348	-200.000	-0.007	-0.182
-339.333	-87.991	0.210	-0.062
-338.318	157.186	0.241	0.330
-337.304	111.429	0.194	0.231
-336.289	-32.653	0.101	0.056
-335.275	-170.868	0.081	-0.003
-334.260	100.753	0.199	-0.229
-333.245	800.000	-0.044	0.189
-332.231	-78.496	-0.237	-0.080
-331.216	-97.934	-0.194	-0.050
-330.202	-200.000	0.014	0.313
-329.187	-200.000	-0.015	-0.277
-328.172	-79.691	0.232	0.077
-327.158	-175.084	0.251	0.007
-326.143	190.157	0.156	0.232
-325.129	-37.108	-0.155	-0.082
-324.114	1.961	0.154	-0.110
-323.099	275.673	-0.098	0.173
-322.085	-83.257	-0.223	0.071
-321.070	545.758	0.029	-0.068
-320.056	142.651	-0.098	-0.129
-319.041	-153.306	0.281	0.019
-318.026	-74.963	-0.174	-0.062
-317.012	-200.000	-0.008	0.192
-315.997	-165.455	0.307	-0.013
-314.983	-200.000	-0.019	-0.130
-313.968	-64.082	-0.299	-0.120
-312.953	-83.602	0.032	-0.010
-311.939	-200.000	0.049	0.278
-310.924	59.176	-0.098	-0.095
-309.910	-105.991	-0.147	-0.033
-308.895	164.197	-0.045	0.063
-307.880	-167.110	0.179	-0.007
-306.866	-88.178	-0.214	0.063
-305.851	-93.235	-0.247	0.068
-304.837	-200.000	0.009	-0.231
-303.822	-151.236	0.204	0.015
-302.807	-93.570	0.113	-0.031
-301.793	-157.642	0.137	0.008
-300.778	-200.000	0.027	-0.125
-299.764	800.000	0.066	-0.272
-298.749	305.402	-0.131	-0.241
-297.735	-7.037	0.238	-0.160
-296.720	731.858	-0.062	-0.165
-295.705	-106.543	-0.485	-0.107
-294.691	-29.777	0.094	-0.053
-293.676	-93.208	0.384	-0.106
-292.662	511.202	0.076	-0.174
-291.647	-18.351	0.139	0.086
-290.632	-88.298	0.139	0.041
-289.618	-121.857	0.318	0.052
-288.603	-107.160	-0.365	-0.080
-287.589	-72.744	0.363	0.132
-286.574	274.335	0.154	-0.270
-285.559	-149.065	-0.158	-0.013
-284.545	-200.000	-0.057	0.334
-283.530	-159.141	0.111	0.006
-282.516	800.000	-0.051	-0.145
-281.501	30.689	-0.216	-0.183
-280.486	-46.587	-0.274	-0.133
-279.472	800.000	0.021	-0.080
-278.457	83.428	0.124	0.133
-277.443	-75.649	-0.277	0.097
-276.428	-55.835	0.081	0.036
-275.413	-57.918	0.151	0.065
-274.399	-200.000	-0.011	0.093
-273.384	-160.693	0.298	-0.016
-272.370	6.802	-0.189	0.139
-271.355	-200.000	0.121	0.001
-270.340	112.805	0.141	-0.169
-269.326	-179.668	-0.246	-0.005
-268.311	-69.866	0.413	-0.155
-267.297	60.714	-0.037	0.036
-266.282	800.000	-0.037	-0.133
-265.267	-200.000	-0.035	-0.174
-264.253	-75.406	0.316	-0.111
-263.238	-200.000	0.008	0.048
-262.224	76.123	-0.210	0.220
-261.209	800.000	-0.081	0.302
-260.195	-21.897	0.050	-0.030
-259.180	800.000	0.077	-0.229
-258.165	107.877	-0.126	-0.147
-257.151	31.715	-0.120	0.102
-256.136	-14.960	0.076	-0.048
-255.122	-77.591	-0.278	0.095
-254.107	-77.103	0.203	-0.070
-253.092	575.349	-0.034	-0.082
-252.078	-81.984	0.177	0.057
-251.063	24.200	-0.053	0.043
-250.049	-200.000	0.010	0.214
-249.034	-41.508	0.264	0.134
-248.019	-137.495	-0.308	0.034
-247.005	572.473	-0.188	-0.452
-245.990	494.715	0.084	-0.189
-244.976	-200.000	0.174	-0.000
-243.961	57.492	-0.175	0.168
-242.946	197.763	-0.065	0.097
-241.932	800.000	-0.029	-0.115
-240.917	-13.930	-0.151	-0.096
-239.903	-132.280	-0.089	-0.011
-238.888	-200.000	-0.022	0.190
-237.873	219.094	0.129	0.203
-236.859	181.409	0.166	0.240
-235.844	-200.000	-0.003	0.058
-234.830	-125.440	0.413	0.062
-233.815	-8.960	0.220	0.145
-232.800	-200.000	0.023	-0.275
-231.786	-76.284	-0.131	0.045
-230.771	88.862	0.038	-0.042
-229.757	16.746	0.216	-0.169
-228.742	-56.035	0.123	-0.054
-227.727	-95.100	-0.120	-0.032
-226.713	-169.102	0.140	0.005
-225.698	62.662	-0.280	-0.276
-224.684	334.315	0.015	-0.028
-223.669	121.651	-0.016	0.020
-222.655	693.758	0.114	-0.295
-221.640	45.700	0.295	-0.269
-220.625	119.738	0.056	0.069
-219.611	60.479	0.119	-0.116
-218.596	-6.104	0.125	-0.084
-217.582	-29.394	-0.159	0.090
-216.567	17.212	0.109	0.085
-215.552	304.469	0.125	0.228
-214.538	288.832	-0.156	0.279
-213.523	50.105	0.260	0.242
-212.509	800.000	0.050	-0.179
-211.494	-104.454	0.056	-0.013
-210.479	573.571	0.096	-0.231
-209.465	800.000	-0.019	0.057
-208.450	-200.000	0.040	0.185
-207.436	800.000	-0.075	-0.257
-206.421	324.171	0.106	-0.199
-205.406	-62.898	-0.084	0.034
-204.392	301.954	0.089	-0.162
-203.377	-167.604	0.403	-0.016
-202.363	-52.926	-0.079	-0.036
-201.348	13.819	-0.122	0.093
-200.333	14.456	-0.082	-0.063
-199.319	800.000	0.052	-0.154
-198.304	-200.000	0.038	-0.530
-197.290	172.026	0.104	-0.147
-196.275	469.610	-0.137	0.302
-195.260	-200.000	0.008	-0.249
-194.246	-110.726	0.075	0.015
-193.231	-200.000	-0.015	0.503
-192.217	-200.000	0.041	0.254
-191.202	144.775	0.157	0.206
-190.187	99.659	-0.199	-0.227
-189.173	-77.642	-0.347	0.118
-188.158	462.775	0.051	-0.111
-187.144	-194.086	-0.154	-0.001
-186.129	800.000	-0.110	0.315
-185.114	-169.154	-0.339	-0.012
-184.100	-149.877	0.147	-0.011
-183.085	18.527	0.130	0.102
-182.071	184.562	0.172	0.250
-181.056	-59.624	0.165	-0.070
-180.042	-200.000	-0.081	-0.417
-179.027	-200.000	0.001	-0.005
-178.012	-33.196	0.214	-0.117
-176.998	-8.075	-0.114	-0.076
-175.983	-49.695	-0.103	-0.048
-174.969	-86.920	-0.443	0.133
-173.954	-200.000	-0.017	0.187
-172.939	-27.663	0.099	-0.057
-171.925	221.329	-0.208	0.329
-170.910	569.671	0.094	0.225
-169.896	800.000	-0.031	0.131
-168.881	-14.634	-0.092	0.058
-167.866	-56.356	-0.233	-0.102
-166.852	-200.000	0.071	0.397
-165.837	-124.387	-0.469	0.072
-164.823	-200.000	-0.046	0.472
-163.808	469.027	-0.073	0.161
-162.793	-200.000	-0.026	0.156
-161.779	284.006	0.162	-0.287
-160.764	-200.000	0.008	0.047
-159.750	-200.000	-0.055	-0.476
-158.735	69.710	0.048	0.049
-157.720	-200.000	0.080	-0.387
-156.706	-200.000	0.001	-0.156
-155.691	-9.423	0.078	-0.051
-154.677	-101.503	-0.113	-0.027
-153.662	336.185	-0.148	0.282
-152.647	503.886	0.169	-0.383
-151.633	743.918	-0.060	-0.158
-150.618	-73.012	0.291	0.105
-149.604	-128.693	-0.296	-0.041
-148.589	82.493	-0.094	-0.101
-147.574	-18.607	0.344	0.211
-146.560	-24.927	-0.105	-0.061
-145.545	-200.000	0.041	0.205
-144.531	145.861	-0.082	-0.108
-143.516	-200.000	-0.030	0.194
-142.502	13.966	-0.202	-0.154
-141.487	130.462	0.069	0.087
-140.472	-1.559	0.055	-0.038
-139.458	-62.656	-0.276	0.112
-138.443	-136.611	0.322	0.037
-137.429	156.064	-0.032	-0.043
-136.414	73.958	0.044	-0.046
-135.399	-200.000	-0.008	-0.158
-134.385	171.595	0.146	-0.205
-133.370	206.116	-0.129	0.197
-132.356	270.639	-0.083	0.142
-131.341	106.506	-0.243	-0.283
-130.326	-120.960	0.145	0.024
-129.312	-91.598	-0.165	0.046
-128.297	779.130	-0.089	-0.239
-127.283	-50.475	-0.172	-0.080
-126.268	395.593	-0.091	-0.185
-125.253	-77.305	-0.276	0.094
-124.239	9.657	0.155	0.116
-123.224	5.402	0.267	-0.193
-122.210	-4.813	-0.261	0.177
-121.195	-72.306	-0.387	-0.141
-120.180	-68.708	0.252	0.096
-119.166	9.853	0.164	0.122
-118.151	18.009	0.122	-0.095
-117.137	-42.154	0.111	0.056
-116.122	-200.000	-0.064	-0.297
-115.107	188.095	0.166	-0.243
-114.093	690.198	0.034	0.086
-113.078	95.986	-0.316	-0.354
-112.064	-200.000	-0.015	-0.286
-111.049	517.282	0.114	-0.262
-110.034	310.870	-0.202	-0.371
-109.020	-6.546	-0.212	-0.142
-108.005	-200.000	-0.052	-0.337
-106.991	-85.553	0.036	-0.011
-105.976	383.329	0.255	-0.515
-104.962	5.564	-0.110	-0.080
-103.947	-200.000	-0.024	0.317
-102.932	-122.611	0.293	-0.047
-101.918	-200.000	0.004	0.232
-100.903	33.983	0.142	-0.121
-99.889	-67.689	-0.209	-0.080
-98.874	-67.643	-0.118	-0.045
-97.859	39.438	0.297	0.261
-96.845	800.000	-0.019	-0.054
-95.830	104.442	-0.227	-0.262
-94.816	-46.374	-0.096	0.046
-93.801	10.298	-0.232	0.173
-92.786	-47.286	-0.194	0.093
-91.772	-200.000	-0.061	-0.313
-90.757	225.313	0.068	0.108
-89.743	61.927	-0.069	-0.067
-88.728	177.053	0.013	-0.018
-87.713	30.836	0.166	0.139
-86.699	-113.485	0.186	0.036
-85.684	-129.991	0.201	0.027
-84.670	-56.681	0.127	0.055
-83.655	-75.583	-0.091	0.032
-82.640	237.565	0.154	0.251
-81.626	-200.000	-0.030	-0.142
-80.611	-74.145	-0.125	0.044
-79.597	800.000	-0.144	-0.555
-78.582	19.529	-0.223	0.176
-77.567	800.000	0.117	0.394
-76.553	-33.902	0.290	-0.156
-75.538	146.651	0.114	-0.150
-74.524	53.384	-0.260	-0.244
-73.509	-155.063	0.033	-0.002
-72.494	-64.818	-0.123	0.049
-71.480	13.314	-0.141	-0.107
-70.465	-29.722	0.358	-0.200
-69.451	-47.623	0.196	-0.093
-68.436	-145.370	0.275	-0.024
-67.422	77.902	0.133	0.139
-66.407	-17.083	0.173	0.107
-65.392	76.834	-0.103	-0.107
-64.378	800.000	0.031	-0.088
-63.363	-200.000	0.062	0.602
-62.349	56.639	-0.272	-0.259
-61.334	98.978	-0.920	-1.040
-60.319	382.114	0.347	0.697
-59.305	800.000	-0.349	-1.043
-58.290	428.529	0.516	1.091
-57.276	435.771	0.746	1.588
-56.261	-200.000	112.872	644.395
-55.246	475.739	1502.561	3320.337
-54.232	146.960	2678.444	3523.781
-53.217	97.501	2290.215	2573.568
-52.203	36.651	1902.893	1643.818
-51.188	30.821	1694.545	1419.495
-50.173	28.250	1653.315	1365.749
-49.159	50.155	1707.722	1577.108
-48.144	48.951	1722.449	1581.541
-47.130	30.399	1680.739	1404.517
-46.115	27.681	1666.805	1372.396
-45.100	27.502	1661.413	1366.559
-44.086	27.606	1658.808	1365.140
-43.071	27.533	1655.899	1362.145
-42.057	27.355	1654.423	1359.551
-41.042	27.550	1651.492	1358.541
-40.027	27.496	1649.876	1356.757
-39.013	27.563	1647.889	1355.565
-37.998	27.522	1646.042	1353.688
-36.984	27.444	1645.331	1352.474
-35.969	27.569	1643.859	1352.135
-34.954	27.555	1642.193	1350.610
-33.940	27.680	1639.867	1349.568
-32.925	27.569	1638.479	1347.553
-31.911	27.697	1636.423	1346.749
-30.896	27.565	1634.937	1344.500
-29.881	27.641	1633.692	1343.988
-28.867	27.627	1631.606	1342.113
-27.852	27.626	1630.326	1340.996
-26.838	27.570	1629.007	1339.450
-25.823	27.676	1627.062	1338.575
-24.809	27.582	1626.298	1337.202
-23.794	27.654	1624.693	1336.354
-22.779	27.701	1623.145	1335.374
-21.765	27.690	1621.684	1334.040
-20.750	27.599	1620.097	1332.014
-19.736	27.676	1618.974	1331.602
-18.721	27.655	1617.129	1329.881
-17.706	27.757	1615.408	1329.157
-16.692	27.695	1614.315	1327.747
-15.677	27.632	1613.177	1326.302
-14.663	27.665	1611.679	1325.258
-13.648	27.679	1610.446	1324.294
-12.633	27.658	1608.668	1322.630
-11.619	27.659	1607.065	1321.267
-10.604	27.631	1605.856	1320.017
-9.590	27.572	1604.472	1318.398
-8.575	27.693	1603.388	1318.327
-7.560	27.682	1602.250	1317.265
-6.546	27.666	1601.100	1316.147
-5.531	27.647	1599.973	1315.035
-4.517	27.635	1598.996	1314.089
-3.502	27.550	1597.833	1312.474
-2.487	27.708	1596.102	1312.132
-1.473	27.280	1584.112	1299.170
-0.458	24.365	1565.410	1263.170
0.556	19.213	1565.854	1232.003
1.571	16.975	1589.833	1234.490
2.586	16.659	1602.278	1241.731
3.600	16.126	1551.933	1198.816
4.615	13.672	1454.428	1107.032
5.629	11.363	1399.386	1050.194
6.644	10.583	1393.279	1040.514
7.659	10.589	1391.851	1039.394
8.673	10.644	1390.507	1038.655
9.688	10.645	1388.348	1036.953
10.702	10.544	1385.096	1033.790
11.717	11.758	1386.313	1042.348
12.731	14.585	1391.568	1064.264
13.746	17.150	1394.994	1083.171
14.761	17.407	1395.461	1085.075
15.775	16.730	1392.470	1078.344
16.790	15.634	1389.820	1069.225
17.804	14.868	1387.239	1062.283
18.819	14.299	1386.231	1057.804
19.834	13.973	1384.844	1054.583
20.848	13.749	1383.951	1052.387
21.863	13.574	1382.321	1049.946
22.877	13.390	1381.389	1047.976
23.892	13.373	1380.054	1046.762
24.907	13.350	1378.950	1045.688
25.921	13.431	1378.264	1045.587
26.936	13.395	1377.972	1045.048
27.950	13.457	1376.536	1044.255
28.965	13.485	1375.471	1043.534
29.980	13.611	1374.048	1043.153
30.994	13.606	1373.037	1042.261
32.009	13.636	1371.944	1041.528
33.023	13.608	1370.662	1040.291
34.038	13.597	1369.341	1039.126
35.053	13.568	1368.035	1037.863
36.067	13.465	1367.635	1036.822
37.082	13.514	1366.431	1036.123
38.096	13.555	1365.077	1035.262
39.111	13.592	1363.914	1034.518
40.126	13.515	1363.150	1033.369
41.140	13.379	1362.754	1032.126
42.155	13.378	1361.879	1031.368
43.169	13.310	1361.753	1030.757
44.184	13.294	1361.672	1030.503
45.199	13.271	1361.272	1029.968
46.213	13.442	1360.040	1030.008
47.228	13.525	1359.086	1029.706
48.242	13.417	1358.288	1028.342
49.257	13.363	1357.190	1027.083
50.271	13.446	1355.315	1026.093
51.286	13.439	1354.215	1025.120
52.301	13.483	1352.528	1024.025
53.315	13.400	1351.853	1022.911
54.330	13.356	1350.612	1021.610
55.344	13.391	1349.372	1020.798
56.359	13.350	1347.964	1019.392
57.374	13.487	1347.046	1019.447
58.388	13.263	1346.941	1017.899
59.403	13.240	1346.376	1017.241
60.417	13.328	1345.473	1017.010
61.432	13.166	1344.917	1015.503
62.447	13.261	1343.699	1015.081
63.461	13.199	1342.598	1013.779
64.476	13.161	1341.839	1012.882
65.490	13.124	1340.411	1011.488
66.505	13.247	1338.732	1010.886
67.520	13.218	1337.720	1009.851
68.534	13.239	1336.628	1009.067
69.549	13.251	1335.727	1008.369
70.563	13.237	1334.561	1007.314
71.578	13.254	1333.340	1006.407
72.593	13.178	1332.445	1005.180
73.607	13.107	1331.866	1004.224
74.622	13.048	1331.007	1003.126
75.636	13.228	1329.575	1003.055
76.651	13.181	1329.160	1002.366
77.666	13.113	1329.079	1001.802
78.680	13.192	1328.413	1001.692
79.695	13.163	1327.371	1000.646
80.709	13.155	1327.076	1000.283
81.724	13.263	1326.196	1000.183
82.739	13.302	1325.091	999.500
83.753	13.377	1323.942	998.997
84.768	13.566	1322.823	999.205
85.782	13.535	1321.977	998.291
86.797	13.364	1320.901	996.359
87.812	13.421	1318.940	995.135
88.826	13.422	1318.163	994.464
89.841	13.570	1317.126	994.482
90.855	13.516	1316.075	993.280
91.870	13.497	1315.121	992.356
92.884	13.484	1314.493	991.720
93.899	13.583	1313.572	991.529
94.914	13.606	1313.022	991.159
95.928	13.679	1311.778	990.570
96.943	13.590	1311.090	989.430
97.957	13.527	1310.291	988.367
98.972	13.475	1308.841	986.875
99.987	13.453	1307.957	985.993
101.001	13.517	1306.824	985.429
102.016	13.480	1305.797	984.349
103.030	13.567	1305.017	984.188
104.045	13.463	1304.220	982.884
105.060	13.387	1303.331	981.676
106.074	13.427	1301.427	980.391
107.089	13.304	1300.309	978.733
108.103	13.250	1298.726	977.138
109.118	13.275	1297.378	976.185
110.133	13.232	1296.470	975.162
111.147	13.306	1294.377	973.935
112.162	13.348	1293.883	973.729
113.176	13.323	1292.779	972.662
114.191	13.419	1291.407	972.107
115.206	13.424	1290.015	971.001
116.220	13.382	1289.015	969.918
117.235	13.396	1287.997	969.147
118.249	13.410	1286.967	968.371
119.264	13.436	1285.686	967.473
120.279	13.334	1285.011	966.285
121.293	13.289	1283.855	965.068
122.308	13.247	1283.168	964.220
123.322	13.284	1281.366	962.996
124.337	13.253	1280.872	962.359
125.352	13.324	1279.706	961.810
126.366	13.154	1278.771	960.034
127.381	13.319	1277.406	959.882
128.395	13.288	1276.365	958.835
129.410	13.314	1275.743	958.434
130.424	13.331	1274.859	957.782
131.439	13.260	1273.959	956.610
132.454	13.462	1272.279	956.434
133.468	13.482	1271.286	955.720
134.483	13.446	1271.039	955.241
135.497	13.365	1270.218	954.068
136.512	13.295	1269.036	952.693
137.527	13.381	1267.076	951.632
138.541	13.439	1265.596	950.772
139.556	13.452	1264.759	950.137
140.570	13.446	1263.506	949.076
141.585	13.490	1262.234	948.290
142.600	13.503	1261.530	947.746
143.614	13.648	1260.412	947.652
144.629	13.591	1259.502	946.563
145.643	13.591	1257.864	945.244
146.658	13.564	1256.821	944.224
147.673	13.503	1255.845	943.063
148.687	13.490	1254.265	941.714
149.702	13.555	1252.568	940.730
150.716	13.433	1251.589	939.218
151.731	13.472	1250.603	938.615
152.746	13.490	1248.969	937.408
153.760	13.626	1247.369	936.891
154.775	13.576	1247.386	936.541
155.789	13.629	1245.784	935.555
156.804	13.644	1244.588	934.654
157.819	13.560	1244.048	933.696
158.833	13.571	1243.609	933.348
159.848	13.793	1242.102	933.379
160.862	13.700	1240.912	931.882
161.877	13.612	1239.902	930.545
162.892	13.570	1238.859	929.443
163.906	13.573	1238.166	928.861
164.921	13.652	1236.847	928.229
165.935	13.645	1235.870	927.377
166.950	13.673	1235.769	927.373
167.964	13.681	1235.000	926.763
168.979	13.706	1234.139	926.174
169.994	13.649	1233.533	925.320
171.008	13.664	1233.029	924.941
172.023	13.816	1231.562	924.607
173.037	13.812	1230.941	924.035
174.052	13.824	1229.767	923.140
175.067	13.740	1228.915	921.951
176.081	13.633	1227.919	920.526
177.096	13.712	1227.037	920.226
178.110	13.783	1225.549	919.421
179.125	13.722	1224.507	918.216
180.140	13.820	1223.168	917.675
181.154	13.826	1222.337	917.004
182.169	13.803	1221.347	916.054
183.183	13.848	1220.185	915.352
184.198	13.881	1218.978	914.546
185.213	13.884	1218.032	913.770
186.227	13.942	1216.439	912.814
187.242	13.922	1215.478	911.900
188.256	14.045	1214.459	911.729
189.271	14.082	1213.445	911.095
190.286	13.829	1212.609	909.000
191.300	13.788	1211.552	907.900
192.315	13.739	1210.965	907.111
193.329	13.711	1210.596	906.605
194.344	13.738	1209.904	906.154
195.359	13.774	1209.561	906.012
196.373	13.975	1208.540	906.265
197.388	13.983	1208.265	906.023
198.402	14.083	1207.689	906.056
199.417	14.235	1206.878	906.190
200.432	14.238	1206.311	905.701
201.446	14.292	1205.126	905.026
202.461	14.288	1204.127	904.177
203.475	14.235	1203.372	903.237
204.490	14.165	1201.936	901.704
205.504	14.118	1200.453	900.254
206.519	14.184	1199.378	899.725
207.534	14.233	1197.888	898.795
208.548	14.123	1197.225	897.621
209.563	14.116	1197.112	897.422
210.577	14.159	1195.962	896.713
211.592	14.254	1194.990	896.414
212.607	14.219	1194.202	895.558
213.621	14.332	1193.162	895.303
214.636	14.286	1192.518	894.498
215.650	14.323	1191.416	893.789
216.665	14.398	1190.320	893.288
217.680	14.393	1189.551	892.606
218.694	14.439	1188.542	892.019
219.709	14.396	1187.841	891.181
220.723	14.472	1186.901	890.802
221.738	14.400	1186.713	890.201
222.753	14.520	1185.558	889.892
223.767	14.512	1184.988	889.345
224.782	14.442	1184.842	888.782
225.796	14.589	1184.000	888.856
226.811	14.542	1183.002	887.777
227.826	14.515	1182.309	887.037
228.840	14.386	1181.882	885.950
229.855	14.523	1181.168	886.063
230.869	14.601	1179.929	885.471
231.884	14.424	1179.394	884.051
232.899	14.444	1178.407	883.341
233.913	14.456	1177.938	882.973
234.928	14.438	1177.209	882.254
235.942	14.422	1176.221	881.354
236.957	14.459	1175.592	881.000
237.972	14.482	1175.037	880.625
238.986	14.512	1173.883	879.843
240.001	14.448	1173.637	879.243
241.015	14.465	1172.745	878.586
242.030	14.482	1171.825	877.909
243.045	14.558	1171.302	877.836
244.059	14.715	1170.423	877.926
245.074	14.630	1169.414	876.647
246.088	14.666	1168.402	875.999
247.103	14.664	1167.563	875.283
248.117	14.777	1166.923	875.316
249.132	14.912	1166.000	875.252
250.147	14.902	1165.520	874.761
251.161	14.978	1164.889	874.607
252.176	14.956	1164.520	874.138
253.190	15.043	1163.578	873.812
254.205	15.131	1162.778	873.590
255.220	15.125	1162.505	873.278
256.234	15.105	1161.689	872.484
257.249	15.060	1161.361	871.923
258.263	15.023	1160.944	871.341
259.278	15.044	1160.019	870.677
260.293	14.982	1159.792	870.111
261.307	15.089	1158.519	869.636
262.322	15.076	1158.081	869.161
263.336	15.230	1157.438	869.401
264.351	15.186	1156.734	868.568
265.366	15.282	1156.005	868.438
266.380	15.173	1155.585	867.483
267.395	15.240	1154.536	866.966
268.409	15.249	1153.668	866.283
269.424	15.127	1153.167	865.199
270.439	15.160	1153.091	865.236
271.453	15.099	1152.199	864.177
272.468	15.208	1150.671	863.515
273.482	15.264	1149.915	863.157
274.497	15.233	1149.261	862.435
275.512	15.217	1149.027	862.100
276.526	15.256	1148.355	861.718
277.541	15.214	1147.572	860.839
278.555	15.195	1147.132	860.335
279.570	15.336	1146.175	860.262
280.585	15.444	1145.122	859.951
281.599	15.420	1144.405	859.212
282.614	15.374	1143.162	857.969
283.628	15.264	1142.272	856.665
284.643	15.337	1141.419	856.321
285.657	15.353	1140.726	855.809
286.672	15.456	1139.743	855.519
287.687	15.452	1138.557	854.532
288.701	15.470	1137.698	853.906
289.716	15.443	1136.938	853.123
290.730	15.443	1136.363	852.612
291.745	15.605	1135.698	852.863
292.760	15.556	1135.159	852.133
293.774	15.627	1134.492	851.916
294.789	15.699	1134.108	851.919
295.803	15.574	1132.962	850.347
296.818	15.588	1132.432	849.948
297.833	15.608	1131.630	849.372
298.847	15.630	1130.639	848.663
299.862	15.608	1129.968	847.973
300.876	15.652	1129.256	847.585
301.891	15.657	1128.942	847.300
302.906	15.742	1127.514	846.582
303.920	15.764	1127.237	846.409
304.935	15.736	1126.689	845.783
305.949	15.936	1125.960	846.165
306.964	15.766	1125.642	844.995
307.979	15.813	1124.716	844.461
308.993	15.827	1123.537	843.574
310.008	15.971	1122.659	843.558
311.022	15.828	1122.419	842.590
312.037	15.812	1121.614	841.829
313.052	15.819	1120.575	841.009
314.066	15.846	1119.311	840.125
315.081	15.734	1118.801	839.109
316.095	15.733	1118.152	838.542
317.110	15.740	1117.378	837.923
318.125	15.715	1116.684	837.202
319.139	15.837	1115.566	836.898
320.154	15.765	1115.537	836.444
321.168	15.805	1115.034	836.189
322.183	15.904	1114.100	835.907
323.197	15.912	1113.740	835.602
324.212	15.875	1113.033	834.814
325.227	15.790	1112.754	834.111
326.241	15.981	1111.524	834.063
327.256	15.832	1110.775	832.685
328.270	16.000	1109.719	832.653
329.285	15.868	1109.078	831.447
330.300	15.975	1107.844	830.973
331.314	15.977	1106.857	830.169
332.329	15.862	1106.274	829.092
333.343	15.909	1105.294	828.517
334.358	15.960	1104.771	828.302
335.373	16.030	1103.870	827.896
336.387	16.007	1103.320	827.300
337.402	16.127	1102.191	826.968
338.416	16.127	1101.422	826.316
339.431	16.086	1101.094	825.796
340.446	16.286	1100.056	825.924
341.460	16.364	1099.701	825.965
342.475	16.220	1098.720	824.454
343.489	16.234	1097.815	823.769
344.504	16.394	1096.543	823.524
345.519	16.353	1095.958	822.810
346.533	16.482	1095.148	822.757
347.548	16.464	1094.398	822.034
348.562	16.385	1093.646	821.013
349.577	16.462	1092.967	820.806
350.592	16.298	1092.253	819.401
351.606	16.335	1091.721	819.108
352.621	16.330	1090.855	818.361
353.635	16.373	1089.844	817.739
354.650	16.249	1089.763	817.005
355.665	16.264	1089.211	816.591
356.679	16.394	1088.238	816.419
357.694	16.352	1088.072	816.017
358.708	16.421	1086.894	815.394
359.723	16.421	1086.493	815.020
360.738	16.507	1085.241	814.423
361.752	16.398	1085.182	813.785
362.767	16.511	1084.435	813.696
363.781	16.333	1084.304	812.667
364.796	16.489	1083.470	812.721
365.810	16.597	1082.615	812.525
366.825	16.549	1082.389	812.057
367.840	16.666	1081.777	812.085
368.854	16.761	1081.223	812.051
369.869	16.622	1080.682	810.907
370.883	16.666	1079.663	810.283
371.898	16.674	1078.664	809.498
372.913	16.734	1077.871	809.120
373.927	16.814	1077.450	809.115
374.942	16.768	1076.923	808.425
375.956	16.790	1076.326	808.012
376.971	16.770	1076.052	807.638
377.986	16.825	1075.788	807.630
379.000	16.789	1075.394	807.096
380.015	16.875	1074.487	806.749
381.029	16.955	1073.641	806.424
382.044	16.882	1073.252	805.715
383.059	16.951	1072.359	805.300
384.073	17.056	1071.432	805.032
385.088	16.971	1070.543	803.890
386.102	16.923	1069.512	802.817
387.117	17.036	1068.628	802.614
388.132	16.790	1068.233	801.087
389.146	16.816	1067.024	800.232
390.161	16.846	1066.471	799.886
391.175	16.868	1065.661	799.310
392.190	16.911	1065.113	799.031
393.205	17.010	1064.208	798.750
394.219	16.973	1063.627	798.066
395.234	16.965	1062.602	797.191
396.248	16.967	1061.787	796.518
397.263	17.053	1060.469	795.863
398.278	17.006	1059.862	795.116
399.292	16.985	1059.146	794.409
400.307	16.833	1058.911	793.451
401.321	16.917	1057.829	792.967
402.336	16.936	1057.634	792.838
403.350	16.983	1056.450	792.096
404.365	17.102	1055.570	791.923
405.380	17.088	1055.109	791.444
406.394	17.092	1054.514	790.944
407.409	17.147	1053.883	790.659
408.423	17.164	1053.178	790.139
409.438	17.312	1052.032	789.898
410.453	17.287	1051.965	789.661
411.467	17.323	1050.636	788.758
412.482	17.262	1050.522	788.323
413.496	17.404	1049.621	788.235
414.511	17.459	1049.053	787.990
415.526	17.425	1048.638	787.451
416.540	17.552	1047.820	787.355
417.555	17.574	1046.949	786.731
418.569	17.589	1047.176	786.902
419.584	17.425	1046.804	785.797
420.599	17.572	1046.110	785.885
421.613	104.818	1325.080	1476.024
422.628	96.360	1365.704	1476.107
