DTS Sentinel unit serial number:	SN413079Multiplexer serial number:	ORYXHardware model number:	OX4-SRSoftware version number:	ORYX F/W v4.00 Oryx Data Collector v3.7.2.0data status	okinstallation	princeton_trtdifferential loss correction	single-endedforward channel	channel 2reverse channel	N/Adate	2019/09/11time	13:21:11forward acquisition time	60.00reverse acquisition time	0.00gamma	496.2192k internal	0.2293k external	0.2293temperature offset calibration	1.0005default loss term (dB/km)	0.3790temperature slope calibration	1.0000multiplexer offset coefficient	1.0000multiplexer slope coefficient	1.0000fibre end	0.00T internal ref (°C)	41.94T ext. ref 1 (°C)	0.82T ext. ref 2 (°C)	36.19length (m)	temperature (°C)	Stokes	anti-Stokes-747.200	-200.000	-0.006	-0.167
-746.185	-2.407	0.046	0.033
-745.171	130.115	-0.078	0.102
-744.156	-200.000	-0.103	0.953
-743.142	-200.000	0.014	-0.206
-742.127	-140.843	-0.225	-0.024
-741.112	305.604	-0.076	-0.145
-740.098	-67.762	0.081	0.033
-739.083	-200.000	-0.044	-0.347
-738.069	238.763	0.157	0.267
-737.054	65.829	-0.167	-0.173
-736.039	31.467	-0.308	0.271
-735.025	35.324	-0.119	-0.106
-734.010	-200.000	-0.044	-0.390
-732.996	-200.000	-0.017	-0.286
-731.981	576.839	-0.143	-0.358
-730.966	-161.755	0.357	0.019
-729.952	158.818	0.129	-0.183
-728.937	-200.000	0.017	0.086
-727.923	800.000	0.025	0.077
-726.908	-200.000	0.062	-0.299
-725.894	254.978	-0.043	0.076
-724.879	691.366	0.086	0.230
-723.864	-123.911	-0.340	0.055
-722.850	800.000	-0.058	-0.260
-721.835	283.355	0.113	0.208
-720.821	-84.582	-0.217	-0.070
-719.806	51.648	-0.291	-0.283
-718.791	179.946	-0.063	-0.094
-717.777	-155.012	0.130	0.009
-716.762	-200.000	-0.000	-0.116
-715.748	800.000	0.009	0.036
-714.733	385.034	0.055	-0.115
-713.718	-200.000	0.005	-0.207
-712.704	-61.054	0.147	-0.063
-711.689	-40.461	0.262	-0.139
-710.675	200.128	0.196	-0.307
-709.660	294.123	-0.129	-0.240
-708.645	158.538	-0.077	0.109
-707.631	-10.221	0.060	0.040
-706.616	222.884	0.022	-0.037
-705.602	249.736	0.184	-0.318
-704.587	-49.395	-0.014	0.007
-703.572	-68.644	-0.201	0.079
-702.558	800.000	0.049	-0.145
-701.543	321.226	-0.033	0.063
-700.529	-75.719	-0.014	-0.005
-699.514	-8.666	-0.170	-0.116
-698.499	780.857	-0.024	0.066
-697.485	79.965	0.107	-0.118
-696.470	-167.127	0.135	-0.006
-695.456	-26.415	0.131	0.078
-694.441	363.247	0.026	0.054
-693.426	-174.443	-0.146	0.004
-692.412	-118.504	0.140	-0.025
-691.397	800.000	0.029	0.098
-690.383	-200.000	-0.007	0.213
-689.368	678.899	0.058	-0.155
-688.354	545.865	0.110	-0.270
-687.339	327.732	0.035	0.069
-686.324	211.744	0.042	0.068
-685.310	-96.613	-0.563	-0.151
-684.295	27.126	-0.352	0.302
-683.281	205.182	-0.080	0.126
-682.266	-57.327	-0.041	0.018
-681.251	69.920	0.156	0.164
-680.237	-200.000	-0.026	-0.139
-679.222	-200.000	0.006	-0.193
-678.208	-8.941	0.107	0.073
-677.193	-138.171	0.166	0.019
-676.178	-13.885	-0.432	-0.285
-675.164	-96.051	-0.249	-0.068
-674.149	122.411	-0.057	-0.073
-673.135	-106.657	-0.189	-0.043
-672.120	35.097	-0.189	-0.169
-671.105	-91.602	-0.195	0.057
-670.091	516.199	0.021	-0.050
-669.076	-100.175	-0.330	-0.084
-668.062	622.249	0.058	-0.148
-667.047	142.226	-0.072	0.097
-666.032	-200.000	0.307	0.000
-665.018	71.090	-0.127	-0.135
-664.003	48.707	0.201	0.192
-662.989	-58.269	-0.195	0.086
-661.974	143.808	-0.222	0.302
-660.959	56.332	0.238	-0.236
-659.945	800.000	0.060	-0.172
-658.930	354.240	-0.162	-0.327
-657.916	68.035	-0.375	0.391
-656.901	-109.607	-0.303	0.065
-655.886	800.000	-0.041	0.119
-654.872	25.022	-0.273	0.231
-653.857	800.000	-0.035	-0.142
-652.843	-121.525	0.181	-0.031
-651.828	108.593	0.010	0.013
-650.814	473.563	-0.088	-0.202
-649.799	-140.196	-0.250	0.027
-648.784	-60.266	0.236	0.103
-647.770	744.635	0.093	-0.254
-646.755	-49.891	-0.308	0.149
-645.741	800.000	0.003	0.011
-644.726	-172.754	0.275	-0.009
-643.711	-45.813	-0.056	0.028
-642.697	-81.425	-0.187	0.063
-641.682	88.085	-0.213	-0.241
-640.668	800.000	-0.031	-0.094
-639.653	800.000	0.094	0.286
-638.638	209.779	0.068	-0.108
-637.624	-200.000	0.020	0.331
-636.609	800.000	-0.042	-0.173
-635.595	-159.746	-0.319	-0.018
-634.580	-200.000	-0.023	-0.254
-633.565	12.563	0.156	-0.122
-632.551	800.000	-0.040	-0.153
-631.536	-67.148	-0.033	0.013
-630.522	-11.855	-0.214	-0.143
-629.507	50.651	-0.106	0.102
-628.492	-13.151	-0.303	-0.201
-627.478	228.358	-0.141	-0.234
-626.463	-19.427	0.223	0.141
-625.449	-200.000	-0.004	0.082
-624.434	-200.000	-0.013	0.240
-623.419	315.591	-0.110	0.212
-622.405	780.408	0.044	0.124
-621.390	-42.488	-0.340	0.176
-620.376	-120.434	0.186	-0.032
-619.361	-78.685	0.143	0.050
-618.346	-82.260	0.383	0.127
-617.332	-12.802	-0.235	-0.156
-616.317	360.482	-0.056	-0.115
-615.303	-118.295	0.278	0.050
-614.288	-133.098	0.306	0.039
-613.273	-200.000	-0.023	0.137
-612.259	149.561	-0.137	-0.189
-611.244	-56.318	-0.119	-0.054
-610.230	-200.000	-0.012	-0.054
-609.215	143.819	-0.124	0.169
-608.201	221.227	-0.223	0.364
-607.186	-27.469	0.071	0.042
-606.171	474.074	-0.052	-0.119
-605.157	-66.901	-0.460	0.185
-604.142	175.780	-0.107	-0.158
-603.128	-137.145	0.134	-0.016
-602.113	-200.000	0.009	-0.233
-601.098	-169.588	0.215	-0.008
-600.084	-200.000	-0.084	0.430
-599.069	800.000	-0.150	0.484
-598.055	390.069	-0.055	0.115
-597.040	124.327	0.083	0.107
-596.025	-180.817	-0.231	-0.005
-595.011	-62.812	-0.177	-0.074
-593.996	800.000	-0.044	0.162
-592.982	393.041	0.087	0.184
-591.967	800.000	-0.063	0.237
-590.952	-33.882	0.100	0.056
-589.938	329.925	-0.149	0.291
-588.923	800.000	0.077	-0.217
-587.909	-115.627	0.201	-0.038
-586.894	544.206	0.105	-0.256
-585.879	73.074	0.327	-0.348
-584.865	-119.376	0.356	-0.063
-583.850	-142.865	-0.142	0.014
-582.836	-74.465	0.166	0.061
-581.821	-55.532	-0.315	-0.143
-580.806	-190.475	0.184	-0.002
-579.792	-185.090	-0.343	0.005
-578.777	-200.000	0.024	-0.244
-577.763	-200.000	-0.001	0.045
-576.748	-200.000	-0.031	0.239
-575.733	-200.000	0.056	-0.429
-574.719	719.414	-0.185	0.499
-573.704	-200.000	-0.014	-0.082
-572.690	249.230	-0.123	-0.212
-571.675	-30.559	-0.034	-0.019
-570.661	-32.017	-0.095	0.054
-569.646	285.137	0.153	0.281
-568.631	119.348	-0.135	0.170
-567.617	169.179	0.151	0.219
-566.602	-118.106	-0.342	-0.062
-565.588	436.661	-0.029	0.065
-564.573	-200.000	-0.036	-0.170
-563.558	-21.750	0.025	0.015
-562.544	-200.000	-0.024	0.311
-561.529	139.141	-0.027	-0.036
-560.515	-200.000	-0.047	0.237
-559.500	1.963	-0.125	0.092
-558.485	-127.920	0.150	-0.022
-557.471	-75.807	-0.372	-0.134
-556.456	-152.546	0.230	-0.017
-555.442	-130.848	0.228	-0.031
-554.427	-26.800	0.280	-0.166
-553.412	155.089	0.174	-0.243
-552.398	-149.172	0.083	-0.007
-551.383	-200.000	-0.061	-0.364
-550.369	-8.245	0.183	0.125
-549.354	-52.853	0.243	0.114
-548.339	274.923	-0.095	-0.172
-547.325	61.316	-0.082	0.083
-546.310	-200.000	-0.025	0.303
-545.296	230.542	-0.182	0.303
-544.281	-66.340	-0.167	0.067
-543.266	-15.591	-0.206	0.133
-542.252	35.351	-0.149	0.132
-541.237	54.299	0.112	-0.110
-540.223	194.050	-0.187	-0.288
-539.208	-63.849	0.268	0.111
-538.193	246.344	0.110	-0.188
-537.179	-200.000	0.004	-0.064
-536.164	-44.829	0.261	0.132
-535.150	-90.228	0.031	-0.009
-534.135	-200.000	0.027	0.279
-533.121	-79.605	-0.378	-0.129
-532.106	-200.000	-0.001	-0.101
-531.091	0.730	0.074	0.054
-530.077	-170.473	0.625	0.022
-529.062	800.000	0.048	-0.209
-528.048	-42.235	0.250	-0.130
-527.033	800.000	-0.063	0.189
-526.018	-200.000	0.019	-0.126
-525.004	-200.000	0.015	0.159
-523.989	-135.606	-0.163	-0.020
-522.975	-200.000	-0.027	-0.259
-521.960	65.478	0.085	0.087
-520.945	-77.129	-0.153	0.054
-519.931	-40.730	0.320	-0.168
-518.916	-94.375	0.286	-0.079
-517.902	196.614	0.201	-0.311
-516.887	69.327	-0.107	-0.112
-515.872	-200.000	0.026	-0.225
-514.858	126.894	-0.040	-0.051
-513.843	-158.694	0.276	0.016
-512.829	-200.000	-0.009	-0.079
-511.814	126.516	-0.027	0.034
-510.799	-200.000	0.003	-0.168
-509.785	605.529	-0.056	-0.142
-508.770	433.858	0.098	-0.216
-507.756	93.859	-0.129	-0.148
-506.741	-200.000	-0.041	-0.288
-505.726	-200.000	0.010	0.083
-504.712	410.768	-0.055	-0.118
-503.697	-200.000	0.049	-0.268
-502.683	-119.697	-0.284	0.050
-501.668	800.000	-0.058	0.185
-500.653	-112.003	-0.142	0.029
-499.639	186.569	-0.094	-0.142
-498.624	448.206	-0.036	0.080
-497.610	-10.104	0.201	0.135
-496.595	-89.778	0.142	0.042
-495.581	-57.687	-0.085	0.038
-494.566	-73.085	-0.287	0.107
-493.551	-104.503	-0.265	-0.062
-492.537	-109.406	0.353	-0.076
-491.522	367.054	0.159	-0.326
-490.508	-0.604	0.370	0.266
-489.493	800.000	0.082	-0.267
-488.478	533.447	0.124	0.297
-487.464	224.265	0.100	0.164
-486.449	38.017	-0.136	0.123
-485.435	-103.908	-0.143	0.034
-484.420	-79.507	-0.204	0.070
-483.405	-42.452	-0.132	-0.068
-482.391	70.657	-0.035	-0.037
-481.376	57.160	-0.094	0.093
-480.362	35.959	0.158	-0.141
-479.347	409.654	-0.132	-0.284
-478.332	-25.119	0.190	-0.114
-477.318	-16.860	0.101	0.065
-476.303	-200.000	-0.091	0.413
-475.289	15.864	0.230	-0.183
-474.274	-29.299	-0.061	-0.035
-473.259	117.204	0.070	-0.087
-472.245	-100.054	0.289	-0.073
-471.230	-140.309	-0.162	-0.017
-470.216	-44.665	-0.118	0.060
-469.201	800.000	0.060	0.180
-468.186	410.986	0.121	-0.260
-467.172	341.959	-0.045	-0.090
-466.157	22.694	0.140	0.116
-465.143	-200.000	0.029	0.185
-464.128	466.951	0.116	-0.263
-463.113	-42.824	0.137	-0.070
-462.099	118.206	0.066	-0.082
-461.084	-200.000	0.069	0.354
-460.070	-43.024	0.067	-0.035
-459.055	704.435	-0.068	0.181
-458.040	138.524	0.242	-0.322
-457.026	-37.796	-0.148	0.080
-456.011	-77.712	-0.094	-0.033
-454.997	-200.000	-0.058	0.262
-453.982	-121.149	-0.453	0.077
-452.968	775.434	0.021	0.058
-451.953	-5.492	-0.090	-0.062
-450.938	-48.035	0.147	-0.072
-449.924	-16.909	-0.115	0.074
-448.909	12.531	0.200	-0.156
-447.895	-45.302	0.121	0.061
-446.880	734.884	-0.040	0.108
-445.865	-200.000	-0.030	0.183
-444.851	-200.000	0.003	0.082
-443.836	-100.261	0.307	0.077
-442.822	-200.000	-0.033	0.168
-441.807	-135.373	-0.153	0.019
-440.792	113.158	0.146	0.179
-439.778	-200.000	0.020	-0.242
-438.763	-200.000	-0.026	-0.210
-437.749	75.418	0.110	-0.118
-436.734	-53.186	-0.045	-0.021
-435.719	-77.053	-0.027	-0.010
-434.705	202.474	-0.271	-0.423
-433.690	7.797	-0.106	0.081
-432.676	-39.714	0.247	-0.130
-431.661	14.029	0.084	-0.066
-430.646	-73.108	-0.238	-0.088
-429.632	-14.272	0.188	0.122
-428.617	53.811	-0.227	0.221
-427.603	800.000	0.027	0.079
-426.588	-45.221	-0.160	-0.080
-425.573	-60.019	0.314	0.136
-424.559	-51.601	-0.201	0.095
-423.544	115.254	-0.113	0.139
-422.530	-19.733	-0.022	-0.014
-421.515	-200.000	-0.021	0.234
-420.500	800.000	-0.042	-0.118
-419.486	-200.000	0.010	-0.119
-418.471	-187.550	-0.151	-0.002
-417.457	-200.000	-0.003	-0.030
-416.442	-200.000	-0.021	0.163
-415.428	-93.914	-0.276	-0.077
-414.413	10.353	-0.057	-0.044
-413.398	-200.000	0.010	0.236
-412.384	-49.181	0.297	-0.143
-411.369	-20.836	-0.094	0.058
-410.355	-1.859	0.190	-0.135
-409.340	-200.000	-0.009	-0.132
-408.325	800.000	0.078	-0.238
-407.311	-154.648	-0.053	0.004
-406.296	-200.000	0.007	-0.250
-405.282	-80.909	-0.057	0.019
-404.267	137.644	-0.206	-0.272
-403.252	-200.000	-0.017	-0.211
-402.238	-24.871	0.184	0.111
-401.223	-41.013	0.229	-0.119
-400.209	-182.709	-0.297	-0.005
-399.194	259.735	0.152	0.266
-398.179	472.519	-0.095	-0.216
-397.165	314.396	0.119	0.227
-396.150	-200.000	-0.020	-0.135
-395.136	-63.896	-0.035	-0.015
-394.121	-142.819	0.167	0.016
-393.106	70.294	-0.167	0.174
-392.092	-200.000	0.018	0.149
-391.077	126.288	0.068	0.087
-390.063	0.508	0.141	0.102
-389.048	-158.054	0.035	0.002
-388.033	-200.000	-0.010	-0.230
-387.019	-31.421	0.163	0.092
-386.004	539.972	0.066	0.159
-384.990	-121.945	-0.154	0.026
-383.975	-96.669	-0.086	0.023
-382.960	84.512	-0.028	-0.031
-381.946	-96.997	-0.181	-0.048
-380.931	-200.000	0.001	0.245
-379.917	-152.488	0.112	-0.008
-378.902	51.767	-0.080	-0.076
-377.888	102.746	0.288	0.339
-376.873	253.514	-0.050	0.086
-375.858	-41.411	0.125	0.065
-374.844	-200.000	0.004	0.225
-373.829	-9.038	0.046	0.031
-372.815	56.731	0.093	0.092
-371.800	40.153	-0.147	-0.133
-370.785	-200.000	0.035	-0.167
-369.771	-200.000	-0.013	0.128
-368.756	-75.659	0.269	0.097
-367.742	-174.747	0.238	-0.007
-366.727	120.237	-0.101	-0.126
-365.712	-157.268	-0.171	0.010
-364.698	305.012	0.116	-0.217
-363.683	774.453	0.011	-0.030
-362.669	17.676	-0.305	0.245
-361.654	66.515	0.123	-0.126
-360.639	-112.600	-0.428	-0.086
-359.625	156.305	0.179	-0.249
-358.610	419.656	0.111	-0.240
-357.596	312.943	-0.092	0.174
-356.581	156.988	0.247	0.344
-355.566	57.864	-0.331	0.327
-354.552	-200.000	0.018	0.116
-353.537	704.279	0.108	-0.287
-352.523	-100.845	0.122	0.030
-351.508	-88.797	0.251	-0.075
-350.493	74.080	-0.238	-0.252
-349.479	800.000	-0.127	0.393
-348.464	-110.031	0.135	0.028
-347.450	33.134	0.049	-0.042
-346.435	-200.000	0.000	-0.284
-345.420	186.657	-0.122	-0.183
-344.406	400.228	-0.048	-0.102
-343.391	94.885	-0.002	-0.002
-342.377	-108.032	-0.269	0.059
-341.362	-72.560	-0.045	0.017
-340.348	-200.000	-0.003	-0.193
-339.333	-200.000	-0.023	0.186
-338.318	6.774	-0.104	0.078
-337.304	108.565	-0.063	0.076
-336.289	-200.000	0.005	0.035
-335.275	-29.623	-0.086	-0.050
-334.260	121.802	0.285	0.358
-333.245	-91.861	-0.052	-0.015
-332.231	289.814	0.184	-0.337
-331.216	-200.000	0.016	-0.385
-330.202	-136.384	0.082	0.010
-329.187	71.822	0.064	0.067
-328.172	58.269	0.073	0.072
-327.158	800.000	0.012	-0.041
-326.143	726.944	-0.090	-0.241
-325.129	-200.000	-0.019	0.203
-324.114	-182.227	0.167	-0.003
-323.099	79.073	0.268	0.289
-322.085	-190.376	0.106	0.001
-321.070	130.847	0.214	-0.277
-320.056	-200.000	0.008	-0.098
-319.041	543.004	0.128	-0.307
-318.026	-49.625	-0.185	-0.088
-317.012	404.675	0.081	0.173
-315.997	-159.296	-0.097	0.005
-314.983	-52.083	-0.160	-0.075
-313.968	59.414	-0.222	-0.220
-312.953	-29.619	-0.219	0.126
-311.939	-85.453	-0.346	-0.108
-310.924	-149.235	-0.383	-0.031
-309.910	-70.449	-0.539	-0.206
-308.895	214.724	0.106	0.169
-307.880	-134.384	0.456	-0.056
-306.866	800.000	0.039	0.157
-305.851	111.910	0.272	0.331
-304.837	-74.254	0.160	0.058
-303.822	-141.432	0.185	-0.019
-302.807	800.000	0.064	-0.248
-301.793	26.115	-0.066	0.055
-300.778	104.076	-0.114	-0.135
-299.764	101.548	-0.141	-0.165
-298.749	38.373	0.168	0.150
-297.735	117.087	0.317	-0.392
-296.720	15.636	-0.065	-0.052
-295.705	166.979	0.147	0.210
-294.691	159.295	0.198	-0.277
-293.676	233.338	-0.067	-0.110
-292.662	109.582	0.237	-0.286
-291.647	731.467	0.066	0.176
-290.632	-34.787	-0.028	-0.015
-289.618	-200.000	0.001	-0.046
-288.603	-200.000	-0.028	0.266
-287.589	-131.782	-0.053	0.007
-286.574	-26.083	-0.163	0.097
-285.559	-37.107	-0.136	0.073
-284.545	3.868	0.079	-0.058
-283.530	125.137	0.064	-0.082
-282.516	-110.031	0.292	-0.061
-281.501	-127.571	-0.277	0.040
-280.486	-200.000	-0.032	-0.212
-279.472	143.122	0.123	0.164
-278.457	-169.958	-0.166	0.006
-277.443	-200.000	0.002	0.209
-276.428	105.183	-0.098	-0.116
-275.413	800.000	-0.047	-0.205
-274.399	-62.809	0.184	0.077
-273.384	64.129	-0.138	0.139
-272.370	245.167	0.225	0.380
-271.355	113.419	0.111	0.136
-270.340	-86.369	-0.390	0.121
-269.326	92.212	-0.173	-0.195
-268.311	237.334	0.039	0.065
-267.297	-127.070	-0.191	-0.028
-266.282	188.026	-0.113	0.170
-265.267	800.000	0.078	0.302
-264.253	33.320	-0.083	0.072
-263.238	5.294	0.145	-0.107
-262.224	-98.913	-0.149	0.038
-261.209	-67.347	-0.148	0.058
-260.195	-200.000	-0.003	-0.313
-259.180	80.060	0.081	0.088
-258.165	-5.292	-0.180	0.124
-257.151	-200.000	0.002	0.299
-256.136	-96.576	0.280	-0.074
-255.122	-200.000	-0.082	-0.423
-254.107	137.998	0.118	-0.156
-253.092	-70.323	-0.357	0.136
-252.078	-15.249	0.150	0.096
-251.063	92.777	-0.243	-0.275
-250.049	314.525	0.106	-0.200
-249.034	-69.785	-0.300	-0.115
-248.019	-200.000	0.018	-0.309
-247.005	140.690	-0.159	-0.211
-245.990	800.000	0.166	0.466
-244.976	800.000	0.112	0.339
-243.961	-24.594	-0.364	-0.218
-242.946	-200.000	0.053	-0.268
-241.932	58.550	-0.071	-0.070
-240.917	107.547	0.173	-0.206
-239.903	0.374	-0.110	0.079
-238.888	-111.144	0.156	0.032
-237.873	-200.000	0.002	0.067
-236.859	-14.568	-0.108	-0.069
-235.844	-142.969	0.347	-0.034
-234.830	281.837	-0.157	-0.282
-233.815	53.660	0.286	0.276
-232.800	402.744	0.055	0.115
-231.786	-200.000	0.003	0.220
-230.771	71.203	0.166	-0.172
-229.757	-18.281	-0.034	-0.021
-228.742	108.091	0.108	-0.129
-227.727	388.919	0.011	-0.022
-226.713	800.000	-0.052	0.216
-225.698	-32.701	-0.208	0.116
-224.684	800.000	-0.173	-0.565
-223.669	-43.022	0.265	0.135
-222.655	-91.634	0.031	-0.009
-221.640	78.862	0.212	0.228
-220.625	414.014	-0.075	0.159
-219.611	334.548	0.234	-0.454
-218.596	-200.000	0.034	0.167
-217.582	-200.000	-0.028	0.130
-216.567	450.938	0.076	0.168
-215.552	-78.975	-0.283	-0.096
-214.538	800.000	-0.031	-0.108
-213.523	-30.866	0.353	0.200
-212.509	96.638	0.208	0.239
-211.494	114.433	0.079	0.097
-210.479	-27.080	0.118	0.069
-209.465	-28.809	-0.352	0.203
-208.450	-200.000	0.028	0.138
-207.436	363.163	-0.066	-0.133
-206.421	-59.187	0.217	-0.094
-205.406	-200.000	0.066	-0.323
-204.392	-200.000	-0.016	0.113
-203.377	-200.000	-0.009	0.250
-202.363	-92.596	0.222	-0.062
-201.348	-30.005	-0.373	-0.213
-200.333	-200.000	-0.024	-0.117
-199.319	-45.953	0.044	0.022
-198.304	800.000	-0.026	-0.086
-197.290	-200.000	-0.017	-0.170
-196.275	-200.000	-0.014	0.206
-195.260	-200.000	0.027	0.464
-194.246	477.373	-0.030	0.069
-193.231	326.653	-0.048	0.093
-192.217	-54.552	0.257	0.116
-191.202	800.000	-0.045	-0.193
-190.187	-200.000	0.003	-0.096
-189.173	-200.000	-0.038	-0.231
-188.158	8.769	0.172	-0.130
-187.144	800.000	-0.069	0.210
-186.129	-156.303	-0.359	-0.023
-185.114	218.994	-0.110	-0.177
-184.100	-18.635	0.162	-0.101
-183.085	-200.000	-0.036	-0.180
-182.071	-80.326	-0.152	0.051
-181.056	381.547	-0.160	-0.329
-180.042	239.349	-0.144	0.240
-179.027	-19.284	-0.357	0.222
-178.012	-117.387	0.244	-0.044
-176.998	-173.198	-0.563	0.017
-175.983	5.902	-0.181	0.134
-174.969	212.705	-0.051	0.081
-173.954	-200.000	-0.138	0.000
-172.939	-200.000	-0.008	-0.132
-171.925	-200.000	0.021	0.406
-170.910	-49.130	0.268	0.128
-169.896	800.000	-0.107	0.308
-168.881	-9.065	0.168	-0.112
-167.866	-62.164	0.174	0.073
-166.852	-85.671	0.439	-0.136
-165.837	-200.000	0.002	-0.344
-164.823	185.164	-0.079	-0.117
-163.808	-86.167	0.314	-0.097
-162.793	-193.755	0.145	0.001
-161.779	-5.393	0.085	0.059
-160.764	204.864	-0.082	0.128
-159.750	800.000	0.053	0.211
-158.735	180.374	-0.117	-0.171
-157.720	-200.000	0.034	0.192
-156.706	85.969	-0.150	0.165
-155.691	-122.369	0.401	0.065
-154.677	-160.483	-0.237	-0.013
-153.662	800.000	0.041	0.128
-152.647	70.795	-0.086	0.089
-151.633	37.980	-0.261	-0.232
-150.618	-72.625	0.150	0.055
-149.604	-17.509	0.246	-0.155
-148.589	-72.813	0.331	-0.122
-147.574	800.000	0.035	-0.153
-146.560	67.485	-0.168	0.172
-145.545	-131.905	-0.268	0.035
-144.531	-26.698	0.232	-0.136
-143.516	-24.315	0.202	-0.120
-142.502	-200.000	0.050	0.380
-141.487	-125.458	-0.291	-0.044
-140.472	248.388	0.107	-0.181
-139.458	800.000	0.091	-0.307
-138.443	-200.000	-0.024	0.172
-137.429	-39.286	0.269	0.141
-136.414	-74.142	-0.370	0.134
-135.399	-200.000	0.000	-0.072
-134.385	0.962	-0.233	-0.167
-133.370	178.519	-0.087	0.126
-132.356	800.000	-0.036	-0.131
-131.341	360.733	-0.051	0.101
-130.326	-18.314	-0.211	0.132
-129.312	-200.000	0.003	0.401
-128.297	370.073	0.127	0.256
-127.283	-200.000	0.042	0.255
-126.268	-128.161	0.087	-0.012
-125.253	279.120	-0.084	-0.150
-124.239	84.666	0.226	-0.247
-123.224	-49.687	0.150	0.071
-122.210	52.476	0.145	0.139
-121.195	-200.000	0.026	-0.410
-120.180	300.702	0.162	-0.298
-119.166	140.496	-0.111	-0.146
-118.151	253.200	0.051	-0.087
-117.137	-200.000	-0.008	-0.315
-116.122	-180.711	0.126	0.003
-115.107	-126.783	0.212	-0.031
-114.093	44.699	-0.017	0.016
-113.078	-200.000	0.014	0.188
-112.064	-200.000	0.002	0.066
-111.049	-200.000	-0.029	-0.147
-110.034	-200.000	0.241	0.000
-109.020	224.148	-0.109	-0.175
-108.005	93.164	0.316	0.357
-106.991	106.848	0.223	0.265
-105.976	-176.305	-0.255	-0.007
-104.962	800.000	-0.012	-0.035
-103.947	-114.746	0.040	0.008
-102.932	514.481	0.103	-0.239
-101.918	100.966	0.141	0.164
-100.903	96.521	-0.060	-0.068
-99.889	-33.088	-0.201	0.111
-98.874	800.000	0.092	0.300
-97.859	215.582	0.086	0.136
-96.845	-200.000	-0.031	0.159
-95.830	-102.249	0.334	0.080
-94.816	127.818	-0.086	-0.109
-93.801	-111.640	-0.019	-0.004
-92.786	-116.775	0.122	0.022
-91.772	-0.675	0.166	-0.118
-90.757	-200.000	-0.073	0.422
-89.743	52.716	-0.105	-0.101
-88.728	-96.377	0.257	-0.068
-87.713	26.095	-0.078	0.065
-86.699	12.567	-0.143	0.110
-85.684	20.432	-0.362	0.291
-84.670	66.824	-0.219	-0.222
-83.655	800.000	-0.073	0.224
-82.640	-200.000	-0.024	0.188
-81.626	166.122	0.063	-0.089
-80.611	92.936	-0.100	-0.113
-79.597	138.062	-0.120	-0.156
-78.582	29.266	-0.206	0.174
-77.567	-47.184	-0.346	0.168
-76.553	800.000	-0.085	0.250
-75.538	-10.663	-0.096	-0.064
-74.524	105.719	-0.140	-0.165
-73.509	4.159	-0.089	0.065
-72.494	-112.923	-0.167	-0.033
-71.480	-113.992	-0.196	-0.038
-70.465	352.583	0.078	0.155
-69.451	-115.518	-0.167	-0.031
-68.436	800.000	-0.060	-0.192
-67.422	-200.000	-0.011	-0.141
-66.407	125.984	-0.123	0.156
-65.392	146.482	-0.120	0.161
-64.378	24.264	0.176	-0.145
-63.363	800.000	0.132	-0.375
-62.349	375.039	-0.028	-0.056
-61.334	-35.594	-0.823	-0.445
-60.319	503.525	0.241	0.556
-59.305	360.691	-0.354	-0.707
-58.290	796.472	0.283	0.777
-57.276	-200.000	0.228	1.342
-56.261	-200.000	75.503	533.242
-55.246	558.351	1309.149	3145.963
-54.232	143.726	2561.406	3399.763
-53.217	112.173	2366.193	2848.861
-52.203	51.520	1979.725	1873.814
-51.188	45.460	1765.472	1623.083
-50.173	42.479	1718.420	1556.691
-49.159	56.800	1752.503	1699.612
-48.144	62.325	1771.565	1761.116
-47.130	45.234	1734.947	1593.005
-46.115	42.020	1720.711	1554.960
-45.100	41.867	1715.897	1549.361
-44.086	41.867	1713.173	1546.841
-43.071	41.936	1710.287	1544.710
-42.057	41.738	1708.184	1541.220
-41.042	41.764	1706.097	1539.475
-40.027	41.825	1704.132	1538.109
-39.013	41.768	1702.247	1535.905
-37.998	41.795	1700.054	1534.076
-36.984	41.946	1698.580	1533.840
-35.969	41.965	1697.138	1532.629
-34.954	42.040	1695.416	1531.586
-33.940	41.941	1693.405	1528.952
-32.925	41.975	1691.523	1527.450
-31.911	41.924	1690.030	1525.651
-30.896	42.018	1688.023	1524.495
-29.881	41.940	1686.475	1522.447
-28.867	42.043	1684.604	1521.479
-27.852	41.889	1683.392	1519.155
-26.838	41.994	1681.384	1518.075
-25.823	41.952	1680.199	1516.628
-24.809	42.003	1678.752	1515.651
-23.794	41.994	1677.211	1514.132
-22.779	41.877	1675.950	1512.043
-21.765	41.864	1673.966	1510.095
-20.750	41.937	1672.276	1509.067
-19.736	41.957	1671.111	1508.103
-18.721	42.018	1669.492	1507.037
-17.706	41.894	1667.832	1504.549
-16.692	41.892	1666.293	1503.083
-15.677	41.925	1664.619	1501.766
-14.663	42.024	1663.356	1501.309
-13.648	41.992	1662.601	1500.330
-12.633	41.867	1660.614	1497.536
-11.619	41.922	1658.741	1496.205
-10.604	41.963	1657.248	1495.104
-9.590	41.976	1655.641	1493.692
-8.575	41.920	1654.875	1492.523
-7.560	41.906	1653.737	1491.335
-6.546	42.012	1652.175	1490.655
-5.531	41.988	1650.669	1489.056
-4.517	41.925	1649.880	1487.819
-3.502	41.899	1648.733	1486.530
-2.487	41.847	1647.477	1484.951
-1.473	41.950	1635.768	1475.097
-0.458	39.268	1615.012	1436.769
0.556	34.191	1614.088	1400.098
1.571	31.512	1638.660	1401.246
2.586	30.859	1653.387	1408.778
3.600	27.210	1598.253	1334.946
4.615	14.577	1476.125	1146.568
5.629	3.199	1399.434	1012.400
6.644	0.937	1389.411	990.277
7.659	0.878	1387.430	988.392
8.673	0.751	1386.570	986.863
9.688	0.735	1384.605	985.271
10.702	0.507	1382.084	981.911
11.717	4.640	1391.258	1015.367
12.731	16.402	1413.445	1109.098
13.746	24.038	1426.399	1169.545
14.761	24.356	1425.476	1170.772
15.775	24.372	1424.866	1170.267
16.790	24.388	1424.357	1169.851
17.804	24.401	1423.964	1169.512
18.819	24.669	1423.737	1170.979
19.834	24.701	1422.650	1170.187
20.848	24.628	1422.143	1169.194
21.863	24.734	1421.073	1168.899
22.877	24.769	1420.057	1168.190
23.892	24.704	1419.614	1167.297
24.907	24.653	1418.691	1166.101
25.921	24.724	1417.667	1165.624
26.936	24.680	1416.680	1164.420
27.950	24.718	1415.547	1163.636
28.965	24.672	1414.161	1162.095
29.980	24.688	1412.734	1160.918
30.994	24.658	1411.523	1159.628
32.009	24.631	1410.518	1158.525
33.023	24.705	1409.447	1158.026
34.038	24.755	1407.745	1156.848
35.053	24.619	1407.226	1155.440
36.067	24.701	1405.930	1154.801
37.082	24.671	1405.114	1153.834
38.096	24.630	1404.485	1152.952
39.111	24.691	1403.106	1152.112
40.126	24.738	1402.529	1151.838
41.140	24.584	1402.216	1150.486
42.155	24.735	1401.553	1150.814
43.169	24.713	1401.906	1150.860
44.184	24.659	1401.343	1149.946
45.199	24.693	1400.892	1149.691
46.213	24.617	1400.452	1148.742
47.228	24.724	1399.266	1148.354
48.242	24.623	1398.519	1146.991
49.257	24.676	1396.661	1145.706
50.271	24.676	1395.462	1144.620
51.286	24.625	1393.812	1142.845
52.301	24.714	1392.230	1142.012
53.315	24.722	1391.335	1141.228
54.330	24.598	1391.051	1140.105
55.344	24.670	1389.666	1139.322
56.359	24.698	1388.874	1138.755
57.374	24.663	1388.243	1137.913
58.388	24.640	1387.720	1137.236
59.403	24.678	1387.066	1136.843
60.417	24.675	1386.084	1135.919
61.432	24.666	1385.199	1135.034
62.447	24.680	1384.299	1134.287
63.461	24.743	1383.129	1133.627
64.476	24.670	1382.279	1132.366
65.490	24.800	1380.981	1132.026
66.505	24.705	1379.477	1130.093
67.520	24.723	1378.225	1129.078
68.534	24.657	1377.559	1128.018
69.549	24.728	1376.263	1127.303
70.563	24.674	1375.535	1126.269
71.578	24.735	1374.435	1125.655
72.593	24.663	1373.678	1124.478
73.607	24.695	1372.874	1123.924
74.622	24.634	1372.269	1122.946
75.636	24.670	1371.798	1122.688
76.651	24.625	1371.229	1121.840
77.666	24.656	1370.405	1121.261
78.680	24.711	1369.835	1121.041
79.695	24.703	1369.043	1120.240
80.709	24.665	1368.309	1119.305
81.724	24.667	1367.242	1118.344
82.739	24.651	1366.254	1117.335
83.753	24.724	1365.333	1116.942
84.768	24.717	1364.095	1115.784
85.782	24.611	1363.243	1114.329
86.797	24.703	1361.944	1113.741
87.812	24.706	1360.725	1112.668
88.826	24.635	1359.734	1111.314
89.841	24.734	1358.783	1111.053
90.855	24.737	1357.726	1110.112
91.870	24.676	1356.656	1108.762
92.884	24.693	1355.805	1108.071
93.899	24.806	1354.998	1108.012
94.914	24.747	1354.149	1106.857
95.928	24.632	1353.654	1105.639
96.943	24.781	1352.365	1105.412
97.957	24.722	1351.954	1104.612
98.972	24.770	1351.004	1104.035
99.987	24.754	1350.290	1103.259
101.001	24.646	1349.473	1101.827
102.016	24.679	1348.376	1101.035
103.030	24.749	1347.121	1100.341
104.045	24.704	1346.441	1099.416
105.060	24.738	1345.259	1098.559
106.074	24.875	1344.040	1098.311
107.089	24.830	1343.193	1097.241
108.103	24.792	1342.039	1095.971
109.118	24.787	1341.222	1095.174
110.133	24.802	1339.736	1093.956
111.147	24.803	1338.613	1092.948
112.162	24.910	1337.462	1092.567
113.176	24.742	1336.907	1090.995
114.191	24.706	1335.979	1089.921
115.206	24.757	1334.467	1088.900
116.220	24.866	1333.308	1088.521
117.235	24.762	1332.554	1087.179
118.249	24.776	1331.494	1086.302
119.264	24.825	1330.740	1085.888
120.279	24.855	1330.049	1085.408
121.293	24.840	1329.517	1084.784
122.308	24.832	1328.292	1083.645
123.322	24.847	1327.199	1082.747
124.337	24.881	1326.556	1082.332
125.352	24.970	1325.371	1081.806
126.366	24.907	1324.854	1080.911
127.381	24.879	1324.273	1080.169
128.395	24.809	1322.965	1078.587
129.410	24.903	1322.277	1078.495
130.424	24.814	1321.690	1077.383
131.439	24.847	1320.774	1076.740
132.454	24.810	1320.220	1075.972
133.468	24.925	1319.242	1075.771
134.483	24.908	1318.448	1074.927
135.497	24.915	1317.757	1074.312
136.512	24.912	1316.588	1073.245
137.527	24.896	1315.608	1072.255
138.541	24.861	1314.198	1070.799
139.556	24.895	1313.170	1070.073
140.570	24.891	1312.118	1069.098
141.585	24.844	1310.972	1067.785
142.600	24.894	1309.629	1066.898
143.614	24.930	1308.950	1066.463
144.629	24.889	1307.589	1065.018
145.643	24.847	1306.742	1063.985
146.658	24.783	1305.741	1062.695
147.673	24.839	1305.088	1062.403
148.687	24.763	1304.126	1061.070
149.702	24.777	1302.687	1059.893
150.716	24.726	1301.375	1058.427
151.731	24.728	1300.906	1057.962
152.746	24.790	1299.406	1057.016
153.760	24.808	1298.268	1056.106
154.775	24.908	1297.109	1055.659
155.789	24.786	1296.420	1054.283
156.804	24.714	1295.461	1052.990
157.819	24.780	1294.793	1052.740
158.833	24.826	1294.186	1052.424
159.848	24.876	1293.412	1051.997
160.862	24.930	1292.181	1051.215
161.877	24.861	1291.448	1050.121
162.892	24.986	1290.304	1049.831
163.906	24.870	1290.212	1048.983
164.921	24.884	1289.319	1048.251
165.935	24.908	1288.751	1047.835
166.950	24.881	1288.193	1047.133
167.964	24.997	1286.871	1046.643
168.979	24.992	1286.762	1046.432
169.994	24.909	1286.370	1045.532
171.008	24.899	1285.244	1044.468
172.023	24.950	1284.382	1043.970
173.037	24.939	1283.659	1043.227
174.052	25.014	1282.594	1042.706
175.067	24.952	1282.103	1041.858
176.081	24.947	1281.076	1040.900
177.096	24.976	1280.376	1040.406
178.110	25.036	1279.469	1039.923
179.125	25.002	1278.417	1038.781
180.140	25.066	1277.477	1038.296
181.154	24.992	1276.345	1036.855
182.169	24.946	1275.346	1035.690
183.183	24.949	1274.051	1034.560
184.198	25.009	1273.399	1034.284
185.213	24.988	1272.122	1033.035
186.227	24.999	1271.538	1032.537
187.242	25.032	1270.533	1031.815
188.256	25.085	1269.813	1031.446
189.271	25.123	1268.584	1030.573
190.286	25.040	1268.204	1029.697
191.300	25.006	1267.493	1028.836
192.315	24.936	1266.934	1027.885
193.329	24.926	1266.989	1027.784
194.344	25.046	1266.117	1027.674
195.359	24.970	1266.133	1027.158
196.373	25.027	1265.077	1026.538
197.388	25.066	1264.316	1026.053
198.402	24.958	1263.923	1025.029
199.417	25.031	1263.871	1025.311
200.432	24.957	1263.533	1024.525
201.446	25.053	1262.245	1023.939
202.461	25.018	1261.793	1023.279
203.475	25.207	1260.913	1023.556
204.490	25.070	1259.956	1021.906
205.504	24.954	1259.045	1020.415
206.519	25.077	1258.358	1020.469
207.534	25.122	1256.930	1019.475
208.548	25.095	1256.286	1018.711
209.563	25.071	1255.347	1017.724
210.577	25.193	1254.494	1017.632
211.592	25.172	1253.745	1016.818
212.607	25.107	1253.060	1015.802
213.621	25.115	1252.380	1015.206
214.636	25.142	1251.441	1014.510
215.650	25.157	1250.570	1013.796
216.665	25.233	1249.579	1013.333
217.680	25.124	1248.730	1011.941
218.694	25.080	1248.160	1011.141
219.709	25.190	1247.177	1010.873
220.723	25.308	1246.388	1010.813
221.738	25.181	1245.851	1009.571
222.753	24.991	1245.092	1007.799
223.767	25.154	1244.254	1007.947
224.782	25.301	1243.914	1008.405
225.796	25.312	1242.995	1007.634
226.811	25.183	1242.762	1006.634
227.826	25.338	1241.981	1006.780
228.840	25.350	1241.283	1006.194
229.855	25.295	1240.610	1005.247
230.869	25.165	1240.331	1004.206
231.884	25.264	1239.370	1003.892
232.899	25.219	1238.415	1002.779
233.913	25.309	1238.068	1002.915
234.928	25.280	1237.531	1002.229
235.942	25.439	1236.434	1002.137
236.957	25.327	1235.958	1001.040
237.972	25.307	1235.504	1000.470
238.986	25.296	1234.888	999.821
240.001	25.422	1233.998	999.715
241.015	25.391	1233.671	999.190
242.030	25.403	1232.454	998.180
243.045	25.482	1231.773	997.982
244.059	25.411	1231.180	997.019
245.074	25.442	1230.204	996.311
246.088	25.457	1229.524	995.754
247.103	25.511	1228.598	995.215
248.117	25.462	1227.646	994.084
249.132	25.331	1227.322	993.008
250.147	25.522	1226.044	992.942
251.161	25.434	1226.021	992.351
252.176	25.530	1224.963	991.936
253.190	25.461	1224.333	990.960
254.205	25.495	1223.974	990.769
255.220	25.525	1222.867	989.948
256.234	25.598	1222.498	989.964
257.249	25.619	1221.672	989.325
258.263	25.524	1221.538	988.604
259.278	25.639	1220.661	988.442
260.293	25.658	1220.219	988.096
261.307	25.533	1219.878	987.048
262.322	25.542	1219.454	986.669
263.336	25.570	1218.319	985.816
264.351	25.572	1217.704	985.241
265.366	25.511	1217.225	984.433
266.380	25.534	1216.392	983.799
267.395	25.563	1215.714	983.321
268.409	25.519	1215.442	982.775
269.424	25.594	1214.701	982.494
270.439	25.590	1214.058	981.870
271.453	25.592	1213.217	981.112
272.468	25.541	1212.475	980.146
273.482	25.526	1211.903	979.517
274.497	25.591	1211.493	979.449
275.512	25.650	1210.948	979.247
276.526	25.572	1209.974	977.948
277.541	25.629	1209.672	977.928
278.555	25.662	1209.314	977.731
279.570	25.618	1208.516	976.761
280.585	25.726	1207.489	976.430
281.599	25.705	1206.370	975.325
282.614	25.739	1205.501	974.721
283.628	25.673	1204.593	973.542
284.643	25.714	1203.787	973.027
285.657	25.680	1203.157	972.244
286.672	25.565	1202.325	970.870
287.687	25.672	1201.437	970.640
288.701	25.818	1200.728	970.772
289.716	25.681	1200.067	969.410
290.730	25.772	1199.397	969.277
291.745	25.830	1198.801	969.017
292.760	25.770	1198.301	968.206
293.774	25.854	1197.260	967.732
294.789	25.823	1196.838	967.135
295.803	25.892	1196.438	967.099
296.818	25.849	1195.720	966.201
297.833	25.923	1194.744	965.728
298.847	25.833	1194.368	964.854
299.862	25.914	1193.313	964.352
300.876	25.870	1192.892	963.689
301.891	25.909	1192.051	963.130
302.906	25.871	1191.478	962.379
303.920	26.053	1190.604	962.560
304.935	25.938	1190.083	961.443
305.949	25.865	1189.381	960.398
306.964	25.981	1188.788	960.452
307.979	25.987	1188.473	960.146
308.993	25.985	1188.032	959.693
310.008	26.068	1186.866	959.109
311.022	26.048	1186.168	958.353
312.037	26.009	1185.443	957.476
313.052	25.944	1184.393	956.198
314.066	26.048	1183.542	955.976
315.081	25.968	1183.166	955.166
316.095	25.919	1182.841	954.559
317.110	26.067	1181.644	954.294
318.125	25.994	1181.548	953.745
319.139	25.971	1180.585	952.762
320.154	26.040	1179.886	952.474
321.168	26.061	1179.282	952.014
322.183	26.002	1179.227	951.576
323.197	26.076	1178.310	951.143
324.212	26.017	1177.499	950.094
325.227	26.074	1177.276	950.131
326.241	26.205	1176.420	950.040
327.256	26.094	1175.845	948.913
328.270	26.199	1174.933	948.642
329.285	26.113	1174.095	947.429
330.300	26.169	1173.196	946.914
331.314	26.238	1172.236	946.418
332.329	26.222	1171.594	945.730
333.343	26.293	1170.951	945.498
334.358	26.199	1170.213	944.327
335.373	26.228	1169.456	943.784
336.387	26.197	1168.993	943.165
337.402	26.202	1168.395	942.625
338.416	26.387	1167.141	942.496
339.431	26.370	1166.445	941.762
340.446	26.278	1166.063	940.893
341.460	26.439	1165.610	941.283
342.475	26.368	1164.547	939.969
343.489	26.366	1163.912	939.362
344.504	26.400	1162.898	938.641
345.519	26.303	1162.258	937.534
346.533	26.345	1161.409	936.987
347.548	26.461	1160.402	936.689
348.562	26.393	1159.927	935.875
349.577	26.452	1159.093	935.423
350.592	26.420	1158.255	934.500
351.606	26.322	1158.020	933.719
352.621	26.410	1157.137	933.380
353.635	26.489	1156.663	933.321
354.650	26.376	1156.418	932.457
355.665	26.417	1155.429	931.789
356.679	26.545	1154.779	931.844
357.694	26.574	1154.116	931.374
358.708	26.514	1153.353	930.367
359.723	26.448	1152.623	929.356
360.738	26.520	1152.211	929.312
361.752	26.498	1151.340	928.417
362.767	26.475	1150.775	927.759
363.781	26.578	1150.282	927.808
364.796	26.515	1150.060	927.222
365.810	26.524	1149.668	926.874
366.825	26.455	1148.834	925.763
367.840	26.607	1148.093	925.862
368.854	26.678	1147.758	925.875
369.869	26.610	1146.574	924.491
370.883	26.612	1145.952	923.917
371.898	26.676	1145.609	923.885
372.913	26.667	1144.398	922.782
373.927	26.675	1144.385	922.730
374.942	26.755	1143.581	922.406
375.956	26.561	1143.556	921.317
376.971	26.642	1142.546	920.836
377.986	26.736	1141.990	920.782
379.000	26.676	1141.952	920.363
380.015	26.716	1141.080	919.783
381.029	26.687	1140.158	918.812
382.044	26.811	1139.474	918.807
383.059	26.775	1138.873	918.061
384.073	26.804	1138.199	917.584
385.088	26.853	1136.992	916.774
386.102	26.877	1135.926	915.955
387.117	26.907	1135.398	915.602
388.132	26.892	1134.534	914.744
389.146	26.807	1134.195	913.965
390.161	26.779	1133.917	913.519
391.175	26.877	1132.725	912.970
392.190	26.851	1131.738	911.963
393.205	26.730	1131.332	910.948
394.219	27.013	1130.416	911.550
395.234	26.823	1130.010	910.189
396.248	27.009	1128.878	910.127
397.263	27.062	1127.873	909.502
398.278	26.975	1127.566	908.738
399.292	27.084	1126.758	908.552
400.307	27.104	1126.235	908.150
401.321	26.961	1126.017	907.181
402.336	26.973	1125.398	906.660
403.350	26.960	1124.465	905.765
404.365	27.104	1123.640	905.738
405.380	27.007	1123.345	904.938
406.394	27.122	1121.884	904.253
407.409	27.168	1121.338	903.963
408.423	27.051	1121.007	903.030
409.438	27.273	1119.734	903.029
410.453	27.129	1119.428	901.986
411.467	27.082	1118.687	901.075
412.482	27.135	1117.865	900.596
413.496	27.199	1117.168	900.275
414.511	27.257	1116.540	899.975
415.526	27.196	1116.179	899.305
416.540	27.223	1115.886	899.120
417.555	27.226	1115.524	898.762
418.569	27.104	1115.026	897.683
419.584	27.244	1114.352	897.752
420.599	27.257	1113.946	897.408
421.613	83.350	1293.931	1351.677
422.628	78.332	1320.148	1351.808
