DTS Sentinel unit serial number:	SN413079Multiplexer serial number:	ORYXHardware model number:	OX4-SRSoftware version number:	ORYX F/W v4.00 Oryx Data Collector v3.7.2.0data status	okinstallation	princeton_trtdifferential loss correction	single-endedforward channel	channel 2reverse channel	N/Adate	2019/09/14time	01:35:34forward acquisition time	60.00reverse acquisition time	0.00gamma	496.2192k internal	0.2337k external	0.2337temperature offset calibration	1.0124default loss term (dB/km)	0.3790temperature slope calibration	1.0000multiplexer offset coefficient	1.0000multiplexer slope coefficient	1.0000fibre end	0.00T internal ref (°C)	26.44T ext. ref 1 (°C)	3.19T ext. ref 2 (°C)	21.48length (m)	temperature (°C)	Stokes	anti-Stokes-747.200	-200.000	-0.009	-0.318
-746.185	114.422	0.076	0.093
-745.171	40.491	0.290	0.263
-744.156	-200.000	-0.034	0.265
-743.142	-64.079	0.058	0.024
-742.127	-200.000	-0.008	0.378
-741.112	699.463	-0.094	-0.248
-740.098	-85.904	0.154	-0.048
-739.083	12.502	0.257	-0.199
-738.069	-200.000	0.005	-0.132
-737.054	-137.254	0.161	-0.018
-736.039	546.351	-0.057	-0.137
-735.025	126.770	0.161	0.205
-734.010	490.797	-0.136	-0.312
-732.996	-200.000	-0.089	-0.429
-731.981	151.716	0.192	-0.262
-730.966	800.000	0.044	0.121
-729.952	-23.261	0.156	0.094
-728.937	88.782	0.333	-0.372
-727.923	-114.960	-0.007	0.001
-726.908	-200.000	0.030	0.277
-725.894	313.995	-0.066	-0.125
-724.879	-105.667	-0.032	-0.007
-723.864	-130.360	-0.282	0.038
-722.850	106.268	-0.310	-0.368
-721.835	-79.640	0.368	-0.124
-720.821	184.984	0.166	-0.247
-719.806	-200.000	0.002	0.205
-718.791	-121.551	0.295	-0.049
-717.777	197.537	-0.035	0.054
-716.762	800.000	-0.085	0.359
-715.748	-89.404	0.081	0.024
-714.733	-117.818	-0.046	0.008
-713.718	-118.777	0.158	0.028
-712.704	-152.697	0.141	-0.010
-711.689	-52.137	0.554	-0.257
-710.675	95.840	-0.140	0.161
-709.660	256.286	-0.049	-0.084
-708.645	-200.000	-0.030	-0.202
-707.631	800.000	0.015	0.048
-706.616	800.000	0.125	-0.423
-705.602	62.921	0.089	0.089
-704.587	-23.795	0.065	0.039
-703.572	-200.000	0.018	0.192
-702.558	-64.391	-0.090	-0.037
-701.543	-121.018	0.257	-0.043
-700.529	-118.179	-0.101	0.018
-699.514	798.828	0.121	0.336
-698.499	800.000	0.085	-0.288
-697.485	120.082	0.137	-0.170
-696.470	585.499	0.206	-0.507
-695.456	2.010	-0.344	-0.249
-694.441	-128.928	0.258	0.036
-693.426	-140.818	-0.110	0.011
-692.412	97.027	0.139	0.159
-691.397	-200.000	-0.009	0.048
-690.383	-111.615	0.128	0.026
-689.368	-107.689	-0.144	0.032
-688.354	-200.000	-0.007	-0.266
-687.339	800.000	0.069	-0.211
-686.324	667.630	0.024	-0.062
-685.310	-76.186	0.107	0.038
-684.295	-37.334	0.201	-0.107
-683.281	72.026	0.133	-0.138
-682.266	-16.361	0.422	-0.268
-681.251	96.653	-0.089	-0.102
-680.237	-91.274	-0.207	0.059
-679.222	800.000	0.046	-0.191
-678.208	483.495	0.091	-0.207
-677.193	65.508	-0.194	0.196
-676.178	-16.911	-0.080	-0.051
-675.164	-200.000	-0.014	-0.279
-674.149	342.497	-0.232	-0.455
-673.135	-61.470	-0.231	-0.097
-672.120	-102.844	-0.149	-0.035
-671.105	180.176	-0.161	0.237
-670.091	46.665	-0.331	-0.308
-669.076	-128.867	0.200	-0.028
-668.062	111.578	0.144	0.174
-667.047	-168.443	0.173	0.007
-666.032	-67.037	-0.189	0.075
-665.018	-99.878	0.498	-0.125
-664.003	-200.000	-0.066	0.447
-662.989	6.781	-0.269	0.201
-661.974	-131.366	0.289	0.038
-660.959	6.403	-0.011	-0.009
-659.945	11.657	-0.101	-0.077
-658.930	-200.000	-0.030	-0.244
-657.916	511.582	-0.042	0.098
-656.901	-110.667	-0.070	0.014
-655.886	84.433	0.262	-0.286
-654.872	124.680	-0.298	-0.376
-653.857	190.895	0.140	-0.211
-652.843	-88.026	0.160	-0.048
-651.828	166.568	0.134	0.190
-650.814	270.231	0.101	0.177
-649.799	380.037	0.138	0.284
-648.784	-200.000	0.008	-0.121
-647.770	46.260	-0.166	-0.153
-646.755	-88.415	-0.390	-0.116
-645.741	-41.213	-0.227	0.117
-644.726	97.550	-0.350	0.403
-643.711	-56.308	0.289	-0.129
-642.697	-68.628	-0.313	0.121
-641.682	-200.000	0.001	-0.394
-640.668	-200.000	0.009	-0.319
-639.653	-48.801	-0.352	0.169
-638.638	46.950	-0.037	0.034
-637.624	-118.816	0.438	-0.077
-636.609	-200.000	-0.015	0.110
-635.595	58.802	-0.168	0.165
-634.580	-78.653	0.263	-0.090
-633.565	-153.385	-0.300	-0.021
-632.551	197.364	-0.100	-0.153
-631.536	800.000	0.058	0.189
-630.522	97.106	-0.105	0.120
-629.507	-130.679	-0.089	-0.012
-628.492	-189.926	-0.153	0.002
-627.478	795.251	-0.119	-0.328
-626.463	-2.832	0.159	-0.111
-625.449	147.403	0.176	0.237
-624.434	-200.000	0.018	0.326
-623.419	37.567	0.150	-0.133
-622.405	-200.000	0.023	0.152
-621.390	-174.613	0.158	0.005
-620.376	175.631	0.138	0.201
-619.361	800.000	-0.122	-0.498
-618.346	-200.000	0.037	-0.218
-617.332	256.902	0.138	-0.237
-616.317	93.258	-0.300	-0.339
-615.303	800.000	0.041	0.127
-614.288	475.383	-0.072	0.162
-613.273	-200.000	-0.029	0.324
-612.259	23.031	0.214	-0.176
-611.244	100.064	-0.053	0.062
-610.230	-200.000	0.012	-0.289
-609.215	467.830	0.040	0.089
-608.201	404.822	-0.013	0.028
-607.186	-73.825	-0.282	-0.102
-606.171	441.525	-0.099	-0.216
-605.157	800.000	-0.012	0.036
-604.142	-39.763	0.237	0.123
-603.128	37.445	0.196	-0.173
-602.113	1.194	0.015	-0.011
-601.098	-200.000	0.020	-0.243
-600.084	-83.839	0.171	0.054
-599.069	-200.000	0.002	-0.158
-598.055	-4.128	-0.279	0.193
-597.040	-12.383	0.105	-0.069
-596.025	-200.000	0.003	0.430
-595.011	-85.829	-0.196	-0.061
-593.996	-200.000	0.000	-0.238
-592.982	477.234	-0.130	0.292
-591.967	-142.906	0.255	0.025
-590.952	-124.279	0.265	-0.041
-589.938	-72.660	-0.278	0.102
-588.923	-200.000	-0.028	-0.146
-587.909	35.156	-0.101	-0.088
-586.894	5.639	-0.200	-0.147
-585.879	290.818	0.095	-0.171
-584.865	-200.000	-0.051	0.231
-583.850	-89.549	0.353	-0.103
-582.836	-30.518	-0.135	-0.076
-581.821	-200.000	0.026	0.153
-580.806	-75.265	0.213	-0.076
-579.792	-124.503	0.265	0.041
-578.777	101.418	-0.179	-0.208
-577.763	118.662	-0.198	0.244
-576.748	-200.000	-0.029	-0.147
-575.733	559.819	0.140	0.337
-574.719	-155.909	-0.225	0.014
-573.704	358.357	0.036	-0.072
-572.690	-200.000	-0.041	-0.204
-571.675	-200.000	0.018	-0.130
-570.661	-80.896	-0.173	0.057
-569.646	30.756	0.149	0.127
-568.631	74.701	-0.040	-0.042
-567.617	-76.698	0.409	-0.143
-566.602	106.563	0.280	-0.331
-565.588	-131.456	0.023	-0.003
-564.573	62.006	0.180	-0.178
-563.558	800.000	-0.082	0.287
-562.544	-200.000	0.086	0.489
-561.529	-45.167	0.087	0.043
-560.515	800.000	0.052	0.157
-559.500	-200.000	0.041	-0.356
-558.485	-172.270	-0.458	-0.015
-557.471	-55.195	0.111	-0.050
-556.456	708.222	-0.045	-0.118
-555.442	249.027	-0.114	0.192
-554.427	-88.011	-0.172	0.051
-553.412	-154.962	-0.282	0.018
-552.398	-200.000	0.038	0.232
-551.383	-175.347	0.121	-0.003
-550.369	-123.001	0.232	-0.037
-549.354	186.630	-0.155	-0.229
-548.339	-132.810	0.151	0.019
-547.325	-72.067	-0.143	-0.053
-546.310	-200.000	0.083	-0.390
-545.296	-200.000	-0.018	0.102
-544.281	-63.441	0.145	-0.059
-543.266	473.416	0.116	-0.261
-542.252	-71.694	0.519	-0.193
-541.237	-107.685	-0.245	0.053
-540.223	178.970	0.122	0.178
-539.208	-25.364	0.314	-0.185
-538.193	800.000	0.047	-0.176
-537.179	-127.774	0.308	0.044
-536.164	92.742	-0.098	-0.110
-535.150	88.250	-0.098	-0.108
-534.135	439.331	0.026	0.057
-533.121	-11.712	0.165	-0.108
-532.106	-149.587	-0.404	0.032
-531.091	-52.796	0.140	0.064
-530.077	-41.087	0.086	0.044
-529.062	-27.758	-0.318	-0.184
-528.048	-151.724	0.364	-0.027
-527.033	-200.000	0.019	0.188
-526.018	28.621	-0.270	0.227
-525.004	-54.530	0.122	-0.055
-523.989	800.000	-0.006	0.020
-522.975	-200.000	-0.007	0.140
-521.960	-3.640	0.345	-0.239
-520.945	3.986	0.103	0.075
-519.931	3.299	-0.304	0.220
-518.916	-101.347	-0.561	-0.136
-517.902	-82.411	0.170	-0.055
-516.887	-200.000	-0.004	-0.237
-515.872	52.594	-0.164	0.156
-514.858	88.076	0.156	-0.172
-513.843	-200.000	-0.001	0.014
-512.829	0.438	-0.318	0.226
-511.814	-79.930	0.398	0.133
-510.799	800.000	-0.033	0.111
-509.785	-178.748	0.357	-0.008
-508.770	-200.000	0.037	0.223
-507.756	8.744	-0.206	-0.154
-506.741	78.064	0.237	0.251
-505.726	-200.000	0.038	-0.242
-504.712	-49.046	0.174	0.083
-503.697	305.467	0.068	0.125
-502.683	-123.351	-0.323	0.051
-501.668	-121.343	0.074	-0.012
-500.653	-118.192	0.277	-0.049
-499.639	208.588	0.110	-0.172
-498.624	-108.617	0.064	-0.014
-497.610	-200.000	0.068	0.307
-496.595	-51.411	0.372	-0.173
-495.581	-173.924	-0.280	0.008
-494.566	83.098	0.132	0.143
-493.551	105.973	0.238	-0.280
-492.537	800.000	0.094	-0.266
-491.522	34.745	0.219	-0.191
-490.508	-68.782	-0.333	-0.128
-489.493	-200.000	0.030	-0.250
-488.478	-26.937	-0.225	-0.131
-487.464	800.000	-0.056	-0.169
-486.449	306.850	0.079	0.147
-485.435	-98.904	-0.201	0.051
-484.420	800.000	-0.022	-0.085
-483.405	-98.723	-0.286	0.072
-482.391	-200.000	-0.007	0.321
-481.376	-155.628	0.157	0.010
-480.362	-15.358	-0.016	0.010
-479.347	-123.305	0.104	-0.017
-478.332	-23.540	-0.120	0.071
-477.318	-200.000	-0.001	0.030
-476.303	4.495	-0.293	-0.214
-475.289	26.546	-0.132	0.109
-474.274	800.000	-0.045	-0.159
-473.259	-91.582	-0.081	0.023
-472.245	-86.288	-0.163	-0.050
-471.230	735.624	0.006	-0.015
-470.216	800.000	0.159	-0.486
-469.201	8.856	-0.132	0.099
-468.186	-49.692	-0.367	-0.173
-467.172	-73.274	0.139	-0.051
-466.157	800.000	-0.070	0.209
-465.143	-200.000	0.490	-0.002
-464.128	-27.563	0.301	0.174
-463.113	236.544	-0.079	0.130
-462.099	195.234	0.042	-0.063
-461.084	184.899	-0.167	0.246
-460.070	-8.901	-0.266	0.177
-459.055	-57.245	-0.176	0.077
-458.040	49.146	0.078	-0.073
-457.026	-95.993	0.037	0.010
-456.011	800.000	0.097	-0.390
-454.997	-97.487	-0.187	-0.048
-453.982	-54.386	0.323	0.145
-452.968	44.456	-0.359	-0.327
-451.953	303.006	0.072	0.132
-450.938	95.551	0.057	0.065
-449.924	-200.000	-0.025	0.221
-448.909	-200.000	-0.031	-0.187
-447.895	-100.822	-0.156	0.038
-446.880	-111.577	0.027	0.005
-445.865	85.898	-0.171	-0.186
-444.851	231.943	0.180	0.293
-443.836	-31.938	0.144	0.080
-442.822	-123.292	-0.436	-0.069
-441.807	-41.260	0.179	0.091
-440.792	-152.544	0.299	0.021
-439.778	85.675	0.144	-0.157
-438.763	-55.334	0.227	-0.101
-437.749	-165.122	0.075	-0.003
-436.734	-142.052	0.397	0.039
-435.719	-200.000	-0.050	0.309
-434.705	97.009	0.201	0.229
-433.690	800.000	0.032	-0.092
-432.676	-200.000	-0.046	-0.213
-431.661	2.588	0.239	0.172
-430.646	800.000	-0.067	0.201
-429.632	-200.000	-0.025	0.135
-428.617	-68.238	0.364	0.140
-427.603	-91.940	-0.265	-0.075
-426.588	79.853	-0.139	-0.148
-425.573	-200.000	0.039	0.189
-424.559	329.993	0.081	-0.154
-423.544	456.886	-0.082	-0.180
-422.530	127.781	0.100	0.127
-421.515	19.078	0.214	0.170
-420.500	800.000	-0.057	0.217
-419.486	-200.000	-0.011	-0.074
-418.471	-200.000	0.019	-0.105
-417.457	800.000	-0.052	-0.213
-416.442	-21.931	-0.095	-0.057
-415.428	294.338	0.079	0.143
-414.413	328.914	-0.129	-0.246
-413.398	8.123	-0.043	0.032
-412.384	-101.600	0.254	0.061
-411.369	800.000	0.014	0.051
-410.355	-75.967	0.241	0.085
-409.340	-127.668	0.136	-0.019
-408.325	-92.654	-0.245	-0.068
-407.311	800.000	-0.022	0.063
-406.296	175.126	0.211	-0.303
-405.282	38.526	0.238	0.210
-404.267	105.607	-0.397	0.464
-403.252	505.376	-0.084	0.193
-402.238	71.294	-0.469	0.482
-401.223	-185.147	0.265	0.004
-400.209	-112.497	-0.325	-0.064
-399.194	-100.787	0.092	0.022
-398.179	400.437	0.079	-0.163
-397.165	-167.753	-0.179	-0.007
-396.150	43.106	0.156	-0.141
-395.136	-137.410	-0.231	-0.026
-394.121	-130.250	-0.348	0.047
-393.106	800.000	0.044	-0.130
-392.092	-57.426	0.113	-0.049
-391.077	-116.138	0.217	0.040
-390.063	-132.663	-0.065	0.008
-389.048	-40.234	0.100	0.052
-388.033	129.518	-0.183	-0.232
-387.019	150.232	-0.234	0.314
-386.004	-105.996	-0.094	0.021
-384.990	-50.154	0.401	-0.188
-383.975	800.000	0.049	0.210
-382.960	253.030	-0.121	-0.205
-381.946	800.000	0.078	0.216
-380.931	-37.427	-0.335	-0.177
-379.917	-41.967	-0.219	0.111
-378.902	30.662	0.409	-0.347
-377.888	-138.124	0.273	0.030
-376.873	1.572	-0.251	0.178
-375.858	270.062	-0.078	0.135
-374.844	-47.297	-0.275	0.133
-373.829	-0.834	-0.243	-0.170
-372.815	224.228	-0.079	0.126
-371.800	-200.000	-0.013	0.301
-370.785	-101.837	-0.383	0.092
-369.771	-73.207	-0.448	0.162
-368.756	30.554	0.142	0.121
-367.742	-200.000	-0.003	-0.033
-366.727	55.858	0.145	0.139
-365.712	-200.000	-0.034	0.296
-364.698	-61.142	0.371	-0.155
-363.683	156.433	-0.131	-0.179
-362.669	17.913	-0.271	0.214
-361.654	-155.002	0.122	0.008
-360.639	-1.753	0.239	0.166
-359.625	-79.127	-0.156	0.052
-358.610	-200.000	-0.039	-0.185
-357.596	339.513	-0.081	0.156
-356.581	-85.269	0.178	-0.055
-355.566	60.560	-0.051	0.050
-354.552	118.389	0.064	-0.078
-353.537	111.012	0.066	0.079
-352.523	735.662	0.161	-0.428
-351.508	-139.023	0.123	-0.013
-350.493	-131.695	-0.167	-0.022
-349.479	-115.315	-0.381	0.071
-348.464	-200.000	-0.020	0.389
-347.450	148.005	0.077	0.103
-346.435	-68.136	0.291	0.112
-345.420	800.000	-0.042	0.155
-344.406	264.222	-0.088	0.151
-343.391	-200.000	-0.018	-0.086
-342.377	157.571	0.054	-0.074
-341.362	101.718	0.134	0.155
-340.348	-115.524	0.188	0.035
-339.333	-34.300	-0.309	-0.168
-338.318	183.306	0.169	0.246
-337.304	-9.591	0.134	0.088
-336.289	130.555	0.102	-0.130
-335.275	-6.964	-0.092	0.062
-334.260	-132.418	-0.086	0.011
-333.245	-88.749	-0.069	-0.020
-332.231	-48.073	-0.248	0.118
-331.216	-139.624	-0.343	-0.036
-330.202	395.144	-0.158	0.325
-329.187	188.632	0.222	0.328
-328.172	-129.065	-0.171	-0.024
-327.158	51.219	0.162	-0.152
-326.143	-200.000	0.024	0.140
-325.129	-79.757	-0.449	-0.149
-324.114	-145.454	-0.052	-0.005
-323.099	219.415	0.145	-0.229
-322.085	800.000	0.054	0.226
-321.070	266.534	-0.121	0.209
-320.056	-200.000	-0.014	-0.095
-319.041	-112.526	0.190	0.037
-318.026	29.736	0.246	-0.206
-317.012	-200.000	0.029	0.300
-315.997	330.264	0.129	0.246
-314.983	125.852	0.057	-0.071
-313.968	-200.000	0.227	-0.001
-312.953	198.360	0.088	0.133
-311.939	-66.173	-0.222	0.087
-310.924	-200.000	-0.002	-0.287
-309.910	-200.000	0.025	0.157
-308.895	-116.656	0.403	-0.073
-307.880	668.986	0.115	-0.295
-306.866	800.000	0.041	-0.121
-305.851	-136.195	-0.163	0.019
-304.837	45.879	0.095	0.087
-303.822	-44.002	-0.193	0.096
-302.807	-200.000	0.035	-0.286
-301.793	-53.041	-0.192	-0.087
-300.778	-167.133	-0.120	0.005
-299.764	800.000	-0.045	-0.176
-298.749	307.066	-0.094	0.172
-297.735	-200.000	-0.012	0.121
-296.720	420.556	0.057	0.120
-295.705	236.258	-0.049	0.081
-294.691	-9.672	0.108	0.071
-293.676	-88.597	-0.607	-0.178
-292.662	260.008	-0.149	-0.254
-291.647	-145.359	0.129	-0.011
-290.632	-42.854	0.350	0.175
-289.618	462.200	-0.083	-0.182
-288.603	-37.457	-0.165	0.087
-287.589	-200.000	-0.003	0.035
-286.574	-3.027	0.350	-0.241
-285.559	-97.377	-0.101	0.026
-284.545	800.000	0.066	-0.197
-283.530	64.193	0.159	-0.158
-282.516	372.053	0.043	0.087
-281.501	-33.340	-0.432	-0.236
-280.486	-200.000	-0.034	0.157
-279.472	-94.725	-0.266	-0.071
-278.457	131.594	-0.141	-0.179
-277.443	-68.012	-0.115	-0.044
-276.428	195.775	0.062	-0.093
-275.413	65.207	-0.023	0.023
-274.399	257.370	-0.201	0.341
-273.384	-146.419	-0.106	0.009
-272.370	-200.000	0.012	0.070
-271.355	188.705	0.171	0.252
-270.340	565.664	0.129	0.308
-269.326	211.968	-0.193	-0.300
-268.311	-200.000	-0.061	0.337
-267.297	7.624	-0.122	-0.090
-266.282	22.236	-0.111	-0.089
-265.267	-200.000	-0.017	-0.368
-264.253	84.241	0.145	-0.157
-263.238	800.000	0.088	-0.253
-262.224	320.489	0.038	-0.071
-261.209	-2.918	0.050	-0.034
-260.195	54.634	0.138	-0.131
-259.180	-200.000	0.014	0.066
-258.165	179.329	0.140	-0.202
-257.151	-138.169	-0.105	-0.011
-256.136	649.797	-0.135	0.341
-255.122	-200.000	0.039	-0.174
-254.107	-103.372	0.058	0.013
-253.092	-200.000	-0.050	-0.263
-252.078	-170.745	-0.207	0.007
-251.063	419.185	0.126	-0.266
-250.049	-200.000	-0.007	0.111
-249.034	-43.967	-0.239	-0.118
-248.019	368.840	0.106	-0.211
-247.005	-30.428	0.243	-0.135
-245.990	357.942	-0.069	-0.136
-244.976	-169.473	0.349	0.013
-243.961	-176.418	0.184	-0.005
-242.946	-91.624	-0.078	0.022
-241.932	-112.271	0.246	-0.049
-240.917	-6.537	-0.229	-0.154
-239.903	-16.821	-0.376	-0.234
-238.888	103.565	0.074	0.085
-237.873	800.000	-0.068	0.287
-236.859	-200.000	-0.026	-0.138
-235.844	99.928	0.165	-0.188
-234.830	800.000	0.079	0.219
-233.815	-92.288	0.163	0.045
-232.800	-12.153	-0.047	0.030
-231.786	-200.000	0.145	0.000
-230.771	800.000	0.056	-0.186
-229.757	277.738	0.153	-0.268
-228.742	356.929	-0.015	-0.030
-227.727	240.755	0.095	-0.156
-226.713	83.122	0.142	-0.152
-225.698	-21.008	0.201	-0.121
-224.684	659.831	-0.115	0.290
-223.669	800.000	-0.057	-0.196
-222.655	800.000	0.089	0.348
-221.640	-52.619	0.185	0.084
-220.625	-2.078	0.098	-0.067
-219.611	800.000	0.082	0.260
-218.596	-200.000	0.065	-0.398
-217.582	195.375	-0.109	0.162
-216.567	226.962	0.057	-0.091
-215.552	-61.490	0.055	-0.023
-214.538	800.000	0.138	0.408
-213.523	-200.000	-0.007	0.071
-212.509	-200.000	-0.024	0.188
-211.494	-200.000	0.023	0.141
-210.479	-13.137	-0.204	-0.131
-209.465	-200.000	0.019	0.146
-208.450	-200.000	-0.002	-0.182
-207.436	55.532	-0.102	0.097
-206.421	49.115	0.094	-0.087
-205.406	-150.268	-0.167	0.013
-204.392	73.170	-0.082	-0.084
-203.377	-114.782	0.226	-0.042
-202.363	-200.000	0.001	0.350
-201.348	-76.312	0.130	-0.045
-200.333	182.050	0.175	0.253
-199.319	-90.141	-0.300	0.086
-198.304	-88.980	0.057	-0.017
-197.290	800.000	-0.100	-0.280
-196.275	473.974	-0.024	0.054
-195.260	-62.133	0.270	0.111
-194.246	-75.601	-0.269	-0.094
-193.231	-200.000	-0.021	-0.213
-192.217	-75.459	-0.285	0.100
-191.202	-77.364	-0.053	0.018
-190.187	56.461	0.182	0.174
-189.173	-200.000	0.048	0.216
-188.158	-64.316	-0.193	0.077
-187.144	-200.000	-0.046	0.263
-186.129	260.199	0.125	0.213
-185.114	-29.760	-0.020	0.011
-184.100	248.901	-0.058	0.097
-183.085	68.025	-0.057	0.057
-182.071	-200.000	-0.004	-0.202
-181.056	-79.917	-0.079	0.026
-180.042	-200.000	-0.010	-0.159
-179.027	-66.237	-0.239	-0.093
-178.012	-69.242	-0.027	0.010
-176.998	335.187	-0.016	-0.030
-175.983	35.961	0.229	0.198
-174.969	800.000	0.025	-0.072
-173.954	38.498	0.147	0.129
-172.939	-64.851	-0.386	0.153
-171.925	-200.000	-0.069	0.349
-170.910	-200.000	0.077	-0.558
-169.896	36.050	-0.174	-0.151
-168.881	290.100	-0.109	0.195
-167.866	-52.999	0.217	0.098
-166.852	165.281	-0.044	0.061
-165.837	486.338	0.186	-0.417
-164.823	-75.097	0.139	0.049
-163.808	-63.807	-0.285	0.115
-162.793	-5.484	-0.252	0.170
-161.779	179.232	0.065	-0.093
-160.764	138.525	0.211	0.272
-159.750	-200.000	0.060	0.000
-158.735	133.937	0.041	-0.052
-157.720	79.600	-0.071	0.075
-156.706	437.762	-0.127	-0.271
-155.691	83.240	-0.216	-0.231
-154.677	58.130	0.132	-0.127
-153.662	-77.337	0.407	-0.139
-152.647	-200.000	0.011	-0.064
-151.633	60.411	0.158	0.153
-150.618	-40.617	-0.110	-0.056
-149.604	800.000	-0.050	0.154
-148.589	800.000	0.052	-0.152
-147.574	-200.000	0.097	0.453
-146.560	427.606	0.115	-0.242
-145.545	-18.404	0.191	-0.117
-144.531	24.428	0.178	0.144
-143.516	-200.000	0.011	-0.111
-142.502	800.000	0.145	0.453
-141.487	-200.000	0.018	0.087
-140.472	-200.000	0.119	0.569
-139.458	-111.207	0.455	0.091
-138.443	-200.000	0.008	0.274
-137.429	36.531	0.198	0.171
-136.414	-200.000	0.023	0.137
-135.399	-200.000	-0.027	-0.127
-134.385	178.071	0.069	-0.098
-133.370	-65.502	0.209	0.082
-132.356	152.252	-0.183	0.244
-131.341	178.913	0.280	0.402
-130.326	-12.621	-0.221	0.141
-129.312	-200.000	0.017	-0.085
-128.297	-20.957	-0.329	-0.198
-127.283	-97.284	0.276	0.070
-126.268	800.000	-0.066	-0.212
-125.253	-200.000	0.002	-0.188
-124.239	243.035	0.010	-0.017
-123.224	26.468	0.089	-0.073
-122.210	216.942	0.130	0.203
-121.195	-127.531	0.396	0.056
-120.180	79.882	0.116	-0.123
-119.166	35.062	-0.159	-0.137
-118.151	-200.000	0.012	-0.118
-117.137	41.464	-0.203	-0.180
-116.122	-90.776	-0.159	-0.045
-115.107	800.000	-0.065	0.259
-114.093	411.297	0.077	-0.161
-113.078	-62.578	0.221	0.090
-112.064	98.403	0.209	0.236
-111.049	-200.000	0.068	0.554
-110.034	-200.000	-0.006	-0.124
-109.020	-200.000	-0.006	0.366
-108.005	12.951	0.156	0.118
-106.991	-200.000	-0.029	-0.257
-105.976	-84.545	-0.224	-0.069
-104.962	-200.000	0.041	-0.368
-103.947	9.647	0.286	0.212
-102.932	46.771	0.179	0.162
-101.918	-94.863	0.156	0.041
-100.903	-69.705	-0.122	-0.046
-99.889	156.292	-0.179	-0.241
-98.874	-192.175	-0.307	-0.003
-97.859	-60.585	-0.162	-0.067
-96.845	-200.000	-0.012	-0.105
-95.830	220.294	-0.119	0.187
-94.816	93.614	0.153	0.170
-93.801	83.138	-0.242	0.257
-92.786	-43.256	-0.276	0.137
-91.772	-200.000	0.002	-0.148
-90.757	-200.000	0.026	0.293
-89.743	608.991	-0.069	-0.168
-88.728	-200.000	0.018	0.101
-87.713	800.000	-0.073	-0.301
-86.699	-101.787	0.046	-0.011
-85.684	800.000	0.084	0.329
-84.670	41.040	-0.119	0.105
-83.655	162.570	0.205	0.282
-82.640	-1.115	-0.184	0.127
-81.626	59.015	-0.055	0.053
-80.611	85.386	0.149	0.160
-79.597	-26.765	-0.216	-0.124
-78.582	-200.000	-0.052	-0.260
-77.567	-6.513	0.109	0.073
-76.553	93.765	-0.069	-0.076
-75.538	104.091	-0.129	-0.148
-74.524	411.044	-0.169	-0.351
-73.509	101.442	-0.177	-0.202
-72.494	800.000	0.067	-0.202
-71.480	427.123	-0.047	0.098
-70.465	739.264	0.066	-0.173
-69.451	695.073	0.111	0.286
-68.436	-200.000	-0.008	0.176
-67.422	-200.000	0.025	0.460
-66.407	-37.872	0.333	0.173
-65.392	46.009	0.356	-0.322
-64.378	-121.043	-0.215	-0.035
-63.363	800.000	0.023	-0.064
-62.349	-71.749	0.388	-0.142
-61.334	40.498	-1.018	-0.896
-60.319	-26.536	0.713	0.408
-59.305	528.219	-0.440	-1.015
-58.290	288.745	0.860	1.522
-57.276	800.000	0.473	1.306
-56.261	-200.000	116.510	645.045
-55.246	502.460	1539.795	3476.492
-54.232	174.162	2720.387	3840.305
-53.217	98.339	2296.123	2584.520
-52.203	35.357	1903.389	1631.040
-51.188	29.616	1696.190	1409.769
-50.173	27.191	1654.529	1357.014
-49.159	47.320	1712.224	1557.838
-48.144	45.893	1725.479	1558.997
-47.130	28.951	1683.517	1393.974
-46.115	26.487	1668.521	1362.972
-45.100	26.346	1664.026	1358.182
-44.086	26.390	1661.207	1356.162
-43.071	26.235	1659.164	1353.278
-42.057	26.261	1656.568	1351.300
-41.042	26.374	1654.121	1350.097
-40.027	26.299	1652.310	1348.000
-39.013	26.345	1650.044	1346.441
-37.998	26.237	1648.967	1344.707
-36.984	26.378	1647.939	1344.864
-35.969	26.390	1646.116	1343.409
-34.954	26.473	1644.049	1342.285
-33.940	26.337	1643.148	1340.493
-32.925	26.394	1641.359	1339.401
-31.911	26.360	1639.446	1337.532
-30.896	26.362	1638.159	1336.448
-29.881	26.480	1636.271	1335.722
-28.867	26.377	1634.549	1333.509
-27.852	26.473	1633.030	1332.923
-26.838	26.373	1632.127	1331.397
-25.823	26.499	1630.468	1330.912
-24.809	26.471	1629.098	1329.542
-23.794	26.438	1627.593	1328.012
-22.779	26.443	1626.065	1326.752
-21.765	26.396	1624.435	1325.024
-20.750	26.495	1622.289	1323.945
-19.736	26.419	1621.316	1322.545
-18.721	26.573	1619.836	1322.407
-17.706	26.489	1618.281	1320.478
-16.692	26.532	1616.480	1319.267
-15.677	26.473	1615.477	1317.968
-14.663	26.484	1614.037	1316.816
-13.648	26.537	1612.370	1315.795
-12.633	26.450	1611.416	1314.330
-11.619	26.494	1609.473	1313.014
-10.604	26.531	1607.590	1311.691
-9.590	26.448	1606.380	1310.049
-8.575	26.595	1605.017	1309.954
-7.560	26.484	1603.754	1308.069
-6.546	26.438	1603.200	1307.228
-5.531	26.438	1602.515	1306.619
-4.517	26.422	1601.046	1305.252
-3.502	26.470	1599.953	1304.658
-2.487	26.467	1598.032	1303.020
-1.473	26.157	1586.109	1291.028
-0.458	23.492	1567.111	1256.657
0.556	20.930	1569.222	1226.826
1.571	18.595	1593.126	1228.692
2.586	18.218	1605.593	1235.480
3.600	16.092	1549.545	1177.415
4.615	9.403	1442.019	1052.010
5.629	4.033	1383.403	975.399
6.644	3.269	1375.907	965.240
7.659	3.178	1374.935	963.905
8.673	3.169	1373.898	963.033
9.688	3.154	1372.043	961.552
10.702	3.200	1369.352	959.872
11.717	5.670	1373.853	978.381
12.731	12.910	1386.927	1033.104
13.746	18.994	1396.643	1078.516
14.761	20.305	1398.165	1087.818
15.775	19.773	1395.785	1082.542
16.790	18.697	1393.811	1074.188
17.804	17.832	1391.775	1067.115
18.819	17.596	1390.032	1064.208
19.834	17.462	1389.146	1062.598
20.848	17.249	1388.106	1060.382
21.863	17.080	1386.344	1057.890
22.877	16.887	1385.690	1056.097
23.892	16.878	1384.659	1055.160
24.907	16.901	1383.838	1054.580
25.921	16.885	1382.729	1053.546
26.936	16.903	1382.253	1053.203
27.950	16.984	1380.731	1052.452
28.965	17.014	1380.176	1052.118
29.980	17.155	1378.973	1051.981
30.994	17.173	1378.001	1051.263
32.009	17.318	1376.572	1050.973
33.023	17.203	1375.792	1049.574
34.038	17.095	1374.314	1047.688
35.053	17.106	1373.041	1046.692
36.067	17.018	1372.053	1045.305
37.082	17.038	1370.730	1044.328
38.096	17.198	1369.902	1044.587
39.111	17.096	1369.480	1043.547
40.126	16.953	1368.610	1041.916
41.140	16.746	1367.593	1039.778
42.155	16.790	1366.328	1038.996
43.169	16.674	1366.198	1038.092
44.184	16.718	1365.703	1037.893
45.199	16.733	1365.622	1037.831
46.213	16.830	1364.972	1037.840
47.228	16.984	1364.091	1038.021
48.242	17.000	1363.070	1037.247
49.257	16.872	1361.878	1035.469
50.271	16.940	1360.257	1034.556
51.286	16.947	1358.811	1033.408
52.301	17.042	1357.259	1032.714
53.315	16.833	1356.352	1030.662
54.330	16.788	1355.485	1029.640
55.344	16.709	1354.059	1027.990
56.359	16.798	1353.130	1027.730
57.374	16.699	1352.044	1026.213
58.388	16.696	1351.453	1025.659
59.403	16.684	1350.715	1024.930
60.417	16.580	1350.151	1023.786
61.432	16.624	1348.896	1023.007
62.447	16.650	1348.210	1022.553
63.461	16.557	1346.422	1020.548
64.476	16.534	1345.610	1019.702
65.490	16.573	1344.418	1018.944
66.505	16.534	1343.049	1017.584
67.520	16.585	1341.716	1016.787
68.534	16.678	1340.894	1016.637
69.549	16.536	1339.809	1014.872
70.563	16.553	1338.544	1013.922
71.578	16.456	1337.338	1012.340
72.593	16.360	1336.763	1011.238
73.607	16.414	1335.901	1010.824
74.622	16.301	1334.992	1009.372
75.636	16.426	1334.520	1009.669
76.651	16.569	1333.334	1009.534
77.666	16.500	1333.707	1009.318
78.680	16.514	1332.702	1008.549
79.695	16.486	1332.122	1007.854
80.709	16.526	1331.507	1007.539
81.724	16.637	1331.041	1007.756
82.739	16.709	1330.450	1007.653
83.753	16.854	1329.160	1007.448
84.768	17.019	1328.209	1007.616
85.782	16.980	1327.445	1006.716
86.797	17.114	1325.771	1006.151
87.812	16.920	1324.530	1003.972
88.826	16.901	1323.080	1002.672
89.841	16.998	1322.495	1002.715
90.855	17.005	1321.667	1002.040
91.870	17.060	1321.033	1001.794
92.884	17.095	1319.751	1000.937
93.899	17.187	1318.820	1000.689
94.914	17.252	1318.136	1000.464
95.928	17.233	1317.557	999.824
96.943	17.118	1316.689	998.397
97.957	17.080	1316.004	997.567
98.972	17.052	1314.679	996.311
99.987	17.096	1312.913	995.145
101.001	17.154	1312.095	994.772
102.016	17.214	1310.956	994.176
103.030	17.135	1310.634	993.380
104.045	17.074	1309.534	992.102
105.060	17.004	1307.918	990.382
106.074	16.838	1305.796	987.717
107.089	16.760	1304.791	986.416
108.103	16.565	1303.766	984.421
109.118	16.583	1302.594	983.551
110.133	16.608	1301.223	982.575
111.147	16.647	1299.598	981.488
112.162	16.656	1298.498	980.621
113.176	16.702	1297.841	980.306
114.191	16.652	1296.845	979.179
115.206	16.744	1295.489	978.599
116.220	16.608	1294.150	976.715
117.235	16.710	1293.344	976.607
118.249	16.649	1292.643	975.643
119.264	16.698	1290.757	974.413
120.279	16.589	1290.217	973.294
121.293	16.528	1288.846	971.822
122.308	16.483	1287.657	970.580
123.322	16.346	1287.079	969.273
124.337	16.472	1285.475	968.704
125.352	16.501	1284.198	967.819
126.366	16.475	1283.462	967.032
127.381	16.417	1282.346	965.775
128.395	16.454	1281.305	965.112
129.410	16.642	1280.287	965.332
130.424	16.458	1280.064	964.034
131.439	16.553	1279.173	963.819
132.454	16.729	1277.837	963.724
133.468	16.665	1277.490	963.016
134.483	16.692	1276.629	962.438
135.497	16.710	1275.621	961.690
136.512	16.738	1274.192	960.688
137.527	16.711	1272.675	959.308
138.541	16.779	1271.465	958.694
139.556	16.778	1270.630	957.972
140.570	16.887	1269.642	957.764
141.585	16.974	1268.601	957.385
142.600	17.138	1266.852	956.905
143.614	17.056	1266.172	955.841
144.629	17.142	1265.177	955.487
145.643	16.994	1264.340	953.944
146.658	17.013	1262.628	952.672
147.673	16.951	1261.821	951.632
148.687	16.814	1260.108	949.489
149.702	16.852	1259.004	948.781
150.716	16.746	1257.730	947.145
151.731	16.882	1256.470	946.872
152.746	16.807	1255.874	945.920
153.760	16.885	1254.580	945.302
154.775	17.037	1253.581	945.310
155.789	17.019	1252.231	944.108
156.804	16.962	1251.581	943.215
157.819	17.050	1250.532	942.831
158.833	17.167	1249.386	942.535
159.848	17.220	1248.830	942.322
160.862	17.163	1247.699	941.070
161.877	17.034	1246.142	939.100
162.892	16.805	1245.730	937.439
163.906	16.766	1244.547	936.254
164.921	16.892	1243.346	935.962
165.935	17.043	1242.310	935.933
166.950	17.011	1241.897	935.362
167.964	17.035	1241.145	934.845
168.979	16.836	1240.719	933.345
169.994	16.851	1239.880	932.713
171.008	16.919	1239.068	932.392
172.023	17.122	1237.882	932.534
173.037	17.262	1237.203	932.706
174.052	17.266	1236.185	931.881
175.067	17.005	1235.059	929.520
176.081	16.901	1234.278	928.279
177.096	16.843	1233.021	926.937
178.110	17.044	1232.010	927.191
179.125	16.949	1230.876	925.738
180.140	17.105	1229.410	925.403
181.154	17.082	1228.637	924.616
182.169	17.234	1227.612	924.591
183.183	17.258	1226.325	923.668
184.198	17.352	1225.308	923.328
185.213	17.261	1224.184	921.907
186.227	17.255	1223.125	920.997
187.242	17.388	1222.139	920.891
188.256	17.411	1221.298	920.302
189.271	17.341	1220.666	919.367
190.286	17.257	1219.437	917.906
191.300	16.879	1219.015	915.465
192.315	16.811	1217.674	914.011
193.329	16.917	1217.197	914.142
194.344	17.075	1215.699	913.786
195.359	17.084	1215.468	913.583
196.373	17.156	1215.409	913.842
197.388	17.294	1214.862	914.095
198.402	17.412	1214.763	914.573
199.417	17.629	1213.520	914.720
200.432	17.519	1213.000	913.655
201.446	17.630	1212.453	913.760
202.461	17.843	1210.956	913.691
203.475	17.708	1210.588	912.609
204.490	17.526	1208.982	910.349
205.504	17.443	1207.717	908.872
206.519	17.405	1206.647	907.783
207.534	17.403	1205.265	906.651
208.548	17.355	1204.850	906.001
209.563	17.419	1203.949	905.586
210.577	17.366	1202.799	904.358
211.592	17.556	1201.958	904.657
212.607	17.689	1200.807	904.418
213.621	17.678	1200.273	903.873
214.636	17.651	1199.494	903.067
215.650	17.688	1198.698	902.582
216.665	17.719	1197.681	901.900
217.680	17.836	1196.788	901.769
218.694	17.886	1195.720	901.143
219.709	17.668	1195.466	899.722
220.723	17.769	1194.637	899.555
221.738	17.704	1193.897	898.572
222.753	17.681	1193.082	897.761
223.767	17.789	1192.349	897.699
224.782	17.949	1191.864	898.095
225.796	17.962	1190.925	897.374
226.811	17.962	1190.231	896.773
227.826	17.826	1189.596	895.502
228.840	17.727	1189.061	894.499
229.855	17.819	1187.810	893.961
230.869	17.836	1186.847	893.249
231.884	17.785	1186.105	892.342
232.899	17.718	1185.472	891.436
233.913	17.603	1184.721	890.191
234.928	17.648	1183.878	889.715
235.942	17.529	1183.412	888.668
236.957	17.581	1182.251	887.986
237.972	17.553	1181.975	887.556
238.986	17.700	1181.201	887.660
240.001	17.639	1180.494	886.731
241.015	17.617	1179.330	885.668
242.030	17.741	1178.934	885.935
243.045	17.816	1178.110	885.626
244.059	17.920	1176.960	885.224
245.074	17.945	1176.036	884.576
246.088	17.890	1176.021	884.205
247.103	18.035	1175.027	884.131
248.117	17.994	1174.562	883.491
249.132	18.270	1173.755	884.231
250.147	18.364	1172.909	884.000
251.161	18.521	1172.195	884.195
252.176	18.576	1171.231	883.672
253.190	18.614	1170.981	883.601
254.205	18.507	1171.266	883.188
255.220	18.609	1169.745	882.484
256.234	18.559	1169.497	881.963
257.249	18.563	1168.526	881.173
258.263	18.491	1168.349	880.589
259.278	18.588	1167.289	880.211
260.293	18.679	1166.554	880.049
261.307	18.635	1166.442	879.658
262.322	18.657	1165.886	879.277
263.336	18.684	1164.936	878.621
264.351	18.641	1164.498	877.990
265.366	18.699	1163.612	877.541
266.380	18.732	1162.763	876.991
267.395	18.697	1161.830	876.033
268.409	18.588	1161.032	874.796
269.424	18.560	1160.843	874.433
270.439	18.600	1159.960	873.898
271.453	18.612	1158.922	873.097
272.468	18.518	1158.191	871.991
273.482	18.455	1157.463	871.049
274.497	18.542	1156.894	870.981
275.512	18.465	1156.080	869.901
276.526	18.483	1155.396	869.401
277.541	18.548	1154.485	868.968
278.555	18.662	1153.532	868.754
279.570	18.808	1153.043	869.044
280.585	18.750	1152.739	868.448
281.599	18.765	1151.708	867.667
282.614	18.620	1150.730	866.123
283.628	18.743	1149.246	865.549
284.643	18.655	1148.455	864.435
285.657	18.672	1147.428	863.668
286.672	18.557	1146.768	862.519
287.687	18.719	1146.163	862.802
288.701	18.666	1145.293	861.803
289.716	18.535	1144.568	860.524
290.730	18.658	1143.930	860.583
291.745	18.823	1143.106	860.714
292.760	18.879	1141.959	860.055
293.774	18.863	1141.895	859.853
294.789	18.917	1141.566	859.800
295.803	19.064	1140.805	859.885
296.818	18.847	1140.086	858.183
297.833	18.751	1139.318	857.047
298.847	18.831	1138.338	856.633
299.862	18.919	1137.356	856.258
300.876	18.874	1136.980	855.676
301.891	18.959	1136.270	855.490
302.906	19.060	1135.804	855.565
303.920	19.093	1135.129	855.144
304.935	19.284	1134.074	855.222
305.949	19.314	1133.551	854.900
306.964	19.240	1133.180	854.178
307.979	19.051	1132.407	852.582
308.993	19.161	1131.745	852.553
310.008	19.218	1130.962	852.172
311.022	19.238	1130.299	851.694
312.037	19.284	1128.960	850.836
313.052	19.021	1128.408	849.047
314.066	19.073	1127.276	848.376
315.081	18.983	1125.719	846.690
316.095	19.025	1125.228	846.451
317.110	18.963	1124.807	845.753
318.125	18.969	1124.185	845.240
319.139	19.023	1123.148	844.648
320.154	19.033	1122.695	844.282
321.168	18.890	1122.171	843.115
322.183	19.104	1120.997	843.208
323.197	18.957	1120.998	842.413
324.212	19.142	1120.065	842.543
325.227	19.071	1119.681	841.830
326.241	19.141	1119.384	841.878
327.256	19.092	1118.166	840.645
328.270	19.141	1116.959	839.903
329.285	19.053	1116.136	838.779
330.300	19.050	1115.357	838.108
331.314	18.935	1114.802	837.056
332.329	19.086	1113.398	836.663
333.343	19.138	1112.799	836.392
334.358	19.229	1112.350	836.421
335.373	19.207	1111.636	835.702
336.387	19.158	1110.959	834.882
337.402	19.337	1109.855	834.847
338.416	19.367	1109.258	834.470
339.431	19.477	1108.516	834.369
340.446	19.526	1107.930	834.088
341.460	19.714	1107.123	834.316
342.475	19.699	1106.285	833.538
343.489	19.696	1105.770	833.063
344.504	19.786	1104.628	832.560
345.519	19.750	1103.953	831.805
346.533	19.851	1102.807	831.357
347.548	19.826	1102.681	831.067
348.562	19.831	1101.771	830.329
349.577	19.667	1100.677	828.646
350.592	19.523	1099.806	827.229
351.606	19.535	1099.151	826.717
352.621	19.516	1098.116	825.774
353.635	19.470	1097.589	825.087
354.650	19.518	1097.217	824.963
355.665	19.428	1096.719	824.088
356.679	19.439	1096.084	823.589
357.694	19.549	1095.411	823.536
358.708	19.587	1094.472	822.935
359.723	19.721	1093.978	823.131
360.738	19.569	1093.692	822.119
361.752	19.693	1092.447	821.701
362.767	19.732	1092.153	821.593
363.781	19.728	1091.887	821.302
364.796	19.898	1090.696	821.138
365.810	19.907	1090.777	821.170
366.825	19.932	1090.353	820.895
367.840	20.147	1089.532	821.225
368.854	20.093	1089.062	820.542
369.869	20.144	1087.883	819.822
370.883	20.037	1087.046	818.614
371.898	19.879	1086.660	817.502
372.913	20.035	1086.048	817.707
373.927	20.033	1085.626	817.309
374.942	20.120	1084.817	817.034
375.956	20.064	1084.271	816.287
376.971	20.023	1083.602	815.521
377.986	20.139	1083.236	815.717
379.000	20.229	1082.656	815.630
380.015	20.246	1082.159	815.267
381.029	20.340	1081.603	815.216
382.044	20.255	1080.656	814.032
383.059	20.375	1079.893	813.947
384.073	20.316	1078.793	812.769
385.088	20.322	1077.815	811.988
386.102	20.306	1077.253	811.420
387.117	20.095	1076.318	809.657
388.132	20.166	1075.092	808.996
389.146	20.086	1074.535	808.129
390.161	20.005	1074.132	807.377
391.175	20.148	1072.785	806.961
392.190	20.182	1072.481	806.817
393.205	20.343	1071.343	806.639
394.219	20.230	1071.215	805.945
395.234	20.193	1069.915	804.724
396.248	20.175	1068.715	803.670
397.263	20.237	1067.659	803.087
398.278	20.102	1067.303	802.127
399.292	19.977	1066.311	800.733
400.307	20.038	1065.643	800.440
401.321	20.027	1065.429	800.158
402.336	20.007	1064.410	799.229
403.350	20.014	1063.796	798.732
404.365	20.177	1062.966	798.790
405.380	20.180	1062.497	798.380
406.394	20.234	1061.628	797.901
407.409	20.376	1060.981	797.999
408.423	20.418	1060.195	797.529
409.438	20.552	1059.885	797.842
410.453	20.532	1059.314	797.249
411.467	20.696	1058.531	797.339
412.482	20.646	1057.795	796.485
413.496	20.549	1057.424	795.694
414.511	20.676	1056.365	795.406
415.526	20.799	1056.565	796.048
416.540	20.949	1055.790	796.079
417.555	20.902	1055.364	795.474
418.569	20.796	1054.608	794.350
419.584	20.627	1054.554	793.468
420.599	20.780	1053.815	793.538
421.613	154.974	1404.503	1795.157
422.628	142.222	1455.589	1795.259
