DTS Sentinel unit serial number:	SN413079Multiplexer serial number:	ORYXHardware model number:	OX4-SRSoftware version number:	ORYX F/W v4.00 Oryx Data Collector v3.7.2.0data status	okinstallation	princeton_trtdifferential loss correction	single-endedforward channel	channel 2reverse channel	N/Adate	2019/09/16time	23:47:35forward acquisition time	60.00reverse acquisition time	0.00gamma	496.2192k internal	0.2330k external	0.2330temperature offset calibration	0.9974default loss term (dB/km)	0.3790temperature slope calibration	1.0000multiplexer offset coefficient	1.0000multiplexer slope coefficient	1.0000fibre end	0.00T internal ref (°C)	29.69T ext. ref 1 (°C)	0.09T ext. ref 2 (°C)	23.82length (m)	temperature (°C)	Stokes	anti-Stokes-747.200	-200.000	0.060	-0.374
-746.185	61.802	-0.138	-0.138
-745.171	-200.000	0.007	-0.293
-744.156	800.000	0.098	0.408
-743.142	800.000	-0.084	0.259
-742.127	26.863	0.071	-0.060
-741.112	403.731	-0.097	0.206
-740.098	-18.940	-0.159	0.100
-739.083	119.447	0.274	0.342
-738.069	-200.000	-0.049	0.311
-737.054	39.376	0.099	0.089
-736.039	-133.453	-0.556	-0.070
-735.025	-65.655	0.180	0.073
-734.010	-200.000	0.006	-0.101
-732.996	222.804	-0.232	-0.376
-731.981	45.008	0.260	-0.241
-730.966	-69.049	-0.182	0.070
-729.952	-94.004	0.119	0.033
-728.937	800.000	0.128	-0.386
-727.923	-72.900	0.087	-0.032
-726.908	-115.772	-0.173	0.033
-725.894	19.676	-0.210	-0.170
-724.879	-108.274	-0.264	-0.057
-723.864	800.000	0.005	-0.024
-722.850	800.000	-0.066	-0.229
-721.835	-179.483	0.202	-0.004
-720.821	181.343	-0.126	-0.187
-719.806	800.000	0.031	0.132
-718.791	-148.186	0.522	-0.043
-717.777	-145.516	0.363	0.033
-716.762	800.000	-0.019	-0.058
-715.748	-92.341	-0.453	-0.128
-714.733	-123.088	-0.115	-0.019
-713.718	-200.000	-0.002	0.174
-712.704	74.802	-0.114	-0.121
-711.689	-200.000	-0.045	0.235
-710.675	26.056	-0.228	0.191
-709.660	-7.911	0.093	-0.063
-708.645	378.280	0.081	-0.167
-707.631	800.000	0.056	-0.167
-706.616	127.893	-0.252	-0.322
-705.602	-6.463	0.445	-0.305
-704.587	-111.827	-0.182	0.037
-703.572	800.000	0.051	-0.178
-702.558	-141.612	-0.317	0.032
-701.543	-72.774	-0.185	-0.069
-700.529	-200.000	-0.021	0.417
-699.514	458.295	0.094	0.210
-698.499	-142.139	0.050	0.005
-697.485	154.196	0.090	0.124
-696.470	-200.000	0.036	-0.158
-695.456	234.320	0.103	0.170
-694.441	-182.494	-0.171	-0.003
-693.426	8.109	0.325	0.245
-692.412	-200.000	0.005	-0.237
-691.397	-18.276	0.136	-0.086
-690.383	-34.767	0.141	-0.077
-689.368	359.760	-0.078	-0.157
-688.354	103.794	0.043	-0.051
-687.339	-104.100	0.050	0.012
-686.324	-79.234	-0.221	-0.075
-685.310	183.129	0.138	0.204
-684.295	-200.000	-0.003	-0.153
-683.281	-128.412	-0.189	-0.027
-682.266	-6.616	0.269	0.184
-681.251	-85.161	-0.327	0.103
-680.237	-200.000	-0.025	-0.330
-679.222	800.000	0.089	0.285
-678.208	108.546	-0.188	-0.225
-677.193	-162.077	-0.306	-0.015
-676.178	109.793	-0.118	-0.143
-675.164	75.322	0.089	-0.094
-674.149	800.000	-0.085	-0.295
-673.135	330.400	0.060	0.117
-672.120	43.209	-0.215	-0.197
-671.105	-200.000	0.005	0.181
-670.091	103.180	-0.143	-0.169
-669.076	41.337	-0.088	-0.079
-668.062	55.946	-0.283	-0.275
-667.047	32.953	0.140	-0.122
-666.032	-126.328	-0.088	-0.013
-665.018	-68.172	0.235	0.092
-664.003	-57.246	-0.261	-0.115
-662.989	26.630	-0.074	0.062
-661.974	35.114	0.141	0.124
-660.959	-194.555	0.113	-0.001
-659.945	89.927	0.410	-0.460
-658.930	-135.582	-0.147	0.017
-657.916	-200.000	0.017	-0.225
-656.901	-173.979	0.106	-0.003
-655.886	800.000	0.009	-0.041
-654.872	-200.000	-0.013	-0.230
-653.857	-150.857	-0.269	0.020
-652.843	496.286	-0.072	-0.165
-651.828	211.179	-0.117	-0.184
-650.814	80.042	-0.031	0.034
-649.799	-200.000	0.011	-0.586
-648.784	-8.878	-0.276	0.185
-647.770	-200.000	0.063	0.494
-646.755	-200.000	0.022	-0.133
-645.741	211.775	-0.076	0.120
-644.726	142.501	0.088	-0.118
-643.711	-77.278	-0.451	-0.157
-642.697	-200.000	-0.045	-0.221
-641.682	149.154	0.226	-0.307
-640.668	-121.330	-0.218	-0.036
-639.653	313.723	0.116	-0.219
-638.638	-116.409	-0.244	-0.045
-637.624	800.000	-0.051	0.201
-636.609	328.051	-0.106	0.204
-635.595	-90.058	-0.254	0.074
-634.580	-53.714	-0.301	0.138
-633.565	-122.225	-0.114	0.019
-632.551	-105.577	-0.345	-0.078
-631.536	800.000	0.096	0.386
-630.522	142.268	0.159	0.211
-629.507	-14.947	0.126	-0.081
-628.492	64.567	-0.095	-0.096
-627.478	337.557	-0.131	-0.255
-626.463	-2.669	-0.262	0.184
-625.449	220.674	0.104	0.167
-624.434	-83.415	0.204	-0.066
-623.419	800.000	0.103	-0.394
-622.405	-66.349	-0.165	0.066
-621.390	800.000	-0.064	-0.190
-620.376	13.819	-0.389	-0.303
-619.361	327.420	-0.084	-0.161
-618.346	-121.890	0.235	0.039
-617.332	2.235	0.094	-0.068
-616.317	-88.574	-0.172	0.051
-615.303	54.356	0.089	-0.086
-614.288	800.000	-0.069	-0.190
-613.273	643.638	0.107	-0.273
-612.259	-200.000	-0.002	0.176
-611.244	254.288	-0.073	0.125
-610.230	-200.000	-0.087	0.402
-609.215	78.409	-0.236	-0.252
-608.201	621.535	0.135	-0.341
-607.186	27.309	0.064	-0.054
-606.171	-200.000	-0.032	0.191
-605.157	20.490	-0.138	0.111
-604.142	800.000	0.094	0.272
-603.128	270.250	0.186	-0.328
-602.113	-191.520	-0.164	-0.002
-601.098	-137.942	0.238	-0.027
-600.084	7.815	0.308	-0.231
-599.069	-200.000	0.012	0.121
-598.055	83.288	0.223	-0.243
-597.040	-104.353	0.179	-0.042
-596.025	-57.195	-0.137	-0.060
-595.011	55.866	-0.131	-0.128
-593.996	-200.000	0.001	-0.006
-592.982	-200.000	0.003	-0.184
-591.967	800.000	0.060	-0.179
-590.952	-65.126	-0.240	0.097
-589.938	627.910	-0.153	-0.386
-588.923	-145.167	0.269	0.024
-587.909	246.415	-0.190	0.320
-586.894	-149.089	-0.547	-0.044
-585.879	33.389	0.189	0.164
-584.865	-200.000	-0.003	0.204
-583.850	-161.230	-0.234	-0.012
-582.836	-56.818	0.236	-0.104
-581.821	-58.499	-0.309	-0.134
-580.806	-104.757	0.367	-0.084
-579.792	386.958	-0.013	0.027
-578.777	7.159	-0.131	-0.098
-577.763	98.770	-0.137	-0.158
-576.748	-128.895	0.356	0.050
-575.733	-200.000	-0.005	-0.088
-574.719	-200.000	0.017	-0.231
-573.704	125.748	-0.182	0.230
-572.690	234.787	-0.142	-0.234
-571.675	-127.159	-0.216	0.032
-570.661	-152.373	0.242	-0.017
-569.646	142.690	0.066	0.088
-568.631	-63.709	0.115	0.047
-567.617	-44.255	0.249	0.125
-566.602	223.275	-0.117	-0.189
-565.588	-200.000	-0.017	0.117
-564.573	-200.000	0.009	-0.282
-563.558	-154.579	0.098	0.007
-562.544	-200.000	0.013	-0.120
-561.529	145.459	0.197	-0.264
-560.515	-200.000	0.008	0.065
-559.500	-76.699	0.132	0.046
-558.485	78.171	-0.022	-0.024
-557.471	800.000	0.069	-0.299
-556.456	-101.621	-0.170	0.041
-555.442	800.000	0.061	0.198
-554.427	-148.892	-0.058	0.005
-553.412	1.132	0.151	0.109
-552.398	297.865	-0.068	-0.125
-551.383	312.553	-0.088	0.165
-550.369	-144.971	-0.232	0.021
-549.354	-62.682	-0.233	-0.097
-548.339	146.808	0.135	0.181
-547.325	-95.996	0.381	-0.101
-546.310	-200.000	0.026	0.277
-545.296	800.000	-0.084	-0.242
-544.281	800.000	-0.034	-0.123
-543.266	6.214	0.103	-0.076
-542.252	-57.939	0.125	-0.054
-541.237	-200.000	0.044	-0.434
-540.223	-200.000	0.012	0.074
-539.208	81.627	-0.176	0.190
-538.193	-20.751	-0.025	-0.015
-537.179	800.000	-0.020	-0.068
-536.164	210.015	0.081	-0.127
-535.150	-138.694	0.041	-0.004
-534.135	-200.000	-0.025	0.168
-533.121	20.637	-0.179	0.145
-532.106	-158.836	-0.279	-0.016
-531.091	-69.510	0.152	-0.058
-530.077	522.310	0.065	-0.154
-529.062	-49.118	0.319	0.152
-528.048	625.872	0.143	0.360
-527.033	44.872	-0.090	-0.083
-526.018	262.058	0.102	-0.176
-525.004	99.739	0.040	-0.046
-523.989	-19.437	-0.324	-0.200
-522.975	-200.000	0.088	-0.438
-521.960	-46.258	0.171	-0.084
-520.945	-8.767	-0.098	-0.066
-519.931	198.547	-0.135	-0.206
-518.916	-200.000	0.279	0.001
-517.902	-10.156	-0.084	-0.056
-516.887	-200.000	-0.033	-0.206
-515.872	89.905	0.203	-0.226
-514.858	-63.413	-0.325	-0.133
-513.843	-60.293	-0.121	0.052
-512.829	329.962	-0.163	-0.313
-511.814	174.756	-0.212	-0.305
-510.799	312.429	0.014	-0.026
-509.785	454.942	-0.073	-0.162
-508.770	-98.169	-0.385	-0.099
-507.756	-200.000	-0.042	0.208
-506.741	-200.000	0.043	-0.261
-505.726	167.589	-0.045	-0.064
-504.712	75.192	0.222	0.234
-503.697	800.000	-0.023	-0.085
-502.683	19.505	-0.122	-0.097
-501.668	234.323	0.045	-0.074
-500.653	193.362	-0.147	0.221
-499.639	800.000	0.040	0.111
-498.624	229.805	-0.137	-0.223
-497.610	61.951	0.165	0.164
-496.595	-129.207	0.213	0.030
-495.581	-102.944	-0.204	-0.048
-494.566	255.915	-0.069	-0.119
-493.551	638.916	0.080	0.203
-492.537	-164.969	-0.087	-0.004
-491.522	-121.639	-0.139	-0.023
-490.508	-55.716	0.086	0.038
-489.493	333.348	0.103	0.199
-488.478	-99.767	0.215	-0.054
-487.464	-70.274	0.144	0.055
-486.449	96.783	-0.008	0.009
-485.435	800.000	0.049	0.199
-484.420	89.537	0.072	-0.081
-483.405	338.605	0.175	0.340
-482.391	-20.499	0.049	-0.030
-481.376	-112.984	0.184	0.036
-480.362	-145.298	0.087	0.008
-479.347	-200.000	0.029	0.127
-478.332	-164.380	0.188	0.009
-477.318	225.924	-0.118	-0.191
-476.303	22.996	0.230	0.188
-475.289	-200.000	0.005	-0.226
-474.274	66.870	-0.130	-0.132
-473.259	153.140	-0.135	0.184
-472.245	284.918	-0.081	0.145
-471.230	-130.816	-0.250	-0.033
-470.216	39.147	-0.112	-0.100
-469.201	-160.930	-0.358	0.019
-468.186	48.289	-0.213	-0.198
-467.172	-76.238	-0.099	0.035
-466.157	-63.603	-0.200	0.082
-465.143	212.007	0.104	-0.163
-464.128	-43.589	-0.300	-0.151
-463.113	300.009	0.084	0.155
-462.099	-200.000	-0.155	-0.000
-461.084	-14.875	-0.159	0.102
-460.070	-34.515	0.161	-0.088
-459.055	55.006	0.193	0.186
-458.040	-39.825	0.045	0.024
-457.026	261.458	0.081	-0.139
-456.011	158.800	0.088	0.122
-454.997	-20.796	-0.097	-0.060
-453.982	-116.059	0.336	0.062
-452.968	-35.600	0.053	0.029
-451.953	260.291	-0.093	0.161
-450.938	-45.080	-0.363	0.180
-449.924	-150.498	0.191	-0.015
-448.909	-15.675	0.282	-0.179
-447.895	9.341	-0.120	-0.090
-446.880	-200.000	0.028	-0.122
-445.865	-55.570	0.205	-0.092
-444.851	-178.151	0.191	-0.004
-443.836	225.017	-0.025	-0.041
-442.822	-124.121	0.502	-0.078
-441.807	208.236	-0.087	0.135
-440.792	-87.103	0.282	-0.085
-439.778	-149.131	-0.098	0.008
-438.763	-141.964	0.133	0.013
-437.749	-5.849	0.230	0.157
-436.734	584.756	-0.018	0.044
-435.719	39.832	0.284	-0.254
-434.705	-200.000	-0.042	0.249
-433.690	-200.000	0.023	-0.124
-432.676	130.843	-0.146	-0.186
-431.661	74.289	-0.134	0.140
-430.646	-113.626	0.226	-0.044
-429.632	-40.754	-0.159	0.082
-428.617	800.000	0.049	0.160
-427.603	575.225	-0.049	-0.120
-426.588	-200.000	0.051	0.416
-425.573	-63.877	0.211	0.086
-424.559	-96.130	-0.247	-0.065
-423.544	175.660	0.188	-0.272
-422.530	-142.543	-0.096	-0.009
-421.515	-91.626	0.036	-0.010
-420.500	-200.000	0.026	-0.218
-419.486	-135.654	0.242	-0.028
-418.471	-70.614	0.191	-0.072
-417.457	-74.857	-0.283	0.101
-416.442	-20.928	-0.133	0.081
-415.428	-125.630	0.054	-0.008
-414.413	-28.184	-0.337	-0.194
-413.398	-15.619	0.305	0.194
-412.384	740.409	0.069	0.185
-411.369	-64.789	0.218	0.088
-410.355	-200.000	0.004	-0.113
-409.340	-30.744	-0.099	0.056
-408.325	-9.682	-0.321	0.212
-407.311	-65.814	-0.265	0.105
-406.296	800.000	-0.136	-0.407
-405.282	800.000	-0.055	-0.158
-404.267	25.503	0.047	-0.039
-403.252	-171.111	0.084	-0.003
-402.238	78.302	-0.173	-0.184
-401.223	-51.132	0.151	0.070
-400.209	6.868	0.255	0.189
-399.194	-76.180	-0.245	-0.086
-398.179	-66.289	0.199	-0.079
-397.165	-68.346	-0.502	-0.194
-396.150	623.022	0.063	0.156
-395.136	-2.546	-0.346	-0.241
-394.121	110.195	-0.320	0.382
-393.106	-200.000	0.054	-0.311
-392.092	-15.794	-0.153	0.096
-391.077	-91.618	0.242	0.068
-390.063	-200.000	0.211	-0.001
-389.048	209.503	-0.127	-0.197
-388.033	472.766	0.163	-0.364
-387.019	800.000	0.040	-0.161
-386.004	800.000	0.098	-0.362
-384.990	-200.000	-0.049	-0.326
-383.975	-8.622	0.305	0.203
-382.960	-122.636	0.172	-0.028
-381.946	-104.713	-0.074	0.017
-380.931	-40.454	0.054	0.028
-379.917	771.389	-0.093	0.252
-378.902	800.000	-0.023	-0.085
-377.888	-64.055	-0.300	-0.122
-376.873	-181.108	0.255	-0.005
-375.858	162.772	0.195	0.272
-374.844	-172.698	-0.291	-0.009
-373.829	-30.144	-0.126	0.071
-372.815	-53.200	0.047	-0.022
-371.800	-19.046	-0.150	0.093
-370.785	800.000	0.038	0.149
-369.771	58.275	0.094	-0.091
-368.756	141.183	0.200	0.262
-367.742	170.613	-0.155	-0.220
-366.727	-200.000	-0.044	-0.505
-365.712	800.000	-0.021	0.071
-364.698	-146.836	0.099	0.008
-363.683	208.556	-0.284	0.441
-362.669	185.604	0.202	-0.298
-361.654	288.891	0.114	-0.205
-360.639	47.086	0.327	-0.302
-359.625	-200.000	0.007	-0.082
-358.610	-56.660	0.194	0.085
-357.596	-27.188	-0.053	0.031
-356.581	-200.000	0.005	-0.264
-355.566	89.586	-0.064	-0.071
-354.552	-200.000	0.032	0.182
-353.537	484.241	-0.131	0.295
-352.523	13.661	-0.311	0.239
-351.508	26.476	-0.053	0.044
-350.493	-112.682	-0.106	-0.021
-349.479	-200.000	0.016	0.192
-348.464	-103.539	-0.258	0.060
-347.450	69.075	0.142	0.145
-346.435	800.000	0.023	0.075
-345.420	800.000	-0.046	-0.148
-344.406	-200.000	-0.002	-0.146
-343.391	-200.000	-0.050	0.280
-342.377	-117.334	0.255	-0.046
-341.362	351.369	-0.152	0.298
-340.348	-200.000	-0.034	0.203
-339.333	-131.312	0.026	-0.003
-338.318	800.000	-0.071	-0.202
-337.304	312.486	0.140	0.261
-336.289	239.366	-0.170	0.281
-335.275	800.000	0.087	-0.267
-334.260	-55.906	-0.437	0.193
-333.245	-200.000	-0.036	0.276
-332.231	97.506	0.326	0.371
-331.216	800.000	0.034	-0.119
-330.202	96.727	0.115	0.130
-329.187	-19.095	0.402	0.247
-328.172	-49.709	0.172	-0.081
-327.158	-188.317	-0.162	0.002
-326.143	81.113	0.182	0.195
-325.129	-200.000	0.012	0.267
-324.114	800.000	-0.093	-0.357
-323.099	-5.035	-0.073	-0.050
-322.085	80.002	-0.155	-0.165
-321.070	-200.000	-0.072	0.448
-320.056	668.121	-0.073	0.188
-319.041	-200.000	-0.058	0.330
-318.026	-108.164	-0.132	-0.028
-317.012	-118.633	0.358	-0.063
-315.997	337.860	0.160	0.308
-314.983	-200.000	-0.069	0.328
-313.968	-172.588	0.290	-0.009
-312.953	-152.267	-0.428	0.031
-311.939	177.293	0.194	-0.280
-310.924	30.413	0.140	-0.118
-309.910	116.738	-0.050	0.061
-308.895	-200.000	0.104	0.000
-307.880	-91.070	0.048	-0.014
-306.866	-18.440	-0.286	-0.177
-305.851	-200.000	0.011	0.257
-304.837	218.726	0.108	0.171
-303.822	68.522	-0.228	-0.231
-302.807	-200.000	0.000	0.166
-301.793	293.507	0.163	0.295
-300.778	-17.990	-0.156	-0.097
-299.764	-169.172	-0.154	-0.006
-298.749	800.000	0.089	-0.322
-297.735	-148.734	-0.179	0.014
-296.720	218.807	-0.057	0.090
-295.705	-92.058	-0.120	-0.034
-294.691	-46.921	-0.108	0.052
-293.676	800.000	-0.131	0.456
-292.662	-200.000	-0.033	-0.258
-291.647	-6.372	0.277	0.187
-290.632	40.406	0.132	-0.117
-289.618	-130.067	-0.115	0.016
-288.603	-200.000	-0.005	0.061
-287.589	33.929	0.159	-0.137
-286.574	109.141	0.105	0.125
-285.559	81.352	0.165	-0.176
-284.545	-200.000	-0.066	-0.386
-283.530	-32.000	0.067	0.037
-282.516	-42.932	-0.049	-0.025
-281.501	-136.515	0.422	-0.048
-280.486	-200.000	-0.020	0.414
-279.472	-92.778	-0.251	0.069
-278.457	-133.847	-0.373	-0.046
-277.443	424.479	0.042	0.089
-276.428	167.335	0.088	0.123
-275.413	229.495	-0.057	-0.092
-274.399	800.000	-0.022	-0.076
-273.384	800.000	-0.049	0.152
-272.370	559.304	-0.163	-0.390
-271.355	-135.573	0.177	0.021
-270.340	-82.767	0.261	-0.083
-269.326	-85.151	0.062	-0.019
-268.311	76.438	-0.060	-0.062
-267.297	77.279	-0.074	0.078
-266.282	-95.605	0.227	-0.060
-265.267	-200.000	0.010	0.099
-264.253	7.212	-0.321	0.237
-263.238	-90.398	-0.095	-0.027
-262.224	-151.030	0.254	0.019
-261.209	467.035	0.057	-0.127
-260.195	-40.122	0.126	-0.065
-259.180	-86.083	-0.153	0.047
-258.165	155.568	0.171	0.233
-257.151	-200.000	-0.023	0.211
-256.136	19.852	-0.064	0.051
-255.122	-47.915	-0.119	-0.057
-254.107	-150.302	0.062	0.005
-253.092	187.163	0.240	0.353
-252.078	130.502	0.129	0.163
-251.063	-200.000	0.016	-0.135
-250.049	488.737	0.042	-0.094
-249.034	313.478	-0.072	0.133
-248.019	-78.903	0.056	-0.019
-247.005	3.871	0.231	-0.167
-245.990	-200.000	0.023	-0.192
-244.976	-2.721	0.218	-0.150
-243.961	-155.133	0.168	-0.011
-242.946	-133.893	0.157	0.019
-241.932	-65.401	0.160	-0.064
-240.917	152.836	0.212	0.285
-239.903	556.079	0.092	0.220
-238.888	-200.000	0.004	-0.098
-237.873	-117.600	0.131	-0.023
-236.859	800.000	0.038	0.161
-235.844	48.081	0.303	0.280
-234.830	124.019	-0.154	0.191
-233.815	-200.000	0.012	0.222
-232.800	-14.016	-0.114	0.073
-231.786	246.410	-0.099	0.164
-230.771	-130.927	0.199	-0.026
-229.757	348.857	0.267	0.521
-228.742	343.323	0.131	0.253
-227.727	243.312	0.117	0.194
-226.713	-200.000	0.043	0.192
-225.698	-33.806	-0.175	-0.095
-224.684	-20.176	0.287	-0.174
-223.669	-200.000	-0.034	-0.170
-222.655	-99.570	-0.066	0.016
-221.640	-44.935	-0.086	0.042
-220.625	-117.341	-0.531	0.095
-219.611	284.202	0.189	0.335
-218.596	800.000	-0.023	-0.072
-217.582	61.529	0.026	-0.025
-216.567	-42.057	-0.162	0.082
-215.552	-92.672	-0.024	-0.007
-214.538	106.408	-0.197	0.230
-213.523	-200.000	0.001	-0.157
-212.509	9.436	0.181	0.135
-211.494	-91.464	-0.270	-0.076
-210.479	259.503	0.145	0.246
-209.465	-95.525	0.145	0.038
-208.450	-167.610	0.178	-0.007
-207.436	-127.882	0.337	-0.048
-206.421	-12.822	0.073	0.047
-205.406	-53.930	-0.270	0.121
-204.392	30.188	0.167	-0.140
-203.377	27.347	-0.199	-0.165
-202.363	-109.455	-0.184	0.038
-201.348	46.933	0.161	0.148
-200.333	-17.280	-0.399	0.247
-199.319	0.089	-0.104	0.073
-198.304	35.131	-0.112	0.097
-197.290	29.716	-0.212	0.178
-196.275	-13.678	-0.208	0.133
-195.260	-200.000	-0.008	-0.115
-194.246	-89.588	0.287	0.083
-193.231	-200.000	0.022	0.118
-192.217	-87.773	-0.362	-0.107
-191.202	136.293	0.103	-0.133
-190.187	251.483	-0.083	0.139
-189.173	800.000	0.086	0.254
-188.158	-200.000	0.020	-0.207
-187.144	-200.000	0.002	-0.247
-186.129	162.533	0.204	0.282
-185.114	785.644	-0.016	-0.043
-184.100	-48.738	0.127	-0.060
-183.085	10.028	-0.367	-0.275
-182.071	419.391	0.071	0.150
-181.056	-115.767	0.234	-0.043
-180.042	-81.759	0.230	0.074
-179.027	351.873	-0.091	-0.178
-178.012	562.910	-0.113	-0.268
-176.998	-87.088	-0.070	0.021
-175.983	800.000	0.054	-0.223
-174.969	-154.073	0.067	-0.004
-173.954	-125.586	-0.373	0.056
-172.939	165.238	-0.196	0.272
-171.925	-113.077	0.430	0.083
-170.910	-200.000	-0.027	-0.117
-169.896	-126.797	-0.249	0.036
-168.881	-200.000	-0.071	-0.335
-167.866	-103.168	0.110	-0.026
-166.852	132.413	-0.092	-0.116
-165.837	0.253	0.061	0.043
-164.823	-200.000	0.002	-0.529
-163.808	-62.239	-0.128	0.052
-162.793	384.697	-0.021	0.042
-161.779	20.074	0.239	0.189
-160.764	402.039	-0.080	-0.166
-159.750	-111.162	0.139	0.028
-158.735	-200.000	0.012	0.076
-157.720	29.863	-0.170	-0.143
-156.706	800.000	0.069	-0.257
-155.691	6.016	0.234	0.171
-154.677	-38.625	-0.216	0.112
-153.662	-74.426	-0.102	0.036
-152.647	-31.984	0.286	0.158
-151.633	-200.000	0.005	-0.080
-150.618	-200.000	-0.025	0.401
-149.604	800.000	-0.112	-0.320
-148.589	-200.000	-0.025	0.217
-147.574	145.349	-0.057	0.075
-146.560	-24.035	-0.127	-0.074
-145.545	-135.150	-0.405	-0.048
-144.531	-107.093	0.196	-0.043
-143.516	258.991	0.155	-0.263
-142.502	-49.922	-0.080	0.037
-141.487	800.000	0.105	0.328
-140.472	641.179	0.023	0.058
-139.458	250.410	-0.114	0.191
-138.443	800.000	0.069	-0.238
-137.429	-106.096	0.079	-0.018
-136.414	-200.000	-0.006	0.326
-135.399	800.000	-0.057	-0.224
-134.385	-200.000	-0.077	-0.379
-133.370	317.780	0.244	-0.453
-132.356	-16.995	-0.501	0.311
-131.341	-200.000	0.006	0.275
-130.326	10.616	0.153	-0.115
-129.312	0.121	-0.285	0.199
-128.297	-42.625	0.223	-0.112
-127.283	-85.744	-0.278	0.085
-126.268	-200.000	0.009	0.155
-125.253	700.557	0.158	0.410
-124.239	800.000	-0.058	-0.189
-123.224	-30.024	-0.287	0.160
-122.210	175.760	-0.182	0.259
-121.195	-200.000	0.025	0.196
-120.180	-4.095	-0.127	0.087
-119.166	69.947	-0.279	0.283
-118.151	285.385	-0.059	-0.105
-117.137	-131.182	0.489	0.064
-116.122	-200.000	-0.008	0.343
-115.107	66.131	0.072	-0.072
-114.093	84.302	0.208	-0.223
-113.078	280.898	0.132	-0.232
-112.064	11.435	-0.362	0.273
-111.049	-200.000	-0.026	-0.205
-110.034	-200.000	-0.020	-0.307
-109.020	-200.000	-0.038	0.172
-108.005	253.853	-0.254	-0.426
-106.991	-200.000	-0.053	0.308
-105.976	756.825	-0.082	0.218
-104.962	-200.000	0.000	0.122
-103.947	-200.000	0.019	-0.143
-102.932	-200.000	-0.023	0.219
-101.918	-200.000	-0.010	0.306
-100.903	-114.683	0.085	-0.016
-99.889	-71.284	-0.190	0.070
-98.874	211.176	-0.186	0.287
-97.859	508.949	0.106	-0.242
-96.845	-5.131	-0.093	-0.063
-95.830	-200.000	0.020	-0.293
-94.816	641.814	-0.165	-0.412
-93.801	511.726	0.043	-0.097
-92.786	-82.639	0.222	-0.071
-91.772	800.000	-0.102	-0.294
-90.757	-143.754	0.200	-0.019
-89.743	800.000	0.054	0.218
-88.728	198.907	0.119	-0.179
-87.713	193.642	0.041	-0.061
-86.699	572.721	-0.113	-0.269
-85.684	-17.713	0.210	0.129
-84.670	-77.454	0.435	0.148
-83.655	800.000	0.065	0.194
-82.640	12.477	0.299	-0.226
-81.626	-200.000	-0.019	-0.336
-80.611	204.663	0.078	-0.118
-79.597	800.000	-0.052	0.176
-78.582	-59.607	0.156	0.066
-77.567	800.000	0.126	-0.409
-76.553	-26.234	-0.205	0.118
-75.538	-170.606	-0.269	0.009
-74.524	-151.287	-0.500	-0.037
-73.509	800.000	0.068	0.231
-72.494	800.000	0.062	0.234
-71.480	0.700	0.174	-0.122
-70.465	-78.519	0.068	0.023
-69.451	47.311	0.077	0.070
-68.436	-21.228	0.050	-0.030
-67.422	36.580	0.329	-0.285
-66.407	-200.000	0.008	-0.058
-65.392	60.869	-0.047	0.045
-64.378	-200.000	-0.003	-0.084
-63.363	-200.000	-0.025	0.307
-62.349	-92.564	-0.311	0.086
-61.334	111.496	-0.864	-1.022
-60.319	81.621	0.597	0.633
-59.305	-200.000	-0.248	-1.217
-58.290	238.869	0.760	1.238
-57.276	655.982	0.562	1.414
-56.261	-200.000	108.420	593.431
-55.246	449.528	1481.693	3202.017
-54.232	147.053	2669.326	3518.787
-53.217	100.111	2283.296	2594.413
-52.203	38.754	1895.701	1658.258
-51.188	33.011	1685.275	1430.791
-50.173	30.337	1642.207	1374.397
-49.159	49.001	1696.187	1560.568
-48.144	49.643	1711.190	1579.135
-47.130	32.465	1668.993	1412.641
-46.115	29.779	1653.861	1379.770
-45.100	29.627	1649.944	1375.321
-44.086	29.489	1647.189	1371.942
-43.071	29.484	1644.475	1369.587
-42.057	29.580	1641.920	1368.122
-41.042	29.557	1639.739	1366.079
-40.027	29.518	1638.066	1364.342
-39.013	29.568	1635.997	1362.933
-37.998	29.561	1634.363	1361.469
-36.984	29.554	1633.353	1360.519
-35.969	29.705	1631.677	1360.183
-34.954	29.664	1630.730	1359.036
-33.940	29.622	1628.289	1356.641
-32.925	29.739	1626.491	1355.942
-31.911	29.724	1624.801	1354.370
-30.896	29.677	1623.344	1352.760
-29.881	29.689	1621.613	1351.355
-28.867	29.687	1620.148	1350.064
-27.852	29.641	1618.679	1348.450
-26.838	29.638	1617.119	1347.073
-25.823	29.770	1615.211	1346.393
-24.809	29.780	1614.310	1345.662
-23.794	29.729	1612.844	1344.012
-22.779	29.697	1611.379	1342.510
-21.765	29.664	1610.288	1341.308
-20.750	29.653	1608.168	1339.410
-19.736	29.726	1606.873	1338.802
-18.721	29.703	1605.738	1337.638
-17.706	29.790	1603.781	1336.583
-16.692	29.729	1602.760	1335.240
-15.677	29.710	1601.253	1333.796
-14.663	29.720	1600.107	1332.861
-13.648	29.686	1598.368	1331.111
-12.633	29.732	1596.942	1330.201
-11.619	29.673	1595.192	1328.271
-10.604	29.674	1594.130	1327.335
-9.590	29.805	1592.730	1327.061
-8.575	29.762	1591.227	1325.444
-7.560	29.707	1590.146	1324.099
-6.546	29.747	1589.034	1323.406
-5.531	29.681	1587.931	1321.966
-4.517	29.632	1587.090	1320.865
-3.502	29.690	1585.759	1320.113
-2.487	29.856	1583.507	1319.376
-1.473	29.387	1572.371	1306.722
-0.458	26.556	1553.146	1270.852
0.556	21.215	1554.074	1239.058
1.571	19.067	1577.255	1241.944
2.586	18.774	1590.488	1250.119
3.600	17.098	1537.931	1196.897
4.615	9.527	1428.282	1061.720
5.629	1.715	1363.912	964.443
6.644	0.259	1355.692	949.374
7.659	0.023	1354.692	947.104
8.673	0.050	1353.405	946.290
9.688	0.038	1351.578	944.855
10.702	-0.145	1348.982	941.806
11.717	3.587	1354.773	969.236
12.731	11.978	1368.147	1031.748
13.746	17.412	1374.697	1070.892
14.761	17.307	1373.225	1068.989
15.775	16.266	1370.435	1060.188
16.790	15.179	1367.868	1051.294
17.804	14.401	1365.690	1044.650
18.819	14.112	1364.727	1042.009
19.834	13.836	1362.918	1038.806
20.848	13.551	1361.932	1036.184
21.863	13.367	1360.344	1033.736
22.877	13.181	1359.000	1031.457
23.892	13.050	1358.690	1030.317
24.907	13.198	1357.759	1030.442
25.921	13.159	1356.568	1029.205
26.936	13.226	1355.836	1028.974
27.950	13.295	1354.973	1028.656
28.965	13.260	1354.287	1027.831
29.980	13.324	1352.986	1027.146
30.994	13.407	1352.061	1026.870
32.009	13.417	1351.063	1026.083
33.023	13.468	1349.926	1025.445
34.038	13.371	1349.169	1024.176
35.053	13.344	1348.183	1023.173
36.067	13.346	1346.739	1021.997
37.082	13.324	1346.011	1021.221
38.096	13.362	1345.186	1020.740
39.111	13.439	1344.305	1020.455
40.126	13.254	1343.536	1018.642
41.140	13.209	1342.490	1017.479
42.155	13.075	1342.416	1016.510
43.169	13.078	1342.542	1016.533
44.184	13.100	1341.811	1016.026
45.199	13.260	1341.299	1016.528
46.213	13.281	1340.949	1016.304
47.228	13.246	1339.833	1015.151
48.242	13.336	1338.488	1014.598
49.257	13.275	1337.535	1013.413
50.271	13.362	1335.329	1012.181
51.286	13.331	1334.297	1011.120
52.301	13.321	1333.056	1010.030
53.315	13.170	1333.053	1009.018
54.330	13.225	1331.419	1008.023
55.344	13.237	1330.006	1006.939
56.359	13.220	1328.876	1005.893
57.374	13.134	1328.575	1005.052
58.388	12.989	1327.954	1003.612
59.403	13.147	1326.552	1003.421
60.417	13.062	1325.949	1002.362
61.432	13.135	1325.188	1002.142
62.447	13.171	1323.755	1001.183
63.461	13.076	1322.958	999.917
64.476	13.117	1321.542	999.009
65.490	13.180	1320.446	998.473
66.505	13.119	1318.897	996.844
67.520	13.112	1318.070	996.089
68.534	13.129	1316.998	995.294
69.549	13.051	1316.215	994.146
70.563	13.179	1314.916	993.845
71.578	13.103	1313.501	992.233
72.593	13.056	1312.720	991.273
73.607	13.067	1311.852	990.592
74.622	13.010	1311.141	989.626
75.636	12.995	1310.916	989.278
76.651	13.095	1309.699	988.874
77.666	13.027	1309.382	988.136
78.680	13.048	1308.691	987.655
79.695	13.074	1308.072	987.255
80.709	13.129	1306.825	986.555
81.724	13.202	1306.218	986.445
82.739	13.232	1305.328	985.865
83.753	13.177	1304.512	984.833
84.768	13.226	1303.720	984.442
85.782	13.306	1302.357	983.802
86.797	13.419	1300.768	983.185
87.812	13.284	1299.789	981.558
88.826	13.219	1299.109	980.573
89.841	13.276	1297.963	979.957
90.855	13.335	1296.823	979.357
91.870	13.301	1295.822	978.317
92.884	13.374	1295.234	978.218
93.899	13.375	1294.452	977.543
94.914	13.385	1293.355	976.687
95.928	13.445	1292.543	976.343
96.943	13.230	1292.158	974.698
97.957	13.303	1290.857	974.061
98.972	13.344	1289.666	973.318
99.987	13.400	1288.341	972.559
101.001	13.425	1287.595	972.060
102.016	13.351	1286.691	970.853
103.030	13.449	1285.429	970.392
104.045	13.398	1284.950	969.646
105.060	13.322	1283.901	968.324
106.074	13.298	1282.262	966.858
107.089	13.194	1281.100	965.290
108.103	13.083	1280.015	963.741
109.118	13.167	1278.541	963.038
110.133	13.148	1277.437	962.008
111.147	13.152	1276.299	961.087
112.162	13.238	1274.784	960.366
113.176	13.200	1273.721	959.258
114.191	13.267	1272.518	958.655
115.206	13.252	1271.552	957.755
116.220	13.252	1270.633	956.976
117.235	13.216	1269.513	955.842
118.249	13.278	1268.380	955.263
119.264	13.208	1267.285	953.949
120.279	13.158	1266.180	952.746
121.293	13.238	1264.709	952.015
122.308	13.214	1264.003	951.261
123.322	13.183	1262.740	950.047
124.337	13.199	1261.555	949.166
125.352	13.201	1261.034	948.699
126.366	13.142	1259.712	947.280
127.381	13.149	1258.628	946.424
128.395	13.086	1257.865	945.407
129.410	13.194	1256.537	944.942
130.424	13.241	1256.277	944.930
131.439	13.234	1255.069	943.901
132.454	13.232	1254.065	943.048
133.468	13.220	1253.330	942.343
134.483	13.360	1252.290	942.276
135.497	13.247	1251.218	940.741
136.512	13.298	1250.089	940.101
137.527	13.264	1248.634	938.732
138.541	13.214	1247.353	937.401
139.556	13.274	1245.934	936.591
140.570	13.406	1244.930	936.501
141.585	13.272	1243.995	934.957
142.600	13.339	1242.658	934.247
143.614	13.479	1241.421	934.028
144.629	13.562	1240.536	933.747
145.643	13.514	1239.685	932.750
146.658	13.471	1238.173	931.290
147.673	13.334	1236.723	929.346
148.687	13.323	1236.049	928.695
149.702	13.338	1234.311	927.393
150.716	13.224	1233.371	925.966
151.731	13.343	1231.980	925.503
152.746	13.343	1231.043	924.721
153.760	13.419	1229.513	923.915
154.775	13.442	1228.579	923.256
155.789	13.373	1227.883	922.266
156.804	13.313	1226.607	920.896
157.819	13.454	1225.784	920.978
158.833	13.523	1224.460	920.288
159.848	13.567	1223.751	919.914
160.862	13.564	1222.980	919.240
161.877	13.525	1221.656	917.944
162.892	13.315	1221.101	916.284
163.906	13.440	1219.976	916.049
164.921	13.401	1219.195	915.167
165.935	13.527	1218.065	914.935
166.950	13.556	1217.264	914.413
167.964	13.502	1216.875	913.739
168.979	13.544	1216.028	913.253
169.994	13.515	1214.879	912.155
171.008	13.463	1214.388	911.415
172.023	13.709	1213.304	911.873
173.037	13.621	1212.570	910.759
174.052	13.691	1211.552	910.298
175.067	13.562	1210.986	909.083
176.081	13.668	1209.650	908.581
177.096	13.497	1208.906	907.004
178.110	13.700	1207.669	907.107
179.125	13.678	1206.447	905.990
180.140	13.621	1205.245	904.698
181.154	13.658	1204.216	904.046
182.169	13.569	1203.134	902.670
183.183	13.719	1202.019	902.568
184.198	13.792	1200.289	901.587
185.213	13.736	1199.461	900.582
186.227	13.723	1198.810	899.941
187.242	13.882	1197.337	899.615
188.256	13.804	1196.735	898.664
189.271	13.881	1195.659	898.192
190.286	13.746	1194.666	896.636
191.300	13.683	1193.543	895.377
192.315	13.708	1192.516	894.659
193.329	13.643	1192.509	894.226
194.344	13.579	1192.216	893.580
195.359	13.766	1191.391	893.893
196.373	13.834	1190.930	893.831
197.388	13.899	1190.201	893.555
198.402	13.982	1189.744	893.579
199.417	13.931	1189.166	892.791
200.432	14.043	1187.992	892.433
201.446	14.125	1186.898	891.973
202.461	14.151	1185.990	891.352
203.475	14.119	1185.354	890.626
204.490	14.120	1183.993	889.528
205.504	14.132	1182.817	888.628
206.519	13.982	1181.785	886.974
207.534	13.972	1180.716	886.039
208.548	14.098	1179.167	885.471
209.563	14.042	1179.413	885.281
210.577	13.942	1178.147	883.716
211.592	14.089	1177.140	883.668
212.607	14.202	1176.156	883.449
213.621	14.146	1175.404	882.511
214.636	14.110	1174.477	881.546
215.650	14.272	1173.635	881.691
216.665	14.124	1172.477	879.963
217.680	14.297	1172.038	880.466
218.694	14.317	1171.058	879.758
219.709	14.299	1170.331	879.043
220.723	14.197	1169.650	877.912
221.738	14.345	1168.925	878.072
222.753	14.373	1168.043	877.478
223.767	14.395	1167.011	876.740
224.782	14.358	1166.289	875.927
225.796	14.331	1166.009	875.496
226.811	14.514	1164.972	875.605
227.826	14.465	1164.405	874.841
228.840	14.385	1164.037	874.069
229.855	14.379	1163.300	873.406
230.869	14.407	1162.322	872.739
231.884	14.323	1161.586	871.673
232.899	14.298	1161.015	871.035
233.913	14.406	1160.067	870.809
234.928	14.319	1159.399	869.780
235.942	14.444	1158.811	869.914
236.957	14.217	1157.965	868.019
237.972	14.302	1157.044	867.690
238.986	14.335	1156.239	867.184
240.001	14.346	1156.179	867.120
241.015	14.375	1155.059	866.353
242.030	14.428	1154.151	865.872
243.045	14.520	1153.525	865.804
244.059	14.492	1152.618	864.899
245.074	14.428	1151.973	864.010
246.088	14.632	1150.674	864.016
247.103	14.614	1150.079	863.395
248.117	14.558	1149.533	862.621
249.132	14.638	1149.030	862.582
250.147	14.732	1148.502	862.593
251.161	14.932	1147.453	862.761
252.176	14.777	1146.854	861.435
253.190	14.808	1146.448	861.215
254.205	14.962	1145.346	861.102
255.220	15.011	1144.909	860.950
256.234	15.052	1144.166	860.526
257.249	14.866	1143.782	859.205
258.263	14.974	1143.235	859.274
259.278	14.891	1142.680	858.354
260.293	14.974	1141.847	858.076
261.307	15.043	1141.183	857.858
262.322	14.959	1140.945	857.172
263.336	15.019	1140.157	856.809
264.351	15.014	1139.776	856.424
265.366	15.007	1138.836	855.605
266.380	15.109	1138.183	855.558
267.395	15.111	1136.878	854.515
268.409	15.013	1136.661	853.776
269.424	15.140	1135.667	853.598
270.439	15.111	1135.320	853.114
271.453	15.105	1134.196	852.164
272.468	15.040	1133.442	851.191
273.482	14.939	1133.054	850.315
274.497	15.012	1132.670	850.319
275.512	15.006	1132.030	849.736
276.526	15.074	1131.287	849.445
277.541	15.054	1130.012	848.312
278.555	15.112	1129.412	848.082
279.570	15.168	1128.987	847.971
280.585	15.165	1128.206	847.292
281.599	15.264	1126.782	846.647
282.614	15.226	1126.093	845.864
283.628	15.143	1125.247	844.737
284.643	15.250	1124.248	844.448
285.657	15.321	1122.898	843.718
286.672	15.211	1122.488	842.783
287.687	15.356	1121.758	842.889
288.701	15.282	1120.937	841.825
289.716	15.350	1120.141	841.494
290.730	15.373	1119.431	841.002
291.745	15.470	1118.651	840.827
292.760	15.351	1118.353	839.930
293.774	15.365	1118.265	839.864
294.789	15.543	1117.537	840.130
295.803	15.515	1116.730	839.313
296.818	15.427	1116.035	838.275
297.833	15.400	1115.220	837.454
298.847	15.354	1114.193	836.378
299.862	15.443	1113.747	836.416
300.876	15.526	1112.764	836.015
301.891	15.368	1112.652	835.070
302.906	15.553	1111.467	835.025
303.920	15.510	1110.573	834.067
304.935	15.581	1110.215	834.078
305.949	15.678	1109.281	833.784
306.964	15.747	1108.627	833.560
307.979	15.698	1107.947	832.730
308.993	15.702	1107.219	832.133
310.008	15.632	1106.786	831.385
311.022	15.714	1105.942	831.083
312.037	15.617	1104.932	829.770
313.052	15.643	1104.182	829.265
314.066	15.736	1103.025	828.777
315.081	15.672	1102.200	827.770
316.095	15.569	1101.622	826.756
317.110	15.624	1100.595	826.182
318.125	15.555	1100.494	825.695
319.139	15.788	1099.652	826.134
320.154	15.710	1099.139	825.293
321.168	15.561	1098.652	824.126
322.183	15.588	1098.232	823.866
323.197	15.734	1097.177	823.719
324.212	15.674	1096.948	823.182
325.227	15.700	1096.289	822.740
326.241	15.767	1095.607	822.482
327.256	15.857	1094.591	822.086
328.270	15.783	1093.588	820.898
329.285	15.755	1092.491	819.867
330.300	15.780	1091.671	819.300
331.314	15.841	1090.867	818.922
332.329	15.802	1089.862	817.906
333.343	15.943	1089.018	817.883
334.358	15.831	1088.483	816.868
335.373	15.952	1087.711	816.802
336.387	16.039	1086.639	816.348
337.402	15.996	1086.086	815.650
338.416	16.045	1085.264	815.196
339.431	16.039	1085.041	814.930
340.446	16.084	1084.271	814.498
341.460	16.066	1084.415	814.443
342.475	16.114	1083.033	813.565
343.489	16.184	1081.713	812.843
344.504	16.087	1081.154	811.883
345.519	16.209	1080.122	811.623
346.533	16.201	1079.714	811.204
347.548	16.155	1079.239	810.555
348.562	16.219	1078.443	810.193
349.577	16.245	1077.216	809.325
350.592	16.046	1076.832	808.009
351.606	16.132	1075.592	807.422
352.621	16.203	1075.152	807.361
353.635	16.092	1074.697	806.414
354.650	16.200	1073.838	806.214
355.665	16.300	1072.939	805.947
356.679	16.185	1072.560	805.043
357.694	16.330	1071.963	805.213
358.708	16.288	1071.308	804.449
359.723	16.310	1070.519	803.892
360.738	16.296	1069.819	803.227
361.752	16.274	1069.698	802.962
362.767	16.374	1068.874	802.745
363.781	16.327	1068.552	802.212
364.796	16.416	1067.626	801.866
365.810	16.551	1067.118	802.056
366.825	16.510	1066.424	801.267
367.840	16.544	1065.897	800.963
368.854	16.558	1065.216	800.444
369.869	16.720	1064.374	800.505
370.883	16.634	1063.608	799.453
371.898	16.572	1062.921	798.574
372.913	16.534	1062.543	798.041
373.927	16.600	1062.264	798.072
374.942	16.615	1061.560	797.544
375.956	16.595	1060.882	796.869
376.971	16.618	1060.385	796.534
377.986	16.668	1059.936	796.361
379.000	16.690	1059.432	796.016
380.015	16.725	1058.817	795.648
381.029	16.844	1058.091	795.588
382.044	16.807	1057.287	794.740
383.059	16.743	1056.385	793.691
384.073	16.760	1055.854	793.302
385.088	16.807	1054.553	792.473
386.102	16.701	1054.009	791.501
387.117	16.711	1052.968	790.695
388.132	16.745	1052.096	790.129
389.146	16.832	1051.104	789.722
390.161	16.774	1050.803	789.155
391.175	16.762	1050.208	788.581
392.190	16.901	1048.940	788.208
393.205	16.893	1048.606	787.849
394.219	16.982	1047.837	787.612
395.234	16.908	1047.082	786.633
396.248	16.985	1045.564	785.779
397.263	16.929	1044.925	784.973
398.278	16.800	1044.393	783.903
399.292	16.824	1043.758	783.468
400.307	16.809	1043.094	782.832
401.321	16.855	1042.693	782.675
402.336	16.909	1041.923	782.276
403.350	16.840	1041.011	781.206
404.365	17.007	1040.056	781.189
405.380	17.001	1039.523	780.692
406.394	16.959	1038.662	779.784
407.409	17.142	1037.933	780.008
408.423	17.144	1037.479	779.605
409.438	17.263	1036.583	779.411
410.453	17.149	1036.058	778.421
411.467	17.144	1035.420	777.853
412.482	17.250	1034.576	777.633
413.496	17.265	1034.103	777.276
414.511	17.271	1033.383	776.697
415.526	17.312	1033.314	776.764
416.540	17.363	1032.690	776.457
417.555	17.413	1032.028	776.121
418.569	17.219	1031.929	775.092
419.584	17.348	1031.198	775.061
420.599	17.369	1030.860	774.833
421.613	103.917	1322.329	1470.870
422.628	95.125	1364.763	1470.985
