DTS Sentinel unit serial number:	SN413079Multiplexer serial number:	ORYXHardware model number:	OX4-SRSoftware version number:	ORYX F/W v4.00 Oryx Data Collector v3.7.2.0data status	okinstallation	princeton_trtdifferential loss correction	single-endedforward channel	channel 2reverse channel	N/Adate	2019/09/11time	23:45:11forward acquisition time	60.00reverse acquisition time	0.00gamma	496.2192k internal	0.2325k external	0.2325temperature offset calibration	1.0085default loss term (dB/km)	0.3790temperature slope calibration	1.0000multiplexer offset coefficient	1.0000multiplexer slope coefficient	1.0000fibre end	0.00T internal ref (°C)	34.02T ext. ref 1 (°C)	1.95T ext. ref 2 (°C)	27.41length (m)	temperature (°C)	Stokes	anti-Stokes-747.200	503.089	-0.102	0.237
-746.185	78.418	-0.240	0.259
-745.171	800.000	-0.068	0.191
-744.156	-14.887	0.069	-0.045
-743.142	659.728	0.151	0.391
-742.127	-93.080	0.426	0.120
-741.112	118.249	0.062	-0.077
-740.098	-17.156	-0.254	-0.162
-739.083	-55.002	0.308	-0.140
-738.069	800.000	0.108	0.391
-737.054	32.663	-0.103	-0.090
-736.039	-161.683	0.338	-0.017
-735.025	-40.939	-0.047	-0.025
-734.010	60.374	-0.133	-0.133
-732.996	-200.000	0.015	-0.144
-731.981	-200.000	-0.078	-0.641
-730.966	150.590	0.044	0.060
-729.952	-0.148	-0.277	-0.199
-728.937	-89.578	-0.173	-0.051
-727.923	441.423	-0.109	0.240
-726.908	96.001	-0.134	0.154
-725.894	-200.000	-0.096	-0.470
-724.879	44.006	-0.391	-0.362
-723.864	-200.000	0.005	0.166
-722.850	181.852	0.110	0.164
-721.835	28.356	-0.304	0.259
-720.821	32.405	0.175	0.152
-719.806	-17.176	-0.109	0.069
-718.791	800.000	-0.028	-0.078
-717.777	-123.124	-0.218	0.035
-716.762	-68.320	-0.111	-0.043
-715.748	-200.000	0.002	-0.100
-714.733	-112.249	-0.130	0.026
-713.718	800.000	0.032	-0.121
-712.704	-27.747	-0.190	0.111
-711.689	-158.196	0.196	0.012
-710.675	90.797	0.206	0.233
-709.660	800.000	0.017	0.052
-708.645	-41.451	-0.083	-0.043
-707.631	53.035	-0.140	-0.135
-706.616	-180.024	-0.148	0.003
-705.602	-200.000	-0.022	-0.372
-704.587	800.000	-0.022	-0.082
-703.572	-42.258	-0.232	0.120
-702.558	-146.434	0.215	0.019
-701.543	-121.795	0.424	0.071
-700.529	19.279	-0.155	0.125
-699.514	-196.100	0.164	0.001
-698.499	-68.632	-0.169	0.066
-697.485	-195.796	-0.160	0.001
-696.470	-132.328	-0.165	0.021
-695.456	-200.000	0.026	0.215
-694.441	475.198	0.053	0.121
-693.426	2.267	0.183	0.133
-692.412	36.090	-0.107	-0.095
-691.397	-64.887	-0.063	0.026
-690.383	432.406	0.056	-0.122
-689.368	-93.309	-0.169	0.047
-688.354	-7.197	-0.220	-0.151
-687.339	-200.000	0.005	0.100
-686.324	800.000	-0.043	0.164
-685.310	800.000	0.056	0.185
-684.295	69.604	-0.108	0.112
-683.281	-200.000	0.023	0.215
-682.266	-48.086	0.406	-0.198
-681.251	-15.909	0.207	0.133
-680.237	211.957	0.311	0.494
-679.222	58.201	-0.219	0.216
-678.208	315.182	0.138	-0.262
-677.193	-58.410	-0.171	-0.075
-676.178	450.839	-0.075	-0.166
-675.164	-129.655	-0.377	0.052
-674.149	-76.833	-0.123	-0.043
-673.135	-87.396	0.181	0.055
-672.120	182.251	-0.031	-0.045
-671.105	496.176	-0.085	-0.196
-670.091	-200.000	0.019	-0.260
-669.076	192.721	0.090	0.137
-668.062	143.444	0.140	0.187
-667.047	-39.087	-0.094	-0.049
-666.032	88.281	0.174	0.194
-665.018	800.000	-0.014	0.041
-664.003	26.490	-0.246	0.207
-662.989	271.744	0.186	0.330
-661.974	105.103	0.026	-0.031
-660.959	-200.000	0.020	-0.134
-659.945	800.000	0.049	0.136
-658.930	464.444	0.055	-0.124
-657.916	168.531	-0.048	0.069
-656.901	107.299	-0.143	0.171
-655.886	-200.000	0.019	-0.112
-654.872	800.000	-0.039	0.137
-653.857	-93.465	-0.128	0.036
-652.843	39.198	-0.107	-0.097
-651.828	-143.019	-0.224	-0.022
-650.814	-7.628	0.203	0.138
-649.799	401.671	-0.084	-0.176
-648.784	31.907	0.292	-0.252
-647.770	-80.453	0.101	-0.034
-646.755	800.000	0.082	-0.271
-645.741	531.491	-0.059	-0.139
-644.726	23.003	0.074	-0.061
-643.711	-75.575	0.075	-0.027
-642.697	-75.442	0.328	-0.117
-641.682	315.167	0.101	0.192
-640.668	6.893	-0.054	0.040
-639.653	93.546	-0.206	-0.234
-638.638	120.172	0.040	0.050
-637.624	-110.137	0.175	-0.037
-636.609	-200.000	-0.040	-0.328
-635.595	0.202	0.232	0.167
-634.580	-200.000	0.029	-0.130
-633.565	60.562	0.124	-0.123
-632.551	-55.219	-0.194	-0.088
-631.536	-41.767	0.013	-0.006
-630.522	-128.730	-0.245	0.035
-629.507	-200.000	-0.050	-0.334
-628.492	64.728	0.032	-0.033
-627.478	213.480	-0.202	0.321
-626.463	-12.731	-0.104	0.068
-625.449	800.000	0.097	-0.270
-624.434	89.980	-0.341	0.383
-623.419	9.410	0.188	0.143
-622.405	-79.845	0.156	0.053
-621.390	200.018	0.078	0.120
-620.376	134.789	0.064	-0.084
-619.361	-162.554	0.220	0.011
-618.346	-200.000	0.012	-0.107
-617.332	800.000	-0.036	0.145
-616.317	-78.836	-0.542	0.185
-615.303	-132.017	-0.077	0.010
-614.288	468.206	0.119	-0.267
-613.273	800.000	-0.055	-0.236
-612.259	-200.000	-0.026	0.388
-611.244	-200.000	0.006	0.121
-610.230	-47.982	-0.145	-0.071
-609.215	-114.889	-0.246	0.047
-608.201	-21.857	-0.087	0.053
-607.186	-200.000	-0.056	-0.339
-606.171	-128.519	-0.050	-0.007
-605.157	59.669	0.286	-0.283
-604.142	-200.000	-0.019	0.126
-603.128	50.550	-0.217	0.206
-602.113	418.602	-0.045	-0.096
-601.098	800.000	-0.057	-0.172
-600.084	47.519	-0.211	-0.197
-599.069	345.521	0.164	-0.323
-598.055	-108.487	0.298	0.064
-597.040	461.538	0.126	0.283
-596.025	-29.654	-0.042	0.024
-595.011	146.717	-0.151	0.203
-593.996	800.000	-0.053	-0.232
-592.982	33.480	-0.076	-0.066
-591.967	800.000	-0.110	-0.308
-590.952	150.000	-0.095	-0.130
-589.938	77.295	-0.116	0.124
-588.923	-54.024	-0.165	0.075
-587.909	123.026	-0.296	-0.372
-586.894	-200.000	0.018	-0.197
-585.879	-13.537	0.103	0.067
-584.865	-23.207	-0.152	0.092
-583.850	-200.000	0.005	-0.147
-582.836	250.245	-0.053	0.090
-581.821	95.975	-0.047	0.054
-580.806	127.852	-0.043	-0.055
-579.792	498.117	0.238	-0.549
-578.777	152.906	0.099	-0.135
-577.763	-20.995	-0.517	-0.317
-576.748	-31.798	-0.361	-0.203
-575.733	333.163	-0.046	-0.089
-574.719	-200.000	-0.002	0.063
-573.704	-88.407	-0.072	-0.021
-572.690	800.000	-0.040	-0.156
-571.675	362.541	-0.182	-0.366
-570.661	211.679	-0.143	-0.225
-569.646	-133.505	0.138	-0.017
-568.631	-80.541	0.019	-0.006
-567.617	35.279	0.147	-0.129
-566.602	-120.433	-0.339	0.058
-565.588	590.724	0.015	0.038
-564.573	-200.000	0.014	0.231
-563.558	-63.242	0.026	-0.011
-562.544	-200.000	0.003	-0.100
-561.529	-148.830	0.203	0.016
-560.515	33.208	0.087	-0.076
-559.500	33.615	-0.190	0.165
-558.485	-13.360	0.084	-0.055
-557.471	-85.949	0.162	0.050
-556.456	-29.093	-0.154	0.088
-555.442	44.065	0.210	0.193
-554.427	106.046	0.184	-0.218
-553.412	85.187	0.180	-0.198
-552.398	-6.707	0.212	-0.144
-551.383	296.911	-0.051	0.094
-550.369	-111.519	-0.303	-0.062
-549.354	-34.279	0.172	-0.095
-548.339	-136.391	-0.223	-0.026
-547.325	-33.594	-0.165	-0.091
-546.310	286.194	-0.066	0.119
-545.296	-158.752	-0.217	0.012
-544.281	564.307	-0.073	-0.177
-543.266	-200.000	0.042	-0.237
-542.252	-200.000	0.015	0.104
-541.237	77.639	-0.142	0.151
-540.223	235.475	-0.207	0.342
-539.208	800.000	0.052	0.191
-538.193	-127.415	-0.007	-0.001
-537.179	-70.826	0.197	0.075
-536.164	800.000	-0.127	0.449
-535.150	86.638	0.138	0.152
-534.135	-94.331	0.095	-0.026
-533.121	-16.135	-0.191	0.121
-532.106	800.000	-0.142	-0.448
-531.091	108.302	0.250	-0.299
-530.077	-72.750	-0.273	0.101
-529.062	-172.467	-0.308	0.010
-528.048	30.003	0.076	-0.065
-527.033	-200.000	0.058	0.368
-526.018	-200.000	0.007	0.104
-525.004	-200.000	-0.043	0.244
-523.989	3.242	-0.065	-0.048
-522.975	21.202	-0.078	-0.063
-521.960	-200.000	0.007	0.074
-520.945	62.732	-0.176	-0.176
-519.931	-18.413	-0.142	-0.089
-518.916	52.331	0.122	0.116
-517.902	-175.773	-0.207	0.006
-516.887	7.746	0.158	-0.118
-515.872	-68.055	0.024	-0.009
-514.858	242.301	0.068	-0.114
-513.843	-200.000	-0.024	0.164
-512.829	-200.000	0.046	-0.425
-511.814	-200.000	0.048	0.360
-510.799	800.000	-0.038	0.165
-509.785	80.373	-0.219	0.236
-508.770	345.913	0.019	-0.037
-507.756	243.080	0.207	0.346
-506.741	-104.556	-0.263	-0.061
-505.726	800.000	0.091	-0.390
-504.712	-150.961	0.266	-0.020
-503.697	283.467	0.078	-0.139
-502.683	16.613	0.274	0.216
-501.668	-135.334	-0.088	-0.010
-500.653	-106.084	0.185	-0.042
-499.639	-161.815	-0.370	0.019
-498.624	153.658	0.112	0.153
-497.610	-4.142	0.108	0.075
-496.595	-200.000	0.060	-0.297
-495.581	-178.817	0.304	-0.007
-494.566	-118.790	-0.156	0.027
-493.551	97.381	-0.152	0.175
-492.537	128.515	0.226	0.287
-491.522	-123.116	-0.163	0.026
-490.508	-17.576	-0.190	-0.119
-489.493	-46.265	0.270	-0.133
-488.478	-37.734	0.280	0.149
-487.464	22.196	0.116	0.095
-486.449	-22.760	-0.387	-0.234
-485.435	800.000	0.129	-0.381
-484.420	-12.022	0.154	-0.101
-483.405	-200.000	-0.037	-0.175
-482.391	-51.308	0.027	-0.013
-481.376	-96.160	-0.331	-0.088
-480.362	23.575	0.024	-0.020
-479.347	5.999	-0.216	0.160
-478.332	-82.877	-0.346	-0.112
-477.318	800.000	-0.127	0.373
-476.303	501.305	0.107	-0.247
-475.289	-128.625	0.236	-0.033
-474.274	155.854	0.209	-0.287
-473.259	106.253	0.114	0.135
-472.245	800.000	-0.129	0.436
-471.230	-132.342	0.156	-0.020
-470.216	-154.510	-0.147	-0.010
-469.201	-87.218	-0.144	-0.044
-468.186	388.795	-0.064	-0.132
-467.172	-2.433	0.075	0.053
-466.157	-89.238	-0.283	0.083
-465.143	24.858	0.085	0.071
-464.128	-27.269	-0.122	-0.071
-463.113	7.271	0.127	0.094
-462.099	-200.000	0.076	0.397
-461.084	16.203	0.129	0.102
-460.070	304.164	-0.110	0.204
-459.055	-138.549	-0.414	-0.045
-458.040	-73.141	-0.171	-0.062
-457.026	-155.279	0.033	0.002
-456.011	-39.694	-0.219	-0.115
-454.997	-18.460	0.208	0.129
-453.982	80.420	-0.077	-0.083
-452.968	184.805	-0.134	0.198
-451.953	-200.000	-0.012	-0.242
-450.938	-100.437	-0.291	-0.072
-449.924	-0.949	0.090	0.064
-448.909	-200.000	-0.012	0.319
-447.895	-200.000	-0.003	0.104
-446.880	364.439	-0.098	0.197
-445.865	241.176	0.068	-0.113
-444.851	7.605	-0.157	-0.117
-443.836	-141.112	-0.125	0.013
-442.822	-23.679	0.207	0.124
-441.807	221.549	0.079	-0.126
-440.792	-200.000	-0.014	-0.074
-439.778	266.073	-0.084	0.146
-438.763	-106.648	0.347	-0.077
-437.749	-85.421	0.091	-0.028
-436.734	-200.000	0.041	0.417
-435.719	-9.789	0.229	0.152
-434.705	-19.718	0.314	-0.194
-433.690	800.000	-0.136	-0.380
-432.676	-152.956	-0.176	-0.012
-431.661	-12.078	0.111	-0.072
-430.646	139.272	-0.038	-0.050
-429.632	219.704	-0.034	-0.053
-428.617	-76.115	-0.263	0.092
-427.603	7.643	0.111	-0.082
-426.588	680.318	-0.136	0.354
-425.573	534.187	0.046	0.109
-424.559	800.000	0.029	0.098
-423.544	-200.000	0.030	0.317
-422.530	16.956	0.146	0.115
-421.515	216.572	0.126	0.199
-420.500	-40.563	-0.082	-0.042
-419.486	-200.000	-0.042	0.187
-418.471	-200.000	0.025	0.407
-417.457	-55.278	-0.138	0.062
-416.442	165.251	-0.100	-0.141
-415.428	800.000	0.015	-0.062
-414.413	88.775	0.118	-0.131
-413.398	-14.815	-0.332	0.212
-412.384	-128.097	0.281	0.040
-411.369	-130.549	-0.125	-0.017
-410.355	173.696	0.084	0.121
-409.340	800.000	-0.057	0.205
-408.325	29.527	0.269	0.228
-407.311	-146.019	0.177	0.016
-406.296	510.392	0.093	0.216
-405.282	122.762	0.069	-0.086
-404.267	161.923	-0.071	-0.099
-403.252	79.559	0.173	-0.185
-402.238	-112.223	0.082	-0.016
-401.223	-200.000	-0.003	-0.115
-400.209	-130.487	-0.201	-0.027
-399.194	-122.524	-0.030	0.005
-398.179	142.050	-0.090	-0.119
-397.165	1.903	0.218	-0.156
-396.150	417.676	0.075	0.160
-395.136	0.598	0.210	0.150
-394.121	342.696	-0.142	0.278
-393.106	-103.281	0.160	0.038
-392.092	-154.313	0.322	0.022
-391.077	443.556	0.192	0.418
-390.063	800.000	0.015	0.055
-389.048	-146.489	0.221	0.019
-388.033	-200.000	-0.008	-0.053
-387.019	420.426	-0.107	-0.227
-386.004	800.000	0.044	-0.158
-384.990	-67.709	-0.298	0.116
-383.975	800.000	-0.058	-0.190
-382.960	-200.000	-0.022	-0.183
-381.946	91.627	0.095	0.106
-380.931	-141.431	-0.219	0.022
-379.917	-200.000	0.002	0.199
-378.902	-112.116	-0.231	0.046
-377.888	228.551	-0.205	-0.333
-376.873	433.013	-0.077	-0.165
-375.858	-200.000	-0.002	-0.093
-374.844	-200.000	0.065	0.304
-373.829	-41.657	0.453	-0.232
-372.815	-123.672	0.149	0.023
-371.800	-76.068	-0.183	0.064
-370.785	58.412	0.179	0.175
-369.771	-85.541	-0.230	0.071
-368.756	-96.055	0.288	0.076
-367.742	-200.000	0.001	-0.200
-366.727	800.000	0.027	0.115
-365.712	150.947	-0.059	-0.079
-364.698	-200.000	0.047	0.208
-363.683	109.736	-0.046	-0.055
-362.669	475.858	-0.042	-0.093
-361.654	-49.667	0.228	-0.108
-360.639	0.314	0.175	0.124
-359.625	-200.000	0.031	0.172
-358.610	-200.000	0.010	0.144
-357.596	800.000	0.050	-0.143
-356.581	-200.000	0.038	0.325
-355.566	-200.000	-0.013	-0.180
-354.552	312.416	0.180	0.337
-353.537	67.826	0.102	-0.104
-352.523	-89.485	0.175	-0.051
-351.508	-196.549	-0.253	0.002
-350.493	39.286	-0.070	0.062
-349.479	-15.532	0.145	-0.092
-348.464	-58.152	-0.202	-0.087
-347.450	153.540	-0.055	0.075
-346.435	-19.043	0.032	-0.020
-345.420	-95.833	-0.484	0.128
-344.406	-24.944	0.299	-0.176
-343.391	33.722	0.083	-0.072
-342.377	-200.000	-0.024	-0.325
-341.362	800.000	0.016	-0.059
-340.348	553.848	-0.030	-0.072
-339.333	294.932	0.045	-0.082
-338.318	-68.496	-0.341	0.132
-337.304	-50.440	0.225	-0.105
-336.289	-75.432	0.095	-0.034
-335.275	112.035	0.184	0.221
-334.260	800.000	-0.019	-0.079
-333.245	114.739	0.130	0.157
-332.231	390.204	0.081	0.166
-331.216	-200.000	0.010	-0.076
-330.202	-0.532	-0.118	-0.083
-329.187	-177.650	0.144	0.003
-328.172	13.176	-0.307	0.236
-327.158	250.993	-0.049	-0.082
-326.143	800.000	0.043	0.171
-325.129	-142.844	-0.454	0.044
-324.114	-112.380	-0.228	0.045
-323.099	-154.356	-0.221	0.015
-322.085	-33.349	0.092	-0.051
-321.070	-63.077	0.304	-0.125
-320.056	800.000	-0.057	0.187
-319.041	20.957	0.061	0.049
-318.026	-156.636	-0.108	0.007
-317.012	310.809	0.213	-0.397
-315.997	593.622	0.115	-0.282
-314.983	-200.000	0.076	-0.419
-313.968	-29.322	-0.244	0.139
-312.953	-54.655	-0.459	0.206
-311.939	-94.478	0.042	0.011
-310.924	800.000	-0.021	-0.077
-309.910	48.717	-0.100	0.093
-308.895	-200.000	-0.018	-0.121
-307.880	-154.305	-0.227	-0.015
-306.866	-200.000	0.038	0.290
-305.851	503.525	-0.091	-0.208
-304.837	-20.485	0.298	-0.182
-303.822	111.541	-0.119	0.143
-302.807	-82.206	-0.333	0.108
-301.793	800.000	0.082	0.314
-300.778	170.602	-0.242	-0.344
-299.764	-7.589	0.407	-0.273
-298.749	-200.000	-0.008	0.321
-297.735	-160.997	-0.243	-0.013
-296.720	-140.212	-0.314	-0.033
-295.705	-29.485	0.082	0.047
-294.691	-98.449	-0.151	0.038
-293.676	-164.231	0.150	-0.007
-292.662	158.489	-0.082	0.112
-291.647	721.151	-0.046	0.121
-290.632	800.000	0.075	-0.259
-289.618	-37.126	-0.317	0.168
-288.603	53.769	0.329	0.313
-287.589	655.746	0.130	0.331
-286.574	48.790	0.125	-0.116
-285.559	150.120	0.296	0.398
-284.545	275.752	-0.194	0.341
-283.530	800.000	-0.068	0.264
-282.516	-45.778	-0.113	0.055
-281.501	-26.813	0.202	0.117
-280.486	-61.738	0.332	0.138
-279.472	91.658	-0.323	-0.360
-278.457	-133.726	0.270	0.033
-277.443	400.413	0.162	0.336
-276.428	90.413	0.207	0.230
-275.413	344.772	0.119	-0.232
-274.399	393.310	0.154	0.318
-273.384	-200.000	-0.023	0.294
-272.370	-4.798	-0.211	-0.144
-271.355	-10.660	-0.159	0.104
-270.340	-20.916	-0.295	-0.179
-269.326	377.631	-0.053	-0.107
-268.311	484.385	-0.059	-0.133
-267.297	800.000	0.062	0.202
-266.282	-200.000	0.035	0.305
-265.267	800.000	-0.045	0.138
-264.253	-177.949	0.318	-0.008
-263.238	163.335	-0.068	-0.095
-262.224	380.035	0.066	0.133
-261.209	-183.280	-0.152	0.003
-260.195	26.765	-0.184	0.152
-259.180	800.000	-0.080	-0.232
-258.165	-9.699	-0.232	-0.153
-257.151	649.556	0.078	0.197
-256.136	-3.214	0.305	-0.211
-255.122	69.874	0.124	0.127
-254.107	-200.000	0.035	0.289
-253.092	-200.000	0.011	-0.280
-252.078	-200.000	-0.010	-0.210
-251.063	-48.122	0.098	-0.047
-250.049	-20.604	0.177	-0.108
-249.034	-200.000	0.013	0.341
-248.019	-69.651	-0.289	-0.110
-247.005	-125.591	-0.144	-0.022
-245.990	-89.974	0.185	-0.054
-244.976	29.788	-0.160	0.135
-243.961	-200.000	0.043	-0.383
-242.946	98.541	0.076	-0.086
-241.932	27.200	0.143	-0.119
-240.917	800.000	-0.070	-0.226
-239.903	344.389	0.135	-0.262
-238.888	-91.336	0.223	-0.063
-237.873	800.000	-0.075	-0.208
-236.859	-84.427	0.162	0.051
-235.844	-39.049	-0.085	0.044
-234.830	800.000	-0.071	-0.236
-233.815	-200.000	0.056	-0.262
-232.800	84.143	-0.336	-0.363
-231.786	-54.696	0.083	0.037
-230.771	287.708	0.072	0.128
-229.757	-61.098	-0.157	-0.066
-228.742	-143.801	0.197	0.018
-227.727	-57.720	-0.210	0.091
-226.713	800.000	0.086	0.250
-225.698	-200.000	0.001	0.389
-224.684	229.124	0.112	-0.180
-223.669	-143.391	-0.100	-0.009
-222.655	800.000	-0.091	-0.282
-221.640	23.624	-0.087	-0.071
-220.625	-134.656	-0.251	0.030
-219.611	800.000	0.065	-0.190
-218.596	92.448	-0.113	0.126
-217.582	-5.117	0.406	-0.276
-216.567	-4.236	0.095	0.065
-215.552	125.255	0.162	-0.202
-214.538	123.149	0.077	-0.096
-213.523	-86.356	-0.156	-0.047
-212.509	-109.297	0.120	0.025
-211.494	494.398	0.062	-0.141
-210.479	149.328	0.104	-0.139
-209.465	171.359	-0.014	-0.019
-208.450	-85.678	0.228	-0.070
-207.436	334.484	-0.021	0.041
-206.421	40.832	-0.193	0.172
-205.406	-146.646	-0.086	0.007
-204.392	-191.546	-0.288	-0.003
-203.377	-200.000	-0.009	-0.166
-202.363	-178.618	-0.280	0.006
-201.348	800.000	0.074	0.304
-200.333	122.669	0.069	-0.085
-199.319	19.326	-0.079	-0.063
-198.304	800.000	-0.018	0.052
-197.290	346.746	0.020	-0.039
-196.275	-200.000	0.077	-0.487
-195.260	-114.961	0.149	0.028
-194.246	18.488	0.196	-0.155
-193.231	74.950	-0.075	-0.078
-192.217	-85.238	-0.204	-0.063
-191.202	75.002	0.503	0.524
-190.187	54.053	-0.262	0.249
-189.173	800.000	0.054	0.193
-188.158	-200.000	-0.009	0.160
-187.144	524.686	-0.149	-0.347
-186.129	128.034	0.178	0.223
-185.114	-200.000	0.001	-0.065
-184.100	-157.991	-0.031	-0.002
-183.085	-72.560	-0.207	-0.076
-182.071	-85.515	-0.059	-0.018
-181.056	-85.939	-0.178	0.054
-180.042	55.481	-0.095	-0.091
-179.027	-164.827	0.284	-0.013
-178.012	148.349	-0.151	0.201
-176.998	226.242	0.090	0.145
-175.983	152.612	0.032	-0.042
-174.969	-200.000	-0.013	-0.061
-173.954	387.942	0.170	0.347
-172.939	16.911	0.235	0.183
-171.925	3.744	0.144	0.103
-170.910	-78.872	0.387	-0.130
-169.896	-144.621	0.194	0.018
-168.881	-0.243	0.086	0.060
-167.866	69.379	0.082	0.084
-166.852	-200.000	0.087	0.396
-165.837	306.322	0.049	-0.090
-164.823	-185.007	0.061	0.001
-163.808	-81.946	0.307	0.099
-162.793	60.247	0.079	-0.077
-161.779	-103.797	0.304	-0.070
-160.764	53.071	-0.120	0.113
-159.750	-200.000	0.081	-0.364
-158.735	-200.000	-0.002	0.029
-157.720	-185.907	0.089	0.001
-156.706	-127.226	-0.188	0.027
-155.691	362.446	0.117	-0.233
-154.677	-200.000	-0.007	0.070
-153.662	-86.423	0.125	-0.038
-152.647	769.900	0.044	-0.118
-151.633	800.000	0.045	-0.131
-150.618	-178.126	0.170	-0.004
-149.604	516.525	-0.138	-0.318
-148.589	200.912	-0.182	0.276
-147.574	128.706	-0.243	0.306
-146.560	-51.897	0.547	-0.251
-145.545	177.048	0.155	-0.222
-144.531	-150.092	-0.249	-0.019
-143.516	-28.438	0.207	-0.118
-142.502	-52.870	0.205	0.093
-141.487	-71.821	0.053	-0.019
-140.472	-200.000	0.295	0.001
-139.458	-30.555	-0.087	-0.049
-138.443	800.000	-0.068	0.286
-137.429	-25.199	0.331	-0.193
-136.414	337.287	-0.057	0.109
-135.399	22.672	-0.212	0.171
-134.385	-200.000	0.025	0.206
-133.370	383.797	0.132	0.268
-132.356	-117.884	-0.369	-0.065
-131.341	-8.977	-0.149	-0.099
-130.326	-153.535	-0.272	-0.019
-129.312	-200.000	-0.042	-0.183
-128.297	-155.881	-0.229	-0.014
-127.283	45.363	0.173	0.158
-126.268	98.111	-0.059	0.067
-125.253	-20.619	-0.266	0.161
-124.239	570.047	-0.092	-0.220
-123.224	606.199	0.166	-0.408
-122.210	-200.000	0.012	-0.305
-121.195	99.191	0.021	0.024
-120.180	-135.380	0.268	-0.032
-119.166	-106.309	0.206	0.045
-118.151	47.559	-0.078	0.072
-117.137	755.036	0.136	0.361
-116.122	31.004	0.338	0.285
-115.107	-100.112	0.154	0.038
-114.093	-68.616	-0.215	-0.082
-113.078	-46.961	-0.148	0.071
-112.064	-2.887	0.318	-0.219
-111.049	-40.081	-0.203	-0.104
-110.034	-39.281	-0.340	-0.175
-109.020	-67.243	0.197	-0.076
-108.005	-113.614	0.434	0.083
-106.991	-200.000	-0.006	-0.136
-105.976	-34.221	-0.178	-0.096
-104.962	572.969	-0.100	-0.240
-103.947	-87.970	0.349	-0.103
-102.932	-14.530	-0.220	0.140
-101.918	-200.000	-0.032	-0.438
-100.903	-200.000	-0.256	-0.000
-99.889	683.597	0.056	-0.144
-98.874	25.470	-0.183	0.150
-97.859	-200.000	-0.058	0.698
-96.845	-158.250	0.103	0.006
-95.830	-42.749	-0.099	0.049
-94.816	-60.200	0.360	0.151
-93.801	-87.194	0.271	0.081
-92.786	-200.000	-0.011	-0.286
-91.772	-200.000	-0.003	0.141
-90.757	-121.934	0.246	-0.040
-89.743	22.855	0.288	0.232
-88.728	607.052	0.076	0.187
-87.713	26.925	-0.095	-0.078
-86.699	41.044	-0.164	-0.146
-85.684	-102.934	0.442	0.103
-84.670	-45.679	0.174	-0.085
-83.655	-2.750	-0.271	-0.187
-82.640	-82.073	-0.158	0.051
-81.626	800.000	0.054	0.158
-80.611	800.000	-0.099	0.318
-79.597	-188.651	0.225	0.003
-78.582	-172.222	0.343	0.011
-77.567	737.521	0.170	0.447
-76.553	97.870	-0.048	0.054
-75.538	-200.000	-0.010	0.259
-74.524	-165.444	-0.162	0.007
-73.509	140.291	0.102	0.133
-72.494	-37.639	-0.155	-0.081
-71.480	-116.747	-0.211	-0.038
-70.465	371.569	0.038	-0.075
-69.451	-51.602	0.281	0.129
-68.436	251.859	-0.058	-0.098
-67.422	-200.000	0.032	0.452
-66.407	19.974	0.203	0.161
-65.392	-200.000	-0.004	0.217
-64.378	55.806	-0.061	-0.058
-63.363	49.404	0.256	0.237
-62.349	135.007	-0.171	0.218
-61.334	54.507	-0.720	-0.681
-60.319	172.465	0.407	0.575
-59.305	-200.000	-0.199	-1.188
-58.290	149.259	0.670	0.890
-57.276	800.000	0.490	1.451
-56.261	-200.000	96.935	581.978
-55.246	549.852	1388.446	3269.982
-54.232	155.132	2589.280	3498.204
-53.217	106.406	2280.487	2655.093
-52.203	43.136	1900.101	1703.066
-51.188	37.211	1690.888	1470.769
-50.173	34.483	1647.083	1412.446
-49.159	51.954	1694.598	1584.714
-48.144	54.465	1711.566	1619.354
-47.130	36.927	1668.656	1449.077
-46.115	34.024	1654.348	1415.034
-45.100	33.862	1649.407	1409.553
-44.086	33.961	1646.884	1408.069
-43.071	33.966	1644.133	1405.700
-42.057	33.854	1641.815	1402.839
-41.042	33.875	1639.755	1401.178
-40.027	33.819	1638.473	1399.610
-39.013	33.823	1635.956	1397.433
-37.998	33.882	1634.486	1396.558
-36.984	33.985	1632.562	1395.617
-35.969	34.014	1631.303	1394.697
-34.954	34.071	1630.015	1393.954
-33.940	33.967	1627.951	1391.375
-32.925	34.054	1626.171	1390.433
-31.911	33.949	1624.662	1388.326
-30.896	34.012	1623.024	1387.325
-29.881	33.991	1621.225	1385.583
-28.867	34.038	1619.531	1384.419
-27.852	34.039	1617.758	1382.855
-26.838	33.993	1616.977	1381.805
-25.823	33.995	1615.264	1380.298
-24.809	33.991	1613.931	1379.074
-23.794	34.037	1612.629	1378.238
-22.779	34.050	1610.850	1376.758
-21.765	34.123	1608.879	1375.547
-20.750	33.998	1607.727	1373.603
-19.736	33.993	1606.494	1372.464
-18.721	34.103	1604.795	1371.749
-17.706	34.080	1603.038	1370.026
-16.692	34.012	1602.043	1368.632
-15.677	34.085	1600.478	1367.768
-14.663	34.118	1598.935	1366.630
-13.648	34.020	1597.684	1364.803
-12.633	34.111	1596.127	1364.070
-11.619	34.025	1594.800	1362.269
-10.604	34.091	1593.230	1361.342
-9.590	34.000	1592.420	1359.947
-8.575	34.069	1590.886	1359.073
-7.560	33.959	1590.066	1357.538
-6.546	34.051	1588.581	1356.871
-5.531	34.055	1586.782	1355.307
-4.517	34.071	1585.981	1354.682
-3.502	33.952	1585.104	1353.037
-2.487	34.088	1583.046	1352.193
-1.473	33.702	1571.325	1339.402
-0.458	30.976	1551.492	1303.415
0.556	27.733	1553.482	1273.404
1.571	25.640	1577.351	1278.009
2.586	25.402	1591.664	1287.786
3.600	22.752	1538.775	1226.489
4.615	13.060	1427.144	1074.623
5.629	3.865	1359.445	966.309
6.644	2.130	1350.172	948.863
7.659	1.947	1349.176	946.942
8.673	1.851	1348.681	945.914
9.688	1.852	1345.921	943.905
10.702	1.593	1343.454	940.487
11.717	5.459	1351.112	969.767
12.731	15.831	1370.720	1048.694
13.746	24.066	1384.621	1110.849
14.761	25.989	1386.713	1124.434
15.775	26.341	1386.166	1126.080
16.790	26.357	1386.300	1126.194
17.804	26.488	1385.204	1126.013
18.819	26.644	1385.550	1127.166
19.834	26.836	1384.306	1127.251
20.848	26.708	1384.006	1126.109
21.863	26.769	1383.190	1125.729
22.877	26.841	1382.213	1125.275
23.892	26.707	1381.678	1123.911
24.907	26.807	1380.802	1123.718
25.921	26.874	1379.377	1122.875
26.936	26.795	1378.839	1121.850
27.950	26.788	1377.431	1120.563
28.965	26.819	1376.065	1119.539
29.980	26.788	1374.997	1118.384
30.994	26.639	1373.835	1116.422
32.009	26.767	1373.373	1116.735
33.023	26.769	1371.268	1114.939
34.038	26.756	1370.522	1114.150
35.053	26.669	1369.827	1112.950
36.067	26.829	1368.081	1112.419
37.082	26.736	1367.661	1111.409
38.096	26.773	1366.623	1110.693
39.111	26.878	1365.585	1110.392
40.126	26.777	1365.270	1109.419
41.140	26.667	1365.198	1108.592
42.155	26.734	1364.445	1108.291
43.169	26.805	1364.656	1108.800
44.184	26.756	1364.324	1108.129
45.199	26.825	1363.464	1107.758
46.213	26.789	1362.778	1106.882
47.228	26.829	1362.255	1106.602
48.242	26.743	1361.493	1105.360
49.257	26.823	1359.444	1104.088
50.271	26.668	1358.791	1102.517
51.286	26.711	1356.908	1101.149
52.301	26.719	1355.567	1100.017
53.315	26.802	1354.686	1099.706
54.330	26.725	1354.093	1098.661
55.344	26.705	1352.938	1097.507
56.359	26.813	1351.390	1096.805
57.374	26.774	1351.456	1096.525
58.388	26.763	1350.324	1095.446
59.403	26.782	1350.210	1095.370
60.417	26.684	1349.685	1094.254
61.432	26.678	1348.926	1093.504
62.447	26.783	1348.205	1093.457
63.461	26.806	1346.405	1092.040
64.476	26.757	1345.684	1091.065
65.490	26.869	1344.343	1090.552
66.505	26.849	1342.627	1088.946
67.520	26.674	1341.774	1087.106
68.534	26.702	1340.944	1086.508
69.549	26.801	1339.608	1085.921
70.563	26.883	1338.890	1085.730
71.578	26.830	1337.600	1084.272
72.593	26.804	1336.968	1083.512
73.607	26.796	1336.312	1082.836
74.622	26.844	1335.682	1082.515
75.636	26.857	1334.824	1081.800
76.651	26.812	1334.027	1080.792
77.666	26.694	1334.014	1079.980
78.680	26.784	1333.132	1079.712
79.695	26.753	1332.424	1078.858
80.709	26.908	1331.308	1078.778
81.724	26.790	1330.856	1077.613
82.739	26.841	1329.757	1076.933
83.753	26.694	1329.384	1075.659
84.768	26.713	1328.090	1074.631
85.782	26.883	1326.782	1074.484
86.797	26.888	1325.534	1073.411
87.812	26.738	1324.781	1071.817
88.826	26.837	1323.776	1071.494
89.841	26.731	1322.728	1069.925
90.855	26.848	1321.229	1069.312
91.870	26.859	1320.468	1068.665
92.884	26.825	1320.111	1068.082
93.899	26.889	1318.924	1067.402
94.914	26.808	1317.937	1066.034
95.928	26.955	1317.089	1066.115
96.943	26.863	1317.060	1065.455
97.957	26.906	1316.016	1064.771
98.972	26.917	1315.076	1063.981
99.987	26.900	1314.055	1062.962
101.001	26.880	1313.514	1062.314
102.016	26.741	1312.647	1060.705
103.030	26.886	1311.542	1060.565
104.045	26.864	1310.881	1059.805
105.060	26.874	1309.799	1058.897
106.074	26.894	1308.956	1058.239
107.089	26.745	1308.177	1056.644
108.103	26.761	1307.048	1055.732
109.118	26.927	1305.904	1055.681
110.133	26.896	1304.538	1054.306
111.147	26.895	1303.721	1053.549
112.162	26.875	1302.531	1052.374
113.176	27.049	1301.135	1052.161
114.191	26.976	1300.513	1051.141
115.206	26.977	1299.674	1050.377
116.220	26.885	1298.618	1048.898
117.235	26.889	1297.941	1048.282
118.249	26.825	1296.912	1046.987
119.264	26.873	1296.347	1046.717
120.279	26.862	1295.353	1045.757
121.293	27.020	1294.514	1045.902
122.308	26.936	1293.476	1044.486
123.322	26.992	1292.738	1044.117
124.337	27.034	1291.937	1043.623
125.352	26.961	1291.181	1042.496
126.366	27.009	1290.197	1041.886
127.381	27.091	1289.563	1041.753
128.395	26.985	1288.588	1040.266
129.410	26.962	1287.547	1039.200
130.424	26.961	1287.185	1038.814
131.439	26.907	1286.577	1037.923
132.454	27.018	1285.579	1037.659
133.468	26.907	1284.991	1036.456
134.483	26.967	1284.215	1036.081
135.497	26.895	1283.584	1035.070
136.512	27.081	1282.104	1034.848
137.527	27.097	1281.152	1034.074
138.541	27.016	1279.692	1032.348
139.556	26.946	1278.710	1031.065
140.570	26.995	1277.788	1030.508
141.585	26.896	1277.092	1029.294
142.600	26.876	1275.829	1028.073
143.614	26.987	1275.000	1027.945
144.629	26.868	1274.383	1026.681
145.643	26.809	1273.167	1025.275
146.658	26.874	1272.116	1024.706
147.673	26.867	1271.116	1023.769
148.687	26.981	1269.832	1023.288
149.702	26.799	1269.120	1021.597
150.716	26.903	1267.974	1021.169
151.731	26.892	1267.286	1020.465
152.746	26.888	1266.002	1019.317
153.760	26.880	1264.813	1018.225
154.775	27.095	1263.692	1018.440
155.789	26.942	1262.968	1016.906
156.804	26.874	1262.303	1015.902
157.819	26.862	1261.570	1015.156
158.833	26.976	1260.849	1015.124
159.848	27.005	1260.495	1014.909
160.862	26.980	1259.528	1013.899
161.877	27.037	1258.414	1013.236
162.892	27.061	1257.758	1012.748
163.906	27.035	1256.976	1011.886
164.921	27.022	1256.242	1011.134
165.935	27.062	1255.555	1010.713
166.950	26.991	1255.084	1009.847
167.964	27.008	1254.734	1009.572
168.979	27.004	1253.616	1008.563
169.994	27.071	1253.181	1008.493
171.008	27.114	1252.251	1007.894
172.023	27.058	1251.887	1007.201
173.037	27.125	1251.337	1007.043
174.052	27.069	1250.343	1005.842
175.067	27.089	1249.374	1005.086
176.081	27.105	1248.583	1004.450
177.096	27.036	1248.143	1003.621
178.110	27.174	1246.959	1003.343
179.125	27.048	1246.476	1002.172
180.140	27.156	1245.010	1001.502
181.154	27.146	1243.748	1000.341
182.169	27.216	1242.740	999.826
183.183	27.161	1241.707	998.603
184.198	27.218	1240.676	997.998
185.213	27.118	1240.004	996.822
186.227	27.245	1239.066	996.677
187.242	27.139	1238.356	995.438
188.256	27.262	1237.194	995.089
189.271	27.141	1236.705	993.944
190.286	27.232	1235.708	993.552
191.300	27.295	1235.164	993.370
192.315	27.182	1234.875	992.436
193.329	27.195	1234.664	992.245
194.344	27.287	1233.914	992.059
195.359	27.074	1233.808	990.726
196.373	27.103	1233.134	990.252
197.388	27.118	1232.472	989.714
198.402	27.120	1232.006	989.264
199.417	27.123	1232.001	989.189
200.432	27.225	1231.027	988.877
201.446	27.097	1230.845	987.947
202.461	27.092	1229.980	987.135
203.475	27.197	1228.885	986.740
204.490	27.104	1228.118	985.532
205.504	27.182	1227.049	985.013
206.519	27.271	1225.952	984.527
207.534	27.299	1225.072	983.884
208.548	27.108	1224.945	982.661
209.563	27.169	1223.974	982.124
210.577	27.241	1223.008	981.653
211.592	27.195	1222.415	980.841
212.607	27.262	1221.434	980.325
213.621	27.248	1220.881	979.720
214.636	27.319	1219.781	979.134
215.650	27.309	1218.973	978.347
216.665	27.216	1217.880	976.881
217.680	27.298	1217.387	976.840
218.694	27.324	1216.556	976.227
219.709	27.364	1215.980	975.893
220.723	27.267	1215.500	974.901
221.738	27.240	1214.516	973.878
222.753	27.289	1213.479	973.224
223.767	27.336	1213.196	973.165
224.782	27.413	1212.822	973.191
225.796	27.324	1212.392	972.280
226.811	27.438	1211.481	972.074
227.826	27.429	1211.018	971.570
228.840	27.423	1210.301	970.877
229.855	27.369	1209.735	970.045
230.869	27.354	1209.241	969.485
231.884	27.301	1208.255	968.327
232.899	27.352	1207.331	967.771
233.913	27.411	1206.910	967.661
234.928	27.448	1206.778	967.667
235.942	27.501	1205.649	966.960
236.957	27.423	1205.536	966.370
237.972	27.444	1204.014	965.176
238.986	27.527	1203.454	965.081
240.001	27.487	1203.198	964.577
241.015	27.525	1202.611	964.222
242.030	27.581	1201.407	963.468
243.045	27.549	1200.880	962.790
244.059	27.581	1199.756	961.973
245.074	27.649	1199.110	961.725
246.088	27.703	1198.281	961.263
247.103	27.601	1197.754	960.219
248.117	27.652	1196.604	959.477
249.132	27.590	1196.201	958.744
250.147	27.642	1195.665	958.503
251.161	27.592	1194.815	957.475
252.176	27.608	1194.395	957.137
253.190	27.691	1193.122	956.466
254.205	27.738	1192.829	956.398
255.220	27.627	1192.360	955.353
256.234	27.695	1191.728	955.117
257.249	27.729	1191.036	954.659
258.263	27.651	1190.902	954.055
259.278	27.657	1189.709	953.050
260.293	27.690	1189.455	952.934
261.307	27.744	1188.500	952.368
262.322	27.803	1188.243	952.385
263.336	27.708	1187.296	951.045
264.351	27.761	1186.983	950.983
265.366	27.644	1186.387	949.812
266.380	27.808	1185.623	949.973
267.395	27.634	1185.144	948.597
268.409	27.652	1184.396	948.010
269.424	27.733	1184.014	948.043
270.439	27.699	1183.559	947.417
271.453	27.711	1182.766	946.761
272.468	27.664	1181.672	945.555
273.482	27.767	1180.910	945.399
274.497	27.745	1180.700	945.033
275.512	27.746	1180.596	944.868
276.526	28.027	1179.274	945.180
277.541	27.894	1178.762	944.002
278.555	27.816	1177.942	942.857
279.570	27.822	1177.332	942.316
280.585	27.879	1177.025	942.279
281.599	27.827	1175.745	940.905
282.614	27.843	1174.831	940.174
283.628	27.919	1173.983	939.801
284.643	27.980	1172.956	939.208
285.657	27.927	1172.052	938.129
286.672	27.917	1171.536	937.585
287.687	27.815	1171.000	936.549
288.701	27.989	1170.082	936.623
289.716	27.944	1169.511	935.853
290.730	27.999	1168.924	935.582
291.745	27.933	1168.406	934.746
292.760	27.939	1167.833	934.234
293.774	27.993	1167.156	933.887
294.789	27.947	1166.797	933.284
295.803	28.043	1166.087	933.124
296.818	27.929	1165.359	931.876
297.833	27.994	1164.721	931.616
298.847	27.986	1164.168	931.047
299.862	28.123	1163.091	930.800
300.876	28.019	1162.485	929.708
301.891	28.081	1162.330	929.816
302.906	28.176	1161.327	929.412
303.920	28.125	1160.880	928.715
304.935	28.058	1160.283	927.816
305.949	28.162	1159.049	927.274
306.964	28.159	1159.072	927.195
307.979	28.219	1158.303	926.798
308.993	28.168	1157.681	925.964
310.008	28.148	1156.825	925.094
311.022	28.194	1156.040	924.617
312.037	28.185	1155.483	924.046
313.052	28.158	1154.633	923.149
314.066	28.104	1154.114	922.381
315.081	28.106	1152.902	921.341
316.095	28.247	1152.081	921.308
317.110	28.218	1151.683	920.765
318.125	28.223	1151.442	920.518
319.139	28.211	1150.564	919.671
320.154	28.234	1149.767	919.068
321.168	28.319	1149.364	919.092
322.183	28.251	1149.019	918.394
323.197	28.173	1148.516	917.522
324.212	28.192	1148.008	917.127
325.227	28.268	1147.308	916.867
326.241	28.405	1146.642	916.941
327.256	28.371	1146.109	916.264
328.270	28.282	1145.071	914.905
329.285	28.348	1144.456	914.664
330.300	28.367	1143.359	913.803
331.314	28.367	1142.115	912.725
332.329	28.399	1141.974	912.691
333.343	28.420	1141.381	912.243
334.358	28.357	1140.826	911.403
335.373	28.521	1139.923	911.417
336.387	28.457	1139.140	910.394
337.402	28.437	1138.410	909.629
338.416	28.523	1137.924	909.587
339.431	28.543	1137.395	909.184
340.446	28.587	1136.354	908.489
341.460	28.502	1136.130	907.810
342.475	28.573	1135.353	907.459
343.489	28.447	1134.563	906.126
344.504	28.492	1133.529	905.441
345.519	28.520	1132.704	904.840
346.533	28.487	1131.967	904.009
347.548	28.571	1131.094	903.647
348.562	28.512	1130.546	902.838
349.577	28.516	1129.787	902.169
350.592	28.540	1129.096	901.656
351.606	28.461	1128.688	900.861
352.621	28.545	1128.037	900.676
353.635	28.586	1127.323	900.228
354.650	28.646	1126.633	899.889
355.665	28.601	1126.209	899.253
356.679	28.540	1125.620	898.404
357.694	28.535	1125.003	897.805
358.708	28.651	1123.963	897.463
359.723	28.668	1123.694	897.251
360.738	28.704	1122.814	896.646
361.752	28.654	1122.267	895.887
362.767	28.738	1121.428	895.548
363.781	28.806	1121.020	895.473
364.796	28.765	1120.869	895.072
365.810	28.801	1120.112	894.565
366.825	28.787	1119.555	893.974
367.840	28.810	1118.959	893.528
368.854	28.884	1118.706	893.611
369.869	28.701	1118.024	892.095
370.883	28.829	1117.300	892.059
371.898	28.776	1116.427	891.028
372.913	28.819	1115.625	890.516
373.927	28.772	1115.350	889.990
374.942	28.900	1114.946	890.210
375.956	28.876	1114.413	889.591
376.971	28.874	1114.002	889.171
377.986	28.974	1113.124	888.878
379.000	28.965	1113.040	888.689
380.015	28.958	1112.343	888.019
381.029	28.947	1111.564	887.267
382.044	28.957	1110.970	886.760
383.059	28.949	1110.240	886.059
384.073	28.966	1109.419	885.408
385.088	29.037	1108.580	885.002
386.102	28.969	1107.704	883.897
387.117	28.993	1106.638	883.084
388.132	29.024	1105.912	882.577
389.146	29.067	1105.245	882.170
390.161	29.049	1104.900	881.732
391.175	28.987	1104.372	880.936
392.190	29.108	1103.568	880.793
393.205	29.132	1102.947	880.339
394.219	29.197	1101.977	879.796
395.234	29.012	1101.420	878.388
396.248	29.093	1100.759	878.171
397.263	29.024	1099.815	877.009
398.278	29.165	1099.271	877.169
399.292	29.168	1098.865	876.785
400.307	29.294	1098.368	876.909
401.321	29.154	1097.545	875.511
402.336	29.050	1097.032	874.527
403.350	29.180	1095.962	874.215
404.365	29.239	1095.633	874.155
405.380	29.261	1094.738	873.468
406.394	29.298	1093.981	872.962
407.409	29.375	1093.114	872.556
408.423	29.386	1092.219	871.817
409.438	29.280	1091.983	871.051
410.453	29.248	1091.401	870.357
411.467	29.399	1090.618	870.369
412.482	29.397	1089.903	869.712
413.496	29.401	1089.493	869.329
414.511	29.447	1088.406	868.599
415.526	29.372	1088.597	868.320
416.540	29.319	1088.102	867.599
417.555	29.400	1087.488	867.417
418.569	29.395	1087.104	867.010
419.584	29.545	1086.679	867.298
420.599	29.513	1086.101	866.608
421.613	103.125	1318.949	1450.238
422.628	96.064	1352.863	1450.351
