DTS Sentinel unit serial number:	SN413079Multiplexer serial number:	ORYXHardware model number:	OX4-SRSoftware version number:	ORYX F/W v4.00 Oryx Data Collector v3.7.2.0data status	okinstallation	princeton_trtdifferential loss correction	single-endedforward channel	channel 2reverse channel	N/Adate	2019/09/18time	21:15:35forward acquisition time	60.00reverse acquisition time	0.00gamma	496.2192k internal	0.2343k external	0.2343temperature offset calibration	1.0021default loss term (dB/km)	0.3790temperature slope calibration	1.0000multiplexer offset coefficient	1.0000multiplexer slope coefficient	1.0000fibre end	0.00T internal ref (°C)	25.83T ext. ref 1 (°C)	0.84T ext. ref 2 (°C)	18.12length (m)	temperature (°C)	Stokes	anti-Stokes-747.200	-56.829	-0.231	0.102
-746.185	800.000	-0.124	0.369
-745.171	-28.876	0.411	0.236
-744.156	446.957	0.004	-0.008
-743.142	217.501	0.259	-0.413
-742.127	111.800	0.144	0.174
-741.112	-45.989	-0.139	-0.069
-740.098	-200.000	0.025	0.173
-739.083	-146.640	0.353	-0.031
-738.069	-112.139	-0.274	-0.055
-737.054	47.891	0.213	-0.200
-736.039	182.894	-0.198	0.292
-735.025	-141.826	0.126	-0.013
-734.010	26.229	-0.087	-0.073
-732.996	-33.848	-0.326	-0.180
-731.981	15.568	-0.170	0.134
-730.966	-200.000	-0.010	-0.096
-729.952	800.000	0.085	-0.276
-728.937	-17.117	-0.149	-0.094
-727.923	800.000	0.031	-0.133
-726.908	253.812	0.063	0.108
-725.894	199.864	0.190	0.292
-724.879	140.144	0.126	0.166
-723.864	-128.139	-0.360	0.052
-722.850	-40.653	-0.093	0.048
-721.835	-30.009	-0.428	-0.244
-720.821	-85.913	-0.225	-0.070
-719.806	-200.000	-0.049	-0.283
-718.791	-200.000	-0.028	-0.277
-717.777	411.228	-0.110	-0.233
-716.762	561.005	0.095	0.230
-715.748	-200.000	-0.006	-0.041
-714.733	87.289	-0.216	-0.239
-713.718	-200.000	-0.006	-0.070
-712.704	610.917	-0.127	-0.317
-711.689	230.975	-0.164	-0.268
-710.675	800.000	-0.097	-0.390
-709.660	-126.252	0.089	-0.013
-708.645	2.819	-0.098	0.071
-707.631	-35.446	-0.380	-0.206
-706.616	-123.723	-0.239	-0.038
-705.602	52.368	0.080	0.077
-704.587	-17.200	-0.160	-0.101
-703.572	-132.379	0.172	0.022
-702.558	-142.723	-0.077	0.008
-701.543	-83.827	0.125	0.040
-700.529	83.409	-0.260	-0.284
-699.514	415.104	0.034	0.073
-698.499	-49.434	0.253	0.121
-697.485	-16.069	0.162	-0.103
-696.470	800.000	0.039	-0.155
-695.456	-63.990	-0.476	0.194
-694.441	29.510	-0.263	-0.223
-693.426	800.000	0.016	-0.056
-692.412	-88.049	0.340	0.102
-691.397	75.025	-0.183	-0.193
-690.383	-28.670	0.284	-0.164
-689.368	-200.000	0.024	-0.438
-688.354	64.562	0.191	0.192
-687.339	800.000	0.044	0.136
-686.324	-35.517	0.214	0.116
-685.310	13.435	-0.068	0.052
-684.295	800.000	-0.043	0.174
-683.281	-109.654	0.258	0.054
-682.266	-200.000	-0.044	-0.337
-681.251	6.810	-0.161	0.119
-680.237	427.665	-0.054	-0.117
-679.222	-145.597	0.414	0.037
-678.208	197.265	0.019	-0.029
-677.193	487.318	-0.035	0.080
-676.178	800.000	0.059	-0.229
-675.164	-139.414	-0.272	0.029
-674.149	71.075	-0.326	0.337
-673.135	66.105	0.050	-0.050
-672.120	-200.000	-0.007	-0.043
-671.105	-200.000	-0.006	0.080
-670.091	196.481	-0.154	-0.234
-669.076	82.764	-0.095	-0.103
-668.062	601.709	0.049	0.122
-667.047	178.473	0.092	-0.134
-666.032	-52.551	0.328	-0.151
-665.018	-100.828	-0.148	0.036
-664.003	-122.418	0.162	-0.026
-662.989	-121.675	0.164	0.027
-661.974	-27.793	0.333	-0.193
-660.959	800.000	0.134	0.473
-659.945	96.466	-0.102	0.117
-658.930	20.866	0.067	-0.054
-657.916	-16.071	0.063	0.040
-656.901	89.730	0.185	0.207
-655.886	800.000	-0.031	0.129
-654.872	-65.133	-0.190	-0.077
-653.857	211.072	0.168	0.263
-652.843	9.646	-0.166	0.126
-651.828	-7.339	-0.195	-0.132
-650.814	-17.822	-0.287	-0.180
-649.799	649.456	0.109	-0.277
-648.784	-114.971	0.283	0.054
-647.770	-200.000	-0.023	0.195
-646.755	67.748	-0.092	-0.094
-645.741	-74.062	-0.184	-0.066
-644.726	438.269	0.119	0.259
-643.711	153.268	-0.163	0.223
-642.697	-200.000	-0.012	-0.077
-641.682	-133.336	-0.287	0.036
-640.668	-200.000	0.016	-0.337
-639.653	-67.266	-0.188	-0.074
-638.638	-133.981	-0.191	-0.024
-637.624	50.542	-0.223	0.210
-636.609	-184.429	0.162	-0.003
-635.595	-196.550	0.380	-0.003
-634.580	591.782	0.023	0.056
-633.565	-46.135	-0.528	-0.259
-632.551	-112.257	-0.322	-0.064
-631.536	164.928	-0.125	0.175
-630.522	194.411	-0.243	-0.367
-629.507	-115.051	-0.010	-0.002
-628.492	-67.683	-0.161	0.063
-627.478	-134.266	0.263	0.032
-626.463	-200.000	0.014	0.089
-625.449	-89.274	-0.158	0.046
-624.434	-200.000	-0.005	-0.261
-623.419	-174.836	0.133	-0.004
-622.405	729.546	0.006	0.015
-621.390	427.635	-0.134	0.287
-620.376	-1.185	0.134	-0.095
-619.361	606.643	-0.099	-0.246
-618.346	-200.000	0.021	0.098
-617.332	-132.555	-0.295	0.038
-616.317	800.000	-0.049	0.175
-615.303	-200.000	0.005	-0.263
-614.288	-53.711	-0.073	0.033
-613.273	424.730	-0.043	-0.092
-612.259	-153.731	0.246	0.017
-611.244	3.976	0.207	-0.151
-610.230	-188.280	0.091	-0.001
-609.215	-1.648	-0.164	-0.115
-608.201	-200.000	0.020	0.119
-607.186	800.000	-0.100	-0.284
-606.171	-58.848	-0.048	0.021
-605.157	800.000	-0.144	-0.436
-604.142	133.511	0.130	-0.168
-603.128	-194.359	-0.275	0.002
-602.113	278.954	0.152	-0.270
-601.098	172.387	-0.131	-0.187
-600.084	800.000	-0.117	0.435
-599.069	-24.778	-0.196	0.116
-598.055	408.187	0.039	0.082
-597.040	-108.453	0.071	0.015
-596.025	-61.977	0.111	-0.046
-595.011	-147.418	-0.386	0.033
-593.996	-166.103	-0.199	-0.008
-592.982	-62.151	0.301	0.125
-591.967	200.942	0.181	0.277
-590.952	56.080	-0.332	-0.321
-589.938	-22.231	-0.302	0.182
-588.923	72.690	0.075	-0.078
-587.909	-98.139	-0.264	-0.068
-586.894	-104.188	0.362	-0.084
-585.879	800.000	-0.018	-0.065
-584.865	7.294	0.090	0.067
-583.850	-17.452	-0.218	-0.137
-582.836	-200.000	-0.028	0.142
-581.821	395.873	0.007	0.015
-580.806	609.433	-0.111	0.276
-579.792	-95.876	0.130	-0.035
-578.777	36.557	-0.216	0.190
-577.763	73.544	0.278	0.290
-576.748	-155.721	-0.149	0.009
-575.733	70.157	-0.138	-0.142
-574.719	-153.562	-0.130	-0.009
-573.704	-175.248	-0.327	0.009
-572.690	800.000	-0.074	-0.277
-571.675	-34.122	-0.258	-0.141
-570.661	800.000	0.096	-0.362
-569.646	-200.000	0.059	0.297
-568.631	54.126	-0.144	-0.137
-567.617	94.207	-0.079	0.089
-566.602	355.685	-0.089	0.176
-565.588	-118.460	0.370	0.065
-564.573	800.000	-0.108	-0.356
-563.558	473.391	0.032	-0.071
-562.544	-200.000	0.004	-0.192
-561.529	540.010	0.132	-0.312
-560.515	61.846	-0.243	-0.241
-559.500	-27.478	0.195	0.113
-558.485	-111.833	0.392	0.079
-557.471	-89.819	0.286	-0.083
-556.456	-25.338	-0.079	-0.046
-555.442	-200.000	0.048	-0.000
-554.427	-200.000	0.015	0.093
-553.412	-109.911	0.229	0.048
-552.398	-68.326	-0.338	-0.130
-551.383	-40.143	0.203	-0.105
-550.369	40.325	0.174	0.155
-549.354	122.858	-0.127	0.158
-548.339	-200.000	0.005	-0.157
-547.325	25.716	0.469	-0.388
-546.310	-200.000	0.043	0.197
-545.296	77.082	0.054	0.056
-544.281	-200.000	-0.043	-0.239
-543.266	-104.736	0.162	-0.037
-542.252	-200.000	0.002	0.168
-541.237	47.162	0.129	-0.119
-540.223	-200.000	0.023	-0.257
-539.208	130.371	-0.225	-0.287
-538.193	94.673	0.144	0.162
-537.179	-100.592	-0.277	-0.068
-536.164	-21.108	0.039	0.024
-535.150	-42.293	0.096	-0.049
-534.135	-10.173	0.121	-0.080
-533.121	-200.000	-0.028	-0.306
-532.106	-184.137	-0.335	-0.006
-531.091	-126.601	-0.337	-0.050
-530.077	-47.590	0.097	-0.047
-529.062	-23.903	0.097	-0.058
-528.048	-129.197	0.163	-0.023
-527.033	-200.000	0.016	-0.214
-526.018	800.000	0.034	-0.110
-525.004	-200.000	-0.034	-0.241
-523.989	-111.793	0.160	0.032
-522.975	319.884	-0.200	0.378
-521.960	187.547	0.214	0.317
-520.945	-60.655	-0.321	0.135
-519.931	800.000	0.095	0.306
-518.916	7.389	-0.128	-0.095
-517.902	800.000	-0.011	-0.032
-516.887	206.571	0.013	0.019
-515.872	-200.000	-0.041	-0.354
-514.858	252.254	-0.123	-0.208
-513.843	-58.456	-0.116	0.050
-512.829	-38.489	0.366	0.192
-511.814	800.000	0.059	0.218
-510.799	154.224	0.108	-0.147
-509.785	800.000	-0.079	-0.290
-508.770	1.965	0.308	0.221
-507.756	-47.174	0.145	0.070
-506.741	-62.018	0.093	0.038
-505.726	800.000	-0.081	-0.304
-504.712	-95.197	0.120	0.032
-503.697	130.601	-0.246	0.313
-502.683	-135.915	-0.086	0.010
-501.668	37.259	0.401	-0.352
-500.653	-53.395	0.196	-0.089
-499.639	41.222	-0.085	0.076
-498.624	-146.142	-0.071	-0.006
-497.610	-31.181	0.342	0.191
-496.595	-69.072	0.041	0.016
-495.581	143.031	-0.250	0.329
-494.566	-200.000	-0.012	-0.203
-493.551	-80.325	0.104	0.035
-492.537	106.753	-0.306	0.360
-491.522	59.056	-0.117	0.114
-490.508	-69.725	0.055	0.021
-489.493	-45.908	0.188	-0.092
-488.478	-110.266	0.052	-0.011
-487.464	-103.405	-0.222	0.052
-486.449	108.932	-0.067	0.080
-485.435	265.966	0.178	-0.307
-484.420	-75.036	-0.350	-0.124
-483.405	38.913	-0.017	-0.015
-482.391	-69.498	0.236	0.090
-481.376	-73.266	-0.088	-0.032
-480.362	457.558	-0.036	-0.080
-479.347	247.868	-0.066	-0.111
-478.332	178.321	-0.123	-0.178
-477.318	64.775	-0.050	-0.050
-476.303	414.232	-0.084	-0.176
-475.289	-0.783	-0.102	-0.072
-474.274	-21.682	-0.262	-0.158
-473.259	-109.651	-0.290	-0.060
-472.245	800.000	-0.050	-0.191
-471.230	-113.090	0.188	0.037
-470.216	23.200	0.156	0.127
-469.201	-200.000	0.047	0.234
-468.186	-138.212	0.276	-0.030
-467.172	-183.267	0.195	0.003
-466.157	800.000	0.048	0.188
-465.143	58.996	-0.128	0.125
-464.128	-144.944	-0.168	0.015
-463.113	800.000	0.077	0.294
-462.099	800.000	0.036	0.137
-461.084	-174.411	-0.380	0.011
-460.070	126.337	-0.291	-0.364
-459.055	-151.633	-0.090	-0.007
-458.040	242.531	-0.054	-0.090
-457.026	-200.000	0.084	-0.439
-456.011	-200.000	-0.003	0.168
-454.997	-68.347	-0.093	0.036
-453.982	-200.000	-0.001	-0.005
-452.968	52.715	-0.265	0.251
-451.953	27.879	-0.061	0.051
-450.938	-200.000	-0.005	-0.054
-449.924	448.175	0.116	0.254
-448.909	-107.577	-0.195	-0.042
-447.895	800.000	-0.014	0.040
-446.880	-64.401	0.117	0.047
-445.865	233.747	0.087	-0.142
-444.851	612.711	-0.047	-0.116
-443.836	145.182	-0.231	-0.306
-442.822	68.924	-0.160	0.163
-441.807	-119.179	0.172	-0.030
-440.792	-6.872	0.052	0.035
-439.778	418.095	0.146	0.309
-438.763	-200.000	0.062	0.304
-437.749	-50.966	-0.074	-0.034
-436.734	-98.149	-0.086	0.022
-435.719	-6.586	-0.225	-0.151
-434.705	-200.000	-0.037	-0.408
-433.690	-200.000	0.008	0.042
-432.676	193.510	0.183	-0.273
-431.661	328.517	-0.068	-0.128
-430.646	-28.406	0.161	-0.092
-429.632	-200.000	0.054	0.370
-428.617	-156.833	0.300	0.018
-427.603	174.659	-0.042	-0.061
-426.588	-113.517	-0.112	-0.022
-425.573	85.411	0.211	-0.229
-424.559	459.790	0.061	-0.134
-423.544	40.472	-0.139	0.123
-422.530	130.555	0.167	0.212
-421.515	-200.000	0.016	0.247
-420.500	-82.361	-0.349	-0.112
-419.486	-34.917	0.258	-0.139
-418.471	94.824	0.247	0.278
-417.457	169.737	0.139	-0.196
-416.442	800.000	0.049	0.143
-415.428	-56.993	-0.316	-0.138
-414.413	-136.570	-0.134	-0.015
-413.398	-116.106	0.155	-0.028
-412.384	206.688	0.201	-0.310
-411.369	-200.000	-0.013	0.061
-410.355	-200.000	-0.019	-0.404
-409.340	800.000	-0.030	-0.109
-408.325	295.997	0.095	0.173
-407.311	-51.320	0.267	0.124
-406.296	-84.473	-0.195	-0.061
-405.282	-72.093	-0.234	-0.086
-404.267	-67.667	0.207	0.080
-403.252	778.086	-0.083	-0.224
-402.238	37.157	-0.115	0.101
-401.223	-86.643	-0.151	-0.046
-400.209	-200.000	0.065	-0.399
-399.194	-200.000	-0.046	0.297
-398.179	-21.330	-0.244	0.147
-397.165	-15.027	0.028	0.017
-396.150	-200.000	0.032	0.167
-395.136	-4.523	-0.240	-0.164
-394.121	-92.917	0.103	0.028
-393.106	76.428	0.243	0.254
-392.092	139.426	-0.271	0.352
-391.077	800.000	0.109	0.371
-390.063	117.157	0.103	-0.125
-389.048	92.932	-0.133	0.149
-388.033	800.000	0.098	-0.272
-387.019	-75.725	-0.169	0.059
-386.004	-23.896	0.360	-0.213
-384.990	82.073	-0.197	0.210
-383.975	-126.148	0.198	0.029
-382.960	170.762	-0.251	0.355
-381.946	416.409	-0.134	0.281
-380.931	-200.000	-0.012	-0.074
-379.917	-25.353	-0.298	0.174
-378.902	331.345	0.164	-0.311
-377.888	40.501	0.163	0.145
-376.873	471.879	0.076	0.169
-375.858	-20.532	-0.083	-0.050
-374.844	24.587	-0.407	0.332
-373.829	-200.000	-0.015	0.135
-372.815	103.552	-0.166	-0.193
-371.800	-81.373	-0.077	-0.025
-370.785	208.771	0.060	0.093
-369.771	177.255	-0.164	0.235
-368.756	-200.000	0.004	-0.267
-367.742	89.382	0.154	-0.169
-366.727	-200.000	-0.002	-0.032
-365.712	-200.000	-0.015	0.331
-364.698	-83.807	-0.106	-0.033
-363.683	-200.000	0.068	-0.417
-362.669	-200.000	-0.016	-0.076
-361.654	-20.843	0.125	-0.076
-360.639	-19.753	0.258	-0.157
-359.625	81.087	-0.234	-0.249
-358.610	604.992	0.091	-0.223
-357.596	-110.475	-0.195	0.040
-356.581	128.151	0.108	0.135
-355.566	-61.917	0.176	-0.073
-354.552	-32.076	-0.234	-0.129
-353.537	-90.097	0.094	-0.027
-352.523	88.421	0.169	0.185
-351.508	26.361	-0.176	-0.145
-350.493	-114.032	0.360	0.069
-349.479	18.239	-0.333	-0.262
-348.464	23.924	-0.192	0.156
-347.450	-13.084	-0.100	-0.064
-346.435	-200.000	0.030	-0.334
-345.420	3.672	0.316	-0.227
-344.406	-71.730	0.246	0.090
-343.391	146.882	0.063	-0.084
-342.377	-90.467	0.518	0.148
-341.362	-51.102	0.322	0.149
-340.348	23.345	-0.224	0.181
-339.333	107.754	-0.116	-0.137
-338.318	-17.061	-0.241	0.150
-337.304	800.000	0.061	0.179
-336.289	165.531	-0.214	0.298
-335.275	-200.000	-0.325	0.000
-334.260	800.000	0.046	0.179
-333.245	-137.062	0.207	0.023
-332.231	-200.000	-0.019	-0.159
-331.216	258.118	0.075	0.127
-330.202	-5.588	-0.142	0.096
-329.187	443.073	-0.098	0.211
-328.172	38.285	0.069	0.060
-327.158	800.000	0.038	0.153
-326.143	-200.000	-0.068	-0.410
-325.129	-132.928	-0.426	-0.053
-324.114	14.468	0.375	0.288
-323.099	-200.000	-0.064	0.341
-322.085	150.163	-0.075	-0.100
-321.070	-200.000	-0.002	-0.161
-320.056	-200.000	0.088	0.411
-319.041	4.410	0.046	-0.033
-318.026	-49.877	0.245	0.115
-317.012	-200.000	-0.032	0.357
-315.997	14.571	0.044	0.034
-314.983	-48.646	0.263	-0.124
-313.968	107.929	-0.277	-0.325
-312.953	-185.365	0.453	-0.007
-311.939	116.053	-0.087	-0.105
-310.924	-50.486	-0.042	-0.019
-309.910	800.000	-0.082	0.270
-308.895	-38.581	0.221	-0.115
-307.880	-65.067	0.334	-0.133
-306.866	240.924	-0.116	0.191
-305.851	-92.306	-0.105	0.029
-304.837	-134.701	0.046	0.005
-303.822	-200.000	-0.006	0.234
-302.807	-103.507	-0.045	-0.010
-301.793	55.457	-0.064	0.061
-300.778	800.000	-0.018	-0.068
-299.764	477.062	-0.134	-0.299
-298.749	800.000	-0.042	0.150
-297.735	-108.715	0.123	0.026
-296.720	-200.000	-0.018	-0.211
-295.705	72.226	0.193	0.198
-294.691	206.262	0.161	-0.246
-293.676	-117.983	0.167	0.029
-292.662	-200.000	0.032	0.281
-291.647	-3.794	-0.120	0.082
-290.632	-33.059	0.195	-0.106
-289.618	800.000	0.066	-0.282
-288.603	-81.048	0.071	-0.023
-287.589	-200.000	-0.014	-0.176
-286.574	82.692	0.044	0.047
-285.559	-87.600	0.075	-0.022
-284.545	-121.330	-0.337	-0.055
-283.530	-90.919	0.281	-0.080
-282.516	-24.989	-0.235	-0.137
-281.501	147.610	0.182	-0.241
-280.486	800.000	-0.063	-0.263
-279.472	111.409	0.066	0.078
-278.457	46.300	-0.119	0.109
-277.443	27.369	-0.344	0.284
-276.428	-145.541	0.327	-0.029
-275.413	296.044	0.223	-0.402
-274.399	76.292	0.041	-0.043
-273.384	40.609	-0.177	-0.157
-272.370	-36.055	-0.265	-0.141
-271.355	239.074	-0.084	-0.137
-270.340	-200.000	-0.034	0.236
-269.326	-200.000	0.009	0.141
-268.311	-200.000	0.081	0.456
-267.297	-44.099	0.199	0.098
-266.282	-190.515	-0.422	-0.004
-265.267	-78.473	0.210	0.071
-264.253	-200.000	-0.001	-0.195
-263.238	63.395	-0.218	0.215
-262.224	578.145	-0.034	-0.081
-261.209	474.453	0.013	-0.029
-260.195	-200.000	-0.008	-0.254
-259.180	-25.213	0.196	0.114
-258.165	-162.183	-0.118	-0.006
-257.151	-38.512	-0.142	-0.073
-256.136	531.535	-0.063	-0.147
-255.122	-88.519	-0.079	0.023
-254.107	800.000	-0.107	0.318
-253.092	-55.035	-0.270	-0.119
-252.078	-63.733	-0.057	0.023
-251.063	-99.303	0.105	0.026
-250.049	-26.033	0.092	0.053
-249.034	800.000	0.108	-0.409
-248.019	800.000	0.075	0.250
-247.005	-133.090	0.156	-0.019
-245.990	800.000	0.146	0.431
-244.976	-200.000	-0.007	0.276
-243.961	-46.426	0.091	0.044
-242.946	-52.784	0.098	0.044
-241.932	-71.150	-0.185	0.068
-240.917	63.407	0.179	-0.177
-239.903	-22.025	-0.015	-0.009
-238.888	516.822	-0.184	-0.421
-237.873	-32.377	0.285	0.156
-236.859	56.052	0.086	-0.082
-235.844	-40.497	0.209	0.106
-234.830	-59.471	-0.309	-0.130
-233.815	-32.923	0.091	0.049
-232.800	800.000	0.050	0.137
-231.786	-57.610	0.259	-0.111
-230.771	69.930	0.146	0.148
-229.757	27.333	0.246	0.203
-228.742	86.961	0.190	-0.206
-227.727	182.491	0.164	-0.238
-226.713	-200.000	-0.043	-0.218
-225.698	103.285	0.266	-0.306
-224.684	800.000	-0.054	0.154
-223.669	-51.842	-0.176	-0.080
-222.655	-53.984	0.076	-0.034
-221.640	800.000	0.024	-0.076
-220.625	-9.151	-0.215	-0.141
-219.611	49.723	0.276	0.255
-218.596	28.815	0.152	-0.127
-217.582	450.324	0.100	-0.217
-216.567	-89.747	0.181	0.052
-215.552	676.257	-0.103	0.263
-214.538	-200.000	0.013	0.233
-213.523	-32.872	-0.147	0.080
-212.509	157.684	-0.145	0.196
-211.494	-93.708	0.155	0.042
-210.479	15.822	-0.090	-0.069
-209.465	800.000	-0.022	-0.074
-208.450	-200.000	0.004	-0.163
-207.436	215.702	0.129	0.201
-206.421	200.342	0.069	0.103
-205.406	-200.000	-0.032	0.736
-204.392	47.861	-0.024	0.022
-203.377	-200.000	-0.002	0.158
-202.363	0.323	-0.126	-0.088
-201.348	-82.291	0.567	0.181
-200.333	-102.786	-0.060	-0.014
-199.319	-58.253	-0.258	-0.110
-198.304	800.000	0.114	0.390
-197.290	180.987	-0.014	0.020
-196.275	-97.943	0.178	-0.045
-195.260	502.558	0.109	0.246
-194.246	-16.473	0.030	0.019
-193.231	-127.000	0.099	0.014
-192.217	15.156	-0.104	-0.080
-191.202	-61.529	0.242	0.099
-190.187	95.667	-0.081	0.091
-189.173	45.635	0.120	-0.108
-188.158	-58.801	0.223	-0.095
-187.144	68.537	-0.085	0.085
-186.129	322.755	-0.098	0.183
-185.114	-200.000	0.028	0.303
-184.100	303.719	-0.108	0.196
-183.085	94.938	-0.192	-0.214
-182.071	9.899	0.236	-0.175
-181.056	-200.000	0.034	0.150
-180.042	406.600	0.135	0.279
-179.027	-200.000	-0.013	0.206
-178.012	-200.000	-0.068	0.431
-176.998	-87.246	-0.154	0.046
-175.983	-200.000	0.027	0.144
-174.969	152.083	0.100	0.134
-173.954	-200.000	-0.016	0.449
-172.939	-200.000	0.023	-0.327
-171.925	9.434	-0.116	-0.086
-170.910	245.775	0.228	-0.375
-169.896	-114.397	-0.255	-0.048
-168.881	783.753	0.034	-0.092
-167.866	800.000	-0.186	-0.533
-166.852	-20.956	0.335	-0.201
-165.837	71.386	0.112	0.114
-164.823	207.504	0.204	-0.312
-163.808	-128.592	-0.179	0.025
-162.793	-200.000	-0.012	0.311
-161.779	-189.307	-0.087	-0.001
-160.764	17.558	0.046	-0.036
-159.750	800.000	0.012	-0.044
-158.735	-45.087	0.212	0.103
-157.720	800.000	0.017	0.066
-156.706	122.858	-0.084	-0.103
-155.691	-200.000	-0.009	-0.262
-154.677	800.000	0.113	0.323
-153.662	-71.900	-0.243	-0.089
-152.647	-23.118	-0.048	0.028
-151.633	800.000	-0.120	0.396
-150.618	800.000	-0.128	-0.400
-149.604	-98.758	0.250	-0.062
-148.589	-164.809	-0.355	-0.016
-147.574	-150.037	-0.134	-0.010
-146.560	-200.000	-0.031	-0.246
-145.545	125.176	-0.064	-0.079
-144.531	25.547	-0.109	0.089
-143.516	-93.239	0.288	-0.078
-142.502	-200.000	-0.022	0.108
-141.487	-200.000	0.060	0.437
-140.472	-200.000	-0.020	0.157
-139.458	-80.800	0.310	-0.101
-138.443	379.630	-0.015	0.030
-137.429	-152.136	-0.104	-0.007
-136.414	134.862	0.065	-0.082
-135.399	800.000	-0.021	-0.066
-134.385	-186.266	-0.439	0.006
-133.370	-116.530	0.115	-0.021
-132.356	800.000	0.057	-0.200
-131.341	310.259	0.091	-0.166
-130.326	68.420	0.117	-0.118
-129.312	334.439	-0.051	-0.096
-128.297	-5.242	0.038	-0.026
-127.283	221.011	0.199	-0.313
-126.268	-200.000	-0.063	0.481
-125.253	-144.563	-0.124	0.011
-124.239	-89.895	0.445	-0.127
-123.224	-80.448	0.177	-0.058
-122.210	-93.240	0.294	-0.080
-121.195	354.500	0.100	0.195
-120.180	112.291	0.031	-0.037
-119.166	-101.741	-0.106	-0.025
-118.151	-110.438	0.139	-0.028
-117.137	-114.582	-0.059	0.011
-116.122	246.444	-0.080	0.132
-115.107	12.784	-0.117	-0.089
-114.093	-121.323	0.091	-0.015
-113.078	279.319	-0.102	0.178
-112.064	-71.480	-0.047	0.017
-111.049	185.990	-0.159	-0.231
-110.034	25.086	-0.187	0.151
-109.020	-11.131	0.298	0.192
-108.005	346.425	0.071	0.136
-106.991	121.052	-0.089	0.108
-105.976	-109.838	-0.035	0.007
-104.962	800.000	-0.005	0.015
-103.947	-117.104	-0.226	0.040
-102.932	-125.268	0.360	-0.054
-101.918	416.323	0.088	0.184
-100.903	377.787	-0.113	0.225
-99.889	-200.000	-0.021	0.094
-98.874	215.396	0.045	-0.069
-97.859	328.673	-0.183	0.343
-96.845	-98.076	-0.154	0.039
-95.830	-119.454	-0.294	0.050
-94.816	4.117	0.349	-0.249
-93.801	-33.784	-0.207	-0.112
-92.786	-18.243	-0.106	0.065
-91.772	511.508	0.066	-0.150
-90.757	108.670	-0.016	-0.019
-89.743	84.851	0.058	0.062
-88.728	70.371	0.376	-0.379
-87.713	-200.000	-0.030	0.210
-86.699	743.628	-0.052	-0.136
-85.684	358.264	0.142	-0.276
-84.670	800.000	-0.097	0.394
-83.655	42.235	-0.062	0.055
-82.640	-91.702	-0.245	0.068
-81.626	-168.001	0.168	-0.006
-80.611	-200.000	-0.001	0.256
-79.597	-65.094	0.089	0.035
-78.582	-177.144	-0.130	0.003
-77.567	800.000	0.112	0.369
-76.553	115.491	-0.066	0.079
-75.538	-200.000	0.010	-0.395
-74.524	-200.000	0.033	-0.158
-73.509	111.423	0.045	-0.053
-72.494	165.498	-0.146	-0.201
-71.480	-200.000	0.048	-0.229
-70.465	-200.000	0.004	0.047
-69.451	800.000	-0.115	-0.340
-68.436	-200.000	-0.003	-0.014
-67.422	-50.617	-0.181	-0.083
-66.407	325.186	0.047	-0.087
-65.392	-80.040	-0.148	0.048
-64.378	-200.000	0.086	0.458
-63.363	-116.296	-0.051	-0.009
-62.349	725.532	0.077	-0.201
-61.334	66.645	-1.038	-1.029
-60.319	13.328	0.705	0.533
-59.305	231.959	-0.631	-1.008
-58.290	225.554	0.855	1.351
-57.276	255.381	0.810	1.353
-56.261	-200.000	119.294	627.275
-55.246	415.434	1535.241	3188.875
-54.232	147.065	2696.412	3534.710
-53.217	92.675	2266.251	2492.355
-52.203	34.335	1879.871	1598.236
-51.188	28.918	1675.682	1383.948
-50.173	26.533	1636.078	1333.637
-49.159	45.540	1699.655	1529.203
-48.144	44.167	1713.070	1530.860
-47.130	28.327	1666.589	1371.790
-46.115	25.827	1651.413	1340.666
-45.100	25.690	1646.492	1335.602
-44.086	25.745	1643.793	1333.765
-43.071	25.720	1640.962	1331.236
-42.057	25.600	1638.972	1328.678
-41.042	25.727	1637.135	1328.076
-40.027	25.686	1635.546	1326.429
-39.013	25.710	1633.244	1324.688
-37.998	25.604	1632.307	1323.097
-36.984	25.744	1630.293	1322.438
-35.969	25.724	1629.216	1321.364
-34.954	25.825	1627.664	1320.795
-33.940	25.746	1625.840	1318.689
-32.925	25.883	1623.958	1318.112
-31.911	25.900	1622.753	1317.202
-30.896	25.866	1621.258	1315.691
-29.881	25.808	1619.694	1313.945
-28.867	25.844	1618.198	1312.941
-27.852	25.710	1617.208	1311.107
-26.838	25.837	1615.173	1310.332
-25.823	25.761	1614.515	1309.194
-24.809	25.839	1612.863	1308.366
-23.794	25.826	1611.433	1307.065
-22.779	25.749	1610.026	1305.310
-21.765	25.780	1608.469	1304.219
-20.750	25.766	1606.733	1302.663
-19.736	25.876	1605.319	1302.255
-18.721	25.948	1603.789	1301.485
-17.706	25.928	1602.696	1300.401
-16.692	25.874	1600.848	1298.461
-15.677	25.851	1599.852	1297.434
-14.663	25.856	1598.316	1296.175
-13.648	25.910	1596.536	1295.072
-12.633	25.915	1595.069	1293.863
-11.619	25.825	1594.049	1292.339
-10.604	25.940	1592.045	1291.489
-9.590	25.880	1591.146	1290.274
-8.575	25.833	1589.801	1288.801
-7.560	25.963	1588.148	1288.337
-6.546	25.960	1586.784	1287.156
-5.531	25.910	1586.229	1286.299
-4.517	25.887	1585.068	1285.143
-3.502	25.865	1584.403	1284.398
-2.487	25.841	1582.233	1282.417
-1.473	25.286	1570.197	1268.684
-0.458	21.733	1549.644	1227.198
0.556	16.643	1550.084	1191.121
1.571	13.948	1572.493	1188.974
2.586	13.472	1583.995	1194.130
3.600	12.497	1531.677	1147.787
4.615	7.391	1428.103	1036.768
5.629	1.950	1368.975	959.594
6.644	0.891	1361.713	947.788
7.659	0.859	1360.960	946.979
8.673	0.827	1359.977	946.009
9.688	0.773	1357.543	943.901
10.702	0.670	1354.824	941.283
11.717	3.207	1358.114	959.314
12.731	9.980	1367.369	1008.154
13.746	15.654	1375.909	1049.892
14.761	17.378	1377.936	1062.120
15.775	16.806	1375.889	1056.880
16.790	15.805	1373.483	1048.705
17.804	14.968	1371.367	1041.784
18.819	14.687	1369.926	1038.849
19.834	14.433	1368.570	1036.151
20.848	14.146	1367.466	1033.439
21.863	13.953	1366.005	1031.049
22.877	13.731	1364.566	1028.493
23.892	13.856	1363.329	1028.245
24.907	13.775	1362.611	1027.111
25.921	13.708	1362.181	1026.284
26.936	13.814	1361.072	1026.009
27.950	13.805	1360.276	1025.264
28.965	13.823	1359.513	1024.712
29.980	13.918	1358.745	1024.627
30.994	13.917	1357.749	1023.780
32.009	13.918	1356.752	1022.940
33.023	13.964	1355.085	1021.875
34.038	13.849	1354.426	1020.585
35.053	13.893	1352.723	1019.482
36.067	13.850	1352.121	1018.671
37.082	13.858	1351.295	1018.011
38.096	13.969	1349.809	1017.480
39.111	13.915	1349.316	1016.687
40.126	13.855	1348.537	1015.640
41.140	13.822	1347.923	1014.887
42.155	13.737	1347.216	1013.744
43.169	13.699	1347.095	1013.335
44.184	13.688	1347.028	1013.129
45.199	13.692	1346.657	1012.784
46.213	13.671	1345.872	1011.974
47.228	13.792	1344.839	1011.848
48.242	13.834	1343.630	1011.104
49.257	13.818	1342.140	1009.793
50.271	13.853	1340.890	1008.977
51.286	13.838	1339.356	1007.643
52.301	13.805	1338.291	1006.552
53.315	13.783	1337.685	1005.873
54.330	13.806	1336.325	1004.903
55.344	13.748	1335.441	1003.798
56.359	13.739	1334.145	1002.682
57.374	13.764	1332.958	1001.849
58.388	13.701	1331.822	1000.528
59.403	13.652	1331.962	1000.249
60.417	13.721	1330.891	999.770
61.432	13.630	1329.923	998.409
62.447	13.688	1328.942	997.934
63.461	13.557	1328.268	996.548
64.476	13.716	1326.768	996.290
65.490	13.610	1325.416	994.550
66.505	13.616	1324.190	993.579
67.520	13.656	1322.970	992.819
68.534	13.789	1321.580	992.482
69.549	13.718	1320.768	991.356
70.563	13.739	1319.686	990.584
71.578	13.591	1318.646	988.834
72.593	13.615	1317.809	988.258
73.607	13.548	1317.120	987.255
74.622	13.536	1315.901	986.186
75.636	13.680	1315.171	986.409
76.651	13.613	1314.456	985.386
77.666	13.528	1314.101	984.529
78.680	13.519	1313.702	984.085
79.695	13.649	1312.430	983.822
80.709	13.646	1311.565	983.066
81.724	13.554	1311.223	982.176
82.739	13.653	1310.329	982.007
83.753	13.780	1309.195	981.824
84.768	13.834	1307.849	981.046
85.782	13.820	1306.933	980.187
86.797	13.802	1305.274	978.751
87.812	13.713	1304.426	977.504
88.826	13.635	1303.371	976.169
89.841	13.725	1302.038	975.614
90.855	13.848	1301.039	975.498
91.870	13.791	1300.395	974.598
92.884	13.869	1299.653	974.410
93.899	13.967	1298.378	973.947
94.914	13.971	1297.905	973.526
95.928	13.972	1296.989	972.758
96.943	13.869	1295.874	971.234
97.957	13.894	1295.295	970.863
98.972	13.880	1294.518	970.110
99.987	13.878	1292.929	968.822
101.001	13.817	1292.190	967.829
102.016	13.809	1291.212	966.963
103.030	13.864	1290.265	966.489
104.045	13.829	1289.852	965.889
105.060	13.777	1288.583	964.550
106.074	13.774	1286.801	963.115
107.089	13.732	1285.960	962.155
108.103	13.665	1284.381	960.502
109.118	13.751	1283.031	959.908
110.133	13.683	1281.966	958.632
111.147	13.771	1280.691	958.102
112.162	13.788	1279.189	956.989
113.176	13.718	1279.042	956.391
114.191	13.734	1277.698	955.391
115.206	13.816	1276.076	954.570
116.220	13.825	1274.537	953.384
117.235	13.820	1273.431	952.447
118.249	13.809	1272.729	951.772
119.264	13.780	1271.422	950.544
120.279	13.807	1270.427	949.868
121.293	13.759	1269.679	948.951
122.308	13.628	1268.704	947.392
123.322	13.710	1267.510	946.886
124.337	13.664	1266.742	945.964
125.352	13.707	1265.329	945.070
126.366	13.708	1264.293	944.222
127.381	13.678	1263.263	943.195
128.395	13.668	1261.926	942.058
129.410	13.770	1261.216	942.023
130.424	13.766	1260.278	941.214
131.439	13.791	1258.875	940.225
132.454	13.801	1257.998	939.543
133.468	13.868	1257.074	939.151
134.483	13.794	1256.377	938.128
135.497	13.734	1255.562	937.095
136.512	13.757	1254.272	936.183
137.527	13.828	1252.470	935.157
138.541	13.779	1251.020	933.714
139.556	13.770	1250.029	932.838
140.570	13.878	1249.068	932.647
141.585	13.843	1247.720	931.361
142.600	13.957	1246.495	931.002
143.614	13.967	1245.351	930.122
144.629	14.057	1243.968	929.510
145.643	13.997	1243.251	928.558
146.658	13.914	1242.272	927.284
147.673	13.899	1240.625	925.884
148.687	13.929	1239.836	925.382
149.702	13.846	1238.596	923.911
150.716	13.910	1237.196	923.141
151.731	13.877	1236.670	922.484
152.746	13.956	1234.781	921.434
153.760	14.014	1233.267	920.544
154.775	13.969	1232.533	919.666
155.789	13.987	1231.769	919.115
156.804	14.070	1230.520	918.557
157.819	14.091	1229.573	917.887
158.833	14.073	1228.546	916.941
159.848	14.121	1227.384	916.254
160.862	14.052	1226.456	915.100
161.877	14.048	1225.403	914.215
162.892	14.074	1224.139	913.331
163.906	14.071	1223.511	912.763
164.921	14.001	1222.653	911.664
165.935	14.017	1221.800	911.031
166.950	13.977	1221.121	910.228
167.964	14.147	1219.989	910.233
168.979	14.080	1219.616	909.505
169.994	14.049	1219.002	908.797
171.008	14.152	1218.164	908.653
172.023	14.229	1216.972	908.109
173.037	14.166	1216.614	907.418
174.052	14.203	1215.303	906.560
175.067	14.039	1214.889	905.278
176.081	14.164	1213.322	904.710
177.096	14.153	1212.797	904.176
178.110	14.178	1211.225	903.062
179.125	14.175	1210.374	902.328
180.140	14.251	1209.136	901.740
181.154	14.007	1208.491	899.860
182.169	14.313	1206.716	900.111
183.183	14.237	1205.935	899.036
184.198	14.252	1204.555	898.010
185.213	14.281	1203.487	897.292
186.227	14.374	1202.359	896.869
187.242	14.416	1201.324	896.246
188.256	14.372	1200.491	895.307
189.271	14.383	1199.829	894.794
190.286	14.394	1198.505	893.787
191.300	14.188	1197.813	892.088
192.315	14.389	1196.815	892.343
193.329	14.313	1196.380	891.531
194.344	14.362	1195.517	891.070
195.359	14.352	1195.058	890.599
196.373	14.344	1194.425	890.004
197.388	14.403	1194.262	890.121
198.402	14.453	1193.496	889.738
199.417	14.586	1192.499	889.623
200.432	14.608	1191.612	889.002
201.446	14.630	1190.991	888.576
202.461	14.526	1189.859	887.100
203.475	14.575	1189.009	886.650
204.490	14.557	1187.917	885.659
205.504	14.538	1186.817	884.660
206.519	14.501	1185.516	883.416
207.534	14.528	1184.035	882.379
208.548	14.648	1183.546	882.571
209.563	14.615	1182.499	881.538
210.577	14.691	1181.579	881.175
211.592	14.760	1180.761	880.849
212.607	14.748	1179.813	880.003
213.621	14.717	1179.130	879.248
214.636	14.730	1178.329	878.647
215.650	14.668	1177.383	877.538
216.665	14.742	1176.570	877.241
217.680	14.795	1175.753	876.834
218.694	14.773	1174.905	876.007
219.709	14.816	1173.887	875.392
220.723	14.691	1173.257	874.193
221.738	14.779	1172.653	874.126
222.753	14.944	1171.530	874.072
223.767	14.898	1171.018	873.374
224.782	14.914	1170.784	873.206
225.796	15.003	1169.647	872.745
226.811	14.989	1168.840	871.991
227.826	14.960	1168.192	871.281
228.840	14.959	1167.741	870.864
229.855	14.891	1167.250	870.067
230.869	14.902	1166.319	869.353
231.884	14.817	1165.487	868.211
232.899	14.921	1164.717	868.104
233.913	14.761	1164.226	866.827
234.928	14.851	1163.217	866.470
235.942	14.889	1162.389	865.971
236.957	14.920	1161.361	865.288
237.972	14.868	1160.970	864.654
238.986	14.954	1160.393	864.593
240.001	14.920	1159.494	863.668
241.015	15.031	1158.312	863.283
242.030	14.970	1157.759	862.482
243.045	15.038	1156.848	862.076
244.059	15.022	1156.465	861.632
245.074	15.092	1155.322	861.065
246.088	15.149	1154.392	860.588
247.103	15.139	1153.752	859.982
248.117	15.217	1153.177	859.882
249.132	15.234	1152.297	859.233
250.147	15.283	1151.649	858.924
251.161	15.208	1151.254	858.173
252.176	15.272	1150.301	857.713
253.190	15.361	1149.905	857.798
254.205	15.447	1149.037	857.514
255.220	15.444	1148.478	857.005
256.234	15.471	1147.832	856.585
257.249	15.390	1147.302	855.701
258.263	15.510	1146.559	855.683
259.278	15.408	1146.116	854.753
260.293	15.493	1145.669	854.781
261.307	15.564	1144.406	854.125
262.322	15.583	1143.974	853.821
263.336	15.439	1143.783	852.873
264.351	15.716	1142.409	853.175
265.366	15.460	1142.558	851.913
266.380	15.536	1141.655	851.552
267.395	15.604	1140.728	851.126
268.409	15.602	1140.015	850.512
269.424	15.562	1139.476	849.829
270.439	15.617	1138.772	849.508
271.453	15.504	1138.076	848.343
272.468	15.624	1137.006	848.078
273.482	15.560	1136.216	847.091
274.497	15.496	1136.286	846.742
275.512	15.653	1135.316	846.737
276.526	15.602	1134.862	846.067
277.541	15.700	1133.604	845.547
278.555	15.687	1133.128	845.052
279.570	15.694	1132.365	844.444
280.585	15.815	1131.411	844.263
281.599	15.679	1131.016	843.211
282.614	15.827	1129.473	842.727
283.628	15.801	1128.155	841.543
284.643	15.839	1127.660	841.285
285.657	15.976	1126.784	841.243
286.672	15.750	1125.924	839.399
287.687	15.817	1124.948	838.929
288.701	15.818	1124.516	838.542
289.716	15.953	1123.423	838.324
290.730	15.900	1123.001	837.672
291.745	15.964	1122.122	837.259
292.760	15.974	1121.489	836.761
293.774	15.977	1120.716	836.127
294.789	15.937	1120.411	835.623
295.803	15.991	1120.117	835.599
296.818	16.023	1119.163	834.972
297.833	15.972	1118.275	833.984
298.847	16.033	1117.394	833.554
299.862	16.025	1116.424	832.716
300.876	15.939	1116.274	832.106
301.891	16.134	1115.419	832.357
302.906	16.115	1114.811	831.740
303.920	16.104	1114.015	831.016
304.935	16.250	1113.494	831.272
305.949	16.332	1112.246	830.669
306.964	16.198	1112.302	829.982
307.979	16.320	1111.060	829.578
308.993	16.248	1110.501	828.736
310.008	16.245	1109.648	828.013
311.022	16.301	1109.104	827.804
312.037	16.301	1107.886	826.823
313.052	16.248	1106.903	825.756
314.066	16.213	1106.747	825.395
315.081	16.427	1105.087	825.129
316.095	16.350	1104.697	824.391
317.110	16.219	1104.561	823.576
318.125	16.205	1103.729	822.817
319.139	16.280	1102.632	822.293
320.154	16.261	1102.004	821.655
321.168	16.281	1101.280	821.143
322.183	16.237	1100.964	820.619
323.197	16.285	1100.546	820.468
324.212	16.318	1099.764	819.974
325.227	16.270	1098.912	819.032
326.241	16.280	1098.411	818.636
327.256	16.410	1097.589	818.578
328.270	16.308	1096.647	817.310
329.285	16.301	1095.780	816.559
330.300	16.303	1094.939	815.872
331.314	16.293	1094.275	815.252
332.329	16.308	1093.459	814.648
333.343	16.432	1092.229	814.256
334.358	16.525	1091.346	813.971
335.373	16.455	1090.946	813.268
336.387	16.539	1090.181	813.028
337.402	16.471	1089.431	812.071
338.416	16.542	1088.854	811.907
339.431	16.590	1088.138	811.534
340.446	16.554	1087.679	810.947
341.460	16.572	1087.161	810.576
342.475	16.670	1086.197	810.252
343.489	16.705	1085.050	809.495
344.504	16.695	1083.876	808.498
345.519	16.745	1083.243	808.195
346.533	16.787	1082.230	807.566
347.548	16.711	1081.699	806.738
348.562	16.856	1080.915	806.769
349.577	16.837	1079.971	805.903
350.592	16.775	1079.232	804.985
351.606	16.649	1078.967	804.121
352.621	16.740	1078.339	804.014
353.635	16.716	1077.622	803.292
354.650	16.720	1076.917	802.717
355.665	16.732	1076.217	802.179
356.679	16.771	1075.448	801.717
357.694	16.823	1075.163	801.683
358.708	16.921	1074.122	801.298
359.723	16.958	1073.344	800.824
360.738	16.953	1072.852	800.358
361.752	17.053	1072.251	800.312
362.767	16.852	1071.962	799.079
363.781	16.860	1071.575	798.755
364.796	16.922	1070.815	798.412
365.810	17.077	1069.876	798.371
366.825	16.999	1069.534	797.678
367.840	17.139	1068.791	797.712
368.854	17.240	1068.092	797.593
369.869	17.068	1067.477	796.254
370.883	17.159	1066.960	796.228
371.898	17.104	1065.795	795.029
372.913	17.122	1065.642	794.926
373.927	17.199	1064.767	794.564
374.942	17.219	1064.434	794.342
375.956	17.326	1063.649	794.183
376.971	17.231	1063.180	793.318
377.986	17.226	1062.297	792.568
379.000	17.317	1062.019	792.714
380.015	17.301	1061.590	792.248
381.029	17.370	1060.916	791.997
382.044	17.383	1060.212	791.462
383.059	17.388	1059.716	791.044
384.073	17.391	1058.742	790.263
385.088	17.386	1057.873	789.519
386.102	17.379	1057.259	788.958
387.117	17.392	1055.798	787.859
388.132	17.324	1055.273	787.084
389.146	17.267	1054.744	786.357
390.161	17.391	1053.961	786.274
391.175	17.467	1052.778	785.676
392.190	17.353	1052.403	784.801
393.205	17.413	1051.279	784.167
394.219	17.484	1050.606	783.923
395.234	17.493	1050.006	783.446
396.248	17.436	1048.952	782.330
397.263	17.476	1047.885	781.649
398.278	17.499	1047.475	781.378
399.292	17.461	1046.619	780.499
400.307	17.513	1045.714	779.991
401.321	17.552	1045.381	779.852
402.336	17.491	1044.806	779.074
403.350	17.455	1044.232	778.416
404.365	17.515	1043.294	777.918
405.380	17.578	1042.602	777.622
406.394	17.547	1041.843	776.847
407.409	17.487	1041.326	776.117
408.423	17.636	1040.611	776.195
409.438	17.658	1039.841	775.652
410.453	17.663	1039.456	775.321
411.467	17.816	1038.418	775.171
412.482	17.667	1037.859	774.012
413.496	17.802	1036.817	773.778
414.511	17.831	1036.439	773.558
415.526	17.826	1036.040	773.168
416.540	17.942	1035.487	773.211
417.555	17.799	1034.986	772.124
418.569	17.871	1034.428	771.964
419.584	17.992	1033.613	771.836
420.599	17.982	1033.647	771.748
421.613	109.094	1327.220	1487.475
422.628	100.029	1369.945	1487.564
