DTS Sentinel unit serial number:	SN413079Multiplexer serial number:	ORYXHardware model number:	OX4-SRSoftware version number:	ORYX F/W v4.00 Oryx Data Collector v3.7.2.0data status	okinstallation	princeton_trtdifferential loss correction	single-endedforward channel	channel 2reverse channel	N/Adate	2019/09/14time	20:51:35forward acquisition time	60.00reverse acquisition time	0.00gamma	496.2192k internal	0.2323k external	0.2323temperature offset calibration	1.0083default loss term (dB/km)	0.3790temperature slope calibration	1.0000multiplexer offset coefficient	1.0000multiplexer slope coefficient	1.0000fibre end	0.00T internal ref (°C)	33.25T ext. ref 1 (°C)	4.80T ext. ref 2 (°C)	27.95length (m)	temperature (°C)	Stokes	anti-Stokes-747.200	-39.341	0.251	-0.133
-746.185	800.000	-0.111	0.434
-745.171	-200.000	0.058	-0.333
-744.156	-200.000	0.003	0.280
-743.142	134.969	0.261	-0.342
-742.127	50.101	-0.297	0.283
-741.112	172.949	0.165	0.240
-740.098	72.282	-0.138	-0.145
-739.083	-200.000	-0.016	-0.401
-738.069	-119.724	-0.055	-0.010
-737.054	-200.000	-0.033	-0.250
-736.039	-200.000	0.013	-0.351
-735.025	62.041	0.223	0.225
-734.010	800.000	0.021	-0.085
-732.996	-108.564	-0.104	-0.022
-731.981	-113.962	-0.301	-0.059
-730.966	-23.798	0.158	-0.095
-729.952	-139.124	0.202	-0.022
-728.937	93.457	0.026	-0.030
-727.923	122.805	-0.283	-0.357
-726.908	800.000	0.065	-0.207
-725.894	-200.000	-0.010	-0.175
-724.879	800.000	0.052	-0.217
-723.864	-5.737	0.086	-0.060
-722.850	481.640	-0.109	-0.249
-721.835	-116.108	-0.327	0.061
-720.821	286.651	0.049	-0.090
-719.806	-121.350	-0.190	-0.032
-718.791	104.752	0.224	0.267
-717.777	-58.516	-0.050	0.022
-716.762	26.350	-0.328	-0.277
-715.748	3.476	-0.278	-0.204
-714.733	-13.465	0.051	-0.034
-713.718	800.000	0.078	0.312
-712.704	23.415	-0.271	0.225
-711.689	-200.000	-0.013	0.090
-710.675	-48.017	-0.143	0.070
-709.660	113.314	0.106	0.130
-708.645	-200.000	0.022	0.116
-707.631	-200.000	-0.043	-0.247
-706.616	-125.264	-0.111	0.017
-705.602	-152.989	-0.378	0.027
-704.587	466.762	0.133	-0.301
-703.572	-55.157	0.280	-0.127
-702.558	23.292	0.116	-0.096
-701.543	-5.855	-0.243	0.168
-700.529	-200.000	-0.014	0.100
-699.514	-145.055	0.202	0.019
-698.499	370.965	-0.158	-0.322
-697.485	635.829	-0.067	-0.170
-696.470	800.000	-0.056	-0.209
-695.456	-200.000	-0.061	0.324
-694.441	566.455	0.086	-0.211
-693.426	800.000	-0.020	0.067
-692.412	800.000	0.074	0.259
-691.397	-65.008	0.185	0.075
-690.383	42.538	-0.234	-0.215
-689.368	226.457	-0.094	0.153
-688.354	455.494	-0.068	-0.153
-687.339	53.017	-0.112	-0.108
-686.324	82.832	-0.208	-0.228
-685.310	259.732	-0.158	-0.274
-684.295	-200.000	-0.035	-0.173
-683.281	240.380	-0.200	0.335
-682.266	91.254	0.216	-0.245
-681.251	226.373	-0.080	0.131
-680.237	344.368	0.160	0.317
-679.222	-200.000	0.012	-0.089
-678.208	-77.615	-0.366	-0.128
-677.193	-109.958	-0.369	0.078
-676.178	-117.357	0.160	-0.029
-675.164	-200.000	-0.030	-0.494
-674.149	-190.396	0.116	-0.001
-673.135	-172.784	-0.173	-0.005
-672.120	47.212	0.031	0.029
-671.105	-54.580	-0.206	-0.094
-670.091	98.160	0.261	-0.303
-669.076	800.000	0.115	-0.339
-668.062	-18.024	-0.068	0.043
-667.047	800.000	-0.015	-0.043
-666.032	-62.962	-0.280	0.116
-665.018	-23.605	0.136	-0.082
-664.003	-200.000	-0.015	-0.175
-662.989	131.844	-0.181	0.235
-661.974	-200.000	-0.009	-0.051
-660.959	-114.869	-0.357	-0.069
-659.945	-175.156	-0.343	0.010
-658.930	-86.321	0.324	-0.100
-657.916	-113.455	0.265	-0.052
-656.901	-50.547	-0.111	-0.053
-655.886	548.006	0.094	-0.227
-654.872	-80.336	-0.310	-0.104
-653.857	468.344	0.131	-0.295
-652.843	96.482	-0.185	-0.213
-651.828	87.358	-0.063	-0.070
-650.814	-148.053	0.259	-0.022
-649.799	-97.493	0.291	0.076
-648.784	97.424	0.196	0.227
-647.770	-50.627	0.153	-0.072
-646.755	30.858	0.091	-0.078
-645.741	-60.088	-0.141	0.061
-644.726	-20.264	-0.107	0.067
-643.711	-200.000	0.017	-0.166
-642.697	-35.191	0.331	0.181
-641.682	-200.000	-0.026	-0.185
-640.668	136.177	-0.400	-0.524
-639.653	-141.028	-0.173	0.018
-638.638	251.292	-0.155	0.266
-637.624	-56.558	0.157	0.070
-636.609	-28.313	0.124	-0.072
-635.595	68.241	0.287	-0.296
-634.580	-200.000	-0.001	-0.217
-633.565	-60.407	0.170	-0.072
-632.551	299.625	0.149	0.276
-631.536	-48.723	-0.271	0.131
-630.522	32.962	0.147	-0.128
-629.507	-89.191	-0.322	0.095
-628.492	185.193	-0.038	0.056
-627.478	625.102	-0.130	-0.330
-626.463	113.851	0.108	-0.132
-625.449	-135.921	0.059	0.007
-624.434	-1.505	-0.113	0.080
-623.419	800.000	-0.064	-0.226
-622.405	-200.000	0.526	0.000
-621.390	-141.152	0.277	0.028
-620.376	800.000	-0.059	0.236
-619.361	216.661	-0.184	-0.294
-618.346	119.384	-0.052	0.065
-617.332	-10.143	-0.035	-0.023
-616.317	-102.092	0.176	-0.043
-615.303	9.368	-0.327	-0.248
-614.288	138.646	0.146	-0.193
-613.273	-163.323	-0.144	-0.007
-612.259	-200.000	0.028	-0.470
-611.244	-200.000	0.012	0.120
-610.230	37.418	-0.235	0.210
-609.215	3.341	0.233	-0.171
-608.201	555.719	-0.024	0.058
-607.186	-160.516	0.242	-0.013
-606.171	-54.247	-0.102	0.046
-605.157	-68.090	-0.319	0.125
-604.142	-162.026	0.250	0.013
-603.128	800.000	0.157	-0.607
-602.113	285.212	-0.050	-0.091
-601.098	-107.399	-0.370	0.082
-600.084	800.000	-0.087	-0.248
-599.069	-110.148	-0.221	0.046
-598.055	-91.966	-0.168	-0.048
-597.040	800.000	0.053	0.163
-596.025	564.145	-0.119	0.289
-595.011	147.973	0.047	-0.064
-593.996	800.000	0.072	0.258
-592.982	-200.000	0.029	-0.252
-591.967	-109.558	-0.292	0.062
-590.952	88.149	0.353	-0.393
-589.938	-74.134	-0.428	-0.155
-588.923	184.973	0.125	0.186
-587.909	-18.992	-0.143	0.089
-586.894	-200.000	-0.001	-0.055
-585.879	-105.396	0.143	0.033
-584.865	-49.223	0.441	-0.211
-583.850	-200.000	-0.006	-0.089
-582.836	29.154	0.058	-0.049
-581.821	-45.786	0.108	-0.054
-580.806	84.055	-0.119	-0.130
-579.792	-30.032	0.168	0.096
-578.777	-82.989	0.185	-0.060
-577.763	-35.599	-0.155	-0.085
-576.748	390.116	0.016	0.033
-575.733	228.337	-0.139	-0.226
-574.719	293.941	-0.025	0.047
-573.704	-84.433	0.118	0.037
-572.690	-200.000	-0.056	0.369
-571.675	-200.000	0.022	0.245
-570.661	104.513	-0.235	0.277
-569.646	312.964	0.169	-0.319
-568.631	800.000	-0.053	-0.173
-567.617	-200.000	0.000	0.146
-566.602	-52.539	0.261	-0.121
-565.588	327.635	-0.181	0.349
-564.573	465.594	-0.069	0.154
-563.558	-99.653	0.215	-0.054
-562.544	259.058	-0.140	-0.242
-561.529	245.653	0.182	-0.307
-560.515	-95.533	-0.127	-0.034
-559.500	13.342	-0.139	-0.108
-558.485	-31.218	0.243	0.137
-557.471	57.666	0.066	-0.065
-556.456	471.555	-0.148	-0.335
-555.442	-50.724	-0.050	-0.024
-554.427	-35.000	0.153	0.084
-553.412	48.152	-0.237	-0.222
-552.398	296.764	-0.173	0.318
-551.383	800.000	0.069	0.276
-550.369	107.138	0.083	-0.099
-549.354	-24.821	0.103	-0.061
-548.339	-200.000	0.024	-0.130
-547.325	343.317	0.139	-0.274
-546.310	-200.000	-0.011	-0.146
-545.296	-28.411	-0.287	0.166
-544.281	161.507	0.134	0.187
-543.266	16.940	-0.376	0.298
-542.252	-200.000	-0.021	0.214
-541.237	-136.424	-0.102	-0.012
-540.223	28.379	0.356	-0.302
-539.208	335.579	-0.080	0.155
-538.193	800.000	0.055	-0.221
-537.179	97.512	-0.348	-0.401
-536.164	-162.005	-0.072	0.004
-535.150	74.371	-0.282	-0.297
-534.135	-200.000	-0.048	0.222
-533.121	355.621	-0.202	0.403
-532.106	34.300	-0.242	0.212
-531.091	-10.967	-0.236	-0.156
-530.077	-53.230	0.096	-0.044
-529.062	-72.088	-0.088	-0.033
-528.048	-28.420	0.018	-0.010
-527.033	549.790	0.148	0.355
-526.018	-86.472	-0.339	-0.104
-525.004	-67.790	-0.144	0.056
-523.989	282.242	-0.047	0.084
-522.975	-73.966	-0.353	-0.128
-521.960	-15.528	-0.221	-0.141
-520.945	303.445	0.066	0.123
-519.931	161.879	0.146	0.204
-518.916	-69.178	0.247	0.095
-517.902	-26.009	-0.477	0.281
-516.887	173.936	-0.116	0.168
-515.872	-200.000	-0.002	-0.114
-514.858	800.000	-0.023	0.073
-513.843	17.834	0.123	0.098
-512.829	-150.650	0.036	-0.003
-511.814	-41.788	0.191	-0.098
-510.799	-39.244	0.110	-0.058
-509.785	-105.800	-0.180	-0.041
-508.770	-150.851	-0.238	-0.018
-507.756	-200.000	-0.041	0.243
-506.741	159.967	-0.093	-0.129
-505.726	518.431	-0.140	-0.327
-504.712	329.316	0.037	0.070
-503.697	-200.000	-0.014	-0.064
-502.683	800.000	0.078	0.233
-501.668	800.000	-0.055	0.217
-500.653	800.000	0.096	-0.348
-499.639	-78.878	-0.021	-0.007
-498.624	-200.000	0.003	0.260
-497.610	-94.462	-0.230	0.063
-496.595	319.090	-0.011	0.021
-495.581	443.867	0.130	0.285
-494.566	-91.222	0.110	-0.032
-493.551	790.347	-0.112	-0.306
-492.537	300.136	0.046	-0.085
-491.522	-200.000	0.019	-0.163
-490.508	800.000	0.036	0.127
-489.493	-31.333	0.203	0.114
-488.478	-200.000	0.017	-0.262
-487.464	-21.776	-0.300	0.183
-486.449	106.982	0.186	0.221
-485.435	-63.263	-0.226	-0.093
-484.420	-104.610	-0.284	-0.066
-483.405	-200.000	-0.004	-0.139
-482.391	15.775	0.420	0.330
-481.376	-31.150	0.094	-0.053
-480.362	-200.000	0.086	-0.562
-479.347	-168.747	0.296	0.011
-478.332	26.376	-0.169	-0.142
-477.318	88.248	-0.150	0.167
-476.303	800.000	-0.109	-0.392
-475.289	541.013	-0.097	-0.231
-474.274	693.634	0.067	0.177
-473.259	-64.937	0.120	-0.048
-472.245	23.325	-0.194	0.159
-471.230	800.000	-0.067	0.230
-470.216	-57.328	0.181	-0.079
-469.201	-24.638	-0.334	0.199
-468.186	-200.000	-0.009	0.342
-467.172	267.343	0.114	0.200
-466.157	-62.873	0.324	0.134
-465.143	-96.797	-0.386	-0.101
-464.128	-200.000	0.009	-0.216
-463.113	-20.655	-0.282	0.173
-462.099	-200.000	-0.022	0.298
-461.084	113.044	0.236	-0.286
-460.070	-99.592	0.234	-0.059
-459.055	60.565	0.153	0.151
-458.040	-63.248	0.071	-0.029
-457.026	-22.297	0.367	0.222
-456.011	-68.896	0.433	-0.167
-454.997	50.720	-0.182	-0.172
-453.982	111.412	0.020	-0.024
-452.968	-2.202	-0.158	0.111
-451.953	10.316	0.152	-0.115
-450.938	800.000	-0.084	-0.318
-449.924	36.975	-0.141	0.125
-448.909	800.000	-0.032	-0.120
-447.895	584.850	0.094	-0.230
-446.880	-120.511	0.364	-0.062
-445.865	-112.198	-0.335	0.067
-444.851	46.317	0.179	-0.165
-443.836	-83.611	-0.115	-0.037
-442.822	-39.041	0.110	0.058
-441.807	-106.005	-0.059	-0.013
-440.792	800.000	-0.079	0.253
-439.778	280.540	0.132	-0.235
-438.763	-22.718	-0.374	0.225
-437.749	-200.000	0.022	0.172
-436.734	800.000	0.025	-0.077
-435.719	-2.638	-0.152	-0.106
-434.705	-200.000	-0.013	0.139
-433.690	-200.000	0.035	-0.166
-432.676	428.090	-0.144	0.311
-431.661	-50.421	-0.067	-0.031
-430.646	36.452	0.361	-0.318
-429.632	71.163	-0.184	0.190
-428.617	253.928	0.092	0.156
-427.603	-200.000	-0.030	0.135
-426.588	-8.123	0.150	0.101
-425.573	637.586	0.079	0.201
-424.559	-93.915	0.140	-0.039
-423.544	-126.081	-0.103	0.015
-422.530	-170.373	-0.189	-0.007
-421.515	800.000	-0.064	-0.196
-420.500	-23.656	-0.068	0.040
-419.486	640.969	-0.148	-0.375
-418.471	-91.774	0.333	0.094
-417.457	-12.302	-0.156	0.102
-416.442	-22.404	-0.055	-0.033
-415.428	4.028	-0.244	0.178
-414.413	-41.870	-0.287	0.147
-413.398	800.000	-0.088	0.295
-412.384	-192.360	-0.183	-0.002
-411.369	-35.632	0.131	-0.071
-410.355	242.777	-0.189	-0.316
-409.340	800.000	-0.045	-0.145
-408.325	54.653	0.122	0.118
-407.311	55.320	0.160	-0.155
-406.296	260.449	0.021	0.036
-405.282	-78.218	0.061	0.021
-404.267	88.647	0.275	-0.305
-403.252	1.343	0.186	0.133
-402.238	76.948	0.145	0.154
-401.223	-200.000	0.011	0.093
-400.209	382.020	-0.045	-0.093
-399.194	-200.000	-0.001	-0.059
-398.179	35.363	0.031	0.027
-397.165	150.473	0.210	-0.284
-396.150	800.000	0.060	-0.199
-395.136	800.000	0.013	0.041
-394.121	-83.987	0.171	0.054
-393.106	-100.374	0.204	-0.050
-392.092	-67.816	-0.226	-0.088
-391.077	20.339	0.256	0.206
-390.063	-200.000	-0.004	-0.178
-389.048	-115.756	-0.249	0.046
-388.033	-104.917	-0.209	-0.048
-387.019	24.309	0.295	-0.243
-386.004	-91.109	0.047	0.013
-384.990	-117.809	0.340	0.061
-383.975	296.833	-0.039	-0.071
-382.960	-40.760	0.103	0.053
-381.946	-200.000	0.010	0.184
-380.931	106.182	0.217	-0.256
-379.917	-69.850	0.117	-0.044
-378.902	-172.582	-0.358	-0.011
-377.888	-110.441	-0.193	-0.040
-376.873	800.000	0.074	0.247
-375.858	572.672	-0.155	-0.377
-374.844	-200.000	-0.020	-0.146
-373.829	69.938	0.187	0.193
-372.815	618.967	-0.089	-0.223
-371.800	-200.000	0.045	-0.217
-370.785	525.110	-0.054	-0.126
-369.771	-200.000	-0.018	0.404
-368.756	-39.218	0.507	0.265
-367.742	25.214	0.203	-0.168
-366.727	-43.680	0.090	0.045
-365.712	-200.000	0.015	-0.175
-364.698	-113.581	-0.196	0.038
-363.683	-200.000	-0.008	0.157
-362.669	-161.801	-0.055	-0.003
-361.654	310.294	-0.113	-0.210
-360.639	-20.267	-0.441	0.270
-359.625	-200.000	0.058	-0.268
-358.610	800.000	0.025	-0.099
-357.596	-166.014	-0.229	-0.010
-356.581	-200.000	0.039	0.208
-355.566	-89.936	-0.329	-0.095
-354.552	549.882	-0.112	-0.266
-353.537	123.984	0.130	0.162
-352.523	-0.273	-0.220	-0.155
-351.508	64.342	0.175	0.175
-350.493	744.125	-0.057	-0.151
-349.479	-200.000	0.011	-0.183
-348.464	-101.006	0.218	0.053
-347.450	-54.382	-0.141	-0.064
-346.435	-200.000	-0.008	0.274
-345.420	-19.145	-0.090	0.055
-344.406	39.366	0.025	0.022
-343.391	-200.000	-0.035	-0.351
-342.377	-79.060	-0.133	0.045
-341.362	-200.000	-0.003	0.287
-340.348	-200.000	0.005	0.131
-339.333	-104.341	-0.304	0.070
-338.318	-7.124	0.270	0.182
-337.304	800.000	-0.042	0.165
-336.289	70.518	-0.193	-0.198
-335.275	194.944	0.050	-0.075
-334.260	689.975	0.077	-0.201
-333.245	159.945	-0.192	-0.265
-332.231	388.435	0.131	0.269
-331.216	800.000	-0.110	0.392
-330.202	113.268	0.080	0.096
-329.187	-37.847	0.116	-0.062
-328.172	-95.991	-0.206	-0.054
-327.158	42.574	0.116	0.105
-326.143	70.469	-0.175	-0.180
-325.129	172.646	-0.175	-0.251
-324.114	296.857	0.054	0.099
-323.099	-37.205	-0.027	0.014
-322.085	-14.718	0.134	0.085
-321.070	-200.000	-0.007	-0.078
-320.056	268.238	0.061	0.106
-319.041	-159.584	-0.265	0.015
-318.026	-83.359	-0.167	0.053
-317.012	139.375	0.029	0.038
-315.997	654.251	-0.122	0.311
-314.983	157.688	-0.109	0.150
-313.968	-18.160	0.220	0.137
-312.953	-188.989	-0.119	-0.001
-311.939	-114.845	0.117	-0.022
-310.924	-116.216	-0.224	-0.041
-309.910	91.516	-0.153	0.171
-308.895	361.832	-0.115	-0.229
-307.880	-130.866	0.614	0.082
-306.866	-145.591	0.343	-0.031
-305.851	-13.731	-0.174	0.111
-304.837	-200.000	0.060	0.303
-303.822	560.687	0.082	0.196
-302.807	32.822	0.064	-0.055
-301.793	-79.625	0.250	-0.084
-300.778	-13.011	0.220	0.142
-299.764	-52.820	0.251	0.115
-298.749	-9.325	-0.381	0.252
-297.735	-93.480	-0.089	0.025
-296.720	-80.348	0.117	0.039
-295.705	-31.514	0.155	-0.087
-294.691	241.850	-0.049	0.082
-293.676	-35.978	-0.217	0.116
-292.662	-144.776	0.327	-0.030
-291.647	-160.567	-0.099	0.005
-290.632	120.551	0.098	0.120
-289.618	-84.444	-0.306	0.096
-288.603	-122.025	0.215	0.035
-287.589	53.517	0.270	-0.257
-286.574	-7.636	0.214	0.143
-285.559	-146.314	-0.129	-0.011
-284.545	44.623	-0.054	-0.049
-283.530	-78.731	0.238	0.080
-282.516	446.580	-0.130	0.283
-281.501	800.000	0.126	-0.485
-280.486	-200.000	0.074	0.404
-279.472	-118.024	0.120	-0.021
-278.457	697.351	0.041	-0.106
-277.443	-200.000	-0.002	-0.302
-276.428	-67.541	0.133	0.052
-275.413	164.904	0.125	0.175
-274.399	-149.616	0.122	0.010
-273.384	-88.148	-0.262	-0.078
-272.370	276.539	-0.087	-0.154
-271.355	12.797	0.153	-0.117
-270.340	599.081	-0.104	-0.255
-269.326	693.647	-0.105	-0.274
-268.311	63.493	0.137	-0.137
-267.297	-180.236	0.162	-0.003
-266.282	-97.789	-0.201	-0.052
-265.267	-41.875	-0.164	0.083
-264.253	35.504	0.040	-0.035
-263.238	-63.080	-0.442	-0.181
-262.224	-200.000	-0.032	0.260
-261.209	-200.000	0.001	-0.348
-260.195	-147.300	0.110	0.009
-259.180	-134.154	-0.294	0.036
-258.165	-177.762	0.506	-0.012
-257.151	-22.906	-0.115	-0.069
-256.136	62.734	0.096	-0.095
-255.122	-200.000	0.017	0.179
-254.107	-152.777	-0.273	0.019
-253.092	217.613	0.165	0.261
-252.078	-200.000	0.008	-0.110
-251.063	-156.877	-0.325	0.020
-250.049	480.433	-0.066	0.149
-249.034	706.256	-0.118	0.310
-248.019	-56.517	-0.193	0.085
-247.005	-200.000	-0.082	-0.363
-245.990	306.017	0.030	0.055
-244.976	-57.793	0.034	-0.015
-243.961	149.598	0.184	0.248
-242.946	-70.307	-0.142	0.053
-241.932	-200.000	0.035	0.181
-240.917	-74.943	0.248	0.088
-239.903	45.165	0.098	-0.090
-238.888	186.282	0.187	-0.275
-237.873	-200.000	-0.000	0.189
-236.859	54.121	0.046	-0.044
-235.844	-105.598	-0.190	0.043
-234.830	81.393	-0.033	0.036
-233.815	-51.946	-0.261	-0.120
-232.800	559.303	0.143	-0.342
-231.786	-127.587	0.228	0.033
-230.771	-81.525	0.113	0.037
-229.757	-200.000	0.009	-0.305
-228.742	-124.558	0.109	0.017
-227.727	106.458	-0.208	-0.244
-226.713	108.863	-0.167	0.197
-225.698	-26.004	-0.227	-0.132
-224.684	-29.650	-0.244	0.138
-223.669	354.029	0.131	0.258
-222.655	511.696	0.032	0.073
-221.640	-200.000	-0.017	-0.139
-220.625	-139.042	0.188	-0.020
-219.611	-200.000	-0.032	0.344
-218.596	-138.881	-0.256	-0.028
-217.582	-49.942	0.181	0.085
-216.567	-90.386	0.214	0.061
-215.552	-24.678	-0.178	-0.105
-214.538	-122.455	-0.223	0.036
-213.523	-141.922	-0.163	0.016
-212.509	19.454	0.093	-0.074
-211.494	800.000	0.085	-0.331
-210.479	9.919	0.186	-0.140
-209.465	800.000	0.025	0.081
-208.450	214.953	-0.016	0.026
-207.436	279.497	0.135	0.239
-206.421	-23.787	0.184	0.109
-205.406	345.486	0.134	0.260
-204.392	52.024	-0.111	0.104
-203.377	86.425	-0.202	0.221
-202.363	-200.000	-0.059	-0.299
-201.348	-200.000	0.021	0.101
-200.333	-169.908	-0.179	-0.006
-199.319	-200.000	0.039	-0.243
-198.304	-85.344	-0.412	-0.127
-197.290	73.102	0.121	-0.125
-196.275	-50.719	-0.088	0.041
-195.260	-98.768	0.198	-0.050
-194.246	608.588	-0.063	0.156
-193.231	-200.000	0.027	0.289
-192.217	-112.774	0.300	-0.059
-191.202	-118.166	-0.191	0.034
-190.187	-98.753	-0.433	-0.109
-189.173	161.856	0.056	-0.077
-188.158	-200.000	0.043	-0.205
-187.144	-178.427	0.352	-0.008
-186.129	728.327	0.134	0.353
-185.114	639.377	-0.011	0.027
-184.100	160.325	0.157	-0.216
-183.085	369.176	0.120	0.240
-182.071	-33.896	0.091	0.049
-181.056	-81.121	0.206	-0.067
-180.042	-31.541	-0.157	-0.087
-179.027	-19.887	-0.092	0.056
-178.012	161.393	0.137	-0.190
-176.998	-41.352	-0.222	-0.113
-175.983	-1.873	0.245	0.170
-174.969	-200.000	-0.035	-0.248
-173.954	-200.000	0.003	0.058
-172.939	800.000	0.023	0.080
-171.925	800.000	-0.043	0.121
-170.910	800.000	0.080	0.310
-169.896	800.000	0.031	0.088
-168.881	-49.161	0.209	0.099
-167.866	180.955	-0.063	-0.092
-166.852	800.000	-0.063	0.196
-165.837	257.199	-0.068	0.115
-164.823	144.573	-0.120	0.158
-163.808	-200.000	-0.001	0.044
-162.793	407.434	0.040	0.084
-161.779	-142.749	0.135	0.013
-160.764	-200.000	0.031	-0.232
-159.750	122.310	0.121	0.150
-158.735	3.486	0.461	0.331
-157.720	84.777	0.118	0.128
-156.706	-100.671	0.212	-0.052
-155.691	-67.690	-0.043	0.017
-154.677	800.000	0.058	-0.232
-153.662	800.000	0.042	-0.168
-152.647	-200.000	0.019	0.107
-151.633	376.191	0.110	0.222
-150.618	34.997	0.063	0.055
-149.604	174.258	0.128	0.182
-148.589	800.000	-0.049	0.196
-147.574	-146.271	-0.374	0.032
-146.560	-5.369	0.161	-0.109
-145.545	-200.000	-0.005	-0.146
-144.531	-101.198	0.230	-0.055
-143.516	-192.450	-0.366	-0.003
-142.502	294.190	-0.101	-0.182
-141.487	19.818	0.056	-0.045
-140.472	241.425	-0.042	-0.070
-139.458	-99.516	0.009	0.002
-138.443	-50.646	-0.654	-0.304
-137.429	-98.106	0.161	-0.041
-136.414	30.580	0.035	0.030
-135.399	800.000	0.027	0.093
-134.385	-64.655	0.375	-0.150
-133.370	-1.091	-0.291	0.203
-132.356	278.953	0.043	-0.076
-131.341	800.000	0.079	-0.253
-130.326	250.957	0.147	-0.247
-129.312	-176.509	0.296	-0.008
-128.297	486.064	0.120	0.271
-127.283	-158.303	-0.204	-0.012
-126.268	792.886	0.010	-0.028
-125.253	-72.453	0.214	-0.078
-124.239	-27.656	-0.382	0.219
-123.224	125.990	0.177	0.220
-122.210	-5.041	0.282	-0.191
-121.195	68.932	0.169	-0.171
-120.180	-30.532	-0.108	0.060
-119.166	450.699	-0.117	0.254
-118.151	800.000	0.092	-0.316
-117.137	-70.949	0.117	0.043
-116.122	96.050	-0.021	0.024
-115.107	75.190	0.132	0.137
-114.093	-151.664	0.279	0.020
-113.078	173.511	0.037	0.052
-112.064	-124.831	0.282	0.043
-111.049	-200.000	0.006	-0.085
-110.034	-139.998	0.035	-0.004
-109.020	143.791	-0.070	-0.092
-108.005	87.753	0.096	-0.105
-106.991	-10.871	-0.407	0.265
-105.976	464.228	-0.065	0.143
-104.962	34.737	-0.158	0.136
-103.947	245.094	0.138	0.229
-102.932	800.000	0.038	-0.124
-101.918	800.000	-0.043	0.151
-100.903	-200.000	0.026	-0.175
-99.889	-40.868	-0.151	-0.077
-98.874	-200.000	0.005	-0.147
-97.859	800.000	0.045	0.157
-96.845	-127.037	0.066	0.010
-95.830	143.026	0.106	-0.139
-94.816	87.818	0.035	0.039
-93.801	-200.000	0.013	-0.133
-92.786	800.000	0.073	-0.209
-91.772	800.000	0.052	-0.205
-90.757	213.976	-0.232	-0.361
-89.743	800.000	-0.041	0.162
-88.728	800.000	0.093	-0.376
-87.713	-200.000	0.004	-0.149
-86.699	-74.623	0.210	-0.074
-85.684	84.767	0.082	-0.088
-84.670	-78.102	0.231	0.078
-83.655	294.774	0.133	-0.239
-82.640	128.462	0.144	0.180
-81.626	-200.000	0.006	0.233
-80.611	39.306	-0.184	-0.162
-79.597	-162.624	-0.446	-0.022
-78.582	-24.263	-0.105	0.061
-77.567	174.185	0.122	0.174
-76.553	-32.115	-0.161	0.089
-75.538	-92.310	-0.141	-0.039
-74.524	177.212	0.170	0.244
-73.509	276.758	-0.194	-0.340
-72.494	-200.000	-0.029	0.141
-71.480	-200.000	0.007	-0.064
-70.465	-20.735	-0.052	-0.031
-69.451	-30.559	0.143	0.080
-68.436	800.000	0.084	-0.271
-67.422	12.646	-0.152	0.115
-66.407	8.403	-0.306	-0.227
-65.392	-101.787	0.138	-0.033
-64.378	189.956	-0.095	-0.141
-63.363	-129.122	-0.217	0.030
-62.349	-141.355	-0.169	-0.017
-61.334	19.079	-1.066	-0.841
-60.319	458.381	0.213	0.467
-59.305	593.821	-0.401	-0.974
-58.290	78.512	0.821	0.863
-57.276	478.700	0.610	1.359
-56.261	-200.000	95.029	563.148
-55.246	631.872	1381.093	3438.386
-54.232	195.824	2567.867	3839.576
-53.217	112.472	2273.858	2704.773
-52.203	42.590	1897.069	1697.242
-51.188	36.596	1687.727	1464.667
-50.173	33.880	1642.869	1405.619
-49.159	51.675	1688.489	1578.331
-48.144	53.253	1705.288	1605.783
-47.130	36.097	1665.954	1441.806
-46.115	33.398	1651.586	1409.264
-45.100	33.265	1646.478	1403.868
-44.086	33.185	1643.703	1400.847
-43.071	33.137	1641.238	1398.340
-42.057	33.183	1638.254	1396.084
-41.042	33.121	1636.581	1394.139
-40.027	33.087	1634.719	1392.253
-39.013	33.130	1632.518	1390.633
-37.998	33.107	1631.475	1389.521
-36.984	33.110	1630.305	1388.491
-35.969	33.293	1628.604	1388.330
-34.954	33.263	1626.688	1386.426
-33.940	33.243	1625.039	1384.816
-32.925	33.258	1623.651	1383.693
-31.911	33.213	1621.852	1381.776
-30.896	33.276	1619.766	1380.401
-29.881	33.191	1618.291	1378.470
-28.867	33.228	1616.477	1377.137
-27.852	33.308	1614.907	1376.331
-26.838	33.267	1613.660	1374.913
-25.823	33.321	1611.891	1373.746
-24.809	33.224	1610.757	1372.021
-23.794	33.207	1609.347	1370.637
-22.779	33.267	1608.304	1370.134
-21.765	33.288	1606.398	1368.608
-20.750	33.255	1604.868	1367.012
-19.736	33.352	1603.489	1366.484
-18.721	33.366	1601.883	1365.155
-17.706	33.288	1600.207	1363.114
-16.692	33.254	1599.111	1361.881
-15.677	33.268	1597.729	1360.755
-14.663	33.256	1596.501	1359.564
-13.648	33.286	1594.679	1358.177
-12.633	33.273	1593.170	1356.740
-11.619	33.229	1591.934	1355.322
-10.604	33.283	1590.344	1354.299
-9.590	33.375	1588.758	1353.554
-8.575	33.248	1587.783	1351.762
-7.560	33.245	1586.647	1350.721
-6.546	33.238	1585.454	1349.602
-5.531	33.345	1583.728	1348.841
-4.517	33.326	1582.941	1347.980
-3.502	33.285	1582.084	1346.905
-2.487	33.484	1579.687	1346.228
-1.473	33.022	1568.692	1333.541
-0.458	30.135	1548.999	1296.588
0.556	26.717	1549.054	1264.090
1.571	24.215	1571.661	1264.692
2.586	23.611	1584.789	1270.820
3.600	20.986	1531.127	1209.495
4.615	12.708	1423.170	1070.521
5.629	5.912	1359.372	980.118
6.644	4.930	1351.190	968.036
7.659	4.778	1350.129	966.246
8.673	4.708	1349.119	965.006
9.688	4.804	1347.432	964.303
10.702	4.689	1344.478	961.397
11.717	7.770	1350.334	984.594
12.731	15.360	1364.059	1041.821
13.746	20.091	1371.498	1076.880
14.761	19.752	1369.634	1073.219
15.775	18.652	1367.254	1064.441
16.790	17.660	1363.915	1055.606
17.804	16.776	1362.281	1048.779
18.819	16.499	1360.265	1045.422
19.834	16.186	1359.033	1042.445
20.848	16.041	1357.734	1040.464
21.863	15.910	1356.514	1038.629
22.877	15.653	1355.782	1036.393
23.892	15.666	1354.325	1035.264
24.907	15.662	1353.479	1034.504
25.921	15.623	1353.124	1033.899
26.936	15.711	1351.678	1033.241
27.950	15.694	1351.443	1032.868
28.965	15.610	1350.740	1031.724
29.980	15.964	1348.668	1032.220
30.994	15.916	1347.832	1031.195
32.009	15.994	1346.923	1030.882
33.023	15.964	1346.010	1029.912
34.038	15.857	1344.348	1027.895
35.053	15.752	1343.368	1026.413
36.067	15.804	1342.020	1025.609
37.082	15.828	1341.050	1024.925
38.096	15.725	1340.283	1023.622
39.111	15.865	1339.413	1023.719
40.126	15.703	1338.370	1021.848
41.140	15.623	1337.536	1020.632
42.155	15.464	1337.063	1019.214
43.169	15.462	1336.918	1019.001
44.184	15.413	1336.823	1018.546
45.199	15.499	1336.025	1018.369
46.213	15.512	1335.471	1017.934
47.228	15.708	1334.679	1018.428
48.242	15.752	1333.645	1017.812
49.257	15.725	1331.985	1016.293
50.271	15.596	1330.592	1014.359
51.286	15.632	1329.950	1014.002
52.301	15.815	1327.728	1013.321
53.315	15.752	1327.102	1012.370
54.330	15.695	1325.702	1010.871
55.344	15.504	1325.277	1009.308
56.359	15.621	1323.650	1008.686
57.374	15.483	1323.118	1007.362
58.388	15.536	1322.282	1006.955
59.403	15.502	1321.532	1006.087
60.417	15.457	1321.225	1005.495
61.432	15.473	1320.317	1004.815
62.447	15.414	1319.358	1003.639
63.461	15.394	1317.924	1002.345
64.476	15.221	1316.962	1000.487
65.490	15.427	1315.911	1000.832
66.505	15.377	1314.403	999.300
67.520	15.348	1313.299	998.199
68.534	15.425	1312.268	997.784
69.549	15.413	1311.370	996.941
70.563	15.427	1309.766	995.718
71.578	15.255	1309.329	994.278
72.593	15.225	1307.938	992.956
73.607	15.279	1307.315	992.713
74.622	15.208	1306.286	991.423
75.636	15.303	1305.614	991.386
76.651	15.326	1305.036	990.994
77.666	15.279	1304.723	990.395
78.680	15.348	1304.150	990.277
79.695	15.284	1303.600	989.396
80.709	15.438	1302.793	989.606
81.724	15.471	1302.159	989.231
82.739	15.569	1300.783	988.671
83.753	15.664	1299.879	988.454
84.768	15.711	1299.511	988.368
85.782	15.764	1298.266	987.643
86.797	15.781	1296.670	986.438
87.812	15.723	1295.412	985.056
88.826	15.656	1294.604	983.965
89.841	15.713	1293.424	983.314
90.855	15.792	1292.223	982.773
91.870	15.745	1292.196	982.394
92.884	15.782	1291.156	981.733
93.899	15.813	1290.643	981.433
94.914	15.846	1289.675	980.806
95.928	15.875	1288.721	980.160
96.943	15.866	1287.822	979.335
97.957	15.776	1286.557	977.766
98.972	15.737	1285.720	976.818
99.987	15.751	1284.524	975.903
101.001	15.756	1283.747	975.258
102.016	15.794	1282.410	974.375
103.030	15.797	1281.617	973.704
104.045	15.843	1280.641	973.139
105.060	15.663	1279.851	971.415
106.074	15.634	1278.272	969.961
107.089	15.387	1276.961	967.457
108.103	15.346	1275.841	966.287
109.118	15.488	1274.154	965.738
110.133	15.423	1273.046	964.443
111.147	15.481	1271.566	963.569
112.162	15.580	1270.561	963.287
113.176	15.483	1269.223	961.633
114.191	15.504	1268.314	960.982
115.206	15.485	1267.560	960.215
116.220	15.472	1265.707	958.654
117.235	15.472	1264.876	957.937
118.249	15.523	1263.918	957.420
119.264	15.405	1262.799	955.813
120.279	15.420	1261.863	955.108
121.293	15.491	1260.911	954.706
122.308	15.466	1259.463	953.382
123.322	15.405	1258.241	952.027
124.337	15.348	1257.537	951.088
125.352	15.466	1255.900	950.433
126.366	15.395	1255.181	949.404
127.381	15.426	1254.027	948.623
128.395	15.379	1252.748	947.304
129.410	15.383	1252.271	946.883
130.424	15.477	1251.590	946.816
131.439	15.575	1250.125	946.173
132.454	15.532	1249.633	945.476
133.468	15.605	1249.009	945.331
134.483	15.508	1248.712	944.474
135.497	15.505	1247.379	943.370
136.512	15.666	1245.640	942.873
137.527	15.706	1244.360	942.045
138.541	15.575	1243.026	940.220
139.556	15.531	1242.013	939.122
140.570	15.681	1241.086	939.178
141.585	15.806	1239.769	938.796
142.600	15.780	1238.650	937.717
143.614	15.831	1237.733	937.225
144.629	15.859	1236.795	936.588
145.643	15.957	1236.202	936.603
146.658	15.791	1234.693	934.453
147.673	15.687	1233.157	932.630
148.687	15.615	1231.797	931.122
149.702	15.528	1230.894	929.876
150.716	15.578	1229.785	929.229
151.731	15.691	1228.046	928.457
152.746	15.704	1226.813	927.514
153.760	15.700	1226.187	926.940
154.775	15.662	1225.466	926.100
155.789	15.792	1223.868	925.529
156.804	15.814	1223.223	925.081
157.819	15.798	1222.057	924.031
158.833	15.856	1221.361	923.736
159.848	15.895	1220.436	923.172
160.862	15.911	1219.370	922.371
161.877	15.803	1218.071	920.715
162.892	15.663	1217.023	919.079
163.906	15.669	1216.145	918.366
164.921	15.821	1214.776	918.077
165.935	15.823	1214.418	917.739
166.950	15.788	1213.939	917.103
167.964	15.826	1213.073	916.578
168.979	15.870	1212.463	916.273
169.994	15.795	1211.420	914.998
171.008	15.839	1210.646	914.568
172.023	15.988	1209.983	914.800
173.037	15.908	1209.742	914.097
174.052	15.964	1208.841	913.640
175.067	15.910	1207.295	912.098
176.081	15.752	1206.757	910.757
177.096	15.735	1205.746	909.823
178.110	15.854	1204.679	909.577
179.125	15.910	1203.077	908.591
180.140	15.977	1201.856	907.950
181.154	15.952	1200.841	906.969
182.169	16.078	1199.472	906.534
183.183	16.124	1198.632	906.064
184.198	16.097	1197.448	904.943
185.213	16.157	1196.398	904.392
186.227	16.132	1195.654	903.617
187.242	16.218	1194.662	903.245
188.256	16.219	1193.674	902.422
189.271	16.109	1193.021	901.263
190.286	16.070	1191.821	900.071
191.300	15.817	1191.051	898.056
192.315	15.706	1190.510	896.979
193.329	15.863	1189.386	896.891
194.344	15.875	1188.927	896.527
195.359	15.980	1188.293	896.530
196.373	15.937	1187.711	895.780
197.388	16.155	1187.614	896.786
198.402	16.319	1187.234	897.295
199.417	16.307	1186.236	896.394
200.432	16.395	1185.617	896.316
201.446	16.322	1185.128	895.481
202.461	16.483	1183.661	895.146
203.475	16.525	1182.691	894.553
204.490	16.373	1181.409	892.702
205.504	16.327	1180.558	891.737
206.519	16.365	1179.107	890.762
207.534	16.263	1178.117	889.396
208.548	16.200	1177.563	888.568
209.563	16.386	1176.111	888.376
210.577	16.253	1175.485	887.121
211.592	16.361	1175.017	887.257
212.607	16.551	1173.716	887.196
213.621	16.445	1172.982	886.003
214.636	16.513	1171.924	885.485
215.650	16.466	1171.354	884.732
216.665	16.471	1170.766	884.231
217.680	16.551	1169.564	883.664
218.694	16.675	1168.384	883.342
219.709	16.641	1167.739	882.597
220.723	16.576	1167.182	881.761
221.738	16.629	1166.359	881.336
222.753	16.678	1165.531	880.891
223.767	16.567	1165.086	879.896
224.782	16.827	1163.984	880.338
225.796	16.841	1163.352	879.853
226.811	16.769	1163.001	879.138
227.826	16.642	1162.360	877.916
228.840	16.724	1161.741	877.795
229.855	16.674	1160.980	876.883
230.869	16.762	1159.961	876.494
231.884	16.563	1159.320	874.903
232.899	16.554	1158.258	873.976
233.913	16.489	1157.793	873.212
234.928	16.537	1157.225	872.954
235.942	16.444	1156.388	871.767
236.957	16.585	1155.495	871.742
237.972	16.585	1154.750	871.103
238.986	16.551	1154.315	870.525
240.001	16.625	1153.870	870.493
241.015	16.584	1152.881	869.456
242.030	16.630	1151.800	868.800
243.045	16.708	1151.182	868.661
244.059	16.618	1150.465	867.581
245.074	16.817	1149.329	867.667
246.088	16.848	1148.648	867.232
247.103	16.902	1147.992	866.936
248.117	16.852	1147.464	866.207
249.132	17.074	1146.230	866.329
250.147	17.114	1145.893	866.206
251.161	17.307	1145.152	866.553
252.176	17.260	1144.662	865.862
253.190	17.227	1143.864	865.016
254.205	17.289	1143.764	865.177
255.220	17.389	1143.188	865.175
256.234	17.356	1142.073	864.087
257.249	17.394	1141.276	863.599
258.263	17.392	1140.886	863.219
259.278	17.345	1140.232	862.410
260.293	17.415	1139.844	862.396
261.307	17.540	1138.959	862.283
262.322	17.341	1138.651	860.966
263.336	17.323	1137.962	860.275
264.351	17.352	1137.422	859.938
265.366	17.403	1136.529	859.447
266.380	17.324	1135.945	858.531
267.395	17.400	1134.884	858.031
268.409	17.339	1134.380	857.267
269.424	17.347	1133.647	856.681
270.439	17.331	1132.686	855.795
271.453	17.465	1131.773	855.704
272.468	17.411	1130.764	854.595
273.482	17.369	1130.130	853.829
274.497	17.349	1129.694	853.325
275.512	17.310	1129.388	852.824
276.526	17.448	1128.418	852.705
277.541	17.433	1127.766	852.060
278.555	17.414	1126.833	851.188
279.570	17.440	1126.491	850.983
280.585	17.586	1125.715	851.055
281.599	17.731	1124.381	850.690
282.614	17.554	1123.661	849.188
283.628	17.601	1122.480	848.456
284.643	17.547	1121.602	847.448
285.657	17.490	1121.083	846.696
286.672	17.619	1119.519	846.083
287.687	17.471	1119.096	844.954
288.701	17.589	1118.516	845.025
289.716	17.512	1117.563	843.850
290.730	17.638	1116.841	843.852
291.745	17.664	1116.218	843.436
292.760	17.751	1115.466	843.227
293.774	17.833	1114.942	843.158
294.789	17.743	1114.464	842.276
295.803	17.871	1113.686	842.249
296.818	17.638	1112.950	840.466
297.833	17.728	1112.353	840.384
298.847	17.650	1111.543	839.317
299.862	17.746	1110.670	839.055
300.876	17.745	1110.323	838.714
301.891	17.760	1109.655	838.207
302.906	17.796	1108.855	837.703
303.920	17.983	1108.007	837.908
304.935	18.022	1107.798	837.867
305.949	17.993	1107.184	837.186
306.964	18.050	1106.340	836.754
307.979	17.998	1105.275	835.619
308.993	17.921	1104.967	834.934
310.008	17.950	1104.123	834.366
311.022	18.131	1103.203	834.481
312.037	18.052	1102.498	833.489
313.052	18.056	1101.792	832.899
314.066	17.941	1100.669	831.419
315.081	17.828	1099.914	830.224
316.095	17.785	1099.001	829.253
317.110	17.816	1098.487	828.941
318.125	17.927	1097.435	828.614
319.139	17.940	1097.092	828.344
320.154	17.779	1096.181	826.804
321.168	17.906	1095.678	826.966
322.183	17.858	1095.024	826.166
323.197	17.944	1094.269	825.942
324.212	17.882	1093.859	825.257
325.227	18.005	1093.597	825.580
326.241	17.944	1092.980	824.750
327.256	17.897	1092.163	823.832
328.270	17.966	1091.028	823.236
329.285	18.040	1089.693	822.512
330.300	17.959	1089.090	821.593
331.314	18.085	1088.093	821.373
332.329	17.956	1087.521	820.249
333.343	18.171	1086.501	820.440
334.358	18.076	1085.981	819.518
335.373	18.110	1085.105	818.950
336.387	18.199	1084.232	818.645
337.402	18.294	1083.585	818.538
338.416	18.218	1083.236	817.836
339.431	18.253	1082.749	817.564
340.446	18.395	1081.613	817.313
341.460	18.505	1081.010	817.308
342.475	18.400	1080.259	816.170
343.489	18.529	1079.359	816.028
344.504	18.485	1078.366	815.000
345.519	18.507	1077.755	814.568
346.533	18.569	1076.602	813.918
347.548	18.673	1076.145	813.996
348.562	18.600	1075.299	812.935
349.577	18.479	1074.982	812.050
350.592	18.497	1073.560	810.991
351.606	18.407	1072.837	809.950
352.621	18.404	1072.486	809.595
353.635	18.366	1072.081	809.039
354.650	18.276	1071.349	807.989
355.665	18.360	1070.592	807.747
356.679	18.455	1070.164	807.799
357.694	18.464	1069.541	807.299
358.708	18.592	1068.531	807.066
359.723	18.548	1068.258	806.584
360.738	18.592	1067.400	806.072
361.752	18.569	1066.826	805.459
362.767	18.607	1066.316	805.180
363.781	18.681	1065.434	804.788
364.796	18.677	1064.875	804.278
365.810	18.678	1064.786	804.145
366.825	18.757	1064.382	804.140
367.840	18.936	1063.731	804.414
368.854	18.842	1063.380	803.635
369.869	18.936	1062.836	803.591
370.883	18.941	1061.067	802.206
371.898	18.871	1060.684	801.519
372.913	18.875	1059.819	800.813
373.927	18.890	1060.032	800.976
374.942	18.927	1059.225	800.465
375.956	18.918	1058.674	799.937
376.971	18.853	1058.112	799.138
377.986	18.926	1057.625	799.038
379.000	19.055	1056.942	799.051
380.015	19.029	1056.592	798.596
381.029	19.028	1055.919	798.014
382.044	19.141	1055.314	798.011
383.059	19.061	1054.373	796.856
384.073	19.119	1053.631	796.496
385.088	19.205	1052.592	796.034
386.102	19.226	1051.514	795.248
387.117	19.091	1050.577	793.844
388.132	19.183	1049.752	793.576
389.146	19.083	1049.162	792.596
390.161	18.978	1048.407	791.476
391.175	19.088	1047.706	791.382
392.190	19.058	1047.137	790.742
393.205	19.118	1046.655	790.585
394.219	19.141	1045.804	789.980
395.234	19.236	1044.472	789.335
396.248	19.157	1043.565	788.221
397.263	19.033	1042.699	786.928
398.278	19.002	1042.077	786.247
399.292	19.021	1041.146	785.562
400.307	19.019	1040.471	784.974
401.321	19.076	1040.029	784.830
402.336	19.079	1039.124	784.091
403.350	18.994	1039.003	783.545
404.365	19.016	1038.334	783.073
405.380	19.099	1037.142	782.480
406.394	19.174	1036.596	782.338
407.409	19.253	1035.766	782.004
408.423	19.431	1034.972	782.140
409.438	19.356	1034.498	781.376
410.453	19.333	1034.141	780.932
411.467	19.410	1033.279	780.560
412.482	19.486	1032.790	780.464
413.496	19.539	1032.264	780.237
414.511	19.560	1031.468	779.664
415.526	19.801	1030.449	779.910
416.540	19.739	1030.286	779.437
417.555	19.662	1029.794	778.652
418.569	19.679	1029.337	778.312
419.584	19.588	1028.856	777.470
420.599	19.681	1028.357	777.443
421.613	151.703	1400.681	1792.735
422.628	138.367	1454.946	1792.861
