DTS Sentinel unit serial number:	SN413079Multiplexer serial number:	ORYXHardware model number:	OX4-SRSoftware version number:	ORYX F/W v4.00 Oryx Data Collector v3.7.2.0data status	okinstallation	princeton_trtdifferential loss correction	single-endedforward channel	channel 2reverse channel	N/Adate	2019/09/14time	07:23:35forward acquisition time	60.00reverse acquisition time	0.00gamma	496.2192k internal	0.2338k external	0.2338temperature offset calibration	1.0135default loss term (dB/km)	0.3790temperature slope calibration	1.0000multiplexer offset coefficient	1.0000multiplexer slope coefficient	1.0000fibre end	0.00T internal ref (°C)	26.19T ext. ref 1 (°C)	3.45T ext. ref 2 (°C)	20.98length (m)	temperature (°C)	Stokes	anti-Stokes-747.200	-128.123	-0.107	0.015
-746.185	5.515	-0.385	0.285
-745.171	-101.773	0.319	0.078
-744.156	-89.889	0.097	0.029
-743.142	602.665	-0.056	-0.140
-742.127	-200.000	-0.006	0.181
-741.112	800.000	0.027	0.084
-740.098	-168.262	-0.100	0.004
-739.083	85.973	-0.178	0.197
-738.069	-42.105	-0.297	-0.152
-737.054	393.797	0.028	-0.058
-736.039	-129.821	-0.284	0.039
-735.025	32.986	-0.215	0.187
-734.010	426.794	-0.057	-0.123
-732.996	-200.000	-0.047	0.220
-731.981	13.152	-0.161	-0.125
-730.966	-200.000	-0.030	0.169
-729.952	-118.126	0.102	0.018
-728.937	168.096	-0.277	-0.395
-727.923	4.150	-0.250	-0.184
-726.908	800.000	0.048	0.188
-725.894	-80.196	-0.168	0.057
-724.879	800.000	-0.033	-0.109
-723.864	56.211	-0.197	-0.192
-722.850	99.531	-0.150	-0.174
-721.835	800.000	-0.110	-0.313
-720.821	-105.615	-0.266	-0.060
-719.806	207.405	-0.100	0.157
-718.791	205.450	-0.289	-0.450
-717.777	-28.051	-0.097	0.056
-716.762	1.621	0.028	0.020
-715.748	13.457	0.203	-0.158
-714.733	-78.730	0.177	-0.061
-713.718	-130.334	-0.329	0.045
-712.704	-78.213	-0.219	-0.076
-711.689	-130.316	-0.138	-0.019
-710.675	800.000	-0.055	-0.202
-709.660	123.509	-0.073	-0.092
-708.645	-79.330	-0.166	-0.056
-707.631	-76.097	-0.149	0.053
-706.616	47.026	0.231	0.215
-705.602	526.401	0.059	0.138
-704.587	372.660	-0.075	0.153
-703.572	87.578	-0.132	-0.146
-702.558	-42.422	-0.119	0.061
-701.543	85.591	0.114	0.126
-700.529	1.674	0.156	-0.113
-699.514	-76.558	-0.354	-0.125
-698.499	-193.746	0.099	0.001
-697.485	800.000	0.016	-0.069
-696.470	-27.312	-0.092	-0.054
-695.456	800.000	-0.052	0.149
-694.441	-52.343	0.033	0.015
-693.426	235.914	0.159	-0.263
-692.412	800.000	-0.142	-0.478
-691.397	101.736	-0.099	-0.116
-690.383	318.487	-0.010	0.018
-689.368	-2.204	-0.295	0.207
-688.354	18.027	0.117	0.093
-687.339	11.425	0.281	-0.215
-686.324	59.785	0.060	0.059
-685.310	-140.464	0.162	-0.017
-684.295	122.122	-0.079	0.099
-683.281	39.657	-0.171	-0.153
-682.266	38.317	-0.178	0.159
-681.251	-75.496	-0.164	0.058
-680.237	397.326	-0.184	-0.386
-679.222	-139.556	-0.404	0.043
-678.208	-71.171	0.106	0.040
-677.193	178.318	-0.260	0.380
-676.178	-76.784	-0.102	0.036
-675.164	-54.897	0.226	-0.102
-674.149	-110.816	-0.133	-0.027
-673.135	394.394	-0.124	0.259
-672.120	175.840	0.192	-0.279
-671.105	-200.000	-0.035	-0.165
-670.091	-77.270	0.139	0.048
-669.076	486.186	0.038	0.086
-668.062	800.000	-0.050	-0.199
-667.047	193.144	0.248	0.375
-666.032	-67.694	0.064	-0.025
-665.018	800.000	0.104	0.343
-664.003	-67.045	0.360	-0.142
-662.989	800.000	-0.072	0.235
-661.974	48.535	-0.060	-0.056
-660.959	544.180	-0.079	-0.189
-659.945	-49.463	-0.182	-0.087
-658.930	562.538	-0.045	-0.110
-657.916	-200.000	0.048	0.370
-656.901	-97.434	0.220	0.057
-655.886	32.927	0.081	-0.070
-654.872	-132.061	0.373	0.049
-653.857	-85.329	-0.362	-0.113
-652.843	0.678	-0.137	-0.098
-651.828	-35.695	0.029	-0.016
-650.814	-127.997	0.124	-0.018
-649.799	562.441	-0.081	0.195
-648.784	35.071	0.334	0.293
-647.770	128.368	-0.105	0.134
-646.755	-199.571	0.093	0.000
-645.741	-199.005	-0.154	0.001
-644.726	260.210	0.117	0.202
-643.711	-59.156	0.238	0.103
-642.697	633.453	-0.057	-0.146
-641.682	-82.557	-0.181	-0.059
-640.668	37.353	0.186	0.165
-639.653	-62.343	-0.197	-0.082
-638.638	0.436	-0.126	0.090
-637.624	-37.071	-0.204	0.109
-636.609	-101.136	-0.127	-0.031
-635.595	-96.060	0.137	-0.036
-634.580	-91.447	-0.170	0.048
-633.565	-200.000	0.021	0.322
-632.551	18.368	0.212	0.170
-631.536	-42.763	0.179	-0.091
-630.522	692.816	-0.044	-0.116
-629.507	54.790	-0.405	-0.391
-628.492	-119.816	-0.186	0.032
-627.478	479.351	0.078	0.176
-626.463	-109.535	0.073	0.015
-625.449	68.726	-0.163	-0.167
-624.434	800.000	-0.130	0.504
-623.419	134.456	-0.219	0.283
-622.405	-200.000	-0.005	-0.042
-621.390	158.970	0.029	-0.040
-620.376	192.916	0.165	-0.249
-619.361	-130.477	-0.118	-0.016
-618.346	123.695	0.172	-0.215
-617.332	162.714	0.086	-0.121
-616.317	-200.000	-0.004	0.085
-615.303	800.000	-0.057	-0.186
-614.288	-88.470	-0.121	0.036
-613.273	58.936	-0.092	-0.091
-612.259	84.926	0.034	0.037
-611.244	-127.689	-0.213	0.031
-610.230	-30.592	-0.231	-0.131
-609.215	-148.510	-0.389	-0.032
-608.201	-74.035	-0.172	0.062
-607.186	-131.323	0.061	0.008
-606.171	190.263	0.153	0.229
-605.157	102.966	-0.116	-0.136
-604.142	56.902	-0.061	0.059
-603.128	-115.073	-0.368	-0.070
-602.113	-200.000	-0.098	0.529
-601.098	-84.480	-0.312	0.098
-600.084	374.590	0.072	-0.146
-599.069	-74.723	0.371	-0.133
-598.055	-1.029	0.425	0.300
-597.040	42.227	0.292	-0.264
-596.025	26.921	-0.156	-0.130
-595.011	-83.142	-0.418	0.134
-593.996	-104.436	0.295	-0.068
-592.982	-134.676	0.102	-0.012
-591.967	296.848	-0.054	-0.099
-590.952	-155.910	0.157	-0.010
-589.938	-200.000	0.022	-0.109
-588.923	-200.000	-0.065	-0.301
-587.909	800.000	-0.095	-0.369
-586.894	137.486	0.029	0.038
-585.879	-5.708	-0.246	-0.168
-584.865	-98.450	-0.149	0.038
-583.850	93.126	-0.293	0.330
-582.836	402.279	0.097	-0.203
-581.821	-101.318	-0.327	0.080
-580.806	181.340	0.162	-0.237
-579.792	154.818	-0.113	-0.154
-578.777	800.000	0.059	-0.189
-577.763	266.078	0.128	-0.223
-576.748	-116.201	0.088	-0.016
-575.733	193.733	0.177	0.268
-574.719	-113.016	-0.239	-0.047
-573.704	-200.000	0.045	-0.202
-572.690	35.159	0.266	0.232
-571.675	-14.227	-0.227	-0.146
-570.661	-200.000	0.003	-0.310
-569.646	16.853	-0.103	-0.081
-568.631	-75.566	-0.501	-0.177
-567.617	-104.386	0.269	-0.062
-566.602	-71.168	-0.321	-0.120
-565.588	-54.415	0.088	-0.040
-564.573	-36.818	0.238	0.127
-563.558	-200.000	-0.029	0.196
-562.544	322.024	-0.119	0.225
-561.529	554.354	0.058	0.138
-560.515	800.000	0.059	-0.222
-559.500	800.000	-0.038	-0.138
-558.485	-152.798	0.255	-0.018
-557.471	747.717	-0.141	0.379
-556.456	593.324	-0.060	-0.147
-555.442	29.229	0.289	-0.245
-554.427	24.679	0.240	-0.198
-553.412	180.009	-0.026	0.038
-552.398	-94.505	0.295	-0.080
-551.383	-135.900	0.302	-0.035
-550.369	800.000	0.123	-0.347
-549.354	-61.015	-0.358	0.151
-548.339	-41.745	-0.060	-0.031
-547.325	-73.694	-0.093	-0.034
-546.310	46.663	0.222	-0.206
-545.296	-88.734	0.259	-0.077
-544.281	-44.342	-0.184	-0.092
-543.266	72.660	-0.100	-0.104
-542.252	-81.078	-0.059	0.020
-541.237	262.508	-0.200	0.346
-540.223	270.294	-0.126	-0.221
-539.208	414.560	-0.230	-0.487
-538.193	105.149	-0.037	-0.044
-537.179	-35.312	-0.204	0.110
-536.164	472.401	-0.074	0.165
-535.150	-106.318	-0.176	-0.039
-534.135	58.110	0.232	-0.227
-533.121	-7.592	-0.172	-0.116
-532.106	-54.575	0.178	0.080
-531.091	131.397	-0.147	0.187
-530.077	-30.585	-0.302	-0.170
-529.062	138.685	-0.033	-0.043
-528.048	-73.566	0.227	0.082
-527.033	-110.352	-0.162	0.034
-526.018	800.000	-0.018	-0.077
-525.004	200.577	-0.058	-0.089
-523.989	-79.847	0.364	0.122
-522.975	40.368	0.173	-0.155
-521.960	-200.000	-0.022	0.153
-520.945	-94.892	-0.224	-0.060
-519.931	-43.208	0.261	0.132
-518.916	800.000	-0.009	-0.027
-517.902	-128.079	0.043	0.006
-516.887	-142.491	-0.176	0.017
-515.872	197.686	0.131	-0.198
-514.858	-84.560	0.275	-0.086
-513.843	-200.000	-0.021	0.111
-512.829	505.178	0.081	0.186
-511.814	-200.000	0.000	-0.054
-510.799	17.304	-0.142	-0.112
-509.785	2.340	-0.068	0.049
-508.770	-121.443	0.058	-0.010
-507.756	-116.903	-0.465	0.085
-506.741	283.790	0.119	-0.212
-505.726	0.347	0.116	-0.082
-504.712	750.972	-0.005	0.014
-503.697	-17.317	-0.151	0.094
-502.683	-11.399	0.166	-0.109
-501.668	-24.669	-0.036	0.021
-500.653	-3.662	0.248	-0.172
-499.639	-141.253	-0.134	-0.014
-498.624	162.772	-0.200	0.279
-497.610	-113.880	-0.240	0.046
-496.595	-50.194	0.292	-0.137
-495.581	8.574	0.115	-0.086
-494.566	800.000	-0.055	-0.163
-493.551	345.536	-0.141	-0.274
-492.537	-67.823	0.332	-0.129
-491.522	-58.577	-0.192	0.083
-490.508	-97.611	-0.180	-0.046
-489.493	-56.132	0.342	-0.151
-488.478	-18.016	-0.212	-0.132
-487.464	-200.000	0.050	0.312
-486.449	-200.000	0.046	0.353
-485.435	-159.135	0.221	0.012
-484.420	-59.408	0.231	-0.099
-483.405	800.000	0.133	-0.396
-482.391	-200.000	0.077	0.424
-481.376	800.000	-0.036	-0.126
-480.362	-85.326	-0.285	0.088
-479.347	-133.732	0.237	-0.029
-478.332	316.252	-0.125	-0.234
-477.318	10.075	0.146	-0.110
-476.303	-16.016	-0.316	-0.200
-475.289	-50.625	0.094	-0.044
-474.274	462.244	-0.106	0.235
-473.259	-67.299	0.078	-0.031
-472.245	252.552	-0.025	0.042
-471.230	-14.756	0.156	0.099
-470.216	220.752	-0.231	-0.367
-469.201	-84.496	0.346	-0.109
-468.186	800.000	-0.080	0.305
-467.172	94.868	0.118	-0.133
-466.157	-56.423	0.326	-0.144
-465.143	-200.000	-0.038	-0.172
-464.128	-174.037	-0.332	0.010
-463.113	370.408	0.073	-0.146
-462.099	-200.000	0.004	-0.079
-461.084	32.905	0.058	-0.050
-460.070	-89.589	-0.082	0.024
-459.055	12.707	-0.209	-0.160
-458.040	208.038	0.091	-0.141
-457.026	5.329	-0.193	0.141
-456.011	331.755	0.102	0.195
-454.997	-200.000	0.001	0.022
-453.982	-120.888	0.315	-0.053
-452.968	-158.104	-0.549	0.032
-451.953	-123.602	-0.271	0.043
-450.938	-117.307	-0.304	0.055
-449.924	-200.000	-0.014	0.257
-448.909	-7.126	0.072	-0.049
-447.895	-34.708	0.185	0.100
-446.880	-110.365	-0.297	-0.061
-445.865	225.549	0.120	-0.193
-444.851	800.000	0.051	0.171
-443.836	-135.413	-0.566	0.067
-442.822	-76.176	0.344	0.121
-441.807	-180.038	-0.048	-0.001
-440.792	531.429	0.186	-0.437
-439.778	-24.364	0.406	-0.240
-438.763	556.938	-0.052	0.124
-437.749	-200.000	-0.006	-0.373
-436.734	-72.805	-0.160	-0.058
-435.719	44.459	0.202	0.184
-434.705	-200.000	-0.041	-0.269
-433.690	177.880	0.067	0.097
-432.676	-78.558	-0.079	-0.027
-431.661	-98.708	0.161	0.041
-430.646	-109.651	-0.069	0.014
-429.632	132.947	-0.166	0.212
-428.617	246.395	-0.171	0.286
-427.603	-135.773	0.410	-0.048
-426.588	-200.000	-0.023	0.102
-425.573	-176.656	-0.095	0.002
-424.559	3.871	0.357	0.259
-423.544	-127.885	-0.266	0.038
-422.530	-124.205	-0.070	0.011
-421.515	-101.234	-0.272	-0.066
-420.500	683.535	-0.063	0.163
-419.486	72.226	-0.242	-0.250
-418.471	-35.796	-0.261	-0.140
-417.457	-200.000	-0.005	0.111
-416.442	-60.614	0.188	-0.079
-415.428	800.000	0.081	0.281
-414.413	78.262	-0.077	0.082
-413.398	794.526	-0.023	-0.063
-412.384	95.321	-0.132	0.149
-411.369	17.741	-0.098	0.077
-410.355	-105.960	-0.199	-0.044
-409.340	26.498	0.273	0.226
-408.325	595.097	0.115	0.281
-407.311	-20.442	0.302	0.184
-406.296	-45.757	-0.270	0.132
-405.282	-200.000	0.001	-0.306
-404.267	-200.000	0.011	-0.192
-403.252	-56.528	0.286	-0.126
-402.238	-200.000	0.022	0.102
-401.223	800.000	-0.057	-0.237
-400.209	169.941	0.108	-0.154
-399.194	31.660	-0.112	-0.095
-398.179	35.475	0.033	-0.029
-397.165	-93.890	-0.301	0.082
-396.150	413.653	0.144	0.303
-395.136	-5.050	-0.041	-0.028
-394.121	-200.000	-0.055	0.407
-393.106	25.060	0.071	0.058
-392.092	-127.601	0.351	-0.050
-391.077	800.000	-0.060	0.204
-390.063	-39.828	0.326	0.169
-389.048	16.201	-0.071	0.055
-388.033	66.403	-0.305	-0.307
-387.019	-16.642	0.186	-0.116
-386.004	-115.153	0.285	-0.053
-384.990	-81.953	-0.080	0.026
-383.975	43.270	-0.154	0.139
-382.960	506.619	0.084	0.192
-381.946	-135.963	-0.128	-0.015
-380.931	-200.000	0.021	-0.132
-379.917	55.425	-0.038	0.037
-378.902	103.719	0.128	-0.148
-377.888	146.981	0.128	0.170
-376.873	-80.474	-0.222	-0.073
-375.858	225.296	0.155	0.248
-374.844	-129.639	0.057	-0.008
-373.829	70.671	-0.107	0.110
-372.815	25.467	0.088	0.072
-371.800	205.028	-0.112	0.172
-370.785	-200.000	0.029	-0.151
-369.771	236.341	0.150	0.246
-368.756	175.479	-0.069	-0.099
-367.742	511.773	-0.119	0.273
-366.727	-19.108	0.001	-0.000
-365.712	-55.113	-0.279	-0.124
-364.698	-0.760	0.061	-0.043
-363.683	-52.401	0.276	-0.126
-362.669	-155.650	-0.248	0.016
-361.654	126.897	-0.169	-0.211
-360.639	800.000	0.041	0.119
-359.625	-200.000	-0.095	0.600
-358.610	-125.011	-0.379	-0.058
-357.596	-51.647	-0.113	0.052
-356.581	-198.066	0.375	-0.002
-355.566	145.492	-0.107	0.141
-354.552	321.385	0.069	-0.130
-353.537	-41.369	-0.066	-0.033
-352.523	616.495	-0.035	0.088
-351.508	390.031	-0.149	0.306
-350.493	42.780	0.067	-0.060
-349.479	20.091	0.159	0.127
-348.464	49.392	0.271	-0.252
-347.450	-1.531	0.351	0.245
-346.435	494.297	-0.082	0.186
-345.420	129.307	-0.217	-0.274
-344.406	-200.000	0.001	-0.166
-343.391	800.000	-0.077	-0.282
-342.377	712.727	0.105	0.276
-341.362	-48.395	0.137	-0.065
-340.348	760.346	-0.100	0.268
-339.333	-30.589	0.055	-0.031
-338.318	202.602	-0.062	-0.095
-337.304	-91.153	0.216	-0.061
-336.289	-60.798	-0.182	-0.076
-335.275	356.047	-0.096	0.189
-334.260	-200.000	0.023	0.178
-333.245	-200.000	-0.007	0.084
-332.231	800.000	0.086	-0.276
-331.216	-200.000	0.017	-0.325
-330.202	-200.000	-0.004	-0.043
-329.187	-62.116	-0.172	0.071
-328.172	41.416	0.328	-0.293
-327.158	-40.399	-0.187	-0.096
-326.143	-200.000	0.041	0.337
-325.129	-37.901	-0.272	-0.143
-324.114	-50.940	-0.235	0.109
-323.099	1.880	-0.253	0.180
-322.085	-96.742	0.136	0.035
-321.070	-79.672	-0.144	-0.048
-320.056	0.444	-0.097	0.069
-319.041	800.000	0.016	0.049
-318.026	-200.000	-0.055	-0.276
-317.012	149.965	-0.042	-0.057
-315.997	-200.000	-0.019	-0.165
-314.983	11.713	-0.420	0.318
-313.968	-112.944	0.155	-0.030
-312.953	800.000	-0.036	-0.113
-311.939	-9.101	0.327	-0.216
-310.924	519.303	0.057	-0.132
-309.910	-14.586	0.249	-0.158
-308.895	3.573	0.093	-0.067
-307.880	800.000	0.068	0.270
-306.866	-146.511	-0.132	-0.011
-305.851	777.892	0.072	-0.193
-304.837	88.441	0.120	0.131
-303.822	-159.135	-0.189	-0.010
-302.807	57.565	-0.189	0.182
-301.793	-142.192	0.261	-0.025
-300.778	175.312	0.137	0.196
-299.764	-200.000	0.001	-0.049
-298.749	-200.000	0.048	0.230
-297.735	-113.975	-0.093	0.018
-296.720	-200.000	0.027	-0.319
-295.705	193.152	0.056	-0.083
-294.691	461.986	0.073	0.162
-293.676	-107.893	-0.216	0.046
-292.662	182.829	-0.115	0.167
-291.647	-139.446	0.190	0.020
-290.632	-34.741	0.286	-0.154
-289.618	-110.364	0.189	-0.039
-288.603	57.370	0.129	0.125
-287.589	-165.437	0.302	-0.013
-286.574	11.610	0.305	0.231
-285.559	-129.089	-0.200	-0.028
-284.545	-200.000	-0.013	0.280
-283.530	699.473	0.102	0.265
-282.516	-63.986	0.159	0.064
-281.501	-200.000	0.011	0.073
-280.486	6.439	0.403	-0.295
-279.472	-19.541	-0.400	0.244
-278.457	-149.020	0.214	0.017
-277.443	12.264	-0.268	0.204
-276.428	-113.917	0.321	-0.061
-275.413	0.070	-0.229	0.161
-274.399	800.000	0.045	-0.181
-273.384	-20.349	-0.161	-0.098
-272.370	-50.416	0.322	0.150
-271.355	-200.000	0.001	0.256
-270.340	-115.786	-0.114	-0.021
-269.326	-200.000	-0.029	0.136
-268.311	10.762	0.322	0.242
-267.297	-154.085	-0.105	0.007
-266.282	83.587	-0.003	-0.004
-265.267	-68.132	-0.085	0.033
-264.253	-133.186	-0.258	0.032
-263.238	-200.000	-0.001	0.209
-262.224	84.430	0.171	-0.184
-261.209	-70.163	0.484	-0.181
-260.195	14.883	-0.299	-0.231
-259.180	19.720	-0.068	0.054
-258.165	800.000	-0.088	-0.307
-257.151	67.042	0.418	-0.419
-256.136	-66.622	-0.250	-0.098
-255.122	176.624	0.105	0.150
-254.107	-200.000	0.007	0.268
-253.092	165.763	0.135	0.188
-252.078	-30.518	-0.161	-0.090
-251.063	12.436	-0.239	0.181
-250.049	-200.000	-0.006	0.335
-249.034	-128.961	0.303	-0.042
-248.019	38.986	0.150	0.132
-247.005	389.855	-0.095	-0.194
-245.990	76.560	-0.043	-0.045
-244.976	410.706	0.147	0.306
-243.961	800.000	-0.049	-0.205
-242.946	-200.000	-0.035	0.212
-241.932	-75.146	0.098	-0.035
-240.917	425.650	-0.062	0.132
-239.903	70.872	-0.075	-0.077
-238.888	-116.046	-0.154	-0.028
-237.873	-69.926	0.136	-0.051
-236.859	-11.025	0.120	0.078
-235.844	137.954	0.153	-0.197
-234.830	-200.000	-0.063	-0.281
-233.815	63.221	0.154	0.152
-232.800	306.117	-0.060	0.110
-231.786	-28.434	0.145	-0.082
-230.771	53.550	0.228	-0.215
-229.757	-95.800	0.185	-0.049
-228.742	35.271	-0.153	0.132
-227.727	-7.910	0.043	-0.028
-226.713	-17.284	0.271	0.168
-225.698	800.000	-0.058	-0.208
-224.684	54.707	0.194	0.184
-223.669	-155.529	-0.060	0.004
-222.655	115.696	-0.119	0.143
-221.640	-25.163	0.236	-0.137
-220.625	175.862	-0.231	-0.329
-219.611	-200.000	-0.037	0.178
-218.596	-200.000	-0.053	-0.385
-217.582	70.892	-0.073	0.075
-216.567	105.061	0.178	-0.207
-215.552	-64.397	0.210	0.084
-214.538	27.474	0.081	-0.067
-213.523	-4.986	0.137	0.092
-212.509	800.000	-0.058	0.201
-211.494	-33.748	-0.058	-0.032
-210.479	183.485	-0.211	-0.307
-209.465	243.789	-0.076	0.126
-208.450	-34.450	-0.162	-0.087
-207.436	19.665	-0.095	0.075
-206.421	800.000	-0.073	0.254
-205.406	-200.000	-0.016	0.366
-204.392	800.000	0.078	0.320
-203.377	151.615	-0.154	0.206
-202.363	-26.724	0.344	-0.198
-201.348	104.912	0.215	0.250
-200.333	800.000	-0.048	0.131
-199.319	198.412	0.044	-0.066
-198.304	193.631	0.145	-0.215
-197.290	-200.000	-0.010	0.192
-196.275	17.936	-0.078	0.061
-195.260	136.468	-0.145	0.186
-194.246	800.000	-0.052	-0.222
-193.231	-104.073	-0.111	0.025
-192.217	800.000	-0.059	0.169
-191.202	284.350	-0.200	-0.354
-190.187	-200.000	0.045	0.349
-189.173	-200.000	0.022	-0.176
-188.158	-70.033	-0.261	0.098
-187.144	800.000	0.058	-0.235
-186.129	165.915	-0.098	-0.136
-185.114	-200.000	-0.039	0.380
-184.100	-81.019	0.101	0.033
-183.085	211.290	0.184	-0.285
-182.071	447.708	0.102	-0.220
-181.056	40.595	0.178	0.158
-180.042	-88.417	-0.168	0.049
-179.027	-200.000	-0.006	0.138
-178.012	-43.345	0.263	-0.131
-176.998	76.829	0.189	0.197
-175.983	-200.000	-0.017	0.171
-174.969	19.696	0.183	0.145
-173.954	-80.551	0.220	-0.072
-172.939	-200.000	-0.015	-0.268
-171.925	-32.954	-0.136	-0.074
-170.910	-111.101	0.314	-0.063
-169.896	-200.000	-0.001	0.103
-168.881	-119.902	-0.233	0.039
-167.866	617.855	0.049	0.120
-166.852	-115.200	-0.196	-0.036
-165.837	-65.189	0.099	-0.039
-164.823	-200.000	-0.023	-0.117
-163.808	-200.000	0.031	-0.568
-162.793	-200.000	-0.020	0.110
-161.779	-38.641	-0.132	0.068
-160.764	-35.477	0.062	-0.033
-159.750	404.536	-0.049	-0.100
-158.735	119.101	-0.119	-0.144
-157.720	158.506	0.118	0.160
-156.706	779.280	0.138	0.370
-155.691	-200.000	-0.027	-0.282
-154.677	800.000	-0.074	-0.214
-153.662	138.844	-0.172	0.222
-152.647	93.733	0.071	-0.079
-151.633	433.585	-0.110	-0.234
-150.618	800.000	0.032	0.115
-149.604	64.756	0.093	-0.092
-148.589	79.483	0.316	0.332
-147.574	-69.239	-0.514	-0.194
-146.560	-78.639	0.106	0.035
-145.545	-40.912	-0.210	0.106
-144.531	-8.828	0.378	-0.248
-143.516	800.000	-0.032	0.094
-142.502	-105.326	-0.135	0.030
-141.487	251.610	0.035	0.058
-140.472	10.449	-0.123	-0.092
-139.458	226.387	-0.110	0.175
-138.443	800.000	0.066	0.206
-137.429	-131.549	0.322	0.042
-136.414	-172.645	-0.215	0.007
-135.399	-102.099	0.299	0.070
-134.385	444.445	0.138	0.297
-133.370	-79.616	0.105	0.035
-132.356	-200.000	-0.020	0.200
-131.341	-161.893	-0.343	-0.017
-130.326	-120.121	0.088	0.015
-129.312	36.382	-0.054	-0.047
-128.297	720.302	0.103	0.268
-127.283	97.190	-0.401	0.451
-126.268	-71.893	0.230	-0.084
-125.253	264.960	0.149	-0.254
-124.239	-151.769	0.209	0.015
-123.224	-200.000	-0.027	-0.200
-122.210	-120.204	0.100	-0.017
-121.195	135.783	0.071	0.090
-120.180	36.876	-0.270	-0.234
-119.166	130.046	-0.152	-0.190
-118.151	-18.261	-0.193	-0.118
-117.137	-41.331	-0.032	0.016
-116.122	9.917	0.030	0.022
-115.107	-79.053	-0.170	0.057
-114.093	-106.998	0.177	-0.038
-113.078	270.604	0.067	0.115
-112.064	377.829	-0.118	0.237
-111.049	34.667	0.369	0.316
-110.034	-86.463	-0.154	0.046
-109.020	-170.648	-0.323	-0.011
-108.005	-0.915	0.229	0.159
-106.991	-103.838	0.127	-0.029
-105.976	258.247	-0.129	0.217
-104.962	-47.178	-0.052	0.025
-103.947	14.305	0.245	0.187
-102.932	-200.000	-0.003	-0.016
-101.918	-66.769	-0.416	0.161
-100.903	800.000	0.021	-0.066
-99.889	-200.000	-0.060	-0.425
-98.874	-200.000	-0.060	-0.392
-97.859	231.472	0.103	-0.166
-96.845	31.545	0.059	0.050
-95.830	-102.462	0.164	-0.038
-94.816	495.291	0.082	-0.184
-93.801	-151.795	0.224	-0.016
-92.786	-200.000	0.026	-0.392
-91.772	113.825	0.133	-0.159
-90.757	-37.950	-0.131	-0.068
-89.743	296.511	0.063	-0.113
-88.728	-115.678	0.450	0.083
-87.713	-199.386	0.154	-0.001
-86.699	-123.355	-0.220	0.034
-85.684	282.430	-0.095	0.167
-84.670	-21.684	0.295	0.175
-83.655	-167.114	0.308	0.012
-82.640	3.027	0.338	0.240
-81.626	-126.569	0.141	-0.021
-80.611	-1.537	-0.371	0.256
-79.597	-27.198	-0.327	0.186
-78.582	34.443	0.297	-0.253
-77.567	-200.000	0.017	-0.083
-76.553	-6.891	0.060	-0.040
-75.538	800.000	-0.086	0.236
-74.524	-200.000	0.017	-0.095
-73.509	565.481	-0.075	-0.178
-72.494	164.628	-0.117	-0.161
-71.480	706.293	0.025	0.063
-70.465	-126.971	0.326	0.047
-69.451	-131.871	-0.193	0.025
-68.436	206.379	0.093	0.141
-67.422	-117.362	0.117	0.021
-66.407	-180.316	0.325	-0.007
-65.392	-67.964	-0.425	0.162
-64.378	-200.000	0.014	0.385
-63.363	-54.186	0.291	0.129
-62.349	-22.337	-0.121	0.072
-61.334	29.386	-1.004	-0.833
-60.319	79.154	0.646	0.676
-59.305	-200.000	-0.198	-1.268
-58.290	294.363	0.698	1.246
-57.276	325.871	0.752	1.405
-56.261	-200.000	116.954	638.627
-55.246	482.368	1553.127	3446.972
-54.232	172.514	2734.024	3843.243
-53.217	98.500	2303.891	2594.414
-52.203	35.329	1909.878	1636.140
-51.188	29.391	1702.075	1412.747
-50.173	26.977	1660.931	1360.476
-49.159	46.971	1719.946	1562.012
-48.144	45.598	1732.261	1562.667
-47.130	28.814	1689.592	1397.778
-46.115	26.299	1674.863	1366.543
-45.100	26.137	1670.062	1361.353
-44.086	26.023	1667.782	1358.576
-43.071	26.096	1665.138	1356.924
-42.057	25.977	1662.705	1353.995
-41.042	26.045	1661.096	1353.137
-40.027	26.110	1658.764	1351.672
-39.013	25.979	1656.857	1349.081
-37.998	25.978	1655.339	1347.790
-36.984	25.975	1654.283	1346.849
-35.969	26.118	1652.689	1346.564
-34.954	26.288	1650.959	1346.370
-33.940	26.230	1649.069	1344.343
-32.925	26.185	1647.527	1342.698
-31.911	26.170	1645.869	1341.183
-30.896	26.223	1644.077	1340.060
-29.881	26.197	1642.225	1338.304
-28.867	26.190	1640.515	1336.807
-27.852	26.185	1639.311	1335.737
-26.838	26.173	1638.449	1334.892
-25.823	26.213	1636.725	1333.728
-24.809	26.278	1635.055	1332.798
-23.794	26.196	1634.188	1331.433
-22.779	26.189	1632.588	1330.025
-21.765	26.202	1630.720	1328.549
-20.750	26.216	1629.050	1327.236
-19.736	26.233	1627.719	1326.223
-18.721	26.249	1626.765	1325.514
-17.706	26.242	1624.833	1323.835
-16.692	26.302	1623.108	1322.811
-15.677	26.263	1621.504	1321.172
-14.663	26.301	1620.191	1320.327
-13.648	26.206	1619.232	1318.799
-12.633	26.245	1617.939	1317.974
-11.619	26.146	1616.167	1315.756
-10.604	26.181	1614.167	1314.332
-9.590	26.205	1613.107	1313.595
-8.575	26.196	1611.769	1312.387
-7.560	26.199	1610.624	1311.420
-6.546	26.239	1609.473	1310.725
-5.531	26.213	1608.651	1309.814
-4.517	26.275	1607.200	1309.027
-3.502	26.238	1606.013	1307.743
-2.487	26.331	1604.349	1307.011
-1.473	26.003	1592.422	1294.885
-0.458	23.158	1573.133	1258.939
0.556	20.734	1574.709	1228.209
1.571	18.453	1598.819	1230.540
2.586	18.107	1611.596	1237.764
3.600	15.998	1555.631	1179.917
4.615	9.508	1447.817	1055.619
5.629	4.284	1389.026	979.735
6.644	3.503	1382.219	969.939
7.659	3.368	1381.018	968.163
8.673	3.428	1379.272	967.230
9.688	3.491	1377.711	966.446
10.702	3.438	1374.645	963.876
11.717	5.911	1378.827	982.216
12.731	12.894	1392.423	1035.817
13.746	18.776	1401.719	1079.730
14.761	20.295	1403.014	1090.182
15.775	19.740	1400.847	1084.920
16.790	18.725	1398.426	1076.587
17.804	17.857	1396.115	1069.277
18.819	17.486	1395.260	1066.204
19.834	17.337	1393.819	1064.072
20.848	17.168	1392.627	1062.015
21.863	16.897	1391.748	1059.556
22.877	16.830	1390.213	1057.875
23.892	16.882	1389.196	1057.334
24.907	16.777	1388.328	1055.923
25.921	16.731	1387.856	1055.185
26.936	16.780	1386.826	1054.615
27.950	16.791	1385.562	1053.627
28.965	16.888	1385.446	1054.048
29.980	17.019	1383.606	1053.369
30.994	17.081	1382.517	1052.832
32.009	17.060	1381.626	1051.931
33.023	17.114	1380.479	1051.298
34.038	17.010	1379.419	1049.751
35.053	16.901	1377.975	1047.886
36.067	16.847	1376.592	1046.412
37.082	16.948	1375.527	1046.132
38.096	16.949	1374.840	1045.523
39.111	17.081	1373.809	1045.459
40.126	16.966	1372.985	1044.032
41.140	16.771	1372.223	1042.158
42.155	16.618	1371.094	1040.268
43.169	16.680	1371.247	1040.674
44.184	16.726	1370.668	1040.424
45.199	16.586	1370.777	1039.555
46.213	16.804	1369.701	1039.987
47.228	16.901	1369.510	1040.345
48.242	16.935	1367.866	1039.215
49.257	16.799	1366.648	1037.360
50.271	16.922	1365.102	1036.851
51.286	16.904	1363.812	1035.665
52.301	16.807	1362.842	1034.246
53.315	16.739	1361.412	1032.657
54.330	16.738	1360.443	1031.822
55.344	16.764	1358.910	1030.728
56.359	16.698	1358.287	1029.764
57.374	16.713	1357.349	1029.055
58.388	16.539	1356.592	1027.331
59.403	16.588	1356.251	1027.278
60.417	16.550	1355.591	1026.456
61.432	16.467	1354.562	1025.084
62.447	16.461	1353.382	1024.062
63.461	16.478	1352.110	1023.110
64.476	16.463	1350.985	1022.080
65.490	16.375	1350.081	1020.775
66.505	16.523	1348.234	1020.181
67.520	16.545	1347.083	1019.350
68.534	16.536	1346.144	1018.497
69.549	16.612	1344.880	1017.910
70.563	16.427	1344.130	1016.139
71.578	16.408	1342.774	1014.908
72.593	16.336	1341.836	1013.678
73.607	16.248	1341.337	1012.684
74.622	16.325	1340.271	1012.249
75.636	16.387	1339.643	1012.056
76.651	16.432	1338.936	1011.704
77.666	16.332	1338.973	1011.045
78.680	16.375	1338.617	1010.944
79.695	16.422	1337.575	1010.346
80.709	16.645	1336.359	1010.672
81.724	16.700	1335.689	1010.404
82.739	16.703	1334.899	1009.732
83.753	16.746	1334.355	1009.491
84.768	16.826	1333.231	1009.027
85.782	16.903	1332.234	1008.638
86.797	16.841	1330.994	1007.246
87.812	16.848	1329.715	1006.229
88.826	16.852	1328.504	1005.244
89.841	16.860	1327.777	1004.655
90.855	16.937	1326.362	1003.949
91.870	17.114	1325.034	1003.902
92.884	17.011	1324.872	1003.086
93.899	17.020	1323.888	1002.305
94.914	17.139	1323.355	1002.515
95.928	17.095	1322.334	1001.393
96.943	16.996	1321.480	1000.076
97.957	17.037	1320.451	999.447
98.972	17.030	1319.252	998.411
99.987	17.033	1318.553	997.811
101.001	17.038	1317.324	996.823
102.016	16.950	1316.832	995.842
103.030	16.962	1315.379	994.726
104.045	16.959	1314.463	993.930
105.060	16.803	1313.291	992.043
106.074	16.738	1311.669	990.348
107.089	16.539	1310.171	987.968
108.103	16.540	1308.976	986.983
109.118	16.552	1307.512	985.864
110.133	16.592	1305.903	984.797
111.147	16.623	1304.783	984.044
112.162	16.616	1304.247	983.513
113.176	16.552	1303.298	982.341
114.191	16.679	1301.987	982.003
115.206	16.614	1301.137	980.896
116.220	16.694	1299.550	980.073
117.235	16.639	1298.712	979.037
118.249	16.682	1297.405	978.215
119.264	16.656	1296.194	977.068
120.279	16.537	1295.020	975.406
121.293	16.538	1294.294	974.782
122.308	16.505	1293.073	973.584
123.322	16.413	1291.990	972.155
124.337	16.424	1291.220	971.550
125.352	16.370	1290.121	970.330
126.366	16.367	1288.632	969.105
127.381	16.470	1287.489	968.753
128.395	16.486	1286.343	967.896
129.410	16.574	1285.256	967.497
130.424	16.543	1285.006	967.042
131.439	16.637	1284.307	966.967
132.454	16.566	1283.262	965.692
133.468	16.705	1282.299	965.675
134.483	16.616	1282.090	964.922
135.497	16.609	1281.062	964.025
136.512	16.661	1279.422	963.002
137.527	16.790	1277.869	962.480
138.541	16.744	1276.552	961.140
139.556	16.720	1275.583	960.191
140.570	16.822	1274.844	960.125
141.585	16.870	1273.260	959.122
142.600	16.877	1272.336	958.379
143.614	17.026	1271.251	958.321
144.629	17.124	1269.988	957.838
145.643	17.086	1269.275	956.997
146.658	16.920	1267.666	954.766
147.673	16.892	1266.138	953.374
148.687	16.756	1265.212	951.828
149.702	16.809	1263.641	950.859
150.716	16.677	1262.728	949.345
151.731	16.781	1261.384	948.834
152.746	16.840	1260.082	948.105
153.760	16.894	1259.341	947.763
154.775	16.850	1258.373	946.702
155.789	16.947	1257.124	946.222
156.804	16.959	1256.099	945.434
157.819	17.101	1254.703	945.089
158.833	17.137	1254.216	944.842
159.848	17.173	1253.313	944.278
160.862	17.107	1252.228	943.011
161.877	16.950	1250.697	940.904
162.892	16.811	1250.252	939.712
163.906	16.909	1248.944	939.188
164.921	16.751	1248.449	937.857
165.935	17.014	1247.216	938.304
166.950	16.926	1246.870	937.474
167.964	16.967	1245.959	936.934
168.979	16.978	1245.238	936.368
169.994	16.936	1244.271	935.326
171.008	16.936	1243.443	934.624
172.023	16.982	1243.110	934.546
173.037	17.160	1242.186	934.746
174.052	17.189	1240.645	933.662
175.067	16.975	1240.242	932.101
176.081	16.880	1238.701	930.339
177.096	16.848	1237.968	929.533
178.110	16.961	1236.563	929.014
179.125	16.980	1235.620	928.327
180.140	16.918	1234.878	927.348
181.154	17.001	1233.575	926.740
182.169	17.144	1232.549	926.669
183.183	17.191	1231.022	925.691
184.198	17.276	1229.892	925.225
185.213	17.279	1228.835	924.365
186.227	17.291	1227.739	923.525
187.242	17.272	1227.126	922.875
188.256	17.302	1226.228	922.283
189.271	17.458	1224.939	922.080
190.286	17.265	1223.625	919.965
191.300	16.913	1222.858	917.401
192.315	16.852	1221.724	916.139
193.329	16.904	1221.398	916.093
194.344	16.876	1221.117	915.652
195.359	17.121	1220.199	916.203
196.373	17.163	1219.782	916.035
197.388	17.204	1219.986	916.328
198.402	17.413	1219.033	916.656
199.417	17.581	1218.172	916.833
200.432	17.561	1217.881	916.423
201.446	17.627	1217.213	916.199
202.461	17.716	1215.910	915.612
203.475	17.697	1215.109	914.828
204.490	17.529	1213.439	912.588
205.504	17.426	1212.310	911.108
206.519	17.512	1210.761	910.325
207.534	17.435	1209.644	908.992
208.548	17.432	1208.701	908.185
209.563	17.451	1208.101	907.756
210.577	17.418	1207.163	906.794
211.592	17.464	1206.749	906.647
212.607	17.635	1205.508	906.546
213.621	17.578	1205.022	905.796
214.636	17.572	1203.738	904.719
215.650	17.619	1203.146	904.444
216.665	17.736	1202.156	904.242
217.680	17.707	1201.314	903.376
218.694	17.806	1200.253	903.019
219.709	17.723	1199.893	902.227
220.723	17.706	1198.553	901.052
221.738	17.791	1198.049	901.043
222.753	17.678	1197.595	900.025
223.767	17.835	1196.598	900.024
224.782	17.782	1196.013	899.226
225.796	17.842	1195.749	899.262
226.811	17.906	1194.622	898.674
227.826	17.716	1193.886	897.040
228.840	17.785	1192.851	896.548
229.855	17.710	1192.495	895.804
230.869	17.786	1191.720	895.546
231.884	17.639	1190.738	893.957
232.899	17.660	1189.204	892.833
233.913	17.739	1189.126	893.111
234.928	17.628	1188.310	891.836
235.942	17.557	1187.788	890.993
236.957	17.558	1186.457	889.926
237.972	17.510	1186.409	889.556
238.986	17.707	1185.597	889.898
240.001	17.689	1184.656	889.018
241.015	17.726	1183.753	888.457
242.030	17.777	1182.992	888.074
243.045	17.752	1182.238	887.298
244.059	17.782	1181.502	886.821
245.074	17.955	1180.545	886.925
246.088	17.937	1179.687	886.106
247.103	18.039	1179.256	886.235
248.117	18.118	1178.732	886.173
249.132	18.167	1178.063	885.843
250.147	18.206	1177.944	885.878
251.161	18.432	1176.453	885.848
252.176	18.569	1175.571	885.814
253.190	18.412	1175.142	884.597
254.205	18.505	1174.857	884.787
255.220	18.502	1174.445	884.385
256.234	18.483	1173.702	883.647
257.249	18.467	1172.739	882.761
258.263	18.530	1171.925	882.396
259.278	18.563	1171.426	882.113
260.293	18.571	1170.880	881.661
261.307	18.634	1170.021	881.260
262.322	18.681	1169.622	881.126
263.336	18.545	1169.014	879.888
264.351	18.590	1168.617	879.747
265.366	18.556	1167.821	878.893
266.380	18.722	1166.892	878.966
267.395	18.620	1166.058	877.738
268.409	18.505	1165.147	876.388
269.424	18.555	1164.380	875.987
270.439	18.465	1164.274	875.372
271.453	18.464	1162.754	874.145
272.468	18.468	1162.128	873.616
273.482	18.532	1161.076	873.075
274.497	18.558	1160.503	872.699
275.512	18.428	1160.132	871.681
276.526	18.541	1159.248	871.517
277.541	18.511	1158.463	870.697
278.555	18.565	1157.952	870.510
279.570	18.659	1157.144	870.302
280.585	18.781	1156.488	870.349
281.599	18.814	1155.744	869.882
282.614	18.616	1154.420	867.803
283.628	18.684	1153.523	867.397
284.643	18.541	1153.176	866.339
285.657	18.622	1151.706	865.565
286.672	18.615	1150.848	864.810
287.687	18.625	1149.985	864.136
288.701	18.716	1149.165	863.901
289.716	18.719	1148.070	863.012
290.730	18.739	1147.599	862.682
291.745	18.757	1146.848	862.133
292.760	18.876	1145.965	861.992
293.774	18.838	1145.714	861.536
294.789	18.902	1145.275	861.450
295.803	18.859	1144.401	860.503
296.818	18.858	1143.493	859.736
297.833	18.676	1143.040	858.410
298.847	18.910	1141.685	858.486
299.862	18.822	1141.077	857.513
300.876	18.956	1140.325	857.541
301.891	18.855	1140.127	856.809
302.906	19.016	1139.221	856.857
303.920	19.142	1138.472	856.846
304.935	19.080	1138.519	856.497
305.949	19.245	1137.445	856.434
306.964	19.271	1136.718	855.940
307.979	19.145	1135.626	854.416
308.993	19.099	1135.010	853.648
310.008	19.142	1134.561	853.450
311.022	19.260	1133.535	853.183
312.037	19.197	1133.154	852.512
313.052	19.079	1131.605	850.689
314.066	19.052	1130.586	849.712
315.081	18.945	1129.530	848.317
316.095	18.944	1129.025	847.857
317.110	18.900	1128.688	847.313
318.125	18.961	1127.903	846.948
319.139	18.848	1127.544	846.047
320.154	18.922	1126.610	845.634
321.168	18.953	1125.909	845.188
322.183	19.024	1125.130	844.874
323.197	19.024	1124.593	844.396
324.212	19.034	1124.022	843.943
325.227	19.075	1123.631	843.774
326.241	19.112	1122.682	843.170
327.256	19.101	1121.902	842.456
328.270	19.083	1120.719	841.405
329.285	19.122	1119.690	840.748
330.300	19.041	1119.186	839.900
331.314	19.065	1118.082	839.115
332.329	19.113	1116.972	838.441
333.343	19.098	1116.234	837.737
334.358	19.327	1115.542	838.260
335.373	19.340	1114.739	837.646
336.387	19.248	1114.531	836.970
337.402	19.325	1113.537	836.523
338.416	19.289	1112.756	835.687
339.431	19.419	1112.431	835.998
340.446	19.468	1111.834	835.713
341.460	19.541	1110.954	835.331
342.475	19.646	1110.005	835.053
343.489	19.621	1109.032	834.126
344.504	19.676	1107.937	833.493
345.519	19.643	1107.697	833.079
346.533	19.754	1106.972	832.994
347.548	19.806	1105.824	832.308
348.562	19.759	1105.378	831.671
349.577	19.716	1104.385	830.645
350.592	19.521	1103.536	828.998
351.606	19.384	1102.843	827.744
352.621	19.527	1101.742	827.531
353.635	19.419	1101.252	826.571
354.650	19.520	1100.473	826.398
355.665	19.523	1099.848	825.868
356.679	19.468	1099.400	825.196
357.694	19.732	1098.359	825.604
358.708	19.658	1097.815	824.766
359.723	19.502	1097.880	823.997
360.738	19.605	1096.968	823.732
361.752	19.631	1096.346	823.316
362.767	19.615	1095.735	822.711
363.781	19.789	1095.168	823.041
364.796	19.769	1094.685	822.508
365.810	19.857	1094.264	822.539
366.825	19.895	1093.662	822.190
367.840	20.070	1093.026	822.475
368.854	20.141	1092.300	822.190
369.869	20.067	1091.611	821.248
370.883	19.996	1090.592	820.072
371.898	19.955	1089.666	819.112
372.913	19.972	1089.280	818.827
373.927	20.087	1088.774	818.917
374.942	20.119	1088.363	818.687
375.956	20.017	1087.879	817.771
376.971	19.976	1087.467	817.192
377.986	19.965	1086.869	816.621
379.000	20.236	1085.975	817.152
380.015	20.320	1085.625	817.211
381.029	20.342	1085.015	816.787
382.044	20.223	1084.175	815.520
383.059	20.310	1083.009	814.981
384.073	20.294	1082.172	814.205
385.088	20.275	1081.686	813.677
386.102	20.231	1080.560	812.551
387.117	20.214	1079.483	811.592
388.132	20.028	1078.916	810.224
389.146	20.010	1078.026	809.399
390.161	20.070	1077.048	808.873
391.175	20.161	1076.122	808.528
392.190	20.164	1075.814	808.241
393.205	20.286	1075.354	808.394
394.219	20.340	1074.205	807.710
395.234	20.229	1073.410	806.525
396.248	20.262	1072.038	805.571
397.263	20.237	1070.881	804.518
398.278	20.145	1070.670	803.860
399.292	20.114	1070.073	803.196
400.307	20.117	1069.089	802.403
401.321	20.102	1068.694	801.967
402.336	20.084	1068.139	801.393
403.350	20.046	1067.432	800.617
404.365	20.116	1066.517	800.182
405.380	20.126	1065.825	799.640
406.394	20.230	1065.087	799.496
407.409	20.324	1064.170	799.171
408.423	20.546	1063.459	799.583
409.438	20.561	1063.064	799.287
410.453	20.574	1062.527	798.872
411.467	20.556	1061.657	798.062
412.482	20.565	1061.120	797.633
413.496	20.640	1060.753	797.630
414.511	20.700	1059.731	797.062
415.526	20.770	1059.138	796.869
416.540	20.786	1058.815	796.626
417.555	20.724	1058.361	795.932
418.569	20.667	1057.895	795.253
419.584	20.745	1057.346	795.124
420.599	20.686	1056.824	794.392
421.613	155.901	1404.739	1797.734
422.628	143.195	1455.397	1797.815
