DTS Sentinel unit serial number:	SN413079Multiplexer serial number:	ORYXHardware model number:	OX4-SRSoftware version number:	ORYX F/W v4.00 Oryx Data Collector v3.7.2.0data status	okinstallation	princeton_trtdifferential loss correction	single-endedforward channel	channel 2reverse channel	N/Adate	2019/09/16time	00:27:34forward acquisition time	60.00reverse acquisition time	0.00gamma	496.2192k internal	0.2337k external	0.2337temperature offset calibration	0.9958default loss term (dB/km)	0.3790temperature slope calibration	1.0000multiplexer offset coefficient	1.0000multiplexer slope coefficient	1.0000fibre end	0.00T internal ref (°C)	27.59T ext. ref 1 (°C)	9.54T ext. ref 2 (°C)	21.59length (m)	temperature (°C)	Stokes	anti-Stokes-747.200	-105.300	0.280	-0.064
-746.185	-93.260	-0.399	0.111
-745.171	800.000	0.072	-0.278
-744.156	30.000	-0.087	0.074
-743.142	-152.697	-0.108	0.008
-742.127	-58.263	-0.256	0.112
-741.112	-81.787	0.027	-0.009
-740.098	-142.751	-0.143	-0.014
-739.083	738.958	0.038	-0.103
-738.069	-40.937	-0.287	-0.149
-737.054	-117.025	0.133	0.024
-736.039	-200.000	-0.007	0.136
-735.025	-56.401	-0.092	0.041
-734.010	800.000	-0.040	0.119
-732.996	-200.000	0.018	-0.102
-731.981	494.201	-0.086	-0.197
-730.966	-200.000	-0.006	-0.165
-729.952	432.678	-0.099	-0.216
-728.937	-101.603	-0.417	0.102
-727.923	-77.271	-0.123	-0.043
-726.908	-180.258	0.268	-0.006
-725.894	-2.755	-0.117	0.082
-724.879	-151.143	-0.073	0.005
-723.864	-119.951	-0.307	0.053
-722.850	59.393	-0.245	-0.242
-721.835	-200.000	0.022	-0.104
-720.821	154.144	-0.146	0.201
-719.806	-25.101	-0.156	0.092
-718.791	-0.201	-0.230	-0.164
-717.777	-200.000	0.024	-0.200
-716.762	11.452	-0.164	0.126
-715.748	-200.000	0.016	0.164
-714.733	-200.000	0.023	-0.149
-713.718	-200.000	0.014	-0.124
-712.704	416.641	0.066	0.141
-711.689	72.252	0.032	-0.033
-710.675	-39.844	0.055	-0.029
-709.660	-60.242	0.221	-0.095
-708.645	265.171	-0.075	0.130
-707.631	-200.000	-0.033	-0.284
-706.616	-42.399	0.253	-0.129
-705.602	-98.830	-0.232	-0.059
-704.587	82.790	-0.061	-0.066
-703.572	150.387	-0.014	0.019
-702.558	-20.771	0.137	-0.084
-701.543	66.066	0.128	-0.130
-700.529	-105.262	0.197	-0.045
-699.514	-115.079	-0.208	-0.040
-698.499	89.479	0.131	0.146
-697.485	-200.000	0.000	-0.172
-696.470	136.025	-0.218	-0.285
-695.456	-82.776	0.146	0.047
-694.441	132.780	-0.082	-0.106
-693.426	665.089	0.027	0.069
-692.412	75.286	-0.229	-0.242
-691.397	800.000	-0.024	-0.085
-690.383	-140.539	-0.225	-0.023
-689.368	48.544	-0.179	-0.168
-688.354	419.519	-0.090	-0.192
-687.339	800.000	-0.100	-0.333
-686.324	-200.000	0.005	0.054
-685.310	-200.000	-0.010	-0.047
-684.295	421.874	-0.073	-0.156
-683.281	-51.388	0.248	0.116
-682.266	120.002	-0.152	0.189
-681.251	-99.793	-0.320	-0.080
-680.237	-80.072	-0.194	0.065
-679.222	-53.512	0.148	-0.068
-678.208	-105.045	-0.247	-0.057
-677.193	401.452	-0.107	0.225
-676.178	-67.576	0.102	-0.040
-675.164	-17.314	-0.222	-0.140
-674.149	509.068	-0.064	0.148
-673.135	324.671	-0.175	0.334
-672.120	-95.308	0.072	-0.019
-671.105	800.000	0.017	-0.064
-670.091	82.054	-0.143	-0.155
-669.076	-200.000	0.021	0.284
-668.062	40.140	-0.252	-0.227
-667.047	800.000	0.076	-0.319
-666.032	-200.000	-0.024	0.194
-665.018	378.484	-0.030	0.062
-664.003	616.708	-0.082	0.206
-662.989	348.445	-0.067	-0.133
-661.974	548.246	-0.093	0.223
-660.959	55.293	-0.166	-0.161
-659.945	800.000	-0.048	0.142
-658.930	-28.016	-0.125	-0.072
-657.916	-200.000	0.056	-0.300
-656.901	579.063	-0.023	-0.057
-655.886	-92.747	-0.064	0.018
-654.872	73.403	0.157	-0.164
-653.857	159.864	0.132	-0.184
-652.843	-40.131	0.272	-0.142
-651.828	-102.451	-0.149	-0.036
-650.814	-150.016	0.119	0.009
-649.799	-42.673	0.130	0.066
-648.784	-12.802	-0.049	-0.032
-647.770	105.348	-0.128	-0.151
-646.755	-6.589	0.137	-0.093
-645.741	-1.689	0.158	-0.111
-644.726	670.605	-0.055	-0.143
-643.711	329.262	-0.115	-0.220
-642.697	-101.240	-0.042	-0.010
-641.682	418.234	0.082	0.176
-640.668	-82.254	0.236	-0.077
-639.653	174.505	-0.095	-0.137
-638.638	122.394	-0.137	-0.172
-637.624	-58.033	-0.395	0.172
-636.609	-13.907	0.129	-0.083
-635.595	259.685	-0.152	-0.262
-634.580	318.055	0.113	-0.214
-633.565	-159.340	0.342	0.019
-632.551	95.621	-0.175	0.200
-631.536	42.581	-0.135	0.123
-630.522	-200.000	0.014	0.384
-629.507	39.472	0.200	-0.179
-628.492	55.477	0.116	0.112
-627.478	190.976	0.169	-0.253
-626.463	-43.873	-0.118	-0.059
-625.449	-19.437	0.409	-0.253
-624.434	-110.727	-0.252	0.052
-623.419	800.000	-0.005	-0.019
-622.405	-51.414	0.248	0.116
-621.390	41.328	0.283	0.256
-620.376	23.498	-0.173	0.142
-619.361	800.000	0.019	0.067
-618.346	-200.000	0.006	-0.322
-617.332	800.000	0.062	-0.199
-616.317	47.636	0.320	-0.298
-615.303	-200.000	-0.079	0.444
-614.288	800.000	0.062	0.210
-613.273	189.735	0.079	0.119
-612.259	-137.879	-0.295	0.033
-611.244	207.103	0.170	0.265
-610.230	101.211	0.159	0.185
-609.215	-9.992	-0.156	-0.104
-608.201	-200.000	-0.033	-0.192
-607.186	-152.761	-0.376	0.027
-606.171	-45.928	0.093	0.046
-605.157	531.615	0.019	0.046
-604.142	-149.024	-0.165	-0.013
-603.128	-125.337	-0.132	0.020
-602.113	-117.102	-0.108	0.020
-601.098	-190.020	0.385	-0.004
-600.084	-14.657	0.321	-0.206
-599.069	573.323	-0.062	-0.151
-598.055	12.615	-0.190	-0.146
-597.040	92.351	-0.278	-0.313
-596.025	800.000	-0.129	0.385
-595.011	71.389	-0.127	0.131
-593.996	-76.858	-0.281	-0.098
-592.982	198.849	-0.094	-0.144
-591.967	-110.492	-0.151	-0.031
-590.952	234.812	0.112	0.185
-589.938	-200.000	-0.014	0.077
-588.923	578.553	-0.103	0.251
-587.909	414.333	0.136	0.288
-586.894	-21.805	-0.308	-0.187
-585.879	-137.536	0.296	-0.033
-584.865	55.773	-0.226	0.219
-583.850	719.344	-0.107	-0.285
-582.836	361.603	-0.091	0.181
-581.821	-113.185	0.236	0.046
-580.806	207.165	-0.135	-0.210
-579.792	48.857	-0.228	0.213
-578.777	-75.963	0.116	0.041
-577.763	800.000	0.074	-0.279
-576.748	438.571	0.055	-0.120
-575.733	-63.287	-0.328	-0.135
-574.719	-43.233	-0.054	-0.027
-573.704	39.892	-0.363	-0.325
-572.690	-125.891	-0.304	0.046
-571.675	667.900	0.055	-0.141
-570.661	768.579	0.053	0.143
-569.646	368.895	0.012	-0.025
-568.631	51.539	-0.250	0.237
-567.617	-35.243	0.169	-0.092
-566.602	27.608	0.142	-0.119
-565.588	150.186	-0.272	0.368
-564.573	-99.250	0.140	0.035
-563.558	800.000	-0.019	-0.073
-562.544	58.170	0.155	-0.151
-561.529	-200.000	0.061	-0.274
-560.515	800.000	-0.067	-0.256
-559.500	35.632	-0.149	0.131
-558.485	-200.000	0.004	0.218
-557.471	58.214	-0.130	0.127
-556.456	-77.177	0.088	0.031
-555.442	133.976	0.063	0.082
-554.427	-4.129	-0.090	0.062
-553.412	-88.612	-0.121	-0.036
-552.398	-133.789	0.302	0.038
-551.383	197.564	0.097	0.147
-550.369	-37.617	0.126	-0.067
-549.354	-69.237	-0.157	-0.060
-548.339	-172.828	-0.014	0.000
-547.325	161.042	-0.390	0.542
-546.310	-7.107	-0.059	-0.040
-545.296	248.017	0.039	0.065
-544.281	202.567	-0.090	-0.138
-543.266	-61.461	-0.244	0.102
-542.252	92.458	-0.119	0.133
-541.237	-115.664	-0.004	0.001
-540.223	364.913	0.164	0.328
-539.208	-65.463	-0.121	-0.048
-538.193	-185.061	-0.228	0.004
-537.179	27.020	-0.079	0.066
-536.164	-74.633	0.385	0.138
-535.150	148.939	-0.131	-0.176
-534.135	72.934	-0.284	-0.296
-533.121	512.735	0.156	-0.362
-532.106	14.089	-0.223	-0.173
-531.091	315.430	0.074	-0.139
-530.077	-65.846	-0.257	-0.102
-529.062	-149.642	-0.419	-0.033
-528.048	-200.000	-0.004	-0.086
-527.033	-200.000	0.022	-0.239
-526.018	800.000	0.036	-0.126
-525.004	-103.013	-0.136	-0.032
-523.989	800.000	-0.045	0.143
-522.975	21.100	0.322	-0.260
-521.960	-48.432	0.023	-0.011
-520.945	-200.000	0.059	-0.338
-519.931	97.461	0.106	-0.121
-518.916	22.512	-0.091	-0.074
-517.902	151.465	-0.244	-0.330
-516.887	111.477	0.181	0.218
-515.872	-126.686	0.226	0.033
-514.858	-7.410	-0.200	-0.135
-513.843	-200.000	-0.002	-0.127
-512.829	245.663	-0.107	-0.179
-511.814	-111.985	-0.495	0.099
-510.799	800.000	0.104	-0.292
-509.785	46.411	0.052	0.048
-508.770	175.035	0.099	-0.143
-507.756	-23.362	-0.277	-0.166
-506.741	-200.000	0.005	-0.056
-505.726	-200.000	-0.026	0.189
-504.712	-86.002	-0.222	0.068
-503.697	67.482	0.055	-0.055
-502.683	-200.000	0.001	-0.180
-501.668	79.458	-0.238	-0.253
-500.653	-48.126	0.121	0.058
-499.639	-200.000	0.021	0.289
-498.624	20.692	0.284	0.228
-497.610	-88.427	0.111	-0.033
-496.595	101.197	0.155	0.179
-495.581	213.021	-0.172	-0.270
-494.566	-200.000	-0.016	-0.331
-493.551	-83.425	0.085	-0.027
-492.537	-200.000	0.056	0.434
-491.522	34.155	0.192	-0.167
-490.508	-200.000	-0.004	-0.214
-489.493	50.648	0.041	-0.039
-488.478	638.578	0.049	-0.125
-487.464	-77.067	0.293	-0.101
-486.449	170.916	-0.317	-0.452
-485.435	-59.355	-0.360	0.154
-484.420	-200.000	-0.078	-0.501
-483.405	800.000	-0.065	0.218
-482.391	-200.000	0.057	-0.351
-481.376	23.609	0.108	-0.088
-480.362	-200.000	0.081	0.434
-479.347	207.376	-0.099	0.153
-478.332	800.000	0.095	-0.306
-477.318	-57.783	0.239	0.104
-476.303	160.615	-0.033	0.046
-475.289	-152.609	0.376	0.027
-474.274	-200.000	0.015	0.154
-473.259	-126.432	-0.095	0.014
-472.245	-90.163	-0.116	0.033
-471.230	-114.926	-0.020	-0.004
-470.216	-134.513	0.296	0.036
-469.201	567.371	-0.086	0.206
-468.186	108.395	0.092	0.110
-467.172	-109.974	-0.235	-0.049
-466.157	-93.621	0.108	0.030
-465.143	238.719	0.019	0.031
-464.128	-54.292	-0.107	0.048
-463.113	470.151	-0.083	-0.184
-462.099	63.082	0.169	-0.168
-461.084	-67.745	-0.422	-0.164
-460.070	-77.836	0.230	0.079
-459.055	45.284	-0.224	0.205
-458.040	117.271	-0.269	-0.329
-457.026	800.000	0.017	0.063
-456.011	13.319	0.108	0.083
-454.997	-96.088	-0.365	-0.096
-453.982	-108.169	-0.094	-0.020
-452.968	-200.000	-0.095	0.419
-451.953	195.763	0.242	0.366
-450.938	-200.000	0.015	0.185
-449.924	-200.000	0.001	-0.169
-448.909	-151.246	-0.342	0.025
-447.895	-200.000	0.042	-0.216
-446.880	800.000	-0.160	0.613
-445.865	-200.000	0.054	0.237
-444.851	800.000	0.108	-0.402
-443.836	295.459	0.159	0.288
-442.822	106.196	-0.128	0.151
-441.807	-21.321	0.228	0.138
-440.792	-200.000	-0.020	0.101
-439.778	342.067	-0.161	-0.312
-438.763	650.528	-0.077	0.197
-437.749	-47.694	0.177	0.085
-436.734	-42.876	-0.150	-0.076
-435.719	305.823	0.212	0.391
-434.705	800.000	-0.080	-0.322
-433.690	503.750	-0.121	-0.278
-432.676	215.136	-0.152	0.238
-431.661	161.758	0.024	0.034
-430.646	89.893	0.180	-0.200
-429.632	212.102	-0.176	0.275
-428.617	239.438	0.069	0.113
-427.603	-200.000	0.022	0.214
-426.588	46.717	0.307	-0.283
-425.573	-200.000	0.001	0.198
-424.559	800.000	0.072	0.250
-423.544	365.095	-0.051	0.101
-422.530	-200.000	0.026	-0.232
-421.515	597.294	0.044	-0.108
-420.500	-95.921	0.122	-0.032
-419.486	313.362	-0.104	-0.195
-418.471	336.768	0.059	0.113
-417.457	71.400	-0.221	0.227
-416.442	59.795	0.091	-0.089
-415.428	-70.503	0.351	0.132
-414.413	-18.106	-0.104	0.064
-413.398	230.235	0.067	0.109
-412.384	-152.464	0.213	-0.015
-411.369	227.824	-0.143	-0.231
-410.355	161.437	-0.162	-0.225
-409.340	481.189	0.030	0.067
-408.325	328.360	0.129	0.245
-407.311	152.481	0.182	-0.247
-406.296	75.116	-0.059	-0.061
-405.282	-117.395	0.396	-0.071
-404.267	-0.780	-0.250	-0.175
-403.252	-19.294	0.112	0.069
-402.238	20.114	-0.037	-0.030
-401.223	-200.000	-0.001	0.339
-400.209	-200.000	-0.003	-0.134
-399.194	72.346	-0.291	0.300
-398.179	673.733	0.125	0.322
-397.165	-66.319	-0.184	-0.073
-396.150	800.000	0.040	0.150
-395.136	585.651	-0.129	-0.314
-394.121	-200.000	-0.008	0.094
-393.106	303.276	0.179	0.327
-392.092	-200.000	-0.068	-0.398
-391.077	107.196	0.064	-0.076
-390.063	123.019	0.100	0.124
-389.048	315.246	0.056	-0.105
-388.033	134.539	0.065	-0.083
-387.019	-200.000	-0.019	-0.200
-386.004	336.204	-0.066	0.126
-384.990	612.189	0.035	-0.086
-383.975	68.217	0.017	0.017
-382.960	-0.895	0.148	0.104
-381.946	-24.395	0.024	-0.014
-380.931	190.337	-0.133	-0.197
-379.917	-66.496	0.049	0.019
-378.902	800.000	0.079	-0.322
-377.888	-200.000	-0.035	-0.216
-376.873	800.000	0.017	-0.069
-375.858	800.000	-0.074	0.306
-374.844	132.100	0.268	-0.342
-373.829	-10.022	-0.136	-0.090
-372.815	164.354	0.082	0.114
-371.800	197.249	-0.305	-0.460
-370.785	-109.825	-0.201	-0.042
-369.771	-2.060	-0.145	0.101
-368.756	103.424	0.157	-0.182
-367.742	57.512	0.279	0.270
-366.727	-72.595	0.409	-0.149
-365.712	411.488	-0.060	-0.125
-364.698	275.213	-0.074	-0.130
-363.683	-43.416	-0.141	0.071
-362.669	759.515	-0.019	0.051
-361.654	152.302	-0.151	-0.204
-360.639	341.645	0.119	0.230
-359.625	800.000	-0.038	0.115
-358.610	70.395	0.200	-0.204
-357.596	14.551	0.217	-0.167
-356.581	-56.830	-0.161	-0.070
-355.566	800.000	-0.101	-0.396
-354.552	19.566	0.110	-0.088
-353.537	540.927	-0.179	-0.421
-352.523	58.365	0.245	-0.238
-351.508	250.563	-0.192	0.322
-350.493	-200.000	0.018	0.145
-349.479	83.756	0.109	-0.118
-348.464	-119.537	-0.213	0.037
-347.450	23.753	0.249	0.203
-346.435	-173.286	-0.368	-0.011
-345.420	-169.934	0.126	-0.004
-344.406	-200.000	0.013	-0.090
-343.391	-42.873	-0.178	-0.089
-342.377	-135.764	-0.210	0.025
-341.362	19.601	0.107	-0.085
-340.348	-200.000	0.025	0.169
-339.333	-143.188	0.234	-0.022
-338.318	22.483	-0.121	0.098
-337.304	-89.849	-0.400	0.116
-336.289	19.290	0.050	-0.040
-335.275	-200.000	0.077	-0.475
-334.260	-200.000	0.018	-0.269
-333.245	18.251	0.109	0.086
-332.231	-64.977	-0.180	0.072
-331.216	20.980	-0.207	0.165
-330.202	-85.648	0.387	0.119
-329.187	-82.636	-0.193	-0.062
-328.172	-200.000	0.007	0.372
-327.158	800.000	0.085	0.309
-326.143	646.671	0.051	-0.130
-325.129	-88.691	0.222	-0.065
-324.114	800.000	-0.023	-0.073
-323.099	-200.000	-0.026	0.473
-322.085	-96.260	0.116	0.030
-321.070	-137.862	-0.259	0.029
-320.056	-144.224	0.112	0.010
-319.041	71.305	0.316	0.324
-318.026	-138.633	0.075	0.008
-317.012	9.232	0.128	0.096
-315.997	-104.779	-0.092	0.021
-314.983	50.678	0.172	-0.161
-313.968	-0.035	0.131	0.092
-312.953	800.000	-0.126	-0.405
-311.939	6.079	-0.241	-0.176
-310.924	-200.000	0.009	-0.335
-309.910	-200.000	-0.013	0.098
-308.895	-150.512	0.318	0.024
-307.880	800.000	0.062	-0.175
-306.866	-200.000	0.034	-0.419
-305.851	17.617	-0.097	-0.076
-304.837	-57.096	0.056	0.024
-303.822	403.408	0.057	0.118
-302.807	-72.015	-0.198	0.073
-301.793	74.795	0.164	-0.170
-300.778	123.078	0.039	-0.048
-299.764	523.658	0.099	0.230
-298.749	-200.000	0.018	-0.090
-297.735	-47.088	-0.054	-0.026
-296.720	21.660	0.292	-0.235
-295.705	-121.716	-0.213	0.035
-294.691	-158.543	0.112	0.006
-293.676	162.024	-0.260	-0.359
-292.662	800.000	-0.053	0.165
-291.647	-5.601	0.143	-0.097
-290.632	-9.668	-0.197	-0.129
-289.618	-126.351	0.165	0.024
-288.603	133.501	-0.132	-0.168
-287.589	180.012	-0.060	-0.087
-286.574	-184.597	-0.065	0.001
-285.559	686.662	0.158	0.406
-284.545	-163.308	0.443	0.021
-283.530	86.328	-0.064	0.070
-282.516	-101.078	-0.033	0.008
-281.501	11.908	-0.192	-0.145
-280.486	-24.225	-0.322	0.189
-279.472	-33.946	-0.193	0.105
-278.457	347.300	-0.086	0.166
-277.443	800.000	0.085	0.293
-276.428	437.298	0.063	-0.136
-275.413	67.911	0.156	0.157
-274.399	-129.324	-0.228	0.031
-273.384	140.514	-0.094	0.122
-272.370	157.266	0.180	0.245
-271.355	-200.000	-0.040	0.448
-270.340	384.227	-0.216	0.439
-269.326	-185.596	-0.491	0.007
-268.311	-89.627	0.233	-0.067
-267.297	-200.000	0.005	0.304
-266.282	17.514	0.393	0.308
-265.267	-37.971	-0.173	-0.090
-264.253	-200.000	-0.014	-0.080
-263.238	-11.521	0.347	-0.225
-262.224	-200.000	-0.006	0.102
-261.209	260.142	-0.029	0.049
-260.195	-200.000	0.071	0.415
-259.180	-104.861	-0.295	-0.067
-258.165	-57.798	0.140	-0.060
-257.151	-47.579	0.151	0.072
-256.136	-200.000	-0.059	0.452
-255.122	219.694	-0.166	0.262
-254.107	-200.000	0.022	-0.250
-253.092	15.625	0.120	0.093
-252.078	25.669	0.195	-0.160
-251.063	515.955	0.051	0.118
-250.049	800.000	-0.060	0.196
-249.034	12.085	-0.045	0.034
-248.019	-50.514	-0.084	-0.039
-247.005	-2.883	-0.031	-0.021
-245.990	296.916	-0.039	0.071
-244.976	-200.000	0.010	0.173
-243.961	-150.235	-0.177	0.013
-242.946	800.000	0.083	-0.273
-241.932	-149.395	0.243	-0.019
-240.917	-189.552	-0.356	0.004
-239.903	44.675	0.102	0.092
-238.888	-127.447	0.199	-0.028
-237.873	-86.738	0.202	-0.061
-236.859	-200.000	-0.125	-0.000
-235.844	111.552	-0.225	-0.267
-234.830	-200.000	0.024	-0.139
-233.815	-32.611	0.167	-0.091
-232.800	1.861	0.109	0.077
-231.786	254.526	-0.111	0.188
-230.771	47.045	-0.073	0.066
-229.757	-200.000	0.045	-0.201
-228.742	80.913	-0.266	-0.282
-227.727	2.885	-0.082	0.059
-226.713	-66.371	0.110	-0.043
-225.698	71.464	-0.066	-0.068
-224.684	596.050	-0.087	-0.212
-223.669	173.841	-0.048	-0.068
-222.655	-200.000	-0.023	0.170
-221.640	-103.334	0.046	0.011
-220.625	451.479	0.014	-0.031
-219.611	-200.000	-0.005	0.117
-218.596	800.000	0.107	0.335
-217.582	466.033	0.036	0.079
-216.567	70.935	0.020	-0.020
-215.552	31.651	0.153	-0.130
-214.538	800.000	-0.097	-0.404
-213.523	-200.000	0.003	-0.051
-212.509	-109.112	0.197	0.041
-211.494	-93.997	0.079	-0.021
-210.479	-200.000	0.022	0.165
-209.465	-156.113	0.198	-0.012
-208.450	-11.480	0.390	0.252
-207.436	-200.000	0.037	-0.179
-206.421	800.000	-0.051	0.182
-205.406	-13.535	0.443	0.282
-204.392	-49.374	0.301	0.141
-203.377	-85.586	-0.145	0.044
-202.363	-200.000	-0.021	0.215
-201.348	-2.040	0.140	-0.096
-200.333	210.678	-0.352	0.544
-199.319	-71.226	0.066	0.024
-198.304	699.927	-0.042	-0.107
-197.290	800.000	0.102	-0.394
-196.275	145.888	0.133	-0.176
-195.260	-96.763	0.083	0.021
-194.246	120.648	0.043	-0.053
-193.231	438.411	0.045	-0.096
-192.217	-121.535	-0.127	-0.021
-191.202	208.944	0.037	-0.057
-190.187	-141.137	-0.191	0.019
-189.173	220.285	0.016	-0.025
-188.158	157.621	0.208	0.283
-187.144	-167.231	0.052	-0.002
-186.129	-200.000	-0.013	-0.102
-185.114	-127.062	-0.166	-0.024
-184.100	56.619	0.058	-0.056
-183.085	457.949	-0.086	-0.188
-182.071	800.000	0.069	-0.236
-181.056	300.077	-0.172	0.311
-180.042	277.890	-0.092	0.161
-179.027	313.872	0.149	-0.276
-178.012	-61.234	-0.130	-0.054
-176.998	-34.308	-0.070	-0.038
-175.983	-200.000	0.001	0.171
-174.969	-200.000	0.003	-0.384
-173.954	138.417	0.062	0.080
-172.939	-2.950	0.161	0.110
-171.925	-100.674	0.294	0.071
-170.910	-200.000	0.076	0.352
-169.896	87.573	0.090	0.097
-168.881	-200.000	0.002	-0.027
-167.866	-39.697	-0.352	0.181
-166.852	198.888	-0.036	0.054
-165.837	-49.558	-0.123	0.057
-164.823	-13.772	0.232	0.147
-163.808	-114.439	-0.312	-0.059
-162.793	-200.000	0.050	0.501
-161.779	-200.000	-0.036	0.294
-160.764	171.869	0.112	0.157
-159.750	54.941	-0.116	-0.110
-158.735	2.899	0.167	0.119
-157.720	-109.945	0.290	0.060
-156.706	-101.874	0.362	0.086
-155.691	-70.957	0.372	0.138
-154.677	800.000	0.114	-0.396
-153.662	-200.000	-0.016	0.132
-152.647	712.831	-0.059	0.152
-151.633	-200.000	-0.048	-0.249
-150.618	-174.678	0.229	0.006
-149.604	-110.258	0.258	0.053
-148.589	535.437	0.108	0.252
-147.574	-150.989	0.069	0.005
-146.560	-96.746	-0.195	-0.050
-145.545	-0.151	-0.021	0.015
-144.531	-64.208	0.225	0.090
-143.516	-167.403	-0.344	0.014
-142.502	44.954	0.098	-0.089
-141.487	-38.879	-0.058	0.030
-140.472	-89.692	-0.298	-0.086
-139.458	-25.627	0.121	0.070
-138.443	800.000	0.030	0.114
-137.429	800.000	-0.091	0.389
-136.414	285.671	0.134	0.236
-135.399	-63.697	-0.053	0.021
-134.385	-97.435	0.169	0.043
-133.370	-200.000	-0.028	-0.133
-132.356	44.707	-0.083	-0.075
-131.341	-103.908	0.251	0.057
-130.326	-141.220	0.239	0.024
-129.312	207.548	0.073	-0.112
-128.297	800.000	-0.055	-0.170
-127.283	-157.508	-0.205	0.012
-126.268	-54.541	0.217	0.096
-125.253	-79.329	0.137	-0.045
-124.239	155.930	-0.136	0.183
-123.224	-52.210	0.185	0.084
-122.210	-200.000	0.006	0.120
-121.195	176.438	0.111	0.158
-120.180	192.314	-0.066	-0.097
-119.166	24.802	-0.306	0.248
-118.151	-18.607	0.073	-0.044
-117.137	336.067	0.187	-0.355
-116.122	-96.246	0.156	0.040
-115.107	83.762	0.276	0.295
-114.093	57.821	0.232	-0.222
-113.078	-64.070	-0.211	-0.084
-112.064	-176.895	0.084	0.002
-111.049	-148.811	-0.278	-0.022
-110.034	-147.566	-0.584	-0.048
-109.020	5.619	-0.187	-0.135
-108.005	-92.543	0.237	0.065
-106.991	7.081	0.117	0.085
-105.976	800.000	0.076	-0.292
-104.962	-149.842	0.200	-0.015
-103.947	-136.655	-0.045	0.005
-102.932	-102.871	0.267	-0.062
-101.918	-200.000	-0.008	0.206
-100.903	-200.000	0.009	0.078
-99.889	31.144	-0.040	0.034
-98.874	6.369	0.142	-0.103
-97.859	121.805	0.185	-0.226
-96.845	-154.304	0.287	-0.019
-95.830	-81.785	-0.283	-0.091
-94.816	-67.743	0.317	-0.121
-93.801	702.792	0.095	-0.245
-92.786	-2.106	0.136	-0.094
-91.772	-200.000	-0.003	-0.423
-90.757	-200.000	0.008	0.043
-89.743	-50.329	-0.054	-0.025
-88.728	800.000	-0.131	-0.403
-87.713	31.022	-0.159	0.133
-86.699	-74.318	-0.260	0.092
-85.684	800.000	0.047	0.192
-84.670	19.314	0.110	-0.086
-83.655	167.031	0.113	-0.157
-82.640	-118.186	0.305	0.053
-81.626	-200.000	-0.028	0.209
-80.611	84.575	-0.378	0.405
-79.597	159.781	0.152	0.207
-78.582	-88.812	0.078	-0.023
-77.567	-61.281	-0.112	-0.046
-76.553	800.000	0.023	0.074
-75.538	-105.218	0.056	-0.012
-74.524	-147.923	0.210	-0.017
-73.509	48.785	-0.203	0.186
-72.494	273.676	0.025	-0.043
-71.480	-200.000	0.012	-0.155
-70.465	-32.240	0.061	0.033
-69.451	216.026	0.058	-0.090
-68.436	-42.786	-0.265	0.131
-67.422	125.916	-0.321	-0.397
-66.407	800.000	-0.119	-0.323
-65.392	-27.817	-0.225	0.128
-64.378	184.102	0.059	-0.085
-63.363	35.722	-0.234	0.201
-62.349	204.155	0.160	0.243
-61.334	22.138	-1.200	-0.957
-60.319	-7.138	0.733	0.486
-59.305	800.000	-0.352	-0.958
-58.290	492.380	0.679	1.520
-57.276	800.000	0.485	1.536
-56.261	-200.000	112.550	644.004
-55.246	486.733	1491.325	3322.799
-54.232	149.623	2663.288	3525.284
-53.217	97.735	2275.249	2555.482
-52.203	36.452	1892.261	1630.770
-51.188	30.699	1685.966	1409.496
-50.173	28.275	1644.404	1356.755
-49.159	49.482	1699.323	1562.241
-48.144	48.676	1714.013	1569.624
-47.130	30.417	1672.371	1395.789
-46.115	27.687	1658.212	1363.540
-45.100	27.537	1653.409	1358.414
-44.086	27.573	1650.191	1355.988
-43.071	27.456	1648.494	1353.671
-42.057	27.409	1646.284	1351.453
-41.042	27.420	1644.171	1349.742
-40.027	27.465	1642.096	1348.319
-39.013	27.424	1640.360	1346.543
-37.998	27.431	1638.781	1345.241
-36.984	27.496	1637.398	1344.530
-35.969	27.639	1635.860	1344.274
-34.954	27.657	1633.843	1342.695
-33.940	27.605	1632.495	1341.147
-32.925	27.573	1631.058	1339.679
-31.911	27.567	1629.239	1338.089
-30.896	27.532	1627.546	1336.386
-29.881	27.590	1625.821	1335.345
-28.867	27.586	1624.214	1333.944
-27.852	27.498	1623.074	1332.307
-26.838	27.591	1620.949	1331.193
-25.823	27.537	1620.464	1330.346
-24.809	27.626	1618.792	1329.567
-23.794	27.711	1617.224	1328.848
-22.779	27.624	1615.581	1326.815
-21.765	27.659	1613.819	1325.568
-20.750	27.627	1612.527	1324.223
-19.736	27.597	1611.241	1322.895
-18.721	27.688	1609.480	1322.056
-17.706	27.639	1608.183	1320.586
-16.692	27.636	1606.646	1319.248
-15.677	27.638	1605.425	1318.209
-14.663	27.666	1604.376	1317.497
-13.648	27.637	1602.959	1316.067
-12.633	27.656	1601.631	1315.061
-11.619	27.587	1599.855	1313.057
-10.604	27.614	1598.372	1311.985
-9.590	27.646	1597.207	1311.204
-8.575	27.616	1595.767	1309.756
-7.560	27.685	1594.471	1309.131
-6.546	27.554	1593.716	1307.521
-5.531	27.594	1592.750	1306.964
-4.517	27.648	1591.222	1306.048
-3.502	27.668	1589.978	1305.117
-2.487	27.760	1588.161	1304.228
-1.473	27.371	1576.730	1292.030
-0.458	24.462	1557.152	1255.508
0.556	18.899	1558.748	1224.542
1.571	16.593	1582.279	1226.219
2.586	16.267	1594.370	1233.100
3.600	15.557	1544.290	1189.238
4.615	12.831	1446.656	1095.850
5.629	10.222	1391.286	1037.109
6.644	9.601	1384.375	1027.908
7.659	9.571	1383.444	1026.934
8.673	9.514	1382.790	1025.992
9.688	9.465	1380.451	1023.854
10.702	9.332	1377.531	1020.756
11.717	10.623	1378.962	1029.924
12.731	13.978	1385.200	1055.849
13.746	16.860	1388.823	1076.853
14.761	17.242	1388.632	1079.033
15.775	16.426	1386.122	1071.813
16.790	15.333	1383.375	1062.673
17.804	14.446	1381.181	1055.279
18.819	14.103	1379.520	1051.750
19.834	13.749	1378.285	1048.475
20.848	13.488	1377.211	1045.917
21.863	13.358	1375.588	1043.772
22.877	13.227	1374.573	1042.085
23.892	13.215	1373.598	1041.176
24.907	13.098	1373.049	1039.931
25.921	13.136	1371.698	1039.060
26.936	13.207	1370.970	1038.860
27.950	13.193	1370.079	1038.002
28.965	13.239	1368.850	1037.272
29.980	13.361	1367.143	1036.647
30.994	13.344	1366.633	1036.068
32.009	13.321	1365.654	1035.090
33.023	13.460	1364.007	1034.618
34.038	13.410	1362.583	1033.135
35.053	13.350	1361.241	1031.648
36.067	13.220	1360.660	1030.304
37.082	13.362	1359.441	1030.178
38.096	13.356	1358.383	1029.246
39.111	13.335	1357.693	1028.503
40.126	13.288	1356.932	1027.542
41.140	13.227	1355.686	1026.127
42.155	13.044	1355.008	1024.388
43.169	13.022	1355.363	1024.434
44.184	13.101	1354.980	1024.542
45.199	13.146	1353.955	1023.955
46.213	13.175	1353.520	1023.712
47.228	13.160	1352.994	1023.135
48.242	13.253	1351.601	1022.566
49.257	13.258	1350.218	1021.459
50.271	13.221	1348.940	1020.172
51.286	13.218	1347.341	1018.858
52.301	13.330	1345.645	1018.171
53.315	13.281	1344.850	1017.181
54.330	13.168	1344.172	1015.880
55.344	13.159	1342.573	1014.530
56.359	13.174	1341.553	1013.758
57.374	13.203	1340.787	1013.271
58.388	12.968	1340.701	1011.674
59.403	13.125	1339.280	1011.471
60.417	13.077	1338.744	1010.684
61.432	13.056	1337.914	1009.839
62.447	13.009	1336.601	1008.472
63.461	12.902	1336.133	1007.377
64.476	12.937	1334.833	1006.522
65.490	13.012	1333.611	1005.967
66.505	12.910	1332.226	1004.212
67.520	12.976	1330.836	1003.477
68.534	12.943	1330.359	1002.829
69.549	12.997	1329.153	1002.159
70.563	12.942	1328.180	1001.002
71.578	12.926	1326.985	999.919
72.593	12.941	1326.149	999.290
73.607	12.799	1325.486	997.844
74.622	12.876	1324.510	997.486
75.636	12.941	1323.763	997.229
76.651	12.891	1323.647	996.750
77.666	12.907	1322.522	995.909
78.680	12.920	1322.375	995.790
79.695	13.058	1321.101	995.574
80.709	13.062	1320.535	995.085
81.724	12.988	1320.186	994.287
82.739	13.130	1318.682	993.920
83.753	13.124	1318.203	993.437
84.768	13.222	1316.724	992.825
85.782	13.316	1315.612	992.462
86.797	13.184	1314.277	990.572
87.812	13.035	1313.480	988.991
88.826	13.228	1311.636	988.672
89.841	13.211	1310.987	987.994
90.855	13.196	1309.898	986.993
91.870	13.249	1309.385	986.835
92.884	13.260	1308.560	986.192
93.899	13.335	1307.521	985.770
94.914	13.389	1306.693	985.380
95.928	13.458	1305.650	984.918
96.943	13.299	1305.085	983.457
97.957	13.290	1303.697	982.271
98.972	13.208	1303.131	981.272
99.987	13.234	1301.740	980.291
101.001	13.228	1300.630	979.334
102.016	13.271	1299.943	978.983
103.030	13.310	1299.310	978.653
104.045	13.287	1298.213	977.603
105.060	13.177	1296.828	975.824
106.074	13.180	1295.581	974.818
107.089	13.099	1294.178	973.198
108.103	13.007	1292.883	971.599
109.118	13.022	1291.744	970.743
110.133	12.959	1290.792	969.569
111.147	13.011	1289.145	968.556
112.162	13.136	1287.680	968.099
113.176	13.126	1286.588	967.135
114.191	13.027	1286.157	966.148
115.206	13.142	1284.977	965.844
116.220	13.054	1283.512	964.146
117.235	13.139	1282.554	963.836
118.249	13.146	1281.483	962.988
119.264	13.089	1279.746	961.265
120.279	13.008	1279.468	960.501
121.293	12.933	1278.181	959.012
122.308	13.089	1276.943	958.906
123.322	13.002	1275.855	957.498
124.337	13.069	1274.780	956.994
125.352	13.004	1273.912	955.884
126.366	13.055	1272.633	955.136
127.381	12.991	1271.890	954.122
128.395	13.073	1270.330	953.341
129.410	12.965	1269.472	951.992
130.424	13.102	1268.485	951.954
131.439	13.141	1267.477	951.338
132.454	13.048	1267.238	950.540
133.468	13.097	1266.238	949.988
134.483	13.138	1265.302	949.434
135.497	13.177	1264.274	948.807
136.512	13.170	1262.759	947.546
137.527	13.127	1261.718	946.430
138.541	13.241	1259.723	945.504
139.556	13.187	1258.702	944.348
140.570	13.246	1257.790	943.915
141.585	13.435	1256.081	943.628
142.600	13.321	1254.953	942.047
143.614	13.322	1254.598	941.700
144.629	13.439	1253.204	941.237
145.643	13.361	1252.041	939.837
146.658	13.276	1251.365	938.767
147.673	13.190	1250.145	937.276
148.687	13.247	1248.225	936.078
149.702	13.292	1246.807	935.186
150.716	13.208	1245.187	933.415
151.731	13.206	1244.243	932.615
152.746	13.311	1243.106	932.271
153.760	13.334	1241.670	931.240
154.775	13.331	1241.608	931.095
155.789	13.428	1240.219	930.519
156.804	13.310	1239.252	929.044
157.819	13.370	1237.900	928.290
158.833	13.466	1236.950	928.032
159.848	13.645	1235.881	928.151
160.862	13.535	1234.894	926.710
161.877	13.392	1234.496	925.529
162.892	13.267	1233.293	923.847
163.906	13.326	1232.039	923.156
164.921	13.427	1231.214	923.021
165.935	13.377	1230.825	922.368
166.950	13.432	1229.763	921.798
167.964	13.493	1228.907	921.414
168.979	13.380	1228.382	920.311
169.994	13.453	1227.407	919.904
171.008	13.538	1226.460	919.582
172.023	13.527	1225.602	918.799
173.037	13.555	1225.035	918.448
174.052	13.552	1224.227	917.740
175.067	13.467	1223.104	916.351
176.081	13.520	1221.588	915.424
177.096	13.514	1221.123	914.960
178.110	13.454	1220.180	913.843
179.125	13.530	1218.946	913.260
180.140	13.370	1218.546	911.993
181.154	13.424	1216.918	910.993
182.169	13.620	1215.434	910.880
183.183	13.604	1214.345	909.893
184.198	13.713	1212.742	909.212
185.213	13.656	1211.898	908.184
186.227	13.778	1210.771	907.927
187.242	13.720	1210.130	907.050
188.256	13.742	1209.038	906.269
189.271	13.790	1208.003	905.680
190.286	13.632	1207.491	904.350
191.300	13.500	1206.211	902.593
192.315	13.494	1205.635	902.052
193.329	13.455	1205.021	901.297
194.344	13.553	1203.895	900.909
195.359	13.637	1203.626	901.084
196.373	13.635	1203.220	900.688
197.388	13.793	1202.616	901.015
198.402	13.846	1202.106	900.845
199.417	13.795	1201.831	900.277
200.432	13.928	1200.597	899.997
201.446	13.990	1199.772	899.636
202.461	13.966	1199.229	899.016
203.475	14.008	1198.063	898.291
204.490	13.887	1196.820	896.628
205.504	13.941	1195.396	895.771
206.519	13.835	1194.281	894.286
207.534	13.869	1192.851	893.319
208.548	13.885	1191.896	892.611
209.563	13.963	1191.555	892.693
210.577	13.983	1190.247	891.743
211.592	14.008	1189.725	891.408
212.607	14.031	1188.959	890.877
213.621	14.071	1187.797	890.145
214.636	14.012	1187.113	889.235
215.650	14.046	1186.155	888.624
216.665	14.083	1185.417	888.185
217.680	14.154	1184.298	887.648
218.694	14.157	1183.918	887.301
219.709	14.122	1182.627	886.068
220.723	14.181	1181.970	885.811
221.738	14.171	1181.540	885.361
222.753	14.249	1180.661	885.035
223.767	14.191	1179.898	884.081
224.782	14.163	1179.546	883.587
225.796	14.310	1178.541	883.535
226.811	14.252	1177.926	882.691
227.826	14.276	1177.055	882.085
228.840	14.283	1176.746	881.813
229.855	14.314	1175.816	881.202
230.869	14.165	1174.936	879.678
231.884	14.266	1174.457	879.775
232.899	14.231	1173.444	878.753
233.913	14.197	1172.822	878.030
234.928	14.265	1171.738	877.500
235.942	14.216	1170.975	876.595
236.957	14.325	1170.320	876.598
237.972	14.155	1169.862	875.283
238.986	14.276	1169.279	875.405
240.001	14.220	1168.469	874.430
241.015	14.320	1167.534	874.177
242.030	14.311	1167.078	873.707
243.045	14.366	1166.038	873.144
244.059	14.393	1164.908	872.359
245.074	14.391	1164.116	871.677
246.088	14.416	1163.588	871.338
247.103	14.439	1162.645	870.672
248.117	14.478	1162.181	870.453
249.132	14.615	1161.187	870.345
250.147	14.638	1160.767	870.076
251.161	14.641	1160.375	869.720
252.176	14.618	1159.826	869.112
253.190	14.753	1159.142	869.222
254.205	14.757	1158.202	868.462
255.220	14.882	1157.408	868.438
256.234	14.804	1156.749	867.465
257.249	14.821	1155.934	866.862
258.263	14.864	1155.345	866.570
259.278	14.854	1154.790	866.026
260.293	14.813	1154.709	865.673
261.307	14.924	1153.810	865.500
262.322	14.939	1153.019	864.909
263.336	14.799	1152.996	864.087
264.351	14.951	1151.920	863.990
265.366	15.031	1150.801	863.486
266.380	14.985	1150.095	862.644
267.395	14.941	1149.601	861.970
268.409	14.976	1148.914	861.559
269.424	14.925	1148.522	860.925
270.439	14.989	1147.400	860.338
271.453	14.957	1147.058	859.843
272.468	14.898	1145.987	858.659
273.482	15.077	1144.745	858.570
274.497	14.945	1144.830	857.880
275.512	14.977	1144.014	857.356
276.526	14.950	1143.557	856.801
277.541	15.005	1142.446	856.176
278.555	14.915	1142.108	855.386
279.570	15.169	1140.766	855.603
280.585	15.215	1140.161	855.307
281.599	15.208	1139.489	854.694
282.614	15.192	1138.385	853.705
283.628	15.197	1137.153	852.733
284.643	15.076	1136.404	851.480
285.657	15.086	1135.553	850.819
286.672	15.144	1134.501	850.252
287.687	15.215	1133.706	849.937
288.701	15.182	1132.784	849.004
289.716	15.159	1132.189	848.366
290.730	15.224	1131.538	848.132
291.745	15.230	1130.966	847.662
292.760	15.298	1130.500	847.580
293.774	15.267	1129.789	846.813
294.789	15.364	1129.321	846.877
295.803	15.405	1128.362	846.293
296.818	15.316	1127.765	845.322
297.833	15.323	1126.798	844.558
298.847	15.370	1125.751	843.931
299.862	15.269	1124.944	842.744
300.876	15.401	1124.799	843.228
301.891	15.485	1123.428	842.544
302.906	15.425	1123.079	841.910
303.920	15.538	1122.586	842.032
304.935	15.635	1121.719	841.789
305.949	15.583	1121.000	840.916
306.964	15.611	1120.524	840.625
307.979	15.510	1120.144	839.763
308.993	15.549	1119.193	839.169
310.008	15.653	1117.943	838.676
311.022	15.790	1117.018	838.591
312.037	15.704	1116.236	837.501
313.052	15.564	1116.093	836.621
314.066	15.656	1114.885	836.102
315.081	15.517	1114.122	834.762
316.095	15.550	1113.056	834.054
317.110	15.555	1112.258	833.409
318.125	15.476	1111.820	832.613
319.139	15.522	1111.436	832.483
320.154	15.524	1110.521	831.733
321.168	15.514	1109.990	831.209
322.183	15.680	1109.130	831.313
323.197	15.662	1108.704	830.831
324.212	15.660	1108.312	830.454
325.227	15.568	1107.615	829.408
326.241	15.562	1106.628	828.561
327.256	15.659	1105.891	828.418
328.270	15.571	1105.127	827.339
329.285	15.793	1103.744	827.319
330.300	15.742	1102.777	826.274
331.314	15.728	1101.749	825.361
332.329	15.688	1101.100	824.605
333.343	15.814	1100.101	824.401
334.358	15.775	1099.311	823.546
335.373	15.850	1098.932	823.556
336.387	15.743	1098.094	822.331
337.402	15.798	1097.631	822.183
338.416	15.851	1096.515	821.531
339.431	16.021	1096.148	822.014
340.446	15.986	1095.182	821.044
341.460	15.888	1095.348	820.618
342.475	16.044	1094.184	820.434
343.489	16.080	1093.070	819.699
344.504	16.098	1092.468	819.264
345.519	16.078	1091.371	818.270
346.533	16.154	1090.370	817.819
347.548	16.221	1090.000	817.790
348.562	16.159	1088.932	816.620
349.577	16.187	1088.104	816.061
350.592	16.117	1087.382	815.110
351.606	15.957	1087.063	814.024
352.621	15.969	1086.089	813.280
353.635	16.093	1085.449	813.327
354.650	16.014	1084.698	812.313
355.665	16.082	1083.757	811.864
356.679	16.149	1083.077	811.606
357.694	16.033	1082.876	810.826
358.708	16.178	1082.360	811.063
359.723	16.316	1081.436	810.963
360.738	16.180	1081.078	809.966
361.752	16.146	1080.601	809.377
362.767	16.217	1079.505	808.825
363.781	16.267	1079.177	808.746
364.796	16.220	1078.934	808.268
365.810	16.330	1077.669	807.772
366.825	16.404	1077.811	808.163
367.840	16.372	1077.013	807.342
368.854	16.521	1076.317	807.461
369.869	16.525	1075.747	806.981
370.883	16.414	1074.602	805.522
371.898	16.377	1074.211	804.977
372.913	16.482	1073.493	804.869
373.927	16.451	1072.985	804.268
374.942	16.466	1072.394	803.827
375.956	16.499	1071.804	803.470
376.971	16.560	1071.317	803.324
377.986	16.592	1070.598	802.866
379.000	16.582	1070.250	802.486
380.015	16.701	1069.836	802.667
381.029	16.733	1068.714	801.906
382.044	16.722	1067.834	801.126
383.059	16.698	1067.114	800.400
384.073	16.770	1066.523	800.226
385.088	16.703	1065.545	799.105
386.102	16.725	1064.800	798.581
387.117	16.721	1063.873	797.794
388.132	16.634	1063.190	796.801
389.146	16.645	1061.970	795.868
390.161	16.608	1061.819	795.511
391.175	16.655	1060.519	794.687
392.190	16.691	1060.215	794.560
393.205	16.812	1059.794	794.743
394.219	16.727	1058.708	793.458
395.234	16.779	1057.955	793.069
396.248	16.736	1056.715	791.864
397.263	16.844	1055.423	791.332
398.278	16.749	1055.288	790.719
399.292	16.677	1054.671	789.849
400.307	16.635	1054.087	789.147
401.321	16.674	1053.070	788.496
402.336	16.711	1052.860	788.441
403.350	16.777	1051.631	787.760
404.365	16.754	1051.252	787.297
405.380	16.810	1050.596	786.999
406.394	16.830	1049.773	786.404
407.409	16.950	1048.853	786.202
408.423	17.039	1047.911	785.836
409.438	16.978	1047.722	785.343
410.453	16.970	1046.980	784.682
411.467	17.087	1046.055	784.462
412.482	17.059	1045.564	783.895
413.496	17.108	1044.897	783.551
414.511	17.144	1044.429	783.296
415.526	17.203	1044.031	783.199
416.540	17.332	1043.308	783.182
417.555	17.311	1042.731	782.585
418.569	17.212	1042.348	781.772
419.584	17.195	1041.646	781.095
420.599	17.296	1041.260	781.201
421.613	104.847	1325.947	1477.572
422.628	96.236	1367.382	1477.688
